URL	chrom://7040-86g6c92/XVault/Ultimate_3000/20/20240517_CMO_FP23_FP25_MarkusDeplate.seq/852.smp/RI_1.channel/RI_1.chm
Channel	RI_1

Injection Information:
Data Vault	XVault
Sequence	20240517_CMO_FP23_FP25_MarkusDeplate
Name	FP25_24_s3
Number	50
Position	BE2
Comment	
Processing Method	
Instrument Method	run_25B_method
Type	Unknown
Status	Finished
Inject Time	29.05.2024 03:29:58 +02:00
Volume (µl)	20.0000
Dilution Factor	1.0000
Weight	1.0000

Chromatogram Data Information:
Time Min. (min)	0.000000
Time Max. (min)	40.000000
Data Points	2401
Detector	RI
Generating Data System	Chromeleon 7.3.2.11814
Exporting Data System	Chromeleon 7.3.2.0
Operator	Instrument Controller
Signal Quantity	Refractive 
Signal Unit	µRIU
Signal Min.	-0.768375
Signal Max.	60.432375
Channel	RI_1
Driver Name	RID520Driver.dll
Channel Type	Evaluation
Min. Step (s)	1
Max. Step (s)	1
Average Step (s)	1

Signal Parameter Information:
Signal Info	

Chromatogram Data:
Time (min)	Step (s)	Value (µRIU)
0.000000	n.a.	-0.027625
0.016667	1	-0.027625
0.033333	1	-0.026875
0.050000	1	-0.026000
0.066667	1	-0.026000
0.083333	1	-0.025750
0.100000	1	-0.025375
0.116667	1	-0.025000
0.133333	1	-0.024625
0.150000	1	-0.024625
0.166667	1	-0.024750
0.183333	1	-0.025250
0.200000	1	-0.024375
0.216667	1	-0.024625
0.233333	1	-0.024000
0.250000	1	-0.024625
0.266667	1	-0.025250
0.283333	1	-0.025500
0.300000	1	-0.025750
0.316667	1	-0.025625
0.333333	1	-0.025500
0.350000	1	-0.026000
0.366667	1	-0.026250
0.383333	1	-0.026750
0.400000	1	-0.027875
0.416667	1	-0.028000
0.433333	1	-0.026125
0.450000	1	-0.024000
0.466667	1	-0.021625
0.483333	1	-0.019250
0.500000	1	-0.017250
0.516667	1	-0.015750
0.533333	1	-0.015125
0.550000	1	-0.014500
0.566667	1	-0.015125
0.583333	1	-0.016500
0.600000	1	-0.017000
0.616667	1	-0.017750
0.633333	1	-0.018750
0.650000	1	-0.018875
0.666667	1	-0.018625
0.683333	1	-0.017750
0.700000	1	-0.017000
0.716667	1	-0.015875
0.733333	1	-0.014625
0.750000	1	-0.013375
0.766667	1	-0.013000
0.783333	1	-0.011250
0.800000	1	-0.010250
0.816667	1	-0.009625
0.833333	1	-0.008500
0.850000	1	-0.007625
0.866667	1	-0.006375
0.883333	1	-0.004875
0.900000	1	-0.004625
0.916667	1	-0.003875
0.933333	1	-0.003125
0.950000	1	-0.002250
0.966667	1	-0.001875
0.983333	1	-0.001250
1.000000	1	-0.001125
1.016667	1	-0.000625
1.033333	1	-0.000125
1.050000	1	-0.001250
1.066667	1	-0.001875
1.083333	1	-0.001875
1.100000	1	-0.002375
1.116667	1	-0.003750
1.133333	1	-0.005375
1.150000	1	-0.006500
1.166667	1	-0.008000
1.183333	1	-0.009375
1.200000	1	-0.012000
1.216667	1	-0.013875
1.233333	1	-0.015375
1.250000	1	-0.017000
1.266667	1	-0.018875
1.283333	1	-0.020750
1.300000	1	-0.023000
1.316667	1	-0.025375
1.333333	1	-0.027500
1.350000	1	-0.030125
1.366667	1	-0.032125
1.383333	1	-0.034750
1.400000	1	-0.037000
1.416667	1	-0.038625
1.433333	1	-0.041125
1.450000	1	-0.043375
1.466667	1	-0.044500
1.483333	1	-0.046375
1.500000	1	-0.047625
1.516667	1	-0.048875
1.533333	1	-0.050250
1.550000	1	-0.052000
1.566667	1	-0.052875
1.583333	1	-0.054375
1.600000	1	-0.055375
1.616667	1	-0.056250
1.633333	1	-0.057125
1.650000	1	-0.057125
1.666667	1	-0.057750
1.683333	1	-0.058500
1.700000	1	-0.059375
1.716667	1	-0.059500
1.733333	1	-0.059375
1.750000	1	-0.060250
1.766667	1	-0.060250
1.783333	1	-0.059875
1.800000	1	-0.059875
1.816667	1	-0.060250
1.833333	1	-0.060125
1.850000	1	-0.060250
1.866667	1	-0.060375
1.883333	1	-0.060500
1.900000	1	-0.059875
1.916667	1	-0.059250
1.933333	1	-0.059000
1.950000	1	-0.058875
1.966667	1	-0.059125
1.983333	1	-0.058875
2.000000	1	-0.059000
2.016667	1	-0.058875
2.033333	1	-0.058625
2.050000	1	-0.057625
2.066667	1	-0.057375
2.083333	1	-0.057250
2.100000	1	-0.056375
2.116667	1	-0.055875
2.133333	1	-0.054750
2.150000	1	-0.054250
2.166667	1	-0.054125
2.183333	1	-0.054000
2.200000	1	-0.053125
2.216667	1	-0.053250
2.233333	1	-0.053125
2.250000	1	-0.052375
2.266667	1	-0.051375
2.283333	1	-0.051000
2.300000	1	-0.049375
2.316667	1	-0.048250
2.333333	1	-0.047250
2.350000	1	-0.046500
2.366667	1	-0.045750
2.383333	1	-0.045000
2.400000	1	-0.044125
2.416667	1	-0.043875
2.433333	1	-0.042625
2.450000	1	-0.042250
2.466667	1	-0.041625
2.483333	1	-0.040125
2.500000	1	-0.040000
2.516667	1	-0.039375
2.533333	1	-0.038750
2.550000	1	-0.037625
2.566667	1	-0.037375
2.583333	1	-0.036625
2.600000	1	-0.036250
2.616667	1	-0.035000
2.633333	1	-0.034750
2.650000	1	-0.033875
2.666667	1	-0.033875
2.683333	1	-0.033375
2.700000	1	-0.034000
2.716667	1	-0.034500
2.733333	1	-0.034750
2.750000	1	-0.035375
2.766667	1	-0.035875
2.783333	1	-0.036500
2.800000	1	-0.036875
2.816667	1	-0.038125
2.833333	1	-0.039500
2.850000	1	-0.040375
2.866667	1	-0.042250
2.883333	1	-0.043125
2.900000	1	-0.044500
2.916667	1	-0.045500
2.933333	1	-0.046875
2.950000	1	-0.048000
2.966667	1	-0.049750
2.983333	1	-0.051500
3.000000	1	-0.052750
3.016667	1	-0.053875
3.033333	1	-0.055125
3.050000	1	-0.057125
3.066667	1	-0.058250
3.083333	1	-0.059250
3.100000	1	-0.060125
3.116667	1	-0.061625
3.133333	1	-0.062875
3.150000	1	-0.063625
3.166667	1	-0.065000
3.183333	1	-0.066500
3.200000	1	-0.067000
3.216667	1	-0.067750
3.233333	1	-0.068250
3.250000	1	-0.069125
3.266667	1	-0.069125
3.283333	1	-0.069125
3.300000	1	-0.069625
3.316667	1	-0.069250
3.333333	1	-0.069000
3.350000	1	-0.067625
3.366667	1	-0.067000
3.383333	1	-0.066500
3.400000	1	-0.064625
3.416667	1	-0.063125
3.433333	1	-0.061750
3.450000	1	-0.060125
3.466667	1	-0.058125
3.483333	1	-0.055625
3.500000	1	-0.053625
3.516667	1	-0.051750
3.533333	1	-0.050000
3.550000	1	-0.047875
3.566667	1	-0.045625
3.583333	1	-0.043250
3.600000	1	-0.041000
3.616667	1	-0.038250
3.633333	1	-0.035125
3.650000	1	-0.034125
3.666667	1	-0.031500
3.683333	1	-0.029375
3.700000	1	-0.027125
3.716667	1	-0.025375
3.733333	1	-0.024375
3.750000	1	-0.022625
3.766667	1	-0.020625
3.783333	1	-0.019500
3.800000	1	-0.017625
3.816667	1	-0.016500
3.833333	1	-0.015625
3.850000	1	-0.015125
3.866667	1	-0.013750
3.883333	1	-0.013125
3.900000	1	-0.012125
3.916667	1	-0.012250
3.933333	1	-0.012000
3.950000	1	-0.011750
3.966667	1	-0.012500
3.983333	1	-0.012375
4.000000	1	-0.012500
4.016667	1	-0.012375
4.033333	1	-0.012500
4.050000	1	-0.013000
4.066667	1	-0.013875
4.083333	1	-0.014500
4.100000	1	-0.015375
4.116667	1	-0.016750
4.133333	1	-0.018500
4.150000	1	-0.020125
4.166667	1	-0.021000
4.183333	1	-0.022250
4.200000	1	-0.023750
4.216667	1	-0.024500
4.233333	1	-0.025250
4.250000	1	-0.027125
4.266667	1	-0.028000
4.283333	1	-0.029375
4.300000	1	-0.030500
4.316667	1	-0.032125
4.333333	1	-0.032875
4.350000	1	-0.033875
4.366667	1	-0.034625
4.383333	1	-0.035625
4.400000	1	-0.036375
4.416667	1	-0.036625
4.433333	1	-0.037000
4.450000	1	-0.037875
4.466667	1	-0.038250
4.483333	1	-0.038500
4.500000	1	-0.038625
4.516667	1	-0.038500
4.533333	1	-0.038750
4.550000	1	-0.038875
4.566667	1	-0.039250
4.583333	1	-0.038625
4.600000	1	-0.038000
4.616667	1	-0.037625
4.633333	1	-0.036500
4.650000	1	-0.035375
4.666667	1	-0.034875
4.683333	1	-0.033750
4.700000	1	-0.032375
4.716667	1	-0.030875
4.733333	1	-0.029000
4.750000	1	-0.027125
4.766667	1	-0.025375
4.783333	1	-0.023125
4.800000	1	-0.021375
4.816667	1	-0.018875
4.833333	1	-0.016500
4.850000	1	-0.013500
4.866667	1	-0.010750
4.883333	1	-0.008250
4.900000	1	-0.005000
4.916667	1	-0.001625
4.933333	1	0.000750
4.950000	1	0.004000
4.966667	1	0.007125
4.983333	1	0.010500
5.000000	1	0.014000
5.016667	1	0.017250
5.033333	1	0.021125
5.050000	1	0.024375
5.066667	1	0.028250
5.083333	1	0.031500
5.100000	1	0.035000
5.116667	1	0.037750
5.133333	1	0.041500
5.150000	1	0.046000
5.166667	1	0.049625
5.183333	1	0.052875
5.200000	1	0.057250
5.216667	1	0.061250
5.233333	1	0.065250
5.250000	1	0.069250
5.266667	1	0.073375
5.283333	1	0.077250
5.300000	1	0.081875
5.316667	1	0.086000
5.333333	1	0.090375
5.350000	1	0.095375
5.366667	1	0.100500
5.383333	1	0.106125
5.400000	1	0.111375
5.416667	1	0.116875
5.433333	1	0.122750
5.450000	1	0.128500
5.466667	1	0.133750
5.483333	1	0.139000
5.500000	1	0.144250
5.516667	1	0.150500
5.533333	1	0.155500
5.550000	1	0.161375
5.566667	1	0.166625
5.583333	1	0.171625
5.600000	1	0.176375
5.616667	1	0.181000
5.633333	1	0.185500
5.650000	1	0.190375
5.666667	1	0.195000
5.683333	1	0.199375
5.700000	1	0.203125
5.716667	1	0.207000
5.733333	1	0.210125
5.750000	1	0.212625
5.766667	1	0.215625
5.783333	1	0.217625
5.800000	1	0.220000
5.816667	1	0.221375
5.833333	1	0.222750
5.850000	1	0.223000
5.866667	1	0.224000
5.883333	1	0.224750
5.900000	1	0.225125
5.916667	1	0.224250
5.933333	1	0.223000
5.950000	1	0.222625
5.966667	1	0.221250
5.983333	1	0.219875
6.000000	1	0.217875
6.016667	1	0.215500
6.033333	1	0.213375
6.050000	1	0.210750
6.066667	1	0.207125
6.083333	1	0.204000
6.100000	1	0.200500
6.116667	1	0.197875
6.133333	1	0.194625
6.150000	1	0.191750
6.166667	1	0.187875
6.183333	1	0.184500
6.200000	1	0.181500
6.216667	1	0.179125
6.233333	1	0.176375
6.250000	1	0.173625
6.266667	1	0.170375
6.283333	1	0.167375
6.300000	1	0.164875
6.316667	1	0.162250
6.333333	1	0.159500
6.350000	1	0.157125
6.366667	1	0.155375
6.383333	1	0.153750
6.400000	1	0.152250
6.416667	1	0.151125
6.433333	1	0.149500
6.450000	1	0.148750
6.466667	1	0.147500
6.483333	1	0.146375
6.500000	1	0.145500
6.516667	1	0.144500
6.533333	1	0.144500
6.550000	1	0.144250
6.566667	1	0.143625
6.583333	1	0.143250
6.600000	1	0.143375
6.616667	1	0.142875
6.633333	1	0.142750
6.650000	1	0.142250
6.666667	1	0.141625
6.683333	1	0.141250
6.700000	1	0.141125
6.716667	1	0.140250
6.733333	1	0.139000
6.750000	1	0.138500
6.766667	1	0.136875
6.783333	1	0.135250
6.800000	1	0.133875
6.816667	1	0.132500
6.833333	1	0.131500
6.850000	1	0.129875
6.866667	1	0.128000
6.883333	1	0.126000
6.900000	1	0.123000
6.916667	1	0.121000
6.933333	1	0.119875
6.950000	1	0.117750
6.966667	1	0.115500
6.983333	1	0.114000
7.000000	1	0.112000
7.016667	1	0.110125
7.033333	1	0.107625
7.050000	1	0.105750
7.066667	1	0.103625
7.083333	1	0.101875
7.100000	1	0.100875
7.116667	1	0.100250
7.133333	1	0.099250
7.150000	1	0.098000
7.166667	1	0.097375
7.183333	1	0.097125
7.200000	1	0.097000
7.216667	1	0.097125
7.233333	1	0.097250
7.250000	1	0.097500
7.266667	1	0.097875
7.283333	1	0.098500
7.300000	1	0.099500
7.316667	1	0.100625
7.333333	1	0.101750
7.350000	1	0.103625
7.366667	1	0.105125
7.383333	1	0.106500
7.400000	1	0.107750
7.416667	1	0.109750
7.433333	1	0.111875
7.450000	1	0.112875
7.466667	1	0.114250
7.483333	1	0.116000
7.500000	1	0.118000
7.516667	1	0.119875
7.533333	1	0.121625
7.550000	1	0.123500
7.566667	1	0.124375
7.583333	1	0.125875
7.600000	1	0.127750
7.616667	1	0.129625
7.633333	1	0.130625
7.650000	1	0.132000
7.666667	1	0.133125
7.683333	1	0.134250
7.700000	1	0.134625
7.716667	1	0.135375
7.733333	1	0.136250
7.750000	1	0.137375
7.766667	1	0.137500
7.783333	1	0.137125
7.800000	1	0.137000
7.816667	1	0.136750
7.833333	1	0.136125
7.850000	1	0.134625
7.866667	1	0.133750
7.883333	1	0.132750
7.900000	1	0.131625
7.916667	1	0.130125
7.933333	1	0.128000
7.950000	1	0.125375
7.966667	1	0.122875
7.983333	1	0.120250
8.000000	1	0.117375
8.016667	1	0.114375
8.033333	1	0.111250
8.050000	1	0.107750
8.066667	1	0.104625
8.083333	1	0.101125
8.100000	1	0.096750
8.116667	1	0.092875
8.133333	1	0.089000
8.150000	1	0.084625
8.166667	1	0.080250
8.183333	1	0.075875
8.200000	1	0.070875
8.216667	1	0.066625
8.233333	1	0.062250
8.250000	1	0.057875
8.266667	1	0.052875
8.283333	1	0.048375
8.300000	1	0.043750
8.316667	1	0.039250
8.333333	1	0.035375
8.350000	1	0.031125
8.366667	1	0.027000
8.383333	1	0.023375
8.400000	1	0.019375
8.416667	1	0.015875
8.433333	1	0.012375
8.450000	1	0.008750
8.466667	1	0.005750
8.483333	1	0.002750
8.500000	1	0.000500
8.516667	1	-0.001125
8.533333	1	-0.003000
8.550000	1	-0.004625
8.566667	1	-0.005625
8.583333	1	-0.006375
8.600000	1	-0.006625
8.616667	1	-0.006875
8.633333	1	-0.006750
8.650000	1	-0.006625
8.666667	1	-0.005875
8.683333	1	-0.005750
8.700000	1	-0.005000
8.716667	1	-0.004375
8.733333	1	-0.003500
8.750000	1	-0.002875
8.766667	1	-0.001625
8.783333	1	0.000125
8.800000	1	0.001375
8.816667	1	0.003250
8.833333	1	0.004375
8.850000	1	0.005500
8.866667	1	0.006625
8.883333	1	0.008125
8.900000	1	0.008875
8.916667	1	0.010125
8.933333	1	0.010250
8.950000	1	0.011250
8.966667	1	0.012750
8.983333	1	0.013625
9.000000	1	0.014625
9.016667	1	0.015375
9.033333	1	0.015750
9.050000	1	0.016250
9.066667	1	0.016250
9.083333	1	0.017000
9.100000	1	0.017500
9.116667	1	0.018000
9.133333	1	0.018375
9.150000	1	0.019875
9.166667	1	0.020250
9.183333	1	0.020250
9.200000	1	0.020625
9.216667	1	0.020750
9.233333	1	0.020125
9.250000	1	0.019375
9.266667	1	0.019500
9.283333	1	0.019500
9.300000	1	0.018875
9.316667	1	0.018250
9.333333	1	0.017750
9.350000	1	0.017000
9.366667	1	0.016125
9.383333	1	0.016375
9.400000	1	0.015375
9.416667	1	0.014625
9.433333	1	0.013375
9.450000	1	0.012375
9.466667	1	0.011000
9.483333	1	0.009375
9.500000	1	0.008000
9.516667	1	0.006750
9.533333	1	0.005750
9.550000	1	0.005000
9.566667	1	0.003125
9.583333	1	0.001375
9.600000	1	-0.000250
9.616667	1	-0.001625
9.633333	1	-0.003250
9.650000	1	-0.004375
9.666667	1	-0.006250
9.683333	1	-0.007000
9.700000	1	-0.008000
9.716667	1	-0.009250
9.733333	1	-0.010375
9.750000	1	-0.011375
9.766667	1	-0.012000
9.783333	1	-0.012500
9.800000	1	-0.013625
9.816667	1	-0.014500
9.833333	1	-0.014250
9.850000	1	-0.015125
9.866667	1	-0.015125
9.883333	1	-0.015625
9.900000	1	-0.015250
9.916667	1	-0.014750
9.933333	1	-0.013375
9.950000	1	-0.012125
9.966667	1	-0.010250
9.983333	1	-0.008500
10.000000	1	-0.005875
10.016667	1	-0.002625
10.033333	1	0.001375
10.050000	1	0.006625
10.066667	1	0.012000
10.083333	1	0.018500
10.100000	1	0.024875
10.116667	1	0.032750
10.133333	1	0.040875
10.150000	1	0.049500
10.166667	1	0.059500
10.183333	1	0.069500
10.200000	1	0.080375
10.216667	1	0.092500
10.233333	1	0.106375
10.250000	1	0.121250
10.266667	1	0.138375
10.283333	1	0.157750
10.300000	1	0.179125
10.316667	1	0.204125
10.333333	1	0.230625
10.350000	1	0.259875
10.366667	1	0.292875
10.383333	1	0.329625
10.400000	1	0.368750
10.416667	1	0.407375
10.433333	1	0.439250
10.450000	1	0.455000
10.466667	1	0.443625
10.483333	1	0.398375
10.500000	1	0.322375
10.516667	1	0.242500
10.533333	1	0.208375
10.550000	1	0.297500
10.566667	1	0.602500
10.583333	1	1.224125
10.600000	1	2.254875
10.616667	1	3.772500
10.633333	1	5.832000
10.650000	1	8.464625
10.666667	1	11.688875
10.683333	1	15.495000
10.700000	1	19.850375
10.716667	1	24.685750
10.733333	1	29.887250
10.750000	1	35.275250
10.766667	1	40.586250
10.783333	1	45.466500
10.800000	1	49.486625
10.816667	1	52.194625
10.833333	1	53.225250
10.850000	1	52.420375
10.866667	1	49.888750
10.883333	1	45.986750
10.900000	1	41.212250
10.916667	1	36.072625
10.933333	1	30.981125
10.950000	1	26.221625
10.966667	1	21.955000
10.983333	1	18.246625
11.000000	1	15.100875
11.016667	1	12.483000
11.033333	1	10.338125
11.050000	1	8.601750
11.066667	1	7.207625
11.083333	1	6.093625
11.100000	1	5.204125
11.116667	1	4.493125
11.133333	1	3.922625
11.150000	1	3.463000
11.166667	1	3.088625
11.183333	1	2.781875
11.200000	1	2.527750
11.216667	1	2.315250
11.233333	1	2.134875
11.250000	1	1.981875
11.266667	1	1.850750
11.283333	1	1.736750
11.300000	1	1.638125
11.316667	1	1.551250
11.333333	1	1.475250
11.350000	1	1.408250
11.366667	1	1.349375
11.383333	1	1.297000
11.400000	1	1.250750
11.416667	1	1.209250
11.433333	1	1.171625
11.450000	1	1.137875
11.466667	1	1.108375
11.483333	1	1.081000
11.500000	1	1.056750
11.516667	1	1.034250
11.533333	1	1.014875
11.550000	1	0.996750
11.566667	1	0.980625
11.583333	1	0.967125
11.600000	1	0.955000
11.616667	1	0.945250
11.633333	1	0.936750
11.650000	1	0.930250
11.666667	1	0.926250
11.683333	1	0.924125
11.700000	1	0.923500
11.716667	1	0.925625
11.733333	1	0.928500
11.750000	1	0.933250
11.766667	1	0.940375
11.783333	1	0.947625
11.800000	1	0.955250
11.816667	1	0.963000
11.833333	1	0.971500
11.850000	1	0.979750
11.866667	1	0.987625
11.883333	1	0.994625
11.900000	1	1.000875
11.916667	1	1.006375
11.933333	1	1.011750
11.950000	1	1.017375
11.966667	1	1.023500
11.983333	1	1.029375
12.000000	1	1.035625
12.016667	1	1.042625
12.033333	1	1.049500
12.050000	1	1.056875
12.066667	1	1.065500
12.083333	1	1.074625
12.100000	1	1.084625
12.116667	1	1.094500
12.133333	1	1.105250
12.150000	1	1.117000
12.166667	1	1.129750
12.183333	1	1.143375
12.200000	1	1.158500
12.216667	1	1.174000
12.233333	1	1.192000
12.250000	1	1.211625
12.266667	1	1.232375
12.283333	1	1.255625
12.300000	1	1.280875
12.316667	1	1.308000
12.333333	1	1.338375
12.350000	1	1.372875
12.366667	1	1.414125
12.383333	1	1.466375
12.400000	1	1.533875
12.416667	1	1.624375
12.433333	1	1.743000
12.450000	1	1.901250
12.466667	1	2.105750
12.483333	1	2.364875
12.500000	1	2.684125
12.516667	1	3.067625
12.533333	1	3.514625
12.550000	1	4.021000
12.566667	1	4.578250
12.583333	1	5.175000
12.600000	1	5.796125
12.616667	1	6.426750
12.633333	1	7.051750
12.650000	1	7.658500
12.666667	1	8.239375
12.683333	1	8.788375
12.700000	1	9.305125
12.716667	1	9.792125
12.733333	1	10.256500
12.750000	1	10.705125
12.766667	1	11.148750
12.783333	1	11.594000
12.800000	1	12.049625
12.816667	1	12.512625
12.833333	1	12.975250
12.850000	1	13.402000
12.866667	1	13.727000
12.883333	1	13.854375
12.900000	1	13.686250
12.916667	1	13.166375
12.933333	1	12.307375
12.950000	1	11.193000
12.966667	1	9.947250
12.983333	1	8.689875
13.000000	1	7.509750
13.016667	1	6.455875
13.033333	1	5.543000
13.050000	1	4.770875
13.066667	1	4.127500
13.083333	1	3.601000
13.100000	1	3.172750
13.116667	1	2.828625
13.133333	1	2.553125
13.150000	1	2.333375
13.166667	1	2.157250
13.183333	1	2.017000
13.200000	1	1.903250
13.216667	1	1.810500
13.233333	1	1.734125
13.250000	1	1.669375
13.266667	1	1.614375
13.283333	1	1.566250
13.300000	1	1.523250
13.316667	1	1.484750
13.333333	1	1.450375
13.350000	1	1.419125
13.366667	1	1.391000
13.383333	1	1.365875
13.400000	1	1.343000
13.416667	1	1.323375
13.433333	1	1.305625
13.450000	1	1.291750
13.466667	1	1.280625
13.483333	1	1.271250
13.500000	1	1.265125
13.516667	1	1.261000
13.533333	1	1.257750
13.550000	1	1.255375
13.566667	1	1.254625
13.583333	1	1.253500
13.600000	1	1.250875
13.616667	1	1.247500
13.633333	1	1.242000
13.650000	1	1.234000
13.666667	1	1.223375
13.683333	1	1.211000
13.700000	1	1.197125
13.716667	1	1.182125
13.733333	1	1.164875
13.750000	1	1.147625
13.766667	1	1.129875
13.783333	1	1.111750
13.800000	1	1.094375
13.816667	1	1.076875
13.833333	1	1.060500
13.850000	1	1.045250
13.866667	1	1.030375
13.883333	1	1.016000
13.900000	1	1.002750
13.916667	1	0.989250
13.933333	1	0.976625
13.950000	1	0.965000
13.966667	1	0.953750
13.983333	1	0.943750
14.000000	1	0.933750
14.016667	1	0.924375
14.033333	1	0.915125
14.050000	1	0.906625
14.066667	1	0.898375
14.083333	1	0.890625
14.100000	1	0.883500
14.116667	1	0.875375
14.133333	1	0.869250
14.150000	1	0.862875
14.166667	1	0.856750
14.183333	1	0.852125
14.200000	1	0.847625
14.216667	1	0.843375
14.233333	1	0.840750
14.250000	1	0.838500
14.266667	1	0.837625
14.283333	1	0.837000
14.300000	1	0.838875
14.316667	1	0.841125
14.333333	1	0.844750
14.350000	1	0.849750
14.366667	1	0.856000
14.383333	1	0.864000
14.400000	1	0.874500
14.416667	1	0.889125
14.433333	1	0.908000
14.450000	1	0.934500
14.466667	1	0.974000
14.483333	1	1.035125
14.500000	1	1.131375
14.516667	1	1.280375
14.533333	1	1.509375
14.550000	1	1.854500
14.566667	1	2.362375
14.583333	1	3.089125
14.600000	1	4.100000
14.616667	1	5.470750
14.633333	1	7.277750
14.650000	1	9.590625
14.666667	1	12.466250
14.683333	1	15.931625
14.700000	1	19.974375
14.716667	1	24.536500
14.733333	1	29.511250
14.750000	1	34.741000
14.766667	1	40.025625
14.783333	1	45.132375
14.800000	1	49.824000
14.816667	1	53.872500
14.833333	1	57.078625
14.850000	1	59.287750
14.866667	1	60.412625
14.883333	1	60.432375
14.900000	1	59.399375
14.916667	1	57.425625
14.933333	1	54.668625
14.950000	1	51.312625
14.966667	1	47.549375
14.983333	1	43.564125
15.000000	1	39.512750
15.016667	1	35.524125
15.033333	1	31.698625
15.050000	1	28.106500
15.066667	1	24.793875
15.083333	1	21.781875
15.100000	1	19.076750
15.116667	1	16.671000
15.133333	1	14.543250
15.150000	1	12.672000
15.166667	1	11.032500
15.183333	1	9.601125
15.200000	1	8.355000
15.216667	1	7.272250
15.233333	1	6.334375
15.250000	1	5.524750
15.266667	1	4.830750
15.283333	1	4.240000
15.300000	1	3.740875
15.316667	1	3.323625
15.333333	1	2.978500
15.350000	1	2.697125
15.366667	1	2.471375
15.383333	1	2.292000
15.400000	1	2.152250
15.416667	1	2.043875
15.433333	1	1.961375
15.450000	1	1.897125
15.466667	1	1.846375
15.483333	1	1.803750
15.500000	1	1.764750
15.516667	1	1.726500
15.533333	1	1.687125
15.550000	1	1.645500
15.566667	1	1.603000
15.583333	1	1.558000
15.600000	1	1.511750
15.616667	1	1.465875
15.633333	1	1.420875
15.650000	1	1.377625
15.666667	1	1.336250
15.683333	1	1.297750
15.700000	1	1.261750
15.716667	1	1.228750
15.733333	1	1.197875
15.750000	1	1.169250
15.766667	1	1.142000
15.783333	1	1.116750
15.800000	1	1.093000
15.816667	1	1.070875
15.833333	1	1.049750
15.850000	1	1.030500
15.866667	1	1.013000
15.883333	1	0.996500
15.900000	1	0.982875
15.916667	1	0.971000
15.933333	1	0.961125
15.950000	1	0.953625
15.966667	1	0.948250
15.983333	1	0.944750
16.000000	1	0.943625
16.016667	1	0.943500
16.033333	1	0.944500
16.050000	1	0.947375
16.066667	1	0.951125
16.083333	1	0.956000
16.100000	1	0.959875
16.116667	1	0.964500
16.133333	1	0.969875
16.150000	1	0.974375
16.166667	1	0.978250
16.183333	1	0.981750
16.200000	1	0.985125
16.216667	1	0.986875
16.233333	1	0.987875
16.250000	1	0.987625
16.266667	1	0.987375
16.283333	1	0.986000
16.300000	1	0.984875
16.316667	1	0.983250
16.333333	1	0.981875
16.350000	1	0.981250
16.366667	1	0.981250
16.383333	1	0.982250
16.400000	1	0.984250
16.416667	1	0.988125
16.433333	1	0.992750
16.450000	1	0.999000
16.466667	1	1.005250
16.483333	1	1.012000
16.500000	1	1.018250
16.516667	1	1.025375
16.533333	1	1.029500
16.550000	1	1.031500
16.566667	1	1.033125
16.583333	1	1.032750
16.600000	1	1.030250
16.616667	1	1.026000
16.633333	1	1.020125
16.650000	1	1.014625
16.666667	1	1.007750
16.683333	1	1.001375
16.700000	1	0.995125
16.716667	1	0.991000
16.733333	1	0.988875
16.750000	1	0.988375
16.766667	1	0.989750
16.783333	1	0.992375
16.800000	1	0.996500
16.816667	1	1.002125
16.833333	1	1.007625
16.850000	1	1.013000
16.866667	1	1.017625
16.883333	1	1.021500
16.900000	1	1.023250
16.916667	1	1.023375
16.933333	1	1.022125
16.950000	1	1.019750
16.966667	1	1.015625
16.983333	1	1.010625
17.000000	1	1.004875
17.016667	1	0.998250
17.033333	1	0.991375
17.050000	1	0.984625
17.066667	1	0.978375
17.083333	1	0.973750
17.100000	1	0.969500
17.116667	1	0.966125
17.133333	1	0.963625
17.150000	1	0.962750
17.166667	1	0.962625
17.183333	1	0.963125
17.200000	1	0.964875
17.216667	1	0.967250
17.233333	1	0.970125
17.250000	1	0.974000
17.266667	1	0.978375
17.283333	1	0.983625
17.300000	1	0.989500
17.316667	1	0.995375
17.333333	1	1.002000
17.350000	1	1.008625
17.366667	1	1.015000
17.383333	1	1.022125
17.400000	1	1.028875
17.416667	1	1.035000
17.433333	1	1.039500
17.450000	1	1.043625
17.466667	1	1.046375
17.483333	1	1.047375
17.500000	1	1.047125
17.516667	1	1.044375
17.533333	1	1.040750
17.550000	1	1.035375
17.566667	1	1.028625
17.583333	1	1.020375
17.600000	1	1.011000
17.616667	1	1.001125
17.633333	1	0.989500
17.650000	1	0.977375
17.666667	1	0.964625
17.683333	1	0.950875
17.700000	1	0.937375
17.716667	1	0.924250
17.733333	1	0.911500
17.750000	1	0.898625
17.766667	1	0.886500
17.783333	1	0.875125
17.800000	1	0.863875
17.816667	1	0.853750
17.833333	1	0.844250
17.850000	1	0.835375
17.866667	1	0.827000
17.883333	1	0.819875
17.900000	1	0.812875
17.916667	1	0.806875
17.933333	1	0.800125
17.950000	1	0.794000
17.966667	1	0.788125
17.983333	1	0.782125
18.000000	1	0.775875
18.016667	1	0.769625
18.033333	1	0.763375
18.050000	1	0.757250
18.066667	1	0.750750
18.083333	1	0.744625
18.100000	1	0.739375
18.116667	1	0.734125
18.133333	1	0.729500
18.150000	1	0.726000
18.166667	1	0.723250
18.183333	1	0.720125
18.200000	1	0.718500
18.216667	1	0.716625
18.233333	1	0.715625
18.250000	1	0.713875
18.266667	1	0.713125
18.283333	1	0.711750
18.300000	1	0.710750
18.316667	1	0.710250
18.333333	1	0.709875
18.350000	1	0.709875
18.366667	1	0.710250
18.383333	1	0.712375
18.400000	1	0.714500
18.416667	1	0.717625
18.433333	1	0.722125
18.450000	1	0.728625
18.466667	1	0.736750
18.483333	1	0.748125
18.500000	1	0.760625
18.516667	1	0.776000
18.533333	1	0.793625
18.550000	1	0.812875
18.566667	1	0.833875
18.583333	1	0.857250
18.600000	1	0.882875
18.616667	1	0.910625
18.633333	1	0.940250
18.650000	1	0.971875
18.666667	1	1.004750
18.683333	1	1.039250
18.700000	1	1.074250
18.716667	1	1.110125
18.733333	1	1.147625
18.750000	1	1.184250
18.766667	1	1.221625
18.783333	1	1.257625
18.800000	1	1.291625
18.816667	1	1.324250
18.833333	1	1.353750
18.850000	1	1.379250
18.866667	1	1.400500
18.883333	1	1.415625
18.900000	1	1.426125
18.916667	1	1.430000
18.933333	1	1.427500
18.950000	1	1.418500
18.966667	1	1.402500
18.983333	1	1.380250
19.000000	1	1.352625
19.016667	1	1.319875
19.033333	1	1.281375
19.050000	1	1.241000
19.066667	1	1.198125
19.083333	1	1.153750
19.100000	1	1.110125
19.116667	1	1.067875
19.133333	1	1.028500
19.150000	1	0.994000
19.166667	1	0.964375
19.183333	1	0.942375
19.200000	1	0.929000
19.216667	1	0.926000
19.233333	1	0.934500
19.250000	1	0.956500
19.266667	1	0.992125
19.283333	1	1.043250
19.300000	1	1.110125
19.316667	1	1.192875
19.333333	1	1.289625
19.350000	1	1.401375
19.366667	1	1.523750
19.383333	1	1.654750
19.400000	1	1.790500
19.416667	1	1.928000
19.433333	1	2.063125
19.450000	1	2.190750
19.466667	1	2.307500
19.483333	1	2.408250
19.500000	1	2.490125
19.516667	1	2.551625
19.533333	1	2.592000
19.550000	1	2.610375
19.566667	1	2.606750
19.583333	1	2.582000
19.600000	1	2.539000
19.616667	1	2.479375
19.633333	1	2.407000
19.650000	1	2.324125
19.666667	1	2.233125
19.683333	1	2.136125
19.700000	1	2.035750
19.716667	1	1.933875
19.733333	1	1.832875
19.750000	1	1.734250
19.766667	1	1.637500
19.783333	1	1.544500
19.800000	1	1.454750
19.816667	1	1.369875
19.833333	1	1.288875
19.850000	1	1.212125
19.866667	1	1.140750
19.883333	1	1.073750
19.900000	1	1.011125
19.916667	1	0.954125
19.933333	1	0.902125
19.950000	1	0.855500
19.966667	1	0.814375
19.983333	1	0.780000
20.000000	1	0.751375
20.016667	1	0.729375
20.033333	1	0.714500
20.050000	1	0.706750
20.066667	1	0.707375
20.083333	1	0.716375
20.100000	1	0.732250
20.116667	1	0.755750
20.133333	1	0.786250
20.150000	1	0.822750
20.166667	1	0.863250
20.183333	1	0.908625
20.200000	1	0.955000
20.216667	1	1.001500
20.233333	1	1.045750
20.250000	1	1.086500
20.266667	1	1.122375
20.283333	1	1.150750
20.300000	1	1.171500
20.316667	1	1.183125
20.333333	1	1.185750
20.350000	1	1.178875
20.366667	1	1.163625
20.383333	1	1.140500
20.400000	1	1.110625
20.416667	1	1.075625
20.433333	1	1.036375
20.450000	1	0.995000
20.466667	1	0.952875
20.483333	1	0.910875
20.500000	1	0.871500
20.516667	1	0.834875
20.533333	1	0.802500
20.550000	1	0.776250
20.566667	1	0.756750
20.583333	1	0.743750
20.600000	1	0.739125
20.616667	1	0.743625
20.633333	1	0.757125
20.650000	1	0.781125
20.666667	1	0.815125
20.683333	1	0.859875
20.700000	1	0.912875
20.716667	1	0.974750
20.733333	1	1.043875
20.750000	1	1.118375
20.766667	1	1.197875
20.783333	1	1.277375
20.800000	1	1.355375
20.816667	1	1.429625
20.833333	1	1.496750
20.850000	1	1.555000
20.866667	1	1.602250
20.883333	1	1.635625
20.900000	1	1.655375
20.916667	1	1.661500
20.933333	1	1.653500
20.950000	1	1.632750
20.966667	1	1.600000
20.983333	1	1.556000
21.000000	1	1.503750
21.016667	1	1.444250
21.033333	1	1.379375
21.050000	1	1.311750
21.066667	1	1.243375
21.083333	1	1.175250
21.100000	1	1.108875
21.116667	1	1.045625
21.133333	1	0.985375
21.150000	1	0.927875
21.166667	1	0.874750
21.183333	1	0.825500
21.200000	1	0.780500
21.216667	1	0.739125
21.233333	1	0.701875
21.250000	1	0.667625
21.266667	1	0.636875
21.283333	1	0.610375
21.300000	1	0.585500
21.316667	1	0.563625
21.333333	1	0.543625
21.350000	1	0.526125
21.366667	1	0.509875
21.383333	1	0.495125
21.400000	1	0.481375
21.416667	1	0.469875
21.433333	1	0.459625
21.450000	1	0.449500
21.466667	1	0.440625
21.483333	1	0.432625
21.500000	1	0.425375
21.516667	1	0.419500
21.533333	1	0.414375
21.550000	1	0.410125
21.566667	1	0.407000
21.583333	1	0.405125
21.600000	1	0.404500
21.616667	1	0.405250
21.633333	1	0.407250
21.650000	1	0.411125
21.666667	1	0.416250
21.683333	1	0.421875
21.700000	1	0.430250
21.716667	1	0.440250
21.733333	1	0.452000
21.750000	1	0.465250
21.766667	1	0.479875
21.783333	1	0.495000
21.800000	1	0.511500
21.816667	1	0.528000
21.833333	1	0.544250
21.850000	1	0.560750
21.866667	1	0.577500
21.883333	1	0.592500
21.900000	1	0.607000
21.916667	1	0.620000
21.933333	1	0.630500
21.950000	1	0.639875
21.966667	1	0.647625
21.983333	1	0.653750
22.000000	1	0.657875
22.016667	1	0.660375
22.033333	1	0.662250
22.050000	1	0.662250
22.066667	1	0.660250
22.083333	1	0.658125
22.100000	1	0.654625
22.116667	1	0.650500
22.133333	1	0.644875
22.150000	1	0.639375
22.166667	1	0.632125
22.183333	1	0.624625
22.200000	1	0.616375
22.216667	1	0.607250
22.233333	1	0.596875
22.250000	1	0.585375
22.266667	1	0.573375
22.283333	1	0.560625
22.300000	1	0.547500
22.316667	1	0.533875
22.333333	1	0.519625
22.350000	1	0.504875
22.366667	1	0.490375
22.383333	1	0.476375
22.400000	1	0.461750
22.416667	1	0.448125
22.433333	1	0.434000
22.450000	1	0.421000
22.466667	1	0.408625
22.483333	1	0.397000
22.500000	1	0.385625
22.516667	1	0.375625
22.533333	1	0.366000
22.550000	1	0.357250
22.566667	1	0.348750
22.583333	1	0.340375
22.600000	1	0.332625
22.616667	1	0.326125
22.633333	1	0.319375
22.650000	1	0.312750
22.666667	1	0.307000
22.683333	1	0.301750
22.700000	1	0.296250
22.716667	1	0.291750
22.733333	1	0.286875
22.750000	1	0.283375
22.766667	1	0.278500
22.783333	1	0.275500
22.800000	1	0.271500
22.816667	1	0.268500
22.833333	1	0.265625
22.850000	1	0.262750
22.866667	1	0.261125
22.883333	1	0.259750
22.900000	1	0.258125
22.916667	1	0.257250
22.933333	1	0.256250
22.950000	1	0.255750
22.966667	1	0.255750
22.983333	1	0.256125
23.000000	1	0.257125
23.016667	1	0.258000
23.033333	1	0.259875
23.050000	1	0.261875
23.066667	1	0.264750
23.083333	1	0.266250
23.100000	1	0.269000
23.116667	1	0.272375
23.133333	1	0.276000
23.150000	1	0.279000
23.166667	1	0.282125
23.183333	1	0.285500
23.200000	1	0.288250
23.216667	1	0.291750
23.233333	1	0.294750
23.250000	1	0.298125
23.266667	1	0.301875
23.283333	1	0.306000
23.300000	1	0.312375
23.316667	1	0.319375
23.333333	1	0.329375
23.350000	1	0.342625
23.366667	1	0.359000
23.383333	1	0.381375
23.400000	1	0.410500
23.416667	1	0.449125
23.433333	1	0.498375
23.450000	1	0.561250
23.466667	1	0.639250
23.483333	1	0.736500
23.500000	1	0.855125
23.516667	1	0.999000
23.533333	1	1.170000
23.550000	1	1.371375
23.566667	1	1.604500
23.583333	1	1.870250
23.600000	1	2.168875
23.616667	1	2.499125
23.633333	1	2.858625
23.650000	1	3.244000
23.666667	1	3.650000
23.683333	1	4.070250
23.700000	1	4.497750
23.716667	1	4.923250
23.733333	1	5.338625
23.750000	1	5.734375
23.766667	1	6.101250
23.783333	1	6.429375
23.800000	1	6.712250
23.816667	1	6.942000
23.833333	1	7.115875
23.850000	1	7.229750
23.866667	1	7.283750
23.883333	1	7.277250
23.900000	1	7.213000
23.916667	1	7.095375
23.933333	1	6.928250
23.950000	1	6.718500
23.966667	1	6.472375
23.983333	1	6.197250
24.000000	1	5.900125
24.016667	1	5.589000
24.033333	1	5.268250
24.050000	1	4.945125
24.066667	1	4.623875
24.083333	1	4.309375
24.100000	1	4.003500
24.116667	1	3.709750
24.133333	1	3.429125
24.150000	1	3.163625
24.166667	1	2.913000
24.183333	1	2.679000
24.200000	1	2.461000
24.216667	1	2.259000
24.233333	1	2.072500
24.250000	1	1.901125
24.266667	1	1.743375
24.283333	1	1.598625
24.300000	1	1.466875
24.316667	1	1.346625
24.333333	1	1.236875
24.350000	1	1.138625
24.366667	1	1.049875
24.383333	1	0.970750
24.400000	1	0.900125
24.416667	1	0.837750
24.433333	1	0.783375
24.450000	1	0.734875
24.466667	1	0.693750
24.483333	1	0.656875
24.500000	1	0.625875
24.516667	1	0.598625
24.533333	1	0.575500
24.550000	1	0.555625
24.566667	1	0.538875
24.583333	1	0.524500
24.600000	1	0.511750
24.616667	1	0.501000
24.633333	1	0.491000
24.650000	1	0.482500
24.666667	1	0.474375
24.683333	1	0.467250
24.700000	1	0.460375
24.716667	1	0.453750
24.733333	1	0.447125
24.750000	1	0.440750
24.766667	1	0.433875
24.783333	1	0.427625
24.800000	1	0.421750
24.816667	1	0.415750
24.833333	1	0.410500
24.850000	1	0.404750
24.866667	1	0.399125
24.883333	1	0.393625
24.900000	1	0.389000
24.916667	1	0.384000
24.933333	1	0.380125
24.950000	1	0.376250
24.966667	1	0.372250
24.983333	1	0.369750
25.000000	1	0.366750
25.016667	1	0.363375
25.033333	1	0.361250
25.050000	1	0.358375
25.066667	1	0.357000
25.083333	1	0.354625
25.100000	1	0.352875
25.116667	1	0.350250
25.133333	1	0.348750
25.150000	1	0.346625
25.166667	1	0.344625
25.183333	1	0.342500
25.200000	1	0.339750
25.216667	1	0.337125
25.233333	1	0.334875
25.250000	1	0.332000
25.266667	1	0.328750
25.283333	1	0.325250
25.300000	1	0.322250
25.316667	1	0.318500
25.333333	1	0.315000
25.350000	1	0.311125
25.366667	1	0.307750
25.383333	1	0.303500
25.400000	1	0.299875
25.416667	1	0.296875
25.433333	1	0.293625
25.450000	1	0.289875
25.466667	1	0.286625
25.483333	1	0.283500
25.500000	1	0.280250
25.516667	1	0.277625
25.533333	1	0.274750
25.550000	1	0.272250
25.566667	1	0.269250
25.583333	1	0.267000
25.600000	1	0.264875
25.616667	1	0.262875
25.633333	1	0.261125
25.650000	1	0.258750
25.666667	1	0.256625
25.683333	1	0.255000
25.700000	1	0.252875
25.716667	1	0.251625
25.733333	1	0.249125
25.750000	1	0.247500
25.766667	1	0.246500
25.783333	1	0.244750
25.800000	1	0.243625
25.816667	1	0.242125
25.833333	1	0.241375
25.850000	1	0.240875
25.866667	1	0.241000
25.883333	1	0.241250
25.900000	1	0.242500
25.916667	1	0.243250
25.933333	1	0.244750
25.950000	1	0.245625
25.966667	1	0.247375
25.983333	1	0.249750
26.000000	1	0.253125
26.016667	1	0.256750
26.033333	1	0.260500
26.050000	1	0.265500
26.066667	1	0.270500
26.083333	1	0.276375
26.100000	1	0.281750
26.116667	1	0.287500
26.133333	1	0.293250
26.150000	1	0.299500
26.166667	1	0.306000
26.183333	1	0.312250
26.200000	1	0.318375
26.216667	1	0.324375
26.233333	1	0.330250
26.250000	1	0.335500
26.266667	1	0.341375
26.283333	1	0.345875
26.300000	1	0.350750
26.316667	1	0.354000
26.333333	1	0.357000
26.350000	1	0.359625
26.366667	1	0.361125
26.383333	1	0.362375
26.400000	1	0.363125
26.416667	1	0.362875
26.433333	1	0.362000
26.450000	1	0.360500
26.466667	1	0.357625
26.483333	1	0.354250
26.500000	1	0.350875
26.516667	1	0.346000
26.533333	1	0.341875
26.550000	1	0.336500
26.566667	1	0.331000
26.583333	1	0.325500
26.600000	1	0.319000
26.616667	1	0.312500
26.633333	1	0.306750
26.650000	1	0.300500
26.666667	1	0.294250
26.683333	1	0.288250
26.700000	1	0.282625
26.716667	1	0.276500
26.733333	1	0.270875
26.750000	1	0.265750
26.766667	1	0.260000
26.783333	1	0.256000
26.800000	1	0.251375
26.816667	1	0.247500
26.833333	1	0.244250
26.850000	1	0.241375
26.866667	1	0.239250
26.883333	1	0.238125
26.900000	1	0.236750
26.916667	1	0.236000
26.933333	1	0.235125
26.950000	1	0.234875
26.966667	1	0.234250
26.983333	1	0.235000
27.000000	1	0.236000
27.016667	1	0.237000
27.033333	1	0.238125
27.050000	1	0.239625
27.066667	1	0.241000
27.083333	1	0.243000
27.100000	1	0.245625
27.116667	1	0.248375
27.133333	1	0.251500
27.150000	1	0.254500
27.166667	1	0.258375
27.183333	1	0.263250
27.200000	1	0.268875
27.216667	1	0.274375
27.233333	1	0.281500
27.250000	1	0.289625
27.266667	1	0.300375
27.283333	1	0.312375
27.300000	1	0.327250
27.316667	1	0.344375
27.333333	1	0.364625
27.350000	1	0.388750
27.366667	1	0.417250
27.383333	1	0.451875
27.400000	1	0.492250
27.416667	1	0.540125
27.433333	1	0.596250
27.450000	1	0.661125
27.466667	1	0.734875
27.483333	1	0.819750
27.500000	1	0.914875
27.516667	1	1.022875
27.533333	1	1.141500
27.550000	1	1.272875
27.566667	1	1.416000
27.583333	1	1.570625
27.600000	1	1.736000
27.616667	1	1.911875
27.633333	1	2.095250
27.650000	1	2.286375
27.666667	1	2.482375
27.683333	1	2.681375
27.700000	1	2.880000
27.716667	1	3.075625
27.733333	1	3.265375
27.750000	1	3.446500
27.766667	1	3.614875
27.783333	1	3.768500
27.800000	1	3.904375
27.816667	1	4.020625
27.833333	1	4.114750
27.850000	1	4.185125
27.866667	1	4.230500
27.883333	1	4.249625
27.900000	1	4.243125
27.916667	1	4.211250
27.933333	1	4.154375
27.950000	1	4.075000
27.966667	1	3.974750
27.983333	1	3.854875
28.000000	1	3.720125
28.016667	1	3.571500
28.033333	1	3.412375
28.050000	1	3.244375
28.066667	1	3.072000
28.083333	1	2.896375
28.100000	1	2.721000
28.116667	1	2.546750
28.133333	1	2.375875
28.150000	1	2.210625
28.166667	1	2.051750
28.183333	1	1.901000
28.200000	1	1.757875
28.216667	1	1.623125
28.233333	1	1.496625
28.250000	1	1.378750
28.266667	1	1.269250
28.283333	1	1.168000
28.300000	1	1.074625
28.316667	1	0.989750
28.333333	1	0.912125
28.350000	1	0.841250
28.366667	1	0.777000
28.383333	1	0.719875
28.400000	1	0.668250
28.416667	1	0.622250
28.433333	1	0.580750
28.450000	1	0.544125
28.466667	1	0.513250
28.483333	1	0.485625
28.500000	1	0.462625
28.516667	1	0.443125
28.533333	1	0.427375
28.550000	1	0.414250
28.566667	1	0.405125
28.583333	1	0.398375
28.600000	1	0.393500
28.616667	1	0.391875
28.633333	1	0.393000
28.650000	1	0.394625
28.666667	1	0.398875
28.683333	1	0.405000
28.700000	1	0.412000
28.716667	1	0.419750
28.733333	1	0.428875
28.750000	1	0.438000
28.766667	1	0.448250
28.783333	1	0.458500
28.800000	1	0.469250
28.816667	1	0.479625
28.833333	1	0.490625
28.850000	1	0.501500
28.866667	1	0.510875
28.883333	1	0.520625
28.900000	1	0.529000
28.916667	1	0.537125
28.933333	1	0.543250
28.950000	1	0.549125
28.966667	1	0.553750
28.983333	1	0.557000
29.000000	1	0.559125
29.016667	1	0.559875
29.033333	1	0.558375
29.050000	1	0.555750
29.066667	1	0.551375
29.083333	1	0.546125
29.100000	1	0.539000
29.116667	1	0.530000
29.133333	1	0.519000
29.150000	1	0.506250
29.166667	1	0.491000
29.183333	1	0.473750
29.200000	1	0.454500
29.216667	1	0.433500
29.233333	1	0.410000
29.250000	1	0.383625
29.266667	1	0.355625
29.283333	1	0.324875
29.300000	1	0.292250
29.316667	1	0.257000
29.333333	1	0.219750
29.350000	1	0.180250
29.366667	1	0.138250
29.383333	1	0.095000
29.400000	1	0.050750
29.416667	1	0.004000
29.433333	1	-0.043750
29.450000	1	-0.092500
29.466667	1	-0.142250
29.483333	1	-0.192750
29.500000	1	-0.243500
29.516667	1	-0.294125
29.533333	1	-0.343750
29.550000	1	-0.392750
29.566667	1	-0.440125
29.583333	1	-0.484375
29.600000	1	-0.527000
29.616667	1	-0.567375
29.633333	1	-0.604625
29.650000	1	-0.639125
29.666667	1	-0.670000
29.683333	1	-0.696125
29.700000	1	-0.719125
29.716667	1	-0.737625
29.733333	1	-0.751500
29.750000	1	-0.761375
29.766667	1	-0.767000
29.783333	1	-0.768375
29.800000	1	-0.765875
29.816667	1	-0.758750
29.833333	1	-0.748250
29.850000	1	-0.734375
29.866667	1	-0.716875
29.883333	1	-0.697000
29.900000	1	-0.674750
29.916667	1	-0.649875
29.933333	1	-0.622875
29.950000	1	-0.595375
29.966667	1	-0.566125
29.983333	1	-0.535875
30.000000	1	-0.504625
30.016667	1	-0.473500
30.033333	1	-0.441875
30.050000	1	-0.411375
30.066667	1	-0.380375
30.083333	1	-0.350000
30.100000	1	-0.320250
30.116667	1	-0.292000
30.133333	1	-0.264500
30.150000	1	-0.238000
30.166667	1	-0.212875
30.183333	1	-0.189000
30.200000	1	-0.165750
30.216667	1	-0.143125
30.233333	1	-0.122000
30.250000	1	-0.102625
30.266667	1	-0.084500
30.283333	1	-0.067375
30.300000	1	-0.051750
30.316667	1	-0.037000
30.333333	1	-0.023250
30.350000	1	-0.010875
30.366667	1	0.000750
30.383333	1	0.012000
30.400000	1	0.022625
30.416667	1	0.032375
30.433333	1	0.040625
30.450000	1	0.049000
30.466667	1	0.056875
30.483333	1	0.065125
30.500000	1	0.072375
30.516667	1	0.079500
30.533333	1	0.086625
30.550000	1	0.093125
30.566667	1	0.100250
30.583333	1	0.106875
30.600000	1	0.113625
30.616667	1	0.121000
30.633333	1	0.128000
30.650000	1	0.134750
30.666667	1	0.142500
30.683333	1	0.150000
30.700000	1	0.157750
30.716667	1	0.165500
30.733333	1	0.173625
30.750000	1	0.181375
30.766667	1	0.190375
30.783333	1	0.199000
30.800000	1	0.209000
30.816667	1	0.218750
30.833333	1	0.228625
30.850000	1	0.238500
30.866667	1	0.248250
30.883333	1	0.258875
30.900000	1	0.269875
30.916667	1	0.281500
30.933333	1	0.294750
30.950000	1	0.308250
30.966667	1	0.323375
30.983333	1	0.339750
31.000000	1	0.358250
31.016667	1	0.379500
31.033333	1	0.403875
31.050000	1	0.431500
31.066667	1	0.462500
31.083333	1	0.499125
31.100000	1	0.540500
31.116667	1	0.588875
31.133333	1	0.643875
31.150000	1	0.705875
31.166667	1	0.777375
31.183333	1	0.857250
31.200000	1	0.947125
31.216667	1	1.047625
31.233333	1	1.158625
31.250000	1	1.280750
31.266667	1	1.414500
31.283333	1	1.558625
31.300000	1	1.713500
31.316667	1	1.878250
31.333333	1	2.052250
31.350000	1	2.233750
31.366667	1	2.423000
31.383333	1	2.616500
31.400000	1	2.814375
31.416667	1	3.013375
31.433333	1	3.211000
31.450000	1	3.405625
31.466667	1	3.594125
31.483333	1	3.774375
31.500000	1	3.943625
31.516667	1	4.100125
31.533333	1	4.241625
31.550000	1	4.366375
31.566667	1	4.472375
31.583333	1	4.558500
31.600000	1	4.624375
31.616667	1	4.668625
31.633333	1	4.691125
31.650000	1	4.692500
31.666667	1	4.672000
31.683333	1	4.631625
31.700000	1	4.571250
31.716667	1	4.493375
31.733333	1	4.398000
31.750000	1	4.288750
31.766667	1	4.165625
31.783333	1	4.031875
31.800000	1	3.887375
31.816667	1	3.735750
31.833333	1	3.577625
31.850000	1	3.416375
31.866667	1	3.252250
31.883333	1	3.087875
31.900000	1	2.923125
31.916667	1	2.760875
31.933333	1	2.601875
31.950000	1	2.445875
31.966667	1	2.295500
31.983333	1	2.149750
32.000000	1	2.009125
32.016667	1	1.874500
32.033333	1	1.746000
32.050000	1	1.623375
32.066667	1	1.507875
32.083333	1	1.397625
32.100000	1	1.294125
32.116667	1	1.196500
32.133333	1	1.104625
32.150000	1	1.018500
32.166667	1	0.937875
32.183333	1	0.862625
32.200000	1	0.792250
32.216667	1	0.726125
32.233333	1	0.664000
32.250000	1	0.606375
32.266667	1	0.553125
32.283333	1	0.503625
32.300000	1	0.457125
32.316667	1	0.414500
32.333333	1	0.374625
32.350000	1	0.338750
32.366667	1	0.304375
32.383333	1	0.272250
32.400000	1	0.242625
32.416667	1	0.215875
32.433333	1	0.191625
32.450000	1	0.169250
32.466667	1	0.148250
32.483333	1	0.129250
32.500000	1	0.112250
32.516667	1	0.097000
32.533333	1	0.082750
32.550000	1	0.069500
32.566667	1	0.057375
32.583333	1	0.047250
32.600000	1	0.037875
32.616667	1	0.029250
32.633333	1	0.021875
32.650000	1	0.015750
32.666667	1	0.010375
32.683333	1	0.004875
32.700000	1	0.000375
32.716667	1	-0.003250
32.733333	1	-0.006500
32.750000	1	-0.009000
32.766667	1	-0.011625
32.783333	1	-0.013250
32.800000	1	-0.014000
32.816667	1	-0.015250
32.833333	1	-0.016375
32.850000	1	-0.017375
32.866667	1	-0.018000
32.883333	1	-0.019000
32.900000	1	-0.019125
32.916667	1	-0.019250
32.933333	1	-0.019375
32.950000	1	-0.019375
32.966667	1	-0.019125
32.983333	1	-0.018125
33.000000	1	-0.017625
33.016667	1	-0.017000
33.033333	1	-0.016625
33.050000	1	-0.015875
33.066667	1	-0.015375
33.083333	1	-0.015250
33.100000	1	-0.014625
33.116667	1	-0.013750
33.133333	1	-0.014000
33.150000	1	-0.013000
33.166667	1	-0.012125
33.183333	1	-0.011625
33.200000	1	-0.010875
33.216667	1	-0.010375
33.233333	1	-0.009750
33.250000	1	-0.009875
33.266667	1	-0.009375
33.283333	1	-0.009375
33.300000	1	-0.009250
33.316667	1	-0.009750
33.333333	1	-0.009375
33.350000	1	-0.008750
33.366667	1	-0.007875
33.383333	1	-0.008000
33.400000	1	-0.007875
33.416667	1	-0.007000
33.433333	1	-0.006625
33.450000	1	-0.006500
33.466667	1	-0.005875
33.483333	1	-0.005750
33.500000	1	-0.005875
33.516667	1	-0.005625
33.533333	1	-0.005000
33.550000	1	-0.004250
33.566667	1	-0.003500
33.583333	1	-0.002375
33.600000	1	-0.001000
33.616667	1	0.000625
33.633333	1	0.002000
33.650000	1	0.003500
33.666667	1	0.004875
33.683333	1	0.007750
33.700000	1	0.009625
33.716667	1	0.011875
33.733333	1	0.013875
33.750000	1	0.017375
33.766667	1	0.020625
33.783333	1	0.024000
33.800000	1	0.027375
33.816667	1	0.031750
33.833333	1	0.035500
33.850000	1	0.039250
33.866667	1	0.043000
33.883333	1	0.046875
33.900000	1	0.050625
33.916667	1	0.054250
33.933333	1	0.058875
33.950000	1	0.063250
33.966667	1	0.067000
33.983333	1	0.071250
34.000000	1	0.075000
34.016667	1	0.078625
34.033333	1	0.082875
34.050000	1	0.085750
34.066667	1	0.088625
34.083333	1	0.091250
34.100000	1	0.093250
34.116667	1	0.095625
34.133333	1	0.098375
34.150000	1	0.100625
34.166667	1	0.101875
34.183333	1	0.103750
34.200000	1	0.106250
34.216667	1	0.107250
34.233333	1	0.108750
34.250000	1	0.109875
34.266667	1	0.111000
34.283333	1	0.111625
34.300000	1	0.111625
34.316667	1	0.112875
34.333333	1	0.113625
34.350000	1	0.114125
34.366667	1	0.114125
34.383333	1	0.114625
34.400000	1	0.115375
34.416667	1	0.116250
34.433333	1	0.116250
34.450000	1	0.116875
34.466667	1	0.117000
34.483333	1	0.117000
34.500000	1	0.117250
34.516667	1	0.117125
34.533333	1	0.117750
34.550000	1	0.118125
34.566667	1	0.119000
34.583333	1	0.119000
34.600000	1	0.119750
34.616667	1	0.119750
34.633333	1	0.120500
34.650000	1	0.121250
34.666667	1	0.121750
34.683333	1	0.122250
34.700000	1	0.122750
34.716667	1	0.122750
34.733333	1	0.123250
34.750000	1	0.123375
34.766667	1	0.123500
34.783333	1	0.122750
34.800000	1	0.123125
34.816667	1	0.123625
34.833333	1	0.123625
34.850000	1	0.123125
34.866667	1	0.122125
34.883333	1	0.121000
34.900000	1	0.119250
34.916667	1	0.118375
34.933333	1	0.116750
34.950000	1	0.114750
34.966667	1	0.112625
34.983333	1	0.111375
35.000000	1	0.109375
35.016667	1	0.107250
35.033333	1	0.105000
35.050000	1	0.102625
35.066667	1	0.100125
35.083333	1	0.098000
35.100000	1	0.095250
35.116667	1	0.092500
35.133333	1	0.089875
35.150000	1	0.087250
35.166667	1	0.085000
35.183333	1	0.082250
35.200000	1	0.079000
35.216667	1	0.076000
35.233333	1	0.074500
35.250000	1	0.072000
35.266667	1	0.068750
35.283333	1	0.066375
35.300000	1	0.063625
35.316667	1	0.061500
35.333333	1	0.058875
35.350000	1	0.057125
35.366667	1	0.054875
35.383333	1	0.053875
35.400000	1	0.052750
35.416667	1	0.051375
35.433333	1	0.050000
35.450000	1	0.048625
35.466667	1	0.047875
35.483333	1	0.046875
35.500000	1	0.046625
35.516667	1	0.046625
35.533333	1	0.046875
35.550000	1	0.046500
35.566667	1	0.047250
35.583333	1	0.047250
35.600000	1	0.047750
35.616667	1	0.048250
35.633333	1	0.048625
35.650000	1	0.048500
35.666667	1	0.048625
35.683333	1	0.050000
35.700000	1	0.051250
35.716667	1	0.051875
35.733333	1	0.053000
35.750000	1	0.054375
35.766667	1	0.055000
35.783333	1	0.056000
35.800000	1	0.055375
35.816667	1	0.055500
35.833333	1	0.055625
35.850000	1	0.055875
35.866667	1	0.055875
35.883333	1	0.056625
35.900000	1	0.056875
35.916667	1	0.056875
35.933333	1	0.056750
35.950000	1	0.056500
35.966667	1	0.056875
35.983333	1	0.056500
36.000000	1	0.056625
36.016667	1	0.056250
36.033333	1	0.055375
36.050000	1	0.055250
36.066667	1	0.054375
36.083333	1	0.053125
36.100000	1	0.053000
36.116667	1	0.053375
36.133333	1	0.054125
36.150000	1	0.054125
36.166667	1	0.054125
36.183333	1	0.054750
36.200000	1	0.054875
36.216667	1	0.055875
36.233333	1	0.056875
36.250000	1	0.057250
36.266667	1	0.058875
36.283333	1	0.060375
36.300000	1	0.063000
36.316667	1	0.065125
36.333333	1	0.067750
36.350000	1	0.069625
36.366667	1	0.072375
36.383333	1	0.074750
36.400000	1	0.077500
36.416667	1	0.080375
36.433333	1	0.082750
36.450000	1	0.086625
36.466667	1	0.089750
36.483333	1	0.093625
36.500000	1	0.096750
36.516667	1	0.100125
36.533333	1	0.103125
36.550000	1	0.106500
36.566667	1	0.108750
36.583333	1	0.111750
36.600000	1	0.114125
36.616667	1	0.116375
36.633333	1	0.119375
36.650000	1	0.120750
36.666667	1	0.122625
36.683333	1	0.124125
36.700000	1	0.125500
36.716667	1	0.125875
36.733333	1	0.126750
36.750000	1	0.126750
36.766667	1	0.126250
36.783333	1	0.126875
36.800000	1	0.126375
36.816667	1	0.125125
36.833333	1	0.124375
36.850000	1	0.122375
36.866667	1	0.120250
36.883333	1	0.117750
36.900000	1	0.115250
36.916667	1	0.112500
36.933333	1	0.109250
36.950000	1	0.106125
36.966667	1	0.103000
36.983333	1	0.098875
37.000000	1	0.095625
37.016667	1	0.091875
37.033333	1	0.088500
37.050000	1	0.084125
37.066667	1	0.080125
37.083333	1	0.075625
37.100000	1	0.072125
37.116667	1	0.068625
37.133333	1	0.064375
37.150000	1	0.060000
37.166667	1	0.056375
37.183333	1	0.052375
37.200000	1	0.048125
37.216667	1	0.044500
37.233333	1	0.040750
37.250000	1	0.037000
37.266667	1	0.033625
37.283333	1	0.030375
37.300000	1	0.027375
37.316667	1	0.024000
37.333333	1	0.021250
37.350000	1	0.018750
37.366667	1	0.016750
37.383333	1	0.014875
37.400000	1	0.013000
37.416667	1	0.010000
37.433333	1	0.008000
37.450000	1	0.006125
37.466667	1	0.004875
37.483333	1	0.003750
37.500000	1	0.002375
37.516667	1	0.001500
37.533333	1	0.000375
37.550000	1	-0.001000
37.566667	1	-0.001250
37.583333	1	-0.002000
37.600000	1	-0.003375
37.616667	1	-0.003625
37.633333	1	-0.004375
37.650000	1	-0.005000
37.666667	1	-0.005125
37.683333	1	-0.005625
37.700000	1	-0.005125
37.716667	1	-0.005000
37.733333	1	-0.004375
37.750000	1	-0.004875
37.766667	1	-0.004625
37.783333	1	-0.004875
37.800000	1	-0.004500
37.816667	1	-0.004125
37.833333	1	-0.003875
37.850000	1	-0.002875
37.866667	1	-0.002125
37.883333	1	-0.001375
37.900000	1	-0.000500
37.916667	1	0.000500
37.933333	1	0.001125
37.950000	1	0.001625
37.966667	1	0.001875
37.983333	1	0.003375
38.000000	1	0.004125
38.016667	1	0.004875
38.033333	1	0.005500
38.050000	1	0.006500
38.066667	1	0.007250
38.083333	1	0.007750
38.100000	1	0.008500
38.116667	1	0.009000
38.133333	1	0.009750
38.150000	1	0.009625
38.166667	1	0.009750
38.183333	1	0.009750
38.200000	1	0.010125
38.216667	1	0.010000
38.233333	1	0.010250
38.250000	1	0.010000
38.266667	1	0.009250
38.283333	1	0.008250
38.300000	1	0.008000
38.316667	1	0.007125
38.333333	1	0.006000
38.350000	1	0.004875
38.366667	1	0.003125
38.383333	1	0.001000
38.400000	1	-0.000750
38.416667	1	-0.002125
38.433333	1	-0.004250
38.450000	1	-0.005750
38.466667	1	-0.007500
38.483333	1	-0.009250
38.500000	1	-0.011500
38.516667	1	-0.013750
38.533333	1	-0.016000
38.550000	1	-0.018500
38.566667	1	-0.020375
38.583333	1	-0.022625
38.600000	1	-0.024250
38.616667	1	-0.025125
38.633333	1	-0.026750
38.650000	1	-0.027750
38.666667	1	-0.029375
38.683333	1	-0.030250
38.700000	1	-0.031375
38.716667	1	-0.032375
38.733333	1	-0.033500
38.750000	1	-0.034125
38.766667	1	-0.034375
38.783333	1	-0.033750
38.800000	1	-0.034000
38.816667	1	-0.033500
38.833333	1	-0.033375
38.850000	1	-0.033125
38.866667	1	-0.033125
38.883333	1	-0.032750
38.900000	1	-0.032625
38.916667	1	-0.031875
38.933333	1	-0.031250
38.950000	1	-0.030750
38.966667	1	-0.029750
38.983333	1	-0.028750
39.000000	1	-0.027250
39.016667	1	-0.026625
39.033333	1	-0.025625
39.050000	1	-0.025125
39.066667	1	-0.024125
39.083333	1	-0.023125
39.100000	1	-0.022125
39.116667	1	-0.020875
39.133333	1	-0.020000
39.150000	1	-0.020625
39.166667	1	-0.019875
39.183333	1	-0.019750
39.200000	1	-0.018500
39.216667	1	-0.017125
39.233333	1	-0.016375
39.250000	1	-0.016000
39.266667	1	-0.014875
39.283333	1	-0.014500
39.300000	1	-0.014125
39.316667	1	-0.013375
39.333333	1	-0.013625
39.350000	1	-0.013500
39.366667	1	-0.013500
39.383333	1	-0.013125
39.400000	1	-0.013625
39.416667	1	-0.013875
39.433333	1	-0.014375
39.450000	1	-0.014125
39.466667	1	-0.014375
39.483333	1	-0.015125
39.500000	1	-0.016000
39.516667	1	-0.016375
39.533333	1	-0.017375
39.550000	1	-0.018250
39.566667	1	-0.020125
39.583333	1	-0.021375
39.600000	1	-0.022500
39.616667	1	-0.023250
39.633333	1	-0.024625
39.650000	1	-0.026500
39.666667	1	-0.027500
39.683333	1	-0.029125
39.700000	1	-0.030250
39.716667	1	-0.032250
39.733333	1	-0.034625
39.750000	1	-0.037125
39.766667	1	-0.038500
39.783333	1	-0.040750
39.800000	1	-0.042875
39.816667	1	-0.044000
39.833333	1	-0.045500
39.850000	1	-0.046500
39.866667	1	-0.047500
39.883333	1	-0.048750
39.900000	1	-0.050375
39.916667	1	-0.051375
39.933333	1	-0.051500
39.950000	1	-0.052125
39.966667	1	-0.051750
39.983333	1	-0.052625
40.000000	1	-0.052375
