URL	chrom://7040-86g6c92/XVault/Ultimate_3000/20/20240517_CMO_FP23_FP25_MarkusDeplate.seq/386.smp/RI_1.channel/RI_1.chm
Channel	RI_1

Injection Information:
Data Vault	XVault
Sequence	20240517_CMO_FP23_FP25_MarkusDeplate
Name	FP25_25.4_s5
Number	69
Position	BF9
Comment	
Processing Method	
Instrument Method	run_25B_method
Type	Unknown
Status	Finished
Inject Time	29.05.2024 17:09:05 +02:00
Volume (µl)	20.0000
Dilution Factor	1.0000
Weight	1.0000

Chromatogram Data Information:
Time Min. (min)	0.000000
Time Max. (min)	40.000000
Data Points	2401
Detector	RI
Generating Data System	Chromeleon 7.3.2.11814
Exporting Data System	Chromeleon 7.3.2.0
Operator	Instrument Controller
Signal Quantity	Refractive 
Signal Unit	µRIU
Signal Min.	-0.852375
Signal Max.	62.577000
Channel	RI_1
Driver Name	RID520Driver.dll
Channel Type	Evaluation
Min. Step (s)	1
Max. Step (s)	1
Average Step (s)	1

Signal Parameter Information:
Signal Info	

Chromatogram Data:
Time (min)	Step (s)	Value (µRIU)
0.000000	n.a.	0.038500
0.016667	1	0.040625
0.033333	1	0.044125
0.050000	1	0.046625
0.066667	1	0.049500
0.083333	1	0.051750
0.100000	1	0.055000
0.116667	1	0.058000
0.133333	1	0.060625
0.150000	1	0.062750
0.166667	1	0.064875
0.183333	1	0.066750
0.200000	1	0.069875
0.216667	1	0.072250
0.233333	1	0.074250
0.250000	1	0.076250
0.266667	1	0.079125
0.283333	1	0.081375
0.300000	1	0.083625
0.316667	1	0.086500
0.333333	1	0.088000
0.350000	1	0.089875
0.366667	1	0.092000
0.383333	1	0.092750
0.400000	1	0.094125
0.416667	1	0.095500
0.433333	1	0.097500
0.450000	1	0.100375
0.466667	1	0.103000
0.483333	1	0.106625
0.500000	1	0.109625
0.516667	1	0.112000
0.533333	1	0.113250
0.550000	1	0.114000
0.566667	1	0.113875
0.583333	1	0.113750
0.600000	1	0.112000
0.616667	1	0.110625
0.633333	1	0.109500
0.650000	1	0.108750
0.666667	1	0.107875
0.683333	1	0.108000
0.700000	1	0.108500
0.716667	1	0.108875
0.733333	1	0.108875
0.750000	1	0.109000
0.766667	1	0.109375
0.783333	1	0.109250
0.800000	1	0.109375
0.816667	1	0.108750
0.833333	1	0.108375
0.850000	1	0.107625
0.866667	1	0.107000
0.883333	1	0.107250
0.900000	1	0.106625
0.916667	1	0.105750
0.933333	1	0.105125
0.950000	1	0.104250
0.966667	1	0.103125
0.983333	1	0.102250
1.000000	1	0.100750
1.016667	1	0.099250
1.033333	1	0.098125
1.050000	1	0.097125
1.066667	1	0.096375
1.083333	1	0.094750
1.100000	1	0.093750
1.116667	1	0.092000
1.133333	1	0.089500
1.150000	1	0.087500
1.166667	1	0.085750
1.183333	1	0.084625
1.200000	1	0.082250
1.216667	1	0.080500
1.233333	1	0.078500
1.250000	1	0.076250
1.266667	1	0.073875
1.283333	1	0.072625
1.300000	1	0.070375
1.316667	1	0.067500
1.333333	1	0.065125
1.350000	1	0.063125
1.366667	1	0.061375
1.383333	1	0.059500
1.400000	1	0.057250
1.416667	1	0.055000
1.433333	1	0.052875
1.450000	1	0.051375
1.466667	1	0.049750
1.483333	1	0.047750
1.500000	1	0.046625
1.516667	1	0.044500
1.533333	1	0.043125
1.550000	1	0.041750
1.566667	1	0.040500
1.583333	1	0.039375
1.600000	1	0.038500
1.616667	1	0.037500
1.633333	1	0.037500
1.650000	1	0.036125
1.666667	1	0.035625
1.683333	1	0.035000
1.700000	1	0.034875
1.716667	1	0.034625
1.733333	1	0.035125
1.750000	1	0.035750
1.766667	1	0.036000
1.783333	1	0.036375
1.800000	1	0.037125
1.816667	1	0.037625
1.833333	1	0.039125
1.850000	1	0.039750
1.866667	1	0.040500
1.883333	1	0.042125
1.900000	1	0.042750
1.916667	1	0.043750
1.933333	1	0.044875
1.950000	1	0.046250
1.966667	1	0.046500
1.983333	1	0.047250
2.000000	1	0.047750
2.016667	1	0.048375
2.033333	1	0.048750
2.050000	1	0.048875
2.066667	1	0.049375
2.083333	1	0.048500
2.100000	1	0.048125
2.116667	1	0.047250
2.133333	1	0.046250
2.150000	1	0.045250
2.166667	1	0.044625
2.183333	1	0.042875
2.200000	1	0.041875
2.216667	1	0.040625
2.233333	1	0.039125
2.250000	1	0.038250
2.266667	1	0.037125
2.283333	1	0.035750
2.300000	1	0.034250
2.316667	1	0.033250
2.333333	1	0.031875
2.350000	1	0.030375
2.366667	1	0.029125
2.383333	1	0.028125
2.400000	1	0.027125
2.416667	1	0.025750
2.433333	1	0.024750
2.450000	1	0.023500
2.466667	1	0.022500
2.483333	1	0.022000
2.500000	1	0.020125
2.516667	1	0.019500
2.533333	1	0.019375
2.550000	1	0.019000
2.566667	1	0.018750
2.583333	1	0.018250
2.600000	1	0.017625
2.616667	1	0.017750
2.633333	1	0.017125
2.650000	1	0.017250
2.666667	1	0.017000
2.683333	1	0.017125
2.700000	1	0.016125
2.716667	1	0.016000
2.733333	1	0.015250
2.750000	1	0.014750
2.766667	1	0.014500
2.783333	1	0.014250
2.800000	1	0.013125
2.816667	1	0.013875
2.833333	1	0.013500
2.850000	1	0.013125
2.866667	1	0.011750
2.883333	1	0.010500
2.900000	1	0.009250
2.916667	1	0.008000
2.933333	1	0.007125
2.950000	1	0.005250
2.966667	1	0.004125
2.983333	1	0.002875
3.000000	1	0.001750
3.016667	1	0.000375
3.033333	1	0.000000
3.050000	1	-0.001375
3.066667	1	-0.002625
3.083333	1	-0.003500
3.100000	1	-0.005000
3.116667	1	-0.005750
3.133333	1	-0.006625
3.150000	1	-0.008000
3.166667	1	-0.009000
3.183333	1	-0.009500
3.200000	1	-0.009875
3.216667	1	-0.010000
3.233333	1	-0.009625
3.250000	1	-0.008875
3.266667	1	-0.008375
3.283333	1	-0.008125
3.300000	1	-0.007250
3.316667	1	-0.006250
3.333333	1	-0.005625
3.350000	1	-0.004625
3.366667	1	-0.004250
3.383333	1	-0.001875
3.400000	1	-0.000375
3.416667	1	0.001375
3.433333	1	0.002500
3.450000	1	0.004000
3.466667	1	0.006000
3.483333	1	0.007375
3.500000	1	0.008750
3.516667	1	0.010250
3.533333	1	0.011375
3.550000	1	0.013000
3.566667	1	0.014625
3.583333	1	0.016000
3.600000	1	0.017750
3.616667	1	0.019250
3.633333	1	0.020500
3.650000	1	0.021500
3.666667	1	0.023000
3.683333	1	0.024125
3.700000	1	0.024375
3.716667	1	0.025000
3.733333	1	0.025750
3.750000	1	0.025875
3.766667	1	0.026125
3.783333	1	0.026000
3.800000	1	0.026375
3.816667	1	0.026750
3.833333	1	0.027000
3.850000	1	0.026750
3.866667	1	0.026125
3.883333	1	0.026500
3.900000	1	0.026375
3.916667	1	0.025750
3.933333	1	0.025000
3.950000	1	0.024375
3.966667	1	0.023750
3.983333	1	0.022875
4.000000	1	0.022625
4.016667	1	0.021625
4.033333	1	0.021250
4.050000	1	0.021125
4.066667	1	0.020750
4.083333	1	0.020625
4.100000	1	0.020375
4.116667	1	0.019875
4.133333	1	0.019375
4.150000	1	0.018750
4.166667	1	0.019000
4.183333	1	0.019500
4.200000	1	0.020000
4.216667	1	0.020375
4.233333	1	0.020125
4.250000	1	0.021000
4.266667	1	0.021250
4.283333	1	0.021250
4.300000	1	0.021625
4.316667	1	0.022125
4.333333	1	0.022875
4.350000	1	0.023250
4.366667	1	0.023500
4.383333	1	0.024625
4.400000	1	0.024875
4.416667	1	0.025375
4.433333	1	0.025250
4.450000	1	0.025750
4.466667	1	0.026125
4.483333	1	0.026500
4.500000	1	0.027500
4.516667	1	0.027625
4.533333	1	0.027375
4.550000	1	0.027500
4.566667	1	0.027750
4.583333	1	0.027375
4.600000	1	0.027250
4.616667	1	0.026875
4.633333	1	0.026250
4.650000	1	0.026375
4.666667	1	0.025500
4.683333	1	0.024750
4.700000	1	0.024500
4.716667	1	0.024625
4.733333	1	0.024375
4.750000	1	0.023875
4.766667	1	0.023875
4.783333	1	0.024875
4.800000	1	0.024625
4.816667	1	0.024750
4.833333	1	0.024875
4.850000	1	0.025000
4.866667	1	0.024375
4.883333	1	0.025125
4.900000	1	0.025125
4.916667	1	0.025750
4.933333	1	0.026000
4.950000	1	0.026250
4.966667	1	0.025625
4.983333	1	0.025875
5.000000	1	0.026500
5.016667	1	0.027000
5.033333	1	0.027375
5.050000	1	0.027750
5.066667	1	0.027625
5.083333	1	0.027625
5.100000	1	0.027500
5.116667	1	0.026750
5.133333	1	0.026375
5.150000	1	0.026625
5.166667	1	0.027500
5.183333	1	0.027250
5.200000	1	0.027500
5.216667	1	0.027125
5.233333	1	0.027125
5.250000	1	0.027500
5.266667	1	0.027250
5.283333	1	0.026750
5.300000	1	0.026000
5.316667	1	0.025750
5.333333	1	0.025500
5.350000	1	0.025875
5.366667	1	0.025750
5.383333	1	0.025625
5.400000	1	0.025625
5.416667	1	0.025500
5.433333	1	0.025375
5.450000	1	0.025125
5.466667	1	0.025125
5.483333	1	0.026000
5.500000	1	0.026000
5.516667	1	0.026000
5.533333	1	0.026125
5.550000	1	0.027250
5.566667	1	0.027750
5.583333	1	0.028125
5.600000	1	0.028125
5.616667	1	0.029375
5.633333	1	0.029875
5.650000	1	0.030625
5.666667	1	0.031000
5.683333	1	0.031875
5.700000	1	0.032000
5.716667	1	0.032625
5.733333	1	0.032625
5.750000	1	0.032625
5.766667	1	0.033750
5.783333	1	0.034125
5.800000	1	0.034250
5.816667	1	0.034250
5.833333	1	0.034625
5.850000	1	0.034625
5.866667	1	0.034875
5.883333	1	0.035125
5.900000	1	0.035375
5.916667	1	0.035000
5.933333	1	0.035000
5.950000	1	0.035000
5.966667	1	0.035250
5.983333	1	0.035000
6.000000	1	0.034750
6.016667	1	0.035000
6.033333	1	0.034875
6.050000	1	0.034875
6.066667	1	0.034875
6.083333	1	0.035125
6.100000	1	0.035125
6.116667	1	0.034500
6.133333	1	0.034000
6.150000	1	0.033875
6.166667	1	0.033250
6.183333	1	0.033500
6.200000	1	0.032750
6.216667	1	0.032625
6.233333	1	0.032250
6.250000	1	0.031875
6.266667	1	0.030875
6.283333	1	0.030500
6.300000	1	0.029750
6.316667	1	0.028625
6.333333	1	0.028625
6.350000	1	0.028750
6.366667	1	0.028125
6.383333	1	0.027375
6.400000	1	0.027375
6.416667	1	0.027125
6.433333	1	0.026750
6.450000	1	0.026625
6.466667	1	0.026750
6.483333	1	0.027125
6.500000	1	0.026750
6.516667	1	0.027000
6.533333	1	0.026875
6.550000	1	0.026750
6.566667	1	0.027125
6.583333	1	0.027000
6.600000	1	0.027125
6.616667	1	0.027625
6.633333	1	0.028375
6.650000	1	0.028625
6.666667	1	0.028375
6.683333	1	0.028875
6.700000	1	0.029750
6.716667	1	0.029750
6.733333	1	0.030125
6.750000	1	0.030125
6.766667	1	0.030625
6.783333	1	0.030625
6.800000	1	0.030750
6.816667	1	0.031500
6.833333	1	0.032000
6.850000	1	0.032125
6.866667	1	0.032000
6.883333	1	0.032000
6.900000	1	0.031375
6.916667	1	0.031500
6.933333	1	0.031625
6.950000	1	0.031875
6.966667	1	0.031500
6.983333	1	0.031500
7.000000	1	0.031875
7.016667	1	0.031500
7.033333	1	0.031375
7.050000	1	0.031750
7.066667	1	0.031750
7.083333	1	0.031750
7.100000	1	0.032375
7.116667	1	0.033375
7.133333	1	0.033875
7.150000	1	0.034000
7.166667	1	0.034500
7.183333	1	0.035500
7.200000	1	0.036875
7.216667	1	0.037500
7.233333	1	0.037875
7.250000	1	0.038625
7.266667	1	0.039125
7.283333	1	0.039750
7.300000	1	0.040875
7.316667	1	0.041750
7.333333	1	0.042625
7.350000	1	0.043000
7.366667	1	0.043875
7.383333	1	0.043750
7.400000	1	0.044750
7.416667	1	0.045125
7.433333	1	0.045375
7.450000	1	0.045625
7.466667	1	0.045750
7.483333	1	0.045625
7.500000	1	0.045625
7.516667	1	0.045875
7.533333	1	0.045375
7.550000	1	0.045000
7.566667	1	0.045000
7.583333	1	0.044875
7.600000	1	0.044375
7.616667	1	0.044000
7.633333	1	0.043375
7.650000	1	0.042750
7.666667	1	0.042250
7.683333	1	0.041250
7.700000	1	0.040375
7.716667	1	0.039375
7.733333	1	0.038875
7.750000	1	0.038000
7.766667	1	0.037250
7.783333	1	0.036125
7.800000	1	0.035875
7.816667	1	0.035250
7.833333	1	0.035000
7.850000	1	0.034625
7.866667	1	0.034375
7.883333	1	0.034000
7.900000	1	0.034125
7.916667	1	0.034250
7.933333	1	0.034750
7.950000	1	0.034750
7.966667	1	0.035500
7.983333	1	0.035750
8.000000	1	0.036125
8.016667	1	0.037250
8.033333	1	0.038000
8.050000	1	0.038875
8.066667	1	0.039250
8.083333	1	0.040375
8.100000	1	0.042250
8.116667	1	0.043875
8.133333	1	0.045375
8.150000	1	0.047125
8.166667	1	0.049375
8.183333	1	0.050750
8.200000	1	0.052500
8.216667	1	0.054500
8.233333	1	0.056750
8.250000	1	0.058625
8.266667	1	0.060125
8.283333	1	0.061750
8.300000	1	0.062750
8.316667	1	0.064000
8.333333	1	0.065500
8.350000	1	0.066625
8.366667	1	0.067000
8.383333	1	0.066875
8.400000	1	0.067750
8.416667	1	0.068000
8.433333	1	0.067625
8.450000	1	0.067500
8.466667	1	0.066875
8.483333	1	0.066125
8.500000	1	0.065250
8.516667	1	0.064250
8.533333	1	0.063000
8.550000	1	0.062375
8.566667	1	0.060750
8.583333	1	0.059750
8.600000	1	0.058375
8.616667	1	0.056875
8.633333	1	0.055125
8.650000	1	0.053000
8.666667	1	0.050875
8.683333	1	0.049000
8.700000	1	0.048500
8.716667	1	0.047000
8.733333	1	0.045000
8.750000	1	0.043250
8.766667	1	0.042375
8.783333	1	0.041375
8.800000	1	0.040125
8.816667	1	0.039750
8.833333	1	0.039125
8.850000	1	0.038250
8.866667	1	0.037625
8.883333	1	0.036875
8.900000	1	0.037000
8.916667	1	0.037000
8.933333	1	0.037625
8.950000	1	0.038125
8.966667	1	0.038875
8.983333	1	0.039000
9.000000	1	0.039125
9.016667	1	0.039875
9.033333	1	0.040750
9.050000	1	0.041125
9.066667	1	0.041375
9.083333	1	0.041750
9.100000	1	0.042750
9.116667	1	0.043625
9.133333	1	0.043375
9.150000	1	0.044000
9.166667	1	0.044000
9.183333	1	0.044250
9.200000	1	0.044375
9.216667	1	0.044625
9.233333	1	0.044000
9.250000	1	0.043500
9.266667	1	0.042875
9.283333	1	0.042500
9.300000	1	0.042375
9.316667	1	0.041125
9.333333	1	0.040875
9.350000	1	0.040500
9.366667	1	0.039875
9.383333	1	0.039125
9.400000	1	0.038500
9.416667	1	0.037750
9.433333	1	0.036750
9.450000	1	0.036000
9.466667	1	0.035375
9.483333	1	0.035000
9.500000	1	0.034875
9.516667	1	0.034375
9.533333	1	0.033375
9.550000	1	0.032750
9.566667	1	0.032750
9.583333	1	0.031875
9.600000	1	0.032375
9.616667	1	0.031875
9.633333	1	0.032125
9.650000	1	0.033000
9.666667	1	0.034500
9.683333	1	0.035375
9.700000	1	0.036375
9.716667	1	0.037500
9.733333	1	0.038875
9.750000	1	0.040375
9.766667	1	0.042000
9.783333	1	0.043750
9.800000	1	0.044875
9.816667	1	0.047000
9.833333	1	0.048750
9.850000	1	0.050375
9.866667	1	0.052875
9.883333	1	0.055000
9.900000	1	0.057125
9.916667	1	0.059625
9.933333	1	0.062500
9.950000	1	0.064500
9.966667	1	0.067125
9.983333	1	0.069625
10.000000	1	0.072500
10.016667	1	0.075125
10.033333	1	0.078750
10.050000	1	0.082375
10.066667	1	0.086250
10.083333	1	0.090375
10.100000	1	0.095375
10.116667	1	0.101000
10.133333	1	0.107125
10.150000	1	0.114750
10.166667	1	0.122375
10.183333	1	0.131125
10.200000	1	0.141000
10.216667	1	0.152000
10.233333	1	0.165000
10.250000	1	0.179625
10.266667	1	0.196250
10.283333	1	0.215750
10.300000	1	0.237750
10.316667	1	0.262750
10.333333	1	0.291375
10.350000	1	0.323750
10.366667	1	0.359375
10.383333	1	0.399125
10.400000	1	0.439500
10.416667	1	0.478625
10.433333	1	0.508875
10.450000	1	0.520625
10.466667	1	0.505625
10.483333	1	0.458625
10.500000	1	0.385750
10.516667	1	0.316625
10.533333	1	0.302375
10.550000	1	0.417250
10.566667	1	0.752250
10.583333	1	1.400500
10.600000	1	2.450125
10.616667	1	3.974375
10.633333	1	6.024750
10.650000	1	8.631750
10.666667	1	11.807875
10.683333	1	15.545375
10.700000	1	19.812750
10.716667	1	24.544625
10.733333	1	29.632875
10.750000	1	34.910625
10.766667	1	40.133500
10.783333	1	44.974250
10.800000	1	49.028375
10.816667	1	51.860000
10.833333	1	53.099500
10.850000	1	52.558500
10.866667	1	50.301000
10.883333	1	46.635375
10.900000	1	42.026625
10.916667	1	36.970500
10.933333	1	31.892375
10.950000	1	27.093125
10.966667	1	22.752125
10.983333	1	18.955375
11.000000	1	15.718000
11.016667	1	13.014000
11.033333	1	10.794000
11.050000	1	8.994625
11.066667	1	7.549500
11.083333	1	6.395375
11.100000	1	5.475875
11.116667	1	4.743250
11.133333	1	4.158375
11.150000	1	3.689000
11.166667	1	3.309750
11.183333	1	3.001375
11.200000	1	2.747250
11.216667	1	2.536375
11.233333	1	2.359625
11.250000	1	2.209625
11.266667	1	2.082875
11.283333	1	1.974375
11.300000	1	1.879625
11.316667	1	1.797500
11.333333	1	1.726625
11.350000	1	1.663625
11.366667	1	1.607875
11.383333	1	1.558625
11.400000	1	1.515250
11.416667	1	1.476500
11.433333	1	1.441250
11.450000	1	1.409375
11.466667	1	1.381000
11.483333	1	1.355125
11.500000	1	1.331625
11.516667	1	1.310000
11.533333	1	1.290125
11.550000	1	1.272000
11.566667	1	1.255250
11.583333	1	1.240250
11.600000	1	1.226750
11.616667	1	1.215125
11.633333	1	1.204875
11.650000	1	1.196250
11.666667	1	1.189125
11.683333	1	1.183500
11.700000	1	1.179250
11.716667	1	1.176500
11.733333	1	1.175000
11.750000	1	1.175000
11.766667	1	1.175875
11.783333	1	1.177750
11.800000	1	1.180250
11.816667	1	1.183375
11.833333	1	1.186125
11.850000	1	1.188625
11.866667	1	1.190500
11.883333	1	1.192500
11.900000	1	1.194000
11.916667	1	1.195375
11.933333	1	1.196500
11.950000	1	1.197375
11.966667	1	1.198000
11.983333	1	1.199250
12.000000	1	1.201125
12.016667	1	1.203125
12.033333	1	1.206875
12.050000	1	1.209875
12.066667	1	1.213125
12.083333	1	1.217250
12.100000	1	1.222625
12.116667	1	1.227750
12.133333	1	1.234375
12.150000	1	1.241000
12.166667	1	1.248250
12.183333	1	1.256625
12.200000	1	1.266500
12.216667	1	1.277375
12.233333	1	1.289625
12.250000	1	1.304000
12.266667	1	1.320125
12.283333	1	1.338250
12.300000	1	1.358375
12.316667	1	1.381250
12.333333	1	1.407750
12.350000	1	1.437375
12.366667	1	1.471750
12.383333	1	1.513625
12.400000	1	1.565750
12.416667	1	1.630875
12.433333	1	1.713625
12.450000	1	1.818125
12.466667	1	1.946750
12.483333	1	2.103625
12.500000	1	2.291125
12.516667	1	2.511625
12.533333	1	2.766625
12.550000	1	3.055500
12.566667	1	3.377250
12.583333	1	3.732000
12.600000	1	4.116125
12.616667	1	4.529250
12.633333	1	4.968000
12.650000	1	5.430500
12.666667	1	5.914875
12.683333	1	6.419000
12.700000	1	6.939750
12.716667	1	7.474625
12.733333	1	8.023000
12.750000	1	8.579625
12.766667	1	9.142375
12.783333	1	9.703250
12.800000	1	10.248500
12.816667	1	10.751125
12.833333	1	11.166625
12.850000	1	11.433125
12.866667	1	11.482125
12.883333	1	11.267000
12.900000	1	10.782500
12.916667	1	10.074125
12.933333	1	9.224500
12.950000	1	8.322250
12.966667	1	7.440125
12.983333	1	6.621250
13.000000	1	5.886375
13.016667	1	5.240625
13.033333	1	4.681750
13.050000	1	4.204250
13.066667	1	3.800250
13.083333	1	3.462375
13.100000	1	3.182250
13.116667	1	2.950250
13.133333	1	2.758375
13.150000	1	2.599875
13.166667	1	2.466750
13.183333	1	2.354375
13.200000	1	2.258875
13.216667	1	2.176625
13.233333	1	2.103875
13.250000	1	2.040000
13.266667	1	1.982375
13.283333	1	1.929375
13.300000	1	1.881125
13.316667	1	1.836375
13.333333	1	1.795375
13.350000	1	1.757875
13.366667	1	1.722750
13.383333	1	1.692125
13.400000	1	1.663875
13.416667	1	1.638750
13.433333	1	1.615875
13.450000	1	1.596250
13.466667	1	1.579375
13.483333	1	1.565625
13.500000	1	1.554875
13.516667	1	1.546750
13.533333	1	1.540875
13.550000	1	1.536250
13.566667	1	1.532750
13.583333	1	1.528750
13.600000	1	1.524750
13.616667	1	1.519750
13.633333	1	1.513250
13.650000	1	1.504625
13.666667	1	1.494125
13.683333	1	1.481625
13.700000	1	1.467750
13.716667	1	1.451875
13.733333	1	1.435000
13.750000	1	1.416875
13.766667	1	1.399125
13.783333	1	1.381000
13.800000	1	1.362750
13.816667	1	1.345750
13.833333	1	1.328750
13.850000	1	1.312500
13.866667	1	1.296875
13.883333	1	1.282625
13.900000	1	1.269125
13.916667	1	1.255750
13.933333	1	1.243375
13.950000	1	1.231125
13.966667	1	1.219500
13.983333	1	1.209125
14.000000	1	1.199375
14.016667	1	1.189750
14.033333	1	1.179625
14.050000	1	1.169750
14.066667	1	1.160750
14.083333	1	1.152125
14.100000	1	1.143500
14.116667	1	1.135375
14.133333	1	1.127375
14.150000	1	1.119125
14.166667	1	1.111375
14.183333	1	1.104625
14.200000	1	1.097625
14.216667	1	1.092375
14.233333	1	1.088250
14.250000	1	1.083875
14.266667	1	1.080875
14.283333	1	1.079000
14.300000	1	1.078750
14.316667	1	1.079125
14.333333	1	1.080375
14.350000	1	1.084375
14.366667	1	1.088750
14.383333	1	1.096375
14.400000	1	1.106625
14.416667	1	1.120375
14.433333	1	1.139500
14.450000	1	1.167625
14.466667	1	1.210875
14.483333	1	1.277250
14.500000	1	1.382000
14.516667	1	1.543375
14.533333	1	1.789375
14.550000	1	2.157250
14.566667	1	2.694500
14.583333	1	3.456875
14.600000	1	4.511125
14.616667	1	5.930125
14.633333	1	7.790375
14.650000	1	10.163000
14.666667	1	13.101750
14.683333	1	16.635125
14.700000	1	20.751000
14.716667	1	25.391875
14.733333	1	30.450625
14.750000	1	35.776250
14.766667	1	41.168500
14.783333	1	46.396125
14.800000	1	51.220750
14.816667	1	55.414750
14.833333	1	58.775125
14.850000	1	61.142375
14.866667	1	62.419250
14.883333	1	62.577000
14.900000	1	61.657000
14.916667	1	59.763000
14.933333	1	57.047000
14.950000	1	53.688500
14.966667	1	49.879250
14.983333	1	45.808500
15.000000	1	41.641625
15.016667	1	37.516000
15.033333	1	33.536750
15.050000	1	29.782625
15.066667	1	26.306000
15.083333	1	23.133750
15.100000	1	20.275375
15.116667	1	17.725625
15.133333	1	15.470125
15.150000	1	13.485500
15.166667	1	11.748500
15.183333	1	10.234875
15.200000	1	8.918125
15.216667	1	7.777625
15.233333	1	6.791125
15.250000	1	5.942125
15.266667	1	5.214875
15.283333	1	4.596250
15.300000	1	4.073750
15.316667	1	3.637125
15.333333	1	3.276750
15.350000	1	2.982625
15.366667	1	2.746375
15.383333	1	2.558875
15.400000	1	2.412500
15.416667	1	2.298875
15.433333	1	2.211000
15.450000	1	2.142250
15.466667	1	2.087625
15.483333	1	2.042250
15.500000	1	2.000875
15.516667	1	1.960625
15.533333	1	1.920000
15.550000	1	1.877500
15.566667	1	1.832375
15.583333	1	1.785500
15.600000	1	1.738250
15.616667	1	1.691000
15.633333	1	1.644000
15.650000	1	1.598250
15.666667	1	1.554375
15.683333	1	1.512625
15.700000	1	1.473250
15.716667	1	1.436875
15.733333	1	1.402375
15.750000	1	1.370500
15.766667	1	1.339500
15.783333	1	1.310875
15.800000	1	1.283000
15.816667	1	1.257125
15.833333	1	1.231750
15.850000	1	1.208000
15.866667	1	1.185000
15.883333	1	1.165125
15.900000	1	1.147000
15.916667	1	1.130875
15.933333	1	1.116125
15.950000	1	1.104000
15.966667	1	1.094250
15.983333	1	1.087000
16.000000	1	1.081250
16.016667	1	1.077625
16.033333	1	1.075500
16.050000	1	1.074750
16.066667	1	1.075500
16.083333	1	1.077625
16.100000	1	1.080500
16.116667	1	1.083625
16.133333	1	1.085750
16.150000	1	1.087750
16.166667	1	1.089250
16.183333	1	1.090375
16.200000	1	1.090750
16.216667	1	1.089750
16.233333	1	1.087875
16.250000	1	1.086000
16.266667	1	1.082875
16.283333	1	1.078750
16.300000	1	1.074750
16.316667	1	1.070500
16.333333	1	1.066250
16.350000	1	1.061625
16.366667	1	1.058125
16.383333	1	1.056375
16.400000	1	1.055750
16.416667	1	1.055750
16.433333	1	1.057750
16.450000	1	1.059750
16.466667	1	1.063125
16.483333	1	1.066500
16.500000	1	1.070375
16.516667	1	1.073750
16.533333	1	1.076750
16.550000	1	1.077750
16.566667	1	1.077250
16.583333	1	1.075250
16.600000	1	1.071625
16.616667	1	1.066000
16.633333	1	1.060000
16.650000	1	1.054125
16.666667	1	1.047375
16.683333	1	1.041500
16.700000	1	1.036875
16.716667	1	1.034250
16.733333	1	1.032625
16.750000	1	1.032625
16.766667	1	1.035500
16.783333	1	1.040000
16.800000	1	1.046500
16.816667	1	1.053750
16.833333	1	1.061125
16.850000	1	1.068750
16.866667	1	1.075875
16.883333	1	1.082625
16.900000	1	1.088500
16.916667	1	1.092375
16.933333	1	1.094500
16.950000	1	1.094875
16.966667	1	1.094125
16.983333	1	1.092375
17.000000	1	1.090125
17.016667	1	1.087125
17.033333	1	1.083500
17.050000	1	1.080625
17.066667	1	1.076750
17.083333	1	1.073250
17.100000	1	1.071750
17.116667	1	1.070375
17.133333	1	1.070000
17.150000	1	1.070000
17.166667	1	1.071250
17.183333	1	1.073000
17.200000	1	1.075000
17.216667	1	1.078375
17.233333	1	1.082000
17.250000	1	1.086375
17.266667	1	1.091500
17.283333	1	1.097250
17.300000	1	1.101875
17.316667	1	1.107500
17.333333	1	1.113000
17.350000	1	1.119250
17.366667	1	1.124875
17.383333	1	1.131000
17.400000	1	1.136625
17.416667	1	1.141250
17.433333	1	1.144375
17.450000	1	1.147000
17.466667	1	1.147250
17.483333	1	1.146250
17.500000	1	1.143625
17.516667	1	1.139125
17.533333	1	1.132125
17.550000	1	1.123750
17.566667	1	1.115000
17.583333	1	1.104250
17.600000	1	1.092625
17.616667	1	1.078750
17.633333	1	1.065000
17.650000	1	1.049750
17.666667	1	1.034625
17.683333	1	1.018750
17.700000	1	1.002375
17.716667	1	0.986375
17.733333	1	0.970750
17.750000	1	0.954750
17.766667	1	0.940125
17.783333	1	0.926000
17.800000	1	0.913000
17.816667	1	0.901000
17.833333	1	0.889375
17.850000	1	0.878750
17.866667	1	0.869125
17.883333	1	0.860625
17.900000	1	0.852625
17.916667	1	0.845375
17.933333	1	0.838750
17.950000	1	0.831875
17.966667	1	0.825250
17.983333	1	0.818375
18.000000	1	0.812250
18.016667	1	0.805875
18.033333	1	0.799375
18.050000	1	0.794000
18.066667	1	0.788000
18.083333	1	0.782375
18.100000	1	0.776750
18.116667	1	0.772125
18.133333	1	0.768000
18.150000	1	0.764750
18.166667	1	0.762875
18.183333	1	0.760750
18.200000	1	0.759500
18.216667	1	0.758875
18.233333	1	0.758125
18.250000	1	0.757500
18.266667	1	0.757750
18.283333	1	0.758000
18.300000	1	0.758250
18.316667	1	0.758500
18.333333	1	0.759625
18.350000	1	0.761125
18.366667	1	0.763375
18.383333	1	0.766250
18.400000	1	0.770500
18.416667	1	0.775250
18.433333	1	0.782625
18.450000	1	0.791500
18.466667	1	0.802625
18.483333	1	0.815875
18.500000	1	0.830125
18.516667	1	0.846875
18.533333	1	0.866125
18.550000	1	0.887000
18.566667	1	0.909750
18.583333	1	0.934500
18.600000	1	0.961000
18.616667	1	0.989875
18.633333	1	1.019625
18.650000	1	1.051125
18.666667	1	1.084250
18.683333	1	1.118750
18.700000	1	1.153875
18.716667	1	1.189875
18.733333	1	1.226000
18.750000	1	1.262500
18.766667	1	1.298375
18.783333	1	1.333375
18.800000	1	1.366750
18.816667	1	1.397500
18.833333	1	1.425750
18.850000	1	1.450875
18.866667	1	1.471000
18.883333	1	1.486125
18.900000	1	1.495375
18.916667	1	1.498625
18.933333	1	1.495875
18.950000	1	1.487250
18.966667	1	1.472125
18.983333	1	1.449875
19.000000	1	1.422000
19.016667	1	1.388500
19.033333	1	1.350500
19.050000	1	1.308750
19.066667	1	1.265250
19.083333	1	1.218875
19.100000	1	1.172875
19.116667	1	1.126250
19.133333	1	1.080875
19.150000	1	1.037250
19.166667	1	0.996750
19.183333	1	0.958625
19.200000	1	0.924625
19.216667	1	0.896000
19.233333	1	0.872250
19.250000	1	0.852750
19.266667	1	0.839125
19.283333	1	0.832125
19.300000	1	0.831750
19.316667	1	0.836875
19.333333	1	0.847750
19.350000	1	0.864125
19.366667	1	0.884625
19.383333	1	0.910375
19.400000	1	0.940250
19.416667	1	0.972500
19.433333	1	1.007250
19.450000	1	1.042875
19.466667	1	1.077875
19.483333	1	1.111625
19.500000	1	1.143625
19.516667	1	1.172750
19.533333	1	1.197750
19.550000	1	1.218625
19.566667	1	1.236125
19.583333	1	1.247375
19.600000	1	1.255125
19.616667	1	1.257250
19.633333	1	1.255250
19.650000	1	1.248000
19.666667	1	1.236250
19.683333	1	1.220250
19.700000	1	1.201500
19.716667	1	1.178875
19.733333	1	1.154125
19.750000	1	1.126750
19.766667	1	1.097375
19.783333	1	1.066250
19.800000	1	1.034000
19.816667	1	1.000625
19.833333	1	0.966875
19.850000	1	0.933125
19.866667	1	0.899750
19.883333	1	0.867875
19.900000	1	0.838000
19.916667	1	0.810000
19.933333	1	0.785625
19.950000	1	0.765250
19.966667	1	0.748875
19.983333	1	0.736625
20.000000	1	0.729875
20.016667	1	0.729500
20.033333	1	0.735250
20.050000	1	0.748625
20.066667	1	0.770250
20.083333	1	0.798750
20.100000	1	0.836125
20.116667	1	0.881125
20.133333	1	0.932750
20.150000	1	0.990125
20.166667	1	1.052750
20.183333	1	1.118625
20.200000	1	1.185125
20.216667	1	1.250125
20.233333	1	1.312375
20.250000	1	1.368875
20.266667	1	1.418875
20.283333	1	1.459375
20.300000	1	1.488125
20.316667	1	1.505500
20.333333	1	1.511000
20.350000	1	1.505250
20.366667	1	1.487750
20.383333	1	1.459250
20.400000	1	1.422250
20.416667	1	1.377500
20.433333	1	1.328000
20.450000	1	1.273750
20.466667	1	1.218375
20.483333	1	1.162500
20.500000	1	1.108875
20.516667	1	1.058875
20.533333	1	1.013250
20.550000	1	0.973875
20.566667	1	0.942000
20.583333	1	0.918500
20.600000	1	0.903000
20.616667	1	0.898125
20.633333	1	0.903625
20.650000	1	0.919500
20.666667	1	0.946250
20.683333	1	0.983375
20.700000	1	1.030250
20.716667	1	1.087125
20.733333	1	1.150875
20.750000	1	1.221500
20.766667	1	1.295500
20.783333	1	1.371500
20.800000	1	1.446500
20.816667	1	1.518000
20.833333	1	1.582750
20.850000	1	1.639500
20.866667	1	1.684750
20.883333	1	1.718500
20.900000	1	1.738375
20.916667	1	1.745625
20.933333	1	1.738375
20.950000	1	1.718625
20.966667	1	1.686750
20.983333	1	1.644375
21.000000	1	1.593125
21.016667	1	1.535000
21.033333	1	1.471250
21.050000	1	1.405625
21.066667	1	1.338625
21.083333	1	1.271875
21.100000	1	1.206250
21.116667	1	1.142750
21.133333	1	1.083000
21.150000	1	1.026375
21.166667	1	0.973875
21.183333	1	0.925375
21.200000	1	0.880375
21.216667	1	0.839000
21.233333	1	0.802375
21.250000	1	0.769625
21.266667	1	0.739875
21.283333	1	0.712875
21.300000	1	0.688875
21.316667	1	0.667875
21.333333	1	0.648625
21.350000	1	0.631875
21.366667	1	0.616625
21.383333	1	0.603000
21.400000	1	0.590875
21.416667	1	0.580375
21.433333	1	0.570250
21.450000	1	0.561875
21.466667	1	0.553750
21.483333	1	0.546750
21.500000	1	0.540125
21.516667	1	0.535375
21.533333	1	0.530500
21.550000	1	0.526375
21.566667	1	0.522000
21.583333	1	0.519500
21.600000	1	0.517125
21.616667	1	0.515375
21.633333	1	0.514000
21.650000	1	0.513625
21.666667	1	0.513500
21.683333	1	0.513625
21.700000	1	0.514750
21.716667	1	0.516125
21.733333	1	0.518500
21.750000	1	0.520375
21.766667	1	0.523750
21.783333	1	0.525750
21.800000	1	0.529625
21.816667	1	0.533625
21.833333	1	0.537125
21.850000	1	0.541250
21.866667	1	0.545875
21.883333	1	0.550125
21.900000	1	0.555125
21.916667	1	0.560750
21.933333	1	0.566625
21.950000	1	0.572000
21.966667	1	0.578500
21.983333	1	0.585125
22.000000	1	0.592000
22.016667	1	0.599250
22.033333	1	0.606125
22.050000	1	0.614375
22.066667	1	0.622000
22.083333	1	0.628875
22.100000	1	0.635750
22.116667	1	0.642875
22.133333	1	0.649375
22.150000	1	0.654625
22.166667	1	0.659125
22.183333	1	0.661750
22.200000	1	0.663375
22.216667	1	0.663625
22.233333	1	0.662750
22.250000	1	0.660125
22.266667	1	0.657000
22.283333	1	0.651500
22.300000	1	0.645125
22.316667	1	0.638125
22.333333	1	0.630500
22.350000	1	0.621500
22.366667	1	0.612375
22.383333	1	0.603625
22.400000	1	0.594000
22.416667	1	0.583625
22.433333	1	0.574000
22.450000	1	0.564250
22.466667	1	0.555750
22.483333	1	0.547250
22.500000	1	0.539125
22.516667	1	0.530750
22.533333	1	0.523750
22.550000	1	0.516875
22.566667	1	0.510875
22.583333	1	0.505250
22.600000	1	0.499500
22.616667	1	0.494750
22.633333	1	0.490375
22.650000	1	0.485500
22.666667	1	0.480375
22.683333	1	0.476250
22.700000	1	0.473000
22.716667	1	0.469375
22.733333	1	0.466250
22.750000	1	0.463000
22.766667	1	0.459875
22.783333	1	0.458125
22.800000	1	0.456500
22.816667	1	0.455000
22.833333	1	0.453125
22.850000	1	0.452250
22.866667	1	0.451875
22.883333	1	0.451375
22.900000	1	0.451250
22.916667	1	0.452250
22.933333	1	0.453375
22.950000	1	0.454750
22.966667	1	0.456875
22.983333	1	0.459500
23.000000	1	0.463250
23.016667	1	0.466250
23.033333	1	0.469375
23.050000	1	0.474000
23.066667	1	0.478375
23.083333	1	0.483875
23.100000	1	0.489125
23.116667	1	0.495000
23.133333	1	0.501000
23.150000	1	0.507000
23.166667	1	0.513000
23.183333	1	0.519000
23.200000	1	0.525250
23.216667	1	0.531000
23.233333	1	0.538000
23.250000	1	0.544500
23.266667	1	0.552000
23.283333	1	0.560125
23.300000	1	0.569750
23.316667	1	0.581125
23.333333	1	0.595500
23.350000	1	0.613875
23.366667	1	0.637125
23.383333	1	0.667000
23.400000	1	0.705125
23.416667	1	0.753000
23.433333	1	0.813500
23.450000	1	0.891000
23.466667	1	0.987375
23.483333	1	1.105500
23.500000	1	1.248875
23.516667	1	1.420875
23.533333	1	1.625125
23.550000	1	1.862875
23.566667	1	2.137000
23.583333	1	2.448875
23.600000	1	2.797000
23.616667	1	3.180750
23.633333	1	3.597125
23.650000	1	4.040250
23.666667	1	4.505750
23.683333	1	4.987000
23.700000	1	5.474500
23.716667	1	5.959125
23.733333	1	6.430250
23.750000	1	6.877875
23.766667	1	7.291250
23.783333	1	7.660125
23.800000	1	7.976750
23.816667	1	8.233375
23.833333	1	8.425875
23.850000	1	8.550750
23.866667	1	8.607625
23.883333	1	8.596375
23.900000	1	8.521125
23.916667	1	8.383625
23.933333	1	8.191375
23.950000	1	7.950250
23.966667	1	7.668000
23.983333	1	7.351375
24.000000	1	7.011250
24.016667	1	6.654000
24.033333	1	6.285750
24.050000	1	5.913375
24.066667	1	5.543250
24.083333	1	5.179750
24.100000	1	4.826250
24.116667	1	4.485625
24.133333	1	4.159750
24.150000	1	3.850750
24.166667	1	3.560000
24.183333	1	3.287750
24.200000	1	3.033500
24.216667	1	2.797875
24.233333	1	2.580125
24.250000	1	2.379625
24.266667	1	2.195125
24.283333	1	2.025500
24.300000	1	1.870000
24.316667	1	1.728000
24.333333	1	1.598625
24.350000	1	1.481375
24.366667	1	1.375750
24.383333	1	1.280875
24.400000	1	1.195250
24.416667	1	1.118250
24.433333	1	1.050625
24.450000	1	0.989625
24.466667	1	0.936500
24.483333	1	0.888625
24.500000	1	0.846750
24.516667	1	0.810375
24.533333	1	0.777750
24.550000	1	0.749625
24.566667	1	0.724000
24.583333	1	0.701875
24.600000	1	0.681500
24.616667	1	0.663625
24.633333	1	0.647000
24.650000	1	0.631250
24.666667	1	0.617625
24.683333	1	0.604125
24.700000	1	0.591750
24.716667	1	0.580000
24.733333	1	0.568125
24.750000	1	0.557500
24.766667	1	0.546875
24.783333	1	0.537125
24.800000	1	0.527125
24.816667	1	0.517625
24.833333	1	0.509125
24.850000	1	0.500875
24.866667	1	0.492250
24.883333	1	0.484875
24.900000	1	0.478125
24.916667	1	0.471750
24.933333	1	0.465375
24.950000	1	0.460250
24.966667	1	0.454250
24.983333	1	0.448375
25.000000	1	0.443125
25.016667	1	0.438375
25.033333	1	0.433250
25.050000	1	0.429375
25.066667	1	0.425250
25.083333	1	0.422125
25.100000	1	0.418625
25.116667	1	0.415000
25.133333	1	0.411500
25.150000	1	0.407625
25.166667	1	0.404250
25.183333	1	0.401375
25.200000	1	0.399000
25.216667	1	0.395875
25.233333	1	0.392375
25.250000	1	0.389375
25.266667	1	0.386875
25.283333	1	0.383875
25.300000	1	0.380625
25.316667	1	0.377625
25.333333	1	0.375500
25.350000	1	0.373625
25.366667	1	0.370750
25.383333	1	0.369000
25.400000	1	0.366625
25.416667	1	0.364750
25.433333	1	0.362125
25.450000	1	0.361000
25.466667	1	0.359875
25.483333	1	0.358500
25.500000	1	0.358000
25.516667	1	0.357500
25.533333	1	0.357375
25.550000	1	0.357625
25.566667	1	0.356875
25.583333	1	0.356750
25.600000	1	0.356125
25.616667	1	0.355625
25.633333	1	0.354750
25.650000	1	0.354500
25.666667	1	0.353000
25.683333	1	0.351875
25.700000	1	0.350125
25.716667	1	0.349000
25.733333	1	0.346750
25.750000	1	0.345125
25.766667	1	0.343125
25.783333	1	0.340625
25.800000	1	0.337750
25.816667	1	0.334500
25.833333	1	0.331625
25.850000	1	0.329250
25.866667	1	0.326750
25.883333	1	0.324125
25.900000	1	0.321375
25.916667	1	0.318500
25.933333	1	0.316375
25.950000	1	0.314625
25.966667	1	0.312875
25.983333	1	0.311625
26.000000	1	0.311000
26.016667	1	0.310125
26.033333	1	0.310250
26.050000	1	0.311500
26.066667	1	0.313000
26.083333	1	0.315375
26.100000	1	0.317750
26.116667	1	0.320125
26.133333	1	0.323625
26.150000	1	0.327625
26.166667	1	0.332250
26.183333	1	0.336375
26.200000	1	0.340750
26.216667	1	0.346750
26.233333	1	0.352000
26.250000	1	0.357625
26.266667	1	0.362250
26.283333	1	0.367625
26.300000	1	0.371875
26.316667	1	0.376125
26.333333	1	0.379875
26.350000	1	0.382750
26.366667	1	0.385000
26.383333	1	0.386250
26.400000	1	0.386375
26.416667	1	0.386125
26.433333	1	0.385250
26.450000	1	0.383875
26.466667	1	0.381375
26.483333	1	0.378125
26.500000	1	0.374500
26.516667	1	0.370375
26.533333	1	0.364625
26.550000	1	0.358750
26.566667	1	0.351875
26.583333	1	0.345625
26.600000	1	0.339250
26.616667	1	0.332625
26.633333	1	0.325375
26.650000	1	0.318125
26.666667	1	0.311250
26.683333	1	0.305000
26.700000	1	0.297875
26.716667	1	0.291625
26.733333	1	0.286250
26.750000	1	0.280375
26.766667	1	0.275500
26.783333	1	0.270750
26.800000	1	0.265750
26.816667	1	0.262250
26.833333	1	0.259000
26.850000	1	0.256500
26.866667	1	0.253500
26.883333	1	0.252125
26.900000	1	0.250250
26.916667	1	0.249125
26.933333	1	0.248875
26.950000	1	0.249375
26.966667	1	0.250125
26.983333	1	0.251125
27.000000	1	0.252375
27.016667	1	0.255125
27.033333	1	0.257000
27.050000	1	0.259625
27.066667	1	0.263000
27.083333	1	0.266125
27.100000	1	0.270500
27.116667	1	0.273875
27.133333	1	0.278875
27.150000	1	0.283625
27.166667	1	0.288500
27.183333	1	0.294625
27.200000	1	0.301000
27.216667	1	0.308750
27.233333	1	0.317125
27.250000	1	0.326875
27.266667	1	0.338500
27.283333	1	0.352250
27.300000	1	0.368875
27.316667	1	0.388125
27.333333	1	0.410625
27.350000	1	0.437375
27.366667	1	0.468875
27.383333	1	0.505875
27.400000	1	0.550125
27.416667	1	0.601125
27.433333	1	0.660250
27.450000	1	0.728500
27.466667	1	0.807000
27.483333	1	0.896875
27.500000	1	0.997375
27.516667	1	1.110375
27.533333	1	1.234875
27.550000	1	1.371000
27.566667	1	1.519750
27.583333	1	1.680000
27.600000	1	1.850375
27.616667	1	2.030250
27.633333	1	2.218500
27.650000	1	2.413125
27.666667	1	2.612250
27.683333	1	2.813750
27.700000	1	3.013875
27.716667	1	3.210375
27.733333	1	3.400625
27.750000	1	3.581375
27.766667	1	3.748500
27.783333	1	3.900500
27.800000	1	4.033375
27.816667	1	4.146750
27.833333	1	4.237375
27.850000	1	4.303125
27.866667	1	4.344250
27.883333	1	4.359375
27.900000	1	4.348875
27.916667	1	4.312375
27.933333	1	4.252125
27.950000	1	4.169500
27.966667	1	4.065125
27.983333	1	3.943875
28.000000	1	3.807125
28.016667	1	3.657125
28.033333	1	3.496000
28.050000	1	3.327500
28.066667	1	3.154125
28.083333	1	2.978500
28.100000	1	2.802125
28.116667	1	2.627125
28.133333	1	2.456125
28.150000	1	2.291250
28.166667	1	2.132125
28.183333	1	1.980750
28.200000	1	1.837375
28.216667	1	1.702625
28.233333	1	1.576375
28.250000	1	1.458125
28.266667	1	1.348875
28.283333	1	1.248000
28.300000	1	1.154625
28.316667	1	1.069750
28.333333	1	0.991375
28.350000	1	0.921875
28.366667	1	0.857875
28.383333	1	0.801125
28.400000	1	0.749750
28.416667	1	0.704000
28.433333	1	0.662875
28.450000	1	0.627125
28.466667	1	0.596125
28.483333	1	0.569375
28.500000	1	0.546500
28.516667	1	0.527500
28.533333	1	0.512375
28.550000	1	0.499125
28.566667	1	0.490125
28.583333	1	0.483250
28.600000	1	0.479125
28.616667	1	0.476875
28.633333	1	0.476750
28.650000	1	0.478125
28.666667	1	0.481750
28.683333	1	0.486125
28.700000	1	0.491375
28.716667	1	0.497250
28.733333	1	0.504250
28.750000	1	0.512000
28.766667	1	0.520125
28.783333	1	0.528250
28.800000	1	0.536000
28.816667	1	0.544625
28.833333	1	0.552125
28.850000	1	0.559750
28.866667	1	0.565875
28.883333	1	0.571250
28.900000	1	0.576250
28.916667	1	0.579625
28.933333	1	0.581875
28.950000	1	0.582875
28.966667	1	0.583875
28.983333	1	0.582750
29.000000	1	0.580375
29.016667	1	0.576875
29.033333	1	0.571625
29.050000	1	0.565250
29.066667	1	0.557000
29.083333	1	0.546625
29.100000	1	0.534625
29.116667	1	0.521625
29.133333	1	0.506125
29.150000	1	0.489875
29.166667	1	0.470750
29.183333	1	0.450750
29.200000	1	0.428250
29.216667	1	0.403250
29.233333	1	0.376750
29.250000	1	0.348625
29.266667	1	0.317875
29.283333	1	0.284875
29.300000	1	0.249750
29.316667	1	0.212500
29.333333	1	0.173000
29.350000	1	0.132000
29.366667	1	0.089125
29.383333	1	0.043875
29.400000	1	-0.001750
29.416667	1	-0.049625
29.433333	1	-0.099000
29.450000	1	-0.150125
29.466667	1	-0.202125
29.483333	1	-0.254875
29.500000	1	-0.306875
29.516667	1	-0.359000
29.533333	1	-0.410125
29.550000	1	-0.460250
29.566667	1	-0.509125
29.583333	1	-0.556500
29.600000	1	-0.601000
29.616667	1	-0.643000
29.633333	1	-0.681625
29.650000	1	-0.717000
29.666667	1	-0.748750
29.683333	1	-0.776875
29.700000	1	-0.800500
29.716667	1	-0.820000
29.733333	1	-0.835125
29.750000	1	-0.845125
29.766667	1	-0.851250
29.783333	1	-0.852375
29.800000	1	-0.849125
29.816667	1	-0.842000
29.833333	1	-0.830500
29.850000	1	-0.814375
29.866667	1	-0.795750
29.883333	1	-0.774000
29.900000	1	-0.749125
29.916667	1	-0.722000
29.933333	1	-0.693125
29.950000	1	-0.662000
29.966667	1	-0.629250
29.983333	1	-0.595000
30.000000	1	-0.560500
30.016667	1	-0.525625
30.033333	1	-0.489875
30.050000	1	-0.453875
30.066667	1	-0.417500
30.083333	1	-0.382375
30.100000	1	-0.347875
30.116667	1	-0.314500
30.133333	1	-0.281125
30.150000	1	-0.250125
30.166667	1	-0.219875
30.183333	1	-0.190125
30.200000	1	-0.161750
30.216667	1	-0.134375
30.233333	1	-0.108750
30.250000	1	-0.084625
30.266667	1	-0.061625
30.283333	1	-0.039625
30.300000	1	-0.018750
30.316667	1	-0.000250
30.333333	1	0.017750
30.350000	1	0.034250
30.366667	1	0.049875
30.383333	1	0.064875
30.400000	1	0.078375
30.416667	1	0.091250
30.433333	1	0.102750
30.450000	1	0.113750
30.466667	1	0.124375
30.483333	1	0.135000
30.500000	1	0.144125
30.516667	1	0.153125
30.533333	1	0.161750
30.550000	1	0.169250
30.566667	1	0.177750
30.583333	1	0.185500
30.600000	1	0.193250
30.616667	1	0.201000
30.633333	1	0.208875
30.650000	1	0.216250
30.666667	1	0.223750
30.683333	1	0.231125
30.700000	1	0.239625
30.716667	1	0.248000
30.733333	1	0.257125
30.750000	1	0.265500
30.766667	1	0.274625
30.783333	1	0.284625
30.800000	1	0.295000
30.816667	1	0.304875
30.833333	1	0.316250
30.850000	1	0.326750
30.866667	1	0.339125
30.883333	1	0.351500
30.900000	1	0.364750
30.916667	1	0.379000
30.933333	1	0.394625
30.950000	1	0.411500
30.966667	1	0.429875
30.983333	1	0.450500
31.000000	1	0.473625
31.016667	1	0.499375
31.033333	1	0.528000
31.050000	1	0.562125
31.066667	1	0.600625
31.083333	1	0.644750
31.100000	1	0.694000
31.116667	1	0.750625
31.133333	1	0.814500
31.150000	1	0.887500
31.166667	1	0.970250
31.183333	1	1.062625
31.200000	1	1.165875
31.216667	1	1.280750
31.233333	1	1.407125
31.250000	1	1.546000
31.266667	1	1.697125
31.283333	1	1.860375
31.300000	1	2.035250
31.316667	1	2.221625
31.333333	1	2.417750
31.350000	1	2.622000
31.366667	1	2.835125
31.383333	1	3.054000
31.400000	1	3.276750
31.416667	1	3.500500
31.433333	1	3.723000
31.450000	1	3.942125
31.466667	1	4.156125
31.483333	1	4.360375
31.500000	1	4.553750
31.516667	1	4.731750
31.533333	1	4.892750
31.550000	1	5.035625
31.566667	1	5.159000
31.583333	1	5.260500
31.600000	1	5.338625
31.616667	1	5.394000
31.633333	1	5.425500
31.650000	1	5.432500
31.666667	1	5.416125
31.683333	1	5.376250
31.700000	1	5.314750
31.716667	1	5.233375
31.733333	1	5.132375
31.750000	1	5.015000
31.766667	1	4.883250
31.783333	1	4.736625
31.800000	1	4.579000
31.816667	1	4.412500
31.833333	1	4.238125
31.850000	1	4.058875
31.866667	1	3.876000
31.883333	1	3.690750
31.900000	1	3.505750
31.916667	1	3.322375
31.933333	1	3.142125
31.950000	1	2.965625
31.966667	1	2.793375
31.983333	1	2.626000
32.000000	1	2.464500
32.016667	1	2.308750
32.033333	1	2.160250
32.050000	1	2.018500
32.066667	1	1.884250
32.083333	1	1.756625
32.100000	1	1.635125
32.116667	1	1.521250
32.133333	1	1.414500
32.150000	1	1.313500
32.166667	1	1.219500
32.183333	1	1.131250
32.200000	1	1.047750
32.216667	1	0.970750
32.233333	1	0.899500
32.250000	1	0.833375
32.266667	1	0.771750
32.283333	1	0.714500
32.300000	1	0.661375
32.316667	1	0.612000
32.333333	1	0.567625
32.350000	1	0.526750
32.366667	1	0.488875
32.383333	1	0.454000
32.400000	1	0.422000
32.416667	1	0.392500
32.433333	1	0.365750
32.450000	1	0.341750
32.466667	1	0.320000
32.483333	1	0.300500
32.500000	1	0.282250
32.516667	1	0.265750
32.533333	1	0.250750
32.550000	1	0.236875
32.566667	1	0.225250
32.583333	1	0.214000
32.600000	1	0.204375
32.616667	1	0.195375
32.633333	1	0.187000
32.650000	1	0.179500
32.666667	1	0.172250
32.683333	1	0.165375
32.700000	1	0.159500
32.716667	1	0.153750
32.733333	1	0.148875
32.750000	1	0.144125
32.766667	1	0.140375
32.783333	1	0.136875
32.800000	1	0.133250
32.816667	1	0.129875
32.833333	1	0.126625
32.850000	1	0.123625
32.866667	1	0.121500
32.883333	1	0.118750
32.900000	1	0.116250
32.916667	1	0.114250
32.933333	1	0.112875
32.950000	1	0.111625
32.966667	1	0.110875
32.983333	1	0.109875
33.000000	1	0.108875
33.016667	1	0.107750
33.033333	1	0.107375
33.050000	1	0.108000
33.066667	1	0.107375
33.083333	1	0.106875
33.100000	1	0.107000
33.116667	1	0.107500
33.133333	1	0.107375
33.150000	1	0.108000
33.166667	1	0.108375
33.183333	1	0.108875
33.200000	1	0.108875
33.216667	1	0.109750
33.233333	1	0.110500
33.250000	1	0.110875
33.266667	1	0.111500
33.283333	1	0.111500
33.300000	1	0.112625
33.316667	1	0.113750
33.333333	1	0.115000
33.350000	1	0.116375
33.366667	1	0.117375
33.383333	1	0.118500
33.400000	1	0.119750
33.416667	1	0.120875
33.433333	1	0.122375
33.450000	1	0.123875
33.466667	1	0.124500
33.483333	1	0.125250
33.500000	1	0.126750
33.516667	1	0.127750
33.533333	1	0.129250
33.550000	1	0.131250
33.566667	1	0.133125
33.583333	1	0.134500
33.600000	1	0.136125
33.616667	1	0.137875
33.633333	1	0.139875
33.650000	1	0.141375
33.666667	1	0.144125
33.683333	1	0.146250
33.700000	1	0.148250
33.716667	1	0.150625
33.733333	1	0.152750
33.750000	1	0.155125
33.766667	1	0.158500
33.783333	1	0.161000
33.800000	1	0.164375
33.816667	1	0.167375
33.833333	1	0.170125
33.850000	1	0.173125
33.866667	1	0.176125
33.883333	1	0.178750
33.900000	1	0.181625
33.916667	1	0.183875
33.933333	1	0.186250
33.950000	1	0.189125
33.966667	1	0.190875
33.983333	1	0.193875
34.000000	1	0.195625
34.016667	1	0.197500
34.033333	1	0.199625
34.050000	1	0.200250
34.066667	1	0.201750
34.083333	1	0.202000
34.100000	1	0.202375
34.116667	1	0.202375
34.133333	1	0.202500
34.150000	1	0.201625
34.166667	1	0.200500
34.183333	1	0.199125
34.200000	1	0.198125
34.216667	1	0.196000
34.233333	1	0.194500
34.250000	1	0.192500
34.266667	1	0.190250
34.283333	1	0.188125
34.300000	1	0.186250
34.316667	1	0.183750
34.333333	1	0.181625
34.350000	1	0.179625
34.366667	1	0.177500
34.383333	1	0.175750
34.400000	1	0.174125
34.416667	1	0.172125
34.433333	1	0.170625
34.450000	1	0.169500
34.466667	1	0.167500
34.483333	1	0.166500
34.500000	1	0.165750
34.516667	1	0.165125
34.533333	1	0.164500
34.550000	1	0.164750
34.566667	1	0.164125
34.583333	1	0.164625
34.600000	1	0.165875
34.616667	1	0.166250
34.633333	1	0.167000
34.650000	1	0.167625
34.666667	1	0.168625
34.683333	1	0.169625
34.700000	1	0.170250
34.716667	1	0.171250
34.733333	1	0.171875
34.750000	1	0.173125
34.766667	1	0.174125
34.783333	1	0.174375
34.800000	1	0.175875
34.816667	1	0.176500
34.833333	1	0.176750
34.850000	1	0.177125
34.866667	1	0.176625
34.883333	1	0.176500
34.900000	1	0.175750
34.916667	1	0.175000
34.933333	1	0.175500
34.950000	1	0.175000
34.966667	1	0.173875
34.983333	1	0.172375
35.000000	1	0.171750
35.016667	1	0.170250
35.033333	1	0.168750
35.050000	1	0.166875
35.066667	1	0.164875
35.083333	1	0.162750
35.100000	1	0.160500
35.116667	1	0.159625
35.133333	1	0.158000
35.150000	1	0.155375
35.166667	1	0.153625
35.183333	1	0.151750
35.200000	1	0.149500
35.216667	1	0.146875
35.233333	1	0.145000
35.250000	1	0.143125
35.266667	1	0.140500
35.283333	1	0.138250
35.300000	1	0.135500
35.316667	1	0.134375
35.333333	1	0.132750
35.350000	1	0.130750
35.366667	1	0.129875
35.383333	1	0.128375
35.400000	1	0.126875
35.416667	1	0.125750
35.433333	1	0.124125
35.450000	1	0.123250
35.466667	1	0.122250
35.483333	1	0.120875
35.500000	1	0.120125
35.516667	1	0.119500
35.533333	1	0.119625
35.550000	1	0.119250
35.566667	1	0.119250
35.583333	1	0.119375
35.600000	1	0.119500
35.616667	1	0.119125
35.633333	1	0.120000
35.650000	1	0.120000
35.666667	1	0.119750
35.683333	1	0.119625
35.700000	1	0.120125
35.716667	1	0.120375
35.733333	1	0.121000
35.750000	1	0.121750
35.766667	1	0.122125
35.783333	1	0.122000
35.800000	1	0.122125
35.816667	1	0.122000
35.833333	1	0.122125
35.850000	1	0.122875
35.866667	1	0.123625
35.883333	1	0.123125
35.900000	1	0.123125
35.916667	1	0.122750
35.933333	1	0.123000
35.950000	1	0.123000
35.966667	1	0.123000
35.983333	1	0.123125
36.000000	1	0.122625
36.016667	1	0.122750
36.033333	1	0.122375
36.050000	1	0.122125
36.066667	1	0.121625
36.083333	1	0.121375
36.100000	1	0.120750
36.116667	1	0.120500
36.133333	1	0.120125
36.150000	1	0.120625
36.166667	1	0.120500
36.183333	1	0.119500
36.200000	1	0.119375
36.216667	1	0.118750
36.233333	1	0.118500
36.250000	1	0.118250
36.266667	1	0.118375
36.283333	1	0.118250
36.300000	1	0.118625
36.316667	1	0.119250
36.333333	1	0.120000
36.350000	1	0.119500
36.366667	1	0.119625
36.383333	1	0.119500
36.400000	1	0.119750
36.416667	1	0.120500
36.433333	1	0.121000
36.450000	1	0.120875
36.466667	1	0.121250
36.483333	1	0.121500
36.500000	1	0.121875
36.516667	1	0.122500
36.533333	1	0.122875
36.550000	1	0.122375
36.566667	1	0.122125
36.583333	1	0.121750
36.600000	1	0.121125
36.616667	1	0.120875
36.633333	1	0.120500
36.650000	1	0.119875
36.666667	1	0.118125
36.683333	1	0.117375
36.700000	1	0.116250
36.716667	1	0.115625
36.733333	1	0.114500
36.750000	1	0.113250
36.766667	1	0.111375
36.783333	1	0.109625
36.800000	1	0.107250
36.816667	1	0.104875
36.833333	1	0.102625
36.850000	1	0.101000
36.866667	1	0.098625
36.883333	1	0.096875
36.900000	1	0.094750
36.916667	1	0.092750
36.933333	1	0.090375
36.950000	1	0.088125
36.966667	1	0.085875
36.983333	1	0.084500
37.000000	1	0.083000
37.016667	1	0.081250
37.033333	1	0.080000
37.050000	1	0.078500
37.066667	1	0.077375
37.083333	1	0.076125
37.100000	1	0.075750
37.116667	1	0.075125
37.133333	1	0.075000
37.150000	1	0.074250
37.166667	1	0.074500
37.183333	1	0.073875
37.200000	1	0.074250
37.216667	1	0.074500
37.233333	1	0.075125
37.250000	1	0.075375
37.266667	1	0.076250
37.283333	1	0.076875
37.300000	1	0.078500
37.316667	1	0.079500
37.333333	1	0.080625
37.350000	1	0.081500
37.366667	1	0.082250
37.383333	1	0.083250
37.400000	1	0.084625
37.416667	1	0.086250
37.433333	1	0.087250
37.450000	1	0.088375
37.466667	1	0.089500
37.483333	1	0.090750
37.500000	1	0.092125
37.516667	1	0.093375
37.533333	1	0.094500
37.550000	1	0.095500
37.566667	1	0.096250
37.583333	1	0.096500
37.600000	1	0.096500
37.616667	1	0.096625
37.633333	1	0.096750
37.650000	1	0.096125
37.666667	1	0.095375
37.683333	1	0.094625
37.700000	1	0.093750
37.716667	1	0.093000
37.733333	1	0.092125
37.750000	1	0.090500
37.766667	1	0.089375
37.783333	1	0.087250
37.800000	1	0.085000
37.816667	1	0.083375
37.833333	1	0.081125
37.850000	1	0.078750
37.866667	1	0.076250
37.883333	1	0.074125
37.900000	1	0.072000
37.916667	1	0.070375
37.933333	1	0.068875
37.950000	1	0.066250
37.966667	1	0.064125
37.983333	1	0.062000
38.000000	1	0.059625
38.016667	1	0.057625
38.033333	1	0.056250
38.050000	1	0.054750
38.066667	1	0.052875
38.083333	1	0.051625
38.100000	1	0.050500
38.116667	1	0.049500
38.133333	1	0.048875
38.150000	1	0.048125
38.166667	1	0.047750
38.183333	1	0.047000
38.200000	1	0.046750
38.216667	1	0.046250
38.233333	1	0.046250
38.250000	1	0.046250
38.266667	1	0.046250
38.283333	1	0.046500
38.300000	1	0.046625
38.316667	1	0.046625
38.333333	1	0.046625
38.350000	1	0.046500
38.366667	1	0.046750
38.383333	1	0.047375
38.400000	1	0.048375
38.416667	1	0.048875
38.433333	1	0.049625
38.450000	1	0.050125
38.466667	1	0.052000
38.483333	1	0.052750
38.500000	1	0.053625
38.516667	1	0.054500
38.533333	1	0.055375
38.550000	1	0.056500
38.566667	1	0.057625
38.583333	1	0.058500
38.600000	1	0.059875
38.616667	1	0.060875
38.633333	1	0.062250
38.650000	1	0.063500
38.666667	1	0.065250
38.683333	1	0.066875
38.700000	1	0.068375
38.716667	1	0.069375
38.733333	1	0.071000
38.750000	1	0.073125
38.766667	1	0.073500
38.783333	1	0.074125
38.800000	1	0.075125
38.816667	1	0.076375
38.833333	1	0.077250
38.850000	1	0.078375
38.866667	1	0.078750
38.883333	1	0.080125
38.900000	1	0.081625
38.916667	1	0.082625
38.933333	1	0.082750
38.950000	1	0.083750
38.966667	1	0.084875
38.983333	1	0.085500
39.000000	1	0.085875
39.016667	1	0.085875
39.033333	1	0.086250
39.050000	1	0.087625
39.066667	1	0.087875
39.083333	1	0.088000
39.100000	1	0.088250
39.116667	1	0.088250
39.133333	1	0.088250
39.150000	1	0.087875
39.166667	1	0.087875
39.183333	1	0.087625
39.200000	1	0.087250
39.216667	1	0.086625
39.233333	1	0.086625
39.250000	1	0.086375
39.266667	1	0.085625
39.283333	1	0.084750
39.300000	1	0.083750
39.316667	1	0.083000
39.333333	1	0.082375
39.350000	1	0.081250
39.366667	1	0.080125
39.383333	1	0.078500
39.400000	1	0.077375
39.416667	1	0.076750
39.433333	1	0.075500
39.450000	1	0.074500
39.466667	1	0.072875
39.483333	1	0.071500
39.500000	1	0.070000
39.516667	1	0.068750
39.533333	1	0.067625
39.550000	1	0.066125
39.566667	1	0.064875
39.583333	1	0.063750
39.600000	1	0.061125
39.616667	1	0.060125
39.633333	1	0.059375
39.650000	1	0.058375
39.666667	1	0.057875
39.683333	1	0.057625
39.700000	1	0.056625
39.716667	1	0.055750
39.733333	1	0.055000
39.750000	1	0.054250
39.766667	1	0.053125
39.783333	1	0.052625
39.800000	1	0.052250
39.816667	1	0.051625
39.833333	1	0.051125
39.850000	1	0.051000
39.866667	1	0.050250
39.883333	1	0.049375
39.900000	1	0.048750
39.916667	1	0.047875
39.933333	1	0.047875
39.950000	1	0.047375
39.966667	1	0.046375
39.983333	1	0.045500
40.000000	1	0.044625
