URL	chrom://7040-86g6c92/XVault/Ultimate_3000/20/20240517_CMO_FP23_FP25_MarkusDeplate.seq/255.smp/RI_1.channel/RI_1.chm
Channel	RI_1

Injection Information:
Data Vault	XVault
Sequence	20240517_CMO_FP23_FP25_MarkusDeplate
Name	FP25_22.2_s1
Number	79
Position	BG7
Comment	
Processing Method	
Instrument Method	run_25B_method
Type	Unknown
Status	Finished
Inject Time	29.05.2024 23:58:50 +02:00
Volume (µl)	20.0000
Dilution Factor	1.0000
Weight	1.0000

Chromatogram Data Information:
Time Min. (min)	0.000000
Time Max. (min)	40.000000
Data Points	2401
Detector	RI
Generating Data System	Chromeleon 7.3.2.11814
Exporting Data System	Chromeleon 7.3.2.0
Operator	Instrument Controller
Signal Quantity	Refractive 
Signal Unit	µRIU
Signal Min.	-1.005750
Signal Max.	68.362875
Channel	RI_1
Driver Name	RID520Driver.dll
Channel Type	Evaluation
Min. Step (s)	1
Max. Step (s)	1
Average Step (s)	1

Signal Parameter Information:
Signal Info	

Chromatogram Data:
Time (min)	Step (s)	Value (µRIU)
0.000000	n.a.	-0.049125
0.016667	1	-0.052750
0.033333	1	-0.056500
0.050000	1	-0.059875
0.066667	1	-0.063250
0.083333	1	-0.066375
0.100000	1	-0.068875
0.116667	1	-0.072125
0.133333	1	-0.074500
0.150000	1	-0.075750
0.166667	1	-0.076875
0.183333	1	-0.078500
0.200000	1	-0.079500
0.216667	1	-0.080250
0.233333	1	-0.081000
0.250000	1	-0.081375
0.266667	1	-0.080875
0.283333	1	-0.080750
0.300000	1	-0.079375
0.316667	1	-0.078750
0.333333	1	-0.078125
0.350000	1	-0.076625
0.366667	1	-0.075750
0.383333	1	-0.074750
0.400000	1	-0.073875
0.416667	1	-0.071875
0.433333	1	-0.069125
0.450000	1	-0.066125
0.466667	1	-0.062375
0.483333	1	-0.058375
0.500000	1	-0.054750
0.516667	1	-0.051625
0.533333	1	-0.048750
0.550000	1	-0.046750
0.566667	1	-0.046125
0.583333	1	-0.046500
0.600000	1	-0.047125
0.616667	1	-0.048000
0.633333	1	-0.048500
0.650000	1	-0.048500
0.666667	1	-0.048375
0.683333	1	-0.047875
0.700000	1	-0.047250
0.716667	1	-0.046250
0.733333	1	-0.045750
0.750000	1	-0.044500
0.766667	1	-0.044375
0.783333	1	-0.044000
0.800000	1	-0.043250
0.816667	1	-0.042875
0.833333	1	-0.042375
0.850000	1	-0.042250
0.866667	1	-0.041625
0.883333	1	-0.041625
0.900000	1	-0.040875
0.916667	1	-0.040750
0.933333	1	-0.040375
0.950000	1	-0.040750
0.966667	1	-0.040375
0.983333	1	-0.040500
1.000000	1	-0.040250
1.016667	1	-0.040500
1.033333	1	-0.039625
1.050000	1	-0.039125
1.066667	1	-0.038750
1.083333	1	-0.039125
1.100000	1	-0.038750
1.116667	1	-0.038000
1.133333	1	-0.038250
1.150000	1	-0.038750
1.166667	1	-0.038375
1.183333	1	-0.038000
1.200000	1	-0.038000
1.216667	1	-0.037250
1.233333	1	-0.037375
1.250000	1	-0.037000
1.266667	1	-0.036125
1.283333	1	-0.036250
1.300000	1	-0.037375
1.316667	1	-0.037125
1.333333	1	-0.037125
1.350000	1	-0.037125
1.366667	1	-0.037000
1.383333	1	-0.037375
1.400000	1	-0.036875
1.416667	1	-0.036500
1.433333	1	-0.036250
1.450000	1	-0.036000
1.466667	1	-0.035500
1.483333	1	-0.035125
1.500000	1	-0.034750
1.516667	1	-0.034500
1.533333	1	-0.034125
1.550000	1	-0.034000
1.566667	1	-0.034375
1.583333	1	-0.034750
1.600000	1	-0.034750
1.616667	1	-0.035000
1.633333	1	-0.034625
1.650000	1	-0.034375
1.666667	1	-0.034625
1.683333	1	-0.035375
1.700000	1	-0.035750
1.716667	1	-0.036250
1.733333	1	-0.036625
1.750000	1	-0.037625
1.766667	1	-0.038750
1.783333	1	-0.039250
1.800000	1	-0.040000
1.816667	1	-0.040875
1.833333	1	-0.041750
1.850000	1	-0.042625
1.866667	1	-0.043875
1.883333	1	-0.044500
1.900000	1	-0.045625
1.916667	1	-0.046000
1.933333	1	-0.047250
1.950000	1	-0.048375
1.966667	1	-0.049500
1.983333	1	-0.049875
2.000000	1	-0.050875
2.016667	1	-0.051125
2.033333	1	-0.051375
2.050000	1	-0.052125
2.066667	1	-0.052375
2.083333	1	-0.052750
2.100000	1	-0.053875
2.116667	1	-0.054000
2.133333	1	-0.054375
2.150000	1	-0.054750
2.166667	1	-0.055250
2.183333	1	-0.055375
2.200000	1	-0.056000
2.216667	1	-0.056750
2.233333	1	-0.056875
2.250000	1	-0.057750
2.266667	1	-0.058250
2.283333	1	-0.059375
2.300000	1	-0.060250
2.316667	1	-0.060625
2.333333	1	-0.061250
2.350000	1	-0.061625
2.366667	1	-0.062375
2.383333	1	-0.063750
2.400000	1	-0.064250
2.416667	1	-0.065125
2.433333	1	-0.065875
2.450000	1	-0.065875
2.466667	1	-0.065375
2.483333	1	-0.065875
2.500000	1	-0.065250
2.516667	1	-0.065875
2.533333	1	-0.065875
2.550000	1	-0.065625
2.566667	1	-0.064875
2.583333	1	-0.063875
2.600000	1	-0.062875
2.616667	1	-0.061125
2.633333	1	-0.059750
2.650000	1	-0.057875
2.666667	1	-0.056000
2.683333	1	-0.053625
2.700000	1	-0.051500
2.716667	1	-0.049125
2.733333	1	-0.046375
2.750000	1	-0.043875
2.766667	1	-0.041500
2.783333	1	-0.038750
2.800000	1	-0.035250
2.816667	1	-0.032875
2.833333	1	-0.029500
2.850000	1	-0.026375
2.866667	1	-0.023125
2.883333	1	-0.019875
2.900000	1	-0.016875
2.916667	1	-0.014375
2.933333	1	-0.011500
2.950000	1	-0.009375
2.966667	1	-0.007625
2.983333	1	-0.005500
3.000000	1	-0.003375
3.016667	1	-0.001500
3.033333	1	0.000375
3.050000	1	0.001375
3.066667	1	0.001875
3.083333	1	0.002625
3.100000	1	0.003375
3.116667	1	0.003250
3.133333	1	0.003000
3.150000	1	0.003125
3.166667	1	0.002375
3.183333	1	0.001875
3.200000	1	0.000875
3.216667	1	0.000125
3.233333	1	-0.000750
3.250000	1	-0.001375
3.266667	1	-0.003125
3.283333	1	-0.004625
3.300000	1	-0.006625
3.316667	1	-0.008250
3.333333	1	-0.009875
3.350000	1	-0.010875
3.366667	1	-0.012750
3.383333	1	-0.014375
3.400000	1	-0.015500
3.416667	1	-0.016875
3.433333	1	-0.017750
3.450000	1	-0.019125
3.466667	1	-0.019625
3.483333	1	-0.019750
3.500000	1	-0.020625
3.516667	1	-0.021000
3.533333	1	-0.021875
3.550000	1	-0.022500
3.566667	1	-0.022500
3.583333	1	-0.022125
3.600000	1	-0.021875
3.616667	1	-0.021500
3.633333	1	-0.020750
3.650000	1	-0.020125
3.666667	1	-0.019250
3.683333	1	-0.018250
3.700000	1	-0.017375
3.716667	1	-0.016000
3.733333	1	-0.014250
3.750000	1	-0.012750
3.766667	1	-0.010625
3.783333	1	-0.008375
3.800000	1	-0.006000
3.816667	1	-0.003625
3.833333	1	-0.001625
3.850000	1	0.000750
3.866667	1	0.002375
3.883333	1	0.004750
3.900000	1	0.006875
3.916667	1	0.009250
3.933333	1	0.011000
3.950000	1	0.013625
3.966667	1	0.015375
3.983333	1	0.016500
4.000000	1	0.017875
4.016667	1	0.019125
4.033333	1	0.020500
4.050000	1	0.021875
4.066667	1	0.022875
4.083333	1	0.023250
4.100000	1	0.022750
4.116667	1	0.023000
4.133333	1	0.022875
4.150000	1	0.022875
4.166667	1	0.022500
4.183333	1	0.022625
4.200000	1	0.021875
4.216667	1	0.021250
4.233333	1	0.019750
4.250000	1	0.018500
4.266667	1	0.017250
4.283333	1	0.015750
4.300000	1	0.013875
4.316667	1	0.012500
4.333333	1	0.011250
4.350000	1	0.010250
4.366667	1	0.009000
4.383333	1	0.008250
4.400000	1	0.007375
4.416667	1	0.006625
4.433333	1	0.005750
4.450000	1	0.005375
4.466667	1	0.005000
4.483333	1	0.004625
4.500000	1	0.004125
4.516667	1	0.004125
4.533333	1	0.004625
4.550000	1	0.005375
4.566667	1	0.005375
4.583333	1	0.006500
4.600000	1	0.008250
4.616667	1	0.009000
4.633333	1	0.009875
4.650000	1	0.010875
4.666667	1	0.012250
4.683333	1	0.013875
4.700000	1	0.015500
4.716667	1	0.016500
4.733333	1	0.017375
4.750000	1	0.019125
4.766667	1	0.020875
4.783333	1	0.022625
4.800000	1	0.024250
4.816667	1	0.025125
4.833333	1	0.025875
4.850000	1	0.027875
4.866667	1	0.029125
4.883333	1	0.030750
4.900000	1	0.031500
4.916667	1	0.033500
4.933333	1	0.034250
4.950000	1	0.036125
4.966667	1	0.037375
4.983333	1	0.039000
5.000000	1	0.040375
5.016667	1	0.041625
5.033333	1	0.043625
5.050000	1	0.045500
5.066667	1	0.048000
5.083333	1	0.050000
5.100000	1	0.052250
5.116667	1	0.055000
5.133333	1	0.057375
5.150000	1	0.059875
5.166667	1	0.062250
5.183333	1	0.064625
5.200000	1	0.066625
5.216667	1	0.069750
5.233333	1	0.072750
5.250000	1	0.075375
5.266667	1	0.078500
5.283333	1	0.083375
5.300000	1	0.087125
5.316667	1	0.090500
5.333333	1	0.095000
5.350000	1	0.099750
5.366667	1	0.104250
5.383333	1	0.108500
5.400000	1	0.113250
5.416667	1	0.119125
5.433333	1	0.125000
5.450000	1	0.130875
5.466667	1	0.136375
5.483333	1	0.142750
5.500000	1	0.148625
5.516667	1	0.155125
5.533333	1	0.160625
5.550000	1	0.166750
5.566667	1	0.172125
5.583333	1	0.178000
5.600000	1	0.183750
5.616667	1	0.189375
5.633333	1	0.194250
5.650000	1	0.199500
5.666667	1	0.204500
5.683333	1	0.209500
5.700000	1	0.214375
5.716667	1	0.218625
5.733333	1	0.222375
5.750000	1	0.225875
5.766667	1	0.229500
5.783333	1	0.232875
5.800000	1	0.236500
5.816667	1	0.239125
5.833333	1	0.241750
5.850000	1	0.243625
5.866667	1	0.245625
5.883333	1	0.247250
5.900000	1	0.248125
5.916667	1	0.249125
5.933333	1	0.249875
5.950000	1	0.250750
5.966667	1	0.251125
5.983333	1	0.251250
6.000000	1	0.251375
6.016667	1	0.250500
6.033333	1	0.249625
6.050000	1	0.248250
6.066667	1	0.246125
6.083333	1	0.243875
6.100000	1	0.241875
6.116667	1	0.239625
6.133333	1	0.237000
6.150000	1	0.234250
6.166667	1	0.231125
6.183333	1	0.227625
6.200000	1	0.223750
6.216667	1	0.220250
6.233333	1	0.216250
6.250000	1	0.212000
6.266667	1	0.207125
6.283333	1	0.202875
6.300000	1	0.198375
6.316667	1	0.193250
6.333333	1	0.187750
6.350000	1	0.182000
6.366667	1	0.177125
6.383333	1	0.171500
6.400000	1	0.165875
6.416667	1	0.160875
6.433333	1	0.155625
6.450000	1	0.149625
6.466667	1	0.144250
6.483333	1	0.139000
6.500000	1	0.134000
6.516667	1	0.128750
6.533333	1	0.123875
6.550000	1	0.119000
6.566667	1	0.114750
6.583333	1	0.110500
6.600000	1	0.106125
6.616667	1	0.102125
6.633333	1	0.099000
6.650000	1	0.095125
6.666667	1	0.092000
6.683333	1	0.088625
6.700000	1	0.086500
6.716667	1	0.083875
6.733333	1	0.082000
6.750000	1	0.080500
6.766667	1	0.079125
6.783333	1	0.077250
6.800000	1	0.076375
6.816667	1	0.075500
6.833333	1	0.074500
6.850000	1	0.074125
6.866667	1	0.073875
6.883333	1	0.073875
6.900000	1	0.074125
6.916667	1	0.074000
6.933333	1	0.074000
6.950000	1	0.074625
6.966667	1	0.074625
6.983333	1	0.075125
7.000000	1	0.075750
7.016667	1	0.076750
7.033333	1	0.077375
7.050000	1	0.078500
7.066667	1	0.079250
7.083333	1	0.079625
7.100000	1	0.080875
7.116667	1	0.081750
7.133333	1	0.083625
7.150000	1	0.085000
7.166667	1	0.086000
7.183333	1	0.087875
7.200000	1	0.089500
7.216667	1	0.090625
7.233333	1	0.092500
7.250000	1	0.093875
7.266667	1	0.096375
7.283333	1	0.098500
7.300000	1	0.100875
7.316667	1	0.103000
7.333333	1	0.105875
7.350000	1	0.108375
7.366667	1	0.111625
7.383333	1	0.114375
7.400000	1	0.116625
7.416667	1	0.119875
7.433333	1	0.123125
7.450000	1	0.127375
7.466667	1	0.130500
7.483333	1	0.133500
7.500000	1	0.136500
7.516667	1	0.139875
7.533333	1	0.143000
7.550000	1	0.145875
7.566667	1	0.148875
7.583333	1	0.151625
7.600000	1	0.154125
7.616667	1	0.156750
7.633333	1	0.158500
7.650000	1	0.160375
7.666667	1	0.161375
7.683333	1	0.162500
7.700000	1	0.163750
7.716667	1	0.164375
7.733333	1	0.164375
7.750000	1	0.164250
7.766667	1	0.163125
7.783333	1	0.162375
7.800000	1	0.161500
7.816667	1	0.159750
7.833333	1	0.157125
7.850000	1	0.154750
7.866667	1	0.152500
7.883333	1	0.149000
7.900000	1	0.145000
7.916667	1	0.141625
7.933333	1	0.138125
7.950000	1	0.133375
7.966667	1	0.129000
7.983333	1	0.124125
8.000000	1	0.119625
8.016667	1	0.114125
8.033333	1	0.110000
8.050000	1	0.105125
8.066667	1	0.099625
8.083333	1	0.093500
8.100000	1	0.087500
8.116667	1	0.082000
8.133333	1	0.076125
8.150000	1	0.070500
8.166667	1	0.064750
8.183333	1	0.059375
8.200000	1	0.053500
8.216667	1	0.047875
8.233333	1	0.042875
8.250000	1	0.037500
8.266667	1	0.031750
8.283333	1	0.026625
8.300000	1	0.021250
8.316667	1	0.016875
8.333333	1	0.012375
8.350000	1	0.008375
8.366667	1	0.004875
8.383333	1	0.001250
8.400000	1	-0.002750
8.416667	1	-0.006000
8.433333	1	-0.009375
8.450000	1	-0.012500
8.466667	1	-0.015000
8.483333	1	-0.018000
8.500000	1	-0.020250
8.516667	1	-0.022000
8.533333	1	-0.022875
8.550000	1	-0.024875
8.566667	1	-0.027125
8.583333	1	-0.028125
8.600000	1	-0.029625
8.616667	1	-0.031375
8.633333	1	-0.032750
8.650000	1	-0.034375
8.666667	1	-0.035250
8.683333	1	-0.036750
8.700000	1	-0.037500
8.716667	1	-0.038750
8.733333	1	-0.039625
8.750000	1	-0.040625
8.766667	1	-0.041375
8.783333	1	-0.041875
8.800000	1	-0.042000
8.816667	1	-0.042375
8.833333	1	-0.043000
8.850000	1	-0.044000
8.866667	1	-0.044250
8.883333	1	-0.044000
8.900000	1	-0.043750
8.916667	1	-0.043750
8.933333	1	-0.044125
8.950000	1	-0.043625
8.966667	1	-0.042625
8.983333	1	-0.041750
9.000000	1	-0.041875
9.016667	1	-0.040750
9.033333	1	-0.040000
9.050000	1	-0.039375
9.066667	1	-0.038875
9.083333	1	-0.038125
9.100000	1	-0.036875
9.116667	1	-0.035750
9.133333	1	-0.034875
9.150000	1	-0.034000
9.166667	1	-0.033000
9.183333	1	-0.032125
9.200000	1	-0.030875
9.216667	1	-0.029250
9.233333	1	-0.027250
9.250000	1	-0.026250
9.266667	1	-0.024500
9.283333	1	-0.023000
9.300000	1	-0.021250
9.316667	1	-0.019875
9.333333	1	-0.018875
9.350000	1	-0.017875
9.366667	1	-0.016375
9.383333	1	-0.016000
9.400000	1	-0.014375
9.416667	1	-0.013750
9.433333	1	-0.012625
9.450000	1	-0.011250
9.466667	1	-0.010875
9.483333	1	-0.009625
9.500000	1	-0.008875
9.516667	1	-0.008125
9.533333	1	-0.007250
9.550000	1	-0.006750
9.566667	1	-0.006625
9.583333	1	-0.005750
9.600000	1	-0.005375
9.616667	1	-0.005125
9.633333	1	-0.004875
9.650000	1	-0.004500
9.666667	1	-0.004500
9.683333	1	-0.004250
9.700000	1	-0.003875
9.716667	1	-0.002625
9.733333	1	-0.002500
9.750000	1	-0.001375
9.766667	1	-0.001125
9.783333	1	-0.000625
9.800000	1	-0.000750
9.816667	1	-0.000500
9.833333	1	-0.000125
9.850000	1	-0.000125
9.866667	1	-0.000125
9.883333	1	-0.000250
9.900000	1	0.000500
9.916667	1	0.000875
9.933333	1	0.001000
9.950000	1	0.001750
9.966667	1	0.002000
9.983333	1	0.002500
10.000000	1	0.003625
10.016667	1	0.005125
10.033333	1	0.007250
10.050000	1	0.009875
10.066667	1	0.013375
10.083333	1	0.017000
10.100000	1	0.021875
10.116667	1	0.027250
10.133333	1	0.033375
10.150000	1	0.041250
10.166667	1	0.049625
10.183333	1	0.059500
10.200000	1	0.070500
10.216667	1	0.082625
10.233333	1	0.096875
10.250000	1	0.112250
10.266667	1	0.130375
10.283333	1	0.150625
10.300000	1	0.174000
10.316667	1	0.199500
10.333333	1	0.228125
10.350000	1	0.259500
10.366667	1	0.293375
10.383333	1	0.329625
10.400000	1	0.366250
10.416667	1	0.400500
10.433333	1	0.423750
10.450000	1	0.427625
10.466667	1	0.403250
10.483333	1	0.349125
10.500000	1	0.274250
10.516667	1	0.209875
10.533333	1	0.208875
10.550000	1	0.346000
10.566667	1	0.708875
10.583333	1	1.388750
10.600000	1	2.470125
10.616667	1	4.021000
10.633333	1	6.093000
10.650000	1	8.711875
10.666667	1	11.889875
10.683333	1	15.617625
10.700000	1	19.863500
10.716667	1	24.562250
10.733333	1	29.608750
10.750000	1	34.840625
10.766667	1	40.017750
10.783333	1	44.818750
10.800000	1	48.847125
10.816667	1	51.672250
10.833333	1	52.926125
10.850000	1	52.417625
10.866667	1	50.201125
10.883333	1	46.573875
10.900000	1	41.988500
10.916667	1	36.940125
10.933333	1	31.855750
10.950000	1	27.041500
10.966667	1	22.684875
10.983333	1	18.873250
11.000000	1	15.622750
11.016667	1	12.908500
11.033333	1	10.680250
11.050000	1	8.876250
11.066667	1	7.427875
11.083333	1	6.272125
11.100000	1	5.352125
11.116667	1	4.619750
11.133333	1	4.034375
11.150000	1	3.564250
11.166667	1	3.184125
11.183333	1	2.874000
11.200000	1	2.618375
11.216667	1	2.405125
11.233333	1	2.225750
11.250000	1	2.073750
11.266667	1	1.943000
11.283333	1	1.830125
11.300000	1	1.731750
11.316667	1	1.645250
11.333333	1	1.569750
11.350000	1	1.503250
11.366667	1	1.445125
11.383333	1	1.392500
11.400000	1	1.346250
11.416667	1	1.304625
11.433333	1	1.267500
11.450000	1	1.233375
11.466667	1	1.203625
11.483333	1	1.176750
11.500000	1	1.152250
11.516667	1	1.130375
11.533333	1	1.110875
11.550000	1	1.093250
11.566667	1	1.077750
11.583333	1	1.064000
11.600000	1	1.051500
11.616667	1	1.040750
11.633333	1	1.032375
11.650000	1	1.024625
11.666667	1	1.018875
11.683333	1	1.015000
11.700000	1	1.012750
11.716667	1	1.012375
11.733333	1	1.013250
11.750000	1	1.015375
11.766667	1	1.019250
11.783333	1	1.024500
11.800000	1	1.029250
11.816667	1	1.034625
11.833333	1	1.040250
11.850000	1	1.045750
11.866667	1	1.051125
11.883333	1	1.055500
11.900000	1	1.060250
11.916667	1	1.065375
11.933333	1	1.069875
11.950000	1	1.074000
11.966667	1	1.078625
11.983333	1	1.083000
12.000000	1	1.087625
12.016667	1	1.092750
12.033333	1	1.098875
12.050000	1	1.105500
12.066667	1	1.113250
12.083333	1	1.120625
12.100000	1	1.128375
12.116667	1	1.137125
12.133333	1	1.146250
12.150000	1	1.156000
12.166667	1	1.167875
12.183333	1	1.179500
12.200000	1	1.193125
12.216667	1	1.209250
12.233333	1	1.227375
12.250000	1	1.248875
12.266667	1	1.272875
12.283333	1	1.299250
12.300000	1	1.327625
12.316667	1	1.358750
12.333333	1	1.392500
12.350000	1	1.431250
12.366667	1	1.476875
12.383333	1	1.533000
12.400000	1	1.603750
12.416667	1	1.695375
12.433333	1	1.815250
12.450000	1	1.971625
12.466667	1	2.172375
12.483333	1	2.426500
12.500000	1	2.740375
12.516667	1	3.116625
12.533333	1	3.555375
12.550000	1	4.052500
12.566667	1	4.599750
12.583333	1	5.186875
12.600000	1	5.798750
12.616667	1	6.419125
12.633333	1	7.033250
12.650000	1	7.627125
12.666667	1	8.190500
12.683333	1	8.717125
12.700000	1	9.204250
12.716667	1	9.652000
12.733333	1	10.063000
12.750000	1	10.439750
12.766667	1	10.780750
12.783333	1	11.077500
12.800000	1	11.309875
12.816667	1	11.443375
12.833333	1	11.437125
12.850000	1	11.251750
12.866667	1	10.868500
12.883333	1	10.300875
12.900000	1	9.595750
12.916667	1	8.817875
12.933333	1	8.027625
12.950000	1	7.267500
12.966667	1	6.563125
12.983333	1	5.923625
13.000000	1	5.351875
13.016667	1	4.845750
13.033333	1	4.402250
13.050000	1	4.018875
13.066667	1	3.691000
13.083333	1	3.411000
13.100000	1	3.173000
13.116667	1	2.971625
13.133333	1	2.801375
13.150000	1	2.655625
13.166667	1	2.530250
13.183333	1	2.421875
13.200000	1	2.326875
13.216667	1	2.242250
13.233333	1	2.167125
13.250000	1	2.098125
13.266667	1	2.034500
13.283333	1	1.975750
13.300000	1	1.921000
13.316667	1	1.870125
13.333333	1	1.823125
13.350000	1	1.779875
13.366667	1	1.739500
13.383333	1	1.701875
13.400000	1	1.667500
13.416667	1	1.636875
13.433333	1	1.609625
13.450000	1	1.586375
13.466667	1	1.566125
13.483333	1	1.548625
13.500000	1	1.534375
13.516667	1	1.523000
13.533333	1	1.513500
13.550000	1	1.506000
13.566667	1	1.500000
13.583333	1	1.493875
13.600000	1	1.487875
13.616667	1	1.480375
13.633333	1	1.471125
13.650000	1	1.460625
13.666667	1	1.448375
13.683333	1	1.433875
13.700000	1	1.417625
13.716667	1	1.400375
13.733333	1	1.381875
13.750000	1	1.362875
13.766667	1	1.343000
13.783333	1	1.324000
13.800000	1	1.304750
13.816667	1	1.286750
13.833333	1	1.269250
13.850000	1	1.252125
13.866667	1	1.236750
13.883333	1	1.222125
13.900000	1	1.208250
13.916667	1	1.194750
13.933333	1	1.182000
13.950000	1	1.170000
13.966667	1	1.158250
13.983333	1	1.147750
14.000000	1	1.137250
14.016667	1	1.127375
14.033333	1	1.118250
14.050000	1	1.109375
14.066667	1	1.101125
14.083333	1	1.092375
14.100000	1	1.084125
14.116667	1	1.076000
14.133333	1	1.068875
14.150000	1	1.061250
14.166667	1	1.054625
14.183333	1	1.049125
14.200000	1	1.045000
14.216667	1	1.040875
14.233333	1	1.038250
14.250000	1	1.037125
14.266667	1	1.037125
14.283333	1	1.038125
14.300000	1	1.041500
14.316667	1	1.045375
14.333333	1	1.051375
14.350000	1	1.059000
14.366667	1	1.068875
14.383333	1	1.080875
14.400000	1	1.095875
14.416667	1	1.114625
14.433333	1	1.140125
14.450000	1	1.177500
14.466667	1	1.232500
14.483333	1	1.315875
14.500000	1	1.444500
14.516667	1	1.641250
14.533333	1	1.935750
14.550000	1	2.371500
14.566667	1	3.001375
14.583333	1	3.888125
14.600000	1	5.103250
14.616667	1	6.727000
14.633333	1	8.839875
14.650000	1	11.515125
14.666667	1	14.808625
14.683333	1	18.745125
14.700000	1	23.306375
14.716667	1	28.419875
14.733333	1	33.968875
14.750000	1	39.784000
14.766667	1	45.649250
14.783333	1	51.311625
14.800000	1	56.511250
14.816667	1	60.999750
14.833333	1	64.562750
14.850000	1	67.030625
14.866667	1	68.305125
14.883333	1	68.362875
14.900000	1	67.254875
14.916667	1	65.095125
14.933333	1	62.051125
14.950000	1	58.319875
14.966667	1	54.109875
14.983333	1	49.626000
15.000000	1	45.047250
15.016667	1	40.520625
15.033333	1	36.160375
15.050000	1	32.052375
15.066667	1	28.253250
15.083333	1	24.792125
15.100000	1	21.678250
15.116667	1	18.905625
15.133333	1	16.455750
15.150000	1	14.303000
15.166667	1	12.421500
15.183333	1	10.784500
15.200000	1	9.362875
15.216667	1	8.132750
15.233333	1	7.072000
15.250000	1	6.160875
15.266667	1	5.382875
15.283333	1	4.722250
15.300000	1	4.167125
15.316667	1	3.704750
15.333333	1	3.323125
15.350000	1	3.011750
15.366667	1	2.761750
15.383333	1	2.562875
15.400000	1	2.407625
15.416667	1	2.286500
15.433333	1	2.194375
15.450000	1	2.122625
15.466667	1	2.065250
15.483333	1	2.016875
15.500000	1	1.974000
15.516667	1	1.932000
15.533333	1	1.891250
15.550000	1	1.848875
15.566667	1	1.803875
15.583333	1	1.758000
15.600000	1	1.712250
15.616667	1	1.666000
15.633333	1	1.621125
15.650000	1	1.578125
15.666667	1	1.537000
15.683333	1	1.498750
15.700000	1	1.461875
15.716667	1	1.427625
15.733333	1	1.396250
15.750000	1	1.366625
15.766667	1	1.338500
15.783333	1	1.312125
15.800000	1	1.287250
15.816667	1	1.263125
15.833333	1	1.240250
15.850000	1	1.218250
15.866667	1	1.198125
15.883333	1	1.179375
15.900000	1	1.162500
15.916667	1	1.147625
15.933333	1	1.134875
15.950000	1	1.124000
15.966667	1	1.115500
15.983333	1	1.108500
16.000000	1	1.104000
16.016667	1	1.101625
16.033333	1	1.100375
16.050000	1	1.100625
16.066667	1	1.102125
16.083333	1	1.104125
16.100000	1	1.106375
16.116667	1	1.109375
16.133333	1	1.111875
16.150000	1	1.114875
16.166667	1	1.117000
16.183333	1	1.118375
16.200000	1	1.119500
16.216667	1	1.119500
16.233333	1	1.119375
16.250000	1	1.117500
16.266667	1	1.115125
16.283333	1	1.111500
16.300000	1	1.108125
16.316667	1	1.103625
16.333333	1	1.100000
16.350000	1	1.096500
16.366667	1	1.094375
16.383333	1	1.092750
16.400000	1	1.092250
16.416667	1	1.093125
16.433333	1	1.094750
16.450000	1	1.098125
16.466667	1	1.101500
16.483333	1	1.105000
16.500000	1	1.108125
16.516667	1	1.110625
16.533333	1	1.112375
16.550000	1	1.113250
16.566667	1	1.111500
16.583333	1	1.109875
16.600000	1	1.105625
16.616667	1	1.100875
16.633333	1	1.094000
16.650000	1	1.086625
16.666667	1	1.079750
16.683333	1	1.073875
16.700000	1	1.068625
16.716667	1	1.063875
16.733333	1	1.061250
16.750000	1	1.060125
16.766667	1	1.062125
16.783333	1	1.065000
16.800000	1	1.069500
16.816667	1	1.075000
16.833333	1	1.080500
16.850000	1	1.087250
16.866667	1	1.093625
16.883333	1	1.099375
16.900000	1	1.103375
16.916667	1	1.106250
16.933333	1	1.107625
16.950000	1	1.107500
16.966667	1	1.107250
16.983333	1	1.104625
17.000000	1	1.102250
17.016667	1	1.099250
17.033333	1	1.095125
17.050000	1	1.090875
17.066667	1	1.086750
17.083333	1	1.084000
17.100000	1	1.081125
17.116667	1	1.079500
17.133333	1	1.078125
17.150000	1	1.077125
17.166667	1	1.077375
17.183333	1	1.077875
17.200000	1	1.079000
17.216667	1	1.081125
17.233333	1	1.082875
17.250000	1	1.085625
17.266667	1	1.088750
17.283333	1	1.092625
17.300000	1	1.096375
17.316667	1	1.100750
17.333333	1	1.104750
17.350000	1	1.108875
17.366667	1	1.113625
17.383333	1	1.117125
17.400000	1	1.121000
17.416667	1	1.124125
17.433333	1	1.125875
17.450000	1	1.126750
17.466667	1	1.126625
17.483333	1	1.124375
17.500000	1	1.120500
17.516667	1	1.114500
17.533333	1	1.107500
17.550000	1	1.098500
17.566667	1	1.088125
17.583333	1	1.075750
17.600000	1	1.062125
17.616667	1	1.047500
17.633333	1	1.032000
17.650000	1	1.016500
17.666667	1	1.000625
17.683333	1	0.985375
17.700000	1	0.969250
17.716667	1	0.954000
17.733333	1	0.939875
17.750000	1	0.926750
17.766667	1	0.914125
17.783333	1	0.903125
17.800000	1	0.893875
17.816667	1	0.884875
17.833333	1	0.877000
17.850000	1	0.870000
17.866667	1	0.863875
17.883333	1	0.858625
17.900000	1	0.852750
17.916667	1	0.847875
17.933333	1	0.843375
17.950000	1	0.839125
17.966667	1	0.834875
17.983333	1	0.830375
18.000000	1	0.825375
18.016667	1	0.820250
18.033333	1	0.814875
18.050000	1	0.809750
18.066667	1	0.804375
18.083333	1	0.799875
18.100000	1	0.795125
18.116667	1	0.791250
18.133333	1	0.787375
18.150000	1	0.784500
18.166667	1	0.782125
18.183333	1	0.780000
18.200000	1	0.777875
18.216667	1	0.776500
18.233333	1	0.775875
18.250000	1	0.774625
18.266667	1	0.773750
18.283333	1	0.772500
18.300000	1	0.771875
18.316667	1	0.771625
18.333333	1	0.771250
18.350000	1	0.771750
18.366667	1	0.772500
18.383333	1	0.774000
18.400000	1	0.776750
18.416667	1	0.780625
18.433333	1	0.786500
18.450000	1	0.793750
18.466667	1	0.802000
18.483333	1	0.812625
18.500000	1	0.825250
18.516667	1	0.840500
18.533333	1	0.858250
18.550000	1	0.877375
18.566667	1	0.897875
18.583333	1	0.921250
18.600000	1	0.946000
18.616667	1	0.972625
18.633333	1	1.000875
18.650000	1	1.031125
18.666667	1	1.062000
18.683333	1	1.095000
18.700000	1	1.129000
18.716667	1	1.162875
18.733333	1	1.197125
18.750000	1	1.231875
18.766667	1	1.266125
18.783333	1	1.300000
18.800000	1	1.332000
18.816667	1	1.361875
18.833333	1	1.388750
18.850000	1	1.412375
18.866667	1	1.431875
18.883333	1	1.445875
18.900000	1	1.454500
18.916667	1	1.457250
18.933333	1	1.454125
18.950000	1	1.444750
18.966667	1	1.429375
18.983333	1	1.406625
19.000000	1	1.378000
19.016667	1	1.344500
19.033333	1	1.307125
19.050000	1	1.266000
19.066667	1	1.221875
19.083333	1	1.176750
19.100000	1	1.130625
19.116667	1	1.084500
19.133333	1	1.040000
19.150000	1	0.997000
19.166667	1	0.957625
19.183333	1	0.921375
19.200000	1	0.889250
19.216667	1	0.861875
19.233333	1	0.838500
19.250000	1	0.820875
19.266667	1	0.808875
19.283333	1	0.803375
19.300000	1	0.804125
19.316667	1	0.810250
19.333333	1	0.821000
19.350000	1	0.838625
19.366667	1	0.861125
19.383333	1	0.887875
19.400000	1	0.917625
19.416667	1	0.951375
19.433333	1	0.985375
19.450000	1	1.020500
19.466667	1	1.055000
19.483333	1	1.088875
19.500000	1	1.120625
19.516667	1	1.149500
19.533333	1	1.174250
19.550000	1	1.195625
19.566667	1	1.211500
19.583333	1	1.222250
19.600000	1	1.229000
19.616667	1	1.230750
19.633333	1	1.228000
19.650000	1	1.220375
19.666667	1	1.208750
19.683333	1	1.192750
19.700000	1	1.173250
19.716667	1	1.150125
19.733333	1	1.124125
19.750000	1	1.095750
19.766667	1	1.065500
19.783333	1	1.034000
19.800000	1	1.001000
19.816667	1	0.967000
19.833333	1	0.933125
19.850000	1	0.899250
19.866667	1	0.864500
19.883333	1	0.831625
19.900000	1	0.799875
19.916667	1	0.770250
19.933333	1	0.742125
19.950000	1	0.717250
19.966667	1	0.694500
19.983333	1	0.675125
20.000000	1	0.659250
20.016667	1	0.646875
20.033333	1	0.638500
20.050000	1	0.634625
20.066667	1	0.635750
20.083333	1	0.641625
20.100000	1	0.651000
20.116667	1	0.665750
20.133333	1	0.683750
20.150000	1	0.705500
20.166667	1	0.729500
20.183333	1	0.756125
20.200000	1	0.782875
20.216667	1	0.809125
20.233333	1	0.834625
20.250000	1	0.857250
20.266667	1	0.877000
20.283333	1	0.892750
20.300000	1	0.903125
20.316667	1	0.908875
20.333333	1	0.909500
20.350000	1	0.904250
20.366667	1	0.894625
20.383333	1	0.880250
20.400000	1	0.861750
20.416667	1	0.840000
20.433333	1	0.817000
20.450000	1	0.792000
20.466667	1	0.766500
20.483333	1	0.742250
20.500000	1	0.719375
20.516667	1	0.699500
20.533333	1	0.684375
20.550000	1	0.673125
20.566667	1	0.667250
20.583333	1	0.668875
20.600000	1	0.676875
20.616667	1	0.693375
20.633333	1	0.718250
20.650000	1	0.752375
20.666667	1	0.795500
20.683333	1	0.846875
20.700000	1	0.906875
20.716667	1	0.974125
20.733333	1	1.047750
20.750000	1	1.126125
20.766667	1	1.206625
20.783333	1	1.287875
20.800000	1	1.367125
20.816667	1	1.440875
20.833333	1	1.507125
20.850000	1	1.564000
20.866667	1	1.609500
20.883333	1	1.642500
20.900000	1	1.661625
20.916667	1	1.667625
20.933333	1	1.659875
20.950000	1	1.639000
20.966667	1	1.606125
20.983333	1	1.562875
21.000000	1	1.511125
21.016667	1	1.452125
21.033333	1	1.390000
21.050000	1	1.324125
21.066667	1	1.257500
21.083333	1	1.190625
21.100000	1	1.125625
21.116667	1	1.063375
21.133333	1	1.004000
21.150000	1	0.947500
21.166667	1	0.894875
21.183333	1	0.846750
21.200000	1	0.802750
21.216667	1	0.762500
21.233333	1	0.725750
21.250000	1	0.692125
21.266667	1	0.662750
21.283333	1	0.635500
21.300000	1	0.611250
21.316667	1	0.589625
21.333333	1	0.569375
21.350000	1	0.552375
21.366667	1	0.536750
21.383333	1	0.522500
21.400000	1	0.509000
21.416667	1	0.497375
21.433333	1	0.486250
21.450000	1	0.476625
21.466667	1	0.468375
21.483333	1	0.461500
21.500000	1	0.455250
21.516667	1	0.449875
21.533333	1	0.445750
21.550000	1	0.442500
21.566667	1	0.439875
21.583333	1	0.438625
21.600000	1	0.439250
21.616667	1	0.440750
21.633333	1	0.443125
21.650000	1	0.447375
21.666667	1	0.452875
21.683333	1	0.460375
21.700000	1	0.469625
21.716667	1	0.479875
21.733333	1	0.491750
21.750000	1	0.504250
21.766667	1	0.518625
21.783333	1	0.533500
21.800000	1	0.548375
21.816667	1	0.563500
21.833333	1	0.579000
21.850000	1	0.594625
21.866667	1	0.609375
21.883333	1	0.622875
21.900000	1	0.635250
21.916667	1	0.646750
21.933333	1	0.656500
21.950000	1	0.664750
21.966667	1	0.671875
21.983333	1	0.676875
22.000000	1	0.680750
22.016667	1	0.682875
22.033333	1	0.683375
22.050000	1	0.683375
22.066667	1	0.681375
22.083333	1	0.679250
22.100000	1	0.675250
22.116667	1	0.671250
22.133333	1	0.665750
22.150000	1	0.659875
22.166667	1	0.653750
22.183333	1	0.646750
22.200000	1	0.638625
22.216667	1	0.629875
22.233333	1	0.619375
22.250000	1	0.609250
22.266667	1	0.598125
22.283333	1	0.587000
22.300000	1	0.575125
22.316667	1	0.562750
22.333333	1	0.550250
22.350000	1	0.538000
22.366667	1	0.524500
22.383333	1	0.511875
22.400000	1	0.499250
22.416667	1	0.487000
22.433333	1	0.475750
22.450000	1	0.464000
22.466667	1	0.453000
22.483333	1	0.442875
22.500000	1	0.433750
22.516667	1	0.424625
22.533333	1	0.416375
22.550000	1	0.408000
22.566667	1	0.400875
22.583333	1	0.393125
22.600000	1	0.386125
22.616667	1	0.379500
22.633333	1	0.373500
22.650000	1	0.367125
22.666667	1	0.361625
22.683333	1	0.355625
22.700000	1	0.350500
22.716667	1	0.345875
22.733333	1	0.340125
22.750000	1	0.335000
22.766667	1	0.330125
22.783333	1	0.325000
22.800000	1	0.320125
22.816667	1	0.315625
22.833333	1	0.311625
22.850000	1	0.307750
22.866667	1	0.303625
22.883333	1	0.299750
22.900000	1	0.296500
22.916667	1	0.294125
22.933333	1	0.292500
22.950000	1	0.290750
22.966667	1	0.289375
22.983333	1	0.288750
23.000000	1	0.288125
23.016667	1	0.287875
23.033333	1	0.288125
23.050000	1	0.288500
23.066667	1	0.289750
23.083333	1	0.291250
23.100000	1	0.293125
23.116667	1	0.294625
23.133333	1	0.296750
23.150000	1	0.299250
23.166667	1	0.301125
23.183333	1	0.302875
23.200000	1	0.304125
23.216667	1	0.305625
23.233333	1	0.307125
23.250000	1	0.309000
23.266667	1	0.311000
23.283333	1	0.313750
23.300000	1	0.317500
23.316667	1	0.322125
23.333333	1	0.329000
23.350000	1	0.338375
23.366667	1	0.349750
23.383333	1	0.366000
23.400000	1	0.388125
23.416667	1	0.416500
23.433333	1	0.452500
23.450000	1	0.498625
23.466667	1	0.556000
23.483333	1	0.627000
23.500000	1	0.713375
23.516667	1	0.817750
23.533333	1	0.941375
23.550000	1	1.085625
23.566667	1	1.251250
23.583333	1	1.438625
23.600000	1	1.648250
23.616667	1	1.878375
23.633333	1	2.128500
23.650000	1	2.394125
23.666667	1	2.672750
23.683333	1	2.959875
23.700000	1	3.250625
23.716667	1	3.538750
23.733333	1	3.819250
23.750000	1	4.086000
23.766667	1	4.332125
23.783333	1	4.551750
23.800000	1	4.741000
23.816667	1	4.895250
23.833333	1	5.012000
23.850000	1	5.088750
23.866667	1	5.124750
23.883333	1	5.120875
23.900000	1	5.079000
23.916667	1	5.000500
23.933333	1	4.889375
23.950000	1	4.749625
23.966667	1	4.585500
23.983333	1	4.401125
24.000000	1	4.201500
24.016667	1	3.991500
24.033333	1	3.774500
24.050000	1	3.555500
24.066667	1	3.337625
24.083333	1	3.123875
24.100000	1	2.914500
24.116667	1	2.712750
24.133333	1	2.519875
24.150000	1	2.335875
24.166667	1	2.162250
24.183333	1	2.000250
24.200000	1	1.848625
24.216667	1	1.707875
24.233333	1	1.577000
24.250000	1	1.456500
24.266667	1	1.345500
24.283333	1	1.244250
24.300000	1	1.151500
24.316667	1	1.066625
24.333333	1	0.989375
24.350000	1	0.919750
24.366667	1	0.857250
24.383333	1	0.801250
24.400000	1	0.751375
24.416667	1	0.707125
24.433333	1	0.668625
24.450000	1	0.635500
24.466667	1	0.606250
24.483333	1	0.580750
24.500000	1	0.558875
24.516667	1	0.539750
24.533333	1	0.523875
24.550000	1	0.510250
24.566667	1	0.498625
24.583333	1	0.486875
24.600000	1	0.477375
24.616667	1	0.468625
24.633333	1	0.461625
24.650000	1	0.455250
24.666667	1	0.448750
24.683333	1	0.442500
24.700000	1	0.436250
24.716667	1	0.429750
24.733333	1	0.423625
24.750000	1	0.417500
24.766667	1	0.410875
24.783333	1	0.404750
24.800000	1	0.399125
24.816667	1	0.393875
24.833333	1	0.387875
24.850000	1	0.382375
24.866667	1	0.377250
24.883333	1	0.372500
24.900000	1	0.368250
24.916667	1	0.363750
24.933333	1	0.359500
24.950000	1	0.355000
24.966667	1	0.351250
24.983333	1	0.347750
25.000000	1	0.344375
25.016667	1	0.341375
25.033333	1	0.338500
25.050000	1	0.335875
25.066667	1	0.333000
25.083333	1	0.330375
25.100000	1	0.328500
25.116667	1	0.326375
25.133333	1	0.323625
25.150000	1	0.321250
25.166667	1	0.318750
25.183333	1	0.316000
25.200000	1	0.314000
25.216667	1	0.311875
25.233333	1	0.309250
25.250000	1	0.306250
25.266667	1	0.303000
25.283333	1	0.300000
25.300000	1	0.297250
25.316667	1	0.294875
25.333333	1	0.292750
25.350000	1	0.290625
25.366667	1	0.287875
25.383333	1	0.286375
25.400000	1	0.285125
25.416667	1	0.282875
25.433333	1	0.281250
25.450000	1	0.280500
25.466667	1	0.279500
25.483333	1	0.279000
25.500000	1	0.278500
25.516667	1	0.278250
25.533333	1	0.278250
25.550000	1	0.277875
25.566667	1	0.278000
25.583333	1	0.278625
25.600000	1	0.278500
25.616667	1	0.278875
25.633333	1	0.279750
25.650000	1	0.280000
25.666667	1	0.279750
25.683333	1	0.279625
25.700000	1	0.280125
25.716667	1	0.280250
25.733333	1	0.280375
25.750000	1	0.279750
25.766667	1	0.279500
25.783333	1	0.279250
25.800000	1	0.278625
25.816667	1	0.278125
25.833333	1	0.277875
25.850000	1	0.277500
25.866667	1	0.278125
25.883333	1	0.278750
25.900000	1	0.278875
25.916667	1	0.279375
25.933333	1	0.280375
25.950000	1	0.282125
25.966667	1	0.284125
25.983333	1	0.286125
26.000000	1	0.288875
26.016667	1	0.292375
26.033333	1	0.296250
26.050000	1	0.301125
26.066667	1	0.306125
26.083333	1	0.311250
26.100000	1	0.317750
26.116667	1	0.324125
26.133333	1	0.330750
26.150000	1	0.336875
26.166667	1	0.344000
26.183333	1	0.351500
26.200000	1	0.358875
26.216667	1	0.365500
26.233333	1	0.372500
26.250000	1	0.379375
26.266667	1	0.386250
26.283333	1	0.392000
26.300000	1	0.397875
26.316667	1	0.402750
26.333333	1	0.406250
26.350000	1	0.409750
26.366667	1	0.411750
26.383333	1	0.413500
26.400000	1	0.413875
26.416667	1	0.413750
26.433333	1	0.413250
26.450000	1	0.411500
26.466667	1	0.408500
26.483333	1	0.404500
26.500000	1	0.399750
26.516667	1	0.394375
26.533333	1	0.388250
26.550000	1	0.381125
26.566667	1	0.373875
26.583333	1	0.366250
26.600000	1	0.357625
26.616667	1	0.348875
26.633333	1	0.340125
26.650000	1	0.331625
26.666667	1	0.323375
26.683333	1	0.314125
26.700000	1	0.306000
26.716667	1	0.297375
26.733333	1	0.289000
26.750000	1	0.279375
26.766667	1	0.271125
26.783333	1	0.263625
26.800000	1	0.256750
26.816667	1	0.250125
26.833333	1	0.244000
26.850000	1	0.238875
26.866667	1	0.233875
26.883333	1	0.229500
26.900000	1	0.226125
26.916667	1	0.223000
26.933333	1	0.220000
26.950000	1	0.217500
26.966667	1	0.217000
26.983333	1	0.217000
27.000000	1	0.216125
27.016667	1	0.217250
27.033333	1	0.218875
27.050000	1	0.220875
27.066667	1	0.223750
27.083333	1	0.226625
27.100000	1	0.230500
27.116667	1	0.235125
27.133333	1	0.240125
27.150000	1	0.246375
27.166667	1	0.252375
27.183333	1	0.260250
27.200000	1	0.267750
27.216667	1	0.276875
27.233333	1	0.287875
27.250000	1	0.299875
27.266667	1	0.314250
27.283333	1	0.330000
27.300000	1	0.348875
27.316667	1	0.370250
27.333333	1	0.396625
27.350000	1	0.426250
27.366667	1	0.461625
27.383333	1	0.502250
27.400000	1	0.549750
27.416667	1	0.604250
27.433333	1	0.667500
27.450000	1	0.739625
27.466667	1	0.822250
27.483333	1	0.915250
27.500000	1	1.018875
27.516667	1	1.134500
27.533333	1	1.261500
27.550000	1	1.400625
27.566667	1	1.551500
27.583333	1	1.713500
27.600000	1	1.885625
27.616667	1	2.066500
27.633333	1	2.254625
27.650000	1	2.449625
27.666667	1	2.648250
27.683333	1	2.848125
27.700000	1	3.047125
27.716667	1	3.241750
27.733333	1	3.428500
27.750000	1	3.606250
27.766667	1	3.771000
27.783333	1	3.919375
27.800000	1	4.048750
27.816667	1	4.157625
27.833333	1	4.244375
27.850000	1	4.306625
27.866667	1	4.343875
27.883333	1	4.355625
27.900000	1	4.340750
27.916667	1	4.302000
27.933333	1	4.238375
27.950000	1	4.152875
27.966667	1	4.046750
27.983333	1	3.921875
28.000000	1	3.781875
28.016667	1	3.628750
28.033333	1	3.466625
28.050000	1	3.296000
28.066667	1	3.120625
28.083333	1	2.942625
28.100000	1	2.764625
28.116667	1	2.588625
28.133333	1	2.416500
28.150000	1	2.249500
28.166667	1	2.089250
28.183333	1	1.936750
28.200000	1	1.792625
28.216667	1	1.656875
28.233333	1	1.529875
28.250000	1	1.411875
28.266667	1	1.301875
28.283333	1	1.200375
28.300000	1	1.108250
28.316667	1	1.023125
28.333333	1	0.945125
28.350000	1	0.875000
28.366667	1	0.812250
28.383333	1	0.755875
28.400000	1	0.705750
28.416667	1	0.662000
28.433333	1	0.622500
28.450000	1	0.588125
28.466667	1	0.558500
28.483333	1	0.532875
28.500000	1	0.511250
28.516667	1	0.493625
28.533333	1	0.479625
28.550000	1	0.468250
28.566667	1	0.460125
28.583333	1	0.454375
28.600000	1	0.451750
28.616667	1	0.450000
28.633333	1	0.450500
28.650000	1	0.452500
28.666667	1	0.456250
28.683333	1	0.460875
28.700000	1	0.466875
28.716667	1	0.474125
28.733333	1	0.481875
28.750000	1	0.489750
28.766667	1	0.497375
28.783333	1	0.505125
28.800000	1	0.513375
28.816667	1	0.521500
28.833333	1	0.528375
28.850000	1	0.535000
28.866667	1	0.541500
28.883333	1	0.546500
28.900000	1	0.551375
28.916667	1	0.555000
28.933333	1	0.556875
28.950000	1	0.557500
28.966667	1	0.556500
28.983333	1	0.555625
29.000000	1	0.552500
29.016667	1	0.548375
29.033333	1	0.543000
29.050000	1	0.535375
29.066667	1	0.526000
29.083333	1	0.515625
29.100000	1	0.503375
29.116667	1	0.489875
29.133333	1	0.473375
29.150000	1	0.455250
29.166667	1	0.434375
29.183333	1	0.412500
29.200000	1	0.388375
29.216667	1	0.362750
29.233333	1	0.333875
29.250000	1	0.302750
29.266667	1	0.269500
29.283333	1	0.233500
29.300000	1	0.195625
29.316667	1	0.155125
29.333333	1	0.111750
29.350000	1	0.066000
29.366667	1	0.018750
29.383333	1	-0.031250
29.400000	1	-0.083125
29.416667	1	-0.135750
29.433333	1	-0.190500
29.450000	1	-0.246375
29.466667	1	-0.303625
29.483333	1	-0.361375
29.500000	1	-0.419375
29.516667	1	-0.476375
29.533333	1	-0.532750
29.550000	1	-0.588250
29.566667	1	-0.642000
29.583333	1	-0.693250
29.600000	1	-0.741500
29.616667	1	-0.787375
29.633333	1	-0.829625
29.650000	1	-0.867875
29.666667	1	-0.902375
29.683333	1	-0.931375
29.700000	1	-0.956500
29.716667	1	-0.976250
29.733333	1	-0.991125
29.750000	1	-1.001125
29.766667	1	-1.005750
29.783333	1	-1.005375
29.800000	1	-1.000500
29.816667	1	-0.990375
29.833333	1	-0.975500
29.850000	1	-0.956750
29.866667	1	-0.934625
29.883333	1	-0.908750
29.900000	1	-0.879500
29.916667	1	-0.848500
29.933333	1	-0.814250
29.950000	1	-0.778500
29.966667	1	-0.741000
29.983333	1	-0.701625
30.000000	1	-0.661750
30.016667	1	-0.622750
30.033333	1	-0.582625
30.050000	1	-0.543000
30.066667	1	-0.503500
30.083333	1	-0.465375
30.100000	1	-0.428375
30.116667	1	-0.391500
30.133333	1	-0.356625
30.150000	1	-0.323000
30.166667	1	-0.291500
30.183333	1	-0.261000
30.200000	1	-0.231750
30.216667	1	-0.204000
30.233333	1	-0.178500
30.250000	1	-0.155000
30.266667	1	-0.133250
30.283333	1	-0.113125
30.300000	1	-0.094500
30.316667	1	-0.077250
30.333333	1	-0.062250
30.350000	1	-0.047625
30.366667	1	-0.034625
30.383333	1	-0.022250
30.400000	1	-0.011625
30.416667	1	-0.002250
30.433333	1	0.006000
30.450000	1	0.013875
30.466667	1	0.020750
30.483333	1	0.027500
30.500000	1	0.033375
30.516667	1	0.039125
30.533333	1	0.044125
30.550000	1	0.048500
30.566667	1	0.053125
30.583333	1	0.058500
30.600000	1	0.063625
30.616667	1	0.068625
30.633333	1	0.073625
30.650000	1	0.078750
30.666667	1	0.084750
30.683333	1	0.091375
30.700000	1	0.098375
30.716667	1	0.105500
30.733333	1	0.113625
30.750000	1	0.121500
30.766667	1	0.130000
30.783333	1	0.139250
30.800000	1	0.148750
30.816667	1	0.158500
30.833333	1	0.169250
30.850000	1	0.179500
30.866667	1	0.191500
30.883333	1	0.204000
30.900000	1	0.217250
30.916667	1	0.231375
30.933333	1	0.246625
30.950000	1	0.263000
30.966667	1	0.280375
30.983333	1	0.299625
31.000000	1	0.320625
31.016667	1	0.344000
31.033333	1	0.369750
31.050000	1	0.398875
31.066667	1	0.431000
31.083333	1	0.468500
31.100000	1	0.509375
31.116667	1	0.556000
31.133333	1	0.606875
31.150000	1	0.665000
31.166667	1	0.729500
31.183333	1	0.802000
31.200000	1	0.882125
31.216667	1	0.970750
31.233333	1	1.067000
31.250000	1	1.172625
31.266667	1	1.286375
31.283333	1	1.408500
31.300000	1	1.539875
31.316667	1	1.678500
31.333333	1	1.823750
31.350000	1	1.974750
31.366667	1	2.131000
31.383333	1	2.290375
31.400000	1	2.452250
31.416667	1	2.614375
31.433333	1	2.775000
31.450000	1	2.932750
31.466667	1	3.085250
31.483333	1	3.229500
31.500000	1	3.365375
31.516667	1	3.489625
31.533333	1	3.602250
31.550000	1	3.700875
31.566667	1	3.784625
31.583333	1	3.851500
31.600000	1	3.901875
31.616667	1	3.935375
31.633333	1	3.951625
31.650000	1	3.950000
31.666667	1	3.932000
31.683333	1	3.895500
31.700000	1	3.844875
31.716667	1	3.780250
31.733333	1	3.701750
31.750000	1	3.610625
31.766667	1	3.509000
31.783333	1	3.398000
31.800000	1	3.279500
31.816667	1	3.154375
31.833333	1	3.024500
31.850000	1	2.891125
31.866667	1	2.755000
31.883333	1	2.618250
31.900000	1	2.481875
31.916667	1	2.346125
31.933333	1	2.212875
31.950000	1	2.082500
31.966667	1	1.956000
31.983333	1	1.833375
32.000000	1	1.715125
32.016667	1	1.600375
32.033333	1	1.491250
32.050000	1	1.386750
32.066667	1	1.287500
32.083333	1	1.194125
32.100000	1	1.105375
32.116667	1	1.021500
32.133333	1	0.943250
32.150000	1	0.869125
32.166667	1	0.799375
32.183333	1	0.733375
32.200000	1	0.672750
32.216667	1	0.615375
32.233333	1	0.562000
32.250000	1	0.512750
32.266667	1	0.466250
32.283333	1	0.423250
32.300000	1	0.383000
32.316667	1	0.345875
32.333333	1	0.311875
32.350000	1	0.281000
32.366667	1	0.251500
32.383333	1	0.224375
32.400000	1	0.199250
32.416667	1	0.176875
32.433333	1	0.156500
32.450000	1	0.137125
32.466667	1	0.119375
32.483333	1	0.103375
32.500000	1	0.089125
32.516667	1	0.076375
32.533333	1	0.064375
32.550000	1	0.053375
32.566667	1	0.043375
32.583333	1	0.033750
32.600000	1	0.025625
32.616667	1	0.018250
32.633333	1	0.012500
32.650000	1	0.006625
32.666667	1	0.001125
32.683333	1	-0.003875
32.700000	1	-0.007375
32.716667	1	-0.010000
32.733333	1	-0.012625
32.750000	1	-0.015000
32.766667	1	-0.017125
32.783333	1	-0.018625
32.800000	1	-0.019750
32.816667	1	-0.020250
32.833333	1	-0.020000
32.850000	1	-0.020500
32.866667	1	-0.020125
32.883333	1	-0.019875
32.900000	1	-0.019000
32.916667	1	-0.018875
32.933333	1	-0.018125
32.950000	1	-0.017000
32.966667	1	-0.015625
32.983333	1	-0.014250
33.000000	1	-0.013375
33.016667	1	-0.011750
33.033333	1	-0.010625
33.050000	1	-0.009375
33.066667	1	-0.008750
33.083333	1	-0.007125
33.100000	1	-0.005875
33.116667	1	-0.004625
33.133333	1	-0.003750
33.150000	1	-0.002625
33.166667	1	-0.001500
33.183333	1	-0.000750
33.200000	1	-0.000375
33.216667	1	0.001250
33.233333	1	0.001500
33.250000	1	0.001875
33.266667	1	0.002000
33.283333	1	0.001750
33.300000	1	0.002375
33.316667	1	0.003000
33.333333	1	0.003250
33.350000	1	0.004250
33.366667	1	0.005000
33.383333	1	0.005625
33.400000	1	0.006125
33.416667	1	0.006875
33.433333	1	0.008375
33.450000	1	0.009125
33.466667	1	0.010375
33.483333	1	0.010750
33.500000	1	0.011625
33.516667	1	0.013500
33.533333	1	0.014625
33.550000	1	0.015875
33.566667	1	0.017250
33.583333	1	0.018625
33.600000	1	0.020875
33.616667	1	0.022375
33.633333	1	0.024000
33.650000	1	0.026125
33.666667	1	0.027500
33.683333	1	0.030125
33.700000	1	0.032000
33.716667	1	0.034000
33.733333	1	0.036375
33.750000	1	0.038375
33.766667	1	0.040625
33.783333	1	0.043125
33.800000	1	0.045250
33.816667	1	0.047625
33.833333	1	0.049375
33.850000	1	0.051875
33.866667	1	0.054125
33.883333	1	0.056125
33.900000	1	0.057750
33.916667	1	0.059500
33.933333	1	0.060750
33.950000	1	0.063625
33.966667	1	0.065250
33.983333	1	0.067500
34.000000	1	0.070125
34.016667	1	0.071875
34.033333	1	0.072875
34.050000	1	0.074375
34.066667	1	0.075625
34.083333	1	0.076500
34.100000	1	0.077500
34.116667	1	0.077875
34.133333	1	0.078875
34.150000	1	0.079250
34.166667	1	0.079625
34.183333	1	0.079500
34.200000	1	0.079375
34.216667	1	0.079125
34.233333	1	0.078250
34.250000	1	0.078000
34.266667	1	0.077375
34.283333	1	0.076375
34.300000	1	0.075875
34.316667	1	0.074750
34.333333	1	0.073875
34.350000	1	0.073125
34.366667	1	0.072500
34.383333	1	0.071500
34.400000	1	0.070625
34.416667	1	0.069875
34.433333	1	0.069375
34.450000	1	0.068750
34.466667	1	0.067625
34.483333	1	0.067750
34.500000	1	0.067500
34.516667	1	0.068250
34.533333	1	0.068500
34.550000	1	0.069375
34.566667	1	0.069750
34.583333	1	0.070250
34.600000	1	0.071500
34.616667	1	0.073125
34.633333	1	0.074375
34.650000	1	0.076375
34.666667	1	0.078250
34.683333	1	0.079500
34.700000	1	0.081500
34.716667	1	0.084375
34.733333	1	0.085875
34.750000	1	0.088000
34.766667	1	0.090000
34.783333	1	0.091750
34.800000	1	0.094375
34.816667	1	0.095375
34.833333	1	0.097250
34.850000	1	0.099000
34.866667	1	0.101250
34.883333	1	0.102375
34.900000	1	0.103750
34.916667	1	0.104500
34.933333	1	0.105500
34.950000	1	0.105500
34.966667	1	0.106375
34.983333	1	0.106375
35.000000	1	0.106000
35.016667	1	0.105375
35.033333	1	0.104125
35.050000	1	0.103875
35.066667	1	0.102875
35.083333	1	0.101750
35.100000	1	0.100125
35.116667	1	0.098750
35.133333	1	0.097375
35.150000	1	0.095500
35.166667	1	0.093750
35.183333	1	0.092000
35.200000	1	0.089750
35.216667	1	0.087875
35.233333	1	0.086125
35.250000	1	0.084500
35.266667	1	0.082500
35.283333	1	0.081250
35.300000	1	0.079625
35.316667	1	0.078375
35.333333	1	0.076875
35.350000	1	0.076000
35.366667	1	0.074875
35.383333	1	0.074000
35.400000	1	0.073500
35.416667	1	0.073375
35.433333	1	0.072375
35.450000	1	0.071375
35.466667	1	0.071625
35.483333	1	0.071000
35.500000	1	0.070875
35.516667	1	0.071500
35.533333	1	0.072750
35.550000	1	0.073250
35.566667	1	0.073875
35.583333	1	0.074750
35.600000	1	0.075875
35.616667	1	0.077000
35.633333	1	0.078125
35.650000	1	0.078875
35.666667	1	0.080875
35.683333	1	0.082250
35.700000	1	0.083750
35.716667	1	0.084875
35.733333	1	0.086750
35.750000	1	0.088750
35.766667	1	0.091125
35.783333	1	0.092750
35.800000	1	0.094500
35.816667	1	0.096500
35.833333	1	0.098500
35.850000	1	0.099750
35.866667	1	0.101250
35.883333	1	0.103000
35.900000	1	0.104000
35.916667	1	0.105250
35.933333	1	0.106500
35.950000	1	0.107500
35.966667	1	0.108625
35.983333	1	0.109000
36.000000	1	0.109750
36.016667	1	0.110625
36.033333	1	0.110375
36.050000	1	0.110125
36.066667	1	0.110375
36.083333	1	0.110625
36.100000	1	0.110125
36.116667	1	0.109625
36.133333	1	0.108750
36.150000	1	0.107875
36.166667	1	0.107375
36.183333	1	0.106250
36.200000	1	0.105625
36.216667	1	0.104500
36.233333	1	0.103375
36.250000	1	0.101625
36.266667	1	0.099750
36.283333	1	0.098625
36.300000	1	0.097375
36.316667	1	0.096125
36.333333	1	0.094500
36.350000	1	0.092875
36.366667	1	0.092375
36.383333	1	0.091125
36.400000	1	0.090125
36.416667	1	0.090250
36.433333	1	0.089000
36.450000	1	0.087625
36.466667	1	0.087125
36.483333	1	0.086500
36.500000	1	0.086000
36.516667	1	0.084750
36.533333	1	0.084000
36.550000	1	0.084125
36.566667	1	0.083000
36.583333	1	0.082625
36.600000	1	0.081125
36.616667	1	0.080500
36.633333	1	0.079375
36.650000	1	0.078500
36.666667	1	0.077375
36.683333	1	0.076375
36.700000	1	0.075000
36.716667	1	0.074125
36.733333	1	0.072750
36.750000	1	0.071625
36.766667	1	0.070125
36.783333	1	0.068750
36.800000	1	0.067500
36.816667	1	0.066625
36.833333	1	0.065125
36.850000	1	0.063500
36.866667	1	0.062125
36.883333	1	0.061250
36.900000	1	0.060625
36.916667	1	0.059625
36.933333	1	0.059500
36.950000	1	0.059000
36.966667	1	0.058750
36.983333	1	0.059125
37.000000	1	0.059000
37.016667	1	0.058500
37.033333	1	0.059500
37.050000	1	0.060000
37.066667	1	0.061000
37.083333	1	0.061750
37.100000	1	0.062625
37.116667	1	0.064125
37.133333	1	0.065625
37.150000	1	0.066625
37.166667	1	0.067750
37.183333	1	0.069375
37.200000	1	0.070500
37.216667	1	0.071375
37.233333	1	0.072875
37.250000	1	0.074000
37.266667	1	0.074750
37.283333	1	0.075625
37.300000	1	0.077000
37.316667	1	0.078000
37.333333	1	0.079000
37.350000	1	0.079125
37.366667	1	0.079000
37.383333	1	0.079625
37.400000	1	0.079875
37.416667	1	0.079625
37.433333	1	0.079625
37.450000	1	0.079750
37.466667	1	0.079625
37.483333	1	0.078750
37.500000	1	0.078875
37.516667	1	0.078375
37.533333	1	0.077875
37.550000	1	0.076500
37.566667	1	0.075000
37.583333	1	0.073250
37.600000	1	0.071375
37.616667	1	0.069875
37.633333	1	0.068500
37.650000	1	0.066750
37.666667	1	0.064625
37.683333	1	0.062250
37.700000	1	0.060125
37.716667	1	0.057750
37.733333	1	0.054750
37.750000	1	0.051875
37.766667	1	0.049500
37.783333	1	0.046875
37.800000	1	0.044375
37.816667	1	0.041875
37.833333	1	0.038750
37.850000	1	0.035500
37.866667	1	0.032875
37.883333	1	0.030375
37.900000	1	0.027625
37.916667	1	0.024625
37.933333	1	0.022375
37.950000	1	0.019625
37.966667	1	0.016625
37.983333	1	0.014500
38.000000	1	0.011875
38.016667	1	0.010750
38.033333	1	0.009000
38.050000	1	0.007875
38.066667	1	0.006375
38.083333	1	0.005500
38.100000	1	0.004000
38.116667	1	0.003125
38.133333	1	0.002625
38.150000	1	0.002500
38.166667	1	0.002500
38.183333	1	0.001750
38.200000	1	0.001250
38.216667	1	0.001125
38.233333	1	0.001375
38.250000	1	0.001125
38.266667	1	0.000875
38.283333	1	0.000875
38.300000	1	0.000375
38.316667	1	0.000000
38.333333	1	-0.000250
38.350000	1	-0.000500
38.366667	1	-0.000500
38.383333	1	-0.000875
38.400000	1	-0.001625
38.416667	1	-0.001875
38.433333	1	-0.002125
38.450000	1	-0.002625
38.466667	1	-0.002750
38.483333	1	-0.002875
38.500000	1	-0.003250
38.516667	1	-0.004000
38.533333	1	-0.004375
38.550000	1	-0.005375
38.566667	1	-0.005750
38.583333	1	-0.006500
38.600000	1	-0.007000
38.616667	1	-0.007750
38.633333	1	-0.008625
38.650000	1	-0.008875
38.666667	1	-0.009125
38.683333	1	-0.009500
38.700000	1	-0.010125
38.716667	1	-0.009625
38.733333	1	-0.009875
38.750000	1	-0.009875
38.766667	1	-0.010375
38.783333	1	-0.009750
38.800000	1	-0.009500
38.816667	1	-0.009500
38.833333	1	-0.009250
38.850000	1	-0.009250
38.866667	1	-0.008750
38.883333	1	-0.007625
38.900000	1	-0.006625
38.916667	1	-0.005125
38.933333	1	-0.004625
38.950000	1	-0.004125
38.966667	1	-0.003250
38.983333	1	-0.001875
39.000000	1	-0.000750
39.016667	1	0.000125
39.033333	1	0.001375
39.050000	1	0.001125
39.066667	1	0.002500
39.083333	1	0.003375
39.100000	1	0.004625
39.116667	1	0.006250
39.133333	1	0.008000
39.150000	1	0.009000
39.166667	1	0.009375
39.183333	1	0.010750
39.200000	1	0.011750
39.216667	1	0.013125
39.233333	1	0.013375
39.250000	1	0.014500
39.266667	1	0.015750
39.283333	1	0.017000
39.300000	1	0.017250
39.316667	1	0.018000
39.333333	1	0.018625
39.350000	1	0.018875
39.366667	1	0.019250
39.383333	1	0.019125
39.400000	1	0.018875
39.416667	1	0.017625
39.433333	1	0.017250
39.450000	1	0.017125
39.466667	1	0.016000
39.483333	1	0.014875
39.500000	1	0.014625
39.516667	1	0.013750
39.533333	1	0.012000
39.550000	1	0.010250
39.566667	1	0.008625
39.583333	1	0.007125
39.600000	1	0.005375
39.616667	1	0.004000
39.633333	1	0.002500
39.650000	1	0.001250
39.666667	1	-0.000625
39.683333	1	-0.002375
39.700000	1	-0.004625
39.716667	1	-0.006125
39.733333	1	-0.007875
39.750000	1	-0.009125
39.766667	1	-0.010875
39.783333	1	-0.012500
39.800000	1	-0.013875
39.816667	1	-0.015250
39.833333	1	-0.016125
39.850000	1	-0.017000
39.866667	1	-0.017750
39.883333	1	-0.018000
39.900000	1	-0.018750
39.916667	1	-0.019250
39.933333	1	-0.019625
39.950000	1	-0.020125
39.966667	1	-0.020500
39.983333	1	-0.020375
40.000000	1	-0.020625
