URL	chrom://7040-86g6c92/XVault/Ultimate_3000/20/20240517_CMO_FP23_FP25_MarkusDeplate.seq/523.smp/RI_1.channel/RI_1.chm
Channel	RI_1

Injection Information:
Data Vault	XVault
Sequence	20240517_CMO_FP23_FP25_MarkusDeplate
Name	FP25_22.2_s3
Number	81
Position	BG9
Comment	
Processing Method	
Instrument Method	run_25B_method
Type	Unknown
Status	Finished
Inject Time	30.05.2024 01:20:47 +02:00
Volume (µl)	20.0000
Dilution Factor	1.0000
Weight	1.0000

Chromatogram Data Information:
Time Min. (min)	0.000000
Time Max. (min)	40.000000
Data Points	2401
Detector	RI
Generating Data System	Chromeleon 7.3.2.11814
Exporting Data System	Chromeleon 7.3.2.0
Operator	Instrument Controller
Signal Quantity	Refractive 
Signal Unit	µRIU
Signal Min.	-0.966500
Signal Max.	59.623250
Channel	RI_1
Driver Name	RID520Driver.dll
Channel Type	Evaluation
Min. Step (s)	1
Max. Step (s)	1
Average Step (s)	1

Signal Parameter Information:
Signal Info	

Chromatogram Data:
Time (min)	Step (s)	Value (µRIU)
0.000000	n.a.	-0.046000
0.016667	1	-0.049375
0.033333	1	-0.051500
0.050000	1	-0.053875
0.066667	1	-0.055375
0.083333	1	-0.057000
0.100000	1	-0.058375
0.116667	1	-0.059875
0.133333	1	-0.060875
0.150000	1	-0.062250
0.166667	1	-0.063250
0.183333	1	-0.064250
0.200000	1	-0.065250
0.216667	1	-0.065750
0.233333	1	-0.066000
0.250000	1	-0.066000
0.266667	1	-0.066125
0.283333	1	-0.065250
0.300000	1	-0.064250
0.316667	1	-0.063625
0.333333	1	-0.062625
0.350000	1	-0.062375
0.366667	1	-0.061625
0.383333	1	-0.061375
0.400000	1	-0.060500
0.416667	1	-0.059000
0.433333	1	-0.056000
0.450000	1	-0.052500
0.466667	1	-0.049000
0.483333	1	-0.046250
0.500000	1	-0.044125
0.516667	1	-0.041250
0.533333	1	-0.038625
0.550000	1	-0.037250
0.566667	1	-0.037000
0.583333	1	-0.036750
0.600000	1	-0.037500
0.616667	1	-0.037875
0.633333	1	-0.038125
0.650000	1	-0.038500
0.666667	1	-0.037625
0.683333	1	-0.036375
0.700000	1	-0.035125
0.716667	1	-0.033375
0.733333	1	-0.032250
0.750000	1	-0.031500
0.766667	1	-0.030375
0.783333	1	-0.028875
0.800000	1	-0.028000
0.816667	1	-0.026875
0.833333	1	-0.026250
0.850000	1	-0.025125
0.866667	1	-0.024750
0.883333	1	-0.023625
0.900000	1	-0.023000
0.916667	1	-0.023625
0.933333	1	-0.023125
0.950000	1	-0.022625
0.966667	1	-0.023125
0.983333	1	-0.023750
1.000000	1	-0.024000
1.016667	1	-0.024250
1.033333	1	-0.024375
1.050000	1	-0.024500
1.066667	1	-0.024875
1.083333	1	-0.026000
1.100000	1	-0.026375
1.116667	1	-0.027250
1.133333	1	-0.027875
1.150000	1	-0.028875
1.166667	1	-0.029125
1.183333	1	-0.029625
1.200000	1	-0.030000
1.216667	1	-0.030125
1.233333	1	-0.030375
1.250000	1	-0.031625
1.266667	1	-0.031375
1.283333	1	-0.031375
1.300000	1	-0.031375
1.316667	1	-0.030750
1.333333	1	-0.030875
1.350000	1	-0.030125
1.366667	1	-0.029625
1.383333	1	-0.028875
1.400000	1	-0.028625
1.416667	1	-0.028250
1.433333	1	-0.027375
1.450000	1	-0.026250
1.466667	1	-0.024875
1.483333	1	-0.023625
1.500000	1	-0.022500
1.516667	1	-0.020750
1.533333	1	-0.019625
1.550000	1	-0.018500
1.566667	1	-0.017625
1.583333	1	-0.016500
1.600000	1	-0.015125
1.616667	1	-0.014000
1.633333	1	-0.013375
1.650000	1	-0.012500
1.666667	1	-0.011625
1.683333	1	-0.011125
1.700000	1	-0.010875
1.716667	1	-0.010500
1.733333	1	-0.010500
1.750000	1	-0.011000
1.766667	1	-0.011125
1.783333	1	-0.011250
1.800000	1	-0.012125
1.816667	1	-0.012375
1.833333	1	-0.012375
1.850000	1	-0.013250
1.866667	1	-0.014125
1.883333	1	-0.015250
1.900000	1	-0.016500
1.916667	1	-0.018000
1.933333	1	-0.018750
1.950000	1	-0.020125
1.966667	1	-0.021375
1.983333	1	-0.023000
2.000000	1	-0.023375
2.016667	1	-0.024250
2.033333	1	-0.025375
2.050000	1	-0.026750
2.066667	1	-0.027500
2.083333	1	-0.028625
2.100000	1	-0.029750
2.116667	1	-0.030500
2.133333	1	-0.031000
2.150000	1	-0.031750
2.166667	1	-0.032000
2.183333	1	-0.032750
2.200000	1	-0.033000
2.216667	1	-0.032875
2.233333	1	-0.032750
2.250000	1	-0.032250
2.266667	1	-0.032375
2.283333	1	-0.032750
2.300000	1	-0.032000
2.316667	1	-0.032000
2.333333	1	-0.032250
2.350000	1	-0.031875
2.366667	1	-0.031875
2.383333	1	-0.032125
2.400000	1	-0.031625
2.416667	1	-0.031875
2.433333	1	-0.031250
2.450000	1	-0.032000
2.466667	1	-0.032250
2.483333	1	-0.032625
2.500000	1	-0.033250
2.516667	1	-0.033750
2.533333	1	-0.034375
2.550000	1	-0.035000
2.566667	1	-0.035625
2.583333	1	-0.036250
2.600000	1	-0.037375
2.616667	1	-0.038250
2.633333	1	-0.039000
2.650000	1	-0.039250
2.666667	1	-0.039750
2.683333	1	-0.040250
2.700000	1	-0.040875
2.716667	1	-0.042000
2.733333	1	-0.043125
2.750000	1	-0.042875
2.766667	1	-0.043625
2.783333	1	-0.043375
2.800000	1	-0.043500
2.816667	1	-0.043875
2.833333	1	-0.043625
2.850000	1	-0.043375
2.866667	1	-0.043500
2.883333	1	-0.043375
2.900000	1	-0.042750
2.916667	1	-0.042250
2.933333	1	-0.042500
2.950000	1	-0.042000
2.966667	1	-0.041625
2.983333	1	-0.041500
3.000000	1	-0.041250
3.016667	1	-0.040500
3.033333	1	-0.040500
3.050000	1	-0.040500
3.066667	1	-0.040250
3.083333	1	-0.039750
3.100000	1	-0.039750
3.116667	1	-0.040000
3.133333	1	-0.040000
3.150000	1	-0.039500
3.166667	1	-0.039875
3.183333	1	-0.040125
3.200000	1	-0.040250
3.216667	1	-0.041250
3.233333	1	-0.041875
3.250000	1	-0.041625
3.266667	1	-0.041000
3.283333	1	-0.041125
3.300000	1	-0.041500
3.316667	1	-0.040375
3.333333	1	-0.040000
3.350000	1	-0.039625
3.366667	1	-0.038625
3.383333	1	-0.038375
3.400000	1	-0.037125
3.416667	1	-0.035750
3.433333	1	-0.034000
3.450000	1	-0.032500
3.466667	1	-0.030750
3.483333	1	-0.028125
3.500000	1	-0.025875
3.516667	1	-0.023250
3.533333	1	-0.021000
3.550000	1	-0.018250
3.566667	1	-0.015750
3.583333	1	-0.013375
3.600000	1	-0.011125
3.616667	1	-0.007875
3.633333	1	-0.005500
3.650000	1	-0.003000
3.666667	1	-0.000125
3.683333	1	0.001750
3.700000	1	0.004500
3.716667	1	0.007375
3.733333	1	0.009250
3.750000	1	0.010750
3.766667	1	0.013250
3.783333	1	0.014750
3.800000	1	0.016125
3.816667	1	0.017250
3.833333	1	0.018125
3.850000	1	0.018625
3.866667	1	0.019375
3.883333	1	0.019125
3.900000	1	0.019125
3.916667	1	0.018625
3.933333	1	0.017875
3.950000	1	0.017125
3.966667	1	0.016500
3.983333	1	0.015625
4.000000	1	0.014875
4.016667	1	0.014000
4.033333	1	0.012500
4.050000	1	0.010500
4.066667	1	0.009000
4.083333	1	0.006875
4.100000	1	0.005250
4.116667	1	0.003375
4.133333	1	0.001625
4.150000	1	0.000750
4.166667	1	-0.001000
4.183333	1	-0.002000
4.200000	1	-0.004125
4.216667	1	-0.005250
4.233333	1	-0.006500
4.250000	1	-0.007500
4.266667	1	-0.009500
4.283333	1	-0.010250
4.300000	1	-0.012000
4.316667	1	-0.012875
4.333333	1	-0.014750
4.350000	1	-0.015625
4.366667	1	-0.016500
4.383333	1	-0.016875
4.400000	1	-0.017750
4.416667	1	-0.018500
4.433333	1	-0.019000
4.450000	1	-0.019625
4.466667	1	-0.019750
4.483333	1	-0.019750
4.500000	1	-0.019000
4.516667	1	-0.019250
4.533333	1	-0.018625
4.550000	1	-0.018125
4.566667	1	-0.017875
4.583333	1	-0.016875
4.600000	1	-0.016125
4.616667	1	-0.015125
4.633333	1	-0.013625
4.650000	1	-0.013000
4.666667	1	-0.011500
4.683333	1	-0.009750
4.700000	1	-0.008500
4.716667	1	-0.006625
4.733333	1	-0.004250
4.750000	1	-0.002375
4.766667	1	-0.000625
4.783333	1	0.001250
4.800000	1	0.003875
4.816667	1	0.007000
4.833333	1	0.008750
4.850000	1	0.010875
4.866667	1	0.013250
4.883333	1	0.016125
4.900000	1	0.018875
4.916667	1	0.022125
4.933333	1	0.024500
4.950000	1	0.027125
4.966667	1	0.029625
4.983333	1	0.032875
5.000000	1	0.035625
5.016667	1	0.039125
5.033333	1	0.041250
5.050000	1	0.043750
5.066667	1	0.046625
5.083333	1	0.050250
5.100000	1	0.053875
5.116667	1	0.056625
5.133333	1	0.060375
5.150000	1	0.063250
5.166667	1	0.067000
5.183333	1	0.071375
5.200000	1	0.076000
5.216667	1	0.079375
5.233333	1	0.083500
5.250000	1	0.087500
5.266667	1	0.091375
5.283333	1	0.095750
5.300000	1	0.100250
5.316667	1	0.104125
5.333333	1	0.108875
5.350000	1	0.113375
5.366667	1	0.118500
5.383333	1	0.123250
5.400000	1	0.128625
5.416667	1	0.132875
5.433333	1	0.137750
5.450000	1	0.142500
5.466667	1	0.147375
5.483333	1	0.152375
5.500000	1	0.156750
5.516667	1	0.160500
5.533333	1	0.164875
5.550000	1	0.169375
5.566667	1	0.174375
5.583333	1	0.179125
5.600000	1	0.183375
5.616667	1	0.188000
5.633333	1	0.191625
5.650000	1	0.195250
5.666667	1	0.198875
5.683333	1	0.202000
5.700000	1	0.204625
5.716667	1	0.207875
5.733333	1	0.210500
5.750000	1	0.212625
5.766667	1	0.214750
5.783333	1	0.217000
5.800000	1	0.218375
5.816667	1	0.219375
5.833333	1	0.220250
5.850000	1	0.220500
5.866667	1	0.220500
5.883333	1	0.220750
5.900000	1	0.220625
5.916667	1	0.220125
5.933333	1	0.218875
5.950000	1	0.217750
5.966667	1	0.217250
5.983333	1	0.215000
6.000000	1	0.213500
6.016667	1	0.211750
6.033333	1	0.209625
6.050000	1	0.207750
6.066667	1	0.205375
6.083333	1	0.202000
6.100000	1	0.200125
6.116667	1	0.197375
6.133333	1	0.195000
6.150000	1	0.192625
6.166667	1	0.189750
6.183333	1	0.187375
6.200000	1	0.185125
6.216667	1	0.182875
6.233333	1	0.179750
6.250000	1	0.177375
6.266667	1	0.174875
6.283333	1	0.172375
6.300000	1	0.170125
6.316667	1	0.167250
6.333333	1	0.163625
6.350000	1	0.160750
6.366667	1	0.157125
6.383333	1	0.154500
6.400000	1	0.151250
6.416667	1	0.148750
6.433333	1	0.145125
6.450000	1	0.141625
6.466667	1	0.137500
6.483333	1	0.134000
6.500000	1	0.130000
6.516667	1	0.125875
6.533333	1	0.121875
6.550000	1	0.117500
6.566667	1	0.113625
6.583333	1	0.110125
6.600000	1	0.106125
6.616667	1	0.102250
6.633333	1	0.098000
6.650000	1	0.093250
6.666667	1	0.089875
6.683333	1	0.086125
6.700000	1	0.082125
6.716667	1	0.078125
6.733333	1	0.074750
6.750000	1	0.071250
6.766667	1	0.068375
6.783333	1	0.065500
6.800000	1	0.063375
6.816667	1	0.061250
6.833333	1	0.058875
6.850000	1	0.057000
6.866667	1	0.055125
6.883333	1	0.052875
6.900000	1	0.052375
6.916667	1	0.051375
6.933333	1	0.051375
6.950000	1	0.051500
6.966667	1	0.051000
6.983333	1	0.051500
7.000000	1	0.051000
7.016667	1	0.052125
7.033333	1	0.052750
7.050000	1	0.053625
7.066667	1	0.054500
7.083333	1	0.055500
7.100000	1	0.056250
7.116667	1	0.057875
7.133333	1	0.059250
7.150000	1	0.061250
7.166667	1	0.063625
7.183333	1	0.066125
7.200000	1	0.067750
7.216667	1	0.069625
7.233333	1	0.072250
7.250000	1	0.075000
7.266667	1	0.077375
7.283333	1	0.080375
7.300000	1	0.083875
7.316667	1	0.086500
7.333333	1	0.089375
7.350000	1	0.092125
7.366667	1	0.095125
7.383333	1	0.098125
7.400000	1	0.100750
7.416667	1	0.103625
7.433333	1	0.106250
7.450000	1	0.108250
7.466667	1	0.111125
7.483333	1	0.112500
7.500000	1	0.115500
7.516667	1	0.117125
7.533333	1	0.119000
7.550000	1	0.120625
7.566667	1	0.121500
7.583333	1	0.123000
7.600000	1	0.123500
7.616667	1	0.123375
7.633333	1	0.122625
7.650000	1	0.122750
7.666667	1	0.121750
7.683333	1	0.120625
7.700000	1	0.120000
7.716667	1	0.118625
7.733333	1	0.117250
7.750000	1	0.115625
7.766667	1	0.113250
7.783333	1	0.111625
7.800000	1	0.109125
7.816667	1	0.106875
7.833333	1	0.103750
7.850000	1	0.101125
7.866667	1	0.098250
7.883333	1	0.095375
7.900000	1	0.092375
7.916667	1	0.089250
7.933333	1	0.086250
7.950000	1	0.083625
7.966667	1	0.080500
7.983333	1	0.077250
8.000000	1	0.073375
8.016667	1	0.069750
8.033333	1	0.067125
8.050000	1	0.064625
8.066667	1	0.061625
8.083333	1	0.058375
8.100000	1	0.055500
8.116667	1	0.053125
8.133333	1	0.050375
8.150000	1	0.047250
8.166667	1	0.044875
8.183333	1	0.042125
8.200000	1	0.039625
8.216667	1	0.037250
8.233333	1	0.035125
8.250000	1	0.033250
8.266667	1	0.031375
8.283333	1	0.029750
8.300000	1	0.028125
8.316667	1	0.026375
8.333333	1	0.025375
8.350000	1	0.024375
8.366667	1	0.023125
8.383333	1	0.021875
8.400000	1	0.020625
8.416667	1	0.019875
8.433333	1	0.019375
8.450000	1	0.018375
8.466667	1	0.017875
8.483333	1	0.017500
8.500000	1	0.016375
8.516667	1	0.016250
8.533333	1	0.016250
8.550000	1	0.015625
8.566667	1	0.015125
8.583333	1	0.014625
8.600000	1	0.015375
8.616667	1	0.015875
8.633333	1	0.015875
8.650000	1	0.015875
8.666667	1	0.016500
8.683333	1	0.017125
8.700000	1	0.017125
8.716667	1	0.017750
8.733333	1	0.018125
8.750000	1	0.018375
8.766667	1	0.019250
8.783333	1	0.020000
8.800000	1	0.020375
8.816667	1	0.020750
8.833333	1	0.021125
8.850000	1	0.021250
8.866667	1	0.022250
8.883333	1	0.023000
8.900000	1	0.024125
8.916667	1	0.025375
8.933333	1	0.025875
8.950000	1	0.026125
8.966667	1	0.027125
8.983333	1	0.028000
9.000000	1	0.028125
9.016667	1	0.028375
9.033333	1	0.028625
9.050000	1	0.028875
9.066667	1	0.029375
9.083333	1	0.029500
9.100000	1	0.029750
9.116667	1	0.029750
9.133333	1	0.030000
9.150000	1	0.030125
9.166667	1	0.030375
9.183333	1	0.029500
9.200000	1	0.029000
9.216667	1	0.028625
9.233333	1	0.027750
9.250000	1	0.027250
9.266667	1	0.026375
9.283333	1	0.025625
9.300000	1	0.024500
9.316667	1	0.023500
9.333333	1	0.022625
9.350000	1	0.021375
9.366667	1	0.019875
9.383333	1	0.018625
9.400000	1	0.017500
9.416667	1	0.016625
9.433333	1	0.014625
9.450000	1	0.013875
9.466667	1	0.012500
9.483333	1	0.010625
9.500000	1	0.009500
9.516667	1	0.007750
9.533333	1	0.006500
9.550000	1	0.005000
9.566667	1	0.003125
9.583333	1	0.001750
9.600000	1	0.000250
9.616667	1	-0.001125
9.633333	1	-0.002750
9.650000	1	-0.004000
9.666667	1	-0.005750
9.683333	1	-0.007000
9.700000	1	-0.007625
9.716667	1	-0.008625
9.733333	1	-0.010500
9.750000	1	-0.011750
9.766667	1	-0.012125
9.783333	1	-0.013500
9.800000	1	-0.013875
9.816667	1	-0.014625
9.833333	1	-0.015000
9.850000	1	-0.015125
9.866667	1	-0.015125
9.883333	1	-0.014625
9.900000	1	-0.013625
9.916667	1	-0.013000
9.933333	1	-0.013125
9.950000	1	-0.011125
9.966667	1	-0.009500
9.983333	1	-0.007250
10.000000	1	-0.005375
10.016667	1	-0.002375
10.033333	1	0.000500
10.050000	1	0.004375
10.066667	1	0.008625
10.083333	1	0.012625
10.100000	1	0.017250
10.116667	1	0.023375
10.133333	1	0.029500
10.150000	1	0.035875
10.166667	1	0.042750
10.183333	1	0.051250
10.200000	1	0.061375
10.216667	1	0.072250
10.233333	1	0.085000
10.250000	1	0.100125
10.266667	1	0.117125
10.283333	1	0.136125
10.300000	1	0.158250
10.316667	1	0.183500
10.333333	1	0.211875
10.350000	1	0.244125
10.366667	1	0.279125
10.383333	1	0.315500
10.400000	1	0.351250
10.416667	1	0.382000
10.433333	1	0.399250
10.450000	1	0.393375
10.466667	1	0.357750
10.483333	1	0.292500
10.500000	1	0.216000
10.516667	1	0.165500
10.533333	1	0.201750
10.550000	1	0.405000
10.566667	1	0.865000
10.583333	1	1.672000
10.600000	1	2.903625
10.616667	1	4.623500
10.633333	1	6.870625
10.650000	1	9.666500
10.666667	1	13.016625
10.683333	1	16.904000
10.700000	1	21.284625
10.716667	1	26.079625
10.733333	1	31.163500
10.750000	1	36.349125
10.766667	1	41.366375
10.783333	1	45.868250
10.800000	1	49.444125
10.816667	1	51.682000
10.833333	1	52.277625
10.850000	1	51.132125
10.866667	1	48.393500
10.883333	1	44.421875
10.900000	1	39.691375
10.916667	1	34.670250
10.933333	1	29.736000
10.950000	1	25.144750
10.966667	1	21.041625
10.983333	1	17.483000
11.000000	1	14.470500
11.016667	1	11.967625
11.033333	1	9.923375
11.050000	1	8.271250
11.066667	1	6.947500
11.083333	1	5.890750
11.100000	1	5.049250
11.116667	1	4.377750
11.133333	1	3.840500
11.150000	1	3.406875
11.166667	1	3.055375
11.183333	1	2.767125
11.200000	1	2.528625
11.216667	1	2.329375
11.233333	1	2.160625
11.250000	1	2.016625
11.266667	1	1.893625
11.283333	1	1.787750
11.300000	1	1.694000
11.316667	1	1.612750
11.333333	1	1.540875
11.350000	1	1.477250
11.366667	1	1.421750
11.383333	1	1.372000
11.400000	1	1.328500
11.416667	1	1.288875
11.433333	1	1.253250
11.450000	1	1.221250
11.466667	1	1.192375
11.483333	1	1.165875
11.500000	1	1.142125
11.516667	1	1.120375
11.533333	1	1.101000
11.550000	1	1.083625
11.566667	1	1.067625
11.583333	1	1.052250
11.600000	1	1.040000
11.616667	1	1.028625
11.633333	1	1.018750
11.650000	1	1.010625
11.666667	1	1.004500
11.683333	1	1.000250
11.700000	1	0.997875
11.716667	1	0.996625
11.733333	1	0.996750
11.750000	1	0.998750
11.766667	1	1.002000
11.783333	1	1.006875
11.800000	1	1.012125
11.816667	1	1.017000
11.833333	1	1.022125
11.850000	1	1.028250
11.866667	1	1.034625
11.883333	1	1.040250
11.900000	1	1.045625
11.916667	1	1.050250
11.933333	1	1.054750
11.950000	1	1.059750
11.966667	1	1.065375
11.983333	1	1.070500
12.000000	1	1.077125
12.016667	1	1.083625
12.033333	1	1.090250
12.050000	1	1.097375
12.066667	1	1.104875
12.083333	1	1.112625
12.100000	1	1.120500
12.116667	1	1.129375
12.133333	1	1.138875
12.150000	1	1.149750
12.166667	1	1.161375
12.183333	1	1.174750
12.200000	1	1.189750
12.216667	1	1.207250
12.233333	1	1.227500
12.250000	1	1.249375
12.266667	1	1.274375
12.283333	1	1.301375
12.300000	1	1.331000
12.316667	1	1.363125
12.333333	1	1.398250
12.350000	1	1.438750
12.366667	1	1.486750
12.383333	1	1.545250
12.400000	1	1.620750
12.416667	1	1.719375
12.433333	1	1.848750
12.450000	1	2.017000
12.466667	1	2.232375
12.483333	1	2.502500
12.500000	1	2.832625
12.516667	1	3.224875
12.533333	1	3.678250
12.550000	1	4.188000
12.566667	1	4.744125
12.583333	1	5.335000
12.600000	1	5.945000
12.616667	1	6.559125
12.633333	1	7.162500
12.650000	1	7.742625
12.666667	1	8.289500
12.683333	1	8.798375
12.700000	1	9.266625
12.716667	1	9.693125
12.733333	1	10.079750
12.750000	1	10.425500
12.766667	1	10.724250
12.783333	1	10.958250
12.800000	1	11.099875
12.816667	1	11.114250
12.833333	1	10.966875
12.850000	1	10.637000
12.866667	1	10.133750
12.883333	1	9.495000
12.900000	1	8.776125
12.916667	1	8.034375
12.933333	1	7.313250
12.950000	1	6.636875
12.966667	1	6.017625
12.983333	1	5.458125
13.000000	1	4.959000
13.016667	1	4.519125
13.033333	1	4.134750
13.050000	1	3.801750
13.066667	1	3.517250
13.083333	1	3.273875
13.100000	1	3.066875
13.116667	1	2.891250
13.133333	1	2.740875
13.150000	1	2.610125
13.166667	1	2.497125
13.183333	1	2.398250
13.200000	1	2.310625
13.216667	1	2.231500
13.233333	1	2.159500
13.250000	1	2.093125
13.266667	1	2.032125
13.283333	1	1.974875
13.300000	1	1.921500
13.316667	1	1.871500
13.333333	1	1.824875
13.350000	1	1.781625
13.366667	1	1.741000
13.383333	1	1.704125
13.400000	1	1.670500
13.416667	1	1.640500
13.433333	1	1.613125
13.450000	1	1.589500
13.466667	1	1.569375
13.483333	1	1.552750
13.500000	1	1.539000
13.516667	1	1.527375
13.533333	1	1.518500
13.550000	1	1.511000
13.566667	1	1.504250
13.583333	1	1.497250
13.600000	1	1.490125
13.616667	1	1.481750
13.633333	1	1.471125
13.650000	1	1.458875
13.666667	1	1.443875
13.683333	1	1.427375
13.700000	1	1.408500
13.716667	1	1.388500
13.733333	1	1.367250
13.750000	1	1.346000
13.766667	1	1.324500
13.783333	1	1.304000
13.800000	1	1.283625
13.816667	1	1.263500
13.833333	1	1.244500
13.850000	1	1.226875
13.866667	1	1.210000
13.883333	1	1.194500
13.900000	1	1.179125
13.916667	1	1.165125
13.933333	1	1.152000
13.950000	1	1.139625
13.966667	1	1.127375
13.983333	1	1.117000
14.000000	1	1.106750
14.016667	1	1.097750
14.033333	1	1.088875
14.050000	1	1.080250
14.066667	1	1.072250
14.083333	1	1.064875
14.100000	1	1.058125
14.116667	1	1.051125
14.133333	1	1.044500
14.150000	1	1.039250
14.166667	1	1.034250
14.183333	1	1.030000
14.200000	1	1.026875
14.216667	1	1.024625
14.233333	1	1.023125
14.250000	1	1.023250
14.266667	1	1.025125
14.283333	1	1.028250
14.300000	1	1.033750
14.316667	1	1.040000
14.333333	1	1.048125
14.350000	1	1.058125
14.366667	1	1.070375
14.383333	1	1.084000
14.400000	1	1.099625
14.416667	1	1.119250
14.433333	1	1.145500
14.450000	1	1.182375
14.466667	1	1.237750
14.483333	1	1.321750
14.500000	1	1.450625
14.516667	1	1.646375
14.533333	1	1.941000
14.550000	1	2.374375
14.566667	1	2.995000
14.583333	1	3.860000
14.600000	1	5.035750
14.616667	1	6.593750
14.633333	1	8.601000
14.650000	1	11.116750
14.666667	1	14.179125
14.683333	1	17.797875
14.700000	1	21.939500
14.716667	1	26.528375
14.733333	1	31.446250
14.750000	1	36.529750
14.766667	1	41.577500
14.783333	1	46.367125
14.800000	1	50.678875
14.816667	1	54.307625
14.833333	1	57.080875
14.850000	1	58.874125
14.866667	1	59.623250
14.883333	1	59.328250
14.900000	1	58.052125
14.916667	1	55.909750
14.933333	1	53.056375
14.950000	1	49.665250
14.966667	1	45.917000
14.983333	1	41.983375
15.000000	1	38.009875
15.016667	1	34.114250
15.033333	1	30.388500
15.050000	1	26.898375
15.066667	1	23.685250
15.083333	1	20.768750
15.100000	1	18.154875
15.116667	1	15.833500
15.133333	1	13.787125
15.150000	1	11.993000
15.166667	1	10.429250
15.183333	1	9.071000
15.200000	1	7.895750
15.216667	1	6.880500
15.233333	1	6.006625
15.250000	1	5.257875
15.266667	1	4.621250
15.283333	1	4.083750
15.300000	1	3.633500
15.316667	1	3.261250
15.333333	1	2.956375
15.350000	1	2.710625
15.366667	1	2.515375
15.383333	1	2.362000
15.400000	1	2.243000
15.416667	1	2.152125
15.433333	1	2.082875
15.450000	1	2.028750
15.466667	1	1.984875
15.483333	1	1.946625
15.500000	1	1.911125
15.516667	1	1.874875
15.533333	1	1.837875
15.550000	1	1.797125
15.566667	1	1.754500
15.583333	1	1.710500
15.600000	1	1.665625
15.616667	1	1.620500
15.633333	1	1.577125
15.650000	1	1.533750
15.666667	1	1.493125
15.683333	1	1.454625
15.700000	1	1.418750
15.716667	1	1.385000
15.733333	1	1.353125
15.750000	1	1.323500
15.766667	1	1.295250
15.783333	1	1.268500
15.800000	1	1.242625
15.816667	1	1.218750
15.833333	1	1.195500
15.850000	1	1.174000
15.866667	1	1.153375
15.883333	1	1.134625
15.900000	1	1.117375
15.916667	1	1.102750
15.933333	1	1.090125
15.950000	1	1.080000
15.966667	1	1.072125
15.983333	1	1.066625
16.000000	1	1.061750
16.016667	1	1.059875
16.033333	1	1.058875
16.050000	1	1.059000
16.066667	1	1.060000
16.083333	1	1.062250
16.100000	1	1.064500
16.116667	1	1.067125
16.133333	1	1.069875
16.150000	1	1.072625
16.166667	1	1.074875
16.183333	1	1.076375
16.200000	1	1.077375
16.216667	1	1.077875
16.233333	1	1.077000
16.250000	1	1.075625
16.266667	1	1.073375
16.283333	1	1.070625
16.300000	1	1.067500
16.316667	1	1.064625
16.333333	1	1.061750
16.350000	1	1.059375
16.366667	1	1.058375
16.383333	1	1.058500
16.400000	1	1.059750
16.416667	1	1.062750
16.433333	1	1.066750
16.450000	1	1.071250
16.466667	1	1.076750
16.483333	1	1.083125
16.500000	1	1.088625
16.516667	1	1.093750
16.533333	1	1.097875
16.550000	1	1.101000
16.566667	1	1.102125
16.583333	1	1.101250
16.600000	1	1.099250
16.616667	1	1.097000
16.633333	1	1.093625
16.650000	1	1.090125
16.666667	1	1.086125
16.683333	1	1.082250
16.700000	1	1.079875
16.716667	1	1.079250
16.733333	1	1.080750
16.750000	1	1.084250
16.766667	1	1.089500
16.783333	1	1.096500
16.800000	1	1.104250
16.816667	1	1.113875
16.833333	1	1.123250
16.850000	1	1.132000
16.866667	1	1.141000
16.883333	1	1.148750
16.900000	1	1.155250
16.916667	1	1.160500
16.933333	1	1.164375
16.950000	1	1.166750
16.966667	1	1.167500
16.983333	1	1.166625
17.000000	1	1.163875
17.016667	1	1.160125
17.033333	1	1.156375
17.050000	1	1.152000
17.066667	1	1.147500
17.083333	1	1.142750
17.100000	1	1.138250
17.116667	1	1.134250
17.133333	1	1.131000
17.150000	1	1.127500
17.166667	1	1.124375
17.183333	1	1.122125
17.200000	1	1.120000
17.216667	1	1.118000
17.233333	1	1.116750
17.250000	1	1.116250
17.266667	1	1.115875
17.283333	1	1.115875
17.300000	1	1.116250
17.316667	1	1.117000
17.333333	1	1.117875
17.350000	1	1.119125
17.366667	1	1.120500
17.383333	1	1.121375
17.400000	1	1.121125
17.416667	1	1.121125
17.433333	1	1.120750
17.450000	1	1.119125
17.466667	1	1.116250
17.483333	1	1.111750
17.500000	1	1.105000
17.516667	1	1.096875
17.533333	1	1.087750
17.550000	1	1.077125
17.566667	1	1.065500
17.583333	1	1.051875
17.600000	1	1.038000
17.616667	1	1.023250
17.633333	1	1.008750
17.650000	1	0.993750
17.666667	1	0.979000
17.683333	1	0.963875
17.700000	1	0.950250
17.716667	1	0.936750
17.733333	1	0.924625
17.750000	1	0.913125
17.766667	1	0.903250
17.783333	1	0.893500
17.800000	1	0.885000
17.816667	1	0.878125
17.833333	1	0.871875
17.850000	1	0.867125
17.866667	1	0.863500
17.883333	1	0.860000
17.900000	1	0.856625
17.916667	1	0.854000
17.933333	1	0.850625
17.950000	1	0.848000
17.966667	1	0.845375
17.983333	1	0.842750
18.000000	1	0.840125
18.016667	1	0.836500
18.033333	1	0.833375
18.050000	1	0.829625
18.066667	1	0.826250
18.083333	1	0.822875
18.100000	1	0.820000
18.116667	1	0.817875
18.133333	1	0.815250
18.150000	1	0.813500
18.166667	1	0.812250
18.183333	1	0.811625
18.200000	1	0.811375
18.216667	1	0.810750
18.233333	1	0.809625
18.250000	1	0.809000
18.266667	1	0.808625
18.283333	1	0.807875
18.300000	1	0.807500
18.316667	1	0.807500
18.333333	1	0.807625
18.350000	1	0.807250
18.366667	1	0.808125
18.383333	1	0.809375
18.400000	1	0.812125
18.416667	1	0.816250
18.433333	1	0.821875
18.450000	1	0.829125
18.466667	1	0.837875
18.483333	1	0.848250
18.500000	1	0.860750
18.516667	1	0.875000
18.533333	1	0.892500
18.550000	1	0.911000
18.566667	1	0.932250
18.583333	1	0.954000
18.600000	1	0.978750
18.616667	1	1.005750
18.633333	1	1.033500
18.650000	1	1.062625
18.666667	1	1.093750
18.683333	1	1.125625
18.700000	1	1.158500
18.716667	1	1.191375
18.733333	1	1.225250
18.750000	1	1.258625
18.766667	1	1.291750
18.783333	1	1.324625
18.800000	1	1.355125
18.816667	1	1.383500
18.833333	1	1.408000
18.850000	1	1.429000
18.866667	1	1.445500
18.883333	1	1.456375
18.900000	1	1.461875
18.916667	1	1.461625
18.933333	1	1.454875
18.950000	1	1.441875
18.966667	1	1.422750
18.983333	1	1.398000
19.000000	1	1.368500
19.016667	1	1.333375
19.033333	1	1.293625
19.050000	1	1.250500
19.066667	1	1.205500
19.083333	1	1.160250
19.100000	1	1.113125
19.116667	1	1.067250
19.133333	1	1.023375
19.150000	1	0.981500
19.166667	1	0.942625
19.183333	1	0.906875
19.200000	1	0.875750
19.216667	1	0.849500
19.233333	1	0.828625
19.250000	1	0.812625
19.266667	1	0.802000
19.283333	1	0.798000
19.300000	1	0.800000
19.316667	1	0.807625
19.333333	1	0.821250
19.350000	1	0.840125
19.366667	1	0.863875
19.383333	1	0.892000
19.400000	1	0.922500
19.416667	1	0.955875
19.433333	1	0.989750
19.450000	1	1.024000
19.466667	1	1.058000
19.483333	1	1.091375
19.500000	1	1.121875
19.516667	1	1.148875
19.533333	1	1.172750
19.550000	1	1.191250
19.566667	1	1.206125
19.583333	1	1.216125
19.600000	1	1.221375
19.616667	1	1.222000
19.633333	1	1.217750
19.650000	1	1.209625
19.666667	1	1.197375
19.683333	1	1.181125
19.700000	1	1.161250
19.716667	1	1.139000
19.733333	1	1.114125
19.750000	1	1.087500
19.766667	1	1.059125
19.783333	1	1.028750
19.800000	1	0.997375
19.816667	1	0.965250
19.833333	1	0.933500
19.850000	1	0.901375
19.866667	1	0.870500
19.883333	1	0.840750
19.900000	1	0.813125
19.916667	1	0.787375
19.933333	1	0.764375
19.950000	1	0.742750
19.966667	1	0.725500
19.983333	1	0.713000
20.000000	1	0.704500
20.016667	1	0.699750
20.033333	1	0.700250
20.050000	1	0.705875
20.066667	1	0.717500
20.083333	1	0.733625
20.100000	1	0.756250
20.116667	1	0.784500
20.133333	1	0.817125
20.150000	1	0.853250
20.166667	1	0.892875
20.183333	1	0.933500
20.200000	1	0.974000
20.216667	1	1.013125
20.233333	1	1.049875
20.250000	1	1.082375
20.266667	1	1.108875
20.283333	1	1.129125
20.300000	1	1.141625
20.316667	1	1.146750
20.333333	1	1.143625
20.350000	1	1.132750
20.366667	1	1.114875
20.383333	1	1.090375
20.400000	1	1.060500
20.416667	1	1.026250
20.433333	1	0.989500
20.450000	1	0.950625
20.466667	1	0.911750
20.483333	1	0.874250
20.500000	1	0.838250
20.516667	1	0.806625
20.533333	1	0.779875
20.550000	1	0.758500
20.566667	1	0.743875
20.583333	1	0.736375
20.600000	1	0.737500
20.616667	1	0.747000
20.633333	1	0.766500
20.650000	1	0.795625
20.666667	1	0.833875
20.683333	1	0.881500
20.700000	1	0.937625
20.716667	1	1.001125
20.733333	1	1.071125
20.750000	1	1.145625
20.766667	1	1.222625
20.783333	1	1.299500
20.800000	1	1.373500
20.816667	1	1.442625
20.833333	1	1.504000
20.850000	1	1.556125
20.866667	1	1.596500
20.883333	1	1.624125
20.900000	1	1.639375
20.916667	1	1.641375
20.933333	1	1.630250
20.950000	1	1.607375
20.966667	1	1.573250
20.983333	1	1.530000
21.000000	1	1.479125
21.016667	1	1.422750
21.033333	1	1.363125
21.050000	1	1.300750
21.066667	1	1.237875
21.083333	1	1.175500
21.100000	1	1.115125
21.116667	1	1.057125
21.133333	1	1.002500
21.150000	1	0.951125
21.166667	1	0.905125
21.183333	1	0.862125
21.200000	1	0.822875
21.216667	1	0.786875
21.233333	1	0.755375
21.250000	1	0.725750
21.266667	1	0.699625
21.283333	1	0.676125
21.300000	1	0.655250
21.316667	1	0.636250
21.333333	1	0.619000
21.350000	1	0.602875
21.366667	1	0.588750
21.383333	1	0.575875
21.400000	1	0.564000
21.416667	1	0.553250
21.433333	1	0.543875
21.450000	1	0.534125
21.466667	1	0.525375
21.483333	1	0.516500
21.500000	1	0.509125
21.516667	1	0.502750
21.533333	1	0.497125
21.550000	1	0.492750
21.566667	1	0.490000
21.583333	1	0.489125
21.600000	1	0.489500
21.616667	1	0.491250
21.633333	1	0.495125
21.650000	1	0.501750
21.666667	1	0.510875
21.683333	1	0.522375
21.700000	1	0.536375
21.716667	1	0.553750
21.733333	1	0.572750
21.750000	1	0.594250
21.766667	1	0.618250
21.783333	1	0.642875
21.800000	1	0.669500
21.816667	1	0.696250
21.833333	1	0.723000
21.850000	1	0.749375
21.866667	1	0.774250
21.883333	1	0.797125
21.900000	1	0.818625
21.916667	1	0.835875
21.933333	1	0.851875
21.950000	1	0.864375
21.966667	1	0.872750
21.983333	1	0.878250
22.000000	1	0.879750
22.016667	1	0.878250
22.033333	1	0.873375
22.050000	1	0.866750
22.066667	1	0.858000
22.083333	1	0.846875
22.100000	1	0.834750
22.116667	1	0.820875
22.133333	1	0.806125
22.150000	1	0.790375
22.166667	1	0.773125
22.183333	1	0.755250
22.200000	1	0.737875
22.216667	1	0.719125
22.233333	1	0.701250
22.250000	1	0.683500
22.266667	1	0.666000
22.283333	1	0.648625
22.300000	1	0.631500
22.316667	1	0.614875
22.333333	1	0.597875
22.350000	1	0.581750
22.366667	1	0.566000
22.383333	1	0.551625
22.400000	1	0.537750
22.416667	1	0.525125
22.433333	1	0.513375
22.450000	1	0.503500
22.466667	1	0.494125
22.483333	1	0.484250
22.500000	1	0.477250
22.516667	1	0.470250
22.533333	1	0.464000
22.550000	1	0.457625
22.566667	1	0.452125
22.583333	1	0.447125
22.600000	1	0.442375
22.616667	1	0.437375
22.633333	1	0.432625
22.650000	1	0.428000
22.666667	1	0.424000
22.683333	1	0.419375
22.700000	1	0.414500
22.716667	1	0.409000
22.733333	1	0.403875
22.750000	1	0.398500
22.766667	1	0.393250
22.783333	1	0.387375
22.800000	1	0.381500
22.816667	1	0.375875
22.833333	1	0.370125
22.850000	1	0.363875
22.866667	1	0.358500
22.883333	1	0.353125
22.900000	1	0.348625
22.916667	1	0.344250
22.933333	1	0.340250
22.950000	1	0.336750
22.966667	1	0.333625
22.983333	1	0.330375
23.000000	1	0.327625
23.016667	1	0.325250
23.033333	1	0.323250
23.050000	1	0.321375
23.066667	1	0.320500
23.083333	1	0.319750
23.100000	1	0.319125
23.116667	1	0.318000
23.133333	1	0.317125
23.150000	1	0.316375
23.166667	1	0.315625
23.183333	1	0.315000
23.200000	1	0.314375
23.216667	1	0.313750
23.233333	1	0.313375
23.250000	1	0.312875
23.266667	1	0.312250
23.283333	1	0.313250
23.300000	1	0.314750
23.316667	1	0.317250
23.333333	1	0.322625
23.350000	1	0.330750
23.366667	1	0.342375
23.383333	1	0.357875
23.400000	1	0.380000
23.416667	1	0.409375
23.433333	1	0.448500
23.450000	1	0.497625
23.466667	1	0.559625
23.483333	1	0.636000
23.500000	1	0.728250
23.516667	1	0.840000
23.533333	1	0.971375
23.550000	1	1.124500
23.566667	1	1.299625
23.583333	1	1.497000
23.600000	1	1.715875
23.616667	1	1.955625
23.633333	1	2.214250
23.650000	1	2.487250
23.666667	1	2.771625
23.683333	1	3.063625
23.700000	1	3.357250
23.716667	1	3.646625
23.733333	1	3.925500
23.750000	1	4.188125
23.766667	1	4.428000
23.783333	1	4.640875
23.800000	1	4.820750
23.816667	1	4.964000
23.833333	1	5.068375
23.850000	1	5.132625
23.866667	1	5.155875
23.883333	1	5.139500
23.900000	1	5.085375
23.916667	1	4.996500
23.933333	1	4.875625
23.950000	1	4.726500
23.966667	1	4.554000
23.983333	1	4.362875
24.000000	1	4.158500
24.016667	1	3.945375
24.033333	1	3.727375
24.050000	1	3.507375
24.066667	1	3.289625
24.083333	1	3.075000
24.100000	1	2.867250
24.116667	1	2.667750
24.133333	1	2.476125
24.150000	1	2.294375
24.166667	1	2.123375
24.183333	1	1.964125
24.200000	1	1.815125
24.216667	1	1.675875
24.233333	1	1.548000
24.250000	1	1.429625
24.266667	1	1.321000
24.283333	1	1.222000
24.300000	1	1.130250
24.316667	1	1.047125
24.333333	1	0.970875
24.350000	1	0.903500
24.366667	1	0.841125
24.383333	1	0.785625
24.400000	1	0.736750
24.416667	1	0.693375
24.433333	1	0.654375
24.450000	1	0.620000
24.466667	1	0.590000
24.483333	1	0.564375
24.500000	1	0.541625
24.516667	1	0.521375
24.533333	1	0.503500
24.550000	1	0.487875
24.566667	1	0.474125
24.583333	1	0.462250
24.600000	1	0.451000
24.616667	1	0.440625
24.633333	1	0.430500
24.650000	1	0.420875
24.666667	1	0.412125
24.683333	1	0.403250
24.700000	1	0.395250
24.716667	1	0.387250
24.733333	1	0.378875
24.750000	1	0.370500
24.766667	1	0.362750
24.783333	1	0.355625
24.800000	1	0.348125
24.816667	1	0.341125
24.833333	1	0.334625
24.850000	1	0.328750
24.866667	1	0.321750
24.883333	1	0.315750
24.900000	1	0.310375
24.916667	1	0.305500
24.933333	1	0.301250
24.950000	1	0.297000
24.966667	1	0.293000
24.983333	1	0.289750
25.000000	1	0.286625
25.016667	1	0.284500
25.033333	1	0.282125
25.050000	1	0.280125
25.066667	1	0.278500
25.083333	1	0.277000
25.100000	1	0.274875
25.116667	1	0.273500
25.133333	1	0.272125
25.150000	1	0.270625
25.166667	1	0.269375
25.183333	1	0.268500
25.200000	1	0.266750
25.216667	1	0.265500
25.233333	1	0.264750
25.250000	1	0.263625
25.266667	1	0.262500
25.283333	1	0.261375
25.300000	1	0.260250
25.316667	1	0.259375
25.333333	1	0.258125
25.350000	1	0.257500
25.366667	1	0.257375
25.383333	1	0.257000
25.400000	1	0.257250
25.416667	1	0.257000
25.433333	1	0.257250
25.450000	1	0.257750
25.466667	1	0.258875
25.483333	1	0.260125
25.500000	1	0.262625
25.516667	1	0.264625
25.533333	1	0.266625
25.550000	1	0.269250
25.566667	1	0.271375
25.583333	1	0.273625
25.600000	1	0.275625
25.616667	1	0.278125
25.633333	1	0.280250
25.650000	1	0.282125
25.666667	1	0.284625
25.683333	1	0.287500
25.700000	1	0.289875
25.716667	1	0.291250
25.733333	1	0.292250
25.750000	1	0.293750
25.766667	1	0.294750
25.783333	1	0.296000
25.800000	1	0.296875
25.816667	1	0.297375
25.833333	1	0.297625
25.850000	1	0.298500
25.866667	1	0.298500
25.883333	1	0.299625
25.900000	1	0.299750
25.916667	1	0.300875
25.933333	1	0.301125
25.950000	1	0.301500
25.966667	1	0.302625
25.983333	1	0.303375
26.000000	1	0.304500
26.016667	1	0.306000
26.033333	1	0.307625
26.050000	1	0.309875
26.066667	1	0.311625
26.083333	1	0.314000
26.100000	1	0.316750
26.116667	1	0.320125
26.133333	1	0.323625
26.150000	1	0.326875
26.166667	1	0.330500
26.183333	1	0.333250
26.200000	1	0.336750
26.216667	1	0.339750
26.233333	1	0.343375
26.250000	1	0.346625
26.266667	1	0.349875
26.283333	1	0.352375
26.300000	1	0.354500
26.316667	1	0.356500
26.333333	1	0.357500
26.350000	1	0.358000
26.366667	1	0.357625
26.383333	1	0.357125
26.400000	1	0.356375
26.416667	1	0.354250
26.433333	1	0.352000
26.450000	1	0.349125
26.466667	1	0.346250
26.483333	1	0.342250
26.500000	1	0.337750
26.516667	1	0.332375
26.533333	1	0.327125
26.550000	1	0.321500
26.566667	1	0.315375
26.583333	1	0.308750
26.600000	1	0.302000
26.616667	1	0.295125
26.633333	1	0.288500
26.650000	1	0.282375
26.666667	1	0.276000
26.683333	1	0.269500
26.700000	1	0.263500
26.716667	1	0.257875
26.733333	1	0.252500
26.750000	1	0.247750
26.766667	1	0.243750
26.783333	1	0.239375
26.800000	1	0.236000
26.816667	1	0.233375
26.833333	1	0.230625
26.850000	1	0.228500
26.866667	1	0.226875
26.883333	1	0.226125
26.900000	1	0.225750
26.916667	1	0.225250
26.933333	1	0.225625
26.950000	1	0.225625
26.966667	1	0.227000
26.983333	1	0.228125
27.000000	1	0.229500
27.016667	1	0.231625
27.033333	1	0.233125
27.050000	1	0.235625
27.066667	1	0.238875
27.083333	1	0.241625
27.100000	1	0.245375
27.116667	1	0.248875
27.133333	1	0.253125
27.150000	1	0.257875
27.166667	1	0.262375
27.183333	1	0.268000
27.200000	1	0.274125
27.216667	1	0.281750
27.233333	1	0.291000
27.250000	1	0.301125
27.266667	1	0.313250
27.283333	1	0.328625
27.300000	1	0.346250
27.316667	1	0.367750
27.333333	1	0.392750
27.350000	1	0.422250
27.366667	1	0.456875
27.383333	1	0.498375
27.400000	1	0.547250
27.416667	1	0.603750
27.433333	1	0.669125
27.450000	1	0.743625
27.466667	1	0.829500
27.483333	1	0.925125
27.500000	1	1.032500
27.516667	1	1.151750
27.533333	1	1.283000
27.550000	1	1.425375
27.566667	1	1.579750
27.583333	1	1.744250
27.600000	1	1.918375
27.616667	1	2.101500
27.633333	1	2.291250
27.650000	1	2.486875
27.666667	1	2.685500
27.683333	1	2.884125
27.700000	1	3.080375
27.716667	1	3.271000
27.733333	1	3.454125
27.750000	1	3.626375
27.766667	1	3.783750
27.783333	1	3.924750
27.800000	1	4.046500
27.816667	1	4.147000
27.833333	1	4.224250
27.850000	1	4.278000
27.866667	1	4.306500
27.883333	1	4.310125
27.900000	1	4.288500
27.916667	1	4.242000
27.933333	1	4.172625
27.950000	1	4.081875
27.966667	1	3.971125
27.983333	1	3.844500
28.000000	1	3.702625
28.016667	1	3.549875
28.033333	1	3.387750
28.050000	1	3.218500
28.066667	1	3.045750
28.083333	1	2.871125
28.100000	1	2.697125
28.116667	1	2.526000
28.133333	1	2.359375
28.150000	1	2.197625
28.166667	1	2.042875
28.183333	1	1.896000
28.200000	1	1.756750
28.216667	1	1.625500
28.233333	1	1.503375
28.250000	1	1.389250
28.266667	1	1.283250
28.283333	1	1.185375
28.300000	1	1.095750
28.316667	1	1.013750
28.333333	1	0.938125
28.350000	1	0.869750
28.366667	1	0.807625
28.383333	1	0.751875
28.400000	1	0.702125
28.416667	1	0.658375
28.433333	1	0.619000
28.450000	1	0.584875
28.466667	1	0.555000
28.483333	1	0.528375
28.500000	1	0.505750
28.516667	1	0.487375
28.533333	1	0.472375
28.550000	1	0.460125
28.566667	1	0.450500
28.583333	1	0.443250
28.600000	1	0.438750
28.616667	1	0.436625
28.633333	1	0.435375
28.650000	1	0.436500
28.666667	1	0.439250
28.683333	1	0.443500
28.700000	1	0.448875
28.716667	1	0.454625
28.733333	1	0.460875
28.750000	1	0.467375
28.766667	1	0.475750
28.783333	1	0.483500
28.800000	1	0.491375
28.816667	1	0.499125
28.833333	1	0.506250
28.850000	1	0.511875
28.866667	1	0.517625
28.883333	1	0.523000
28.900000	1	0.528000
28.916667	1	0.531750
28.933333	1	0.534875
28.950000	1	0.535750
28.966667	1	0.535875
28.983333	1	0.535000
29.000000	1	0.532875
29.016667	1	0.529125
29.033333	1	0.524000
29.050000	1	0.517375
29.066667	1	0.508875
29.083333	1	0.498625
29.100000	1	0.486250
29.116667	1	0.472000
29.133333	1	0.456750
29.150000	1	0.439750
29.166667	1	0.420375
29.183333	1	0.399250
29.200000	1	0.375375
29.216667	1	0.349500
29.233333	1	0.321375
29.250000	1	0.291625
29.266667	1	0.258750
29.283333	1	0.224625
29.300000	1	0.186625
29.316667	1	0.146500
29.333333	1	0.104625
29.350000	1	0.060375
29.366667	1	0.014500
29.383333	1	-0.033375
29.400000	1	-0.083375
29.416667	1	-0.135500
29.433333	1	-0.188750
29.450000	1	-0.243375
29.466667	1	-0.298750
29.483333	1	-0.354375
29.500000	1	-0.410875
29.516667	1	-0.466500
29.533333	1	-0.521000
29.550000	1	-0.573875
29.566667	1	-0.624875
29.583333	1	-0.674625
29.600000	1	-0.721125
29.616667	1	-0.764125
29.633333	1	-0.804000
29.650000	1	-0.840250
29.666667	1	-0.872750
29.683333	1	-0.900500
29.700000	1	-0.923125
29.716667	1	-0.941375
29.733333	1	-0.954250
29.750000	1	-0.962625
29.766667	1	-0.966500
29.783333	1	-0.965125
29.800000	1	-0.958875
29.816667	1	-0.948375
29.833333	1	-0.933500
29.850000	1	-0.914875
29.866667	1	-0.892750
29.883333	1	-0.867125
29.900000	1	-0.838500
29.916667	1	-0.807375
29.933333	1	-0.773125
29.950000	1	-0.738250
29.966667	1	-0.701750
29.983333	1	-0.663250
30.000000	1	-0.624750
30.016667	1	-0.585625
30.033333	1	-0.546375
30.050000	1	-0.507500
30.066667	1	-0.468875
30.083333	1	-0.431000
30.100000	1	-0.394250
30.116667	1	-0.358500
30.133333	1	-0.323625
30.150000	1	-0.290625
30.166667	1	-0.259625
30.183333	1	-0.229875
30.200000	1	-0.201375
30.216667	1	-0.174875
30.233333	1	-0.149750
30.250000	1	-0.125750
30.266667	1	-0.104000
30.283333	1	-0.084000
30.300000	1	-0.065250
30.316667	1	-0.048000
30.333333	1	-0.031375
30.350000	1	-0.016750
30.366667	1	-0.003750
30.383333	1	0.008250
30.400000	1	0.019875
30.416667	1	0.030375
30.433333	1	0.040125
30.450000	1	0.049375
30.466667	1	0.057750
30.483333	1	0.065000
30.500000	1	0.072125
30.516667	1	0.079625
30.533333	1	0.086375
30.550000	1	0.093875
30.566667	1	0.101625
30.583333	1	0.108875
30.600000	1	0.116000
30.616667	1	0.122750
30.633333	1	0.130250
30.650000	1	0.137875
30.666667	1	0.145375
30.683333	1	0.153375
30.700000	1	0.161625
30.716667	1	0.170125
30.733333	1	0.178375
30.750000	1	0.187250
30.766667	1	0.195875
30.783333	1	0.204625
30.800000	1	0.214125
30.816667	1	0.224250
30.833333	1	0.234000
30.850000	1	0.244000
30.866667	1	0.255250
30.883333	1	0.267125
30.900000	1	0.279375
30.916667	1	0.292500
30.933333	1	0.307000
30.950000	1	0.323250
30.966667	1	0.340625
30.983333	1	0.359750
31.000000	1	0.382875
31.016667	1	0.408000
31.033333	1	0.437625
31.050000	1	0.470875
31.066667	1	0.508750
31.083333	1	0.552000
31.100000	1	0.601000
31.116667	1	0.657375
31.133333	1	0.721375
31.150000	1	0.794125
31.166667	1	0.875375
31.183333	1	0.966000
31.200000	1	1.068000
31.216667	1	1.180875
31.233333	1	1.304250
31.250000	1	1.439125
31.266667	1	1.583250
31.283333	1	1.739250
31.300000	1	1.905500
31.316667	1	2.080500
31.333333	1	2.263625
31.350000	1	2.453875
31.366667	1	2.648500
31.383333	1	2.848125
31.400000	1	3.049625
31.416667	1	3.250375
31.433333	1	3.448875
31.450000	1	3.641250
31.466667	1	3.826375
31.483333	1	4.000500
31.500000	1	4.163000
31.516667	1	4.310875
31.533333	1	4.442375
31.550000	1	4.555375
31.566667	1	4.649375
31.583333	1	4.722500
31.600000	1	4.774625
31.616667	1	4.805625
31.633333	1	4.814750
31.650000	1	4.801750
31.666667	1	4.768625
31.683333	1	4.715125
31.700000	1	4.642625
31.716667	1	4.552750
31.733333	1	4.448375
31.750000	1	4.329625
31.766667	1	4.197500
31.783333	1	4.055000
31.800000	1	3.903625
31.816667	1	3.745875
31.833333	1	3.582875
31.850000	1	3.417125
31.866667	1	3.249250
31.883333	1	3.081000
31.900000	1	2.913875
31.916667	1	2.748500
31.933333	1	2.586500
31.950000	1	2.429250
31.966667	1	2.276500
31.983333	1	2.129125
32.000000	1	1.986625
32.016667	1	1.850875
32.033333	1	1.720750
32.050000	1	1.598000
32.066667	1	1.481000
32.083333	1	1.369625
32.100000	1	1.265250
32.116667	1	1.167375
32.133333	1	1.075625
32.150000	1	0.990000
32.166667	1	0.909625
32.183333	1	0.834500
32.200000	1	0.764125
32.216667	1	0.698500
32.233333	1	0.637625
32.250000	1	0.582000
32.266667	1	0.530000
32.283333	1	0.482250
32.300000	1	0.438625
32.316667	1	0.397875
32.333333	1	0.361250
32.350000	1	0.327500
32.366667	1	0.296625
32.383333	1	0.268750
32.400000	1	0.243125
32.416667	1	0.220500
32.433333	1	0.199500
32.450000	1	0.180500
32.466667	1	0.163250
32.483333	1	0.147625
32.500000	1	0.133875
32.516667	1	0.121250
32.533333	1	0.110625
32.550000	1	0.100750
32.566667	1	0.092000
32.583333	1	0.083875
32.600000	1	0.077375
32.616667	1	0.071500
32.633333	1	0.065125
32.650000	1	0.059875
32.666667	1	0.054750
32.683333	1	0.050500
32.700000	1	0.047000
32.716667	1	0.043000
32.733333	1	0.039625
32.750000	1	0.036250
32.766667	1	0.033500
32.783333	1	0.030875
32.800000	1	0.027875
32.816667	1	0.025625
32.833333	1	0.023125
32.850000	1	0.020500
32.866667	1	0.017500
32.883333	1	0.016000
32.900000	1	0.014500
32.916667	1	0.013125
32.933333	1	0.011875
32.950000	1	0.009875
32.966667	1	0.008875
32.983333	1	0.007500
33.000000	1	0.006125
33.016667	1	0.005000
33.033333	1	0.004250
33.050000	1	0.003000
33.066667	1	0.001625
33.083333	1	0.000000
33.100000	1	-0.001375
33.116667	1	-0.002625
33.133333	1	-0.003750
33.150000	1	-0.004375
33.166667	1	-0.005000
33.183333	1	-0.005875
33.200000	1	-0.007000
33.216667	1	-0.007750
33.233333	1	-0.008375
33.250000	1	-0.008500
33.266667	1	-0.009125
33.283333	1	-0.009250
33.300000	1	-0.010750
33.316667	1	-0.011250
33.333333	1	-0.011125
33.350000	1	-0.010625
33.366667	1	-0.010125
33.383333	1	-0.010000
33.400000	1	-0.009875
33.416667	1	-0.009250
33.433333	1	-0.008250
33.450000	1	-0.007500
33.466667	1	-0.006250
33.483333	1	-0.004750
33.500000	1	-0.003625
33.516667	1	-0.002625
33.533333	1	-0.000500
33.550000	1	0.000875
33.566667	1	0.002625
33.583333	1	0.004250
33.600000	1	0.007125
33.616667	1	0.008375
33.633333	1	0.010500
33.650000	1	0.012375
33.666667	1	0.015000
33.683333	1	0.016750
33.700000	1	0.018250
33.716667	1	0.020500
33.733333	1	0.022250
33.750000	1	0.024000
33.766667	1	0.025875
33.783333	1	0.027125
33.800000	1	0.028500
33.816667	1	0.029875
33.833333	1	0.031375
33.850000	1	0.032625
33.866667	1	0.034375
33.883333	1	0.035750
33.900000	1	0.036875
33.916667	1	0.038375
33.933333	1	0.038750
33.950000	1	0.039375
33.966667	1	0.040125
33.983333	1	0.041500
34.000000	1	0.042375
34.016667	1	0.042500
34.033333	1	0.043250
34.050000	1	0.044625
34.066667	1	0.044750
34.083333	1	0.045000
34.100000	1	0.045500
34.116667	1	0.045750
34.133333	1	0.045875
34.150000	1	0.047000
34.166667	1	0.047250
34.183333	1	0.048500
34.200000	1	0.048250
34.216667	1	0.049250
34.233333	1	0.049125
34.250000	1	0.049750
34.266667	1	0.050625
34.283333	1	0.051625
34.300000	1	0.052375
34.316667	1	0.052875
34.333333	1	0.054625
34.350000	1	0.055500
34.366667	1	0.056625
34.383333	1	0.057500
34.400000	1	0.058875
34.416667	1	0.060125
34.433333	1	0.061000
34.450000	1	0.063250
34.466667	1	0.065250
34.483333	1	0.066875
34.500000	1	0.068875
34.516667	1	0.071000
34.533333	1	0.073000
34.550000	1	0.075250
34.566667	1	0.077750
34.583333	1	0.079500
34.600000	1	0.081625
34.616667	1	0.083750
34.633333	1	0.085625
34.650000	1	0.087125
34.666667	1	0.088500
34.683333	1	0.091125
34.700000	1	0.092625
34.716667	1	0.094875
34.733333	1	0.097125
34.750000	1	0.099625
34.766667	1	0.101875
34.783333	1	0.104125
34.800000	1	0.105875
34.816667	1	0.107750
34.833333	1	0.109125
34.850000	1	0.110375
34.866667	1	0.111750
34.883333	1	0.113625
34.900000	1	0.115375
34.916667	1	0.116500
34.933333	1	0.117625
34.950000	1	0.118625
34.966667	1	0.119500
34.983333	1	0.119875
35.000000	1	0.120000
35.016667	1	0.120125
35.033333	1	0.120125
35.050000	1	0.119625
35.066667	1	0.119250
35.083333	1	0.118375
35.100000	1	0.117750
35.116667	1	0.117000
35.133333	1	0.116250
35.150000	1	0.114750
35.166667	1	0.113875
35.183333	1	0.111875
35.200000	1	0.110125
35.216667	1	0.108250
35.233333	1	0.106125
35.250000	1	0.103375
35.266667	1	0.101250
35.283333	1	0.098750
35.300000	1	0.096375
35.316667	1	0.094000
35.333333	1	0.092125
35.350000	1	0.089250
35.366667	1	0.087125
35.383333	1	0.084625
35.400000	1	0.081875
35.416667	1	0.079250
35.433333	1	0.076750
35.450000	1	0.074625
35.466667	1	0.072875
35.483333	1	0.071125
35.500000	1	0.070125
35.516667	1	0.068500
35.533333	1	0.067500
35.550000	1	0.067250
35.566667	1	0.065875
35.583333	1	0.064750
35.600000	1	0.063125
35.616667	1	0.062500
35.633333	1	0.062375
35.650000	1	0.062125
35.666667	1	0.062500
35.683333	1	0.062375
35.700000	1	0.062625
35.716667	1	0.062625
35.733333	1	0.063000
35.750000	1	0.063125
35.766667	1	0.064125
35.783333	1	0.065375
35.800000	1	0.065500
35.816667	1	0.065750
35.833333	1	0.065875
35.850000	1	0.066625
35.866667	1	0.067875
35.883333	1	0.068125
35.900000	1	0.068875
35.916667	1	0.069875
35.933333	1	0.070750
35.950000	1	0.071375
35.966667	1	0.071875
35.983333	1	0.073000
36.000000	1	0.074125
36.016667	1	0.074500
36.033333	1	0.074625
36.050000	1	0.075500
36.066667	1	0.075625
36.083333	1	0.076625
36.100000	1	0.077375
36.116667	1	0.077875
36.133333	1	0.078375
36.150000	1	0.078625
36.166667	1	0.079375
36.183333	1	0.080375
36.200000	1	0.080250
36.216667	1	0.081375
36.233333	1	0.081000
36.250000	1	0.081375
36.266667	1	0.081750
36.283333	1	0.082125
36.300000	1	0.083125
36.316667	1	0.083625
36.333333	1	0.084125
36.350000	1	0.084750
36.366667	1	0.084875
36.383333	1	0.085000
36.400000	1	0.085125
36.416667	1	0.085625
36.433333	1	0.085000
36.450000	1	0.084750
36.466667	1	0.085250
36.483333	1	0.084750
36.500000	1	0.084875
36.516667	1	0.084125
36.533333	1	0.083000
36.550000	1	0.082750
36.566667	1	0.081750
36.583333	1	0.080625
36.600000	1	0.080000
36.616667	1	0.078375
36.633333	1	0.076250
36.650000	1	0.074625
36.666667	1	0.072750
36.683333	1	0.071250
36.700000	1	0.068625
36.716667	1	0.066250
36.733333	1	0.064125
36.750000	1	0.061500
36.766667	1	0.058625
36.783333	1	0.056375
36.800000	1	0.053750
36.816667	1	0.051500
36.833333	1	0.049125
36.850000	1	0.046000
36.866667	1	0.042875
36.883333	1	0.039875
36.900000	1	0.037250
36.916667	1	0.034875
36.933333	1	0.032875
36.950000	1	0.030750
36.966667	1	0.028500
36.983333	1	0.026125
37.000000	1	0.024250
37.016667	1	0.022625
37.033333	1	0.020625
37.050000	1	0.020000
37.066667	1	0.019625
37.083333	1	0.019125
37.100000	1	0.018875
37.116667	1	0.018625
37.133333	1	0.018625
37.150000	1	0.018625
37.166667	1	0.018750
37.183333	1	0.019125
37.200000	1	0.019375
37.216667	1	0.019500
37.233333	1	0.020750
37.250000	1	0.022000
37.266667	1	0.023375
37.283333	1	0.023625
37.300000	1	0.025125
37.316667	1	0.026125
37.333333	1	0.026625
37.350000	1	0.027125
37.366667	1	0.027500
37.383333	1	0.028250
37.400000	1	0.028750
37.416667	1	0.029750
37.433333	1	0.030125
37.450000	1	0.031000
37.466667	1	0.032000
37.483333	1	0.031875
37.500000	1	0.032375
37.516667	1	0.032125
37.533333	1	0.032125
37.550000	1	0.031250
37.566667	1	0.031500
37.583333	1	0.031500
37.600000	1	0.031125
37.616667	1	0.031000
37.633333	1	0.030625
37.650000	1	0.030500
37.666667	1	0.029750
37.683333	1	0.028875
37.700000	1	0.028875
37.716667	1	0.028750
37.733333	1	0.028125
37.750000	1	0.027500
37.766667	1	0.026750
37.783333	1	0.026125
37.800000	1	0.025625
37.816667	1	0.024750
37.833333	1	0.023875
37.850000	1	0.023625
37.866667	1	0.023125
37.883333	1	0.022500
37.900000	1	0.021625
37.916667	1	0.021250
37.933333	1	0.020625
37.950000	1	0.020000
37.966667	1	0.019250
37.983333	1	0.018250
38.000000	1	0.017375
38.016667	1	0.015875
38.033333	1	0.015125
38.050000	1	0.013750
38.066667	1	0.012875
38.083333	1	0.011750
38.100000	1	0.010375
38.116667	1	0.010125
38.133333	1	0.008500
38.150000	1	0.007375
38.166667	1	0.005750
38.183333	1	0.004625
38.200000	1	0.003125
38.216667	1	0.002375
38.233333	1	0.000750
38.250000	1	-0.000375
38.266667	1	-0.001750
38.283333	1	-0.003375
38.300000	1	-0.004875
38.316667	1	-0.006000
38.333333	1	-0.007250
38.350000	1	-0.008750
38.366667	1	-0.010375
38.383333	1	-0.012000
38.400000	1	-0.013500
38.416667	1	-0.015125
38.433333	1	-0.016250
38.450000	1	-0.017750
38.466667	1	-0.019125
38.483333	1	-0.020000
38.500000	1	-0.020500
38.516667	1	-0.021125
38.533333	1	-0.022125
38.550000	1	-0.023000
38.566667	1	-0.023125
38.583333	1	-0.022750
38.600000	1	-0.023000
38.616667	1	-0.022500
38.633333	1	-0.022250
38.650000	1	-0.021375
38.666667	1	-0.020375
38.683333	1	-0.019000
38.700000	1	-0.017375
38.716667	1	-0.014875
38.733333	1	-0.012375
38.750000	1	-0.010125
38.766667	1	-0.007625
38.783333	1	-0.004875
38.800000	1	-0.002250
38.816667	1	0.001375
38.833333	1	0.004500
38.850000	1	0.007875
38.866667	1	0.011875
38.883333	1	0.015375
38.900000	1	0.018500
38.916667	1	0.022375
38.933333	1	0.026000
38.950000	1	0.029875
38.966667	1	0.032875
38.983333	1	0.036250
39.000000	1	0.039125
39.016667	1	0.042125
39.033333	1	0.045375
39.050000	1	0.048250
39.066667	1	0.050625
39.083333	1	0.052750
39.100000	1	0.054125
39.116667	1	0.055625
39.133333	1	0.056125
39.150000	1	0.057250
39.166667	1	0.057125
39.183333	1	0.057000
39.200000	1	0.057625
39.216667	1	0.057250
39.233333	1	0.056375
39.250000	1	0.056000
39.266667	1	0.055375
39.283333	1	0.053625
39.300000	1	0.052750
39.316667	1	0.051250
39.333333	1	0.050000
39.350000	1	0.048125
39.366667	1	0.046125
39.383333	1	0.043875
39.400000	1	0.041500
39.416667	1	0.039250
39.433333	1	0.037250
39.450000	1	0.035000
39.466667	1	0.032250
39.483333	1	0.030500
39.500000	1	0.028875
39.516667	1	0.027000
39.533333	1	0.025000
39.550000	1	0.022875
39.566667	1	0.020750
39.583333	1	0.019250
39.600000	1	0.018000
39.616667	1	0.016500
39.633333	1	0.015375
39.650000	1	0.014250
39.666667	1	0.013125
39.683333	1	0.012625
39.700000	1	0.011375
39.716667	1	0.010000
39.733333	1	0.008625
39.750000	1	0.007375
39.766667	1	0.006125
39.783333	1	0.004875
39.800000	1	0.003750
39.816667	1	0.002750
39.833333	1	0.001500
39.850000	1	0.000375
39.866667	1	-0.001000
39.883333	1	-0.002000
39.900000	1	-0.003625
39.916667	1	-0.004250
39.933333	1	-0.005250
39.950000	1	-0.006625
39.966667	1	-0.007875
39.983333	1	-0.009250
40.000000	1	-0.010875
