URL	chrom://7040-86g6c92/XVault/Ultimate_3000/20/20240517_CMO_FP23_FP25_MarkusDeplate.seq/850.smp/RI_1.channel/RI_1.chm
Channel	RI_1

Injection Information:
Data Vault	XVault
Sequence	20240517_CMO_FP23_FP25_MarkusDeplate
Name	FP25_21_s4
Number	77
Position	BG5
Comment	
Processing Method	
Instrument Method	run_25B_method
Type	Unknown
Status	Finished
Inject Time	29.05.2024 22:36:53 +02:00
Volume (µl)	20.0000
Dilution Factor	1.0000
Weight	1.0000

Chromatogram Data Information:
Time Min. (min)	0.000000
Time Max. (min)	40.000000
Data Points	2401
Detector	RI
Generating Data System	Chromeleon 7.3.2.11814
Exporting Data System	Chromeleon 7.3.2.0
Operator	Instrument Controller
Signal Quantity	Refractive 
Signal Unit	µRIU
Signal Min.	-0.707375
Signal Max.	59.527375
Channel	RI_1
Driver Name	RID520Driver.dll
Channel Type	Evaluation
Min. Step (s)	1
Max. Step (s)	1
Average Step (s)	1

Signal Parameter Information:
Signal Info	

Chromatogram Data:
Time (min)	Step (s)	Value (µRIU)
0.000000	n.a.	0.006000
0.016667	1	0.004625
0.033333	1	0.003750
0.050000	1	0.002375
0.066667	1	0.001125
0.083333	1	0.000500
0.100000	1	-0.000500
0.116667	1	-0.001250
0.133333	1	-0.002500
0.150000	1	-0.003500
0.166667	1	-0.004250
0.183333	1	-0.004875
0.200000	1	-0.006250
0.216667	1	-0.007250
0.233333	1	-0.007125
0.250000	1	-0.008375
0.266667	1	-0.008625
0.283333	1	-0.009500
0.300000	1	-0.010250
0.316667	1	-0.010500
0.333333	1	-0.011500
0.350000	1	-0.012125
0.366667	1	-0.012625
0.383333	1	-0.013750
0.400000	1	-0.014750
0.416667	1	-0.014250
0.433333	1	-0.013750
0.450000	1	-0.012125
0.466667	1	-0.009500
0.483333	1	-0.007500
0.500000	1	-0.005750
0.516667	1	-0.005000
0.533333	1	-0.004125
0.550000	1	-0.003875
0.566667	1	-0.004750
0.583333	1	-0.005750
0.600000	1	-0.008625
0.616667	1	-0.010125
0.633333	1	-0.010375
0.650000	1	-0.010125
0.666667	1	-0.010500
0.683333	1	-0.010250
0.700000	1	-0.009500
0.716667	1	-0.009250
0.733333	1	-0.009000
0.750000	1	-0.008875
0.766667	1	-0.008250
0.783333	1	-0.007750
0.800000	1	-0.006500
0.816667	1	-0.005875
0.833333	1	-0.004375
0.850000	1	-0.003000
0.866667	1	-0.002125
0.883333	1	-0.001625
0.900000	1	0.000000
0.916667	1	0.000875
0.933333	1	0.001875
0.950000	1	0.002750
0.966667	1	0.004000
0.983333	1	0.004750
1.000000	1	0.005500
1.016667	1	0.006125
1.033333	1	0.007250
1.050000	1	0.008500
1.066667	1	0.010125
1.083333	1	0.010750
1.100000	1	0.012125
1.116667	1	0.012625
1.133333	1	0.013500
1.150000	1	0.014125
1.166667	1	0.015375
1.183333	1	0.016500
1.200000	1	0.017375
1.216667	1	0.017875
1.233333	1	0.018125
1.250000	1	0.018250
1.266667	1	0.019250
1.283333	1	0.020500
1.300000	1	0.020750
1.316667	1	0.021375
1.333333	1	0.021125
1.350000	1	0.021375
1.366667	1	0.020750
1.383333	1	0.020625
1.400000	1	0.020125
1.416667	1	0.019750
1.433333	1	0.019500
1.450000	1	0.018625
1.466667	1	0.018500
1.483333	1	0.018250
1.500000	1	0.017000
1.516667	1	0.016000
1.533333	1	0.015125
1.550000	1	0.013250
1.566667	1	0.012500
1.583333	1	0.011625
1.600000	1	0.011500
1.616667	1	0.010375
1.633333	1	0.009250
1.650000	1	0.008250
1.666667	1	0.007250
1.683333	1	0.006500
1.700000	1	0.005125
1.716667	1	0.004000
1.733333	1	0.003875
1.750000	1	0.003125
1.766667	1	0.002625
1.783333	1	0.002125
1.800000	1	0.002000
1.816667	1	0.002250
1.833333	1	0.002875
1.850000	1	0.003250
1.866667	1	0.003875
1.883333	1	0.004250
1.900000	1	0.004625
1.916667	1	0.005125
1.933333	1	0.006000
1.950000	1	0.007125
1.966667	1	0.008000
1.983333	1	0.009375
2.000000	1	0.010625
2.016667	1	0.011875
2.033333	1	0.013000
2.050000	1	0.013875
2.066667	1	0.014750
2.083333	1	0.015500
2.100000	1	0.015750
2.116667	1	0.016125
2.133333	1	0.016750
2.150000	1	0.017625
2.166667	1	0.018125
2.183333	1	0.018625
2.200000	1	0.018375
2.216667	1	0.018250
2.233333	1	0.018625
2.250000	1	0.018375
2.266667	1	0.017750
2.283333	1	0.016750
2.300000	1	0.016750
2.316667	1	0.015500
2.333333	1	0.015250
2.350000	1	0.014625
2.366667	1	0.013875
2.383333	1	0.013375
2.400000	1	0.012000
2.416667	1	0.010625
2.433333	1	0.009375
2.450000	1	0.008625
2.466667	1	0.008125
2.483333	1	0.007375
2.500000	1	0.006500
2.516667	1	0.005875
2.533333	1	0.005375
2.550000	1	0.005250
2.566667	1	0.005125
2.583333	1	0.004250
2.600000	1	0.003000
2.616667	1	0.002750
2.633333	1	0.002625
2.650000	1	0.002500
2.666667	1	0.002125
2.683333	1	0.002250
2.700000	1	0.002125
2.716667	1	0.002375
2.733333	1	0.002500
2.750000	1	0.002625
2.766667	1	0.002250
2.783333	1	0.002875
2.800000	1	0.002500
2.816667	1	0.003125
2.833333	1	0.002625
2.850000	1	0.003125
2.866667	1	0.003500
2.883333	1	0.003375
2.900000	1	0.003500
2.916667	1	0.002750
2.933333	1	0.002875
2.950000	1	0.003000
2.966667	1	0.003000
2.983333	1	0.003000
3.000000	1	0.002625
3.016667	1	0.002875
3.033333	1	0.003500
3.050000	1	0.002750
3.066667	1	0.003750
3.083333	1	0.003000
3.100000	1	0.003375
3.116667	1	0.003125
3.133333	1	0.003125
3.150000	1	0.004000
3.166667	1	0.005000
3.183333	1	0.005375
3.200000	1	0.006500
3.216667	1	0.007000
3.233333	1	0.007750
3.250000	1	0.008750
3.266667	1	0.008875
3.283333	1	0.009750
3.300000	1	0.010875
3.316667	1	0.011875
3.333333	1	0.012625
3.350000	1	0.013375
3.366667	1	0.014125
3.383333	1	0.015375
3.400000	1	0.016250
3.416667	1	0.017750
3.433333	1	0.018625
3.450000	1	0.020250
3.466667	1	0.022125
3.483333	1	0.023375
3.500000	1	0.024500
3.516667	1	0.026000
3.533333	1	0.027375
3.550000	1	0.029000
3.566667	1	0.030375
3.583333	1	0.031750
3.600000	1	0.033375
3.616667	1	0.035000
3.633333	1	0.036500
3.650000	1	0.037750
3.666667	1	0.039125
3.683333	1	0.040250
3.700000	1	0.042125
3.716667	1	0.043250
3.733333	1	0.044500
3.750000	1	0.045875
3.766667	1	0.047000
3.783333	1	0.048625
3.800000	1	0.050250
3.816667	1	0.051375
3.833333	1	0.052875
3.850000	1	0.053875
3.866667	1	0.055375
3.883333	1	0.056500
3.900000	1	0.057875
3.916667	1	0.058750
3.933333	1	0.059875
3.950000	1	0.060750
3.966667	1	0.061625
3.983333	1	0.063000
4.000000	1	0.064625
4.016667	1	0.065750
4.033333	1	0.066750
4.050000	1	0.067500
4.066667	1	0.068875
4.083333	1	0.070250
4.100000	1	0.071125
4.116667	1	0.072375
4.133333	1	0.073125
4.150000	1	0.073625
4.166667	1	0.073875
4.183333	1	0.074375
4.200000	1	0.074250
4.216667	1	0.075000
4.233333	1	0.074250
4.250000	1	0.074500
4.266667	1	0.074250
4.283333	1	0.073875
4.300000	1	0.073125
4.316667	1	0.072125
4.333333	1	0.070875
4.350000	1	0.069875
4.366667	1	0.068125
4.383333	1	0.067125
4.400000	1	0.066375
4.416667	1	0.066000
4.433333	1	0.065875
4.450000	1	0.065125
4.466667	1	0.064000
4.483333	1	0.063375
4.500000	1	0.061750
4.516667	1	0.061000
4.533333	1	0.060250
4.550000	1	0.059375
4.566667	1	0.059000
4.583333	1	0.058250
4.600000	1	0.057750
4.616667	1	0.056500
4.633333	1	0.056250
4.650000	1	0.056000
4.666667	1	0.055875
4.683333	1	0.055625
4.700000	1	0.055375
4.716667	1	0.055875
4.733333	1	0.055750
4.750000	1	0.055625
4.766667	1	0.055875
4.783333	1	0.056000
4.800000	1	0.056750
4.816667	1	0.056875
4.833333	1	0.057625
4.850000	1	0.058500
4.866667	1	0.058375
4.883333	1	0.059500
4.900000	1	0.060000
4.916667	1	0.061250
4.933333	1	0.062875
4.950000	1	0.063875
4.966667	1	0.064875
4.983333	1	0.067375
5.000000	1	0.069375
5.016667	1	0.071625
5.033333	1	0.074250
5.050000	1	0.076000
5.066667	1	0.078375
5.083333	1	0.081500
5.100000	1	0.084750
5.116667	1	0.087625
5.133333	1	0.091125
5.150000	1	0.094750
5.166667	1	0.099375
5.183333	1	0.103875
5.200000	1	0.108375
5.216667	1	0.112375
5.233333	1	0.116875
5.250000	1	0.121250
5.266667	1	0.126500
5.283333	1	0.131250
5.300000	1	0.136125
5.316667	1	0.141375
5.333333	1	0.146750
5.350000	1	0.152375
5.366667	1	0.158500
5.383333	1	0.164375
5.400000	1	0.169750
5.416667	1	0.175875
5.433333	1	0.182000
5.450000	1	0.188375
5.466667	1	0.194625
5.483333	1	0.200625
5.500000	1	0.206000
5.516667	1	0.212250
5.533333	1	0.218375
5.550000	1	0.223875
5.566667	1	0.229500
5.583333	1	0.235250
5.600000	1	0.239750
5.616667	1	0.245125
5.633333	1	0.250250
5.650000	1	0.255000
5.666667	1	0.259250
5.683333	1	0.263375
5.700000	1	0.267250
5.716667	1	0.271500
5.733333	1	0.274250
5.750000	1	0.277500
5.766667	1	0.280250
5.783333	1	0.282875
5.800000	1	0.284375
5.816667	1	0.285750
5.833333	1	0.287000
5.850000	1	0.287875
5.866667	1	0.288250
5.883333	1	0.288750
5.900000	1	0.288625
5.916667	1	0.287750
5.933333	1	0.287625
5.950000	1	0.287000
5.966667	1	0.285875
5.983333	1	0.283750
6.000000	1	0.282625
6.016667	1	0.280750
6.033333	1	0.278250
6.050000	1	0.275875
6.066667	1	0.273125
6.083333	1	0.270125
6.100000	1	0.266875
6.116667	1	0.264250
6.133333	1	0.260875
6.150000	1	0.258000
6.166667	1	0.254375
6.183333	1	0.250750
6.200000	1	0.247000
6.216667	1	0.243000
6.233333	1	0.239000
6.250000	1	0.235625
6.266667	1	0.231125
6.283333	1	0.226625
6.300000	1	0.222250
6.316667	1	0.218250
6.333333	1	0.213875
6.350000	1	0.210000
6.366667	1	0.206000
6.383333	1	0.201875
6.400000	1	0.197875
6.416667	1	0.193625
6.433333	1	0.189000
6.450000	1	0.184125
6.466667	1	0.179875
6.483333	1	0.175375
6.500000	1	0.171750
6.516667	1	0.167250
6.533333	1	0.163500
6.550000	1	0.159500
6.566667	1	0.155500
6.583333	1	0.151125
6.600000	1	0.147750
6.616667	1	0.143250
6.633333	1	0.139500
6.650000	1	0.135875
6.666667	1	0.132625
6.683333	1	0.129125
6.700000	1	0.126250
6.716667	1	0.123000
6.733333	1	0.120000
6.750000	1	0.117000
6.766667	1	0.114750
6.783333	1	0.112125
6.800000	1	0.110250
6.816667	1	0.107750
6.833333	1	0.106250
6.850000	1	0.104625
6.866667	1	0.103625
6.883333	1	0.102125
6.900000	1	0.100625
6.916667	1	0.099875
6.933333	1	0.099750
6.950000	1	0.099125
6.966667	1	0.099500
6.983333	1	0.099750
7.000000	1	0.099750
7.016667	1	0.100250
7.033333	1	0.101125
7.050000	1	0.102625
7.066667	1	0.104125
7.083333	1	0.105875
7.100000	1	0.107125
7.116667	1	0.108750
7.133333	1	0.110875
7.150000	1	0.113875
7.166667	1	0.116625
7.183333	1	0.119500
7.200000	1	0.122000
7.216667	1	0.124625
7.233333	1	0.127750
7.250000	1	0.130375
7.266667	1	0.133500
7.283333	1	0.136875
7.300000	1	0.140500
7.316667	1	0.144000
7.333333	1	0.147500
7.350000	1	0.150750
7.366667	1	0.153875
7.383333	1	0.157875
7.400000	1	0.161625
7.416667	1	0.165000
7.433333	1	0.168125
7.450000	1	0.172500
7.466667	1	0.175500
7.483333	1	0.179125
7.500000	1	0.182000
7.516667	1	0.185125
7.533333	1	0.187375
7.550000	1	0.190625
7.566667	1	0.193875
7.583333	1	0.197000
7.600000	1	0.198625
7.616667	1	0.200500
7.633333	1	0.202500
7.650000	1	0.204625
7.666667	1	0.205375
7.683333	1	0.206500
7.700000	1	0.207500
7.716667	1	0.208625
7.733333	1	0.208500
7.750000	1	0.208625
7.766667	1	0.208000
7.783333	1	0.207750
7.800000	1	0.207125
7.816667	1	0.206125
7.833333	1	0.205125
7.850000	1	0.203750
7.866667	1	0.201750
7.883333	1	0.198875
7.900000	1	0.196375
7.916667	1	0.194125
7.933333	1	0.192000
7.950000	1	0.188750
7.966667	1	0.186250
7.983333	1	0.183250
8.000000	1	0.180375
8.016667	1	0.176875
8.033333	1	0.172750
8.050000	1	0.168750
8.066667	1	0.165125
8.083333	1	0.161125
8.100000	1	0.156875
8.116667	1	0.153000
8.133333	1	0.149500
8.150000	1	0.146000
8.166667	1	0.141625
8.183333	1	0.137375
8.200000	1	0.133500
8.216667	1	0.129625
8.233333	1	0.125750
8.250000	1	0.122000
8.266667	1	0.118250
8.283333	1	0.114125
8.300000	1	0.110125
8.316667	1	0.106750
8.333333	1	0.103125
8.350000	1	0.099875
8.366667	1	0.095875
8.383333	1	0.092375
8.400000	1	0.088875
8.416667	1	0.086250
8.433333	1	0.084375
8.450000	1	0.082500
8.466667	1	0.080250
8.483333	1	0.077625
8.500000	1	0.075375
8.516667	1	0.073375
8.533333	1	0.072125
8.550000	1	0.070125
8.566667	1	0.069000
8.583333	1	0.067750
8.600000	1	0.066750
8.616667	1	0.066125
8.633333	1	0.065500
8.650000	1	0.064875
8.666667	1	0.065125
8.683333	1	0.065250
8.700000	1	0.065000
8.716667	1	0.065375
8.733333	1	0.065500
8.750000	1	0.066375
8.766667	1	0.067375
8.783333	1	0.068250
8.800000	1	0.069000
8.816667	1	0.069500
8.833333	1	0.070125
8.850000	1	0.071000
8.866667	1	0.071750
8.883333	1	0.073000
8.900000	1	0.074000
8.916667	1	0.074500
8.933333	1	0.075625
8.950000	1	0.076500
8.966667	1	0.077750
8.983333	1	0.079375
9.000000	1	0.080125
9.016667	1	0.081000
9.033333	1	0.082250
9.050000	1	0.083250
9.066667	1	0.083500
9.083333	1	0.083875
9.100000	1	0.084250
9.116667	1	0.085250
9.133333	1	0.085750
9.150000	1	0.086375
9.166667	1	0.086250
9.183333	1	0.086625
9.200000	1	0.086875
9.216667	1	0.086625
9.233333	1	0.085875
9.250000	1	0.086375
9.266667	1	0.086125
9.283333	1	0.085750
9.300000	1	0.085250
9.316667	1	0.084250
9.333333	1	0.083500
9.350000	1	0.082625
9.366667	1	0.082250
9.383333	1	0.080750
9.400000	1	0.079125
9.416667	1	0.077500
9.433333	1	0.075750
9.450000	1	0.073750
9.466667	1	0.072000
9.483333	1	0.069750
9.500000	1	0.067250
9.516667	1	0.065250
9.533333	1	0.063500
9.550000	1	0.061125
9.566667	1	0.059250
9.583333	1	0.057250
9.600000	1	0.054625
9.616667	1	0.052875
9.633333	1	0.051250
9.650000	1	0.049375
9.666667	1	0.047625
9.683333	1	0.045750
9.700000	1	0.044625
9.716667	1	0.043250
9.733333	1	0.042625
9.750000	1	0.041625
9.766667	1	0.041125
9.783333	1	0.040750
9.800000	1	0.040000
9.816667	1	0.039250
9.833333	1	0.038750
9.850000	1	0.038625
9.866667	1	0.038625
9.883333	1	0.038750
9.900000	1	0.037750
9.916667	1	0.036875
9.933333	1	0.036750
9.950000	1	0.037000
9.966667	1	0.036750
9.983333	1	0.037125
10.000000	1	0.037000
10.016667	1	0.037000
10.033333	1	0.037750
10.050000	1	0.038750
10.066667	1	0.040875
10.083333	1	0.043375
10.100000	1	0.046625
10.116667	1	0.051500
10.133333	1	0.056625
10.150000	1	0.062875
10.166667	1	0.070000
10.183333	1	0.079500
10.200000	1	0.090250
10.216667	1	0.102000
10.233333	1	0.115250
10.250000	1	0.131000
10.266667	1	0.148750
10.283333	1	0.169875
10.300000	1	0.192750
10.316667	1	0.218625
10.333333	1	0.247500
10.350000	1	0.279625
10.366667	1	0.314625
10.383333	1	0.351875
10.400000	1	0.389375
10.416667	1	0.423000
10.433333	1	0.445625
10.450000	1	0.447750
10.466667	1	0.421125
10.483333	1	0.364375
10.500000	1	0.290250
10.516667	1	0.231375
10.533333	1	0.245750
10.550000	1	0.410250
10.566667	1	0.813000
10.583333	1	1.545375
10.600000	1	2.688625
10.616667	1	4.312375
10.633333	1	6.459750
10.650000	1	9.156375
10.666667	1	12.410875
10.683333	1	16.210000
10.700000	1	20.517000
10.716667	1	25.262000
10.733333	1	30.329125
10.750000	1	35.544625
10.766667	1	40.653250
10.783333	1	45.320000
10.800000	1	49.138875
10.816667	1	51.684000
10.833333	1	52.617250
10.850000	1	51.789250
10.866667	1	49.301500
10.883333	1	45.484875
10.900000	1	40.806375
10.916667	1	35.752500
10.933333	1	30.729375
10.950000	1	26.019500
10.966667	1	21.788000
10.983333	1	18.108000
11.000000	1	14.987750
11.016667	1	12.395500
11.033333	1	10.278375
11.050000	1	8.571750
11.066667	1	7.208250
11.083333	1	6.121625
11.100000	1	5.257250
11.116667	1	4.567375
11.133333	1	4.013250
11.150000	1	3.565750
11.166667	1	3.199625
11.183333	1	2.898625
11.200000	1	2.647625
11.216667	1	2.436875
11.233333	1	2.258500
11.250000	1	2.106125
11.266667	1	1.973750
11.283333	1	1.859625
11.300000	1	1.759625
11.316667	1	1.671500
11.333333	1	1.595000
11.350000	1	1.527500
11.366667	1	1.468125
11.383333	1	1.415750
11.400000	1	1.369375
11.416667	1	1.329125
11.433333	1	1.293000
11.450000	1	1.261375
11.466667	1	1.233875
11.483333	1	1.208875
11.500000	1	1.187625
11.516667	1	1.168875
11.533333	1	1.153375
11.550000	1	1.139875
11.566667	1	1.128250
11.583333	1	1.118250
11.600000	1	1.110125
11.616667	1	1.103375
11.633333	1	1.097375
11.650000	1	1.092750
11.666667	1	1.088875
11.683333	1	1.086125
11.700000	1	1.083875
11.716667	1	1.082375
11.733333	1	1.082625
11.750000	1	1.083250
11.766667	1	1.084125
11.783333	1	1.086375
11.800000	1	1.088375
11.816667	1	1.091000
11.833333	1	1.093875
11.850000	1	1.096375
11.866667	1	1.098750
11.883333	1	1.100250
11.900000	1	1.102250
11.916667	1	1.105250
11.933333	1	1.106750
11.950000	1	1.109250
11.966667	1	1.111750
11.983333	1	1.114625
12.000000	1	1.117625
12.016667	1	1.121625
12.033333	1	1.125500
12.050000	1	1.129750
12.066667	1	1.134750
12.083333	1	1.140250
12.100000	1	1.146375
12.116667	1	1.152750
12.133333	1	1.159125
12.150000	1	1.166500
12.166667	1	1.175000
12.183333	1	1.185375
12.200000	1	1.197250
12.216667	1	1.211000
12.233333	1	1.227250
12.250000	1	1.245875
12.266667	1	1.266125
12.283333	1	1.288500
12.300000	1	1.313750
12.316667	1	1.341500
12.333333	1	1.373875
12.350000	1	1.409875
12.366667	1	1.453250
12.383333	1	1.508125
12.400000	1	1.578375
12.416667	1	1.670750
12.433333	1	1.792625
12.450000	1	1.952625
12.466667	1	2.158625
12.483333	1	2.418375
12.500000	1	2.737375
12.516667	1	3.118250
12.533333	1	3.561125
12.550000	1	4.062250
12.566667	1	4.612125
12.583333	1	5.199750
12.600000	1	5.809375
12.616667	1	6.425875
12.633333	1	7.034375
12.650000	1	7.622875
12.666667	1	8.182000
12.683333	1	8.705375
12.700000	1	9.190625
12.716667	1	9.639875
12.733333	1	10.055250
12.750000	1	10.439375
12.766667	1	10.791250
12.783333	1	11.100625
12.800000	1	11.345125
12.816667	1	11.487625
12.833333	1	11.483500
12.850000	1	11.289625
12.866667	1	10.887750
12.883333	1	10.293500
12.900000	1	9.559125
12.916667	1	8.752375
12.933333	1	7.938625
12.950000	1	7.160625
12.966667	1	6.444125
12.983333	1	5.797250
13.000000	1	5.223500
13.016667	1	4.719375
13.033333	1	4.282125
13.050000	1	3.906000
13.066667	1	3.585875
13.083333	1	3.314875
13.100000	1	3.085750
13.116667	1	2.893125
13.133333	1	2.730625
13.150000	1	2.592125
13.166667	1	2.473375
13.183333	1	2.370750
13.200000	1	2.281000
13.216667	1	2.201625
13.233333	1	2.131000
13.250000	1	2.068000
13.266667	1	2.010125
13.283333	1	1.957125
13.300000	1	1.907375
13.316667	1	1.861750
13.333333	1	1.819500
13.350000	1	1.780750
13.366667	1	1.745250
13.383333	1	1.712750
13.400000	1	1.682875
13.416667	1	1.656750
13.433333	1	1.633500
13.450000	1	1.613375
13.466667	1	1.596875
13.483333	1	1.583875
13.500000	1	1.573625
13.516667	1	1.566500
13.533333	1	1.560750
13.550000	1	1.556500
13.566667	1	1.553500
13.583333	1	1.550250
13.600000	1	1.546500
13.616667	1	1.540375
13.633333	1	1.533125
13.650000	1	1.522250
13.666667	1	1.508625
13.683333	1	1.492875
13.700000	1	1.475125
13.716667	1	1.455250
13.733333	1	1.434375
13.750000	1	1.412250
13.766667	1	1.390250
13.783333	1	1.368375
13.800000	1	1.346375
13.816667	1	1.325625
13.833333	1	1.304875
13.850000	1	1.285750
13.866667	1	1.266375
13.883333	1	1.249125
13.900000	1	1.233000
13.916667	1	1.217375
13.933333	1	1.202250
13.950000	1	1.188250
13.966667	1	1.174625
13.983333	1	1.161625
14.000000	1	1.148875
14.016667	1	1.137625
14.033333	1	1.126625
14.050000	1	1.116500
14.066667	1	1.106125
14.083333	1	1.096875
14.100000	1	1.087375
14.116667	1	1.078375
14.133333	1	1.069875
14.150000	1	1.061875
14.166667	1	1.054000
14.183333	1	1.046750
14.200000	1	1.041625
14.216667	1	1.036625
14.233333	1	1.033000
14.250000	1	1.030375
14.266667	1	1.029000
14.283333	1	1.028625
14.300000	1	1.029625
14.316667	1	1.032125
14.333333	1	1.036125
14.350000	1	1.041625
14.366667	1	1.049125
14.383333	1	1.058625
14.400000	1	1.070625
14.416667	1	1.086750
14.433333	1	1.109500
14.450000	1	1.141875
14.466667	1	1.191125
14.483333	1	1.266750
14.500000	1	1.383875
14.516667	1	1.563125
14.533333	1	1.833000
14.550000	1	2.232125
14.566667	1	2.806625
14.583333	1	3.613250
14.600000	1	4.716000
14.616667	1	6.185750
14.633333	1	8.091250
14.650000	1	10.495750
14.666667	1	13.443500
14.683333	1	16.951125
14.700000	1	20.995125
14.716667	1	25.508875
14.733333	1	30.381750
14.750000	1	35.458625
14.766667	1	40.541000
14.783333	1	45.409500
14.800000	1	49.840875
14.816667	1	53.625125
14.833333	1	56.581875
14.850000	1	58.575250
14.866667	1	59.527375
14.883333	1	59.426625
14.900000	1	58.323750
14.916667	1	56.327000
14.933333	1	53.587500
14.950000	1	50.277375
14.966667	1	46.578000
14.983333	1	42.664500
15.000000	1	38.687250
15.016667	1	34.769375
15.033333	1	31.006750
15.050000	1	27.471875
15.066667	1	24.208875
15.083333	1	21.242000
15.100000	1	18.577000
15.116667	1	16.207875
15.133333	1	14.116250
15.150000	1	12.281500
15.166667	1	10.679125
15.183333	1	9.286250
15.200000	1	8.079125
15.216667	1	7.034875
15.233333	1	6.135375
15.250000	1	5.364625
15.266667	1	4.706375
15.283333	1	4.149500
15.300000	1	3.682250
15.316667	1	3.293500
15.333333	1	2.974625
15.350000	1	2.715375
15.366667	1	2.507875
15.383333	1	2.344500
15.400000	1	2.217625
15.416667	1	2.120375
15.433333	1	2.046500
15.450000	1	1.988875
15.466667	1	1.942750
15.483333	1	1.903125
15.500000	1	1.866750
15.516667	1	1.830875
15.533333	1	1.793750
15.550000	1	1.754375
15.566667	1	1.713250
15.583333	1	1.670500
15.600000	1	1.626000
15.616667	1	1.582625
15.633333	1	1.540500
15.650000	1	1.499875
15.666667	1	1.461625
15.683333	1	1.425625
15.700000	1	1.392500
15.716667	1	1.362000
15.733333	1	1.332875
15.750000	1	1.306250
15.766667	1	1.281375
15.783333	1	1.258375
15.800000	1	1.236875
15.816667	1	1.216750
15.833333	1	1.198125
15.850000	1	1.182000
15.866667	1	1.167375
15.883333	1	1.153125
15.900000	1	1.140750
15.916667	1	1.130000
15.933333	1	1.120375
15.950000	1	1.113500
15.966667	1	1.108125
15.983333	1	1.104500
16.000000	1	1.102000
16.016667	1	1.099625
16.033333	1	1.098500
16.050000	1	1.097750
16.066667	1	1.097375
16.083333	1	1.098375
16.100000	1	1.097875
16.116667	1	1.098125
16.133333	1	1.097500
16.150000	1	1.097125
16.166667	1	1.095250
16.183333	1	1.093250
16.200000	1	1.091250
16.216667	1	1.087875
16.233333	1	1.084250
16.250000	1	1.079500
16.266667	1	1.074000
16.283333	1	1.067625
16.300000	1	1.061625
16.316667	1	1.055625
16.333333	1	1.050250
16.350000	1	1.044375
16.366667	1	1.040375
16.383333	1	1.037500
16.400000	1	1.035875
16.416667	1	1.035375
16.433333	1	1.035750
16.450000	1	1.037500
16.466667	1	1.040125
16.483333	1	1.043125
16.500000	1	1.046875
16.516667	1	1.049750
16.533333	1	1.052250
16.550000	1	1.053625
16.566667	1	1.053250
16.583333	1	1.052125
16.600000	1	1.050125
16.616667	1	1.047625
16.633333	1	1.043625
16.650000	1	1.040000
16.666667	1	1.036000
16.683333	1	1.033000
16.700000	1	1.030875
16.716667	1	1.030375
16.733333	1	1.030500
16.750000	1	1.033250
16.766667	1	1.038000
16.783333	1	1.043125
16.800000	1	1.049625
16.816667	1	1.056875
16.833333	1	1.064625
16.850000	1	1.071625
16.866667	1	1.077875
16.883333	1	1.082500
16.900000	1	1.086750
16.916667	1	1.088250
16.933333	1	1.087875
16.950000	1	1.086625
16.966667	1	1.083750
16.983333	1	1.079250
17.000000	1	1.074250
17.016667	1	1.068375
17.033333	1	1.061750
17.050000	1	1.055125
17.066667	1	1.049125
17.083333	1	1.043500
17.100000	1	1.038500
17.116667	1	1.034375
17.133333	1	1.030500
17.150000	1	1.027125
17.166667	1	1.025000
17.183333	1	1.023500
17.200000	1	1.023250
17.216667	1	1.022875
17.233333	1	1.023125
17.250000	1	1.023500
17.266667	1	1.025000
17.283333	1	1.026875
17.300000	1	1.028625
17.316667	1	1.032250
17.333333	1	1.036000
17.350000	1	1.040375
17.366667	1	1.045375
17.383333	1	1.049750
17.400000	1	1.053625
17.416667	1	1.057375
17.433333	1	1.060625
17.450000	1	1.063875
17.466667	1	1.065125
17.483333	1	1.065875
17.500000	1	1.065000
17.516667	1	1.063625
17.533333	1	1.060375
17.550000	1	1.055125
17.566667	1	1.049375
17.583333	1	1.043000
17.600000	1	1.034875
17.616667	1	1.025875
17.633333	1	1.016500
17.650000	1	1.005750
17.666667	1	0.995250
17.683333	1	0.984125
17.700000	1	0.972625
17.716667	1	0.960875
17.733333	1	0.950000
17.750000	1	0.939500
17.766667	1	0.929000
17.783333	1	0.918750
17.800000	1	0.909125
17.816667	1	0.899250
17.833333	1	0.890625
17.850000	1	0.881750
17.866667	1	0.874125
17.883333	1	0.866375
17.900000	1	0.859125
17.916667	1	0.851375
17.933333	1	0.844375
17.950000	1	0.837750
17.966667	1	0.830750
17.983333	1	0.823375
18.000000	1	0.815875
18.016667	1	0.808875
18.033333	1	0.801875
18.050000	1	0.795750
18.066667	1	0.788375
18.083333	1	0.782875
18.100000	1	0.777000
18.116667	1	0.772375
18.133333	1	0.768000
18.150000	1	0.765375
18.166667	1	0.763500
18.183333	1	0.762375
18.200000	1	0.761000
18.216667	1	0.760250
18.233333	1	0.759500
18.250000	1	0.759375
18.266667	1	0.758750
18.283333	1	0.759000
18.300000	1	0.759625
18.316667	1	0.758750
18.333333	1	0.758875
18.350000	1	0.759375
18.366667	1	0.760375
18.383333	1	0.761125
18.400000	1	0.763250
18.416667	1	0.764875
18.433333	1	0.768125
18.450000	1	0.771875
18.466667	1	0.777125
18.483333	1	0.782875
18.500000	1	0.790250
18.516667	1	0.798500
18.533333	1	0.807375
18.550000	1	0.816750
18.566667	1	0.827500
18.583333	1	0.838250
18.600000	1	0.850125
18.616667	1	0.861625
18.633333	1	0.872500
18.650000	1	0.883500
18.666667	1	0.894125
18.683333	1	0.903875
18.700000	1	0.912750
18.716667	1	0.921125
18.733333	1	0.928250
18.750000	1	0.933375
18.766667	1	0.937875
18.783333	1	0.940750
18.800000	1	0.941250
18.816667	1	0.939875
18.833333	1	0.936875
18.850000	1	0.931750
18.866667	1	0.924250
18.883333	1	0.915500
18.900000	1	0.905375
18.916667	1	0.892500
18.933333	1	0.878625
18.950000	1	0.863875
18.966667	1	0.848000
18.983333	1	0.832000
19.000000	1	0.814500
19.016667	1	0.797125
19.033333	1	0.779750
19.050000	1	0.762500
19.066667	1	0.747375
19.083333	1	0.733250
19.100000	1	0.721750
19.116667	1	0.712875
19.133333	1	0.707750
19.150000	1	0.706375
19.166667	1	0.711000
19.183333	1	0.723000
19.200000	1	0.742500
19.216667	1	0.771625
19.233333	1	0.812375
19.250000	1	0.865625
19.266667	1	0.932875
19.283333	1	1.013875
19.300000	1	1.109250
19.316667	1	1.218125
19.333333	1	1.339750
19.350000	1	1.472500
19.366667	1	1.615250
19.383333	1	1.764250
19.400000	1	1.915000
19.416667	1	2.064500
19.433333	1	2.207750
19.450000	1	2.340375
19.466667	1	2.458000
19.483333	1	2.557625
19.500000	1	2.636000
19.516667	1	2.690750
19.533333	1	2.721375
19.550000	1	2.727875
19.566667	1	2.710250
19.583333	1	2.671500
19.600000	1	2.613000
19.616667	1	2.537250
19.633333	1	2.447875
19.650000	1	2.348125
19.666667	1	2.240250
19.683333	1	2.127500
19.700000	1	2.013000
19.716667	1	1.898625
19.733333	1	1.786750
19.750000	1	1.678875
19.766667	1	1.575875
19.783333	1	1.477375
19.800000	1	1.385250
19.816667	1	1.298375
19.833333	1	1.219125
19.850000	1	1.147125
19.866667	1	1.082000
19.883333	1	1.024750
19.900000	1	0.975375
19.916667	1	0.935125
19.933333	1	0.904500
19.950000	1	0.884250
19.966667	1	0.876625
19.983333	1	0.882250
20.000000	1	0.903875
20.016667	1	0.943875
20.033333	1	1.001375
20.050000	1	1.081625
20.066667	1	1.183125
20.083333	1	1.306875
20.100000	1	1.453125
20.116667	1	1.621125
20.133333	1	1.809500
20.150000	1	2.014500
20.166667	1	2.231875
20.183333	1	2.456625
20.200000	1	2.681375
20.216667	1	2.901250
20.233333	1	3.107875
20.250000	1	3.294500
20.266667	1	3.455500
20.283333	1	3.585250
20.300000	1	3.679375
20.316667	1	3.735875
20.333333	1	3.753375
20.350000	1	3.732750
20.366667	1	3.675000
20.383333	1	3.584500
20.400000	1	3.465000
20.416667	1	3.322375
20.433333	1	3.161250
20.450000	1	2.988125
20.466667	1	2.808625
20.483333	1	2.628250
20.500000	1	2.452375
20.516667	1	2.283500
20.533333	1	2.125875
20.550000	1	1.981500
20.566667	1	1.853375
20.583333	1	1.742250
20.600000	1	1.650000
20.616667	1	1.578125
20.633333	1	1.525875
20.650000	1	1.494000
20.666667	1	1.482625
20.683333	1	1.489875
20.700000	1	1.513625
20.716667	1	1.554000
20.733333	1	1.607375
20.750000	1	1.672000
20.766667	1	1.743500
20.783333	1	1.819500
20.800000	1	1.895250
20.816667	1	1.968250
20.833333	1	2.033500
20.850000	1	2.088750
20.866667	1	2.130875
20.883333	1	2.157875
20.900000	1	2.168625
20.916667	1	2.162625
20.933333	1	2.139625
20.950000	1	2.101000
20.966667	1	2.048250
20.983333	1	1.982750
21.000000	1	1.906250
21.016667	1	1.822750
21.033333	1	1.733750
21.050000	1	1.641500
21.066667	1	1.548250
21.083333	1	1.456250
21.100000	1	1.367000
21.116667	1	1.280750
21.133333	1	1.199000
21.150000	1	1.121875
21.166667	1	1.051000
21.183333	1	0.985500
21.200000	1	0.925125
21.216667	1	0.870500
21.233333	1	0.820625
21.250000	1	0.776000
21.266667	1	0.734875
21.283333	1	0.697750
21.300000	1	0.664875
21.316667	1	0.636000
21.333333	1	0.609250
21.350000	1	0.586125
21.366667	1	0.565250
21.383333	1	0.546125
21.400000	1	0.529000
21.416667	1	0.514375
21.433333	1	0.500875
21.450000	1	0.489375
21.466667	1	0.478750
21.483333	1	0.469750
21.500000	1	0.462750
21.516667	1	0.458500
21.533333	1	0.455500
21.550000	1	0.454750
21.566667	1	0.456000
21.583333	1	0.460000
21.600000	1	0.466750
21.616667	1	0.476750
21.633333	1	0.489750
21.650000	1	0.506375
21.666667	1	0.527125
21.683333	1	0.552875
21.700000	1	0.582000
21.716667	1	0.615250
21.733333	1	0.652625
21.750000	1	0.693500
21.766667	1	0.737500
21.783333	1	0.784500
21.800000	1	0.832375
21.816667	1	0.881375
21.833333	1	0.930125
21.850000	1	0.978250
21.866667	1	1.023375
21.883333	1	1.066000
21.900000	1	1.104875
21.916667	1	1.137625
21.933333	1	1.165625
21.950000	1	1.188125
21.966667	1	1.203875
21.983333	1	1.213750
22.000000	1	1.217250
22.016667	1	1.214750
22.033333	1	1.206125
22.050000	1	1.193250
22.066667	1	1.175000
22.083333	1	1.152875
22.100000	1	1.128500
22.116667	1	1.101250
22.133333	1	1.071750
22.150000	1	1.041375
22.166667	1	1.009875
22.183333	1	0.978000
22.200000	1	0.945875
22.216667	1	0.914000
22.233333	1	0.882000
22.250000	1	0.850875
22.266667	1	0.820500
22.283333	1	0.790125
22.300000	1	0.760625
22.316667	1	0.731625
22.333333	1	0.703750
22.350000	1	0.677250
22.366667	1	0.651125
22.383333	1	0.626375
22.400000	1	0.602625
22.416667	1	0.580625
22.433333	1	0.559625
22.450000	1	0.539250
22.466667	1	0.520875
22.483333	1	0.503500
22.500000	1	0.488375
22.516667	1	0.474125
22.533333	1	0.461250
22.550000	1	0.448625
22.566667	1	0.436500
22.583333	1	0.426000
22.600000	1	0.416500
22.616667	1	0.408000
22.633333	1	0.399375
22.650000	1	0.391750
22.666667	1	0.384625
22.683333	1	0.377750
22.700000	1	0.371250
22.716667	1	0.365625
22.733333	1	0.359750
22.750000	1	0.354500
22.766667	1	0.349500
22.783333	1	0.344875
22.800000	1	0.340375
22.816667	1	0.336125
22.833333	1	0.332500
22.850000	1	0.328250
22.866667	1	0.325000
22.883333	1	0.321875
22.900000	1	0.318625
22.916667	1	0.315875
22.933333	1	0.313500
22.950000	1	0.311500
22.966667	1	0.309875
22.983333	1	0.308500
23.000000	1	0.308000
23.016667	1	0.307750
23.033333	1	0.308000
23.050000	1	0.307750
23.066667	1	0.308000
23.083333	1	0.309000
23.100000	1	0.310625
23.116667	1	0.312125
23.133333	1	0.313250
23.150000	1	0.314500
23.166667	1	0.316875
23.183333	1	0.317625
23.200000	1	0.319125
23.216667	1	0.321250
23.233333	1	0.322750
23.250000	1	0.324625
23.266667	1	0.327375
23.283333	1	0.330875
23.300000	1	0.335500
23.316667	1	0.341750
23.333333	1	0.350375
23.350000	1	0.361375
23.366667	1	0.377000
23.383333	1	0.397125
23.400000	1	0.424000
23.416667	1	0.458625
23.433333	1	0.503625
23.450000	1	0.559500
23.466667	1	0.629500
23.483333	1	0.715750
23.500000	1	0.820750
23.516667	1	0.946375
23.533333	1	1.094250
23.550000	1	1.266500
23.566667	1	1.463375
23.583333	1	1.686625
23.600000	1	1.934750
23.616667	1	2.207250
23.633333	1	2.500750
23.650000	1	2.813250
23.666667	1	3.139500
23.683333	1	3.474250
23.700000	1	3.811000
23.716667	1	4.144375
23.733333	1	4.467375
23.750000	1	4.771375
23.766667	1	5.049750
23.783333	1	5.296250
23.800000	1	5.505500
23.816667	1	5.671750
23.833333	1	5.793375
23.850000	1	5.867250
23.866667	1	5.893500
23.883333	1	5.871875
23.900000	1	5.805250
23.916667	1	5.696250
23.933333	1	5.549250
23.950000	1	5.368750
23.966667	1	5.160875
23.983333	1	4.930500
24.000000	1	4.683750
24.016667	1	4.425625
24.033333	1	4.161875
24.050000	1	3.896125
24.066667	1	3.633000
24.083333	1	3.375500
24.100000	1	3.125875
24.116667	1	2.886625
24.133333	1	2.659500
24.150000	1	2.445250
24.166667	1	2.244375
24.183333	1	2.057250
24.200000	1	1.884375
24.216667	1	1.725250
24.233333	1	1.579500
24.250000	1	1.446500
24.266667	1	1.325250
24.283333	1	1.215250
24.300000	1	1.115750
24.316667	1	1.026625
24.333333	1	0.946750
24.350000	1	0.876125
24.366667	1	0.813000
24.383333	1	0.757375
24.400000	1	0.707750
24.416667	1	0.665000
24.433333	1	0.627500
24.450000	1	0.595375
24.466667	1	0.568125
24.483333	1	0.545125
24.500000	1	0.525750
24.516667	1	0.509250
24.533333	1	0.495250
24.550000	1	0.483875
24.566667	1	0.474125
24.583333	1	0.465375
24.600000	1	0.458250
24.616667	1	0.451500
24.633333	1	0.445875
24.650000	1	0.440375
24.666667	1	0.435500
24.683333	1	0.431125
24.700000	1	0.427125
24.716667	1	0.423000
24.733333	1	0.418875
24.750000	1	0.414375
24.766667	1	0.409875
24.783333	1	0.406125
24.800000	1	0.401750
24.816667	1	0.397375
24.833333	1	0.393125
24.850000	1	0.389000
24.866667	1	0.384750
24.883333	1	0.381250
24.900000	1	0.377125
24.916667	1	0.374250
24.933333	1	0.370875
24.950000	1	0.367625
24.966667	1	0.363875
24.983333	1	0.361000
25.000000	1	0.357625
25.016667	1	0.355000
25.033333	1	0.351625
25.050000	1	0.348000
25.066667	1	0.345250
25.083333	1	0.342125
25.100000	1	0.339000
25.116667	1	0.336375
25.133333	1	0.332750
25.150000	1	0.328875
25.166667	1	0.325000
25.183333	1	0.329875
25.200000	1	0.347750
25.216667	1	0.333375
25.233333	1	0.322375
25.250000	1	0.314250
25.266667	1	0.308625
25.283333	1	0.303750
25.300000	1	0.300000
25.316667	1	0.296125
25.333333	1	0.292625
25.350000	1	0.289875
25.366667	1	0.287625
25.383333	1	0.285125
25.400000	1	0.282500
25.416667	1	0.280750
25.433333	1	0.279375
25.450000	1	0.278875
25.466667	1	0.278375
25.483333	1	0.278875
25.500000	1	0.279000
25.516667	1	0.279500
25.533333	1	0.280500
25.550000	1	0.281625
25.566667	1	0.283125
25.583333	1	0.284125
25.600000	1	0.285750
25.616667	1	0.287625
25.633333	1	0.289250
25.650000	1	0.291625
25.666667	1	0.293625
25.683333	1	0.295500
25.700000	1	0.296750
25.716667	1	0.298875
25.733333	1	0.300500
25.750000	1	0.302125
25.766667	1	0.303000
25.783333	1	0.304000
25.800000	1	0.305375
25.816667	1	0.306500
25.833333	1	0.307125
25.850000	1	0.307125
25.866667	1	0.307125
25.883333	1	0.307875
25.900000	1	0.308000
25.916667	1	0.308375
25.933333	1	0.308500
25.950000	1	0.308375
25.966667	1	0.308500
25.983333	1	0.308500
26.000000	1	0.308625
26.016667	1	0.308750
26.033333	1	0.309250
26.050000	1	0.309875
26.066667	1	0.310500
26.083333	1	0.311125
26.100000	1	0.311625
26.116667	1	0.313125
26.133333	1	0.314375
26.150000	1	0.316000
26.166667	1	0.317250
26.183333	1	0.319500
26.200000	1	0.321500
26.216667	1	0.323750
26.233333	1	0.326125
26.250000	1	0.328875
26.266667	1	0.330625
26.283333	1	0.332750
26.300000	1	0.334875
26.316667	1	0.337125
26.333333	1	0.339250
26.350000	1	0.340750
26.366667	1	0.342000
26.383333	1	0.343500
26.400000	1	0.344750
26.416667	1	0.345500
26.433333	1	0.345250
26.450000	1	0.345375
26.466667	1	0.345125
26.483333	1	0.344125
26.500000	1	0.342625
26.516667	1	0.340750
26.533333	1	0.338875
26.550000	1	0.336125
26.566667	1	0.333000
26.583333	1	0.329500
26.600000	1	0.326000
26.616667	1	0.322125
26.633333	1	0.318000
26.650000	1	0.314000
26.666667	1	0.309500
26.683333	1	0.305250
26.700000	1	0.300250
26.716667	1	0.296250
26.733333	1	0.292125
26.750000	1	0.287750
26.766667	1	0.284000
26.783333	1	0.279625
26.800000	1	0.275750
26.816667	1	0.272500
26.833333	1	0.269875
26.850000	1	0.266625
26.866667	1	0.263625
26.883333	1	0.261250
26.900000	1	0.259375
26.916667	1	0.257750
26.933333	1	0.256250
26.950000	1	0.255750
26.966667	1	0.254875
26.983333	1	0.254750
27.000000	1	0.254625
27.016667	1	0.255625
27.033333	1	0.255750
27.050000	1	0.257250
27.066667	1	0.259125
27.083333	1	0.261625
27.100000	1	0.264625
27.116667	1	0.268125
27.133333	1	0.272375
27.150000	1	0.277000
27.166667	1	0.282875
27.183333	1	0.290125
27.200000	1	0.298000
27.216667	1	0.308125
27.233333	1	0.318875
27.250000	1	0.332625
27.266667	1	0.348875
27.283333	1	0.367875
27.300000	1	0.390375
27.316667	1	0.416875
27.333333	1	0.447875
27.350000	1	0.484125
27.366667	1	0.527625
27.383333	1	0.577875
27.400000	1	0.636750
27.416667	1	0.704625
27.433333	1	0.783500
27.450000	1	0.874250
27.466667	1	0.977375
27.483333	1	1.092875
27.500000	1	1.223000
27.516667	1	1.366375
27.533333	1	1.524875
27.550000	1	1.698625
27.566667	1	1.886250
27.583333	1	2.087625
27.600000	1	2.301000
27.616667	1	2.526375
27.633333	1	2.761250
27.650000	1	3.004250
27.666667	1	3.251875
27.683333	1	3.502125
27.700000	1	3.750750
27.716667	1	3.994875
27.733333	1	4.229750
27.750000	1	4.453625
27.766667	1	4.661125
27.783333	1	4.849750
27.800000	1	5.016000
27.816667	1	5.157000
27.833333	1	5.270375
27.850000	1	5.353125
27.866667	1	5.403625
27.883333	1	5.423000
27.900000	1	5.410375
27.916667	1	5.366000
27.933333	1	5.291375
27.950000	1	5.188000
27.966667	1	5.058500
27.983333	1	4.905750
28.000000	1	4.733375
28.016667	1	4.544375
28.033333	1	4.342625
28.050000	1	4.130000
28.066667	1	3.911000
28.083333	1	3.688625
28.100000	1	3.466250
28.116667	1	3.246000
28.133333	1	3.030250
28.150000	1	2.821000
28.166667	1	2.620250
28.183333	1	2.429375
28.200000	1	2.248500
28.216667	1	2.077750
28.233333	1	1.917125
28.250000	1	1.767750
28.266667	1	1.628750
28.283333	1	1.499625
28.300000	1	1.380500
28.316667	1	1.271375
28.333333	1	1.170875
28.350000	1	1.078625
28.366667	1	0.994375
28.383333	1	0.918375
28.400000	1	0.850000
28.416667	1	0.787500
28.433333	1	0.731625
28.450000	1	0.679625
28.466667	1	0.633375
28.483333	1	0.592125
28.500000	1	0.555625
28.516667	1	0.522750
28.533333	1	0.494500
28.550000	1	0.469500
28.566667	1	0.447625
28.583333	1	0.428875
28.600000	1	0.412750
28.616667	1	0.398625
28.633333	1	0.388250
28.650000	1	0.378125
28.666667	1	0.371500
28.683333	1	0.365750
28.700000	1	0.361500
28.716667	1	0.358125
28.733333	1	0.356625
28.750000	1	0.355875
28.766667	1	0.356125
28.783333	1	0.357750
28.800000	1	0.360000
28.816667	1	0.362000
28.833333	1	0.364875
28.850000	1	0.368250
28.866667	1	0.371375
28.883333	1	0.374500
28.900000	1	0.376750
28.916667	1	0.379625
28.933333	1	0.382500
28.950000	1	0.384375
28.966667	1	0.386500
28.983333	1	0.388125
29.000000	1	0.388625
29.016667	1	0.389000
29.033333	1	0.388875
29.050000	1	0.386875
29.066667	1	0.384625
29.083333	1	0.381000
29.100000	1	0.375875
29.116667	1	0.370625
29.133333	1	0.363125
29.150000	1	0.354500
29.166667	1	0.343875
29.183333	1	0.332750
29.200000	1	0.318500
29.216667	1	0.303125
29.233333	1	0.286375
29.250000	1	0.266875
29.266667	1	0.245625
29.283333	1	0.222875
29.300000	1	0.197500
29.316667	1	0.169375
29.333333	1	0.140375
29.350000	1	0.108625
29.366667	1	0.074375
29.383333	1	0.038750
29.400000	1	0.001875
29.416667	1	-0.037625
29.433333	1	-0.077625
29.450000	1	-0.119500
29.466667	1	-0.161750
29.483333	1	-0.205000
29.500000	1	-0.248875
29.516667	1	-0.293000
29.533333	1	-0.335875
29.550000	1	-0.378375
29.566667	1	-0.419375
29.583333	1	-0.459250
29.600000	1	-0.496500
29.616667	1	-0.531625
29.633333	1	-0.564625
29.650000	1	-0.594625
29.666667	1	-0.621500
29.683333	1	-0.645000
29.700000	1	-0.665375
29.716667	1	-0.681375
29.733333	1	-0.693875
29.750000	1	-0.702125
29.766667	1	-0.706375
29.783333	1	-0.707375
29.800000	1	-0.704375
29.816667	1	-0.697125
29.833333	1	-0.687375
29.850000	1	-0.674125
29.866667	1	-0.658000
29.883333	1	-0.638625
29.900000	1	-0.617750
29.916667	1	-0.594500
29.933333	1	-0.569750
29.950000	1	-0.543625
29.966667	1	-0.516000
29.983333	1	-0.487000
30.000000	1	-0.457500
30.016667	1	-0.427375
30.033333	1	-0.397000
30.050000	1	-0.367375
30.066667	1	-0.337625
30.083333	1	-0.309250
30.100000	1	-0.281750
30.116667	1	-0.255125
30.133333	1	-0.228500
30.150000	1	-0.203625
30.166667	1	-0.179625
30.183333	1	-0.156000
30.200000	1	-0.134375
30.216667	1	-0.113375
30.233333	1	-0.093125
30.250000	1	-0.074250
30.266667	1	-0.056875
30.283333	1	-0.040625
30.300000	1	-0.025625
30.316667	1	-0.011250
30.333333	1	0.001125
30.350000	1	0.013875
30.366667	1	0.026125
30.383333	1	0.037250
30.400000	1	0.047000
30.416667	1	0.057375
30.433333	1	0.066375
30.450000	1	0.075250
30.466667	1	0.083750
30.483333	1	0.091375
30.500000	1	0.099250
30.516667	1	0.107250
30.533333	1	0.115375
30.550000	1	0.122250
30.566667	1	0.129625
30.583333	1	0.137375
30.600000	1	0.144750
30.616667	1	0.152375
30.633333	1	0.160750
30.650000	1	0.168500
30.666667	1	0.177125
30.683333	1	0.186250
30.700000	1	0.194875
30.716667	1	0.203125
30.733333	1	0.212000
30.750000	1	0.221000
30.766667	1	0.230375
30.783333	1	0.239125
30.800000	1	0.248625
30.816667	1	0.257375
30.833333	1	0.267875
30.850000	1	0.278375
30.866667	1	0.288875
30.883333	1	0.300000
30.900000	1	0.312250
30.916667	1	0.324875
30.933333	1	0.338750
30.950000	1	0.354375
30.966667	1	0.371750
30.983333	1	0.390375
31.000000	1	0.412000
31.016667	1	0.437500
31.033333	1	0.465625
31.050000	1	0.498375
31.066667	1	0.535250
31.083333	1	0.577875
31.100000	1	0.626875
31.116667	1	0.683125
31.133333	1	0.746875
31.150000	1	0.819375
31.166667	1	0.900250
31.183333	1	0.991375
31.200000	1	1.093625
31.216667	1	1.206750
31.233333	1	1.331125
31.250000	1	1.467875
31.266667	1	1.615250
31.283333	1	1.773625
31.300000	1	1.942875
31.316667	1	2.122125
31.333333	1	2.310125
31.350000	1	2.506125
31.366667	1	2.708250
31.383333	1	2.914125
31.400000	1	3.123500
31.416667	1	3.333125
31.433333	1	3.540625
31.450000	1	3.743750
31.466667	1	3.939625
31.483333	1	4.125625
31.500000	1	4.299000
31.516667	1	4.457500
31.533333	1	4.600250
31.550000	1	4.724750
31.566667	1	4.829250
31.583333	1	4.913500
31.600000	1	4.976875
31.616667	1	5.017250
31.633333	1	5.034875
31.650000	1	5.030250
31.666667	1	5.003375
31.683333	1	4.955750
31.700000	1	4.889000
31.716667	1	4.803750
31.733333	1	4.701125
31.750000	1	4.584000
31.766667	1	4.453500
31.783333	1	4.312000
31.800000	1	4.159500
31.816667	1	4.000250
31.833333	1	3.834750
31.850000	1	3.666125
31.866667	1	3.493875
31.883333	1	3.321750
31.900000	1	3.150375
31.916667	1	2.980750
31.933333	1	2.813875
31.950000	1	2.651750
31.966667	1	2.493750
31.983333	1	2.341000
32.000000	1	2.193375
32.016667	1	2.051750
32.033333	1	1.916625
32.050000	1	1.787750
32.066667	1	1.665500
32.083333	1	1.549250
32.100000	1	1.439625
32.116667	1	1.335750
32.133333	1	1.238875
32.150000	1	1.146875
32.166667	1	1.061500
32.183333	1	0.980625
32.200000	1	0.904875
32.216667	1	0.834500
32.233333	1	0.768250
32.250000	1	0.707500
32.266667	1	0.649875
32.283333	1	0.596625
32.300000	1	0.547375
32.316667	1	0.502250
32.333333	1	0.460750
32.350000	1	0.422125
32.366667	1	0.386750
32.383333	1	0.354000
32.400000	1	0.323875
32.416667	1	0.296500
32.433333	1	0.272125
32.450000	1	0.249625
32.466667	1	0.228875
32.483333	1	0.210375
32.500000	1	0.193625
32.516667	1	0.178250
32.533333	1	0.164500
32.550000	1	0.152500
32.566667	1	0.141750
32.583333	1	0.132500
32.600000	1	0.123875
32.616667	1	0.115625
32.633333	1	0.108500
32.650000	1	0.102375
32.666667	1	0.096375
32.683333	1	0.091375
32.700000	1	0.086625
32.716667	1	0.082875
32.733333	1	0.079375
32.750000	1	0.076875
32.766667	1	0.073875
32.783333	1	0.071500
32.800000	1	0.069375
32.816667	1	0.067625
32.833333	1	0.065000
32.850000	1	0.063000
32.866667	1	0.061250
32.883333	1	0.059375
32.900000	1	0.057250
32.916667	1	0.055625
32.933333	1	0.054250
32.950000	1	0.051750
32.966667	1	0.050375
32.983333	1	0.048750
33.000000	1	0.047250
33.016667	1	0.045875
33.033333	1	0.044000
33.050000	1	0.042375
33.066667	1	0.040125
33.083333	1	0.038375
33.100000	1	0.036125
33.116667	1	0.034250
33.133333	1	0.033250
33.150000	1	0.032250
33.166667	1	0.029875
33.183333	1	0.028375
33.200000	1	0.026750
33.216667	1	0.026125
33.233333	1	0.024500
33.250000	1	0.023125
33.266667	1	0.021875
33.283333	1	0.020875
33.300000	1	0.019750
33.316667	1	0.019625
33.333333	1	0.019250
33.350000	1	0.018750
33.366667	1	0.018875
33.383333	1	0.019250
33.400000	1	0.019625
33.416667	1	0.020375
33.433333	1	0.021000
33.450000	1	0.021500
33.466667	1	0.022625
33.483333	1	0.023375
33.500000	1	0.024000
33.516667	1	0.025625
33.533333	1	0.026750
33.550000	1	0.028750
33.566667	1	0.030500
33.583333	1	0.032250
33.600000	1	0.034500
33.616667	1	0.036750
33.633333	1	0.038750
33.650000	1	0.041000
33.666667	1	0.043750
33.683333	1	0.045375
33.700000	1	0.047875
33.716667	1	0.051250
33.733333	1	0.053875
33.750000	1	0.056500
33.766667	1	0.059625
33.783333	1	0.064000
33.800000	1	0.067000
33.816667	1	0.070000
33.833333	1	0.072875
33.850000	1	0.076125
33.866667	1	0.079000
33.883333	1	0.083250
33.900000	1	0.086500
33.916667	1	0.089125
33.933333	1	0.091750
33.950000	1	0.095625
33.966667	1	0.098375
33.983333	1	0.100625
34.000000	1	0.102375
34.016667	1	0.104500
34.033333	1	0.106375
34.050000	1	0.108375
34.066667	1	0.109625
34.083333	1	0.110875
34.100000	1	0.111375
34.116667	1	0.111500
34.133333	1	0.112250
34.150000	1	0.112250
34.166667	1	0.112000
34.183333	1	0.111250
34.200000	1	0.110375
34.216667	1	0.109375
34.233333	1	0.108000
34.250000	1	0.106750
34.266667	1	0.104625
34.283333	1	0.102375
34.300000	1	0.101000
34.316667	1	0.099500
34.333333	1	0.097250
34.350000	1	0.095250
34.366667	1	0.093625
34.383333	1	0.091875
34.400000	1	0.090125
34.416667	1	0.088375
34.433333	1	0.088125
34.450000	1	0.087000
34.466667	1	0.086000
34.483333	1	0.086000
34.500000	1	0.085625
34.516667	1	0.085875
34.533333	1	0.086000
34.550000	1	0.087000
34.566667	1	0.087625
34.583333	1	0.089125
34.600000	1	0.091125
34.616667	1	0.092625
34.633333	1	0.094750
34.650000	1	0.096750
34.666667	1	0.098875
34.683333	1	0.101375
34.700000	1	0.103000
34.716667	1	0.105750
34.733333	1	0.107625
34.750000	1	0.110125
34.766667	1	0.112875
34.783333	1	0.115125
34.800000	1	0.117500
34.816667	1	0.119875
34.833333	1	0.122375
34.850000	1	0.123625
34.866667	1	0.126000
34.883333	1	0.127500
34.900000	1	0.129500
34.916667	1	0.131125
34.933333	1	0.133000
34.950000	1	0.133750
34.966667	1	0.135125
34.983333	1	0.135625
35.000000	1	0.136125
35.016667	1	0.135875
35.033333	1	0.135375
35.050000	1	0.135375
35.066667	1	0.135125
35.083333	1	0.134750
35.100000	1	0.133875
35.116667	1	0.132875
35.133333	1	0.131750
35.150000	1	0.130750
35.166667	1	0.129750
35.183333	1	0.128625
35.200000	1	0.127000
35.216667	1	0.126125
35.233333	1	0.124500
35.250000	1	0.122875
35.266667	1	0.121250
35.283333	1	0.119875
35.300000	1	0.117875
35.316667	1	0.116625
35.333333	1	0.115375
35.350000	1	0.114375
35.366667	1	0.113500
35.383333	1	0.112625
35.400000	1	0.111625
35.416667	1	0.111375
35.433333	1	0.110750
35.450000	1	0.109750
35.466667	1	0.109125
35.483333	1	0.109000
35.500000	1	0.108750
35.516667	1	0.108250
35.533333	1	0.107750
35.550000	1	0.107500
35.566667	1	0.107750
35.583333	1	0.108000
35.600000	1	0.107625
35.616667	1	0.107625
35.633333	1	0.108375
35.650000	1	0.108625
35.666667	1	0.109000
35.683333	1	0.108875
35.700000	1	0.109625
35.716667	1	0.109875
35.733333	1	0.111000
35.750000	1	0.111500
35.766667	1	0.112125
35.783333	1	0.112500
35.800000	1	0.113250
35.816667	1	0.113500
35.833333	1	0.113500
35.850000	1	0.114125
35.866667	1	0.115125
35.883333	1	0.115875
35.900000	1	0.115625
35.916667	1	0.115875
35.933333	1	0.116125
35.950000	1	0.117125
35.966667	1	0.117125
35.983333	1	0.117875
36.000000	1	0.118375
36.016667	1	0.118875
36.033333	1	0.119000
36.050000	1	0.118375
36.066667	1	0.118500
36.083333	1	0.119375
36.100000	1	0.119875
36.116667	1	0.120250
36.133333	1	0.121000
36.150000	1	0.121625
36.166667	1	0.122250
36.183333	1	0.123250
36.200000	1	0.123625
36.216667	1	0.124500
36.233333	1	0.125250
36.250000	1	0.126375
36.266667	1	0.127625
36.283333	1	0.128250
36.300000	1	0.130250
36.316667	1	0.132000
36.333333	1	0.134625
36.350000	1	0.135625
36.366667	1	0.137375
36.383333	1	0.138375
36.400000	1	0.139875
36.416667	1	0.141375
36.433333	1	0.142750
36.450000	1	0.143500
36.466667	1	0.144500
36.483333	1	0.145250
36.500000	1	0.147000
36.516667	1	0.148125
36.533333	1	0.148875
36.550000	1	0.149125
36.566667	1	0.148875
36.583333	1	0.149375
36.600000	1	0.148500
36.616667	1	0.148250
36.633333	1	0.147500
36.650000	1	0.146625
36.666667	1	0.145375
36.683333	1	0.144000
36.700000	1	0.142625
36.716667	1	0.141125
36.733333	1	0.138750
36.750000	1	0.136500
36.766667	1	0.133750
36.783333	1	0.131250
36.800000	1	0.128500
36.816667	1	0.125000
36.833333	1	0.122000
36.850000	1	0.120000
36.866667	1	0.116500
36.883333	1	0.113375
36.900000	1	0.110000
36.916667	1	0.107625
36.933333	1	0.105125
36.950000	1	0.102500
36.966667	1	0.100000
36.983333	1	0.097625
37.000000	1	0.095750
37.016667	1	0.093625
37.033333	1	0.091000
37.050000	1	0.088750
37.066667	1	0.086875
37.083333	1	0.084750
37.100000	1	0.083500
37.116667	1	0.081750
37.133333	1	0.080375
37.150000	1	0.079375
37.166667	1	0.079125
37.183333	1	0.078000
37.200000	1	0.077375
37.216667	1	0.076250
37.233333	1	0.076000
37.250000	1	0.075375
37.266667	1	0.074250
37.283333	1	0.074375
37.300000	1	0.074250
37.316667	1	0.074500
37.333333	1	0.074375
37.350000	1	0.074750
37.366667	1	0.074750
37.383333	1	0.075000
37.400000	1	0.075375
37.416667	1	0.075375
37.433333	1	0.075250
37.450000	1	0.075500
37.466667	1	0.075875
37.483333	1	0.076250
37.500000	1	0.076500
37.516667	1	0.076500
37.533333	1	0.075875
37.550000	1	0.075500
37.566667	1	0.075250
37.583333	1	0.074875
37.600000	1	0.074250
37.616667	1	0.074375
37.633333	1	0.074375
37.650000	1	0.074125
37.666667	1	0.073875
37.683333	1	0.074000
37.700000	1	0.073875
37.716667	1	0.073875
37.733333	1	0.074375
37.750000	1	0.074250
37.766667	1	0.074500
37.783333	1	0.074000
37.800000	1	0.073875
37.816667	1	0.073250
37.833333	1	0.073750
37.850000	1	0.073000
37.866667	1	0.073000
37.883333	1	0.072750
37.900000	1	0.072750
37.916667	1	0.072375
37.933333	1	0.072375
37.950000	1	0.072250
37.966667	1	0.071125
37.983333	1	0.070375
38.000000	1	0.069250
38.016667	1	0.067875
38.033333	1	0.066125
38.050000	1	0.064750
38.066667	1	0.063500
38.083333	1	0.062625
38.100000	1	0.060500
38.116667	1	0.059000
38.133333	1	0.056750
38.150000	1	0.054875
38.166667	1	0.052625
38.183333	1	0.051000
38.200000	1	0.049125
38.216667	1	0.046875
38.233333	1	0.044750
38.250000	1	0.042250
38.266667	1	0.040250
38.283333	1	0.038750
38.300000	1	0.036875
38.316667	1	0.035125
38.333333	1	0.033375
38.350000	1	0.032000
38.366667	1	0.030375
38.383333	1	0.029125
38.400000	1	0.027500
38.416667	1	0.026125
38.433333	1	0.025375
38.450000	1	0.024875
38.466667	1	0.024375
38.483333	1	0.024125
38.500000	1	0.024250
38.516667	1	0.024750
38.533333	1	0.025875
38.550000	1	0.026250
38.566667	1	0.026625
38.583333	1	0.027125
38.600000	1	0.028250
38.616667	1	0.028750
38.633333	1	0.029625
38.650000	1	0.030375
38.666667	1	0.032000
38.683333	1	0.032250
38.700000	1	0.033125
38.716667	1	0.034250
38.733333	1	0.034750
38.750000	1	0.035750
38.766667	1	0.036625
38.783333	1	0.037750
38.800000	1	0.037875
38.816667	1	0.039000
38.833333	1	0.039500
38.850000	1	0.040250
38.866667	1	0.039750
38.883333	1	0.040750
38.900000	1	0.041125
38.916667	1	0.041500
38.933333	1	0.041625
38.950000	1	0.041500
38.966667	1	0.041500
38.983333	1	0.041375
39.000000	1	0.041125
39.016667	1	0.039750
39.033333	1	0.039875
39.050000	1	0.039500
39.066667	1	0.038875
39.083333	1	0.038875
39.100000	1	0.038500
39.116667	1	0.037375
39.133333	1	0.037250
39.150000	1	0.036875
39.166667	1	0.035875
39.183333	1	0.035125
39.200000	1	0.034375
39.216667	1	0.033500
39.233333	1	0.033375
39.250000	1	0.032125
39.266667	1	0.030750
39.283333	1	0.029625
39.300000	1	0.028375
39.316667	1	0.027000
39.333333	1	0.025750
39.350000	1	0.024125
39.366667	1	0.021500
39.383333	1	0.018750
39.400000	1	0.016125
39.416667	1	0.014625
39.433333	1	0.012875
39.450000	1	0.010500
39.466667	1	0.009000
39.483333	1	0.006375
39.500000	1	0.003625
39.516667	1	0.002500
39.533333	1	0.001125
39.550000	1	-0.000125
39.566667	1	-0.001500
39.583333	1	-0.002875
39.600000	1	-0.004250
39.616667	1	-0.005750
39.633333	1	-0.007000
39.650000	1	-0.008375
39.666667	1	-0.008375
39.683333	1	-0.008875
39.700000	1	-0.009000
39.716667	1	-0.009500
39.733333	1	-0.009875
39.750000	1	-0.009500
39.766667	1	-0.009000
39.783333	1	-0.008500
39.800000	1	-0.007750
39.816667	1	-0.006875
39.833333	1	-0.006375
39.850000	1	-0.005625
39.866667	1	-0.004500
39.883333	1	-0.003125
39.900000	1	-0.001875
39.916667	1	-0.001625
39.933333	1	-0.001375
39.950000	1	-0.000875
39.966667	1	-0.000250
39.983333	1	0.000000
40.000000	1	0.000000
