URL	chrom://7040-86g6c92/XVault/Ultimate_3000/20/20240517_CMO_FP23_FP25_MarkusDeplate.seq/695.smp/RI_1.channel/RI_1.chm
Channel	RI_1

Injection Information:
Data Vault	XVault
Sequence	20240517_CMO_FP23_FP25_MarkusDeplate
Name	FP25_21_s1
Number	74
Position	BG2
Comment	
Processing Method	
Instrument Method	run_25B_method
Type	Unknown
Status	Finished
Inject Time	29.05.2024 20:33:58 +02:00
Volume (µl)	20.0000
Dilution Factor	1.0000
Weight	1.0000

Chromatogram Data Information:
Time Min. (min)	0.000000
Time Max. (min)	40.000000
Data Points	2401
Detector	RI
Generating Data System	Chromeleon 7.3.2.11814
Exporting Data System	Chromeleon 7.3.2.0
Operator	Instrument Controller
Signal Quantity	Refractive 
Signal Unit	µRIU
Signal Min.	-0.987875
Signal Max.	67.741750
Channel	RI_1
Driver Name	RID520Driver.dll
Channel Type	Evaluation
Min. Step (s)	1
Max. Step (s)	1
Average Step (s)	1

Signal Parameter Information:
Signal Info	

Chromatogram Data:
Time (min)	Step (s)	Value (µRIU)
0.000000	n.a.	0.001375
0.016667	1	0.001000
0.033333	1	0.001125
0.050000	1	0.001250
0.066667	1	0.001000
0.083333	1	0.001625
0.100000	1	0.001500
0.116667	1	0.001875
0.133333	1	0.001500
0.150000	1	0.000875
0.166667	1	0.000375
0.183333	1	0.000250
0.200000	1	0.000000
0.216667	1	0.000125
0.233333	1	-0.000250
0.250000	1	0.000000
0.266667	1	-0.000750
0.283333	1	-0.000250
0.300000	1	-0.000125
0.316667	1	-0.000125
0.333333	1	0.000000
0.350000	1	0.000000
0.366667	1	-0.000500
0.383333	1	-0.001125
0.400000	1	-0.001500
0.416667	1	-0.000625
0.433333	1	0.001000
0.450000	1	0.003625
0.466667	1	0.007125
0.483333	1	0.009500
0.500000	1	0.012000
0.516667	1	0.012750
0.533333	1	0.014125
0.550000	1	0.014750
0.566667	1	0.014875
0.583333	1	0.013875
0.600000	1	0.012125
0.616667	1	0.010250
0.633333	1	0.009125
0.650000	1	0.008750
0.666667	1	0.009000
0.683333	1	0.009375
0.700000	1	0.009375
0.716667	1	0.009875
0.733333	1	0.009500
0.750000	1	0.009750
0.766667	1	0.009625
0.783333	1	0.009250
0.800000	1	0.009625
0.816667	1	0.009750
0.833333	1	0.009375
0.850000	1	0.008625
0.866667	1	0.008375
0.883333	1	0.007750
0.900000	1	0.008000
0.916667	1	0.007500
0.933333	1	0.006500
0.950000	1	0.006375
0.966667	1	0.005625
0.983333	1	0.005250
1.000000	1	0.004250
1.016667	1	0.003375
1.033333	1	0.002750
1.050000	1	0.002875
1.066667	1	0.002375
1.083333	1	0.001750
1.100000	1	0.000750
1.116667	1	0.000250
1.133333	1	0.000000
1.150000	1	0.000125
1.166667	1	0.000250
1.183333	1	0.000625
1.200000	1	0.001250
1.216667	1	0.002125
1.233333	1	0.002000
1.250000	1	0.002500
1.266667	1	0.003875
1.283333	1	0.004375
1.300000	1	0.005500
1.316667	1	0.006625
1.333333	1	0.008500
1.350000	1	0.008875
1.366667	1	0.009625
1.383333	1	0.010625
1.400000	1	0.011750
1.416667	1	0.012125
1.433333	1	0.013375
1.450000	1	0.014500
1.466667	1	0.016375
1.483333	1	0.017125
1.500000	1	0.018000
1.516667	1	0.019125
1.533333	1	0.019625
1.550000	1	0.020750
1.566667	1	0.021250
1.583333	1	0.021500
1.600000	1	0.022125
1.616667	1	0.023000
1.633333	1	0.023625
1.650000	1	0.024375
1.666667	1	0.025250
1.683333	1	0.026000
1.700000	1	0.026250
1.716667	1	0.026500
1.733333	1	0.026625
1.750000	1	0.026500
1.766667	1	0.026625
1.783333	1	0.026375
1.800000	1	0.026500
1.816667	1	0.025875
1.833333	1	0.025625
1.850000	1	0.024625
1.866667	1	0.024500
1.883333	1	0.023500
1.900000	1	0.022750
1.916667	1	0.021125
1.933333	1	0.019875
1.950000	1	0.018625
1.966667	1	0.017375
1.983333	1	0.015875
2.000000	1	0.014875
2.016667	1	0.013250
2.033333	1	0.012500
2.050000	1	0.011250
2.066667	1	0.009625
2.083333	1	0.007625
2.100000	1	0.006000
2.116667	1	0.004125
2.133333	1	0.002250
2.150000	1	0.000500
2.166667	1	-0.001000
2.183333	1	-0.002750
2.200000	1	-0.004375
2.216667	1	-0.005750
2.233333	1	-0.007375
2.250000	1	-0.008875
2.266667	1	-0.010625
2.283333	1	-0.012625
2.300000	1	-0.014000
2.316667	1	-0.015625
2.333333	1	-0.017625
2.350000	1	-0.018875
2.366667	1	-0.020500
2.383333	1	-0.022375
2.400000	1	-0.024000
2.416667	1	-0.024625
2.433333	1	-0.025500
2.450000	1	-0.025625
2.466667	1	-0.026375
2.483333	1	-0.027625
2.500000	1	-0.028375
2.516667	1	-0.029125
2.533333	1	-0.029125
2.550000	1	-0.029750
2.566667	1	-0.030125
2.583333	1	-0.030750
2.600000	1	-0.031000
2.616667	1	-0.031625
2.633333	1	-0.031750
2.650000	1	-0.032125
2.666667	1	-0.032625
2.683333	1	-0.033000
2.700000	1	-0.033000
2.716667	1	-0.032750
2.733333	1	-0.032625
2.750000	1	-0.032875
2.766667	1	-0.033375
2.783333	1	-0.033375
2.800000	1	-0.033625
2.816667	1	-0.033125
2.833333	1	-0.032500
2.850000	1	-0.032500
2.866667	1	-0.031750
2.883333	1	-0.031875
2.900000	1	-0.031000
2.916667	1	-0.030375
2.933333	1	-0.029625
2.950000	1	-0.029125
2.966667	1	-0.028375
2.983333	1	-0.026875
3.000000	1	-0.027000
3.016667	1	-0.025750
3.033333	1	-0.024625
3.050000	1	-0.023750
3.066667	1	-0.023000
3.083333	1	-0.022125
3.100000	1	-0.021125
3.116667	1	-0.019625
3.133333	1	-0.018250
3.150000	1	-0.017000
3.166667	1	-0.015625
3.183333	1	-0.014000
3.200000	1	-0.012875
3.216667	1	-0.011875
3.233333	1	-0.010500
3.250000	1	-0.009000
3.266667	1	-0.007750
3.283333	1	-0.006500
3.300000	1	-0.005875
3.316667	1	-0.004625
3.333333	1	-0.003750
3.350000	1	-0.002500
3.366667	1	-0.000375
3.383333	1	0.000875
3.400000	1	0.002375
3.416667	1	0.003625
3.433333	1	0.005875
3.450000	1	0.007000
3.466667	1	0.008375
3.483333	1	0.009500
3.500000	1	0.010750
3.516667	1	0.012125
3.533333	1	0.012875
3.550000	1	0.013875
3.566667	1	0.015250
3.583333	1	0.015750
3.600000	1	0.016625
3.616667	1	0.017500
3.633333	1	0.018625
3.650000	1	0.019500
3.666667	1	0.019875
3.683333	1	0.020125
3.700000	1	0.020000
3.716667	1	0.019750
3.733333	1	0.019625
3.750000	1	0.019375
3.766667	1	0.019875
3.783333	1	0.019500
3.800000	1	0.019125
3.816667	1	0.018875
3.833333	1	0.018375
3.850000	1	0.017125
3.866667	1	0.016000
3.883333	1	0.015500
3.900000	1	0.014375
3.916667	1	0.013625
3.933333	1	0.012500
3.950000	1	0.011875
3.966667	1	0.011500
3.983333	1	0.011000
4.000000	1	0.010500
4.016667	1	0.010375
4.033333	1	0.010500
4.050000	1	0.009500
4.066667	1	0.009125
4.083333	1	0.009250
4.100000	1	0.010375
4.116667	1	0.010750
4.133333	1	0.011500
4.150000	1	0.011250
4.166667	1	0.012250
4.183333	1	0.012500
4.200000	1	0.013375
4.216667	1	0.013625
4.233333	1	0.015375
4.250000	1	0.016375
4.266667	1	0.017125
4.283333	1	0.018375
4.300000	1	0.019000
4.316667	1	0.020000
4.333333	1	0.020875
4.350000	1	0.021875
4.366667	1	0.022125
4.383333	1	0.022625
4.400000	1	0.023500
4.416667	1	0.024125
4.433333	1	0.024625
4.450000	1	0.025000
4.466667	1	0.025500
4.483333	1	0.025875
4.500000	1	0.025750
4.516667	1	0.026125
4.533333	1	0.026250
4.550000	1	0.027000
4.566667	1	0.026875
4.583333	1	0.027125
4.600000	1	0.027375
4.616667	1	0.027250
4.633333	1	0.027750
4.650000	1	0.028750
4.666667	1	0.029750
4.683333	1	0.029000
4.700000	1	0.029250
4.716667	1	0.029125
4.733333	1	0.030125
4.750000	1	0.030750
4.766667	1	0.031500
4.783333	1	0.032750
4.800000	1	0.033375
4.816667	1	0.033750
4.833333	1	0.035250
4.850000	1	0.036625
4.866667	1	0.038000
4.883333	1	0.039250
4.900000	1	0.040375
4.916667	1	0.042000
4.933333	1	0.044375
4.950000	1	0.046750
4.966667	1	0.049000
4.983333	1	0.051375
5.000000	1	0.054000
5.016667	1	0.056500
5.033333	1	0.059875
5.050000	1	0.062875
5.066667	1	0.066625
5.083333	1	0.070500
5.100000	1	0.074500
5.116667	1	0.078375
5.133333	1	0.083000
5.150000	1	0.087750
5.166667	1	0.092000
5.183333	1	0.097000
5.200000	1	0.101875
5.216667	1	0.107750
5.233333	1	0.113125
5.250000	1	0.118125
5.266667	1	0.123000
5.283333	1	0.128750
5.300000	1	0.134000
5.316667	1	0.140125
5.333333	1	0.145625
5.350000	1	0.150875
5.366667	1	0.156375
5.383333	1	0.162125
5.400000	1	0.167125
5.416667	1	0.171750
5.433333	1	0.177250
5.450000	1	0.182375
5.466667	1	0.187875
5.483333	1	0.192375
5.500000	1	0.196500
5.516667	1	0.200875
5.533333	1	0.205500
5.550000	1	0.208875
5.566667	1	0.212750
5.583333	1	0.216750
5.600000	1	0.220500
5.616667	1	0.223500
5.633333	1	0.226750
5.650000	1	0.229125
5.666667	1	0.232250
5.683333	1	0.234500
5.700000	1	0.235750
5.716667	1	0.237625
5.733333	1	0.239625
5.750000	1	0.240500
5.766667	1	0.241250
5.783333	1	0.242125
5.800000	1	0.242625
5.816667	1	0.243000
5.833333	1	0.242375
5.850000	1	0.241625
5.866667	1	0.240625
5.883333	1	0.239875
5.900000	1	0.238875
5.916667	1	0.237375
5.933333	1	0.236000
5.950000	1	0.234125
5.966667	1	0.231875
5.983333	1	0.229625
6.000000	1	0.226875
6.016667	1	0.224500
6.033333	1	0.221750
6.050000	1	0.218875
6.066667	1	0.215500
6.083333	1	0.212000
6.100000	1	0.208000
6.116667	1	0.204000
6.133333	1	0.200375
6.150000	1	0.195625
6.166667	1	0.192125
6.183333	1	0.188125
6.200000	1	0.183500
6.216667	1	0.180000
6.233333	1	0.176500
6.250000	1	0.173125
6.266667	1	0.169250
6.283333	1	0.164375
6.300000	1	0.160750
6.316667	1	0.156875
6.333333	1	0.153000
6.350000	1	0.149375
6.366667	1	0.146250
6.383333	1	0.142875
6.400000	1	0.140375
6.416667	1	0.137625
6.433333	1	0.134625
6.450000	1	0.132000
6.466667	1	0.129250
6.483333	1	0.126625
6.500000	1	0.124375
6.516667	1	0.122625
6.533333	1	0.120875
6.550000	1	0.119875
6.566667	1	0.117875
6.583333	1	0.116125
6.600000	1	0.115000
6.616667	1	0.114250
6.633333	1	0.113000
6.650000	1	0.111875
6.666667	1	0.110375
6.683333	1	0.109625
6.700000	1	0.109875
6.716667	1	0.109375
6.733333	1	0.108875
6.750000	1	0.107750
6.766667	1	0.107000
6.783333	1	0.105625
6.800000	1	0.104250
6.816667	1	0.103500
6.833333	1	0.102875
6.850000	1	0.101875
6.866667	1	0.101125
6.883333	1	0.100125
6.900000	1	0.099750
6.916667	1	0.099375
6.933333	1	0.098125
6.950000	1	0.097125
6.966667	1	0.096500
6.983333	1	0.096125
7.000000	1	0.095500
7.016667	1	0.095500
7.033333	1	0.095250
7.050000	1	0.094250
7.066667	1	0.093375
7.083333	1	0.092875
7.100000	1	0.092500
7.116667	1	0.093125
7.133333	1	0.093375
7.150000	1	0.093625
7.166667	1	0.094500
7.183333	1	0.095500
7.200000	1	0.096625
7.216667	1	0.098375
7.233333	1	0.099750
7.250000	1	0.101625
7.266667	1	0.102750
7.283333	1	0.105000
7.300000	1	0.107500
7.316667	1	0.110125
7.333333	1	0.112750
7.350000	1	0.116000
7.366667	1	0.119500
7.383333	1	0.122250
7.400000	1	0.125500
7.416667	1	0.129000
7.433333	1	0.132250
7.450000	1	0.135875
7.466667	1	0.139000
7.483333	1	0.141750
7.500000	1	0.144375
7.516667	1	0.147250
7.533333	1	0.150375
7.550000	1	0.153125
7.566667	1	0.155750
7.583333	1	0.157625
7.600000	1	0.159875
7.616667	1	0.161625
7.633333	1	0.162875
7.650000	1	0.164375
7.666667	1	0.165375
7.683333	1	0.166250
7.700000	1	0.166750
7.716667	1	0.166625
7.733333	1	0.166625
7.750000	1	0.166375
7.766667	1	0.165625
7.783333	1	0.164875
7.800000	1	0.163875
7.816667	1	0.162875
7.833333	1	0.161500
7.850000	1	0.159000
7.866667	1	0.157250
7.883333	1	0.155375
7.900000	1	0.152875
7.916667	1	0.149500
7.933333	1	0.146000
7.950000	1	0.143000
7.966667	1	0.140000
7.983333	1	0.137500
8.000000	1	0.134625
8.016667	1	0.131125
8.033333	1	0.127750
8.050000	1	0.124250
8.066667	1	0.120125
8.083333	1	0.116125
8.100000	1	0.111875
8.116667	1	0.108875
8.133333	1	0.106750
8.150000	1	0.103375
8.166667	1	0.099500
8.183333	1	0.097000
8.200000	1	0.093625
8.216667	1	0.090500
8.233333	1	0.087125
8.250000	1	0.084625
8.266667	1	0.081125
8.283333	1	0.078125
8.300000	1	0.075125
8.316667	1	0.072500
8.333333	1	0.069875
8.350000	1	0.067125
8.366667	1	0.064625
8.383333	1	0.062875
8.400000	1	0.060875
8.416667	1	0.058875
8.433333	1	0.056750
8.450000	1	0.054375
8.466667	1	0.053125
8.483333	1	0.051000
8.500000	1	0.050000
8.516667	1	0.048250
8.533333	1	0.046500
8.550000	1	0.044750
8.566667	1	0.044250
8.583333	1	0.042125
8.600000	1	0.040250
8.616667	1	0.038625
8.633333	1	0.037125
8.650000	1	0.035500
8.666667	1	0.034000
8.683333	1	0.032375
8.700000	1	0.031000
8.716667	1	0.029250
8.733333	1	0.028375
8.750000	1	0.027125
8.766667	1	0.026000
8.783333	1	0.025000
8.800000	1	0.024250
8.816667	1	0.023125
8.833333	1	0.021750
8.850000	1	0.020625
8.866667	1	0.020375
8.883333	1	0.020000
8.900000	1	0.019250
8.916667	1	0.018750
8.933333	1	0.019375
8.950000	1	0.019625
8.966667	1	0.019875
8.983333	1	0.020125
9.000000	1	0.020125
9.016667	1	0.020125
9.033333	1	0.021375
9.050000	1	0.021750
9.066667	1	0.022625
9.083333	1	0.023000
9.100000	1	0.023875
9.116667	1	0.025250
9.133333	1	0.027250
9.150000	1	0.027875
9.166667	1	0.029125
9.183333	1	0.029750
9.200000	1	0.030250
9.216667	1	0.031625
9.233333	1	0.032625
9.250000	1	0.032875
9.266667	1	0.033500
9.283333	1	0.034250
9.300000	1	0.034375
9.316667	1	0.035250
9.333333	1	0.035625
9.350000	1	0.036875
9.366667	1	0.037875
9.383333	1	0.038500
9.400000	1	0.038750
9.416667	1	0.038500
9.433333	1	0.038750
9.450000	1	0.039000
9.466667	1	0.039000
9.483333	1	0.038625
9.500000	1	0.039250
9.516667	1	0.039625
9.533333	1	0.039375
9.550000	1	0.039875
9.566667	1	0.040125
9.583333	1	0.039875
9.600000	1	0.039625
9.616667	1	0.039875
9.633333	1	0.040000
9.650000	1	0.040500
9.666667	1	0.041000
9.683333	1	0.040750
9.700000	1	0.041000
9.716667	1	0.040750
9.733333	1	0.041375
9.750000	1	0.042125
9.766667	1	0.042000
9.783333	1	0.042625
9.800000	1	0.042375
9.816667	1	0.042625
9.833333	1	0.043375
9.850000	1	0.043750
9.866667	1	0.044375
9.883333	1	0.044375
9.900000	1	0.044375
9.916667	1	0.044125
9.933333	1	0.044250
9.950000	1	0.044125
9.966667	1	0.044250
9.983333	1	0.043750
10.000000	1	0.043250
10.016667	1	0.043375
10.033333	1	0.043625
10.050000	1	0.044375
10.066667	1	0.045125
10.083333	1	0.046375
10.100000	1	0.048125
10.116667	1	0.050375
10.133333	1	0.053125
10.150000	1	0.057250
10.166667	1	0.062625
10.183333	1	0.069250
10.200000	1	0.076750
10.216667	1	0.086250
10.233333	1	0.097375
10.250000	1	0.110875
10.266667	1	0.127375
10.283333	1	0.146250
10.300000	1	0.167250
10.316667	1	0.191250
10.333333	1	0.218000
10.350000	1	0.248125
10.366667	1	0.281625
10.383333	1	0.317000
10.400000	1	0.350625
10.416667	1	0.379250
10.433333	1	0.395625
10.450000	1	0.389625
10.466667	1	0.353250
10.483333	1	0.285625
10.500000	1	0.204250
10.516667	1	0.145750
10.533333	1	0.169625
10.550000	1	0.357625
10.566667	1	0.800875
10.583333	1	1.590500
10.600000	1	2.807125
10.616667	1	4.515000
10.633333	1	6.758000
10.650000	1	9.557500
10.666667	1	12.920000
10.683333	1	16.827250
10.700000	1	21.237750
10.716667	1	26.072000
10.733333	1	31.204375
10.750000	1	36.444500
10.766667	1	41.519500
10.783333	1	46.076500
10.800000	1	49.696500
10.816667	1	51.962625
10.833333	1	52.562125
10.850000	1	51.395500
10.866667	1	48.615125
10.883333	1	44.590375
10.900000	1	39.803375
10.916667	1	34.733250
10.933333	1	29.758250
10.950000	1	25.137500
10.966667	1	21.014500
10.983333	1	17.445125
11.000000	1	14.428625
11.016667	1	11.927750
11.033333	1	9.887375
11.050000	1	8.242375
11.066667	1	6.925750
11.083333	1	5.876625
11.100000	1	5.041250
11.116667	1	4.375000
11.133333	1	3.841375
11.150000	1	3.411000
11.166667	1	3.061750
11.183333	1	2.774875
11.200000	1	2.536625
11.216667	1	2.336750
11.233333	1	2.168125
11.250000	1	2.024500
11.266667	1	1.899875
11.283333	1	1.792250
11.300000	1	1.699375
11.316667	1	1.617875
11.333333	1	1.545375
11.350000	1	1.482250
11.366667	1	1.426500
11.383333	1	1.377875
11.400000	1	1.334625
11.416667	1	1.296375
11.433333	1	1.262750
11.450000	1	1.232625
11.466667	1	1.205875
11.483333	1	1.182375
11.500000	1	1.160875
11.516667	1	1.142000
11.533333	1	1.125500
11.550000	1	1.112125
11.566667	1	1.099500
11.583333	1	1.089375
11.600000	1	1.081000
11.616667	1	1.072875
11.633333	1	1.066250
11.650000	1	1.061000
11.666667	1	1.056375
11.683333	1	1.053125
11.700000	1	1.051000
11.716667	1	1.049000
11.733333	1	1.048375
11.750000	1	1.049375
11.766667	1	1.051250
11.783333	1	1.053750
11.800000	1	1.056250
11.816667	1	1.059250
11.833333	1	1.062875
11.850000	1	1.066000
11.866667	1	1.069875
11.883333	1	1.073250
11.900000	1	1.076625
11.916667	1	1.079500
11.933333	1	1.083625
11.950000	1	1.087000
11.966667	1	1.091500
11.983333	1	1.095875
12.000000	1	1.100500
12.016667	1	1.105750
12.033333	1	1.112000
12.050000	1	1.119250
12.066667	1	1.127500
12.083333	1	1.135625
12.100000	1	1.144375
12.116667	1	1.154000
12.133333	1	1.164375
12.150000	1	1.176125
12.166667	1	1.187250
12.183333	1	1.201125
12.200000	1	1.216625
12.216667	1	1.234750
12.233333	1	1.254625
12.250000	1	1.276250
12.266667	1	1.300375
12.283333	1	1.327625
12.300000	1	1.356250
12.316667	1	1.387750
12.333333	1	1.422250
12.350000	1	1.461625
12.366667	1	1.508750
12.383333	1	1.566750
12.400000	1	1.641625
12.416667	1	1.738500
12.433333	1	1.866000
12.450000	1	2.032000
12.466667	1	2.244750
12.483333	1	2.512000
12.500000	1	2.839625
12.516667	1	3.229625
12.533333	1	3.680750
12.550000	1	4.188250
12.566667	1	4.743125
12.583333	1	5.333750
12.600000	1	5.944750
12.616667	1	6.560000
12.633333	1	7.167000
12.650000	1	7.752500
12.666667	1	8.308750
12.683333	1	8.830000
12.700000	1	9.315375
12.716667	1	9.767500
12.733333	1	10.189250
12.750000	1	10.586125
12.766667	1	10.959125
12.783333	1	11.302125
12.800000	1	11.594375
12.816667	1	11.801875
12.833333	1	11.874375
12.850000	1	11.759875
12.866667	1	11.422375
12.883333	1	10.864500
12.900000	1	10.127250
12.916667	1	9.282375
12.933333	1	8.406750
12.950000	1	7.556375
12.966667	1	6.766375
12.983333	1	6.052875
13.000000	1	5.419125
13.016667	1	4.864125
13.033333	1	4.383625
13.050000	1	3.972375
13.066667	1	3.623250
13.083333	1	3.329250
13.100000	1	3.083125
13.116667	1	2.877250
13.133333	1	2.705000
13.150000	1	2.559625
13.166667	1	2.436500
13.183333	1	2.331000
13.200000	1	2.240250
13.216667	1	2.160250
13.233333	1	2.090000
13.250000	1	2.027875
13.266667	1	1.970625
13.283333	1	1.918125
13.300000	1	1.870250
13.316667	1	1.826750
13.333333	1	1.786875
13.350000	1	1.749875
13.366667	1	1.715875
13.383333	1	1.684875
13.400000	1	1.657125
13.416667	1	1.632375
13.433333	1	1.610875
13.450000	1	1.592750
13.466667	1	1.577000
13.483333	1	1.564125
13.500000	1	1.554625
13.516667	1	1.548125
13.533333	1	1.543500
13.550000	1	1.540625
13.566667	1	1.537750
13.583333	1	1.535000
13.600000	1	1.530750
13.616667	1	1.525000
13.633333	1	1.517250
13.650000	1	1.506750
13.666667	1	1.493125
13.683333	1	1.477375
13.700000	1	1.458875
13.716667	1	1.439625
13.733333	1	1.418750
13.750000	1	1.396625
13.766667	1	1.374500
13.783333	1	1.352750
13.800000	1	1.330875
13.816667	1	1.309625
13.833333	1	1.289750
13.850000	1	1.270625
13.866667	1	1.252500
13.883333	1	1.234875
13.900000	1	1.218625
13.916667	1	1.203500
13.933333	1	1.188500
13.950000	1	1.174250
13.966667	1	1.160375
13.983333	1	1.147375
14.000000	1	1.135375
14.016667	1	1.124375
14.033333	1	1.113000
14.050000	1	1.102000
14.066667	1	1.091500
14.083333	1	1.082250
14.100000	1	1.072375
14.116667	1	1.063125
14.133333	1	1.053750
14.150000	1	1.045875
14.166667	1	1.037875
14.183333	1	1.031500
14.200000	1	1.025250
14.216667	1	1.019875
14.233333	1	1.015500
14.250000	1	1.012750
14.266667	1	1.010875
14.283333	1	1.010000
14.300000	1	1.010750
14.316667	1	1.012875
14.333333	1	1.015625
14.350000	1	1.021000
14.366667	1	1.028250
14.383333	1	1.037625
14.400000	1	1.050125
14.416667	1	1.067125
14.433333	1	1.092000
14.450000	1	1.129625
14.466667	1	1.187250
14.483333	1	1.276250
14.500000	1	1.414625
14.516667	1	1.626500
14.533333	1	1.945750
14.550000	1	2.416625
14.566667	1	3.094250
14.583333	1	4.041125
14.600000	1	5.334500
14.616667	1	7.054250
14.633333	1	9.281625
14.650000	1	12.085500
14.666667	1	15.513625
14.683333	1	19.579500
14.700000	1	24.252750
14.716667	1	29.451250
14.733333	1	35.045250
14.750000	1	40.850000
14.766667	1	46.638375
14.783333	1	52.153875
14.800000	1	57.146500
14.816667	1	61.375625
14.833333	1	64.639250
14.850000	1	66.787875
14.866667	1	67.741750
14.883333	1	67.496000
14.900000	1	66.119250
14.916667	1	63.743250
14.933333	1	60.542750
14.950000	1	56.717250
14.966667	1	52.474125
14.983333	1	48.012625
15.000000	1	43.497875
15.016667	1	39.066375
15.033333	1	34.823750
15.050000	1	30.845625
15.066667	1	27.178500
15.083333	1	23.847000
15.100000	1	20.858125
15.116667	1	18.199875
15.133333	1	15.853250
15.150000	1	13.792375
15.166667	1	11.991750
15.183333	1	10.424625
15.200000	1	9.063375
15.216667	1	7.884250
15.233333	1	6.866750
15.250000	1	5.991875
15.266667	1	5.245500
15.283333	1	4.611500
15.300000	1	4.079125
15.316667	1	3.635500
15.333333	1	3.269625
15.350000	1	2.971875
15.366667	1	2.732250
15.383333	1	2.542750
15.400000	1	2.394000
15.416667	1	2.278625
15.433333	1	2.188500
15.450000	1	2.117750
15.466667	1	2.060000
15.483333	1	2.010875
15.500000	1	1.966250
15.516667	1	1.922500
15.533333	1	1.878625
15.550000	1	1.834125
15.566667	1	1.787625
15.583333	1	1.740625
15.600000	1	1.693250
15.616667	1	1.646750
15.633333	1	1.600750
15.650000	1	1.556750
15.666667	1	1.515500
15.683333	1	1.476750
15.700000	1	1.440125
15.716667	1	1.406375
15.733333	1	1.374875
15.750000	1	1.344750
15.766667	1	1.316625
15.783333	1	1.289625
15.800000	1	1.264250
15.816667	1	1.240000
15.833333	1	1.217375
15.850000	1	1.196750
15.866667	1	1.177250
15.883333	1	1.159625
15.900000	1	1.143500
15.916667	1	1.129125
15.933333	1	1.118125
15.950000	1	1.108750
15.966667	1	1.101375
15.983333	1	1.095750
16.000000	1	1.091750
16.016667	1	1.089375
16.033333	1	1.087875
16.050000	1	1.088375
16.066667	1	1.088750
16.083333	1	1.090000
16.100000	1	1.091625
16.116667	1	1.093000
16.133333	1	1.094625
16.150000	1	1.095500
16.166667	1	1.096250
16.183333	1	1.096125
16.200000	1	1.095125
16.216667	1	1.093125
16.233333	1	1.090125
16.250000	1	1.086750
16.266667	1	1.081500
16.283333	1	1.076125
16.300000	1	1.070875
16.316667	1	1.065125
16.333333	1	1.060125
16.350000	1	1.054875
16.366667	1	1.049625
16.383333	1	1.046500
16.400000	1	1.044625
16.416667	1	1.042875
16.433333	1	1.042875
16.450000	1	1.044250
16.466667	1	1.046125
16.483333	1	1.048000
16.500000	1	1.050625
16.516667	1	1.053875
16.533333	1	1.055000
16.550000	1	1.054750
16.566667	1	1.053625
16.583333	1	1.051375
16.600000	1	1.047625
16.616667	1	1.042875
16.633333	1	1.038000
16.650000	1	1.033125
16.666667	1	1.028250
16.683333	1	1.023875
16.700000	1	1.020250
16.716667	1	1.018625
16.733333	1	1.019000
16.750000	1	1.020750
16.766667	1	1.024625
16.783333	1	1.030375
16.800000	1	1.037750
16.816667	1	1.046125
16.833333	1	1.054625
16.850000	1	1.062875
16.866667	1	1.069500
16.883333	1	1.075125
16.900000	1	1.079875
16.916667	1	1.083250
16.933333	1	1.085000
16.950000	1	1.085375
16.966667	1	1.084375
16.983333	1	1.081750
17.000000	1	1.078250
17.016667	1	1.074750
17.033333	1	1.071000
17.050000	1	1.067750
17.066667	1	1.064625
17.083333	1	1.061750
17.100000	1	1.059500
17.116667	1	1.057500
17.133333	1	1.056000
17.150000	1	1.055375
17.166667	1	1.055125
17.183333	1	1.055500
17.200000	1	1.056500
17.216667	1	1.057875
17.233333	1	1.059250
17.250000	1	1.060375
17.266667	1	1.062375
17.283333	1	1.064750
17.300000	1	1.067625
17.316667	1	1.070375
17.333333	1	1.074750
17.350000	1	1.078000
17.366667	1	1.080625
17.383333	1	1.083625
17.400000	1	1.086500
17.416667	1	1.089625
17.433333	1	1.091750
17.450000	1	1.092000
17.466667	1	1.091875
17.483333	1	1.089750
17.500000	1	1.086750
17.516667	1	1.082625
17.533333	1	1.077125
17.550000	1	1.069625
17.566667	1	1.060875
17.583333	1	1.051750
17.600000	1	1.041875
17.616667	1	1.031250
17.633333	1	1.020000
17.650000	1	1.007750
17.666667	1	0.996000
17.683333	1	0.983750
17.700000	1	0.971875
17.716667	1	0.960625
17.733333	1	0.949125
17.750000	1	0.938250
17.766667	1	0.928250
17.783333	1	0.918625
17.800000	1	0.909000
17.816667	1	0.901500
17.833333	1	0.894500
17.850000	1	0.887250
17.866667	1	0.881125
17.883333	1	0.875750
17.900000	1	0.870750
17.916667	1	0.865750
17.933333	1	0.861375
17.950000	1	0.856250
17.966667	1	0.851125
17.983333	1	0.845750
18.000000	1	0.840375
18.016667	1	0.835250
18.033333	1	0.830125
18.050000	1	0.824250
18.066667	1	0.819375
18.083333	1	0.814000
18.100000	1	0.809375
18.116667	1	0.805375
18.133333	1	0.801875
18.150000	1	0.798875
18.166667	1	0.796250
18.183333	1	0.794375
18.200000	1	0.792875
18.216667	1	0.791375
18.233333	1	0.790375
18.250000	1	0.789625
18.266667	1	0.789250
18.283333	1	0.788625
18.300000	1	0.788000
18.316667	1	0.787625
18.333333	1	0.786750
18.350000	1	0.788125
18.366667	1	0.788875
18.383333	1	0.790500
18.400000	1	0.793000
18.416667	1	0.796875
18.433333	1	0.801375
18.450000	1	0.808500
18.466667	1	0.816125
18.483333	1	0.826125
18.500000	1	0.837125
18.516667	1	0.850125
18.533333	1	0.865250
18.550000	1	0.881625
18.566667	1	0.900000
18.583333	1	0.920125
18.600000	1	0.940750
18.616667	1	0.963250
18.633333	1	0.985625
18.650000	1	1.010000
18.666667	1	1.034375
18.683333	1	1.058875
18.700000	1	1.083875
18.716667	1	1.108625
18.733333	1	1.133000
18.750000	1	1.156000
18.766667	1	1.179125
18.783333	1	1.200750
18.800000	1	1.220875
18.816667	1	1.238500
18.833333	1	1.252875
18.850000	1	1.263875
18.866667	1	1.271875
18.883333	1	1.275250
18.900000	1	1.274250
18.916667	1	1.269625
18.933333	1	1.259625
18.950000	1	1.245500
18.966667	1	1.227250
18.983333	1	1.204625
19.000000	1	1.178875
19.016667	1	1.149625
19.033333	1	1.117500
19.050000	1	1.084250
19.066667	1	1.050250
19.083333	1	1.015375
19.100000	1	0.981875
19.116667	1	0.948875
19.133333	1	0.918375
19.150000	1	0.891000
19.166667	1	0.867000
19.183333	1	0.848375
19.200000	1	0.835000
19.216667	1	0.828000
19.233333	1	0.828375
19.250000	1	0.836625
19.266667	1	0.853375
19.283333	1	0.879000
19.300000	1	0.914000
19.316667	1	0.957125
19.333333	1	1.008125
19.350000	1	1.066500
19.366667	1	1.132500
19.383333	1	1.202125
19.400000	1	1.275000
19.416667	1	1.349000
19.433333	1	1.421875
19.450000	1	1.491375
19.466667	1	1.554750
19.483333	1	1.610375
19.500000	1	1.657375
19.516667	1	1.694375
19.533333	1	1.719750
19.550000	1	1.735500
19.566667	1	1.740250
19.583333	1	1.734625
19.600000	1	1.718875
19.616667	1	1.694250
19.633333	1	1.661750
19.650000	1	1.622875
19.666667	1	1.578375
19.683333	1	1.530000
19.700000	1	1.479000
19.716667	1	1.425375
19.733333	1	1.371250
19.750000	1	1.317000
19.766667	1	1.262500
19.783333	1	1.209000
19.800000	1	1.156250
19.816667	1	1.105000
19.833333	1	1.055750
19.850000	1	1.008000
19.866667	1	0.962875
19.883333	1	0.920375
19.900000	1	0.880875
19.916667	1	0.844625
19.933333	1	0.812875
19.950000	1	0.785500
19.966667	1	0.763000
19.983333	1	0.745500
20.000000	1	0.734000
20.016667	1	0.728375
20.033333	1	0.729625
20.050000	1	0.738500
20.066667	1	0.755125
20.083333	1	0.778875
20.100000	1	0.809750
20.116667	1	0.848250
20.133333	1	0.893625
20.150000	1	0.943375
20.166667	1	0.997375
20.183333	1	1.054250
20.200000	1	1.111375
20.216667	1	1.166000
20.233333	1	1.217625
20.250000	1	1.263250
20.266667	1	1.301125
20.283333	1	1.329875
20.300000	1	1.349500
20.316667	1	1.358000
20.333333	1	1.356000
20.350000	1	1.342625
20.366667	1	1.319250
20.383333	1	1.286000
20.400000	1	1.245875
20.416667	1	1.199750
20.433333	1	1.149750
20.450000	1	1.097375
20.466667	1	1.044375
20.483333	1	0.993125
20.500000	1	0.945125
20.516667	1	0.902000
20.533333	1	0.865625
20.550000	1	0.835750
20.566667	1	0.815500
20.583333	1	0.805625
20.600000	1	0.805500
20.616667	1	0.818250
20.633333	1	0.843750
20.650000	1	0.882875
20.666667	1	0.934875
20.683333	1	0.999875
20.700000	1	1.077375
20.716667	1	1.165000
20.733333	1	1.262000
20.750000	1	1.365250
20.766667	1	1.472500
20.783333	1	1.579625
20.800000	1	1.683875
20.816667	1	1.781500
20.833333	1	1.868375
20.850000	1	1.942375
20.866667	1	2.000875
20.883333	1	2.042375
20.900000	1	2.066250
20.916667	1	2.070875
20.933333	1	2.057500
20.950000	1	2.027250
20.966667	1	1.980875
20.983333	1	1.921875
21.000000	1	1.851375
21.016667	1	1.773625
21.033333	1	1.689375
21.050000	1	1.601250
21.066667	1	1.512000
21.083333	1	1.424125
21.100000	1	1.338750
21.116667	1	1.258000
21.133333	1	1.180625
21.150000	1	1.108125
21.166667	1	1.040500
21.183333	1	0.978375
21.200000	1	0.922000
21.216667	1	0.870250
21.233333	1	0.823000
21.250000	1	0.780375
21.266667	1	0.742875
21.283333	1	0.709125
21.300000	1	0.679625
21.316667	1	0.652750
21.333333	1	0.628875
21.350000	1	0.607000
21.366667	1	0.588625
21.383333	1	0.571625
21.400000	1	0.556500
21.416667	1	0.542375
21.433333	1	0.530625
21.450000	1	0.519625
21.466667	1	0.510750
21.483333	1	0.502125
21.500000	1	0.494875
21.516667	1	0.488750
21.533333	1	0.484500
21.550000	1	0.480625
21.566667	1	0.478750
21.583333	1	0.477500
21.600000	1	0.478250
21.616667	1	0.480000
21.633333	1	0.483375
21.650000	1	0.489375
21.666667	1	0.497375
21.683333	1	0.506625
21.700000	1	0.517375
21.716667	1	0.530875
21.733333	1	0.545750
21.750000	1	0.562500
21.766667	1	0.580125
21.783333	1	0.599625
21.800000	1	0.619625
21.816667	1	0.639375
21.833333	1	0.659375
21.850000	1	0.678625
21.866667	1	0.697750
21.883333	1	0.715750
21.900000	1	0.731875
21.916667	1	0.746375
21.933333	1	0.758375
21.950000	1	0.768500
21.966667	1	0.776875
21.983333	1	0.782375
22.000000	1	0.785750
22.016667	1	0.787125
22.033333	1	0.786250
22.050000	1	0.783625
22.066667	1	0.779375
22.083333	1	0.774125
22.100000	1	0.767125
22.116667	1	0.759375
22.133333	1	0.750125
22.150000	1	0.739750
22.166667	1	0.727625
22.183333	1	0.715125
22.200000	1	0.702375
22.216667	1	0.688500
22.233333	1	0.673750
22.250000	1	0.658250
22.266667	1	0.642500
22.283333	1	0.625875
22.300000	1	0.609250
22.316667	1	0.592375
22.333333	1	0.575375
22.350000	1	0.557750
22.366667	1	0.540625
22.383333	1	0.523625
22.400000	1	0.506750
22.416667	1	0.491000
22.433333	1	0.475500
22.450000	1	0.460250
22.466667	1	0.445875
22.483333	1	0.432875
22.500000	1	0.420250
22.516667	1	0.408500
22.533333	1	0.398000
22.550000	1	0.387250
22.566667	1	0.377750
22.583333	1	0.369000
22.600000	1	0.360875
22.616667	1	0.353250
22.633333	1	0.346250
22.650000	1	0.339750
22.666667	1	0.333375
22.683333	1	0.328125
22.700000	1	0.322375
22.716667	1	0.318000
22.733333	1	0.313375
22.750000	1	0.309375
22.766667	1	0.304875
22.783333	1	0.301750
22.800000	1	0.298500
22.816667	1	0.295875
22.833333	1	0.293750
22.850000	1	0.290750
22.866667	1	0.288250
22.883333	1	0.287625
22.900000	1	0.287125
22.916667	1	0.286625
22.933333	1	0.286500
22.950000	1	0.286250
22.966667	1	0.286750
22.983333	1	0.287000
23.000000	1	0.288250
23.016667	1	0.289625
23.033333	1	0.292125
23.050000	1	0.293750
23.066667	1	0.296250
23.083333	1	0.299000
23.100000	1	0.302000
23.116667	1	0.304625
23.133333	1	0.307000
23.150000	1	0.309750
23.166667	1	0.312250
23.183333	1	0.315000
23.200000	1	0.317500
23.216667	1	0.320250
23.233333	1	0.322750
23.250000	1	0.325000
23.266667	1	0.327250
23.283333	1	0.330375
23.300000	1	0.334875
23.316667	1	0.340625
23.333333	1	0.348125
23.350000	1	0.358500
23.366667	1	0.371750
23.383333	1	0.390000
23.400000	1	0.413125
23.416667	1	0.444375
23.433333	1	0.484750
23.450000	1	0.535125
23.466667	1	0.598000
23.483333	1	0.675875
23.500000	1	0.770750
23.516667	1	0.884000
23.533333	1	1.018375
23.550000	1	1.174125
23.566667	1	1.353500
23.583333	1	1.555250
23.600000	1	1.779625
23.616667	1	2.026250
23.633333	1	2.291750
23.650000	1	2.573625
23.666667	1	2.868125
23.683333	1	3.169750
23.700000	1	3.474625
23.716667	1	3.775750
23.733333	1	4.066500
23.750000	1	4.341000
23.766667	1	4.592000
23.783333	1	4.813625
23.800000	1	5.001000
23.816667	1	5.150750
23.833333	1	5.260375
23.850000	1	5.327500
23.866667	1	5.351125
23.883333	1	5.333750
23.900000	1	5.275750
23.916667	1	5.179750
23.933333	1	5.049875
23.950000	1	4.891250
23.966667	1	4.707375
23.983333	1	4.503250
24.000000	1	4.286000
24.016667	1	4.058125
24.033333	1	3.824750
24.050000	1	3.590000
24.066667	1	3.357500
24.083333	1	3.129375
24.100000	1	2.908375
24.116667	1	2.695750
24.133333	1	2.493500
24.150000	1	2.302375
24.166667	1	2.122125
24.183333	1	1.953375
24.200000	1	1.798000
24.216667	1	1.653125
24.233333	1	1.519625
24.250000	1	1.396375
24.266667	1	1.283875
24.283333	1	1.181500
24.300000	1	1.088625
24.316667	1	1.004375
24.333333	1	0.928000
24.350000	1	0.859250
24.366667	1	0.797375
24.383333	1	0.742750
24.400000	1	0.694500
24.416667	1	0.652375
24.433333	1	0.615250
24.450000	1	0.583000
24.466667	1	0.555500
24.483333	1	0.531625
24.500000	1	0.511125
24.516667	1	0.493625
24.533333	1	0.478625
24.550000	1	0.466625
24.566667	1	0.455375
24.583333	1	0.446250
24.600000	1	0.438000
24.616667	1	0.431875
24.633333	1	0.425625
24.650000	1	0.419375
24.666667	1	0.413875
24.683333	1	0.408500
24.700000	1	0.403500
24.716667	1	0.398625
24.733333	1	0.393500
24.750000	1	0.388750
24.766667	1	0.383750
24.783333	1	0.378250
24.800000	1	0.373125
24.816667	1	0.367500
24.833333	1	0.362375
24.850000	1	0.357000
24.866667	1	0.351875
24.883333	1	0.346750
24.900000	1	0.342000
24.916667	1	0.336750
24.933333	1	0.333125
24.950000	1	0.328625
24.966667	1	0.324125
24.983333	1	0.319875
25.000000	1	0.316500
25.016667	1	0.312750
25.033333	1	0.309125
25.050000	1	0.306250
25.066667	1	0.302875
25.083333	1	0.300000
25.100000	1	0.296875
25.116667	1	0.293875
25.133333	1	0.291125
25.150000	1	0.288375
25.166667	1	0.285750
25.183333	1	0.283375
25.200000	1	0.279875
25.216667	1	0.278125
25.233333	1	0.275500
25.250000	1	0.273375
25.266667	1	0.271625
25.283333	1	0.269750
25.300000	1	0.267625
25.316667	1	0.265875
25.333333	1	0.264500
25.350000	1	0.263125
25.366667	1	0.262375
25.383333	1	0.261750
25.400000	1	0.261000
25.416667	1	0.261000
25.433333	1	0.262000
25.450000	1	0.263625
25.466667	1	0.264875
25.483333	1	0.267000
25.500000	1	0.268625
25.516667	1	0.270375
25.533333	1	0.273750
25.550000	1	0.276250
25.566667	1	0.278750
25.583333	1	0.281375
25.600000	1	0.284375
25.616667	1	0.287250
25.633333	1	0.290250
25.650000	1	0.292750
25.666667	1	0.295500
25.683333	1	0.297875
25.700000	1	0.299625
25.716667	1	0.301125
25.733333	1	0.303125
25.750000	1	0.304750
25.766667	1	0.306875
25.783333	1	0.308000
25.800000	1	0.308500
25.816667	1	0.309000
25.833333	1	0.310000
25.850000	1	0.310125
25.866667	1	0.310750
25.883333	1	0.312125
25.900000	1	0.312875
25.916667	1	0.313375
25.933333	1	0.314125
25.950000	1	0.315125
25.966667	1	0.316250
25.983333	1	0.318625
26.000000	1	0.320125
26.016667	1	0.322500
26.033333	1	0.325250
26.050000	1	0.327875
26.066667	1	0.331250
26.083333	1	0.334500
26.100000	1	0.338875
26.116667	1	0.343000
26.133333	1	0.347125
26.150000	1	0.352125
26.166667	1	0.356875
26.183333	1	0.361750
26.200000	1	0.366875
26.216667	1	0.371875
26.233333	1	0.377500
26.250000	1	0.382125
26.266667	1	0.387125
26.283333	1	0.391750
26.300000	1	0.396375
26.316667	1	0.400250
26.333333	1	0.403625
26.350000	1	0.406500
26.366667	1	0.408250
26.383333	1	0.410250
26.400000	1	0.411125
26.416667	1	0.411375
26.433333	1	0.410625
26.450000	1	0.409625
26.466667	1	0.408500
26.483333	1	0.406375
26.500000	1	0.403625
26.516667	1	0.400000
26.533333	1	0.396625
26.550000	1	0.392250
26.566667	1	0.387375
26.583333	1	0.381875
26.600000	1	0.377000
26.616667	1	0.371250
26.633333	1	0.364875
26.650000	1	0.359000
26.666667	1	0.353750
26.683333	1	0.347125
26.700000	1	0.341250
26.716667	1	0.335750
26.733333	1	0.329375
26.750000	1	0.323125
26.766667	1	0.317000
26.783333	1	0.311875
26.800000	1	0.306875
26.816667	1	0.301875
26.833333	1	0.297125
26.850000	1	0.292875
26.866667	1	0.288625
26.883333	1	0.284625
26.900000	1	0.281000
26.916667	1	0.277625
26.933333	1	0.274500
26.950000	1	0.271500
26.966667	1	0.268625
26.983333	1	0.265875
27.000000	1	0.264250
27.016667	1	0.262500
27.033333	1	0.262000
27.050000	1	0.261625
27.066667	1	0.261125
27.083333	1	0.261000
27.100000	1	0.261625
27.116667	1	0.263125
27.133333	1	0.264875
27.150000	1	0.267750
27.166667	1	0.271250
27.183333	1	0.276375
27.200000	1	0.282000
27.216667	1	0.289500
27.233333	1	0.298375
27.250000	1	0.309750
27.266667	1	0.323375
27.283333	1	0.339000
27.300000	1	0.358125
27.316667	1	0.381250
27.333333	1	0.407750
27.350000	1	0.440125
27.366667	1	0.478875
27.383333	1	0.523625
27.400000	1	0.575625
27.416667	1	0.636625
27.433333	1	0.706125
27.450000	1	0.786375
27.466667	1	0.877250
27.483333	1	0.980500
27.500000	1	1.095875
27.516667	1	1.223250
27.533333	1	1.364500
27.550000	1	1.518250
27.566667	1	1.683250
27.583333	1	1.860500
27.600000	1	2.049250
27.616667	1	2.247250
27.633333	1	2.452750
27.650000	1	2.664750
27.666667	1	2.880375
27.683333	1	3.097750
27.700000	1	3.312750
27.716667	1	3.522750
27.733333	1	3.724500
27.750000	1	3.914375
27.766667	1	4.089750
27.783333	1	4.247375
27.800000	1	4.385000
27.816667	1	4.500500
27.833333	1	4.590500
27.850000	1	4.655375
27.866667	1	4.692000
27.883333	1	4.701250
27.900000	1	4.682750
27.916667	1	4.638000
27.933333	1	4.567750
27.950000	1	4.472500
27.966667	1	4.355875
27.983333	1	4.220750
28.000000	1	4.069250
28.016667	1	3.904875
28.033333	1	3.728250
28.050000	1	3.544750
28.066667	1	3.356750
28.083333	1	3.166625
28.100000	1	2.976250
28.116667	1	2.788750
28.133333	1	2.605625
28.150000	1	2.428625
28.166667	1	2.257500
28.183333	1	2.094750
28.200000	1	1.941375
28.216667	1	1.796250
28.233333	1	1.660250
28.250000	1	1.534000
28.266667	1	1.416250
28.283333	1	1.307625
28.300000	1	1.207250
28.316667	1	1.115375
28.333333	1	1.031250
28.350000	1	0.955000
28.366667	1	0.884500
28.383333	1	0.821125
28.400000	1	0.764000
28.416667	1	0.713750
28.433333	1	0.668125
28.450000	1	0.627375
28.466667	1	0.591375
28.483333	1	0.559625
28.500000	1	0.531625
28.516667	1	0.507750
28.533333	1	0.487000
28.550000	1	0.469625
28.566667	1	0.455000
28.583333	1	0.444250
28.600000	1	0.435625
28.616667	1	0.428875
28.633333	1	0.424125
28.650000	1	0.421875
28.666667	1	0.421000
28.683333	1	0.421875
28.700000	1	0.423625
28.716667	1	0.427000
28.733333	1	0.429625
28.750000	1	0.433750
28.766667	1	0.439125
28.783333	1	0.444375
28.800000	1	0.449875
28.816667	1	0.456750
28.833333	1	0.461750
28.850000	1	0.467875
28.866667	1	0.472625
28.883333	1	0.477500
28.900000	1	0.481875
28.916667	1	0.485750
28.933333	1	0.488625
28.950000	1	0.491125
28.966667	1	0.492500
28.983333	1	0.492500
29.000000	1	0.492125
29.016667	1	0.489625
29.033333	1	0.486250
29.050000	1	0.481375
29.066667	1	0.475375
29.083333	1	0.467250
29.100000	1	0.457125
29.116667	1	0.445625
29.133333	1	0.433125
29.150000	1	0.417375
29.166667	1	0.400250
29.183333	1	0.381125
29.200000	1	0.359250
29.216667	1	0.335625
29.233333	1	0.309125
29.250000	1	0.280500
29.266667	1	0.249875
29.283333	1	0.216250
29.300000	1	0.179500
29.316667	1	0.141250
29.333333	1	0.100000
29.350000	1	0.056500
29.366667	1	0.010125
29.383333	1	-0.037250
29.400000	1	-0.087750
29.416667	1	-0.139125
29.433333	1	-0.192625
29.450000	1	-0.247625
29.466667	1	-0.303750
29.483333	1	-0.360125
29.500000	1	-0.416375
29.516667	1	-0.472500
29.533333	1	-0.527875
29.550000	1	-0.582125
29.566667	1	-0.635000
29.583333	1	-0.685000
29.600000	1	-0.732250
29.616667	1	-0.776875
29.633333	1	-0.818000
29.650000	1	-0.855000
29.666667	1	-0.888750
29.683333	1	-0.918000
29.700000	1	-0.941250
29.716667	1	-0.960625
29.733333	1	-0.975250
29.750000	1	-0.984000
29.766667	1	-0.987875
29.783333	1	-0.987000
29.800000	1	-0.981625
29.816667	1	-0.971625
29.833333	1	-0.957125
29.850000	1	-0.938375
29.866667	1	-0.916125
29.883333	1	-0.890500
29.900000	1	-0.861750
29.916667	1	-0.830500
29.933333	1	-0.797000
29.950000	1	-0.760875
29.966667	1	-0.723500
29.983333	1	-0.684500
30.000000	1	-0.645375
30.016667	1	-0.605375
30.033333	1	-0.566125
30.050000	1	-0.526250
30.066667	1	-0.487250
30.083333	1	-0.448625
30.100000	1	-0.411750
30.116667	1	-0.374750
30.133333	1	-0.339750
30.150000	1	-0.306375
30.166667	1	-0.274250
30.183333	1	-0.243625
30.200000	1	-0.213750
30.216667	1	-0.185500
30.233333	1	-0.159875
30.250000	1	-0.135375
30.266667	1	-0.112000
30.283333	1	-0.090750
30.300000	1	-0.070625
30.316667	1	-0.052125
30.333333	1	-0.034750
30.350000	1	-0.019750
30.366667	1	-0.005250
30.383333	1	0.008250
30.400000	1	0.020375
30.416667	1	0.031625
30.433333	1	0.042375
30.450000	1	0.052250
30.466667	1	0.060875
30.483333	1	0.070000
30.500000	1	0.078000
30.516667	1	0.086250
30.533333	1	0.093750
30.550000	1	0.101250
30.566667	1	0.107625
30.583333	1	0.114875
30.600000	1	0.121250
30.616667	1	0.127500
30.633333	1	0.134625
30.650000	1	0.142000
30.666667	1	0.149125
30.683333	1	0.156125
30.700000	1	0.162875
30.716667	1	0.170625
30.733333	1	0.178250
30.750000	1	0.186500
30.766667	1	0.195750
30.783333	1	0.204250
30.800000	1	0.213250
30.816667	1	0.223125
30.833333	1	0.233500
30.850000	1	0.244500
30.866667	1	0.256250
30.883333	1	0.268250
30.900000	1	0.282250
30.916667	1	0.296250
30.933333	1	0.311750
30.950000	1	0.328625
30.966667	1	0.346875
30.983333	1	0.367875
31.000000	1	0.391500
31.016667	1	0.418500
31.033333	1	0.449750
31.050000	1	0.484625
31.066667	1	0.524625
31.083333	1	0.570000
31.100000	1	0.622375
31.116667	1	0.680875
31.133333	1	0.747750
31.150000	1	0.823500
31.166667	1	0.908375
31.183333	1	1.003250
31.200000	1	1.109250
31.216667	1	1.226500
31.233333	1	1.355250
31.250000	1	1.496000
31.266667	1	1.649250
31.283333	1	1.813250
31.300000	1	1.988500
31.316667	1	2.173500
31.333333	1	2.367750
31.350000	1	2.569875
31.366667	1	2.778750
31.383333	1	2.991750
31.400000	1	3.207375
31.416667	1	3.423125
31.433333	1	3.636875
31.450000	1	3.845625
31.466667	1	4.046375
31.483333	1	4.237750
31.500000	1	4.415625
31.516667	1	4.579375
31.533333	1	4.725625
31.550000	1	4.853250
31.566667	1	4.960000
31.583333	1	5.045750
31.600000	1	5.108875
31.616667	1	5.149375
31.633333	1	5.166625
31.650000	1	5.160625
31.666667	1	5.132250
31.683333	1	5.081875
31.700000	1	5.011375
31.716667	1	4.922000
31.733333	1	4.816125
31.750000	1	4.694500
31.766667	1	4.558875
31.783333	1	4.411875
31.800000	1	4.254875
31.816667	1	4.089750
31.833333	1	3.919000
31.850000	1	3.743500
31.866667	1	3.566250
31.883333	1	3.388875
31.900000	1	3.212125
31.916667	1	3.037625
31.933333	1	2.866375
31.950000	1	2.698250
31.966667	1	2.535375
31.983333	1	2.378375
32.000000	1	2.227250
32.016667	1	2.081750
32.033333	1	1.942625
32.050000	1	1.810000
32.066667	1	1.684375
32.083333	1	1.564500
32.100000	1	1.451625
32.116667	1	1.345375
32.133333	1	1.245250
32.150000	1	1.151750
32.166667	1	1.063625
32.183333	1	0.981125
32.200000	1	0.904000
32.216667	1	0.830875
32.233333	1	0.763125
32.250000	1	0.700000
32.266667	1	0.640625
32.283333	1	0.585250
32.300000	1	0.534125
32.316667	1	0.487125
32.333333	1	0.443125
32.350000	1	0.401750
32.366667	1	0.364500
32.383333	1	0.329625
32.400000	1	0.297625
32.416667	1	0.268000
32.433333	1	0.240750
32.450000	1	0.215625
32.466667	1	0.193250
32.483333	1	0.171375
32.500000	1	0.151625
32.516667	1	0.134500
32.533333	1	0.118500
32.550000	1	0.104000
32.566667	1	0.090250
32.583333	1	0.078000
32.600000	1	0.067250
32.616667	1	0.056750
32.633333	1	0.048250
32.650000	1	0.040875
32.666667	1	0.034000
32.683333	1	0.027500
32.700000	1	0.021500
32.716667	1	0.017000
32.733333	1	0.012500
32.750000	1	0.009250
32.766667	1	0.006625
32.783333	1	0.005000
32.800000	1	0.003000
32.816667	1	0.001750
32.833333	1	0.000125
32.850000	1	-0.000375
32.866667	1	-0.000500
32.883333	1	0.000000
32.900000	1	-0.000250
32.916667	1	0.000750
32.933333	1	0.001750
32.950000	1	0.002750
32.966667	1	0.003125
32.983333	1	0.003875
33.000000	1	0.004750
33.016667	1	0.006500
33.033333	1	0.008750
33.050000	1	0.010375
33.066667	1	0.012750
33.083333	1	0.014250
33.100000	1	0.016375
33.116667	1	0.017750
33.133333	1	0.019500
33.150000	1	0.020875
33.166667	1	0.022250
33.183333	1	0.024125
33.200000	1	0.025625
33.216667	1	0.027250
33.233333	1	0.028875
33.250000	1	0.030875
33.266667	1	0.032750
33.283333	1	0.034875
33.300000	1	0.036500
33.316667	1	0.038500
33.333333	1	0.040625
33.350000	1	0.042875
33.366667	1	0.044125
33.383333	1	0.045750
33.400000	1	0.047750
33.416667	1	0.049500
33.433333	1	0.051125
33.450000	1	0.053000
33.466667	1	0.054875
33.483333	1	0.056250
33.500000	1	0.057875
33.516667	1	0.058750
33.533333	1	0.060375
33.550000	1	0.062500
33.566667	1	0.065000
33.583333	1	0.066625
33.600000	1	0.068500
33.616667	1	0.070750
33.633333	1	0.072375
33.650000	1	0.073875
33.666667	1	0.075375
33.683333	1	0.077000
33.700000	1	0.078750
33.716667	1	0.080500
33.733333	1	0.083000
33.750000	1	0.084000
33.766667	1	0.086000
33.783333	1	0.087750
33.800000	1	0.089250
33.816667	1	0.090875
33.833333	1	0.093000
33.850000	1	0.094000
33.866667	1	0.095750
33.883333	1	0.097875
33.900000	1	0.099250
33.916667	1	0.100250
33.933333	1	0.101500
33.950000	1	0.103125
33.966667	1	0.104625
33.983333	1	0.105875
34.000000	1	0.106750
34.016667	1	0.106875
34.033333	1	0.107375
34.050000	1	0.107750
34.066667	1	0.107625
34.083333	1	0.108000
34.100000	1	0.107500
34.116667	1	0.107125
34.133333	1	0.107500
34.150000	1	0.107750
34.166667	1	0.106750
34.183333	1	0.105875
34.200000	1	0.104500
34.216667	1	0.103375
34.233333	1	0.101500
34.250000	1	0.100750
34.266667	1	0.099250
34.283333	1	0.098125
34.300000	1	0.097125
34.316667	1	0.095625
34.333333	1	0.094000
34.350000	1	0.092625
34.366667	1	0.091125
34.383333	1	0.089750
34.400000	1	0.088125
34.416667	1	0.087000
34.433333	1	0.085625
34.450000	1	0.084750
34.466667	1	0.083625
34.483333	1	0.082000
34.500000	1	0.081625
34.516667	1	0.080875
34.533333	1	0.080125
34.550000	1	0.078750
34.566667	1	0.078875
34.583333	1	0.078250
34.600000	1	0.078250
34.616667	1	0.077875
34.633333	1	0.078625
34.650000	1	0.079375
34.666667	1	0.079750
34.683333	1	0.080375
34.700000	1	0.081250
34.716667	1	0.082000
34.733333	1	0.083625
34.750000	1	0.085250
34.766667	1	0.087125
34.783333	1	0.087875
34.800000	1	0.088875
34.816667	1	0.090500
34.833333	1	0.091625
34.850000	1	0.093125
34.866667	1	0.094875
34.883333	1	0.096000
34.900000	1	0.096500
34.916667	1	0.097125
34.933333	1	0.098750
34.950000	1	0.099500
34.966667	1	0.099500
34.983333	1	0.099875
35.000000	1	0.099375
35.016667	1	0.099125
35.033333	1	0.098125
35.050000	1	0.097125
35.066667	1	0.097000
35.083333	1	0.096625
35.100000	1	0.095625
35.116667	1	0.095000
35.133333	1	0.094375
35.150000	1	0.093625
35.166667	1	0.092500
35.183333	1	0.091375
35.200000	1	0.090000
35.216667	1	0.088500
35.233333	1	0.087500
35.250000	1	0.086750
35.266667	1	0.086250
35.283333	1	0.085750
35.300000	1	0.084875
35.316667	1	0.083500
35.333333	1	0.083375
35.350000	1	0.083625
35.366667	1	0.083750
35.383333	1	0.083750
35.400000	1	0.083750
35.416667	1	0.083375
35.433333	1	0.083875
35.450000	1	0.084250
35.466667	1	0.084875
35.483333	1	0.085750
35.500000	1	0.087000
35.516667	1	0.087375
35.533333	1	0.088625
35.550000	1	0.089875
35.566667	1	0.090875
35.583333	1	0.092500
35.600000	1	0.093500
35.616667	1	0.094875
35.633333	1	0.096250
35.650000	1	0.097750
35.666667	1	0.098375
35.683333	1	0.099500
35.700000	1	0.100625
35.716667	1	0.102750
35.733333	1	0.103875
35.750000	1	0.105000
35.766667	1	0.106375
35.783333	1	0.108500
35.800000	1	0.109625
35.816667	1	0.110500
35.833333	1	0.111375
35.850000	1	0.113125
35.866667	1	0.113875
35.883333	1	0.115125
35.900000	1	0.116250
35.916667	1	0.117125
35.933333	1	0.118500
35.950000	1	0.119250
35.966667	1	0.120500
35.983333	1	0.121125
36.000000	1	0.122250
36.016667	1	0.122250
36.033333	1	0.123375
36.050000	1	0.123875
36.066667	1	0.124250
36.083333	1	0.125125
36.100000	1	0.125750
36.116667	1	0.126125
36.133333	1	0.126500
36.150000	1	0.127000
36.166667	1	0.126625
36.183333	1	0.127125
36.200000	1	0.127750
36.216667	1	0.128125
36.233333	1	0.128625
36.250000	1	0.129375
36.266667	1	0.129750
36.283333	1	0.130500
36.300000	1	0.131375
36.316667	1	0.131750
36.333333	1	0.132625
36.350000	1	0.133875
36.366667	1	0.134750
36.383333	1	0.135375
36.400000	1	0.136000
36.416667	1	0.136875
36.433333	1	0.138250
36.450000	1	0.139250
36.466667	1	0.140000
36.483333	1	0.141000
36.500000	1	0.142000
36.516667	1	0.142625
36.533333	1	0.143250
36.550000	1	0.143250
36.566667	1	0.143500
36.583333	1	0.143500
36.600000	1	0.143500
36.616667	1	0.143750
36.633333	1	0.143250
36.650000	1	0.142000
36.666667	1	0.140750
36.683333	1	0.139375
36.700000	1	0.138250
36.716667	1	0.136500
36.733333	1	0.134125
36.750000	1	0.131500
36.766667	1	0.129000
36.783333	1	0.126500
36.800000	1	0.124250
36.816667	1	0.120750
36.833333	1	0.118375
36.850000	1	0.115375
36.866667	1	0.112375
36.883333	1	0.109375
36.900000	1	0.106000
36.916667	1	0.102875
36.933333	1	0.099625
36.950000	1	0.096375
36.966667	1	0.093625
36.983333	1	0.090500
37.000000	1	0.086375
37.016667	1	0.083375
37.033333	1	0.080500
37.050000	1	0.078625
37.066667	1	0.075875
37.083333	1	0.073875
37.100000	1	0.071250
37.116667	1	0.069375
37.133333	1	0.067625
37.150000	1	0.066000
37.166667	1	0.064500
37.183333	1	0.063125
37.200000	1	0.062250
37.216667	1	0.061625
37.233333	1	0.060250
37.250000	1	0.060250
37.266667	1	0.059875
37.283333	1	0.059750
37.300000	1	0.060000
37.316667	1	0.060375
37.333333	1	0.060500
37.350000	1	0.060625
37.366667	1	0.060500
37.383333	1	0.060625
37.400000	1	0.061500
37.416667	1	0.062375
37.433333	1	0.063000
37.450000	1	0.063500
37.466667	1	0.063875
37.483333	1	0.064250
37.500000	1	0.065000
37.516667	1	0.065625
37.533333	1	0.066250
37.550000	1	0.066750
37.566667	1	0.066625
37.583333	1	0.066875
37.600000	1	0.067375
37.616667	1	0.067500
37.633333	1	0.067250
37.650000	1	0.066625
37.666667	1	0.067250
37.683333	1	0.067750
37.700000	1	0.067750
37.716667	1	0.067750
37.733333	1	0.067750
37.750000	1	0.068000
37.766667	1	0.067500
37.783333	1	0.067000
37.800000	1	0.066500
37.816667	1	0.066625
37.833333	1	0.066000
37.850000	1	0.066000
37.866667	1	0.065500
37.883333	1	0.065000
37.900000	1	0.064125
37.916667	1	0.063625
37.933333	1	0.062750
37.950000	1	0.062625
37.966667	1	0.062500
37.983333	1	0.061875
38.000000	1	0.061125
38.016667	1	0.060250
38.033333	1	0.059875
38.050000	1	0.058500
38.066667	1	0.058250
38.083333	1	0.057750
38.100000	1	0.057125
38.116667	1	0.056500
38.133333	1	0.056000
38.150000	1	0.055500
38.166667	1	0.055375
38.183333	1	0.054875
38.200000	1	0.055375
38.216667	1	0.054875
38.233333	1	0.054375
38.250000	1	0.053750
38.266667	1	0.052750
38.283333	1	0.052000
38.300000	1	0.051625
38.316667	1	0.051125
38.333333	1	0.050250
38.350000	1	0.049250
38.366667	1	0.048500
38.383333	1	0.047500
38.400000	1	0.045250
38.416667	1	0.044000
38.433333	1	0.042500
38.450000	1	0.041000
38.466667	1	0.039125
38.483333	1	0.037250
38.500000	1	0.035500
38.516667	1	0.033875
38.533333	1	0.031625
38.550000	1	0.030000
38.566667	1	0.027375
38.583333	1	0.025750
38.600000	1	0.022875
38.616667	1	0.020375
38.633333	1	0.018875
38.650000	1	0.016875
38.666667	1	0.015125
38.683333	1	0.013625
38.700000	1	0.012750
38.716667	1	0.011250
38.733333	1	0.009625
38.750000	1	0.008000
38.766667	1	0.006250
38.783333	1	0.004500
38.800000	1	0.003500
38.816667	1	0.002000
38.833333	1	0.000750
38.850000	1	-0.000250
38.866667	1	-0.000125
38.883333	1	-0.001000
38.900000	1	-0.001875
38.916667	1	-0.002750
38.933333	1	-0.003000
38.950000	1	-0.003750
38.966667	1	-0.004625
38.983333	1	-0.005250
39.000000	1	-0.005875
39.016667	1	-0.006000
39.033333	1	-0.006125
39.050000	1	-0.006500
39.066667	1	-0.006875
39.083333	1	-0.006875
39.100000	1	-0.007375
39.116667	1	-0.007875
39.133333	1	-0.008875
39.150000	1	-0.009625
39.166667	1	-0.010500
39.183333	1	-0.011375
39.200000	1	-0.012125
39.216667	1	-0.013625
39.233333	1	-0.014625
39.250000	1	-0.014875
39.266667	1	-0.016000
39.283333	1	-0.016500
39.300000	1	-0.017375
39.316667	1	-0.019000
39.333333	1	-0.020250
39.350000	1	-0.022125
39.366667	1	-0.023750
39.383333	1	-0.024750
39.400000	1	-0.025875
39.416667	1	-0.027625
39.433333	1	-0.028750
39.450000	1	-0.030750
39.466667	1	-0.032250
39.483333	1	-0.033750
39.500000	1	-0.035625
39.516667	1	-0.037625
39.533333	1	-0.039750
39.550000	1	-0.041250
39.566667	1	-0.042500
39.583333	1	-0.043625
39.600000	1	-0.044375
39.616667	1	-0.046000
39.633333	1	-0.047250
39.650000	1	-0.048500
39.666667	1	-0.048875
39.683333	1	-0.049125
39.700000	1	-0.049125
39.716667	1	-0.049250
39.733333	1	-0.049875
39.750000	1	-0.049500
39.766667	1	-0.049375
39.783333	1	-0.049000
39.800000	1	-0.048500
39.816667	1	-0.047750
39.833333	1	-0.046625
39.850000	1	-0.045625
39.866667	1	-0.044500
39.883333	1	-0.043000
39.900000	1	-0.042125
39.916667	1	-0.040750
39.933333	1	-0.040125
39.950000	1	-0.038750
39.966667	1	-0.038125
39.983333	1	-0.037125
40.000000	1	-0.036125
