URL	chrom://7040-86g6c92/XVault/Ultimate_3000/20/20240517_CMO_FP23_FP25_MarkusDeplate.seq/356.smp/RI_1.channel/RI_1.chm
Channel	RI_1

Injection Information:
Data Vault	XVault
Sequence	20240517_CMO_FP23_FP25_MarkusDeplate
Name	FP25_24_s2
Number	49
Position	BE1
Comment	
Processing Method	
Instrument Method	run_25B_method
Type	Unknown
Status	Finished
Inject Time	29.05.2024 02:49:00 +02:00
Volume (µl)	20.0000
Dilution Factor	1.0000
Weight	1.0000

Chromatogram Data Information:
Time Min. (min)	0.000000
Time Max. (min)	40.000000
Data Points	2401
Detector	RI
Generating Data System	Chromeleon 7.3.2.11814
Exporting Data System	Chromeleon 7.3.2.0
Operator	Instrument Controller
Signal Quantity	Refractive 
Signal Unit	µRIU
Signal Min.	-1.117250
Signal Max.	66.120625
Channel	RI_1
Driver Name	RID520Driver.dll
Channel Type	Evaluation
Min. Step (s)	1
Max. Step (s)	1
Average Step (s)	1

Signal Parameter Information:
Signal Info	

Chromatogram Data:
Time (min)	Step (s)	Value (µRIU)
0.000000	n.a.	-0.194125
0.016667	1	-0.196375
0.033333	1	-0.198500
0.050000	1	-0.200375
0.066667	1	-0.201750
0.083333	1	-0.203250
0.100000	1	-0.204750
0.116667	1	-0.206250
0.133333	1	-0.207750
0.150000	1	-0.209375
0.166667	1	-0.210875
0.183333	1	-0.212375
0.200000	1	-0.213500
0.216667	1	-0.214750
0.233333	1	-0.216125
0.250000	1	-0.217750
0.266667	1	-0.218750
0.283333	1	-0.219625
0.300000	1	-0.220625
0.316667	1	-0.222125
0.333333	1	-0.222500
0.350000	1	-0.224375
0.366667	1	-0.225375
0.383333	1	-0.227125
0.400000	1	-0.228750
0.416667	1	-0.228625
0.433333	1	-0.227500
0.450000	1	-0.225500
0.466667	1	-0.223375
0.483333	1	-0.221625
0.500000	1	-0.220375
0.516667	1	-0.218750
0.533333	1	-0.217875
0.550000	1	-0.217250
0.566667	1	-0.218125
0.583333	1	-0.218625
0.600000	1	-0.220250
0.616667	1	-0.221625
0.633333	1	-0.221875
0.650000	1	-0.221875
0.666667	1	-0.220750
0.683333	1	-0.219750
0.700000	1	-0.218750
0.716667	1	-0.218000
0.733333	1	-0.216250
0.750000	1	-0.214750
0.766667	1	-0.213000
0.783333	1	-0.211625
0.800000	1	-0.209875
0.816667	1	-0.208875
0.833333	1	-0.206750
0.850000	1	-0.205250
0.866667	1	-0.203750
0.883333	1	-0.202000
0.900000	1	-0.201500
0.916667	1	-0.201125
0.933333	1	-0.200500
0.950000	1	-0.200250
0.966667	1	-0.200000
0.983333	1	-0.199750
1.000000	1	-0.200125
1.016667	1	-0.199875
1.033333	1	-0.200000
1.050000	1	-0.200500
1.066667	1	-0.200750
1.083333	1	-0.201250
1.100000	1	-0.201625
1.116667	1	-0.202250
1.133333	1	-0.203125
1.150000	1	-0.203875
1.166667	1	-0.204750
1.183333	1	-0.205125
1.200000	1	-0.205750
1.216667	1	-0.206125
1.233333	1	-0.206625
1.250000	1	-0.207375
1.266667	1	-0.208125
1.283333	1	-0.209125
1.300000	1	-0.209625
1.316667	1	-0.210250
1.333333	1	-0.210875
1.350000	1	-0.212125
1.366667	1	-0.212625
1.383333	1	-0.213000
1.400000	1	-0.213250
1.416667	1	-0.213500
1.433333	1	-0.213250
1.450000	1	-0.213125
1.466667	1	-0.212875
1.483333	1	-0.213125
1.500000	1	-0.212625
1.516667	1	-0.212625
1.533333	1	-0.211875
1.550000	1	-0.211500
1.566667	1	-0.211500
1.583333	1	-0.211875
1.600000	1	-0.211250
1.616667	1	-0.210500
1.633333	1	-0.209125
1.650000	1	-0.208250
1.666667	1	-0.207750
1.683333	1	-0.207000
1.700000	1	-0.206000
1.716667	1	-0.205000
1.733333	1	-0.204125
1.750000	1	-0.203125
1.766667	1	-0.202625
1.783333	1	-0.201750
1.800000	1	-0.200250
1.816667	1	-0.198750
1.833333	1	-0.197875
1.850000	1	-0.196875
1.866667	1	-0.195500
1.883333	1	-0.194375
1.900000	1	-0.193500
1.916667	1	-0.192375
1.933333	1	-0.192000
1.950000	1	-0.191750
1.966667	1	-0.191500
1.983333	1	-0.190375
2.000000	1	-0.189875
2.016667	1	-0.189250
2.033333	1	-0.188375
2.050000	1	-0.187875
2.066667	1	-0.187000
2.083333	1	-0.186625
2.100000	1	-0.186125
2.116667	1	-0.185500
2.133333	1	-0.185250
2.150000	1	-0.185125
2.166667	1	-0.185500
2.183333	1	-0.185125
2.200000	1	-0.185250
2.216667	1	-0.185750
2.233333	1	-0.185750
2.250000	1	-0.185125
2.266667	1	-0.185250
2.283333	1	-0.185375
2.300000	1	-0.185875
2.316667	1	-0.186125
2.333333	1	-0.186750
2.350000	1	-0.188000
2.366667	1	-0.188625
2.383333	1	-0.189500
2.400000	1	-0.191125
2.416667	1	-0.191750
2.433333	1	-0.193375
2.450000	1	-0.194375
2.466667	1	-0.195375
2.483333	1	-0.196500
2.500000	1	-0.197875
2.516667	1	-0.199250
2.533333	1	-0.201375
2.550000	1	-0.203250
2.566667	1	-0.204500
2.583333	1	-0.205750
2.600000	1	-0.206750
2.616667	1	-0.208000
2.633333	1	-0.209000
2.650000	1	-0.210000
2.666667	1	-0.211000
2.683333	1	-0.212125
2.700000	1	-0.212625
2.716667	1	-0.213500
2.733333	1	-0.213375
2.750000	1	-0.213625
2.766667	1	-0.214625
2.783333	1	-0.215875
2.800000	1	-0.215375
2.816667	1	-0.215875
2.833333	1	-0.215375
2.850000	1	-0.214875
2.866667	1	-0.213875
2.883333	1	-0.212625
2.900000	1	-0.211625
2.916667	1	-0.210625
2.933333	1	-0.210250
2.950000	1	-0.209000
2.966667	1	-0.208000
2.983333	1	-0.207000
3.000000	1	-0.205875
3.016667	1	-0.204875
3.033333	1	-0.203625
3.050000	1	-0.202875
3.066667	1	-0.200500
3.083333	1	-0.199375
3.100000	1	-0.197750
3.116667	1	-0.196125
3.133333	1	-0.194375
3.150000	1	-0.193250
3.166667	1	-0.192125
3.183333	1	-0.191000
3.200000	1	-0.188875
3.216667	1	-0.187625
3.233333	1	-0.187000
3.250000	1	-0.186250
3.266667	1	-0.185375
3.283333	1	-0.184250
3.300000	1	-0.183250
3.316667	1	-0.183000
3.333333	1	-0.182750
3.350000	1	-0.181875
3.366667	1	-0.181250
3.383333	1	-0.180750
3.400000	1	-0.180750
3.416667	1	-0.180750
3.433333	1	-0.180250
3.450000	1	-0.180500
3.466667	1	-0.181000
3.483333	1	-0.181625
3.500000	1	-0.180875
3.516667	1	-0.180875
3.533333	1	-0.182000
3.550000	1	-0.181875
3.566667	1	-0.181625
3.583333	1	-0.182750
3.600000	1	-0.183000
3.616667	1	-0.183250
3.633333	1	-0.183000
3.650000	1	-0.183000
3.666667	1	-0.182625
3.683333	1	-0.183125
3.700000	1	-0.183250
3.716667	1	-0.183625
3.733333	1	-0.183875
3.750000	1	-0.184250
3.766667	1	-0.183750
3.783333	1	-0.183125
3.800000	1	-0.182750
3.816667	1	-0.182875
3.833333	1	-0.182750
3.850000	1	-0.182375
3.866667	1	-0.182250
3.883333	1	-0.181375
3.900000	1	-0.181125
3.916667	1	-0.180750
3.933333	1	-0.180625
3.950000	1	-0.180000
3.966667	1	-0.179625
3.983333	1	-0.179125
4.000000	1	-0.178625
4.016667	1	-0.177625
4.033333	1	-0.177000
4.050000	1	-0.176375
4.066667	1	-0.175875
4.083333	1	-0.175250
4.100000	1	-0.174250
4.116667	1	-0.173375
4.133333	1	-0.173375
4.150000	1	-0.172500
4.166667	1	-0.172125
4.183333	1	-0.171000
4.200000	1	-0.170250
4.216667	1	-0.170125
4.233333	1	-0.170000
4.250000	1	-0.169875
4.266667	1	-0.169500
4.283333	1	-0.168750
4.300000	1	-0.168375
4.316667	1	-0.167875
4.333333	1	-0.167625
4.350000	1	-0.166875
4.366667	1	-0.166125
4.383333	1	-0.166125
4.400000	1	-0.166375
4.416667	1	-0.166000
4.433333	1	-0.166625
4.450000	1	-0.166750
4.466667	1	-0.166375
4.483333	1	-0.166125
4.500000	1	-0.166000
4.516667	1	-0.165875
4.533333	1	-0.165750
4.550000	1	-0.166125
4.566667	1	-0.166125
4.583333	1	-0.165000
4.600000	1	-0.164250
4.616667	1	-0.162875
4.633333	1	-0.161625
4.650000	1	-0.161125
4.666667	1	-0.159875
4.683333	1	-0.158125
4.700000	1	-0.156250
4.716667	1	-0.154750
4.733333	1	-0.152625
4.750000	1	-0.150125
4.766667	1	-0.147875
4.783333	1	-0.145250
4.800000	1	-0.142625
4.816667	1	-0.138750
4.833333	1	-0.135375
4.850000	1	-0.132375
4.866667	1	-0.129875
4.883333	1	-0.126875
4.900000	1	-0.124250
4.916667	1	-0.121250
4.933333	1	-0.118375
4.950000	1	-0.115500
4.966667	1	-0.112875
4.983333	1	-0.110000
5.000000	1	-0.107500
5.016667	1	-0.104500
5.033333	1	-0.101875
5.050000	1	-0.099500
5.066667	1	-0.098000
5.083333	1	-0.096000
5.100000	1	-0.093875
5.116667	1	-0.091750
5.133333	1	-0.089125
5.150000	1	-0.087125
5.166667	1	-0.085250
5.183333	1	-0.082750
5.200000	1	-0.080375
5.216667	1	-0.077875
5.233333	1	-0.075625
5.250000	1	-0.073375
5.266667	1	-0.071750
5.283333	1	-0.069375
5.300000	1	-0.066750
5.316667	1	-0.064000
5.333333	1	-0.061500
5.350000	1	-0.058125
5.366667	1	-0.055125
5.383333	1	-0.052000
5.400000	1	-0.048750
5.416667	1	-0.045250
5.433333	1	-0.042375
5.450000	1	-0.038750
5.466667	1	-0.034625
5.483333	1	-0.030625
5.500000	1	-0.027750
5.516667	1	-0.024250
5.533333	1	-0.020500
5.550000	1	-0.016375
5.566667	1	-0.012750
5.583333	1	-0.008750
5.600000	1	-0.005125
5.616667	1	-0.002250
5.633333	1	0.001625
5.650000	1	0.005000
5.666667	1	0.007750
5.683333	1	0.010375
5.700000	1	0.012625
5.716667	1	0.014875
5.733333	1	0.018250
5.750000	1	0.019875
5.766667	1	0.021125
5.783333	1	0.023375
5.800000	1	0.025125
5.816667	1	0.025750
5.833333	1	0.027000
5.850000	1	0.028250
5.866667	1	0.028375
5.883333	1	0.028500
5.900000	1	0.028125
5.916667	1	0.027750
5.933333	1	0.027375
5.950000	1	0.026375
5.966667	1	0.026625
5.983333	1	0.026500
6.000000	1	0.026000
6.016667	1	0.025625
6.033333	1	0.024500
6.050000	1	0.023750
6.066667	1	0.022750
6.083333	1	0.022125
6.100000	1	0.021375
6.116667	1	0.021375
6.133333	1	0.019875
6.150000	1	0.019250
6.166667	1	0.017875
6.183333	1	0.017125
6.200000	1	0.016375
6.216667	1	0.015750
6.233333	1	0.014500
6.250000	1	0.012500
6.266667	1	0.011500
6.283333	1	0.009750
6.300000	1	0.008875
6.316667	1	0.007875
6.333333	1	0.007000
6.350000	1	0.005625
6.366667	1	0.003625
6.383333	1	0.002000
6.400000	1	-0.000125
6.416667	1	-0.002375
6.433333	1	-0.004375
6.450000	1	-0.006625
6.466667	1	-0.009125
6.483333	1	-0.011875
6.500000	1	-0.014375
6.516667	1	-0.017375
6.533333	1	-0.020250
6.550000	1	-0.023250
6.566667	1	-0.026500
6.583333	1	-0.029125
6.600000	1	-0.031875
6.616667	1	-0.035500
6.633333	1	-0.039000
6.650000	1	-0.042125
6.666667	1	-0.045625
6.683333	1	-0.049500
6.700000	1	-0.052875
6.716667	1	-0.056250
6.733333	1	-0.059375
6.750000	1	-0.062500
6.766667	1	-0.065625
6.783333	1	-0.068750
6.800000	1	-0.071750
6.816667	1	-0.074625
6.833333	1	-0.077000
6.850000	1	-0.079375
6.866667	1	-0.082250
6.883333	1	-0.085000
6.900000	1	-0.087125
6.916667	1	-0.089250
6.933333	1	-0.091125
6.950000	1	-0.092875
6.966667	1	-0.094500
6.983333	1	-0.095875
7.000000	1	-0.097500
7.016667	1	-0.098500
7.033333	1	-0.100250
7.050000	1	-0.101125
7.066667	1	-0.102375
7.083333	1	-0.103250
7.100000	1	-0.103500
7.116667	1	-0.104000
7.133333	1	-0.103625
7.150000	1	-0.103625
7.166667	1	-0.103375
7.183333	1	-0.102875
7.200000	1	-0.102375
7.216667	1	-0.101875
7.233333	1	-0.101500
7.250000	1	-0.100750
7.266667	1	-0.100250
7.283333	1	-0.099625
7.300000	1	-0.098500
7.316667	1	-0.096750
7.333333	1	-0.095250
7.350000	1	-0.094125
7.366667	1	-0.092250
7.383333	1	-0.090750
7.400000	1	-0.088875
7.416667	1	-0.086250
7.433333	1	-0.084125
7.450000	1	-0.081500
7.466667	1	-0.079250
7.483333	1	-0.076250
7.500000	1	-0.073500
7.516667	1	-0.070750
7.533333	1	-0.067500
7.550000	1	-0.063875
7.566667	1	-0.061625
7.583333	1	-0.058500
7.600000	1	-0.055500
7.616667	1	-0.052125
7.633333	1	-0.048750
7.650000	1	-0.045875
7.666667	1	-0.043125
7.683333	1	-0.039875
7.700000	1	-0.037875
7.716667	1	-0.035125
7.733333	1	-0.032750
7.750000	1	-0.030000
7.766667	1	-0.027750
7.783333	1	-0.026250
7.800000	1	-0.024625
7.816667	1	-0.023000
7.833333	1	-0.022000
7.850000	1	-0.021500
7.866667	1	-0.021750
7.883333	1	-0.021625
7.900000	1	-0.021625
7.916667	1	-0.022750
7.933333	1	-0.023875
7.950000	1	-0.025000
7.966667	1	-0.026500
7.983333	1	-0.029125
8.000000	1	-0.031000
8.016667	1	-0.033625
8.033333	1	-0.036625
8.050000	1	-0.039875
8.066667	1	-0.043500
8.083333	1	-0.047125
8.100000	1	-0.050875
8.116667	1	-0.055000
8.133333	1	-0.059000
8.150000	1	-0.063125
8.166667	1	-0.067375
8.183333	1	-0.072375
8.200000	1	-0.076625
8.216667	1	-0.081375
8.233333	1	-0.085875
8.250000	1	-0.091375
8.266667	1	-0.096250
8.283333	1	-0.101500
8.300000	1	-0.105750
8.316667	1	-0.110000
8.333333	1	-0.114500
8.350000	1	-0.118625
8.366667	1	-0.122125
8.383333	1	-0.126625
8.400000	1	-0.130375
8.416667	1	-0.134375
8.433333	1	-0.138750
8.450000	1	-0.141875
8.466667	1	-0.145000
8.483333	1	-0.148000
8.500000	1	-0.150500
8.516667	1	-0.153125
8.533333	1	-0.156125
8.550000	1	-0.159000
8.566667	1	-0.162125
8.583333	1	-0.164625
8.600000	1	-0.166625
8.616667	1	-0.169250
8.633333	1	-0.171750
8.650000	1	-0.174625
8.666667	1	-0.176375
8.683333	1	-0.178500
8.700000	1	-0.180375
8.716667	1	-0.182500
8.733333	1	-0.184125
8.750000	1	-0.186375
8.766667	1	-0.188625
8.783333	1	-0.189875
8.800000	1	-0.191250
8.816667	1	-0.192250
8.833333	1	-0.193000
8.850000	1	-0.194250
8.866667	1	-0.195625
8.883333	1	-0.196375
8.900000	1	-0.197125
8.916667	1	-0.197375
8.933333	1	-0.197000
8.950000	1	-0.197125
8.966667	1	-0.197000
8.983333	1	-0.196500
9.000000	1	-0.196000
9.016667	1	-0.195000
9.033333	1	-0.194250
9.050000	1	-0.193375
9.066667	1	-0.191625
9.083333	1	-0.190375
9.100000	1	-0.188625
9.116667	1	-0.186000
9.133333	1	-0.183875
9.150000	1	-0.181750
9.166667	1	-0.179750
9.183333	1	-0.176875
9.200000	1	-0.174875
9.216667	1	-0.172750
9.233333	1	-0.170750
9.250000	1	-0.169375
9.266667	1	-0.167625
9.283333	1	-0.165875
9.300000	1	-0.164250
9.316667	1	-0.162375
9.333333	1	-0.160750
9.350000	1	-0.158875
9.366667	1	-0.157375
9.383333	1	-0.157000
9.400000	1	-0.155375
9.416667	1	-0.154750
9.433333	1	-0.154500
9.450000	1	-0.153875
9.466667	1	-0.153625
9.483333	1	-0.153500
9.500000	1	-0.153500
9.516667	1	-0.153500
9.533333	1	-0.153125
9.550000	1	-0.153000
9.566667	1	-0.153125
9.583333	1	-0.152625
9.600000	1	-0.152750
9.616667	1	-0.152500
9.633333	1	-0.152875
9.650000	1	-0.152250
9.666667	1	-0.152250
9.683333	1	-0.151875
9.700000	1	-0.151625
9.716667	1	-0.151125
9.733333	1	-0.151000
9.750000	1	-0.150875
9.766667	1	-0.151000
9.783333	1	-0.150500
9.800000	1	-0.150625
9.816667	1	-0.150625
9.833333	1	-0.150875
9.850000	1	-0.151000
9.866667	1	-0.151375
9.883333	1	-0.151750
9.900000	1	-0.151750
9.916667	1	-0.151250
9.933333	1	-0.151000
9.950000	1	-0.151375
9.966667	1	-0.152500
9.983333	1	-0.152750
10.000000	1	-0.153250
10.016667	1	-0.154000
10.033333	1	-0.153500
10.050000	1	-0.152625
10.066667	1	-0.151375
10.083333	1	-0.149375
10.100000	1	-0.146250
10.116667	1	-0.143250
10.133333	1	-0.138750
10.150000	1	-0.132875
10.166667	1	-0.125875
10.183333	1	-0.117625
10.200000	1	-0.107500
10.216667	1	-0.095875
10.233333	1	-0.082750
10.250000	1	-0.066625
10.266667	1	-0.049125
10.283333	1	-0.027875
10.300000	1	-0.004250
10.316667	1	0.022250
10.333333	1	0.051000
10.350000	1	0.083750
10.366667	1	0.118625
10.383333	1	0.157625
10.400000	1	0.197375
10.416667	1	0.235500
10.433333	1	0.264500
10.450000	1	0.274750
10.466667	1	0.254250
10.483333	1	0.198500
10.500000	1	0.115875
10.516667	1	0.038625
10.533333	1	0.024750
10.550000	1	0.156000
10.566667	1	0.532125
10.583333	1	1.249875
10.600000	1	2.399375
10.616667	1	4.055875
10.633333	1	6.267000
10.650000	1	9.060625
10.666667	1	12.447750
10.683333	1	16.413750
10.700000	1	20.918875
10.716667	1	25.883000
10.733333	1	31.176000
10.750000	1	36.598750
10.766667	1	41.864125
10.783333	1	46.593125
10.800000	1	50.342250
10.816667	1	52.663750
10.833333	1	53.234750
10.850000	1	51.961625
10.866667	1	49.023875
10.883333	1	44.827750
10.900000	1	39.889250
10.916667	1	34.702500
10.933333	1	29.652125
10.950000	1	24.988000
10.966667	1	20.843625
10.983333	1	17.267500
11.000000	1	14.250375
11.016667	1	11.751625
11.033333	1	9.713250
11.050000	1	8.067875
11.066667	1	6.748750
11.083333	1	5.696125
11.100000	1	4.855750
11.116667	1	4.184625
11.133333	1	3.645750
11.150000	1	3.211125
11.166667	1	2.856875
11.183333	1	2.565625
11.200000	1	2.324500
11.216667	1	2.121500
11.233333	1	1.949875
11.250000	1	1.803875
11.266667	1	1.678750
11.283333	1	1.570375
11.300000	1	1.476375
11.316667	1	1.394125
11.333333	1	1.321875
11.350000	1	1.258250
11.366667	1	1.201875
11.383333	1	1.152750
11.400000	1	1.109375
11.416667	1	1.070000
11.433333	1	1.034750
11.450000	1	1.002875
11.466667	1	0.974750
11.483333	1	0.949625
11.500000	1	0.926375
11.516667	1	0.904375
11.533333	1	0.884875
11.550000	1	0.867625
11.566667	1	0.851500
11.583333	1	0.837625
11.600000	1	0.825500
11.616667	1	0.815125
11.633333	1	0.806500
11.650000	1	0.800375
11.666667	1	0.795125
11.683333	1	0.792000
11.700000	1	0.790500
11.716667	1	0.791125
11.733333	1	0.792500
11.750000	1	0.796625
11.766667	1	0.802000
11.783333	1	0.807750
11.800000	1	0.814000
11.816667	1	0.820500
11.833333	1	0.826500
11.850000	1	0.833000
11.866667	1	0.838000
11.883333	1	0.843250
11.900000	1	0.847375
11.916667	1	0.851875
11.933333	1	0.855750
11.950000	1	0.859625
11.966667	1	0.863750
11.983333	1	0.867375
12.000000	1	0.871625
12.016667	1	0.875750
12.033333	1	0.881125
12.050000	1	0.886625
12.066667	1	0.893000
12.083333	1	0.899875
12.100000	1	0.907750
12.116667	1	0.915500
12.133333	1	0.924750
12.150000	1	0.934500
12.166667	1	0.945625
12.183333	1	0.958375
12.200000	1	0.971875
12.216667	1	0.986625
12.233333	1	1.003625
12.250000	1	1.022250
12.266667	1	1.042875
12.283333	1	1.065000
12.300000	1	1.090000
12.316667	1	1.117500
12.333333	1	1.148750
12.350000	1	1.185125
12.366667	1	1.229500
12.383333	1	1.285500
12.400000	1	1.359625
12.416667	1	1.457750
12.433333	1	1.587875
12.450000	1	1.758625
12.466667	1	1.978125
12.483333	1	2.256125
12.500000	1	2.596000
12.516667	1	3.001250
12.533333	1	3.469500
12.550000	1	3.996625
12.566667	1	4.572375
12.583333	1	5.183500
12.600000	1	5.815750
12.616667	1	6.452500
12.633333	1	7.080750
12.650000	1	7.687250
12.666667	1	8.264750
12.683333	1	8.807750
12.700000	1	9.318500
12.716667	1	9.800250
12.733333	1	10.260625
12.750000	1	10.706625
12.766667	1	11.149500
12.783333	1	11.596250
12.800000	1	12.053750
12.816667	1	12.522375
12.833333	1	12.990625
12.850000	1	13.423250
12.866667	1	13.751500
12.883333	1	13.877500
12.900000	1	13.704375
12.916667	1	13.173625
12.933333	1	12.300625
12.950000	1	11.170875
12.966667	1	9.907750
12.983333	1	8.634125
13.000000	1	7.439500
13.016667	1	6.371875
13.033333	1	5.447875
13.050000	1	4.665750
13.066667	1	4.015500
13.083333	1	3.482000
13.100000	1	3.049875
13.116667	1	2.702625
13.133333	1	2.425500
13.150000	1	2.205125
13.166667	1	2.029250
13.183333	1	1.887625
13.200000	1	1.774250
13.216667	1	1.681250
13.233333	1	1.604750
13.250000	1	1.540250
13.266667	1	1.484125
13.283333	1	1.435500
13.300000	1	1.392000
13.316667	1	1.353500
13.333333	1	1.318000
13.350000	1	1.285625
13.366667	1	1.256625
13.383333	1	1.230750
13.400000	1	1.207875
13.416667	1	1.187000
13.433333	1	1.168625
13.450000	1	1.153375
13.466667	1	1.141250
13.483333	1	1.130625
13.500000	1	1.122875
13.516667	1	1.117250
13.533333	1	1.113750
13.550000	1	1.110750
13.566667	1	1.108625
13.583333	1	1.106375
13.600000	1	1.102250
13.616667	1	1.097125
13.633333	1	1.090625
13.650000	1	1.082000
13.666667	1	1.071000
13.683333	1	1.057375
13.700000	1	1.042375
13.716667	1	1.025500
13.733333	1	1.007750
13.750000	1	0.990250
13.766667	1	0.972125
13.783333	1	0.954000
13.800000	1	0.936125
13.816667	1	0.919625
13.833333	1	0.902875
13.850000	1	0.886875
13.866667	1	0.871375
13.883333	1	0.857000
13.900000	1	0.843250
13.916667	1	0.829625
13.933333	1	0.816625
13.950000	1	0.804000
13.966667	1	0.791750
13.983333	1	0.779875
14.000000	1	0.769125
14.016667	1	0.758500
14.033333	1	0.748750
14.050000	1	0.739250
14.066667	1	0.730375
14.083333	1	0.721750
14.100000	1	0.713500
14.116667	1	0.705500
14.133333	1	0.698625
14.150000	1	0.691500
14.166667	1	0.684250
14.183333	1	0.677875
14.200000	1	0.672750
14.216667	1	0.668500
14.233333	1	0.664875
14.250000	1	0.661875
14.266667	1	0.660625
14.283333	1	0.660125
14.300000	1	0.660625
14.316667	1	0.662375
14.333333	1	0.665125
14.350000	1	0.670125
14.366667	1	0.675625
14.383333	1	0.683250
14.400000	1	0.693375
14.416667	1	0.708250
14.433333	1	0.729125
14.450000	1	0.758500
14.466667	1	0.804625
14.483333	1	0.877250
14.500000	1	0.992250
14.516667	1	1.171375
14.533333	1	1.445875
14.550000	1	1.858875
14.566667	1	2.462625
14.583333	1	3.321125
14.600000	1	4.509250
14.616667	1	6.110000
14.633333	1	8.208250
14.650000	1	10.877750
14.666667	1	14.172625
14.683333	1	18.114875
14.700000	1	22.682000
14.716667	1	27.798250
14.733333	1	33.337000
14.750000	1	39.114250
14.766667	1	44.899500
14.783333	1	50.430625
14.800000	1	55.448500
14.816667	1	59.705750
14.833333	1	62.994000
14.850000	1	65.159000
14.866667	1	66.120625
14.883333	1	65.874625
14.900000	1	64.494500
14.916667	1	62.116000
14.933333	1	58.922500
14.950000	1	55.119375
14.966667	1	50.916500
14.983333	1	46.515125
15.000000	1	42.079875
15.016667	1	37.744375
15.033333	1	33.609750
15.050000	1	29.746750
15.066667	1	26.196625
15.083333	1	22.979125
15.100000	1	20.096125
15.116667	1	17.535000
15.133333	1	15.273625
15.150000	1	13.285875
15.166667	1	11.545375
15.183333	1	10.027250
15.200000	1	8.705500
15.216667	1	7.556125
15.233333	1	6.560875
15.250000	1	5.702375
15.266667	1	4.966125
15.283333	1	4.339375
15.300000	1	3.808875
15.316667	1	3.364125
15.333333	1	2.996750
15.350000	1	2.695875
15.366667	1	2.453375
15.383333	1	2.260500
15.400000	1	2.109000
15.416667	1	1.990375
15.433333	1	1.897875
15.450000	1	1.824375
15.466667	1	1.764750
15.483333	1	1.712875
15.500000	1	1.665875
15.516667	1	1.619875
15.533333	1	1.573250
15.550000	1	1.525375
15.566667	1	1.475375
15.583333	1	1.424375
15.600000	1	1.374375
15.616667	1	1.324125
15.633333	1	1.276000
15.650000	1	1.228750
15.666667	1	1.184375
15.683333	1	1.143375
15.700000	1	1.104000
15.716667	1	1.068500
15.733333	1	1.035375
15.750000	1	1.004250
15.766667	1	0.975375
15.783333	1	0.947625
15.800000	1	0.921500
15.816667	1	0.897000
15.833333	1	0.874125
15.850000	1	0.853000
15.866667	1	0.833250
15.883333	1	0.814750
15.900000	1	0.799875
15.916667	1	0.786750
15.933333	1	0.775750
15.950000	1	0.767250
15.966667	1	0.760250
15.983333	1	0.755625
16.000000	1	0.753250
16.016667	1	0.752125
16.033333	1	0.752500
16.050000	1	0.754000
16.066667	1	0.756750
16.083333	1	0.759500
16.100000	1	0.763250
16.116667	1	0.767250
16.133333	1	0.771250
16.150000	1	0.775000
16.166667	1	0.778125
16.183333	1	0.780125
16.200000	1	0.782000
16.216667	1	0.783125
16.233333	1	0.783000
16.250000	1	0.781500
16.266667	1	0.779500
16.283333	1	0.776750
16.300000	1	0.774250
16.316667	1	0.771500
16.333333	1	0.768250
16.350000	1	0.766500
16.366667	1	0.766000
16.383333	1	0.766375
16.400000	1	0.767625
16.416667	1	0.771000
16.433333	1	0.775500
16.450000	1	0.781125
16.466667	1	0.787125
16.483333	1	0.793375
16.500000	1	0.799125
16.516667	1	0.804750
16.533333	1	0.808875
16.550000	1	0.811750
16.566667	1	0.813625
16.583333	1	0.812750
16.600000	1	0.810500
16.616667	1	0.807625
16.633333	1	0.803500
16.650000	1	0.798375
16.666667	1	0.793750
16.683333	1	0.789500
16.700000	1	0.787500
16.716667	1	0.786750
16.733333	1	0.788375
16.750000	1	0.791000
16.766667	1	0.795875
16.783333	1	0.801500
16.800000	1	0.810625
16.816667	1	0.819500
16.833333	1	0.828750
16.850000	1	0.837375
16.866667	1	0.846125
16.883333	1	0.853125
16.900000	1	0.858500
16.916667	1	0.861875
16.933333	1	0.863375
16.950000	1	0.863375
16.966667	1	0.861625
16.983333	1	0.859125
17.000000	1	0.855250
17.016667	1	0.850750
17.033333	1	0.846250
17.050000	1	0.841625
17.066667	1	0.838000
17.083333	1	0.834750
17.100000	1	0.832375
17.116667	1	0.830625
17.133333	1	0.829625
17.150000	1	0.830125
17.166667	1	0.830875
17.183333	1	0.832000
17.200000	1	0.834500
17.216667	1	0.838000
17.233333	1	0.841500
17.250000	1	0.845500
17.266667	1	0.850125
17.283333	1	0.855625
17.300000	1	0.861125
17.316667	1	0.867125
17.333333	1	0.872875
17.350000	1	0.879500
17.366667	1	0.885875
17.383333	1	0.891375
17.400000	1	0.896750
17.416667	1	0.901500
17.433333	1	0.905000
17.450000	1	0.907375
17.466667	1	0.907625
17.483333	1	0.907125
17.500000	1	0.904625
17.516667	1	0.900375
17.533333	1	0.894625
17.550000	1	0.887250
17.566667	1	0.877750
17.583333	1	0.867750
17.600000	1	0.856000
17.616667	1	0.843625
17.633333	1	0.829875
17.650000	1	0.815000
17.666667	1	0.801000
17.683333	1	0.786125
17.700000	1	0.771250
17.716667	1	0.756375
17.733333	1	0.742000
17.750000	1	0.728125
17.766667	1	0.714500
17.783333	1	0.702500
17.800000	1	0.691125
17.816667	1	0.680750
17.833333	1	0.670625
17.850000	1	0.662000
17.866667	1	0.653375
17.883333	1	0.645875
17.900000	1	0.639125
17.916667	1	0.633250
17.933333	1	0.627500
17.950000	1	0.621875
17.966667	1	0.616000
17.983333	1	0.610125
18.000000	1	0.604250
18.016667	1	0.599250
18.033333	1	0.593125
18.050000	1	0.587375
18.066667	1	0.582250
18.083333	1	0.577125
18.100000	1	0.572500
18.116667	1	0.568875
18.133333	1	0.565375
18.150000	1	0.563000
18.166667	1	0.560750
18.183333	1	0.559375
18.200000	1	0.559000
18.216667	1	0.558375
18.233333	1	0.558625
18.250000	1	0.558625
18.266667	1	0.559000
18.283333	1	0.558875
18.300000	1	0.559250
18.316667	1	0.558875
18.333333	1	0.559500
18.350000	1	0.561000
18.366667	1	0.562000
18.383333	1	0.564500
18.400000	1	0.567750
18.416667	1	0.572500
18.433333	1	0.578125
18.450000	1	0.585125
18.466667	1	0.593625
18.483333	1	0.604625
18.500000	1	0.618000
18.516667	1	0.633250
18.533333	1	0.649875
18.550000	1	0.669125
18.566667	1	0.690625
18.583333	1	0.713375
18.600000	1	0.738750
18.616667	1	0.766250
18.633333	1	0.795625
18.650000	1	0.826125
18.666667	1	0.857750
18.683333	1	0.891250
18.700000	1	0.926125
18.716667	1	0.961500
18.733333	1	0.997500
18.750000	1	1.033125
18.766667	1	1.068750
18.783333	1	1.102625
18.800000	1	1.135250
18.816667	1	1.166125
18.833333	1	1.193875
18.850000	1	1.217125
18.866667	1	1.236000
18.883333	1	1.250250
18.900000	1	1.258625
18.916667	1	1.261000
18.933333	1	1.257000
18.950000	1	1.245875
18.966667	1	1.227875
18.983333	1	1.204750
19.000000	1	1.174875
19.016667	1	1.140375
19.033333	1	1.101625
19.050000	1	1.059500
19.066667	1	1.016000
19.083333	1	0.970375
19.100000	1	0.924875
19.116667	1	0.880750
19.133333	1	0.839125
19.150000	1	0.802250
19.166667	1	0.769125
19.183333	1	0.741875
19.200000	1	0.721000
19.216667	1	0.708000
19.233333	1	0.703750
19.250000	1	0.709625
19.266667	1	0.726500
19.283333	1	0.753500
19.300000	1	0.791125
19.316667	1	0.839750
19.333333	1	0.899375
19.350000	1	0.968750
19.366667	1	1.046125
19.383333	1	1.129875
19.400000	1	1.217375
19.416667	1	1.306375
19.433333	1	1.393250
19.450000	1	1.476500
19.466667	1	1.552750
19.483333	1	1.620125
19.500000	1	1.677375
19.516667	1	1.721625
19.533333	1	1.752875
19.550000	1	1.769875
19.566667	1	1.773375
19.583333	1	1.764875
19.600000	1	1.744375
19.616667	1	1.712625
19.633333	1	1.672875
19.650000	1	1.625000
19.666667	1	1.571125
19.683333	1	1.512500
19.700000	1	1.450875
19.716667	1	1.387625
19.733333	1	1.323500
19.750000	1	1.259250
19.766667	1	1.194500
19.783333	1	1.130750
19.800000	1	1.068625
19.816667	1	1.008250
19.833333	1	0.949500
19.850000	1	0.893750
19.866667	1	0.840000
19.883333	1	0.789750
19.900000	1	0.742500
19.916667	1	0.698000
19.933333	1	0.657500
19.950000	1	0.621750
19.966667	1	0.589500
19.983333	1	0.562500
20.000000	1	0.540875
20.016667	1	0.524375
20.033333	1	0.513250
20.050000	1	0.508500
20.066667	1	0.509625
20.083333	1	0.517000
20.100000	1	0.530750
20.116667	1	0.550000
20.133333	1	0.575375
20.150000	1	0.604750
20.166667	1	0.637750
20.183333	1	0.673125
20.200000	1	0.710375
20.216667	1	0.746250
20.233333	1	0.780500
20.250000	1	0.810625
20.266667	1	0.836875
20.283333	1	0.856750
20.300000	1	0.871875
20.316667	1	0.878250
20.333333	1	0.878000
20.350000	1	0.870375
20.366667	1	0.855750
20.383333	1	0.834750
20.400000	1	0.808875
20.416667	1	0.779375
20.433333	1	0.747125
20.450000	1	0.712750
20.466667	1	0.679250
20.483333	1	0.646250
20.500000	1	0.615000
20.516667	1	0.587875
20.533333	1	0.564375
20.550000	1	0.546625
20.566667	1	0.534500
20.583333	1	0.529500
20.600000	1	0.533000
20.616667	1	0.545375
20.633333	1	0.566875
20.650000	1	0.597750
20.666667	1	0.638000
20.683333	1	0.688750
20.700000	1	0.746875
20.716667	1	0.814125
20.733333	1	0.888250
20.750000	1	0.967375
20.766667	1	1.048375
20.783333	1	1.130500
20.800000	1	1.210125
20.816667	1	1.284875
20.833333	1	1.352125
20.850000	1	1.409125
20.866667	1	1.454375
20.883333	1	1.486625
20.900000	1	1.504375
20.916667	1	1.507500
20.933333	1	1.497375
20.950000	1	1.474125
20.966667	1	1.438625
20.983333	1	1.392000
21.000000	1	1.338375
21.016667	1	1.277625
21.033333	1	1.212875
21.050000	1	1.145500
21.066667	1	1.077750
21.083333	1	1.011125
21.100000	1	0.944750
21.116667	1	0.882125
21.133333	1	0.823250
21.150000	1	0.768375
21.166667	1	0.717500
21.183333	1	0.670625
21.200000	1	0.627375
21.216667	1	0.588000
21.233333	1	0.552250
21.250000	1	0.520625
21.266667	1	0.491875
21.283333	1	0.466250
21.300000	1	0.442875
21.316667	1	0.422125
21.333333	1	0.402875
21.350000	1	0.385625
21.366667	1	0.370125
21.383333	1	0.357000
21.400000	1	0.344375
21.416667	1	0.332250
21.433333	1	0.321500
21.450000	1	0.311875
21.466667	1	0.303000
21.483333	1	0.294875
21.500000	1	0.287875
21.516667	1	0.280875
21.533333	1	0.275375
21.550000	1	0.270000
21.566667	1	0.267375
21.583333	1	0.264250
21.600000	1	0.262000
21.616667	1	0.260250
21.633333	1	0.259750
21.650000	1	0.259750
21.666667	1	0.262000
21.683333	1	0.265000
21.700000	1	0.269625
21.716667	1	0.275250
21.733333	1	0.282500
21.750000	1	0.289750
21.766667	1	0.298375
21.783333	1	0.307375
21.800000	1	0.317125
21.816667	1	0.327375
21.833333	1	0.337375
21.850000	1	0.347375
21.866667	1	0.357250
21.883333	1	0.366750
21.900000	1	0.376000
21.916667	1	0.385250
21.933333	1	0.393000
21.950000	1	0.400375
21.966667	1	0.406750
21.983333	1	0.411875
22.000000	1	0.416750
22.016667	1	0.420750
22.033333	1	0.424375
22.050000	1	0.426375
22.066667	1	0.427875
22.083333	1	0.429875
22.100000	1	0.430625
22.116667	1	0.430875
22.133333	1	0.430500
22.150000	1	0.428875
22.166667	1	0.426250
22.183333	1	0.422875
22.200000	1	0.418125
22.216667	1	0.412500
22.233333	1	0.405875
22.250000	1	0.398000
22.266667	1	0.389500
22.283333	1	0.379750
22.300000	1	0.369000
22.316667	1	0.358125
22.333333	1	0.346375
22.350000	1	0.333625
22.366667	1	0.321250
22.383333	1	0.308000
22.400000	1	0.295375
22.416667	1	0.282875
22.433333	1	0.270750
22.450000	1	0.258500
22.466667	1	0.247250
22.483333	1	0.236750
22.500000	1	0.226375
22.516667	1	0.217250
22.533333	1	0.208000
22.550000	1	0.199375
22.566667	1	0.191375
22.583333	1	0.183875
22.600000	1	0.176875
22.616667	1	0.169375
22.633333	1	0.162875
22.650000	1	0.156750
22.666667	1	0.151000
22.683333	1	0.145000
22.700000	1	0.139125
22.716667	1	0.134250
22.733333	1	0.129625
22.750000	1	0.124750
22.766667	1	0.119750
22.783333	1	0.115250
22.800000	1	0.110875
22.816667	1	0.106750
22.833333	1	0.103000
22.850000	1	0.099125
22.866667	1	0.095875
22.883333	1	0.092750
22.900000	1	0.089500
22.916667	1	0.087500
22.933333	1	0.085750
22.950000	1	0.084500
22.966667	1	0.083250
22.983333	1	0.082375
23.000000	1	0.082000
23.016667	1	0.082125
23.033333	1	0.082875
23.050000	1	0.083250
23.066667	1	0.084125
23.083333	1	0.085500
23.100000	1	0.087250
23.116667	1	0.088875
23.133333	1	0.090500
23.150000	1	0.092250
23.166667	1	0.093750
23.183333	1	0.096125
23.200000	1	0.098625
23.216667	1	0.100500
23.233333	1	0.102375
23.250000	1	0.104375
23.266667	1	0.106750
23.283333	1	0.110125
23.300000	1	0.115000
23.316667	1	0.120875
23.333333	1	0.128625
23.350000	1	0.139625
23.366667	1	0.154125
23.383333	1	0.173875
23.400000	1	0.199250
23.416667	1	0.233000
23.433333	1	0.276250
23.450000	1	0.331875
23.466667	1	0.401125
23.483333	1	0.487125
23.500000	1	0.592250
23.516667	1	0.719000
23.533333	1	0.870125
23.550000	1	1.047625
23.566667	1	1.252375
23.583333	1	1.484750
23.600000	1	1.745000
23.616667	1	2.032250
23.633333	1	2.344500
23.650000	1	2.676875
23.666667	1	3.026125
23.683333	1	3.386500
23.700000	1	3.752250
23.716667	1	4.114625
23.733333	1	4.466875
23.750000	1	4.801000
23.766667	1	5.108750
23.783333	1	5.382375
23.800000	1	5.616125
23.816667	1	5.804875
23.833333	1	5.944625
23.850000	1	6.033375
23.866667	1	6.071000
23.883333	1	6.057500
23.900000	1	5.996375
23.916667	1	5.889125
23.933333	1	5.741750
23.950000	1	5.558125
23.966667	1	5.344625
23.983333	1	5.107375
24.000000	1	4.853250
24.016667	1	4.587250
24.033333	1	4.314750
24.050000	1	4.041000
24.066667	1	3.768500
24.083333	1	3.502000
24.100000	1	3.242750
24.116667	1	2.993750
24.133333	1	2.756500
24.150000	1	2.532125
24.166667	1	2.320250
24.183333	1	2.123000
24.200000	1	1.938875
24.216667	1	1.767500
24.233333	1	1.609500
24.250000	1	1.463750
24.266667	1	1.329875
24.283333	1	1.207500
24.300000	1	1.095500
24.316667	1	0.993125
24.333333	1	0.900750
24.350000	1	0.816375
24.366667	1	0.741500
24.383333	1	0.673875
24.400000	1	0.613875
24.416667	1	0.560625
24.433333	1	0.514000
24.450000	1	0.473250
24.466667	1	0.438375
24.483333	1	0.407625
24.500000	1	0.381000
24.516667	1	0.358000
24.533333	1	0.338375
24.550000	1	0.322125
24.566667	1	0.307500
24.583333	1	0.295250
24.600000	1	0.284250
24.616667	1	0.274375
24.633333	1	0.265250
24.650000	1	0.257625
24.666667	1	0.249625
24.683333	1	0.242500
24.700000	1	0.235625
24.716667	1	0.229000
24.733333	1	0.222125
24.750000	1	0.215500
24.766667	1	0.208500
24.783333	1	0.202750
24.800000	1	0.196500
24.816667	1	0.189750
24.833333	1	0.183125
24.850000	1	0.177000
24.866667	1	0.170625
24.883333	1	0.165125
24.900000	1	0.159375
24.916667	1	0.153875
24.933333	1	0.148875
24.950000	1	0.144625
24.966667	1	0.140625
24.983333	1	0.136750
25.000000	1	0.132875
25.016667	1	0.130000
25.033333	1	0.127000
25.050000	1	0.124250
25.066667	1	0.122000
25.083333	1	0.119500
25.100000	1	0.117250
25.116667	1	0.114875
25.133333	1	0.112750
25.150000	1	0.110625
25.166667	1	0.109250
25.183333	1	0.107625
25.200000	1	0.106375
25.216667	1	0.105375
25.233333	1	0.104625
25.250000	1	0.103625
25.266667	1	0.103125
25.283333	1	0.102500
25.300000	1	0.101375
25.316667	1	0.100125
25.333333	1	0.099625
25.350000	1	0.099000
25.366667	1	0.098125
25.383333	1	0.097750
25.400000	1	0.097375
25.416667	1	0.097125
25.433333	1	0.096875
25.450000	1	0.097375
25.466667	1	0.097750
25.483333	1	0.098375
25.500000	1	0.098500
25.516667	1	0.098875
25.533333	1	0.098875
25.550000	1	0.099250
25.566667	1	0.099125
25.583333	1	0.099875
25.600000	1	0.099750
25.616667	1	0.099750
25.633333	1	0.099750
25.650000	1	0.100125
25.666667	1	0.100125
25.683333	1	0.100250
25.700000	1	0.100000
25.716667	1	0.099500
25.733333	1	0.098875
25.750000	1	0.097375
25.766667	1	0.096125
25.783333	1	0.095000
25.800000	1	0.093375
25.816667	1	0.092500
25.833333	1	0.090625
25.850000	1	0.089500
25.866667	1	0.088750
25.883333	1	0.088750
25.900000	1	0.088500
25.916667	1	0.088375
25.933333	1	0.088375
25.950000	1	0.088375
25.966667	1	0.088375
25.983333	1	0.089375
26.000000	1	0.090250
26.016667	1	0.092625
26.033333	1	0.094875
26.050000	1	0.097125
26.066667	1	0.099750
26.083333	1	0.102875
26.100000	1	0.106875
26.116667	1	0.111500
26.133333	1	0.116000
26.150000	1	0.121500
26.166667	1	0.126875
26.183333	1	0.131500
26.200000	1	0.136750
26.216667	1	0.142500
26.233333	1	0.148375
26.250000	1	0.154500
26.266667	1	0.159250
26.283333	1	0.164250
26.300000	1	0.169000
26.316667	1	0.173250
26.333333	1	0.176625
26.350000	1	0.180000
26.366667	1	0.182500
26.383333	1	0.185125
26.400000	1	0.186750
26.416667	1	0.187625
26.433333	1	0.188625
26.450000	1	0.188625
26.466667	1	0.187375
26.483333	1	0.185625
26.500000	1	0.183750
26.516667	1	0.180375
26.533333	1	0.177875
26.550000	1	0.174000
26.566667	1	0.169875
26.583333	1	0.165750
26.600000	1	0.160250
26.616667	1	0.155500
26.633333	1	0.151125
26.650000	1	0.146875
26.666667	1	0.142250
26.683333	1	0.136375
26.700000	1	0.131125
26.716667	1	0.125875
26.733333	1	0.121000
26.750000	1	0.116000
26.766667	1	0.110875
26.783333	1	0.106125
26.800000	1	0.101250
26.816667	1	0.097500
26.833333	1	0.093000
26.850000	1	0.089750
26.866667	1	0.087125
26.883333	1	0.084375
26.900000	1	0.081000
26.916667	1	0.079000
26.933333	1	0.077375
26.950000	1	0.075375
26.966667	1	0.073125
26.983333	1	0.072000
27.000000	1	0.071000
27.016667	1	0.070750
27.033333	1	0.070250
27.050000	1	0.069875
27.066667	1	0.070500
27.083333	1	0.071125
27.100000	1	0.072500
27.116667	1	0.073750
27.133333	1	0.076000
27.150000	1	0.078250
27.166667	1	0.081500
27.183333	1	0.084625
27.200000	1	0.089500
27.216667	1	0.095250
27.233333	1	0.102375
27.250000	1	0.110875
27.266667	1	0.120625
27.283333	1	0.132625
27.300000	1	0.147875
27.316667	1	0.166250
27.333333	1	0.187875
27.350000	1	0.214500
27.366667	1	0.245875
27.383333	1	0.282375
27.400000	1	0.325125
27.416667	1	0.375625
27.433333	1	0.434625
27.450000	1	0.503000
27.466667	1	0.581875
27.483333	1	0.670875
27.500000	1	0.772000
27.516667	1	0.884375
27.533333	1	1.008875
27.550000	1	1.145500
27.566667	1	1.293625
27.583333	1	1.454375
27.600000	1	1.625000
27.616667	1	1.805750
27.633333	1	1.994875
27.650000	1	2.191500
27.666667	1	2.392500
27.683333	1	2.595500
27.700000	1	2.797750
27.716667	1	2.995500
27.733333	1	3.187125
27.750000	1	3.368625
27.766667	1	3.537625
27.783333	1	3.691125
27.800000	1	3.826000
27.816667	1	3.939500
27.833333	1	4.030625
27.850000	1	4.096875
27.866667	1	4.138375
27.883333	1	4.153375
27.900000	1	4.142500
27.916667	1	4.105500
27.933333	1	4.043750
27.950000	1	3.958500
27.966667	1	3.853750
27.983333	1	3.730000
28.000000	1	3.591125
28.016667	1	3.439125
28.033333	1	3.276625
28.050000	1	3.107000
28.066667	1	2.932625
28.083333	1	2.755500
28.100000	1	2.578375
28.116667	1	2.403875
28.133333	1	2.233875
28.150000	1	2.068875
28.166667	1	1.911000
28.183333	1	1.761250
28.200000	1	1.619750
28.216667	1	1.486875
28.233333	1	1.361875
28.250000	1	1.245500
28.266667	1	1.137125
28.283333	1	1.037750
28.300000	1	0.946625
28.316667	1	0.863375
28.333333	1	0.786750
28.350000	1	0.717375
28.366667	1	0.655000
28.383333	1	0.598375
28.400000	1	0.548500
28.416667	1	0.504125
28.433333	1	0.464875
28.450000	1	0.430375
28.466667	1	0.400250
28.483333	1	0.374125
28.500000	1	0.351750
28.516667	1	0.333375
28.533333	1	0.318625
28.550000	1	0.307000
28.566667	1	0.299000
28.583333	1	0.292625
28.600000	1	0.289750
28.616667	1	0.288750
28.633333	1	0.290000
28.650000	1	0.293875
28.666667	1	0.298875
28.683333	1	0.304375
28.700000	1	0.311125
28.716667	1	0.318375
28.733333	1	0.326750
28.750000	1	0.335625
28.766667	1	0.345375
28.783333	1	0.354875
28.800000	1	0.363750
28.816667	1	0.372875
28.833333	1	0.381750
28.850000	1	0.389875
28.866667	1	0.397750
28.883333	1	0.405000
28.900000	1	0.410625
28.916667	1	0.415875
28.933333	1	0.419625
28.950000	1	0.422500
28.966667	1	0.423500
28.983333	1	0.423000
29.000000	1	0.421125
29.016667	1	0.418750
29.033333	1	0.414125
29.050000	1	0.408125
29.066667	1	0.400500
29.083333	1	0.391375
29.100000	1	0.379375
29.116667	1	0.367000
29.133333	1	0.351500
29.150000	1	0.335000
29.166667	1	0.316000
29.183333	1	0.294250
29.200000	1	0.270750
29.216667	1	0.244750
29.233333	1	0.216500
29.250000	1	0.185750
29.266667	1	0.152875
29.283333	1	0.117125
29.300000	1	0.078750
29.316667	1	0.037875
29.333333	1	-0.005250
29.350000	1	-0.051125
29.366667	1	-0.098750
29.383333	1	-0.148125
29.400000	1	-0.199625
29.416667	1	-0.253000
29.433333	1	-0.308000
29.450000	1	-0.364625
29.466667	1	-0.421750
29.483333	1	-0.479125
29.500000	1	-0.537125
29.516667	1	-0.594500
29.533333	1	-0.651125
29.550000	1	-0.706625
29.566667	1	-0.760125
29.583333	1	-0.811250
29.600000	1	-0.859000
29.616667	1	-0.904000
29.633333	1	-0.946250
29.650000	1	-0.984375
29.666667	1	-1.017750
29.683333	1	-1.046750
29.700000	1	-1.070625
29.716667	1	-1.089375
29.733333	1	-1.103500
29.750000	1	-1.112375
29.766667	1	-1.117250
29.783333	1	-1.116625
29.800000	1	-1.111125
29.816667	1	-1.101250
29.833333	1	-1.086250
29.850000	1	-1.068000
29.866667	1	-1.045750
29.883333	1	-1.020625
29.900000	1	-0.992500
29.916667	1	-0.962125
29.933333	1	-0.929000
29.950000	1	-0.895125
29.966667	1	-0.859375
29.983333	1	-0.822750
30.000000	1	-0.786125
30.016667	1	-0.748375
30.033333	1	-0.710500
30.050000	1	-0.673750
30.066667	1	-0.636875
30.083333	1	-0.601250
30.100000	1	-0.566875
30.116667	1	-0.532875
30.133333	1	-0.501125
30.150000	1	-0.470750
30.166667	1	-0.441875
30.183333	1	-0.414250
30.200000	1	-0.387750
30.216667	1	-0.363000
30.233333	1	-0.340125
30.250000	1	-0.317750
30.266667	1	-0.298125
30.283333	1	-0.280000
30.300000	1	-0.262750
30.316667	1	-0.246750
30.333333	1	-0.232375
30.350000	1	-0.218625
30.366667	1	-0.206375
30.383333	1	-0.194750
30.400000	1	-0.184125
30.416667	1	-0.174625
30.433333	1	-0.166000
30.450000	1	-0.157250
30.466667	1	-0.149375
30.483333	1	-0.142000
30.500000	1	-0.135500
30.516667	1	-0.128500
30.533333	1	-0.122000
30.550000	1	-0.115500
30.566667	1	-0.109000
30.583333	1	-0.102625
30.600000	1	-0.095500
30.616667	1	-0.089375
30.633333	1	-0.081875
30.650000	1	-0.074500
30.666667	1	-0.067625
30.683333	1	-0.060250
30.700000	1	-0.052625
30.716667	1	-0.044750
30.733333	1	-0.036375
30.750000	1	-0.028375
30.766667	1	-0.020375
30.783333	1	-0.011125
30.800000	1	-0.002375
30.816667	1	0.006500
30.833333	1	0.016625
30.850000	1	0.027125
30.866667	1	0.037875
30.883333	1	0.049250
30.900000	1	0.060875
30.916667	1	0.073500
30.933333	1	0.087125
30.950000	1	0.101750
30.966667	1	0.118375
30.983333	1	0.136625
31.000000	1	0.156875
31.016667	1	0.180000
31.033333	1	0.206375
31.050000	1	0.236250
31.066667	1	0.270750
31.083333	1	0.309500
31.100000	1	0.354625
31.116667	1	0.405500
31.133333	1	0.463500
31.150000	1	0.528875
31.166667	1	0.603500
31.183333	1	0.688125
31.200000	1	0.782125
31.216667	1	0.886500
31.233333	1	1.002000
31.250000	1	1.129000
31.266667	1	1.266375
31.283333	1	1.415125
31.300000	1	1.574125
31.316667	1	1.742250
31.333333	1	1.920375
31.350000	1	2.105500
31.366667	1	2.297750
31.383333	1	2.494875
31.400000	1	2.695250
31.416667	1	2.897500
31.433333	1	3.098125
31.450000	1	3.294500
31.466667	1	3.485375
31.483333	1	3.666875
31.500000	1	3.836125
31.516667	1	3.992250
31.533333	1	4.133625
31.550000	1	4.258000
31.566667	1	4.362250
31.583333	1	4.447750
31.600000	1	4.512125
31.616667	1	4.555250
31.633333	1	4.576250
31.650000	1	4.575625
31.666667	1	4.553375
31.683333	1	4.510750
31.700000	1	4.449000
31.716667	1	4.369375
31.733333	1	4.273000
31.750000	1	4.161875
31.766667	1	4.037750
31.783333	1	3.902125
31.800000	1	3.757000
31.816667	1	3.604500
31.833333	1	3.446500
31.850000	1	3.283875
31.866667	1	3.120000
31.883333	1	2.955125
31.900000	1	2.790500
31.916667	1	2.627250
31.933333	1	2.467750
31.950000	1	2.311250
31.966667	1	2.160375
31.983333	1	2.013625
32.000000	1	1.872500
32.016667	1	1.737625
32.033333	1	1.608875
32.050000	1	1.485875
32.066667	1	1.369000
32.083333	1	1.259000
32.100000	1	1.155125
32.116667	1	1.056625
32.133333	1	0.964000
32.150000	1	0.877125
32.166667	1	0.795125
32.183333	1	0.719250
32.200000	1	0.647000
32.216667	1	0.580375
32.233333	1	0.517875
32.250000	1	0.459750
32.266667	1	0.405250
32.283333	1	0.354250
32.300000	1	0.307375
32.316667	1	0.264000
32.333333	1	0.223875
32.350000	1	0.187375
32.366667	1	0.153125
32.383333	1	0.121375
32.400000	1	0.091875
32.416667	1	0.065625
32.433333	1	0.041250
32.450000	1	0.018750
32.466667	1	-0.001750
32.483333	1	-0.020125
32.500000	1	-0.036875
32.516667	1	-0.052500
32.533333	1	-0.066000
32.550000	1	-0.078625
32.566667	1	-0.090375
32.583333	1	-0.101250
32.600000	1	-0.110625
32.616667	1	-0.118750
32.633333	1	-0.125625
32.650000	1	-0.132000
32.666667	1	-0.137500
32.683333	1	-0.142875
32.700000	1	-0.147250
32.716667	1	-0.150125
32.733333	1	-0.153375
32.750000	1	-0.155875
32.766667	1	-0.158375
32.783333	1	-0.159750
32.800000	1	-0.160750
32.816667	1	-0.161875
32.833333	1	-0.162000
32.850000	1	-0.162250
32.866667	1	-0.161875
32.883333	1	-0.162000
32.900000	1	-0.162000
32.916667	1	-0.162500
32.933333	1	-0.162375
32.950000	1	-0.161750
32.966667	1	-0.161625
32.983333	1	-0.160875
33.000000	1	-0.159750
33.016667	1	-0.158750
33.033333	1	-0.158375
33.050000	1	-0.157875
33.066667	1	-0.157750
33.083333	1	-0.157125
33.100000	1	-0.156875
33.116667	1	-0.156250
33.133333	1	-0.156125
33.150000	1	-0.155000
33.166667	1	-0.154375
33.183333	1	-0.154375
33.200000	1	-0.153750
33.216667	1	-0.153750
33.233333	1	-0.154125
33.250000	1	-0.153250
33.266667	1	-0.153000
33.283333	1	-0.153500
33.300000	1	-0.152875
33.316667	1	-0.152875
33.333333	1	-0.152500
33.350000	1	-0.152125
33.366667	1	-0.152250
33.383333	1	-0.152125
33.400000	1	-0.152000
33.416667	1	-0.151500
33.433333	1	-0.151000
33.450000	1	-0.151125
33.466667	1	-0.151500
33.483333	1	-0.151250
33.500000	1	-0.150875
33.516667	1	-0.150250
33.533333	1	-0.149250
33.550000	1	-0.147875
33.566667	1	-0.147000
33.583333	1	-0.146625
33.600000	1	-0.145250
33.616667	1	-0.144250
33.633333	1	-0.143000
33.650000	1	-0.141125
33.666667	1	-0.139375
33.683333	1	-0.137375
33.700000	1	-0.135500
33.716667	1	-0.133875
33.733333	1	-0.132375
33.750000	1	-0.130125
33.766667	1	-0.128625
33.783333	1	-0.126500
33.800000	1	-0.124250
33.816667	1	-0.121750
33.833333	1	-0.119625
33.850000	1	-0.117625
33.866667	1	-0.115125
33.883333	1	-0.113625
33.900000	1	-0.111625
33.916667	1	-0.109500
33.933333	1	-0.107750
33.950000	1	-0.106125
33.966667	1	-0.104375
33.983333	1	-0.103500
34.000000	1	-0.101875
34.016667	1	-0.101125
34.033333	1	-0.100250
34.050000	1	-0.099625
34.066667	1	-0.099375
34.083333	1	-0.099625
34.100000	1	-0.099875
34.116667	1	-0.100000
34.133333	1	-0.099750
34.150000	1	-0.100250
34.166667	1	-0.101500
34.183333	1	-0.102750
34.200000	1	-0.103875
34.216667	1	-0.104750
34.233333	1	-0.106250
34.250000	1	-0.107500
34.266667	1	-0.109625
34.283333	1	-0.111250
34.300000	1	-0.113625
34.316667	1	-0.115625
34.333333	1	-0.116625
34.350000	1	-0.118375
34.366667	1	-0.119875
34.383333	1	-0.121000
34.400000	1	-0.122000
34.416667	1	-0.123000
34.433333	1	-0.123875
34.450000	1	-0.124000
34.466667	1	-0.124000
34.483333	1	-0.123750
34.500000	1	-0.124000
34.516667	1	-0.123125
34.533333	1	-0.122125
34.550000	1	-0.121250
34.566667	1	-0.120125
34.583333	1	-0.119000
34.600000	1	-0.117875
34.616667	1	-0.115875
34.633333	1	-0.114625
34.650000	1	-0.113625
34.666667	1	-0.112375
34.683333	1	-0.111250
34.700000	1	-0.109625
34.716667	1	-0.108750
34.733333	1	-0.107000
34.750000	1	-0.105125
34.766667	1	-0.104125
34.783333	1	-0.102875
34.800000	1	-0.102125
34.816667	1	-0.100875
34.833333	1	-0.100375
34.850000	1	-0.099500
34.866667	1	-0.098750
34.883333	1	-0.097875
34.900000	1	-0.098000
34.916667	1	-0.098000
34.933333	1	-0.098125
34.950000	1	-0.097500
34.966667	1	-0.098000
34.983333	1	-0.098125
35.000000	1	-0.098875
35.016667	1	-0.099375
35.033333	1	-0.099625
35.050000	1	-0.099875
35.066667	1	-0.100750
35.083333	1	-0.100750
35.100000	1	-0.101000
35.116667	1	-0.101500
35.133333	1	-0.102125
35.150000	1	-0.102500
35.166667	1	-0.102375
35.183333	1	-0.103250
35.200000	1	-0.103250
35.216667	1	-0.104125
35.233333	1	-0.104500
35.250000	1	-0.105000
35.266667	1	-0.105875
35.283333	1	-0.106000
35.300000	1	-0.106500
35.316667	1	-0.106375
35.333333	1	-0.106875
35.350000	1	-0.107250
35.366667	1	-0.108000
35.383333	1	-0.109125
35.400000	1	-0.109250
35.416667	1	-0.109500
35.433333	1	-0.109375
35.450000	1	-0.109375
35.466667	1	-0.108750
35.483333	1	-0.109500
35.500000	1	-0.109375
35.516667	1	-0.109375
35.533333	1	-0.109375
35.550000	1	-0.109000
35.566667	1	-0.109125
35.583333	1	-0.109375
35.600000	1	-0.109000
35.616667	1	-0.108250
35.633333	1	-0.107625
35.650000	1	-0.107000
35.666667	1	-0.107250
35.683333	1	-0.106625
35.700000	1	-0.105625
35.716667	1	-0.104875
35.733333	1	-0.104375
35.750000	1	-0.103250
35.766667	1	-0.103000
35.783333	1	-0.102875
35.800000	1	-0.102125
35.816667	1	-0.102625
35.833333	1	-0.102875
35.850000	1	-0.102375
35.866667	1	-0.102125
35.883333	1	-0.102625
35.900000	1	-0.103250
35.916667	1	-0.104125
35.933333	1	-0.104375
35.950000	1	-0.104125
35.966667	1	-0.104875
35.983333	1	-0.105625
36.000000	1	-0.106500
36.016667	1	-0.107750
36.033333	1	-0.108125
36.050000	1	-0.108500
36.066667	1	-0.109750
36.083333	1	-0.110625
36.100000	1	-0.111250
36.116667	1	-0.112125
36.133333	1	-0.112750
36.150000	1	-0.112625
36.166667	1	-0.112750
36.183333	1	-0.112750
36.200000	1	-0.112375
36.216667	1	-0.112625
36.233333	1	-0.111750
36.250000	1	-0.111375
36.266667	1	-0.110875
36.283333	1	-0.109500
36.300000	1	-0.107875
36.316667	1	-0.106000
36.333333	1	-0.104375
36.350000	1	-0.102750
36.366667	1	-0.100625
36.383333	1	-0.097625
36.400000	1	-0.095500
36.416667	1	-0.092500
36.433333	1	-0.089500
36.450000	1	-0.086875
36.466667	1	-0.083000
36.483333	1	-0.079625
36.500000	1	-0.076875
36.516667	1	-0.073250
36.533333	1	-0.070625
36.550000	1	-0.067125
36.566667	1	-0.063875
36.583333	1	-0.060500
36.600000	1	-0.057250
36.616667	1	-0.054375
36.633333	1	-0.051625
36.650000	1	-0.048625
36.666667	1	-0.046500
36.683333	1	-0.044000
36.700000	1	-0.041625
36.716667	1	-0.040250
36.733333	1	-0.038625
36.750000	1	-0.037375
36.766667	1	-0.036250
36.783333	1	-0.036375
36.800000	1	-0.035625
36.816667	1	-0.035250
36.833333	1	-0.035625
36.850000	1	-0.036375
36.866667	1	-0.037625
36.883333	1	-0.038125
36.900000	1	-0.039375
36.916667	1	-0.041250
36.933333	1	-0.043500
36.950000	1	-0.046375
36.966667	1	-0.048125
36.983333	1	-0.051000
37.000000	1	-0.054125
37.016667	1	-0.058000
37.033333	1	-0.061625
37.050000	1	-0.064500
37.066667	1	-0.069000
37.083333	1	-0.073000
37.100000	1	-0.076625
37.116667	1	-0.081125
37.133333	1	-0.085250
37.150000	1	-0.089000
37.166667	1	-0.093625
37.183333	1	-0.097875
37.200000	1	-0.102625
37.216667	1	-0.107000
37.233333	1	-0.111625
37.250000	1	-0.115875
37.266667	1	-0.120375
37.283333	1	-0.123875
37.300000	1	-0.127750
37.316667	1	-0.130625
37.333333	1	-0.134250
37.350000	1	-0.137750
37.366667	1	-0.140250
37.383333	1	-0.142875
37.400000	1	-0.146000
37.416667	1	-0.148250
37.433333	1	-0.150500
37.450000	1	-0.153000
37.466667	1	-0.154500
37.483333	1	-0.156250
37.500000	1	-0.157250
37.516667	1	-0.158500
37.533333	1	-0.159375
37.550000	1	-0.159875
37.566667	1	-0.160500
37.583333	1	-0.161250
37.600000	1	-0.161500
37.616667	1	-0.161250
37.633333	1	-0.161375
37.650000	1	-0.161750
37.666667	1	-0.161375
37.683333	1	-0.161000
37.700000	1	-0.160625
37.716667	1	-0.160250
37.733333	1	-0.159250
37.750000	1	-0.159250
37.766667	1	-0.159000
37.783333	1	-0.157375
37.800000	1	-0.156875
37.816667	1	-0.156000
37.833333	1	-0.155875
37.850000	1	-0.155750
37.866667	1	-0.155750
37.883333	1	-0.155250
37.900000	1	-0.155250
37.916667	1	-0.156000
37.933333	1	-0.156000
37.950000	1	-0.156625
37.966667	1	-0.157250
37.983333	1	-0.157125
38.000000	1	-0.157875
38.016667	1	-0.158250
38.033333	1	-0.159625
38.050000	1	-0.160500
38.066667	1	-0.162000
38.083333	1	-0.163750
38.100000	1	-0.164500
38.116667	1	-0.166625
38.133333	1	-0.168250
38.150000	1	-0.169750
38.166667	1	-0.171500
38.183333	1	-0.173625
38.200000	1	-0.175625
38.216667	1	-0.178000
38.233333	1	-0.180250
38.250000	1	-0.182375
38.266667	1	-0.183625
38.283333	1	-0.185125
38.300000	1	-0.186375
38.316667	1	-0.187750
38.333333	1	-0.189500
38.350000	1	-0.190375
38.366667	1	-0.191750
38.383333	1	-0.192250
38.400000	1	-0.193000
38.416667	1	-0.193250
38.433333	1	-0.193625
38.450000	1	-0.193750
38.466667	1	-0.194000
38.483333	1	-0.194250
38.500000	1	-0.193875
38.516667	1	-0.193125
38.533333	1	-0.193000
38.550000	1	-0.191750
38.566667	1	-0.191125
38.583333	1	-0.190500
38.600000	1	-0.189875
38.616667	1	-0.188500
38.633333	1	-0.187625
38.650000	1	-0.186875
38.666667	1	-0.185875
38.683333	1	-0.184750
38.700000	1	-0.183625
38.716667	1	-0.182250
38.733333	1	-0.181500
38.750000	1	-0.180125
38.766667	1	-0.179250
38.783333	1	-0.178625
38.800000	1	-0.177625
38.816667	1	-0.177125
38.833333	1	-0.175875
38.850000	1	-0.175625
38.866667	1	-0.174875
38.883333	1	-0.174375
38.900000	1	-0.174500
38.916667	1	-0.174000
38.933333	1	-0.173875
38.950000	1	-0.173750
38.966667	1	-0.174500
38.983333	1	-0.175125
39.000000	1	-0.176000
39.016667	1	-0.176250
39.033333	1	-0.177625
39.050000	1	-0.179000
39.066667	1	-0.180500
39.083333	1	-0.181000
39.100000	1	-0.182750
39.116667	1	-0.184375
39.133333	1	-0.186375
39.150000	1	-0.188375
39.166667	1	-0.190500
39.183333	1	-0.192375
39.200000	1	-0.194250
39.216667	1	-0.196125
39.233333	1	-0.197750
39.250000	1	-0.199375
39.266667	1	-0.200875
39.283333	1	-0.202875
39.300000	1	-0.203875
39.316667	1	-0.205875
39.333333	1	-0.207125
39.350000	1	-0.208250
39.366667	1	-0.209125
39.383333	1	-0.209750
39.400000	1	-0.210375
39.416667	1	-0.211000
39.433333	1	-0.211250
39.450000	1	-0.211375
39.466667	1	-0.211750
39.483333	1	-0.212000
39.500000	1	-0.211375
39.516667	1	-0.210375
39.533333	1	-0.209875
39.550000	1	-0.208875
39.566667	1	-0.207375
39.583333	1	-0.206500
39.600000	1	-0.205125
39.616667	1	-0.203875
39.633333	1	-0.201750
39.650000	1	-0.200375
39.666667	1	-0.198500
39.683333	1	-0.197125
39.700000	1	-0.196000
39.716667	1	-0.194000
39.733333	1	-0.192250
39.750000	1	-0.190625
39.766667	1	-0.189500
39.783333	1	-0.188000
39.800000	1	-0.187500
39.816667	1	-0.186500
39.833333	1	-0.185375
39.850000	1	-0.184375
39.866667	1	-0.183625
39.883333	1	-0.183125
39.900000	1	-0.183000
39.916667	1	-0.182375
39.933333	1	-0.182000
39.950000	1	-0.181250
39.966667	1	-0.180875
39.983333	1	-0.180500
40.000000	1	-0.180625
