URL	chrom://7040-86g6c92/XVault/Ultimate_3000/20/20240517_CMO_FP23_FP25_MarkusDeplate.seq/904.smp/RI_1.channel/RI_1.chm
Channel	RI_1

Injection Information:
Data Vault	XVault
Sequence	20240517_CMO_FP23_FP25_MarkusDeplate
Name	FP25_22.1_s4
Number	73
Position	BG1
Comment	
Processing Method	
Instrument Method	run_25B_method
Type	Unknown
Status	Finished
Inject Time	29.05.2024 19:52:59 +02:00
Volume (µl)	20.0000
Dilution Factor	1.0000
Weight	1.0000

Chromatogram Data Information:
Time Min. (min)	0.000000
Time Max. (min)	40.000000
Data Points	2401
Detector	RI
Generating Data System	Chromeleon 7.3.2.11814
Exporting Data System	Chromeleon 7.3.2.0
Operator	Instrument Controller
Signal Quantity	Refractive 
Signal Unit	µRIU
Signal Min.	-0.999625
Signal Max.	54.115375
Channel	RI_1
Driver Name	RID520Driver.dll
Channel Type	Evaluation
Min. Step (s)	1
Max. Step (s)	1
Average Step (s)	1

Signal Parameter Information:
Signal Info	

Chromatogram Data:
Time (min)	Step (s)	Value (µRIU)
0.000000	n.a.	-0.039750
0.016667	1	-0.039250
0.033333	1	-0.039125
0.050000	1	-0.038500
0.066667	1	-0.037000
0.083333	1	-0.036125
0.100000	1	-0.035000
0.116667	1	-0.033625
0.133333	1	-0.032250
0.150000	1	-0.031000
0.166667	1	-0.029750
0.183333	1	-0.028750
0.200000	1	-0.027125
0.216667	1	-0.026500
0.233333	1	-0.024625
0.250000	1	-0.022750
0.266667	1	-0.020875
0.283333	1	-0.019625
0.300000	1	-0.018500
0.316667	1	-0.016875
0.333333	1	-0.015875
0.350000	1	-0.015125
0.366667	1	-0.014250
0.383333	1	-0.013875
0.400000	1	-0.013250
0.416667	1	-0.012250
0.433333	1	-0.010000
0.450000	1	-0.007000
0.466667	1	-0.004375
0.483333	1	-0.002000
0.500000	1	0.000250
0.516667	1	0.002250
0.533333	1	0.003750
0.550000	1	0.005250
0.566667	1	0.005500
0.583333	1	0.004875
0.600000	1	0.003375
0.616667	1	0.001875
0.633333	1	0.001125
0.650000	1	0.001000
0.666667	1	0.001250
0.683333	1	0.002500
0.700000	1	0.003625
0.716667	1	0.004250
0.733333	1	0.005625
0.750000	1	0.006875
0.766667	1	0.007750
0.783333	1	0.009000
0.800000	1	0.010375
0.816667	1	0.012375
0.833333	1	0.013625
0.850000	1	0.015125
0.866667	1	0.017375
0.883333	1	0.018625
0.900000	1	0.019500
0.916667	1	0.020250
0.933333	1	0.021250
0.950000	1	0.022375
0.966667	1	0.023375
0.983333	1	0.024500
1.000000	1	0.024500
1.016667	1	0.024750
1.033333	1	0.025375
1.050000	1	0.025875
1.066667	1	0.026000
1.083333	1	0.025625
1.100000	1	0.026125
1.116667	1	0.026125
1.133333	1	0.026625
1.150000	1	0.026250
1.166667	1	0.025750
1.183333	1	0.025250
1.200000	1	0.025125
1.216667	1	0.025500
1.233333	1	0.023750
1.250000	1	0.023500
1.266667	1	0.022750
1.283333	1	0.022000
1.300000	1	0.021000
1.316667	1	0.020750
1.333333	1	0.019875
1.350000	1	0.019375
1.366667	1	0.019000
1.383333	1	0.018375
1.400000	1	0.017875
1.416667	1	0.017250
1.433333	1	0.017500
1.450000	1	0.017375
1.466667	1	0.017375
1.483333	1	0.017375
1.500000	1	0.017500
1.516667	1	0.017250
1.533333	1	0.017750
1.550000	1	0.018125
1.566667	1	0.018125
1.583333	1	0.018750
1.600000	1	0.018375
1.616667	1	0.018250
1.633333	1	0.017875
1.650000	1	0.018000
1.666667	1	0.018000
1.683333	1	0.018375
1.700000	1	0.018375
1.716667	1	0.019000
1.733333	1	0.018375
1.750000	1	0.017750
1.766667	1	0.017250
1.783333	1	0.016750
1.800000	1	0.016250
1.816667	1	0.016125
1.833333	1	0.015500
1.850000	1	0.014875
1.866667	1	0.014250
1.883333	1	0.013000
1.900000	1	0.012375
1.916667	1	0.011250
1.933333	1	0.009250
1.950000	1	0.008750
1.966667	1	0.008125
1.983333	1	0.007000
2.000000	1	0.006875
2.016667	1	0.006625
2.033333	1	0.006500
2.050000	1	0.005500
2.066667	1	0.005000
2.083333	1	0.004750
2.100000	1	0.004750
2.116667	1	0.004750
2.133333	1	0.005375
2.150000	1	0.005125
2.166667	1	0.005625
2.183333	1	0.006125
2.200000	1	0.006500
2.216667	1	0.006750
2.233333	1	0.008375
2.250000	1	0.009250
2.266667	1	0.010125
2.283333	1	0.010625
2.300000	1	0.011125
2.316667	1	0.012375
2.333333	1	0.013375
2.350000	1	0.014000
2.366667	1	0.015000
2.383333	1	0.015500
2.400000	1	0.016250
2.416667	1	0.017125
2.433333	1	0.016875
2.450000	1	0.016750
2.466667	1	0.017000
2.483333	1	0.016750
2.500000	1	0.016250
2.516667	1	0.016250
2.533333	1	0.015500
2.550000	1	0.015000
2.566667	1	0.013750
2.583333	1	0.012500
2.600000	1	0.011500
2.616667	1	0.010250
2.633333	1	0.008375
2.650000	1	0.007250
2.666667	1	0.005500
2.683333	1	0.003625
2.700000	1	0.001750
2.716667	1	0.000250
2.733333	1	-0.001750
2.750000	1	-0.004250
2.766667	1	-0.006375
2.783333	1	-0.008000
2.800000	1	-0.010125
2.816667	1	-0.012125
2.833333	1	-0.013500
2.850000	1	-0.015000
2.866667	1	-0.016500
2.883333	1	-0.018250
2.900000	1	-0.019625
2.916667	1	-0.021250
2.933333	1	-0.022875
2.950000	1	-0.024125
2.966667	1	-0.024500
2.983333	1	-0.025750
3.000000	1	-0.027000
3.016667	1	-0.027875
3.033333	1	-0.028250
3.050000	1	-0.028125
3.066667	1	-0.028625
3.083333	1	-0.028625
3.100000	1	-0.029750
3.116667	1	-0.030375
3.133333	1	-0.030750
3.150000	1	-0.031625
3.166667	1	-0.032250
3.183333	1	-0.033000
3.200000	1	-0.033250
3.216667	1	-0.033375
3.233333	1	-0.033625
3.250000	1	-0.034125
3.266667	1	-0.034750
3.283333	1	-0.035250
3.300000	1	-0.035250
3.316667	1	-0.035625
3.333333	1	-0.036250
3.350000	1	-0.036500
3.366667	1	-0.036625
3.383333	1	-0.036625
3.400000	1	-0.036750
3.416667	1	-0.036250
3.433333	1	-0.036000
3.450000	1	-0.035750
3.466667	1	-0.034375
3.483333	1	-0.033500
3.500000	1	-0.032250
3.516667	1	-0.031125
3.533333	1	-0.029125
3.550000	1	-0.027375
3.566667	1	-0.026250
3.583333	1	-0.024250
3.600000	1	-0.021625
3.616667	1	-0.019500
3.633333	1	-0.016750
3.650000	1	-0.013750
3.666667	1	-0.011375
3.683333	1	-0.008375
3.700000	1	-0.004625
3.716667	1	-0.001250
3.733333	1	0.000875
3.750000	1	0.004000
3.766667	1	0.007250
3.783333	1	0.010750
3.800000	1	0.014250
3.816667	1	0.017125
3.833333	1	0.020750
3.850000	1	0.024000
3.866667	1	0.026750
3.883333	1	0.029625
3.900000	1	0.032125
3.916667	1	0.034875
3.933333	1	0.036875
3.950000	1	0.038750
3.966667	1	0.040125
3.983333	1	0.042000
4.000000	1	0.043500
4.016667	1	0.045125
4.033333	1	0.046375
4.050000	1	0.047375
4.066667	1	0.048500
4.083333	1	0.049125
4.100000	1	0.049500
4.116667	1	0.050125
4.133333	1	0.050500
4.150000	1	0.050375
4.166667	1	0.049750
4.183333	1	0.050625
4.200000	1	0.050875
4.216667	1	0.051000
4.233333	1	0.050750
4.250000	1	0.050625
4.266667	1	0.050750
4.283333	1	0.050125
4.300000	1	0.049875
4.316667	1	0.049625
4.333333	1	0.049375
4.350000	1	0.048750
4.366667	1	0.048500
4.383333	1	0.048375
4.400000	1	0.047875
4.416667	1	0.048000
4.433333	1	0.047500
4.450000	1	0.047500
4.466667	1	0.047500
4.483333	1	0.047500
4.500000	1	0.047125
4.516667	1	0.046250
4.533333	1	0.046125
4.550000	1	0.045500
4.566667	1	0.045125
4.583333	1	0.044875
4.600000	1	0.044375
4.616667	1	0.043875
4.633333	1	0.043000
4.650000	1	0.041875
4.666667	1	0.040625
4.683333	1	0.040250
4.700000	1	0.039875
4.716667	1	0.039250
4.733333	1	0.038375
4.750000	1	0.037375
4.766667	1	0.037000
4.783333	1	0.036500
4.800000	1	0.036000
4.816667	1	0.035750
4.833333	1	0.036000
4.850000	1	0.036625
4.866667	1	0.037125
4.883333	1	0.037875
4.900000	1	0.038625
4.916667	1	0.039625
4.933333	1	0.041000
4.950000	1	0.043500
4.966667	1	0.045750
4.983333	1	0.048125
5.000000	1	0.051125
5.016667	1	0.054000
5.033333	1	0.057500
5.050000	1	0.060750
5.066667	1	0.064375
5.083333	1	0.068625
5.100000	1	0.073375
5.116667	1	0.077500
5.133333	1	0.082000
5.150000	1	0.086750
5.166667	1	0.091000
5.183333	1	0.096125
5.200000	1	0.101000
5.216667	1	0.107000
5.233333	1	0.112000
5.250000	1	0.116500
5.266667	1	0.122125
5.283333	1	0.126750
5.300000	1	0.131375
5.316667	1	0.136250
5.333333	1	0.141500
5.350000	1	0.146375
5.366667	1	0.151500
5.383333	1	0.157500
5.400000	1	0.162625
5.416667	1	0.168500
5.433333	1	0.173000
5.450000	1	0.178125
5.466667	1	0.182500
5.483333	1	0.186875
5.500000	1	0.190875
5.516667	1	0.195000
5.533333	1	0.199500
5.550000	1	0.203750
5.566667	1	0.207875
5.583333	1	0.211875
5.600000	1	0.215500
5.616667	1	0.219500
5.633333	1	0.222250
5.650000	1	0.225625
5.666667	1	0.228125
5.683333	1	0.230750
5.700000	1	0.234000
5.716667	1	0.235875
5.733333	1	0.237875
5.750000	1	0.239500
5.766667	1	0.240625
5.783333	1	0.242125
5.800000	1	0.243375
5.816667	1	0.243625
5.833333	1	0.244250
5.850000	1	0.245375
5.866667	1	0.245750
5.883333	1	0.245625
5.900000	1	0.244750
5.916667	1	0.243875
5.933333	1	0.242875
5.950000	1	0.242250
5.966667	1	0.240625
5.983333	1	0.239375
6.000000	1	0.238125
6.016667	1	0.236125
6.033333	1	0.234125
6.050000	1	0.232500
6.066667	1	0.230375
6.083333	1	0.228125
6.100000	1	0.225750
6.116667	1	0.224000
6.133333	1	0.221000
6.150000	1	0.218125
6.166667	1	0.215625
6.183333	1	0.212875
6.200000	1	0.210000
6.216667	1	0.207125
6.233333	1	0.203625
6.250000	1	0.200500
6.266667	1	0.197000
6.283333	1	0.193250
6.300000	1	0.189375
6.316667	1	0.185875
6.333333	1	0.182750
6.350000	1	0.179250
6.366667	1	0.175750
6.383333	1	0.172000
6.400000	1	0.168250
6.416667	1	0.165125
6.433333	1	0.161625
6.450000	1	0.158500
6.466667	1	0.155625
6.483333	1	0.151375
6.500000	1	0.148000
6.516667	1	0.144875
6.533333	1	0.141250
6.550000	1	0.138125
6.566667	1	0.134875
6.583333	1	0.131250
6.600000	1	0.127875
6.616667	1	0.125500
6.633333	1	0.122500
6.650000	1	0.119625
6.666667	1	0.116875
6.683333	1	0.114500
6.700000	1	0.111375
6.716667	1	0.108875
6.733333	1	0.106625
6.750000	1	0.104000
6.766667	1	0.102000
6.783333	1	0.100000
6.800000	1	0.098125
6.816667	1	0.096250
6.833333	1	0.093375
6.850000	1	0.091875
6.866667	1	0.089750
6.883333	1	0.088500
6.900000	1	0.086875
6.916667	1	0.085875
6.933333	1	0.084750
6.950000	1	0.083625
6.966667	1	0.083000
6.983333	1	0.082875
7.000000	1	0.082875
7.016667	1	0.082875
7.033333	1	0.082875
7.050000	1	0.083875
7.066667	1	0.085000
7.083333	1	0.085375
7.100000	1	0.087250
7.116667	1	0.088125
7.133333	1	0.090125
7.150000	1	0.091625
7.166667	1	0.094250
7.183333	1	0.096750
7.200000	1	0.099875
7.216667	1	0.103000
7.233333	1	0.105875
7.250000	1	0.108500
7.266667	1	0.111875
7.283333	1	0.116000
7.300000	1	0.119500
7.316667	1	0.123375
7.333333	1	0.127250
7.350000	1	0.131250
7.366667	1	0.135500
7.383333	1	0.139250
7.400000	1	0.143250
7.416667	1	0.146875
7.433333	1	0.150875
7.450000	1	0.154625
7.466667	1	0.158250
7.483333	1	0.162000
7.500000	1	0.165000
7.516667	1	0.168500
7.533333	1	0.172125
7.550000	1	0.175375
7.566667	1	0.178000
7.583333	1	0.180375
7.600000	1	0.182625
7.616667	1	0.184750
7.633333	1	0.186750
7.650000	1	0.188125
7.666667	1	0.189500
7.683333	1	0.190875
7.700000	1	0.191500
7.716667	1	0.192500
7.733333	1	0.193125
7.750000	1	0.193250
7.766667	1	0.193500
7.783333	1	0.192875
7.800000	1	0.192125
7.816667	1	0.191500
7.833333	1	0.190250
7.850000	1	0.189125
7.866667	1	0.187500
7.883333	1	0.184875
7.900000	1	0.182625
7.916667	1	0.180000
7.933333	1	0.178000
7.950000	1	0.175375
7.966667	1	0.172500
7.983333	1	0.169500
8.000000	1	0.166625
8.016667	1	0.162875
8.033333	1	0.158875
8.050000	1	0.155000
8.066667	1	0.151125
8.083333	1	0.147250
8.100000	1	0.143000
8.116667	1	0.139250
8.133333	1	0.134750
8.150000	1	0.130250
8.166667	1	0.126250
8.183333	1	0.122125
8.200000	1	0.117125
8.216667	1	0.113125
8.233333	1	0.109125
8.250000	1	0.104375
8.266667	1	0.099625
8.283333	1	0.095750
8.300000	1	0.092000
8.316667	1	0.087875
8.333333	1	0.083875
8.350000	1	0.080000
8.366667	1	0.076250
8.383333	1	0.073000
8.400000	1	0.070000
8.416667	1	0.066750
8.433333	1	0.064000
8.450000	1	0.061250
8.466667	1	0.058500
8.483333	1	0.055625
8.500000	1	0.052875
8.516667	1	0.050625
8.533333	1	0.048625
8.550000	1	0.047000
8.566667	1	0.045375
8.583333	1	0.043500
8.600000	1	0.042125
8.616667	1	0.041250
8.633333	1	0.039750
8.650000	1	0.039125
8.666667	1	0.038250
8.683333	1	0.037375
8.700000	1	0.036875
8.716667	1	0.036125
8.733333	1	0.035125
8.750000	1	0.034875
8.766667	1	0.034875
8.783333	1	0.034750
8.800000	1	0.034125
8.816667	1	0.034125
8.833333	1	0.034000
8.850000	1	0.033875
8.866667	1	0.034375
8.883333	1	0.034375
8.900000	1	0.034000
8.916667	1	0.033875
8.933333	1	0.033625
8.950000	1	0.033625
8.966667	1	0.033375
8.983333	1	0.034250
9.000000	1	0.034750
9.016667	1	0.034250
9.033333	1	0.034375
9.050000	1	0.034625
9.066667	1	0.034750
9.083333	1	0.035375
9.100000	1	0.035875
9.116667	1	0.036875
9.133333	1	0.037250
9.150000	1	0.037625
9.166667	1	0.038000
9.183333	1	0.038375
9.200000	1	0.038875
9.216667	1	0.039500
9.233333	1	0.039500
9.250000	1	0.039750
9.266667	1	0.039500
9.283333	1	0.039000
9.300000	1	0.038750
9.316667	1	0.038625
9.333333	1	0.039375
9.350000	1	0.039000
9.366667	1	0.038000
9.383333	1	0.037125
9.400000	1	0.035750
9.416667	1	0.034375
9.433333	1	0.032875
9.450000	1	0.031625
9.466667	1	0.030000
9.483333	1	0.028000
9.500000	1	0.026500
9.516667	1	0.024500
9.533333	1	0.021875
9.550000	1	0.020375
9.566667	1	0.018750
9.583333	1	0.017250
9.600000	1	0.015250
9.616667	1	0.013750
9.633333	1	0.011875
9.650000	1	0.009875
9.666667	1	0.008250
9.683333	1	0.007250
9.700000	1	0.005500
9.716667	1	0.005000
9.733333	1	0.004125
9.750000	1	0.004875
9.766667	1	0.005000
9.783333	1	0.004000
9.800000	1	0.003625
9.816667	1	0.003250
9.833333	1	0.003625
9.850000	1	0.003625
9.866667	1	0.004125
9.883333	1	0.004375
9.900000	1	0.004500
9.916667	1	0.005875
9.933333	1	0.007125
9.950000	1	0.008375
9.966667	1	0.010500
9.983333	1	0.012000
10.000000	1	0.014500
10.016667	1	0.016625
10.033333	1	0.020125
10.050000	1	0.023500
10.066667	1	0.028625
10.083333	1	0.033625
10.100000	1	0.039625
10.116667	1	0.046125
10.133333	1	0.053750
10.150000	1	0.062500
10.166667	1	0.071250
10.183333	1	0.081375
10.200000	1	0.092500
10.216667	1	0.105250
10.233333	1	0.120375
10.250000	1	0.136375
10.266667	1	0.154625
10.283333	1	0.175500
10.300000	1	0.198875
10.316667	1	0.225250
10.333333	1	0.254125
10.350000	1	0.286750
10.366667	1	0.321500
10.383333	1	0.359250
10.400000	1	0.397500
10.416667	1	0.432875
10.433333	1	0.457000
10.450000	1	0.462000
10.466667	1	0.438625
10.483333	1	0.383375
10.500000	1	0.306750
10.516667	1	0.238875
10.533333	1	0.232625
10.550000	1	0.364000
10.566667	1	0.722875
10.583333	1	1.401500
10.600000	1	2.485750
10.616667	1	4.045000
10.633333	1	6.129375
10.650000	1	8.766000
10.666667	1	11.967000
10.683333	1	15.718375
10.700000	1	19.987000
10.716667	1	24.702875
10.733333	1	29.752625
10.750000	1	34.962250
10.766667	1	40.077250
10.783333	1	44.763125
10.800000	1	48.614625
10.816667	1	51.205125
10.833333	1	52.195125
10.850000	1	51.435000
10.866667	1	49.022250
10.883333	1	45.286000
10.900000	1	40.690000
10.916667	1	35.714875
10.933333	1	30.760125
10.950000	1	26.104625
10.966667	1	21.910250
10.983333	1	18.249750
11.000000	1	15.133125
11.016667	1	12.531625
11.033333	1	10.395625
11.050000	1	8.664125
11.066667	1	7.272375
11.083333	1	6.159875
11.100000	1	5.271000
11.116667	1	4.559875
11.133333	1	3.988625
11.150000	1	3.528125
11.166667	1	3.153500
11.183333	1	2.845750
11.200000	1	2.590625
11.216667	1	2.377875
11.233333	1	2.197500
11.250000	1	2.045000
11.266667	1	1.913625
11.283333	1	1.800875
11.300000	1	1.703000
11.316667	1	1.616750
11.333333	1	1.542250
11.350000	1	1.476250
11.366667	1	1.418125
11.383333	1	1.366250
11.400000	1	1.320750
11.416667	1	1.280625
11.433333	1	1.244750
11.450000	1	1.212875
11.466667	1	1.185125
11.483333	1	1.159000
11.500000	1	1.136125
11.516667	1	1.115250
11.533333	1	1.096875
11.550000	1	1.080625
11.566667	1	1.065750
11.583333	1	1.053125
11.600000	1	1.041500
11.616667	1	1.031125
11.633333	1	1.022250
11.650000	1	1.014875
11.666667	1	1.009500
11.683333	1	1.005375
11.700000	1	1.003000
11.716667	1	1.001375
11.733333	1	1.001625
11.750000	1	1.002875
11.766667	1	1.006000
11.783333	1	1.009625
11.800000	1	1.014125
11.816667	1	1.018625
11.833333	1	1.024375
11.850000	1	1.029750
11.866667	1	1.034500
11.883333	1	1.038625
11.900000	1	1.043625
11.916667	1	1.047500
11.933333	1	1.052000
11.950000	1	1.056000
11.966667	1	1.060500
11.983333	1	1.065000
12.000000	1	1.070125
12.016667	1	1.075875
12.033333	1	1.082500
12.050000	1	1.088625
12.066667	1	1.096250
12.083333	1	1.103875
12.100000	1	1.112000
12.116667	1	1.119875
12.133333	1	1.129000
12.150000	1	1.139375
12.166667	1	1.151125
12.183333	1	1.163375
12.200000	1	1.177625
12.216667	1	1.194125
12.233333	1	1.212375
12.250000	1	1.233125
12.266667	1	1.256375
12.283333	1	1.281750
12.300000	1	1.309875
12.316667	1	1.340750
12.333333	1	1.374500
12.350000	1	1.413625
12.366667	1	1.459625
12.383333	1	1.515625
12.400000	1	1.587000
12.416667	1	1.680250
12.433333	1	1.801625
12.450000	1	1.960625
12.466667	1	2.164875
12.483333	1	2.422000
12.500000	1	2.739000
12.516667	1	3.117750
12.533333	1	3.559125
12.550000	1	4.060375
12.566667	1	4.611125
12.583333	1	5.201125
12.600000	1	5.815250
12.616667	1	6.437750
12.633333	1	7.054625
12.650000	1	7.652250
12.666667	1	8.220375
12.683333	1	8.753625
12.700000	1	9.249875
12.716667	1	9.710000
12.733333	1	10.137500
12.750000	1	10.538000
12.766667	1	10.915125
12.783333	1	11.262000
12.800000	1	11.563375
12.816667	1	11.786000
12.833333	1	11.881500
12.850000	1	11.796500
12.866667	1	11.490375
12.883333	1	10.957625
12.900000	1	10.234875
12.916667	1	9.392375
12.933333	1	8.505250
12.950000	1	7.638250
12.966667	1	6.829750
12.983333	1	6.099125
13.000000	1	5.449625
13.016667	1	4.881500
13.033333	1	4.390125
13.050000	1	3.968750
13.066667	1	3.612375
13.083333	1	3.312250
13.100000	1	3.060875
13.116667	1	2.852125
13.133333	1	2.676125
13.150000	1	2.528375
13.166667	1	2.404125
13.183333	1	2.298625
13.200000	1	2.207250
13.216667	1	2.126875
13.233333	1	2.055875
13.250000	1	1.991375
13.266667	1	1.933625
13.283333	1	1.880375
13.300000	1	1.831625
13.316667	1	1.786250
13.333333	1	1.744500
13.350000	1	1.705750
13.366667	1	1.670875
13.383333	1	1.637500
13.400000	1	1.607875
13.416667	1	1.582125
13.433333	1	1.559250
13.450000	1	1.539500
13.466667	1	1.523750
13.483333	1	1.511125
13.500000	1	1.501625
13.516667	1	1.494625
13.533333	1	1.489750
13.550000	1	1.487125
13.566667	1	1.484125
13.583333	1	1.481375
13.600000	1	1.477875
13.616667	1	1.473125
13.633333	1	1.466000
13.650000	1	1.456625
13.666667	1	1.444125
13.683333	1	1.429250
13.700000	1	1.412500
13.716667	1	1.393875
13.733333	1	1.373750
13.750000	1	1.353750
13.766667	1	1.332750
13.783333	1	1.311250
13.800000	1	1.290875
13.816667	1	1.270625
13.833333	1	1.251875
13.850000	1	1.233375
13.866667	1	1.215875
13.883333	1	1.200000
13.900000	1	1.184625
13.916667	1	1.169875
13.933333	1	1.155250
13.950000	1	1.142000
13.966667	1	1.129000
13.983333	1	1.117000
14.000000	1	1.104875
14.016667	1	1.094000
14.033333	1	1.084000
14.050000	1	1.074250
14.066667	1	1.065125
14.083333	1	1.056000
14.100000	1	1.048875
14.116667	1	1.040500
14.133333	1	1.032625
14.150000	1	1.025250
14.166667	1	1.018625
14.183333	1	1.013250
14.200000	1	1.008500
14.216667	1	1.005500
14.233333	1	1.003875
14.250000	1	1.003750
14.266667	1	1.005500
14.283333	1	1.008250
14.300000	1	1.013750
14.316667	1	1.020875
14.333333	1	1.029375
14.350000	1	1.039750
14.366667	1	1.051625
14.383333	1	1.065375
14.400000	1	1.080250
14.416667	1	1.098375
14.433333	1	1.121875
14.450000	1	1.152625
14.466667	1	1.195250
14.483333	1	1.260250
14.500000	1	1.358875
14.516667	1	1.510750
14.533333	1	1.739500
14.550000	1	2.079500
14.566667	1	2.573000
14.583333	1	3.270625
14.600000	1	4.230250
14.616667	1	5.517125
14.633333	1	7.196625
14.650000	1	9.327875
14.666667	1	11.953625
14.683333	1	15.092250
14.700000	1	18.725500
14.716667	1	22.794125
14.733333	1	27.201750
14.750000	1	31.810875
14.766667	1	36.448500
14.783333	1	40.911500
14.800000	1	44.996500
14.816667	1	48.506875
14.833333	1	51.273875
14.850000	1	53.167875
14.866667	1	54.115375
14.883333	1	54.100625
14.900000	1	53.168125
14.916667	1	51.414500
14.933333	1	48.973500
14.950000	1	46.002875
14.966667	1	42.665375
14.983333	1	39.124375
15.000000	1	35.516250
15.016667	1	31.956625
15.033333	1	28.534500
15.050000	1	25.315625
15.066667	1	22.341625
15.083333	1	19.635375
15.100000	1	17.203250
15.116667	1	15.039125
15.133333	1	13.128250
15.150000	1	11.448750
15.166667	1	9.980125
15.183333	1	8.702375
15.200000	1	7.591625
15.216667	1	6.629750
15.233333	1	5.799500
15.250000	1	5.086375
15.266667	1	4.477125
15.283333	1	3.960375
15.300000	1	3.526750
15.316667	1	3.165750
15.333333	1	2.870125
15.350000	1	2.630500
15.366667	1	2.439875
15.383333	1	2.290875
15.400000	1	2.176625
15.416667	1	2.089250
15.433333	1	2.022875
15.450000	1	1.971750
15.466667	1	1.931000
15.483333	1	1.896000
15.500000	1	1.862500
15.516667	1	1.828625
15.533333	1	1.793000
15.550000	1	1.754875
15.566667	1	1.714250
15.583333	1	1.671000
15.600000	1	1.626250
15.616667	1	1.581500
15.633333	1	1.536750
15.650000	1	1.494250
15.666667	1	1.452750
15.683333	1	1.414125
15.700000	1	1.377875
15.716667	1	1.343750
15.733333	1	1.311750
15.750000	1	1.281625
15.766667	1	1.252875
15.783333	1	1.225625
15.800000	1	1.199125
15.816667	1	1.174875
15.833333	1	1.151875
15.850000	1	1.129125
15.866667	1	1.108750
15.883333	1	1.089875
15.900000	1	1.073000
15.916667	1	1.057875
15.933333	1	1.044125
15.950000	1	1.032875
15.966667	1	1.023750
15.983333	1	1.017000
16.000000	1	1.011125
16.016667	1	1.007500
16.033333	1	1.006000
16.050000	1	1.005125
16.066667	1	1.005250
16.083333	1	1.005875
16.100000	1	1.006875
16.116667	1	1.008000
16.133333	1	1.009000
16.150000	1	1.009750
16.166667	1	1.010125
16.183333	1	1.010125
16.200000	1	1.010250
16.216667	1	1.008000
16.233333	1	1.005750
16.250000	1	1.002500
16.266667	1	0.998500
16.283333	1	0.993125
16.300000	1	0.988375
16.316667	1	0.983625
16.333333	1	0.979250
16.350000	1	0.974750
16.366667	1	0.971375
16.383333	1	0.969875
16.400000	1	0.969375
16.416667	1	0.970500
16.433333	1	0.972750
16.450000	1	0.976125
16.466667	1	0.980500
16.483333	1	0.985375
16.500000	1	0.990250
16.516667	1	0.994875
16.533333	1	0.999000
16.550000	1	1.001125
16.566667	1	1.001625
16.583333	1	1.001125
16.600000	1	1.000375
16.616667	1	0.998250
16.633333	1	0.994750
16.650000	1	0.991625
16.666667	1	0.987625
16.683333	1	0.984875
16.700000	1	0.983000
16.716667	1	0.982625
16.733333	1	0.984000
16.750000	1	0.987375
16.766667	1	0.992375
16.783333	1	0.998375
16.800000	1	1.007375
16.816667	1	1.016000
16.833333	1	1.025625
16.850000	1	1.034625
16.866667	1	1.043250
16.883333	1	1.050875
16.900000	1	1.058000
16.916667	1	1.062500
16.933333	1	1.065625
16.950000	1	1.066250
16.966667	1	1.065500
16.983333	1	1.064375
17.000000	1	1.062750
17.016667	1	1.059500
17.033333	1	1.055875
17.050000	1	1.051875
17.066667	1	1.049125
17.083333	1	1.046375
17.100000	1	1.044250
17.116667	1	1.042750
17.133333	1	1.041500
17.150000	1	1.041000
17.166667	1	1.041000
17.183333	1	1.041625
17.200000	1	1.043125
17.216667	1	1.045375
17.233333	1	1.047625
17.250000	1	1.051000
17.266667	1	1.054500
17.283333	1	1.058875
17.300000	1	1.063125
17.316667	1	1.067750
17.333333	1	1.073250
17.350000	1	1.078500
17.366667	1	1.083375
17.383333	1	1.087625
17.400000	1	1.091750
17.416667	1	1.096000
17.433333	1	1.099375
17.450000	1	1.100625
17.466667	1	1.101125
17.483333	1	1.099375
17.500000	1	1.096750
17.516667	1	1.092125
17.533333	1	1.085875
17.550000	1	1.077875
17.566667	1	1.068625
17.583333	1	1.058000
17.600000	1	1.046125
17.616667	1	1.033625
17.633333	1	1.020000
17.650000	1	1.005500
17.666667	1	0.991250
17.683333	1	0.976875
17.700000	1	0.963125
17.716667	1	0.949500
17.733333	1	0.936375
17.750000	1	0.924250
17.766667	1	0.912250
17.783333	1	0.901750
17.800000	1	0.891625
17.816667	1	0.883250
17.833333	1	0.875250
17.850000	1	0.868125
17.866667	1	0.861750
17.883333	1	0.856000
17.900000	1	0.850000
17.916667	1	0.844625
17.933333	1	0.839125
17.950000	1	0.834000
17.966667	1	0.829125
17.983333	1	0.824500
18.000000	1	0.819750
18.016667	1	0.814125
18.033333	1	0.809125
18.050000	1	0.804125
18.066667	1	0.798750
18.083333	1	0.792750
18.100000	1	0.788000
18.116667	1	0.783000
18.133333	1	0.779000
18.150000	1	0.775875
18.166667	1	0.773875
18.183333	1	0.772000
18.200000	1	0.769750
18.216667	1	0.769250
18.233333	1	0.768125
18.250000	1	0.766750
18.266667	1	0.765500
18.283333	1	0.764375
18.300000	1	0.763750
18.316667	1	0.762625
18.333333	1	0.761875
18.350000	1	0.762000
18.366667	1	0.762125
18.383333	1	0.763000
18.400000	1	0.765500
18.416667	1	0.768625
18.433333	1	0.774000
18.450000	1	0.780500
18.466667	1	0.788500
18.483333	1	0.798500
18.500000	1	0.810750
18.516667	1	0.825000
18.533333	1	0.840375
18.550000	1	0.858750
18.566667	1	0.878500
18.583333	1	0.901750
18.600000	1	0.926375
18.616667	1	0.952250
18.633333	1	0.979625
18.650000	1	1.009625
18.666667	1	1.040625
18.683333	1	1.073125
18.700000	1	1.106125
18.716667	1	1.140500
18.733333	1	1.175250
18.750000	1	1.210625
18.766667	1	1.245000
18.783333	1	1.279000
18.800000	1	1.311375
18.816667	1	1.341625
18.833333	1	1.368750
18.850000	1	1.392500
18.866667	1	1.412000
18.883333	1	1.426250
18.900000	1	1.435125
18.916667	1	1.438000
18.933333	1	1.434625
18.950000	1	1.424500
18.966667	1	1.408250
18.983333	1	1.385375
19.000000	1	1.357625
19.016667	1	1.324375
19.033333	1	1.286875
19.050000	1	1.245250
19.066667	1	1.201625
19.083333	1	1.156125
19.100000	1	1.110125
19.116667	1	1.065000
19.133333	1	1.020875
19.150000	1	0.978625
19.166667	1	0.939250
19.183333	1	0.903500
19.200000	1	0.872000
19.216667	1	0.845000
19.233333	1	0.822125
19.250000	1	0.805750
19.266667	1	0.794375
19.283333	1	0.789625
19.300000	1	0.790000
19.316667	1	0.797125
19.333333	1	0.809625
19.350000	1	0.827750
19.366667	1	0.850500
19.383333	1	0.877500
19.400000	1	0.908000
19.416667	1	0.942000
19.433333	1	0.977125
19.450000	1	1.013125
19.466667	1	1.048000
19.483333	1	1.082000
19.500000	1	1.114125
19.516667	1	1.142875
19.533333	1	1.168000
19.550000	1	1.188500
19.566667	1	1.205250
19.583333	1	1.216500
19.600000	1	1.223125
19.616667	1	1.225875
19.633333	1	1.223500
19.650000	1	1.216500
19.666667	1	1.205375
19.683333	1	1.190000
19.700000	1	1.171625
19.716667	1	1.150000
19.733333	1	1.125625
19.750000	1	1.099000
19.766667	1	1.070250
19.783333	1	1.040375
19.800000	1	1.008625
19.816667	1	0.976375
19.833333	1	0.944375
19.850000	1	0.911625
19.866667	1	0.880250
19.883333	1	0.850750
19.900000	1	0.821625
19.916667	1	0.794875
19.933333	1	0.770250
19.950000	1	0.749125
19.966667	1	0.730875
19.983333	1	0.716375
20.000000	1	0.706000
20.016667	1	0.701250
20.033333	1	0.702250
20.050000	1	0.708625
20.066667	1	0.721750
20.083333	1	0.740375
20.100000	1	0.765250
20.116667	1	0.796125
20.133333	1	0.832750
20.150000	1	0.874250
20.166667	1	0.918500
20.183333	1	0.965625
20.200000	1	1.013125
20.216667	1	1.060125
20.233333	1	1.104000
20.250000	1	1.143750
20.266667	1	1.177875
20.283333	1	1.203875
20.300000	1	1.222125
20.316667	1	1.230750
20.333333	1	1.230250
20.350000	1	1.221000
20.366667	1	1.203500
20.383333	1	1.177125
20.400000	1	1.144625
20.416667	1	1.106375
20.433333	1	1.064125
20.450000	1	1.019500
20.466667	1	0.974375
20.483333	1	0.929750
20.500000	1	0.886750
20.516667	1	0.847625
20.533333	1	0.812875
20.550000	1	0.782750
20.566667	1	0.760500
20.583333	1	0.745375
20.600000	1	0.738125
20.616667	1	0.740000
20.633333	1	0.751375
20.650000	1	0.773625
20.666667	1	0.804625
20.683333	1	0.845250
20.700000	1	0.895000
20.716667	1	0.953500
20.733333	1	1.018250
20.750000	1	1.087750
20.766667	1	1.161875
20.783333	1	1.236000
20.800000	1	1.309250
20.816667	1	1.378375
20.833333	1	1.439875
20.850000	1	1.492750
20.866667	1	1.536250
20.883333	1	1.567375
20.900000	1	1.586125
20.916667	1	1.591875
20.933333	1	1.584750
20.950000	1	1.563750
20.966667	1	1.532750
20.983333	1	1.492000
21.000000	1	1.442375
21.016667	1	1.387375
21.033333	1	1.327125
21.050000	1	1.264250
21.066667	1	1.200500
21.083333	1	1.137000
21.100000	1	1.074750
21.116667	1	1.014750
21.133333	1	0.957500
21.150000	1	0.904250
21.166667	1	0.854500
21.183333	1	0.808750
21.200000	1	0.766375
21.216667	1	0.727750
21.233333	1	0.692000
21.250000	1	0.660750
21.266667	1	0.631625
21.283333	1	0.605250
21.300000	1	0.581750
21.316667	1	0.560750
21.333333	1	0.542500
21.350000	1	0.525750
21.366667	1	0.510875
21.383333	1	0.496375
21.400000	1	0.483750
21.416667	1	0.472625
21.433333	1	0.462875
21.450000	1	0.453750
21.466667	1	0.446875
21.483333	1	0.440500
21.500000	1	0.435875
21.516667	1	0.432375
21.533333	1	0.430250
21.550000	1	0.429375
21.566667	1	0.431250
21.583333	1	0.434250
21.600000	1	0.439250
21.616667	1	0.447000
21.633333	1	0.457750
21.650000	1	0.470625
21.666667	1	0.488000
21.683333	1	0.507250
21.700000	1	0.530750
21.716667	1	0.557125
21.733333	1	0.587000
21.750000	1	0.619875
21.766667	1	0.655125
21.783333	1	0.692125
21.800000	1	0.730875
21.816667	1	0.769375
21.833333	1	0.808625
21.850000	1	0.847250
21.866667	1	0.883875
21.883333	1	0.918000
21.900000	1	0.949125
21.916667	1	0.976750
21.933333	1	0.999875
21.950000	1	1.018125
21.966667	1	1.030375
21.983333	1	1.038375
22.000000	1	1.040875
22.016667	1	1.038875
22.033333	1	1.032625
22.050000	1	1.022875
22.066667	1	1.009625
22.083333	1	0.992750
22.100000	1	0.973375
22.116667	1	0.952250
22.133333	1	0.928875
22.150000	1	0.905250
22.166667	1	0.880000
22.183333	1	0.854375
22.200000	1	0.828875
22.216667	1	0.803375
22.233333	1	0.778000
22.250000	1	0.752875
22.266667	1	0.727625
22.283333	1	0.703125
22.300000	1	0.679125
22.316667	1	0.656750
22.333333	1	0.635375
22.350000	1	0.614250
22.366667	1	0.595125
22.383333	1	0.577000
22.400000	1	0.559875
22.416667	1	0.543750
22.433333	1	0.529125
22.450000	1	0.515750
22.466667	1	0.504625
22.483333	1	0.494375
22.500000	1	0.484625
22.516667	1	0.476000
22.533333	1	0.469250
22.550000	1	0.462875
22.566667	1	0.457375
22.583333	1	0.451500
22.600000	1	0.446375
22.616667	1	0.441500
22.633333	1	0.436625
22.650000	1	0.431875
22.666667	1	0.426250
22.683333	1	0.421375
22.700000	1	0.415125
22.716667	1	0.409500
22.733333	1	0.403000
22.750000	1	0.396000
22.766667	1	0.389125
22.783333	1	0.381375
22.800000	1	0.373625
22.816667	1	0.365625
22.833333	1	0.357250
22.850000	1	0.349500
22.866667	1	0.341375
22.883333	1	0.333250
22.900000	1	0.325500
22.916667	1	0.318125
22.933333	1	0.311500
22.950000	1	0.305750
22.966667	1	0.299625
22.983333	1	0.294625
23.000000	1	0.289500
23.016667	1	0.284750
23.033333	1	0.280875
23.050000	1	0.277500
23.066667	1	0.275375
23.083333	1	0.273875
23.100000	1	0.272500
23.116667	1	0.272125
23.133333	1	0.272625
23.150000	1	0.273375
23.166667	1	0.273875
23.183333	1	0.274750
23.200000	1	0.275250
23.216667	1	0.276625
23.233333	1	0.278500
23.250000	1	0.280500
23.266667	1	0.282625
23.283333	1	0.286500
23.300000	1	0.290875
23.316667	1	0.296250
23.333333	1	0.303625
23.350000	1	0.313750
23.366667	1	0.327125
23.383333	1	0.345000
23.400000	1	0.368250
23.416667	1	0.397625
23.433333	1	0.435375
23.450000	1	0.483000
23.466667	1	0.541750
23.483333	1	0.615000
23.500000	1	0.703625
23.516667	1	0.810250
23.533333	1	0.936375
23.550000	1	1.084000
23.566667	1	1.253375
23.583333	1	1.445875
23.600000	1	1.660125
23.616667	1	1.896125
23.633333	1	2.151000
23.650000	1	2.422500
23.666667	1	2.707375
23.683333	1	3.001375
23.700000	1	3.299625
23.716667	1	3.596125
23.733333	1	3.884250
23.750000	1	4.158125
23.766667	1	4.411500
23.783333	1	4.637750
23.800000	1	4.832000
23.816667	1	4.990000
23.833333	1	5.109750
23.850000	1	5.188750
23.866667	1	5.225875
23.883333	1	5.222375
23.900000	1	5.179250
23.916667	1	5.098500
23.933333	1	4.983875
23.950000	1	4.839750
23.966667	1	4.671000
23.983333	1	4.481750
24.000000	1	4.276500
24.016667	1	4.061125
24.033333	1	3.838875
24.050000	1	3.614750
24.066667	1	3.391250
24.083333	1	3.171375
24.100000	1	2.956375
24.116667	1	2.749875
24.133333	1	2.552375
24.150000	1	2.365375
24.166667	1	2.188125
24.183333	1	2.022625
24.200000	1	1.867750
24.216667	1	1.724375
24.233333	1	1.590875
24.250000	1	1.468000
24.266667	1	1.355250
24.283333	1	1.251625
24.300000	1	1.157125
24.316667	1	1.070750
24.333333	1	0.993000
24.350000	1	0.922125
24.366667	1	0.858500
24.383333	1	0.801750
24.400000	1	0.752000
24.416667	1	0.707625
24.433333	1	0.669000
24.450000	1	0.635000
24.466667	1	0.606125
24.483333	1	0.580500
24.500000	1	0.558250
24.516667	1	0.538875
24.533333	1	0.522625
24.550000	1	0.509375
24.566667	1	0.498625
24.583333	1	0.487500
24.600000	1	0.478375
24.616667	1	0.469875
24.633333	1	0.462125
24.650000	1	0.455375
24.666667	1	0.448375
24.683333	1	0.442125
24.700000	1	0.435500
24.716667	1	0.428500
24.733333	1	0.422250
24.750000	1	0.415750
24.766667	1	0.408625
24.783333	1	0.402250
24.800000	1	0.395375
24.816667	1	0.388250
24.833333	1	0.381125
24.850000	1	0.374250
24.866667	1	0.367750
24.883333	1	0.361500
24.900000	1	0.355125
24.916667	1	0.349000
24.933333	1	0.343250
24.950000	1	0.337500
24.966667	1	0.332125
24.983333	1	0.327250
25.000000	1	0.322000
25.016667	1	0.317500
25.033333	1	0.313500
25.050000	1	0.309625
25.066667	1	0.306375
25.083333	1	0.302750
25.100000	1	0.299875
25.116667	1	0.297000
25.133333	1	0.293500
25.150000	1	0.290125
25.166667	1	0.287125
25.183333	1	0.284750
25.200000	1	0.282375
25.216667	1	0.280500
25.233333	1	0.279000
25.250000	1	0.277250
25.266667	1	0.275125
25.283333	1	0.272625
25.300000	1	0.271125
25.316667	1	0.270125
25.333333	1	0.267875
25.350000	1	0.266875
25.366667	1	0.265625
25.383333	1	0.264500
25.400000	1	0.263750
25.416667	1	0.263250
25.433333	1	0.262625
25.450000	1	0.262750
25.466667	1	0.262250
25.483333	1	0.262500
25.500000	1	0.263375
25.516667	1	0.263750
25.533333	1	0.264125
25.550000	1	0.264750
25.566667	1	0.265750
25.583333	1	0.266750
25.600000	1	0.267125
25.616667	1	0.267750
25.633333	1	0.269000
25.650000	1	0.270000
25.666667	1	0.270750
25.683333	1	0.271375
25.700000	1	0.272375
25.716667	1	0.273125
25.733333	1	0.273875
25.750000	1	0.274250
25.766667	1	0.274250
25.783333	1	0.273375
25.800000	1	0.273375
25.816667	1	0.273125
25.833333	1	0.273750
25.850000	1	0.273250
25.866667	1	0.273375
25.883333	1	0.273250
25.900000	1	0.274625
25.916667	1	0.275500
25.933333	1	0.276375
25.950000	1	0.277625
25.966667	1	0.278750
25.983333	1	0.280375
26.000000	1	0.282500
26.016667	1	0.285375
26.033333	1	0.288500
26.050000	1	0.292000
26.066667	1	0.296625
26.083333	1	0.300500
26.100000	1	0.305500
26.116667	1	0.310625
26.133333	1	0.315875
26.150000	1	0.321875
26.166667	1	0.327250
26.183333	1	0.333625
26.200000	1	0.339250
26.216667	1	0.345500
26.233333	1	0.351000
26.250000	1	0.356875
26.266667	1	0.362500
26.283333	1	0.368000
26.300000	1	0.372375
26.316667	1	0.377000
26.333333	1	0.380875
26.350000	1	0.384250
26.366667	1	0.386750
26.383333	1	0.388750
26.400000	1	0.390250
26.416667	1	0.391000
26.433333	1	0.391375
26.450000	1	0.390125
26.466667	1	0.389750
26.483333	1	0.388375
26.500000	1	0.387125
26.516667	1	0.384125
26.533333	1	0.380750
26.550000	1	0.377000
26.566667	1	0.372500
26.583333	1	0.367875
26.600000	1	0.363750
26.616667	1	0.358750
26.633333	1	0.353875
26.650000	1	0.348750
26.666667	1	0.343125
26.683333	1	0.338125
26.700000	1	0.333375
26.716667	1	0.327875
26.733333	1	0.323125
26.750000	1	0.318125
26.766667	1	0.314375
26.783333	1	0.310125
26.800000	1	0.306000
26.816667	1	0.303000
26.833333	1	0.299250
26.850000	1	0.297000
26.866667	1	0.294625
26.883333	1	0.291750
26.900000	1	0.289500
26.916667	1	0.287625
26.933333	1	0.285625
26.950000	1	0.284000
26.966667	1	0.283375
26.983333	1	0.283000
27.000000	1	0.282500
27.016667	1	0.282250
27.033333	1	0.282000
27.050000	1	0.283625
27.066667	1	0.284375
27.083333	1	0.285625
27.100000	1	0.287250
27.116667	1	0.289375
27.133333	1	0.292250
27.150000	1	0.295125
27.166667	1	0.298750
27.183333	1	0.302625
27.200000	1	0.307625
27.216667	1	0.313500
27.233333	1	0.321125
27.250000	1	0.329500
27.266667	1	0.339750
27.283333	1	0.353000
27.300000	1	0.368500
27.316667	1	0.386500
27.333333	1	0.409750
27.350000	1	0.437000
27.366667	1	0.469750
27.383333	1	0.508250
27.400000	1	0.553375
27.416667	1	0.606125
27.433333	1	0.666375
27.450000	1	0.737000
27.466667	1	0.817125
27.483333	1	0.908625
27.500000	1	1.010500
27.516667	1	1.124000
27.533333	1	1.249500
27.550000	1	1.387125
27.566667	1	1.535875
27.583333	1	1.696500
27.600000	1	1.867125
27.616667	1	2.047375
27.633333	1	2.234250
27.650000	1	2.427625
27.666667	1	2.625125
27.683333	1	2.823625
27.700000	1	3.021125
27.716667	1	3.214625
27.733333	1	3.401000
27.750000	1	3.577000
27.766667	1	3.740250
27.783333	1	3.886875
27.800000	1	4.015250
27.816667	1	4.122875
27.833333	1	4.208500
27.850000	1	4.269500
27.866667	1	4.305875
27.883333	1	4.316375
27.900000	1	4.301000
27.916667	1	4.260625
27.933333	1	4.196375
27.950000	1	4.110250
27.966667	1	4.003625
27.983333	1	3.879125
28.000000	1	3.739875
28.016667	1	3.587000
28.033333	1	3.425500
28.050000	1	3.255625
28.066667	1	3.080875
28.083333	1	2.904125
28.100000	1	2.727000
28.116667	1	2.552625
28.133333	1	2.381750
28.150000	1	2.216750
28.166667	1	2.057875
28.183333	1	1.906875
28.200000	1	1.763875
28.216667	1	1.629250
28.233333	1	1.503000
28.250000	1	1.385500
28.266667	1	1.276000
28.283333	1	1.175625
28.300000	1	1.083625
28.316667	1	0.998625
28.333333	1	0.922500
28.350000	1	0.853000
28.366667	1	0.790125
28.383333	1	0.733750
28.400000	1	0.684375
28.416667	1	0.639375
28.433333	1	0.600875
28.450000	1	0.567250
28.466667	1	0.537875
28.483333	1	0.512750
28.500000	1	0.491250
28.516667	1	0.474500
28.533333	1	0.461500
28.550000	1	0.451250
28.566667	1	0.443875
28.583333	1	0.439000
28.600000	1	0.437375
28.616667	1	0.437125
28.633333	1	0.439500
28.650000	1	0.443125
28.666667	1	0.448875
28.683333	1	0.455750
28.700000	1	0.463875
28.716667	1	0.471750
28.733333	1	0.481125
28.750000	1	0.490500
28.766667	1	0.499250
28.783333	1	0.508500
28.800000	1	0.517500
28.816667	1	0.526375
28.833333	1	0.535000
28.850000	1	0.543375
28.866667	1	0.550750
28.883333	1	0.557000
28.900000	1	0.561375
28.916667	1	0.565625
28.933333	1	0.568000
28.950000	1	0.569875
28.966667	1	0.569750
28.983333	1	0.568500
29.000000	1	0.565875
29.016667	1	0.561625
29.033333	1	0.556000
29.050000	1	0.548875
29.066667	1	0.539750
29.083333	1	0.528750
29.100000	1	0.516750
29.116667	1	0.502500
29.133333	1	0.486250
29.150000	1	0.468250
29.166667	1	0.447750
29.183333	1	0.425875
29.200000	1	0.401750
29.216667	1	0.375000
29.233333	1	0.346375
29.250000	1	0.315250
29.266667	1	0.282000
29.283333	1	0.245750
29.300000	1	0.208500
29.316667	1	0.168125
29.333333	1	0.125500
29.350000	1	0.080750
29.366667	1	0.034125
29.383333	1	-0.015125
29.400000	1	-0.066625
29.416667	1	-0.119375
29.433333	1	-0.174000
29.450000	1	-0.229375
29.466667	1	-0.286375
29.483333	1	-0.343750
29.500000	1	-0.401625
29.516667	1	-0.459125
29.533333	1	-0.515125
29.550000	1	-0.570125
29.566667	1	-0.624125
29.583333	1	-0.675875
29.600000	1	-0.724750
29.616667	1	-0.771125
29.633333	1	-0.814000
29.650000	1	-0.853000
29.666667	1	-0.888000
29.683333	1	-0.918375
29.700000	1	-0.944375
29.716667	1	-0.965250
29.733333	1	-0.981500
29.750000	1	-0.992750
29.766667	1	-0.999125
29.783333	1	-0.999625
29.800000	1	-0.996000
29.816667	1	-0.987625
29.833333	1	-0.974750
29.850000	1	-0.956750
29.866667	1	-0.935250
29.883333	1	-0.910375
29.900000	1	-0.882500
29.916667	1	-0.851750
29.933333	1	-0.818000
29.950000	1	-0.782250
29.966667	1	-0.745625
29.983333	1	-0.707375
30.000000	1	-0.666875
30.016667	1	-0.627375
30.033333	1	-0.586625
30.050000	1	-0.546875
30.066667	1	-0.506625
30.083333	1	-0.467625
30.100000	1	-0.429500
30.116667	1	-0.392875
30.133333	1	-0.356875
30.150000	1	-0.322125
30.166667	1	-0.288625
30.183333	1	-0.257250
30.200000	1	-0.226625
30.216667	1	-0.197625
30.233333	1	-0.171125
30.250000	1	-0.145750
30.266667	1	-0.122625
30.283333	1	-0.100375
30.300000	1	-0.079875
30.316667	1	-0.060750
30.333333	1	-0.043625
30.350000	1	-0.027625
30.366667	1	-0.013250
30.383333	1	0.000500
30.400000	1	0.013375
30.416667	1	0.024375
30.433333	1	0.034750
30.450000	1	0.044250
30.466667	1	0.053250
30.483333	1	0.061375
30.500000	1	0.069375
30.516667	1	0.076375
30.533333	1	0.084125
30.550000	1	0.090500
30.566667	1	0.097375
30.583333	1	0.104000
30.600000	1	0.110750
30.616667	1	0.117375
30.633333	1	0.124500
30.650000	1	0.131500
30.666667	1	0.138125
30.683333	1	0.145875
30.700000	1	0.153750
30.716667	1	0.161875
30.733333	1	0.170250
30.750000	1	0.179375
30.766667	1	0.188625
30.783333	1	0.198000
30.800000	1	0.207875
30.816667	1	0.218875
30.833333	1	0.229750
30.850000	1	0.241250
30.866667	1	0.254000
30.883333	1	0.267625
30.900000	1	0.282375
30.916667	1	0.298250
30.933333	1	0.315375
30.950000	1	0.334250
30.966667	1	0.355500
30.983333	1	0.380000
31.000000	1	0.407625
31.016667	1	0.439250
31.033333	1	0.475875
31.050000	1	0.518125
31.066667	1	0.566125
31.083333	1	0.621625
31.100000	1	0.685750
31.116667	1	0.758750
31.133333	1	0.842625
31.150000	1	0.937250
31.166667	1	1.044500
31.183333	1	1.165625
31.200000	1	1.301500
31.216667	1	1.452750
31.233333	1	1.619625
31.250000	1	1.802125
31.266667	1	2.000875
31.283333	1	2.214750
31.300000	1	2.443375
31.316667	1	2.685750
31.333333	1	2.941750
31.350000	1	3.207500
31.366667	1	3.482125
31.383333	1	3.763625
31.400000	1	4.049250
31.416667	1	4.335375
31.433333	1	4.619500
31.450000	1	4.897500
31.466667	1	5.166000
31.483333	1	5.421750
31.500000	1	5.661000
31.516667	1	5.881125
31.533333	1	6.078250
31.550000	1	6.251875
31.566667	1	6.399250
31.583333	1	6.518500
31.600000	1	6.607375
31.616667	1	6.665875
31.633333	1	6.694750
31.650000	1	6.693000
31.666667	1	6.661500
31.683333	1	6.600875
31.700000	1	6.513500
31.716667	1	6.401375
31.733333	1	6.266250
31.750000	1	6.110875
31.766667	1	5.936875
31.783333	1	5.747500
31.800000	1	5.544500
31.816667	1	5.330500
31.833333	1	5.108375
31.850000	1	4.880500
31.866667	1	4.649125
31.883333	1	4.417250
31.900000	1	4.186125
31.916667	1	3.956875
31.933333	1	3.732250
31.950000	1	3.512125
31.966667	1	3.298500
31.983333	1	3.091625
32.000000	1	2.892125
32.016667	1	2.701000
32.033333	1	2.518625
32.050000	1	2.344125
32.066667	1	2.179250
32.083333	1	2.022750
32.100000	1	1.875125
32.116667	1	1.736125
32.133333	1	1.605125
32.150000	1	1.482500
32.166667	1	1.367375
32.183333	1	1.259375
32.200000	1	1.158375
32.216667	1	1.063625
32.233333	1	0.975375
32.250000	1	0.893375
32.266667	1	0.816500
32.283333	1	0.744500
32.300000	1	0.678500
32.316667	1	0.617500
32.333333	1	0.560750
32.350000	1	0.508750
32.366667	1	0.459875
32.383333	1	0.414750
32.400000	1	0.372875
32.416667	1	0.334625
32.433333	1	0.299500
32.450000	1	0.266875
32.466667	1	0.237625
32.483333	1	0.210250
32.500000	1	0.185750
32.516667	1	0.163500
32.533333	1	0.143125
32.550000	1	0.124875
32.566667	1	0.108250
32.583333	1	0.093000
32.600000	1	0.079375
32.616667	1	0.067000
32.633333	1	0.056375
32.650000	1	0.046250
32.666667	1	0.037750
32.683333	1	0.029375
32.700000	1	0.022375
32.716667	1	0.016250
32.733333	1	0.010750
32.750000	1	0.006375
32.766667	1	0.002750
32.783333	1	-0.000875
32.800000	1	-0.003500
32.816667	1	-0.006500
32.833333	1	-0.008375
32.850000	1	-0.010750
32.866667	1	-0.012500
32.883333	1	-0.014375
32.900000	1	-0.015750
32.916667	1	-0.016625
32.933333	1	-0.017875
32.950000	1	-0.018500
32.966667	1	-0.019000
32.983333	1	-0.019125
33.000000	1	-0.020375
33.016667	1	-0.020750
33.033333	1	-0.020750
33.050000	1	-0.021500
33.066667	1	-0.021375
33.083333	1	-0.021000
33.100000	1	-0.020625
33.116667	1	-0.020375
33.133333	1	-0.020500
33.150000	1	-0.020000
33.166667	1	-0.019625
33.183333	1	-0.019125
33.200000	1	-0.018750
33.216667	1	-0.018375
33.233333	1	-0.017875
33.250000	1	-0.017125
33.266667	1	-0.015875
33.283333	1	-0.015000
33.300000	1	-0.014250
33.316667	1	-0.013375
33.333333	1	-0.012375
33.350000	1	-0.011625
33.366667	1	-0.010375
33.383333	1	-0.009250
33.400000	1	-0.007750
33.416667	1	-0.006750
33.433333	1	-0.005375
33.450000	1	-0.004500
33.466667	1	-0.003375
33.483333	1	-0.002250
33.500000	1	-0.000375
33.516667	1	0.001375
33.533333	1	0.003250
33.550000	1	0.004875
33.566667	1	0.007000
33.583333	1	0.009250
33.600000	1	0.011375
33.616667	1	0.013375
33.633333	1	0.015500
33.650000	1	0.018125
33.666667	1	0.020625
33.683333	1	0.022750
33.700000	1	0.025500
33.716667	1	0.028250
33.733333	1	0.029875
33.750000	1	0.033000
33.766667	1	0.036375
33.783333	1	0.039375
33.800000	1	0.041875
33.816667	1	0.045125
33.833333	1	0.047875
33.850000	1	0.050750
33.866667	1	0.054125
33.883333	1	0.056750
33.900000	1	0.059500
33.916667	1	0.062500
33.933333	1	0.065250
33.950000	1	0.067875
33.966667	1	0.070000
33.983333	1	0.072875
34.000000	1	0.075750
34.016667	1	0.078250
34.033333	1	0.079875
34.050000	1	0.081625
34.066667	1	0.083125
34.083333	1	0.084375
34.100000	1	0.085750
34.116667	1	0.086750
34.133333	1	0.087875
34.150000	1	0.088500
34.166667	1	0.089625
34.183333	1	0.090500
34.200000	1	0.091875
34.216667	1	0.093250
34.233333	1	0.093625
34.250000	1	0.093500
34.266667	1	0.094125
34.283333	1	0.093875
34.300000	1	0.093500
34.316667	1	0.093500
34.333333	1	0.094000
34.350000	1	0.094750
34.366667	1	0.095125
34.383333	1	0.095875
34.400000	1	0.096125
34.416667	1	0.097000
34.433333	1	0.097500
34.450000	1	0.098375
34.466667	1	0.099250
34.483333	1	0.100875
34.500000	1	0.101875
34.516667	1	0.103375
34.533333	1	0.105250
34.550000	1	0.107000
34.566667	1	0.108250
34.583333	1	0.109375
34.600000	1	0.111000
34.616667	1	0.112000
34.633333	1	0.113750
34.650000	1	0.115250
34.666667	1	0.116875
34.683333	1	0.118500
34.700000	1	0.120250
34.716667	1	0.121125
34.733333	1	0.122875
34.750000	1	0.123875
34.766667	1	0.125000
34.783333	1	0.126250
34.800000	1	0.126750
34.816667	1	0.127750
34.833333	1	0.127875
34.850000	1	0.127750
34.866667	1	0.128625
34.883333	1	0.128250
34.900000	1	0.128125
34.916667	1	0.127625
34.933333	1	0.127500
34.950000	1	0.126375
34.966667	1	0.125875
34.983333	1	0.124625
35.000000	1	0.123375
35.016667	1	0.121500
35.033333	1	0.120375
35.050000	1	0.118625
35.066667	1	0.117375
35.083333	1	0.116000
35.100000	1	0.114000
35.116667	1	0.111750
35.133333	1	0.109625
35.150000	1	0.107250
35.166667	1	0.104625
35.183333	1	0.102625
35.200000	1	0.100500
35.216667	1	0.098125
35.233333	1	0.096000
35.250000	1	0.094250
35.266667	1	0.092250
35.283333	1	0.090375
35.300000	1	0.089250
35.316667	1	0.088000
35.333333	1	0.086625
35.350000	1	0.085250
35.366667	1	0.084375
35.383333	1	0.083500
35.400000	1	0.082750
35.416667	1	0.082250
35.433333	1	0.082375
35.450000	1	0.081875
35.466667	1	0.081875
35.483333	1	0.081875
35.500000	1	0.082250
35.516667	1	0.083125
35.533333	1	0.083875
35.550000	1	0.085000
35.566667	1	0.086500
35.583333	1	0.088125
35.600000	1	0.088750
35.616667	1	0.090500
35.633333	1	0.091500
35.650000	1	0.093500
35.666667	1	0.094375
35.683333	1	0.095000
35.700000	1	0.095875
35.716667	1	0.097750
35.733333	1	0.099000
35.750000	1	0.101125
35.766667	1	0.102375
35.783333	1	0.103250
35.800000	1	0.103750
35.816667	1	0.104250
35.833333	1	0.104875
35.850000	1	0.105125
35.866667	1	0.104625
35.883333	1	0.105125
35.900000	1	0.104750
35.916667	1	0.104625
35.933333	1	0.104375
35.950000	1	0.104500
35.966667	1	0.104250
35.983333	1	0.104250
36.000000	1	0.103625
36.016667	1	0.102875
36.033333	1	0.103000
36.050000	1	0.101625
36.066667	1	0.100500
36.083333	1	0.099250
36.100000	1	0.098375
36.116667	1	0.097375
36.133333	1	0.096875
36.150000	1	0.096375
36.166667	1	0.095250
36.183333	1	0.094250
36.200000	1	0.094000
36.216667	1	0.093000
36.233333	1	0.093000
36.250000	1	0.092125
36.266667	1	0.091500
36.283333	1	0.091000
36.300000	1	0.090875
36.316667	1	0.090750
36.333333	1	0.091250
36.350000	1	0.091000
36.366667	1	0.091125
36.383333	1	0.091625
36.400000	1	0.091875
36.416667	1	0.092125
36.433333	1	0.092750
36.450000	1	0.093000
36.466667	1	0.093000
36.483333	1	0.093500
36.500000	1	0.093375
36.516667	1	0.093875
36.533333	1	0.093125
36.550000	1	0.093500
36.566667	1	0.092875
36.583333	1	0.092625
36.600000	1	0.091875
36.616667	1	0.091375
36.633333	1	0.090000
36.650000	1	0.089125
36.666667	1	0.087750
36.683333	1	0.086125
36.700000	1	0.084875
36.716667	1	0.083125
36.733333	1	0.081250
36.750000	1	0.079500
36.766667	1	0.076875
36.783333	1	0.074375
36.800000	1	0.072500
36.816667	1	0.069875
36.833333	1	0.067125
36.850000	1	0.064750
36.866667	1	0.062375
36.883333	1	0.059625
36.900000	1	0.057875
36.916667	1	0.055500
36.933333	1	0.053000
36.950000	1	0.050750
36.966667	1	0.049000
36.983333	1	0.047375
37.000000	1	0.046125
37.016667	1	0.044750
37.033333	1	0.044250
37.050000	1	0.043375
37.066667	1	0.042500
37.083333	1	0.041750
37.100000	1	0.042000
37.116667	1	0.042125
37.133333	1	0.042375
37.150000	1	0.043000
37.166667	1	0.044000
37.183333	1	0.045000
37.200000	1	0.045625
37.216667	1	0.046250
37.233333	1	0.047500
37.250000	1	0.048875
37.266667	1	0.050750
37.283333	1	0.052250
37.300000	1	0.053500
37.316667	1	0.055250
37.333333	1	0.056000
37.350000	1	0.056875
37.366667	1	0.058000
37.383333	1	0.058625
37.400000	1	0.058750
37.416667	1	0.059250
37.433333	1	0.058875
37.450000	1	0.058125
37.466667	1	0.057875
37.483333	1	0.057375
37.500000	1	0.057375
37.516667	1	0.056625
37.533333	1	0.055375
37.550000	1	0.054500
37.566667	1	0.052000
37.583333	1	0.050500
37.600000	1	0.048500
37.616667	1	0.047125
37.633333	1	0.045375
37.650000	1	0.042750
37.666667	1	0.041000
37.683333	1	0.038625
37.700000	1	0.036750
37.716667	1	0.035000
37.733333	1	0.032000
37.750000	1	0.030000
37.766667	1	0.027625
37.783333	1	0.025125
37.800000	1	0.022750
37.816667	1	0.020375
37.833333	1	0.018500
37.850000	1	0.016375
37.866667	1	0.014500
37.883333	1	0.013000
37.900000	1	0.011375
37.916667	1	0.010125
37.933333	1	0.008250
37.950000	1	0.006875
37.966667	1	0.005125
37.983333	1	0.004125
38.000000	1	0.002625
38.016667	1	0.001875
38.033333	1	0.000500
38.050000	1	-0.000375
38.066667	1	-0.001000
38.083333	1	-0.001000
38.100000	1	-0.001250
38.116667	1	-0.001250
38.133333	1	-0.001250
38.150000	1	-0.001750
38.166667	1	-0.002250
38.183333	1	-0.001625
38.200000	1	-0.001375
38.216667	1	-0.001500
38.233333	1	-0.001375
38.250000	1	-0.000750
38.266667	1	0.000000
38.283333	1	0.001000
38.300000	1	0.001875
38.316667	1	0.003250
38.333333	1	0.004750
38.350000	1	0.005500
38.366667	1	0.006000
38.383333	1	0.007000
38.400000	1	0.007875
38.416667	1	0.009000
38.433333	1	0.010375
38.450000	1	0.011000
38.466667	1	0.012375
38.483333	1	0.013875
38.500000	1	0.015375
38.516667	1	0.016250
38.533333	1	0.017625
38.550000	1	0.018625
38.566667	1	0.019750
38.583333	1	0.020125
38.600000	1	0.020875
38.616667	1	0.022500
38.633333	1	0.023500
38.650000	1	0.024500
38.666667	1	0.025500
38.683333	1	0.026750
38.700000	1	0.027750
38.716667	1	0.028250
38.733333	1	0.030375
38.750000	1	0.031625
38.766667	1	0.032750
38.783333	1	0.034000
38.800000	1	0.035000
38.816667	1	0.036250
38.833333	1	0.037375
38.850000	1	0.039125
38.866667	1	0.040125
38.883333	1	0.041125
38.900000	1	0.042375
38.916667	1	0.043750
38.933333	1	0.045375
38.950000	1	0.046750
38.966667	1	0.047750
38.983333	1	0.049000
39.000000	1	0.050250
39.016667	1	0.051375
39.033333	1	0.052500
39.050000	1	0.052750
39.066667	1	0.053375
39.083333	1	0.054000
39.100000	1	0.054000
39.116667	1	0.054125
39.133333	1	0.054750
39.150000	1	0.054500
39.166667	1	0.053500
39.183333	1	0.052875
39.200000	1	0.052125
39.216667	1	0.051875
39.233333	1	0.051625
39.250000	1	0.050750
39.266667	1	0.049625
39.283333	1	0.049000
39.300000	1	0.047875
39.316667	1	0.047000
39.333333	1	0.046750
39.350000	1	0.045625
39.366667	1	0.043875
39.383333	1	0.042750
39.400000	1	0.041000
39.416667	1	0.039875
39.433333	1	0.038500
39.450000	1	0.037250
39.466667	1	0.036000
39.483333	1	0.035000
39.500000	1	0.033500
39.516667	1	0.032000
39.533333	1	0.031000
39.550000	1	0.029750
39.566667	1	0.028000
39.583333	1	0.027125
39.600000	1	0.024875
39.616667	1	0.023875
39.633333	1	0.022250
39.650000	1	0.021125
39.666667	1	0.019375
39.683333	1	0.017125
39.700000	1	0.015750
39.716667	1	0.013875
39.733333	1	0.012375
39.750000	1	0.010625
39.766667	1	0.009125
39.783333	1	0.007375
39.800000	1	0.006500
39.816667	1	0.005125
39.833333	1	0.003875
39.850000	1	0.002875
39.866667	1	0.001875
39.883333	1	0.000625
39.900000	1	-0.000375
39.916667	1	-0.001375
39.933333	1	-0.002125
39.950000	1	-0.003375
39.966667	1	-0.004250
39.983333	1	-0.005250
40.000000	1	-0.006250
