URL	chrom://7040-86g6c92/XVault/Ultimate_3000/20/20240517_CMO_FP23_FP25_MarkusDeplate.seq/900.smp/RI_1.channel/RI_1.chm
Channel	RI_1

Injection Information:
Data Vault	XVault
Sequence	20240517_CMO_FP23_FP25_MarkusDeplate
Name	FP25_22.1_s2
Number	71
Position	BF11
Comment	
Processing Method	
Instrument Method	run_25B_method
Type	Unknown
Status	Finished
Inject Time	29.05.2024 18:31:02 +02:00
Volume (µl)	20.0000
Dilution Factor	1.0000
Weight	1.0000

Chromatogram Data Information:
Time Min. (min)	0.000000
Time Max. (min)	40.000000
Data Points	2401
Detector	RI
Generating Data System	Chromeleon 7.3.2.11814
Exporting Data System	Chromeleon 7.3.2.0
Operator	Instrument Controller
Signal Quantity	Refractive 
Signal Unit	µRIU
Signal Min.	-1.224000
Signal Max.	62.359000
Channel	RI_1
Driver Name	RID520Driver.dll
Channel Type	Evaluation
Min. Step (s)	1
Max. Step (s)	1
Average Step (s)	1

Signal Parameter Information:
Signal Info	

Chromatogram Data:
Time (min)	Step (s)	Value (µRIU)
0.000000	n.a.	-0.150000
0.016667	1	-0.150625
0.033333	1	-0.151750
0.050000	1	-0.152750
0.066667	1	-0.153625
0.083333	1	-0.153750
0.100000	1	-0.155000
0.116667	1	-0.156125
0.133333	1	-0.156250
0.150000	1	-0.157125
0.166667	1	-0.157625
0.183333	1	-0.157875
0.200000	1	-0.157875
0.216667	1	-0.158125
0.233333	1	-0.158000
0.250000	1	-0.158750
0.266667	1	-0.158875
0.283333	1	-0.159000
0.300000	1	-0.158625
0.316667	1	-0.158750
0.333333	1	-0.159000
0.350000	1	-0.159875
0.366667	1	-0.160750
0.383333	1	-0.161375
0.400000	1	-0.161625
0.416667	1	-0.161625
0.433333	1	-0.160500
0.450000	1	-0.158625
0.466667	1	-0.157000
0.483333	1	-0.155375
0.500000	1	-0.154000
0.516667	1	-0.153375
0.533333	1	-0.153000
0.550000	1	-0.153250
0.566667	1	-0.153750
0.583333	1	-0.154500
0.600000	1	-0.156250
0.616667	1	-0.158500
0.633333	1	-0.160875
0.650000	1	-0.162000
0.666667	1	-0.163000
0.683333	1	-0.163375
0.700000	1	-0.163500
0.716667	1	-0.163375
0.733333	1	-0.163500
0.750000	1	-0.163125
0.766667	1	-0.163500
0.783333	1	-0.163125
0.800000	1	-0.163000
0.816667	1	-0.162625
0.833333	1	-0.162250
0.850000	1	-0.161250
0.866667	1	-0.160750
0.883333	1	-0.160000
0.900000	1	-0.159375
0.916667	1	-0.158625
0.933333	1	-0.158375
0.950000	1	-0.158000
0.966667	1	-0.157125
0.983333	1	-0.156375
1.000000	1	-0.156000
1.016667	1	-0.155500
1.033333	1	-0.154625
1.050000	1	-0.153375
1.066667	1	-0.152250
1.083333	1	-0.151750
1.100000	1	-0.150625
1.116667	1	-0.150250
1.133333	1	-0.150125
1.150000	1	-0.149250
1.166667	1	-0.149000
1.183333	1	-0.149000
1.200000	1	-0.149000
1.216667	1	-0.148500
1.233333	1	-0.149000
1.250000	1	-0.148875
1.266667	1	-0.148625
1.283333	1	-0.149625
1.300000	1	-0.149625
1.316667	1	-0.150125
1.333333	1	-0.150125
1.350000	1	-0.151125
1.366667	1	-0.152750
1.383333	1	-0.153000
1.400000	1	-0.153250
1.416667	1	-0.153625
1.433333	1	-0.154250
1.450000	1	-0.154500
1.466667	1	-0.155250
1.483333	1	-0.155500
1.500000	1	-0.155875
1.516667	1	-0.156375
1.533333	1	-0.157000
1.550000	1	-0.156750
1.566667	1	-0.156125
1.583333	1	-0.156375
1.600000	1	-0.156625
1.616667	1	-0.156125
1.633333	1	-0.156500
1.650000	1	-0.156375
1.666667	1	-0.156250
1.683333	1	-0.155875
1.700000	1	-0.155500
1.716667	1	-0.155250
1.733333	1	-0.154750
1.750000	1	-0.154375
1.766667	1	-0.154500
1.783333	1	-0.154125
1.800000	1	-0.153625
1.816667	1	-0.153500
1.833333	1	-0.153000
1.850000	1	-0.152250
1.866667	1	-0.152250
1.883333	1	-0.152250
1.900000	1	-0.152625
1.916667	1	-0.152500
1.933333	1	-0.152125
1.950000	1	-0.152375
1.966667	1	-0.152625
1.983333	1	-0.152625
2.000000	1	-0.153000
2.016667	1	-0.153125
2.033333	1	-0.153750
2.050000	1	-0.154250
2.066667	1	-0.154750
2.083333	1	-0.154375
2.100000	1	-0.154875
2.116667	1	-0.155375
2.133333	1	-0.156000
2.150000	1	-0.156625
2.166667	1	-0.156750
2.183333	1	-0.157375
2.200000	1	-0.157750
2.216667	1	-0.158500
2.233333	1	-0.158375
2.250000	1	-0.158625
2.266667	1	-0.158000
2.283333	1	-0.158250
2.300000	1	-0.158875
2.316667	1	-0.158875
2.333333	1	-0.157750
2.350000	1	-0.158375
2.366667	1	-0.158125
2.383333	1	-0.157750
2.400000	1	-0.157250
2.416667	1	-0.157000
2.433333	1	-0.157125
2.450000	1	-0.157000
2.466667	1	-0.156875
2.483333	1	-0.156625
2.500000	1	-0.156625
2.516667	1	-0.156375
2.533333	1	-0.156125
2.550000	1	-0.156375
2.566667	1	-0.156000
2.583333	1	-0.155250
2.600000	1	-0.155750
2.616667	1	-0.155125
2.633333	1	-0.154750
2.650000	1	-0.154500
2.666667	1	-0.155000
2.683333	1	-0.154750
2.700000	1	-0.154750
2.716667	1	-0.154375
2.733333	1	-0.154750
2.750000	1	-0.154625
2.766667	1	-0.155375
2.783333	1	-0.154500
2.800000	1	-0.154500
2.816667	1	-0.154500
2.833333	1	-0.154250
2.850000	1	-0.154250
2.866667	1	-0.154250
2.883333	1	-0.154375
2.900000	1	-0.155125
2.916667	1	-0.154250
2.933333	1	-0.154250
2.950000	1	-0.154750
2.966667	1	-0.154875
2.983333	1	-0.155125
3.000000	1	-0.155625
3.016667	1	-0.155500
3.033333	1	-0.156000
3.050000	1	-0.156500
3.066667	1	-0.156250
3.083333	1	-0.156250
3.100000	1	-0.156375
3.116667	1	-0.156625
3.133333	1	-0.156625
3.150000	1	-0.157625
3.166667	1	-0.158000
3.183333	1	-0.157750
3.200000	1	-0.158750
3.216667	1	-0.160125
3.233333	1	-0.160375
3.250000	1	-0.160250
3.266667	1	-0.160750
3.283333	1	-0.161250
3.300000	1	-0.161500
3.316667	1	-0.161875
3.333333	1	-0.162750
3.350000	1	-0.163125
3.366667	1	-0.163625
3.383333	1	-0.163375
3.400000	1	-0.163625
3.416667	1	-0.163250
3.433333	1	-0.163125
3.450000	1	-0.162375
3.466667	1	-0.162375
3.483333	1	-0.161375
3.500000	1	-0.161000
3.516667	1	-0.160875
3.533333	1	-0.160375
3.550000	1	-0.159375
3.566667	1	-0.158625
3.583333	1	-0.158000
3.600000	1	-0.157625
3.616667	1	-0.156750
3.633333	1	-0.156125
3.650000	1	-0.155500
3.666667	1	-0.155000
3.683333	1	-0.154500
3.700000	1	-0.153875
3.716667	1	-0.153750
3.733333	1	-0.154500
3.750000	1	-0.154625
3.766667	1	-0.154250
3.783333	1	-0.154625
3.800000	1	-0.154125
3.816667	1	-0.155125
3.833333	1	-0.155125
3.850000	1	-0.156250
3.866667	1	-0.156875
3.883333	1	-0.157875
3.900000	1	-0.158125
3.916667	1	-0.159625
3.933333	1	-0.159625
3.950000	1	-0.159500
3.966667	1	-0.159625
3.983333	1	-0.160000
4.000000	1	-0.160000
4.016667	1	-0.160375
4.033333	1	-0.160250
4.050000	1	-0.160125
4.066667	1	-0.159375
4.083333	1	-0.158875
4.100000	1	-0.158875
4.116667	1	-0.158000
4.133333	1	-0.157500
4.150000	1	-0.157000
4.166667	1	-0.156875
4.183333	1	-0.156000
4.200000	1	-0.155625
4.216667	1	-0.154875
4.233333	1	-0.154125
4.250000	1	-0.152875
4.266667	1	-0.151875
4.283333	1	-0.150625
4.300000	1	-0.149875
4.316667	1	-0.149375
4.333333	1	-0.148750
4.350000	1	-0.148000
4.366667	1	-0.146500
4.383333	1	-0.145500
4.400000	1	-0.145250
4.416667	1	-0.144625
4.433333	1	-0.143875
4.450000	1	-0.143750
4.466667	1	-0.143125
4.483333	1	-0.142625
4.500000	1	-0.141625
4.516667	1	-0.141000
4.533333	1	-0.140250
4.550000	1	-0.140000
4.566667	1	-0.139500
4.583333	1	-0.139250
4.600000	1	-0.138750
4.616667	1	-0.137875
4.633333	1	-0.137000
4.650000	1	-0.136625
4.666667	1	-0.135625
4.683333	1	-0.135250
4.700000	1	-0.134125
4.716667	1	-0.132500
4.733333	1	-0.131875
4.750000	1	-0.130250
4.766667	1	-0.129250
4.783333	1	-0.128000
4.800000	1	-0.125875
4.816667	1	-0.123500
4.833333	1	-0.121625
4.850000	1	-0.119750
4.866667	1	-0.117625
4.883333	1	-0.115125
4.900000	1	-0.112125
4.916667	1	-0.110000
4.933333	1	-0.107250
4.950000	1	-0.104375
4.966667	1	-0.101375
4.983333	1	-0.098625
5.000000	1	-0.095500
5.016667	1	-0.092750
5.033333	1	-0.089375
5.050000	1	-0.086625
5.066667	1	-0.084500
5.083333	1	-0.081125
5.100000	1	-0.078000
5.116667	1	-0.075000
5.133333	1	-0.072125
5.150000	1	-0.069250
5.166667	1	-0.066000
5.183333	1	-0.063250
5.200000	1	-0.059875
5.216667	1	-0.057000
5.233333	1	-0.053625
5.250000	1	-0.050500
5.266667	1	-0.046875
5.283333	1	-0.043875
5.300000	1	-0.041125
5.316667	1	-0.038375
5.333333	1	-0.034750
5.350000	1	-0.031000
5.366667	1	-0.027875
5.383333	1	-0.024250
5.400000	1	-0.019250
5.416667	1	-0.014625
5.433333	1	-0.011125
5.450000	1	-0.006375
5.466667	1	-0.002375
5.483333	1	0.002000
5.500000	1	0.007125
5.516667	1	0.011000
5.533333	1	0.015625
5.550000	1	0.020125
5.566667	1	0.025000
5.583333	1	0.030500
5.600000	1	0.034625
5.616667	1	0.039125
5.633333	1	0.043750
5.650000	1	0.049000
5.666667	1	0.053625
5.683333	1	0.057750
5.700000	1	0.061750
5.716667	1	0.065750
5.733333	1	0.069250
5.750000	1	0.072500
5.766667	1	0.076375
5.783333	1	0.079375
5.800000	1	0.082625
5.816667	1	0.085625
5.833333	1	0.087500
5.850000	1	0.089625
5.866667	1	0.091125
5.883333	1	0.092750
5.900000	1	0.094125
5.916667	1	0.094000
5.933333	1	0.094625
5.950000	1	0.094750
5.966667	1	0.094250
5.983333	1	0.094500
6.000000	1	0.093375
6.016667	1	0.092000
6.033333	1	0.090250
6.050000	1	0.088375
6.066667	1	0.086375
6.083333	1	0.083875
6.100000	1	0.081000
6.116667	1	0.078500
6.133333	1	0.075000
6.150000	1	0.071000
6.166667	1	0.067000
6.183333	1	0.063125
6.200000	1	0.059375
6.216667	1	0.054125
6.233333	1	0.049625
6.250000	1	0.044375
6.266667	1	0.039000
6.283333	1	0.034000
6.300000	1	0.028375
6.316667	1	0.023375
6.333333	1	0.017250
6.350000	1	0.012375
6.366667	1	0.007000
6.383333	1	0.002375
6.400000	1	-0.002375
6.416667	1	-0.006625
6.433333	1	-0.010875
6.450000	1	-0.014500
6.466667	1	-0.017875
6.483333	1	-0.021875
6.500000	1	-0.025500
6.516667	1	-0.028500
6.533333	1	-0.031125
6.550000	1	-0.034375
6.566667	1	-0.036000
6.583333	1	-0.037375
6.600000	1	-0.038375
6.616667	1	-0.039125
6.633333	1	-0.040250
6.650000	1	-0.040875
6.666667	1	-0.041750
6.683333	1	-0.041875
6.700000	1	-0.041125
6.716667	1	-0.040750
6.733333	1	-0.039500
6.750000	1	-0.038875
6.766667	1	-0.038000
6.783333	1	-0.037375
6.800000	1	-0.036500
6.816667	1	-0.035750
6.833333	1	-0.035000
6.850000	1	-0.034000
6.866667	1	-0.032750
6.883333	1	-0.031750
6.900000	1	-0.030875
6.916667	1	-0.029500
6.933333	1	-0.028500
6.950000	1	-0.027250
6.966667	1	-0.025750
6.983333	1	-0.024750
7.000000	1	-0.023875
7.016667	1	-0.023625
7.033333	1	-0.023250
7.050000	1	-0.022000
7.066667	1	-0.022000
7.083333	1	-0.021250
7.100000	1	-0.019875
7.116667	1	-0.018750
7.133333	1	-0.017250
7.150000	1	-0.016000
7.166667	1	-0.014750
7.183333	1	-0.013125
7.200000	1	-0.011625
7.216667	1	-0.011500
7.233333	1	-0.010000
7.250000	1	-0.008625
7.266667	1	-0.007125
7.283333	1	-0.005625
7.300000	1	-0.003625
7.316667	1	-0.002125
7.333333	1	0.000250
7.350000	1	0.002250
7.366667	1	0.004500
7.383333	1	0.005500
7.400000	1	0.007750
7.416667	1	0.009250
7.433333	1	0.011250
7.450000	1	0.012500
7.466667	1	0.014125
7.483333	1	0.016125
7.500000	1	0.017000
7.516667	1	0.018125
7.533333	1	0.019625
7.550000	1	0.020375
7.566667	1	0.021875
7.583333	1	0.022750
7.600000	1	0.022875
7.616667	1	0.023500
7.633333	1	0.023125
7.650000	1	0.022625
7.666667	1	0.021625
7.683333	1	0.020750
7.700000	1	0.020250
7.716667	1	0.019250
7.733333	1	0.017500
7.750000	1	0.015625
7.766667	1	0.014000
7.783333	1	0.011125
7.800000	1	0.008125
7.816667	1	0.004625
7.833333	1	0.001625
7.850000	1	-0.001375
7.866667	1	-0.005625
7.883333	1	-0.009625
7.900000	1	-0.013875
7.916667	1	-0.018250
7.933333	1	-0.023125
7.950000	1	-0.027500
7.966667	1	-0.031875
7.983333	1	-0.036750
8.000000	1	-0.041625
8.016667	1	-0.046250
8.033333	1	-0.050875
8.050000	1	-0.055625
8.066667	1	-0.060000
8.083333	1	-0.064000
8.100000	1	-0.067625
8.116667	1	-0.071625
8.133333	1	-0.075750
8.150000	1	-0.079250
8.166667	1	-0.082000
8.183333	1	-0.085125
8.200000	1	-0.088250
8.216667	1	-0.091250
8.233333	1	-0.094500
8.250000	1	-0.097375
8.266667	1	-0.100250
8.283333	1	-0.103250
8.300000	1	-0.105500
8.316667	1	-0.107500
8.333333	1	-0.109875
8.350000	1	-0.111875
8.366667	1	-0.113875
8.383333	1	-0.115375
8.400000	1	-0.117500
8.416667	1	-0.119000
8.433333	1	-0.121000
8.450000	1	-0.121750
8.466667	1	-0.122750
8.483333	1	-0.123875
8.500000	1	-0.125125
8.516667	1	-0.126000
8.533333	1	-0.126625
8.550000	1	-0.126625
8.566667	1	-0.127250
8.583333	1	-0.127500
8.600000	1	-0.127375
8.616667	1	-0.127625
8.633333	1	-0.127625
8.650000	1	-0.127500
8.666667	1	-0.126625
8.683333	1	-0.127250
8.700000	1	-0.127375
8.716667	1	-0.127375
8.733333	1	-0.127500
8.750000	1	-0.128000
8.766667	1	-0.127875
8.783333	1	-0.128500
8.800000	1	-0.128750
8.816667	1	-0.128625
8.833333	1	-0.129250
8.850000	1	-0.130000
8.866667	1	-0.130000
8.883333	1	-0.130000
8.900000	1	-0.129875
8.916667	1	-0.130625
8.933333	1	-0.130625
8.950000	1	-0.129750
8.966667	1	-0.129500
8.983333	1	-0.129000
9.000000	1	-0.128750
9.016667	1	-0.128500
9.033333	1	-0.128375
9.050000	1	-0.127500
9.066667	1	-0.127000
9.083333	1	-0.125750
9.100000	1	-0.125250
9.116667	1	-0.123750
9.133333	1	-0.123250
9.150000	1	-0.121375
9.166667	1	-0.119000
9.183333	1	-0.117875
9.200000	1	-0.116500
9.216667	1	-0.114875
9.233333	1	-0.113375
9.250000	1	-0.111875
9.266667	1	-0.110375
9.283333	1	-0.108000
9.300000	1	-0.106125
9.316667	1	-0.104250
9.333333	1	-0.101750
9.350000	1	-0.099625
9.366667	1	-0.098000
9.383333	1	-0.095625
9.400000	1	-0.093500
9.416667	1	-0.092000
9.433333	1	-0.090625
9.450000	1	-0.089500
9.466667	1	-0.087750
9.483333	1	-0.087000
9.500000	1	-0.085875
9.516667	1	-0.084500
9.533333	1	-0.083875
9.550000	1	-0.082750
9.566667	1	-0.082250
9.583333	1	-0.081625
9.600000	1	-0.080750
9.616667	1	-0.080750
9.633333	1	-0.080750
9.650000	1	-0.080750
9.666667	1	-0.081000
9.683333	1	-0.080375
9.700000	1	-0.081125
9.716667	1	-0.081375
9.733333	1	-0.082125
9.750000	1	-0.082750
9.766667	1	-0.083625
9.783333	1	-0.084500
9.800000	1	-0.085625
9.816667	1	-0.086875
9.833333	1	-0.088750
9.850000	1	-0.089750
9.866667	1	-0.091500
9.883333	1	-0.093750
9.900000	1	-0.095625
9.916667	1	-0.097000
9.933333	1	-0.098125
9.950000	1	-0.099875
9.966667	1	-0.100875
9.983333	1	-0.102500
10.000000	1	-0.103500
10.016667	1	-0.103625
10.033333	1	-0.102875
10.050000	1	-0.100875
10.066667	1	-0.098750
10.083333	1	-0.096625
10.100000	1	-0.092375
10.116667	1	-0.087500
10.133333	1	-0.081875
10.150000	1	-0.075125
10.166667	1	-0.066375
10.183333	1	-0.057250
10.200000	1	-0.046875
10.216667	1	-0.035250
10.233333	1	-0.021125
10.250000	1	-0.005125
10.266667	1	0.012375
10.283333	1	0.032625
10.300000	1	0.055125
10.316667	1	0.080875
10.333333	1	0.109250
10.350000	1	0.140500
10.366667	1	0.175375
10.383333	1	0.212000
10.400000	1	0.249625
10.416667	1	0.284250
10.433333	1	0.308125
10.450000	1	0.312750
10.466667	1	0.288750
10.483333	1	0.233125
10.500000	1	0.154500
10.516667	1	0.083000
10.533333	1	0.074625
10.550000	1	0.204125
10.566667	1	0.561625
10.583333	1	1.241125
10.600000	1	2.328250
10.616667	1	3.894875
10.633333	1	5.989125
10.650000	1	8.640250
10.666667	1	11.858250
10.683333	1	15.632500
10.700000	1	19.929750
10.716667	1	24.679875
10.733333	1	29.770125
10.750000	1	35.027125
10.766667	1	40.194875
10.783333	1	44.938875
10.800000	1	48.848375
10.816667	1	51.492500
10.833333	1	52.520875
10.850000	1	51.774500
10.866667	1	49.348750
10.883333	1	45.574250
10.900000	1	40.922000
10.916667	1	35.881625
10.933333	1	30.860875
10.950000	1	26.144500
10.966667	1	21.898000
10.983333	1	18.194250
11.000000	1	15.044500
11.016667	1	12.418250
11.033333	1	10.264875
11.050000	1	8.520875
11.066667	1	7.119875
11.083333	1	6.001625
11.100000	1	5.110000
11.116667	1	4.398875
11.133333	1	3.829875
11.150000	1	3.371625
11.166667	1	3.000625
11.183333	1	2.696500
11.200000	1	2.445500
11.216667	1	2.237000
11.233333	1	2.060750
11.250000	1	1.910750
11.266667	1	1.782000
11.283333	1	1.671500
11.300000	1	1.574625
11.316667	1	1.490875
11.333333	1	1.416875
11.350000	1	1.350750
11.366667	1	1.293000
11.383333	1	1.240875
11.400000	1	1.196125
11.416667	1	1.155750
11.433333	1	1.119500
11.450000	1	1.086750
11.466667	1	1.057500
11.483333	1	1.031125
11.500000	1	1.006500
11.516667	1	0.984250
11.533333	1	0.964500
11.550000	1	0.946750
11.566667	1	0.930750
11.583333	1	0.916250
11.600000	1	0.904500
11.616667	1	0.893500
11.633333	1	0.884875
11.650000	1	0.877125
11.666667	1	0.870875
11.683333	1	0.867125
11.700000	1	0.864125
11.716667	1	0.863375
11.733333	1	0.864375
11.750000	1	0.866375
11.766667	1	0.870000
11.783333	1	0.874250
11.800000	1	0.878500
11.816667	1	0.884500
11.833333	1	0.889125
11.850000	1	0.894875
11.866667	1	0.900125
11.883333	1	0.905625
11.900000	1	0.910375
11.916667	1	0.914750
11.933333	1	0.918875
11.950000	1	0.923125
11.966667	1	0.927625
11.983333	1	0.932500
12.000000	1	0.937625
12.016667	1	0.942875
12.033333	1	0.950375
12.050000	1	0.957750
12.066667	1	0.964875
12.083333	1	0.973250
12.100000	1	0.982250
12.116667	1	0.991000
12.133333	1	1.000500
12.150000	1	1.011750
12.166667	1	1.023500
12.183333	1	1.036750
12.200000	1	1.052125
12.216667	1	1.068750
12.233333	1	1.088125
12.250000	1	1.109250
12.266667	1	1.132625
12.283333	1	1.159125
12.300000	1	1.188000
12.316667	1	1.219000
12.333333	1	1.253000
12.350000	1	1.292250
12.366667	1	1.338750
12.383333	1	1.396000
12.400000	1	1.467750
12.416667	1	1.561875
12.433333	1	1.684750
12.450000	1	1.845875
12.466667	1	2.051875
12.483333	1	2.311750
12.500000	1	2.631750
12.516667	1	3.014875
12.533333	1	3.461250
12.550000	1	3.966250
12.566667	1	4.522000
12.583333	1	5.117500
12.600000	1	5.736875
12.616667	1	6.365000
12.633333	1	6.987125
12.650000	1	7.590000
12.666667	1	8.163500
12.683333	1	8.702250
12.700000	1	9.203875
12.716667	1	9.670125
12.733333	1	10.105625
12.750000	1	10.517125
12.766667	1	10.910125
12.783333	1	11.283875
12.800000	1	11.629625
12.816667	1	11.922000
12.833333	1	12.116625
12.850000	1	12.154500
12.866667	1	11.979625
12.883333	1	11.558875
12.900000	1	10.905000
12.916667	1	10.074125
12.933333	1	9.148625
12.950000	1	8.208000
12.966667	1	7.311375
12.983333	1	6.489250
13.000000	1	5.754750
13.016667	1	5.110375
13.033333	1	4.551875
13.050000	1	4.073750
13.066667	1	3.667875
13.083333	1	3.327000
13.100000	1	3.042875
13.116667	1	2.806625
13.133333	1	2.610500
13.150000	1	2.446750
13.166667	1	2.309250
13.183333	1	2.193125
13.200000	1	2.093375
13.216667	1	2.006875
13.233333	1	1.930750
13.250000	1	1.862750
13.266667	1	1.801250
13.283333	1	1.745875
13.300000	1	1.694750
13.316667	1	1.647875
13.333333	1	1.604875
13.350000	1	1.564125
13.366667	1	1.526625
13.383333	1	1.492500
13.400000	1	1.461625
13.416667	1	1.434125
13.433333	1	1.409500
13.450000	1	1.387750
13.466667	1	1.369500
13.483333	1	1.354125
13.500000	1	1.342000
13.516667	1	1.331875
13.533333	1	1.324625
13.550000	1	1.318500
13.566667	1	1.313750
13.583333	1	1.308125
13.600000	1	1.302750
13.616667	1	1.295500
13.633333	1	1.287125
13.650000	1	1.276250
13.666667	1	1.263000
13.683333	1	1.247875
13.700000	1	1.230250
13.716667	1	1.212000
13.733333	1	1.192125
13.750000	1	1.172125
13.766667	1	1.151000
13.783333	1	1.131000
13.800000	1	1.111250
13.816667	1	1.092500
13.833333	1	1.074500
13.850000	1	1.057000
13.866667	1	1.040250
13.883333	1	1.025000
13.900000	1	1.010500
13.916667	1	0.996625
13.933333	1	0.984625
13.950000	1	0.972875
13.966667	1	0.961000
13.983333	1	0.950750
14.000000	1	0.940625
14.016667	1	0.931375
14.033333	1	0.923500
14.050000	1	0.915125
14.066667	1	0.907500
14.083333	1	0.900125
14.100000	1	0.893250
14.116667	1	0.886250
14.133333	1	0.879875
14.150000	1	0.873875
14.166667	1	0.869250
14.183333	1	0.865000
14.200000	1	0.861500
14.216667	1	0.859125
14.233333	1	0.857250
14.250000	1	0.857500
14.266667	1	0.858625
14.283333	1	0.861125
14.300000	1	0.864750
14.316667	1	0.869500
14.333333	1	0.875625
14.350000	1	0.882875
14.366667	1	0.892750
14.383333	1	0.904125
14.400000	1	0.917375
14.416667	1	0.934000
14.433333	1	0.955375
14.450000	1	0.986125
14.466667	1	1.032125
14.483333	1	1.103000
14.500000	1	1.212875
14.516667	1	1.383000
14.533333	1	1.641625
14.550000	1	2.026875
14.566667	1	2.587250
14.583333	1	3.381000
14.600000	1	4.475250
14.616667	1	5.944625
14.633333	1	7.866250
14.650000	1	10.309125
14.666667	1	13.323250
14.683333	1	16.931625
14.700000	1	21.118000
14.716667	1	25.816625
14.733333	1	30.918500
14.750000	1	36.265000
14.766667	1	41.653000
14.783333	1	46.846375
14.800000	1	51.609000
14.816667	1	55.711375
14.833333	1	58.959625
14.850000	1	61.197875
14.866667	1	62.337125
14.883333	1	62.359000
14.900000	1	61.310750
14.916667	1	59.303875
14.933333	1	56.494125
14.950000	1	53.064875
14.966667	1	49.208875
14.983333	1	45.113125
15.000000	1	40.940125
15.016667	1	36.821125
15.033333	1	32.861500
15.050000	1	29.136000
15.066667	1	25.692625
15.083333	1	22.556250
15.100000	1	19.735375
15.116667	1	17.221500
15.133333	1	14.997375
15.150000	1	13.041750
15.166667	1	11.329750
15.183333	1	9.839375
15.200000	1	8.544625
15.216667	1	7.422500
15.233333	1	6.453500
15.250000	1	5.620000
15.266667	1	4.906875
15.283333	1	4.301250
15.300000	1	3.790250
15.316667	1	3.365125
15.333333	1	3.014375
15.350000	1	2.728125
15.366667	1	2.498250
15.383333	1	2.317250
15.400000	1	2.175500
15.416667	1	2.065875
15.433333	1	1.981875
15.450000	1	1.916625
15.466667	1	1.863625
15.483333	1	1.819125
15.500000	1	1.778750
15.516667	1	1.739250
15.533333	1	1.699750
15.550000	1	1.657250
15.566667	1	1.613375
15.583333	1	1.568375
15.600000	1	1.521625
15.616667	1	1.474750
15.633333	1	1.428625
15.650000	1	1.384500
15.666667	1	1.343000
15.683333	1	1.303375
15.700000	1	1.266000
15.716667	1	1.231625
15.733333	1	1.199000
15.750000	1	1.168625
15.766667	1	1.139750
15.783333	1	1.112375
15.800000	1	1.086625
15.816667	1	1.062250
15.833333	1	1.038625
15.850000	1	1.016750
15.866667	1	0.996500
15.883333	1	0.977625
15.900000	1	0.961000
15.916667	1	0.946125
15.933333	1	0.933750
15.950000	1	0.923625
15.966667	1	0.915500
15.983333	1	0.908625
16.000000	1	0.904375
16.016667	1	0.901000
16.033333	1	0.900375
16.050000	1	0.900750
16.066667	1	0.902000
16.083333	1	0.904000
16.100000	1	0.906375
16.116667	1	0.908625
16.133333	1	0.911250
16.150000	1	0.913125
16.166667	1	0.915125
16.183333	1	0.916000
16.200000	1	0.916750
16.216667	1	0.917000
16.233333	1	0.915375
16.250000	1	0.912625
16.266667	1	0.909750
16.283333	1	0.906375
16.300000	1	0.903250
16.316667	1	0.899875
16.333333	1	0.896250
16.350000	1	0.894125
16.366667	1	0.892500
16.383333	1	0.892000
16.400000	1	0.893250
16.416667	1	0.894750
16.433333	1	0.898625
16.450000	1	0.903875
16.466667	1	0.909875
16.483333	1	0.915375
16.500000	1	0.921250
16.516667	1	0.927250
16.533333	1	0.932000
16.550000	1	0.935250
16.566667	1	0.936875
16.583333	1	0.937125
16.600000	1	0.936250
16.616667	1	0.933750
16.633333	1	0.928625
16.650000	1	0.924000
16.666667	1	0.919625
16.683333	1	0.916125
16.700000	1	0.912750
16.716667	1	0.910250
16.733333	1	0.909875
16.750000	1	0.911375
16.766667	1	0.915250
16.783333	1	0.920750
16.800000	1	0.926750
16.816667	1	0.933625
16.833333	1	0.941750
16.850000	1	0.949750
16.866667	1	0.957625
16.883333	1	0.964250
16.900000	1	0.969625
16.916667	1	0.973625
16.933333	1	0.976125
16.950000	1	0.976250
16.966667	1	0.975625
16.983333	1	0.973500
17.000000	1	0.970000
17.016667	1	0.966000
17.033333	1	0.960875
17.050000	1	0.955250
17.066667	1	0.949625
17.083333	1	0.944000
17.100000	1	0.939125
17.116667	1	0.934500
17.133333	1	0.930375
17.150000	1	0.926375
17.166667	1	0.922875
17.183333	1	0.920625
17.200000	1	0.919000
17.216667	1	0.918000
17.233333	1	0.917750
17.250000	1	0.918000
17.266667	1	0.919250
17.283333	1	0.920875
17.300000	1	0.923000
17.316667	1	0.925625
17.333333	1	0.928125
17.350000	1	0.931125
17.366667	1	0.934500
17.383333	1	0.937750
17.400000	1	0.940875
17.416667	1	0.943500
17.433333	1	0.945250
17.450000	1	0.945375
17.466667	1	0.944125
17.483333	1	0.940750
17.500000	1	0.936375
17.516667	1	0.930125
17.533333	1	0.923250
17.550000	1	0.913625
17.566667	1	0.902750
17.583333	1	0.890250
17.600000	1	0.876625
17.616667	1	0.862750
17.633333	1	0.847750
17.650000	1	0.831125
17.666667	1	0.814875
17.683333	1	0.799750
17.700000	1	0.784125
17.716667	1	0.768250
17.733333	1	0.753625
17.750000	1	0.739750
17.766667	1	0.726875
17.783333	1	0.715375
17.800000	1	0.704625
17.816667	1	0.694875
17.833333	1	0.686000
17.850000	1	0.677875
17.866667	1	0.670750
17.883333	1	0.663250
17.900000	1	0.657250
17.916667	1	0.651625
17.933333	1	0.645875
17.950000	1	0.640875
17.966667	1	0.636000
17.983333	1	0.630875
18.000000	1	0.625250
18.016667	1	0.619625
18.033333	1	0.614750
18.050000	1	0.609875
18.066667	1	0.604500
18.083333	1	0.600000
18.100000	1	0.595375
18.116667	1	0.592000
18.133333	1	0.589000
18.150000	1	0.587000
18.166667	1	0.586750
18.183333	1	0.586250
18.200000	1	0.586750
18.216667	1	0.587625
18.233333	1	0.588750
18.250000	1	0.589750
18.266667	1	0.591125
18.283333	1	0.592875
18.300000	1	0.594875
18.316667	1	0.597125
18.333333	1	0.599000
18.350000	1	0.601250
18.366667	1	0.604000
18.383333	1	0.607125
18.400000	1	0.611250
18.416667	1	0.616250
18.433333	1	0.622625
18.450000	1	0.630375
18.466667	1	0.639500
18.483333	1	0.650625
18.500000	1	0.663500
18.516667	1	0.678500
18.533333	1	0.695250
18.550000	1	0.713000
18.566667	1	0.733375
18.583333	1	0.755000
18.600000	1	0.778750
18.616667	1	0.804625
18.633333	1	0.831250
18.650000	1	0.860125
18.666667	1	0.889375
18.683333	1	0.920750
18.700000	1	0.953500
18.716667	1	0.987250
18.733333	1	1.021250
18.750000	1	1.055500
18.766667	1	1.089375
18.783333	1	1.122625
18.800000	1	1.155125
18.816667	1	1.184625
18.833333	1	1.211750
18.850000	1	1.235875
18.866667	1	1.255125
18.883333	1	1.270000
18.900000	1	1.279125
18.916667	1	1.281625
18.933333	1	1.277625
18.950000	1	1.268000
18.966667	1	1.252875
18.983333	1	1.231625
19.000000	1	1.204625
19.016667	1	1.172125
19.033333	1	1.134875
19.050000	1	1.094125
19.066667	1	1.051000
19.083333	1	1.007375
19.100000	1	0.962750
19.116667	1	0.918375
19.133333	1	0.874750
19.150000	1	0.833750
19.166667	1	0.794875
19.183333	1	0.760000
19.200000	1	0.728875
19.216667	1	0.702500
19.233333	1	0.680375
19.250000	1	0.663875
19.266667	1	0.652750
19.283333	1	0.648375
19.300000	1	0.648750
19.316667	1	0.656000
19.333333	1	0.669250
19.350000	1	0.687375
19.366667	1	0.711125
19.383333	1	0.738750
19.400000	1	0.769750
19.416667	1	0.803375
19.433333	1	0.838625
19.450000	1	0.875000
19.466667	1	0.910000
19.483333	1	0.944375
19.500000	1	0.976375
19.516667	1	1.004625
19.533333	1	1.029500
19.550000	1	1.050625
19.566667	1	1.067375
19.583333	1	1.078875
19.600000	1	1.085750
19.616667	1	1.087625
19.633333	1	1.085250
19.650000	1	1.077500
19.666667	1	1.065625
19.683333	1	1.050125
19.700000	1	1.031500
19.716667	1	1.009375
19.733333	1	0.984500
19.750000	1	0.957125
19.766667	1	0.927750
19.783333	1	0.896750
19.800000	1	0.864000
19.816667	1	0.830375
19.833333	1	0.796875
19.850000	1	0.763125
19.866667	1	0.730000
19.883333	1	0.697625
19.900000	1	0.667125
19.916667	1	0.637375
19.933333	1	0.610000
19.950000	1	0.585500
19.966667	1	0.563750
19.983333	1	0.546000
20.000000	1	0.531875
20.016667	1	0.522000
20.033333	1	0.516250
20.050000	1	0.515625
20.066667	1	0.520000
20.083333	1	0.529125
20.100000	1	0.543750
20.116667	1	0.563125
20.133333	1	0.587250
20.150000	1	0.615250
20.166667	1	0.646000
20.183333	1	0.679500
20.200000	1	0.713500
20.216667	1	0.746750
20.233333	1	0.778375
20.250000	1	0.807250
20.266667	1	0.831750
20.283333	1	0.850375
20.300000	1	0.863875
20.316667	1	0.870375
20.333333	1	0.870500
20.350000	1	0.863125
20.366667	1	0.850125
20.383333	1	0.831500
20.400000	1	0.807750
20.416667	1	0.779750
20.433333	1	0.749375
20.450000	1	0.716750
20.466667	1	0.683750
20.483333	1	0.651375
20.500000	1	0.620750
20.516667	1	0.593625
20.533333	1	0.569750
20.550000	1	0.550875
20.566667	1	0.537375
20.583333	1	0.530125
20.600000	1	0.530625
20.616667	1	0.540625
20.633333	1	0.558750
20.650000	1	0.586500
20.666667	1	0.623250
20.683333	1	0.670125
20.700000	1	0.724125
20.716667	1	0.786875
20.733333	1	0.856250
20.750000	1	0.931125
20.766667	1	1.009000
20.783333	1	1.086750
20.800000	1	1.162750
20.816667	1	1.234500
20.833333	1	1.299875
20.850000	1	1.356375
20.866667	1	1.402125
20.883333	1	1.434750
20.900000	1	1.455125
20.916667	1	1.461875
20.933333	1	1.454000
20.950000	1	1.434750
20.966667	1	1.402750
20.983333	1	1.360625
21.000000	1	1.310500
21.016667	1	1.253750
21.033333	1	1.192000
21.050000	1	1.127375
21.066667	1	1.061375
21.083333	1	0.995875
21.100000	1	0.931875
21.116667	1	0.870125
21.133333	1	0.811375
21.150000	1	0.756125
21.166667	1	0.705500
21.183333	1	0.658500
21.200000	1	0.614875
21.216667	1	0.575250
21.233333	1	0.539000
21.250000	1	0.506250
21.266667	1	0.476625
21.283333	1	0.450000
21.300000	1	0.427375
21.316667	1	0.406125
21.333333	1	0.387625
21.350000	1	0.370875
21.366667	1	0.355500
21.383333	1	0.341625
21.400000	1	0.329625
21.416667	1	0.318750
21.433333	1	0.308750
21.450000	1	0.300375
21.466667	1	0.292875
21.483333	1	0.286375
21.500000	1	0.280375
21.516667	1	0.275125
21.533333	1	0.271000
21.550000	1	0.268500
21.566667	1	0.267375
21.583333	1	0.267250
21.600000	1	0.268250
21.616667	1	0.272625
21.633333	1	0.278375
21.650000	1	0.285375
21.666667	1	0.294875
21.683333	1	0.306250
21.700000	1	0.320125
21.716667	1	0.335875
21.733333	1	0.353500
21.750000	1	0.374250
21.766667	1	0.396875
21.783333	1	0.420250
21.800000	1	0.445125
21.816667	1	0.471375
21.833333	1	0.496750
21.850000	1	0.521625
21.866667	1	0.546000
21.883333	1	0.568750
21.900000	1	0.590875
21.916667	1	0.609250
21.933333	1	0.625500
21.950000	1	0.638625
21.966667	1	0.649625
21.983333	1	0.657625
22.000000	1	0.663375
22.016667	1	0.665625
22.033333	1	0.664500
22.050000	1	0.661750
22.066667	1	0.657125
22.083333	1	0.650250
22.100000	1	0.642375
22.116667	1	0.633875
22.133333	1	0.623750
22.150000	1	0.612750
22.166667	1	0.600125
22.183333	1	0.587000
22.200000	1	0.573625
22.216667	1	0.559750
22.233333	1	0.545375
22.250000	1	0.530875
22.266667	1	0.515500
22.283333	1	0.500500
22.300000	1	0.485125
22.316667	1	0.469500
22.333333	1	0.454000
22.350000	1	0.439125
22.366667	1	0.423625
22.383333	1	0.408375
22.400000	1	0.394375
22.416667	1	0.381250
22.433333	1	0.368500
22.450000	1	0.356125
22.466667	1	0.344625
22.483333	1	0.333625
22.500000	1	0.324250
22.516667	1	0.314250
22.533333	1	0.305875
22.550000	1	0.297625
22.566667	1	0.290250
22.583333	1	0.282875
22.600000	1	0.276500
22.616667	1	0.269500
22.633333	1	0.263125
22.650000	1	0.257000
22.666667	1	0.250750
22.683333	1	0.243875
22.700000	1	0.238125
22.716667	1	0.231875
22.733333	1	0.225500
22.750000	1	0.220000
22.766667	1	0.213500
22.783333	1	0.207375
22.800000	1	0.201000
22.816667	1	0.196125
22.833333	1	0.190000
22.850000	1	0.184500
22.866667	1	0.179500
22.883333	1	0.175375
22.900000	1	0.170875
22.916667	1	0.167000
22.933333	1	0.163625
22.950000	1	0.160125
22.966667	1	0.156875
22.983333	1	0.154750
23.000000	1	0.153000
23.016667	1	0.151375
23.033333	1	0.150500
23.050000	1	0.150250
23.066667	1	0.149625
23.083333	1	0.149875
23.100000	1	0.150375
23.116667	1	0.151625
23.133333	1	0.153125
23.150000	1	0.154250
23.166667	1	0.155625
23.183333	1	0.156875
23.200000	1	0.157500
23.216667	1	0.159125
23.233333	1	0.161500
23.250000	1	0.163750
23.266667	1	0.165500
23.283333	1	0.168250
23.300000	1	0.172750
23.316667	1	0.178000
23.333333	1	0.185000
23.350000	1	0.194125
23.366667	1	0.206750
23.383333	1	0.223375
23.400000	1	0.245875
23.416667	1	0.274750
23.433333	1	0.311000
23.450000	1	0.357375
23.466667	1	0.414625
23.483333	1	0.486375
23.500000	1	0.573125
23.516667	1	0.678000
23.533333	1	0.802500
23.550000	1	0.948000
23.566667	1	1.114375
23.583333	1	1.302500
23.600000	1	1.514000
23.616667	1	1.746875
23.633333	1	1.999125
23.650000	1	2.267750
23.666667	1	2.549750
23.683333	1	2.840125
23.700000	1	3.134750
23.716667	1	3.427625
23.733333	1	3.713125
23.750000	1	3.984250
23.766667	1	4.234375
23.783333	1	4.457250
23.800000	1	4.649500
23.816667	1	4.806375
23.833333	1	4.924500
23.850000	1	5.001750
23.866667	1	5.038375
23.883333	1	5.033875
23.900000	1	4.990125
23.916667	1	4.909750
23.933333	1	4.794750
23.950000	1	4.651375
23.966667	1	4.483125
23.983333	1	4.294250
24.000000	1	4.090000
24.016667	1	3.875625
24.033333	1	3.653500
24.050000	1	3.429750
24.066667	1	3.206125
24.083333	1	2.986125
24.100000	1	2.771750
24.116667	1	2.565000
24.133333	1	2.367125
24.150000	1	2.179000
24.166667	1	2.001375
24.183333	1	1.834500
24.200000	1	1.678625
24.216667	1	1.532875
24.233333	1	1.398125
24.250000	1	1.274000
24.266667	1	1.159500
24.283333	1	1.054750
24.300000	1	0.958250
24.316667	1	0.870625
24.333333	1	0.791000
24.350000	1	0.718625
24.366667	1	0.653875
24.383333	1	0.596000
24.400000	1	0.544500
24.416667	1	0.499000
24.433333	1	0.459000
24.450000	1	0.423875
24.466667	1	0.393250
24.483333	1	0.366625
24.500000	1	0.344375
24.516667	1	0.325500
24.533333	1	0.310125
24.550000	1	0.296125
24.566667	1	0.283750
24.583333	1	0.273875
24.600000	1	0.265250
24.616667	1	0.257625
24.633333	1	0.250375
24.650000	1	0.244250
24.666667	1	0.239000
24.683333	1	0.234250
24.700000	1	0.229500
24.716667	1	0.225000
24.733333	1	0.220875
24.750000	1	0.215625
24.766667	1	0.210875
24.783333	1	0.206125
24.800000	1	0.201500
24.816667	1	0.197375
24.833333	1	0.193000
24.850000	1	0.188625
24.866667	1	0.184625
24.883333	1	0.181125
24.900000	1	0.177000
24.916667	1	0.173500
24.933333	1	0.170125
24.950000	1	0.167500
24.966667	1	0.164625
24.983333	1	0.162500
25.000000	1	0.159375
25.016667	1	0.157625
25.033333	1	0.156125
25.050000	1	0.154875
25.066667	1	0.153625
25.083333	1	0.152000
25.100000	1	0.151125
25.116667	1	0.149875
25.133333	1	0.148875
25.150000	1	0.147500
25.166667	1	0.147000
25.183333	1	0.146125
25.200000	1	0.145000
25.216667	1	0.144000
25.233333	1	0.143500
25.250000	1	0.142625
25.266667	1	0.141625
25.283333	1	0.140500
25.300000	1	0.138500
25.316667	1	0.138000
25.333333	1	0.136875
25.350000	1	0.136000
25.366667	1	0.134875
25.383333	1	0.134375
25.400000	1	0.133500
25.416667	1	0.132875
25.433333	1	0.132750
25.450000	1	0.132625
25.466667	1	0.132500
25.483333	1	0.132625
25.500000	1	0.132250
25.516667	1	0.132125
25.533333	1	0.131625
25.550000	1	0.132500
25.566667	1	0.132125
25.583333	1	0.132625
25.600000	1	0.131875
25.616667	1	0.131625
25.633333	1	0.131250
25.650000	1	0.131000
25.666667	1	0.130250
25.683333	1	0.129375
25.700000	1	0.128625
25.716667	1	0.127750
25.733333	1	0.126250
25.750000	1	0.124375
25.766667	1	0.122375
25.783333	1	0.120500
25.800000	1	0.118500
25.816667	1	0.116625
25.833333	1	0.114250
25.850000	1	0.112375
25.866667	1	0.110625
25.883333	1	0.108500
25.900000	1	0.107625
25.916667	1	0.107375
25.933333	1	0.107375
25.950000	1	0.106625
25.966667	1	0.106500
25.983333	1	0.106625
26.000000	1	0.107875
26.016667	1	0.109375
26.033333	1	0.111750
26.050000	1	0.114750
26.066667	1	0.117625
26.083333	1	0.121000
26.100000	1	0.125125
26.116667	1	0.130625
26.133333	1	0.136250
26.150000	1	0.141375
26.166667	1	0.147000
26.183333	1	0.152625
26.200000	1	0.158125
26.216667	1	0.164250
26.233333	1	0.170000
26.250000	1	0.175625
26.266667	1	0.180625
26.283333	1	0.186250
26.300000	1	0.191375
26.316667	1	0.196625
26.333333	1	0.200625
26.350000	1	0.204125
26.366667	1	0.206125
26.383333	1	0.208375
26.400000	1	0.209875
26.416667	1	0.210375
26.433333	1	0.210125
26.450000	1	0.209125
26.466667	1	0.206875
26.483333	1	0.204625
26.500000	1	0.201375
26.516667	1	0.197750
26.533333	1	0.193250
26.550000	1	0.188125
26.566667	1	0.182625
26.583333	1	0.175875
26.600000	1	0.169750
26.616667	1	0.162500
26.633333	1	0.156250
26.650000	1	0.149125
26.666667	1	0.141750
26.683333	1	0.134250
26.700000	1	0.126750
26.716667	1	0.120000
26.733333	1	0.113375
26.750000	1	0.106375
26.766667	1	0.100875
26.783333	1	0.095250
26.800000	1	0.090625
26.816667	1	0.085500
26.833333	1	0.081375
26.850000	1	0.077375
26.866667	1	0.074125
26.883333	1	0.071375
26.900000	1	0.069125
26.916667	1	0.067375
26.933333	1	0.065125
26.950000	1	0.064500
26.966667	1	0.062750
26.983333	1	0.062375
27.000000	1	0.062625
27.016667	1	0.063500
27.033333	1	0.064375
27.050000	1	0.065625
27.066667	1	0.067125
27.083333	1	0.068625
27.100000	1	0.071250
27.116667	1	0.073875
27.133333	1	0.077375
27.150000	1	0.081250
27.166667	1	0.085500
27.183333	1	0.090750
27.200000	1	0.096875
27.216667	1	0.103875
27.233333	1	0.111875
27.250000	1	0.121625
27.266667	1	0.133500
27.283333	1	0.147625
27.300000	1	0.164250
27.316667	1	0.183875
27.333333	1	0.207625
27.350000	1	0.235125
27.366667	1	0.268125
27.383333	1	0.306875
27.400000	1	0.352250
27.416667	1	0.405125
27.433333	1	0.466125
27.450000	1	0.536250
27.466667	1	0.616750
27.483333	1	0.707625
27.500000	1	0.810500
27.516667	1	0.924250
27.533333	1	1.050500
27.550000	1	1.188625
27.566667	1	1.338250
27.583333	1	1.499125
27.600000	1	1.669750
27.616667	1	1.850000
27.633333	1	2.038375
27.650000	1	2.233750
27.666667	1	2.431875
27.683333	1	2.632375
27.700000	1	2.830250
27.716667	1	3.024375
27.733333	1	3.210875
27.750000	1	3.387125
27.766667	1	3.551250
27.783333	1	3.699000
27.800000	1	3.828125
27.816667	1	3.936750
27.833333	1	4.022500
27.850000	1	4.084375
27.866667	1	4.121250
27.883333	1	4.132000
27.900000	1	4.117250
27.916667	1	4.076875
27.933333	1	4.013250
27.950000	1	3.927500
27.966667	1	3.821250
27.983333	1	3.697000
28.000000	1	3.558125
28.016667	1	3.406125
28.033333	1	3.245250
28.050000	1	3.075875
28.066667	1	2.902750
28.083333	1	2.726375
28.100000	1	2.550250
28.116667	1	2.376625
28.133333	1	2.206250
28.150000	1	2.042750
28.166667	1	1.885500
28.183333	1	1.735375
28.200000	1	1.593250
28.216667	1	1.459750
28.233333	1	1.334750
28.250000	1	1.218250
28.266667	1	1.109000
28.283333	1	1.008750
28.300000	1	0.916750
28.316667	1	0.833000
28.333333	1	0.756875
28.350000	1	0.688125
28.366667	1	0.625375
28.383333	1	0.569500
28.400000	1	0.519375
28.416667	1	0.475250
28.433333	1	0.435750
28.450000	1	0.402250
28.466667	1	0.373500
28.483333	1	0.349000
28.500000	1	0.328750
28.516667	1	0.312750
28.533333	1	0.299250
28.550000	1	0.289625
28.566667	1	0.283750
28.583333	1	0.279875
28.600000	1	0.278625
28.616667	1	0.279500
28.633333	1	0.283375
28.650000	1	0.288125
28.666667	1	0.294750
28.683333	1	0.302250
28.700000	1	0.311625
28.716667	1	0.322125
28.733333	1	0.332625
28.750000	1	0.343625
28.766667	1	0.354625
28.783333	1	0.365625
28.800000	1	0.376250
28.816667	1	0.386625
28.833333	1	0.396375
28.850000	1	0.405250
28.866667	1	0.413375
28.883333	1	0.420625
28.900000	1	0.426500
28.916667	1	0.430625
28.933333	1	0.433125
28.950000	1	0.435750
28.966667	1	0.435375
28.983333	1	0.434250
29.000000	1	0.430750
29.016667	1	0.426375
29.033333	1	0.419500
29.050000	1	0.411625
29.066667	1	0.401250
29.083333	1	0.389000
29.100000	1	0.374000
29.116667	1	0.357875
29.133333	1	0.340125
29.150000	1	0.320250
29.166667	1	0.297750
29.183333	1	0.273500
29.200000	1	0.247000
29.216667	1	0.218250
29.233333	1	0.187500
29.250000	1	0.154375
29.266667	1	0.118250
29.283333	1	0.080000
29.300000	1	0.040375
29.316667	1	-0.002250
29.333333	1	-0.047375
29.350000	1	-0.095250
29.366667	1	-0.145250
29.383333	1	-0.196875
29.400000	1	-0.250750
29.416667	1	-0.305625
29.433333	1	-0.362250
29.450000	1	-0.421000
29.466667	1	-0.480875
29.483333	1	-0.540625
29.500000	1	-0.601000
29.516667	1	-0.661250
29.533333	1	-0.720000
29.550000	1	-0.778125
29.566667	1	-0.833625
29.583333	1	-0.887000
29.600000	1	-0.938375
29.616667	1	-0.986625
29.633333	1	-1.031375
29.650000	1	-1.071500
29.666667	1	-1.108250
29.683333	1	-1.140750
29.700000	1	-1.168125
29.716667	1	-1.189750
29.733333	1	-1.206250
29.750000	1	-1.217500
29.766667	1	-1.223125
29.783333	1	-1.224000
29.800000	1	-1.219750
29.816667	1	-1.209875
29.833333	1	-1.195750
29.850000	1	-1.177250
29.866667	1	-1.154375
29.883333	1	-1.128625
29.900000	1	-1.099375
29.916667	1	-1.066500
29.933333	1	-1.031375
29.950000	1	-0.993375
29.966667	1	-0.954625
29.983333	1	-0.913500
30.000000	1	-0.871875
30.016667	1	-0.829500
30.033333	1	-0.786375
30.050000	1	-0.743625
30.066667	1	-0.701250
30.083333	1	-0.660375
30.100000	1	-0.619125
30.116667	1	-0.580000
30.133333	1	-0.541375
30.150000	1	-0.504000
30.166667	1	-0.468875
30.183333	1	-0.434375
30.200000	1	-0.401000
30.216667	1	-0.370125
30.233333	1	-0.340625
30.250000	1	-0.313125
30.266667	1	-0.287500
30.283333	1	-0.263500
30.300000	1	-0.241375
30.316667	1	-0.221125
30.333333	1	-0.201500
30.350000	1	-0.183125
30.366667	1	-0.166500
30.383333	1	-0.150750
30.400000	1	-0.137125
30.416667	1	-0.124500
30.433333	1	-0.112500
30.450000	1	-0.101000
30.466667	1	-0.090625
30.483333	1	-0.081625
30.500000	1	-0.072375
30.516667	1	-0.064000
30.533333	1	-0.056250
30.550000	1	-0.048375
30.566667	1	-0.040000
30.583333	1	-0.032125
30.600000	1	-0.024875
30.616667	1	-0.017875
30.633333	1	-0.011000
30.650000	1	-0.002875
30.666667	1	0.004750
30.683333	1	0.011875
30.700000	1	0.019750
30.716667	1	0.027500
30.733333	1	0.035375
30.750000	1	0.043500
30.766667	1	0.052375
30.783333	1	0.060750
30.800000	1	0.069375
30.816667	1	0.080000
30.833333	1	0.090125
30.850000	1	0.100750
30.866667	1	0.111500
30.883333	1	0.122500
30.900000	1	0.134125
30.916667	1	0.147375
30.933333	1	0.161500
30.950000	1	0.177125
30.966667	1	0.194250
30.983333	1	0.213250
31.000000	1	0.235625
31.016667	1	0.261875
31.033333	1	0.291250
31.050000	1	0.325250
31.066667	1	0.364500
31.083333	1	0.409750
31.100000	1	0.461000
31.116667	1	0.520750
31.133333	1	0.589750
31.150000	1	0.667625
31.166667	1	0.755750
31.183333	1	0.856000
31.200000	1	0.967750
31.216667	1	1.092375
31.233333	1	1.230375
31.250000	1	1.382000
31.266667	1	1.546750
31.283333	1	1.725125
31.300000	1	1.916375
31.316667	1	2.119625
31.333333	1	2.333625
31.350000	1	2.556875
31.366667	1	2.788625
31.383333	1	3.026375
31.400000	1	3.268250
31.416667	1	3.510750
31.433333	1	3.752125
31.450000	1	3.989250
31.466667	1	4.219125
31.483333	1	4.438250
31.500000	1	4.644250
31.516667	1	4.834500
31.533333	1	5.006750
31.550000	1	5.157375
31.566667	1	5.286500
31.583333	1	5.392000
31.600000	1	5.472625
31.616667	1	5.527375
31.633333	1	5.556625
31.650000	1	5.558875
31.666667	1	5.536375
31.683333	1	5.488250
31.700000	1	5.417375
31.716667	1	5.325250
31.733333	1	5.212750
31.750000	1	5.082375
31.766667	1	4.936625
31.783333	1	4.776000
31.800000	1	4.604750
31.816667	1	4.423750
31.833333	1	4.234500
31.850000	1	4.040250
31.866667	1	3.843000
31.883333	1	3.644500
31.900000	1	3.447000
31.916667	1	3.250125
31.933333	1	3.057250
31.950000	1	2.868750
31.966667	1	2.686125
31.983333	1	2.508250
32.000000	1	2.336500
32.016667	1	2.171625
32.033333	1	2.014500
32.050000	1	1.864000
32.066667	1	1.721250
32.083333	1	1.585625
32.100000	1	1.458750
32.116667	1	1.338750
32.133333	1	1.225625
32.150000	1	1.118750
32.166667	1	1.018625
32.183333	1	0.924625
32.200000	1	0.837250
32.216667	1	0.755125
32.233333	1	0.679000
32.250000	1	0.608000
32.266667	1	0.542125
32.283333	1	0.480500
32.300000	1	0.423625
32.316667	1	0.371125
32.333333	1	0.322625
32.350000	1	0.278375
32.366667	1	0.237250
32.383333	1	0.198750
32.400000	1	0.164000
32.416667	1	0.132375
32.433333	1	0.103375
32.450000	1	0.076500
32.466667	1	0.052625
32.483333	1	0.030500
32.500000	1	0.010875
32.516667	1	-0.006875
32.533333	1	-0.023125
32.550000	1	-0.037750
32.566667	1	-0.051125
32.583333	1	-0.063125
32.600000	1	-0.074000
32.616667	1	-0.083500
32.633333	1	-0.092000
32.650000	1	-0.100000
32.666667	1	-0.107125
32.683333	1	-0.113375
32.700000	1	-0.118250
32.716667	1	-0.122750
32.733333	1	-0.126750
32.750000	1	-0.130875
32.766667	1	-0.134625
32.783333	1	-0.137000
32.800000	1	-0.139875
32.816667	1	-0.142375
32.833333	1	-0.144750
32.850000	1	-0.145750
32.866667	1	-0.147125
32.883333	1	-0.148750
32.900000	1	-0.149750
32.916667	1	-0.151000
32.933333	1	-0.151625
32.950000	1	-0.152000
32.966667	1	-0.152125
32.983333	1	-0.152000
33.000000	1	-0.152250
33.016667	1	-0.152750
33.033333	1	-0.152250
33.050000	1	-0.151500
33.066667	1	-0.151125
33.083333	1	-0.150375
33.100000	1	-0.149625
33.116667	1	-0.148500
33.133333	1	-0.147625
33.150000	1	-0.145500
33.166667	1	-0.144125
33.183333	1	-0.143125
33.200000	1	-0.141625
33.216667	1	-0.140125
33.233333	1	-0.138125
33.250000	1	-0.136500
33.266667	1	-0.134875
33.283333	1	-0.133125
33.300000	1	-0.132125
33.316667	1	-0.130375
33.333333	1	-0.127500
33.350000	1	-0.125000
33.366667	1	-0.122875
33.383333	1	-0.121250
33.400000	1	-0.119375
33.416667	1	-0.117250
33.433333	1	-0.114750
33.450000	1	-0.112625
33.466667	1	-0.109625
33.483333	1	-0.106750
33.500000	1	-0.104875
33.516667	1	-0.102375
33.533333	1	-0.100125
33.550000	1	-0.098000
33.566667	1	-0.095375
33.583333	1	-0.092750
33.600000	1	-0.090000
33.616667	1	-0.087750
33.633333	1	-0.085875
33.650000	1	-0.082875
33.666667	1	-0.080625
33.683333	1	-0.078000
33.700000	1	-0.076000
33.716667	1	-0.073625
33.733333	1	-0.071375
33.750000	1	-0.068625
33.766667	1	-0.066375
33.783333	1	-0.063875
33.800000	1	-0.060875
33.816667	1	-0.058125
33.833333	1	-0.055750
33.850000	1	-0.053750
33.866667	1	-0.051625
33.883333	1	-0.049875
33.900000	1	-0.047875
33.916667	1	-0.046375
33.933333	1	-0.044750
33.950000	1	-0.042750
33.966667	1	-0.040875
33.983333	1	-0.039750
34.000000	1	-0.038875
34.016667	1	-0.038250
34.033333	1	-0.037625
34.050000	1	-0.037750
34.066667	1	-0.038125
34.083333	1	-0.038500
34.100000	1	-0.037500
34.116667	1	-0.037250
34.133333	1	-0.037125
34.150000	1	-0.037250
34.166667	1	-0.037750
34.183333	1	-0.038375
34.200000	1	-0.038875
34.216667	1	-0.039250
34.233333	1	-0.039875
34.250000	1	-0.040750
34.266667	1	-0.041375
34.283333	1	-0.042750
34.300000	1	-0.043000
34.316667	1	-0.043750
34.333333	1	-0.043750
34.350000	1	-0.044625
34.366667	1	-0.044750
34.383333	1	-0.044875
34.400000	1	-0.045000
34.416667	1	-0.045500
34.433333	1	-0.045500
34.450000	1	-0.045750
34.466667	1	-0.045750
34.483333	1	-0.045875
34.500000	1	-0.045875
34.516667	1	-0.045375
34.533333	1	-0.044750
34.550000	1	-0.044000
34.566667	1	-0.043625
34.583333	1	-0.043250
34.600000	1	-0.042500
34.616667	1	-0.041750
34.633333	1	-0.040750
34.650000	1	-0.039500
34.666667	1	-0.039250
34.683333	1	-0.038250
34.700000	1	-0.037625
34.716667	1	-0.037250
34.733333	1	-0.036250
34.750000	1	-0.035250
34.766667	1	-0.034375
34.783333	1	-0.033625
34.800000	1	-0.033000
34.816667	1	-0.032750
34.833333	1	-0.031750
34.850000	1	-0.032000
34.866667	1	-0.031625
34.883333	1	-0.031375
34.900000	1	-0.031500
34.916667	1	-0.032375
34.933333	1	-0.032625
34.950000	1	-0.032875
34.966667	1	-0.033875
34.983333	1	-0.034375
35.000000	1	-0.035375
35.016667	1	-0.036875
35.033333	1	-0.038625
35.050000	1	-0.040250
35.066667	1	-0.041500
35.083333	1	-0.044000
35.100000	1	-0.047125
35.116667	1	-0.048875
35.133333	1	-0.051875
35.150000	1	-0.054250
35.166667	1	-0.057500
35.183333	1	-0.060750
35.200000	1	-0.064500
35.216667	1	-0.067625
35.233333	1	-0.071000
35.250000	1	-0.074000
35.266667	1	-0.077750
35.283333	1	-0.080875
35.300000	1	-0.083125
35.316667	1	-0.085125
35.333333	1	-0.087500
35.350000	1	-0.089625
35.366667	1	-0.092000
35.383333	1	-0.094500
35.400000	1	-0.096750
35.416667	1	-0.098000
35.433333	1	-0.098875
35.450000	1	-0.099125
35.466667	1	-0.099875
35.483333	1	-0.100750
35.500000	1	-0.100625
35.516667	1	-0.100125
35.533333	1	-0.099250
35.550000	1	-0.097875
35.566667	1	-0.096625
35.583333	1	-0.094375
35.600000	1	-0.092375
35.616667	1	-0.090625
35.633333	1	-0.088750
35.650000	1	-0.087250
35.666667	1	-0.084875
35.683333	1	-0.081750
35.700000	1	-0.079125
35.716667	1	-0.076375
35.733333	1	-0.074500
35.750000	1	-0.072000
35.766667	1	-0.069000
35.783333	1	-0.066625
35.800000	1	-0.063625
35.816667	1	-0.062250
35.833333	1	-0.060375
35.850000	1	-0.059250
35.866667	1	-0.057500
35.883333	1	-0.056375
35.900000	1	-0.055750
35.916667	1	-0.055125
35.933333	1	-0.054125
35.950000	1	-0.053375
35.966667	1	-0.053250
35.983333	1	-0.053250
36.000000	1	-0.053750
36.016667	1	-0.053750
36.033333	1	-0.054000
36.050000	1	-0.053625
36.066667	1	-0.054000
36.083333	1	-0.054500
36.100000	1	-0.055000
36.116667	1	-0.055125
36.133333	1	-0.055875
36.150000	1	-0.055875
36.166667	1	-0.055875
36.183333	1	-0.055875
36.200000	1	-0.056750
36.216667	1	-0.057000
36.233333	1	-0.056375
36.250000	1	-0.056875
36.266667	1	-0.056375
36.283333	1	-0.055625
36.300000	1	-0.054750
36.316667	1	-0.054750
36.333333	1	-0.053875
36.350000	1	-0.053500
36.366667	1	-0.052625
36.383333	1	-0.051500
36.400000	1	-0.050500
36.416667	1	-0.049625
36.433333	1	-0.049250
36.450000	1	-0.048375
36.466667	1	-0.047375
36.483333	1	-0.046625
36.500000	1	-0.045000
36.516667	1	-0.043750
36.533333	1	-0.042875
36.550000	1	-0.041875
36.566667	1	-0.041500
36.583333	1	-0.041125
36.600000	1	-0.041500
36.616667	1	-0.041375
36.633333	1	-0.042125
36.650000	1	-0.042750
36.666667	1	-0.042750
36.683333	1	-0.043500
36.700000	1	-0.044625
36.716667	1	-0.046250
36.733333	1	-0.047500
36.750000	1	-0.049375
36.766667	1	-0.051625
36.783333	1	-0.053125
36.800000	1	-0.055125
36.816667	1	-0.057875
36.833333	1	-0.059875
36.850000	1	-0.061750
36.866667	1	-0.063375
36.883333	1	-0.065750
36.900000	1	-0.068250
36.916667	1	-0.070375
36.933333	1	-0.072875
36.950000	1	-0.075000
36.966667	1	-0.077625
36.983333	1	-0.080000
37.000000	1	-0.082250
37.016667	1	-0.084500
37.033333	1	-0.086625
37.050000	1	-0.089500
37.066667	1	-0.091625
37.083333	1	-0.092875
37.100000	1	-0.094375
37.116667	1	-0.095625
37.133333	1	-0.097250
37.150000	1	-0.098000
37.166667	1	-0.099500
37.183333	1	-0.100500
37.200000	1	-0.101125
37.216667	1	-0.101375
37.233333	1	-0.102250
37.250000	1	-0.102750
37.266667	1	-0.103500
37.283333	1	-0.103250
37.300000	1	-0.103500
37.316667	1	-0.103250
37.333333	1	-0.103250
37.350000	1	-0.102750
37.366667	1	-0.102250
37.383333	1	-0.102125
37.400000	1	-0.102375
37.416667	1	-0.102250
37.433333	1	-0.102250
37.450000	1	-0.101875
37.466667	1	-0.101875
37.483333	1	-0.102000
37.500000	1	-0.101875
37.516667	1	-0.102250
37.533333	1	-0.101500
37.550000	1	-0.102000
37.566667	1	-0.102125
37.583333	1	-0.102750
37.600000	1	-0.103375
37.616667	1	-0.104500
37.633333	1	-0.104250
37.650000	1	-0.105250
37.666667	1	-0.106250
37.683333	1	-0.106875
37.700000	1	-0.107375
37.716667	1	-0.108125
37.733333	1	-0.109625
37.750000	1	-0.110875
37.766667	1	-0.111875
37.783333	1	-0.113125
37.800000	1	-0.114500
37.816667	1	-0.115500
37.833333	1	-0.116500
37.850000	1	-0.117375
37.866667	1	-0.118375
37.883333	1	-0.118375
37.900000	1	-0.119125
37.916667	1	-0.120375
37.933333	1	-0.121375
37.950000	1	-0.122000
37.966667	1	-0.123000
37.983333	1	-0.124250
38.000000	1	-0.125750
38.016667	1	-0.126250
38.033333	1	-0.127875
38.050000	1	-0.129500
38.066667	1	-0.130625
38.083333	1	-0.132125
38.100000	1	-0.133250
38.116667	1	-0.134750
38.133333	1	-0.136375
38.150000	1	-0.138250
38.166667	1	-0.140875
38.183333	1	-0.143000
38.200000	1	-0.145750
38.216667	1	-0.148000
38.233333	1	-0.150000
38.250000	1	-0.152375
38.266667	1	-0.154500
38.283333	1	-0.155875
38.300000	1	-0.157500
38.316667	1	-0.159250
38.333333	1	-0.160625
38.350000	1	-0.163000
38.366667	1	-0.164500
38.383333	1	-0.165750
38.400000	1	-0.167125
38.416667	1	-0.168000
38.433333	1	-0.168875
38.450000	1	-0.169625
38.466667	1	-0.169375
38.483333	1	-0.169125
38.500000	1	-0.169875
38.516667	1	-0.169375
38.533333	1	-0.168625
38.550000	1	-0.167875
38.566667	1	-0.167125
38.583333	1	-0.166125
38.600000	1	-0.165125
38.616667	1	-0.163500
38.633333	1	-0.161750
38.650000	1	-0.160625
38.666667	1	-0.159500
38.683333	1	-0.157250
38.700000	1	-0.155875
38.716667	1	-0.154000
38.733333	1	-0.152000
38.750000	1	-0.149875
38.766667	1	-0.148500
38.783333	1	-0.146625
38.800000	1	-0.144125
38.816667	1	-0.142625
38.833333	1	-0.140250
38.850000	1	-0.138250
38.866667	1	-0.136375
38.883333	1	-0.133750
38.900000	1	-0.131750
38.916667	1	-0.130000
38.933333	1	-0.127875
38.950000	1	-0.126250
38.966667	1	-0.124875
38.983333	1	-0.123750
39.000000	1	-0.123125
39.016667	1	-0.122500
39.033333	1	-0.121375
39.050000	1	-0.120500
39.066667	1	-0.119875
39.083333	1	-0.119500
39.100000	1	-0.119250
39.116667	1	-0.119250
39.133333	1	-0.118625
39.150000	1	-0.118875
39.166667	1	-0.119500
39.183333	1	-0.119500
39.200000	1	-0.120250
39.216667	1	-0.120750
39.233333	1	-0.121000
39.250000	1	-0.121500
39.266667	1	-0.122250
39.283333	1	-0.122500
39.300000	1	-0.123125
39.316667	1	-0.123750
39.333333	1	-0.124125
39.350000	1	-0.124375
39.366667	1	-0.125250
39.383333	1	-0.126500
39.400000	1	-0.127000
39.416667	1	-0.127375
39.433333	1	-0.128000
39.450000	1	-0.128375
39.466667	1	-0.129250
39.483333	1	-0.130125
39.500000	1	-0.130500
39.516667	1	-0.130500
39.533333	1	-0.131250
39.550000	1	-0.132000
39.566667	1	-0.133625
39.583333	1	-0.133875
39.600000	1	-0.134500
39.616667	1	-0.135125
39.633333	1	-0.135500
39.650000	1	-0.135875
39.666667	1	-0.135875
39.683333	1	-0.137000
39.700000	1	-0.137125
39.716667	1	-0.137625
39.733333	1	-0.138125
39.750000	1	-0.139250
39.766667	1	-0.140000
39.783333	1	-0.140875
39.800000	1	-0.141000
39.816667	1	-0.141125
39.833333	1	-0.141500
39.850000	1	-0.141375
39.866667	1	-0.141625
39.883333	1	-0.142000
39.900000	1	-0.142000
39.916667	1	-0.142625
39.933333	1	-0.143250
39.950000	1	-0.143250
39.966667	1	-0.143875
39.983333	1	-0.144125
40.000000	1	-0.144250
