URL	chrom://7040-86g6c92/XVault/Ultimate_3000/20/20240517_CMO_FP23_FP25_MarkusDeplate.seq/383.smp/RI_1.channel/RI_1.chm
Channel	RI_1

Injection Information:
Data Vault	XVault
Sequence	20240517_CMO_FP23_FP25_MarkusDeplate
Name	FP25_21_s2
Number	75
Position	BG3
Comment	
Processing Method	
Instrument Method	run_25B_method
Type	Unknown
Status	Finished
Inject Time	29.05.2024 21:14:56 +02:00
Volume (µl)	20.0000
Dilution Factor	1.0000
Weight	1.0000

Chromatogram Data Information:
Time Min. (min)	0.000000
Time Max. (min)	40.000000
Data Points	2401
Detector	RI
Generating Data System	Chromeleon 7.3.2.11814
Exporting Data System	Chromeleon 7.3.2.0
Operator	Instrument Controller
Signal Quantity	Refractive 
Signal Unit	µRIU
Signal Min.	-0.846000
Signal Max.	63.931875
Channel	RI_1
Driver Name	RID520Driver.dll
Channel Type	Evaluation
Min. Step (s)	1
Max. Step (s)	1
Average Step (s)	1

Signal Parameter Information:
Signal Info	

Chromatogram Data:
Time (min)	Step (s)	Value (µRIU)
0.000000	n.a.	0.054125
0.016667	1	0.054375
0.033333	1	0.055375
0.050000	1	0.056750
0.066667	1	0.058125
0.083333	1	0.059000
0.100000	1	0.060000
0.116667	1	0.061125
0.133333	1	0.062125
0.150000	1	0.062625
0.166667	1	0.063000
0.183333	1	0.063000
0.200000	1	0.063375
0.216667	1	0.063250
0.233333	1	0.064125
0.250000	1	0.063875
0.266667	1	0.063500
0.283333	1	0.063500
0.300000	1	0.063625
0.316667	1	0.063250
0.333333	1	0.062500
0.350000	1	0.061875
0.366667	1	0.060625
0.383333	1	0.058625
0.400000	1	0.057375
0.416667	1	0.057125
0.433333	1	0.057000
0.450000	1	0.058500
0.466667	1	0.060000
0.483333	1	0.061500
0.500000	1	0.061500
0.516667	1	0.061875
0.533333	1	0.060625
0.550000	1	0.059500
0.566667	1	0.058000
0.583333	1	0.055750
0.600000	1	0.052500
0.616667	1	0.050125
0.633333	1	0.047250
0.650000	1	0.045500
0.666667	1	0.044125
0.683333	1	0.043000
0.700000	1	0.042125
0.716667	1	0.041500
0.733333	1	0.040750
0.750000	1	0.040625
0.766667	1	0.040000
0.783333	1	0.039250
0.800000	1	0.039750
0.816667	1	0.039000
0.833333	1	0.039000
0.850000	1	0.039125
0.866667	1	0.039625
0.883333	1	0.039500
0.900000	1	0.039750
0.916667	1	0.039750
0.933333	1	0.039875
0.950000	1	0.039625
0.966667	1	0.039750
0.983333	1	0.040375
1.000000	1	0.041500
1.016667	1	0.042250
1.033333	1	0.043625
1.050000	1	0.044875
1.066667	1	0.045000
1.083333	1	0.045375
1.100000	1	0.046250
1.116667	1	0.046625
1.133333	1	0.046625
1.150000	1	0.046625
1.166667	1	0.046750
1.183333	1	0.047375
1.200000	1	0.046875
1.216667	1	0.046875
1.233333	1	0.047000
1.250000	1	0.046875
1.266667	1	0.046750
1.283333	1	0.046375
1.300000	1	0.045125
1.316667	1	0.045375
1.333333	1	0.044625
1.350000	1	0.043625
1.366667	1	0.042000
1.383333	1	0.040875
1.400000	1	0.040125
1.416667	1	0.039000
1.433333	1	0.038500
1.450000	1	0.038250
1.466667	1	0.036750
1.483333	1	0.036000
1.500000	1	0.035625
1.516667	1	0.034500
1.533333	1	0.033375
1.550000	1	0.032625
1.566667	1	0.032375
1.583333	1	0.032375
1.600000	1	0.032375
1.616667	1	0.032875
1.633333	1	0.032375
1.650000	1	0.032250
1.666667	1	0.032500
1.683333	1	0.032500
1.700000	1	0.032750
1.716667	1	0.033125
1.733333	1	0.033750
1.750000	1	0.033750
1.766667	1	0.033375
1.783333	1	0.033500
1.800000	1	0.034500
1.816667	1	0.035750
1.833333	1	0.037125
1.850000	1	0.037750
1.866667	1	0.039125
1.883333	1	0.039375
1.900000	1	0.040625
1.916667	1	0.040875
1.933333	1	0.041750
1.950000	1	0.042250
1.966667	1	0.043000
1.983333	1	0.043375
2.000000	1	0.043375
2.016667	1	0.043875
2.033333	1	0.043500
2.050000	1	0.044250
2.066667	1	0.043875
2.083333	1	0.043875
2.100000	1	0.043875
2.116667	1	0.043750
2.133333	1	0.042875
2.150000	1	0.042875
2.166667	1	0.042125
2.183333	1	0.040625
2.200000	1	0.039375
2.216667	1	0.038625
2.233333	1	0.038375
2.250000	1	0.037750
2.266667	1	0.036875
2.283333	1	0.035625
2.300000	1	0.034625
2.316667	1	0.033625
2.333333	1	0.033125
2.350000	1	0.032250
2.366667	1	0.031125
2.383333	1	0.030125
2.400000	1	0.029500
2.416667	1	0.028750
2.433333	1	0.027875
2.450000	1	0.027750
2.466667	1	0.028000
2.483333	1	0.028000
2.500000	1	0.028000
2.516667	1	0.027750
2.533333	1	0.028250
2.550000	1	0.027875
2.566667	1	0.029125
2.583333	1	0.029625
2.600000	1	0.030625
2.616667	1	0.031000
2.633333	1	0.031625
2.650000	1	0.032625
2.666667	1	0.033625
2.683333	1	0.034750
2.700000	1	0.035875
2.716667	1	0.036500
2.733333	1	0.037375
2.750000	1	0.038375
2.766667	1	0.038375
2.783333	1	0.039125
2.800000	1	0.039625
2.816667	1	0.040875
2.833333	1	0.042250
2.850000	1	0.042875
2.866667	1	0.043750
2.883333	1	0.044250
2.900000	1	0.045125
2.916667	1	0.046000
2.933333	1	0.046000
2.950000	1	0.046875
2.966667	1	0.047250
2.983333	1	0.047750
3.000000	1	0.048250
3.016667	1	0.049000
3.033333	1	0.049750
3.050000	1	0.049500
3.066667	1	0.050250
3.083333	1	0.050750
3.100000	1	0.051750
3.116667	1	0.052500
3.133333	1	0.052750
3.150000	1	0.053875
3.166667	1	0.055500
3.183333	1	0.056000
3.200000	1	0.056625
3.216667	1	0.058250
3.233333	1	0.060125
3.250000	1	0.061750
3.266667	1	0.063125
3.283333	1	0.064250
3.300000	1	0.065750
3.316667	1	0.067375
3.333333	1	0.069375
3.350000	1	0.071000
3.366667	1	0.072625
3.383333	1	0.074375
3.400000	1	0.075625
3.416667	1	0.077125
3.433333	1	0.077750
3.450000	1	0.079000
3.466667	1	0.080375
3.483333	1	0.081500
3.500000	1	0.082000
3.516667	1	0.082875
3.533333	1	0.083375
3.550000	1	0.083750
3.566667	1	0.083750
3.583333	1	0.083750
3.600000	1	0.083750
3.616667	1	0.083875
3.633333	1	0.083750
3.650000	1	0.083250
3.666667	1	0.083375
3.683333	1	0.083125
3.700000	1	0.081500
3.716667	1	0.080875
3.733333	1	0.079125
3.750000	1	0.078125
3.766667	1	0.077500
3.783333	1	0.076000
3.800000	1	0.074875
3.816667	1	0.073375
3.833333	1	0.072750
3.850000	1	0.071000
3.866667	1	0.069125
3.883333	1	0.067625
3.900000	1	0.067000
3.916667	1	0.065375
3.933333	1	0.064125
3.950000	1	0.063500
3.966667	1	0.062375
3.983333	1	0.061375
4.000000	1	0.060250
4.016667	1	0.059000
4.033333	1	0.058375
4.050000	1	0.057750
4.066667	1	0.057000
4.083333	1	0.056250
4.100000	1	0.056000
4.116667	1	0.055750
4.133333	1	0.055000
4.150000	1	0.054625
4.166667	1	0.053875
4.183333	1	0.053875
4.200000	1	0.053875
4.216667	1	0.054375
4.233333	1	0.054375
4.250000	1	0.054875
4.266667	1	0.054750
4.283333	1	0.054875
4.300000	1	0.055125
4.316667	1	0.055375
4.333333	1	0.055875
4.350000	1	0.056250
4.366667	1	0.056125
4.383333	1	0.057125
4.400000	1	0.058250
4.416667	1	0.058000
4.433333	1	0.058250
4.450000	1	0.058375
4.466667	1	0.059375
4.483333	1	0.059750
4.500000	1	0.059875
4.516667	1	0.060250
4.533333	1	0.060500
4.550000	1	0.060500
4.566667	1	0.061000
4.583333	1	0.061875
4.600000	1	0.062625
4.616667	1	0.063250
4.633333	1	0.064000
4.650000	1	0.064000
4.666667	1	0.064875
4.683333	1	0.065500
4.700000	1	0.066250
4.716667	1	0.067375
4.733333	1	0.068250
4.750000	1	0.069625
4.766667	1	0.071000
4.783333	1	0.072125
4.800000	1	0.072875
4.816667	1	0.074750
4.833333	1	0.076625
4.850000	1	0.078375
4.866667	1	0.080000
4.883333	1	0.081750
4.900000	1	0.083500
4.916667	1	0.085250
4.933333	1	0.087625
4.950000	1	0.089625
4.966667	1	0.092750
4.983333	1	0.095625
5.000000	1	0.098375
5.016667	1	0.101500
5.033333	1	0.103750
5.050000	1	0.106375
5.066667	1	0.109250
5.083333	1	0.112375
5.100000	1	0.115250
5.116667	1	0.118250
5.133333	1	0.121125
5.150000	1	0.124250
5.166667	1	0.127625
5.183333	1	0.131125
5.200000	1	0.135375
5.216667	1	0.139250
5.233333	1	0.143750
5.250000	1	0.147625
5.266667	1	0.151875
5.283333	1	0.156125
5.300000	1	0.160250
5.316667	1	0.164500
5.333333	1	0.169375
5.350000	1	0.173875
5.366667	1	0.178500
5.383333	1	0.183250
5.400000	1	0.188125
5.416667	1	0.193000
5.433333	1	0.197125
5.450000	1	0.201875
5.466667	1	0.207000
5.483333	1	0.212250
5.500000	1	0.217250
5.516667	1	0.222125
5.533333	1	0.226500
5.550000	1	0.231250
5.566667	1	0.235875
5.583333	1	0.240750
5.600000	1	0.245000
5.616667	1	0.249250
5.633333	1	0.253750
5.650000	1	0.258000
5.666667	1	0.261750
5.683333	1	0.265750
5.700000	1	0.269375
5.716667	1	0.273625
5.733333	1	0.277125
5.750000	1	0.280750
5.766667	1	0.283750
5.783333	1	0.286875
5.800000	1	0.289250
5.816667	1	0.291375
5.833333	1	0.293250
5.850000	1	0.295000
5.866667	1	0.296625
5.883333	1	0.297375
5.900000	1	0.298250
5.916667	1	0.298000
5.933333	1	0.297625
5.950000	1	0.297500
5.966667	1	0.297000
5.983333	1	0.296375
6.000000	1	0.295250
6.016667	1	0.293875
6.033333	1	0.292750
6.050000	1	0.291250
6.066667	1	0.288125
6.083333	1	0.285125
6.100000	1	0.282625
6.116667	1	0.279500
6.133333	1	0.276000
6.150000	1	0.272000
6.166667	1	0.267875
6.183333	1	0.263875
6.200000	1	0.259625
6.216667	1	0.255875
6.233333	1	0.251500
6.250000	1	0.246500
6.266667	1	0.241375
6.283333	1	0.236125
6.300000	1	0.230750
6.316667	1	0.226500
6.333333	1	0.221125
6.350000	1	0.216500
6.366667	1	0.211125
6.383333	1	0.206125
6.400000	1	0.201125
6.416667	1	0.197000
6.433333	1	0.192250
6.450000	1	0.188000
6.466667	1	0.183000
6.483333	1	0.179000
6.500000	1	0.174750
6.516667	1	0.171000
6.533333	1	0.167125
6.550000	1	0.163125
6.566667	1	0.159750
6.583333	1	0.156500
6.600000	1	0.153000
6.616667	1	0.150000
6.633333	1	0.147000
6.650000	1	0.143750
6.666667	1	0.141625
6.683333	1	0.139125
6.700000	1	0.137375
6.716667	1	0.135000
6.733333	1	0.133375
6.750000	1	0.131125
6.766667	1	0.129125
6.783333	1	0.127625
6.800000	1	0.126000
6.816667	1	0.124125
6.833333	1	0.123125
6.850000	1	0.122000
6.866667	1	0.121000
6.883333	1	0.120750
6.900000	1	0.120000
6.916667	1	0.119375
6.933333	1	0.119625
6.950000	1	0.119250
6.966667	1	0.119500
6.983333	1	0.119750
7.000000	1	0.119750
7.016667	1	0.119750
7.033333	1	0.120000
7.050000	1	0.120500
7.066667	1	0.120375
7.083333	1	0.121375
7.100000	1	0.122500
7.116667	1	0.123625
7.133333	1	0.125625
7.150000	1	0.127125
7.166667	1	0.129000
7.183333	1	0.130250
7.200000	1	0.132250
7.216667	1	0.133750
7.233333	1	0.136250
7.250000	1	0.138375
7.266667	1	0.140625
7.283333	1	0.143125
7.300000	1	0.146000
7.316667	1	0.148750
7.333333	1	0.151125
7.350000	1	0.153625
7.366667	1	0.156875
7.383333	1	0.159125
7.400000	1	0.162000
7.416667	1	0.164750
7.433333	1	0.168125
7.450000	1	0.170250
7.466667	1	0.172375
7.483333	1	0.175125
7.500000	1	0.177750
7.516667	1	0.179875
7.533333	1	0.181875
7.550000	1	0.183500
7.566667	1	0.185500
7.583333	1	0.187000
7.600000	1	0.188125
7.616667	1	0.189125
7.633333	1	0.189750
7.650000	1	0.190375
7.666667	1	0.191500
7.683333	1	0.192250
7.700000	1	0.192250
7.716667	1	0.192750
7.733333	1	0.192375
7.750000	1	0.191875
7.766667	1	0.192125
7.783333	1	0.191500
7.800000	1	0.190500
7.816667	1	0.189375
7.833333	1	0.187750
7.850000	1	0.186500
7.866667	1	0.184375
7.883333	1	0.182375
7.900000	1	0.180125
7.916667	1	0.177500
7.933333	1	0.175000
7.950000	1	0.172250
7.966667	1	0.169250
7.983333	1	0.166250
8.000000	1	0.163000
8.016667	1	0.159125
8.033333	1	0.155875
8.050000	1	0.152625
8.066667	1	0.149000
8.083333	1	0.144875
8.100000	1	0.141625
8.116667	1	0.138000
8.133333	1	0.134375
8.150000	1	0.130125
8.166667	1	0.126500
8.183333	1	0.122500
8.200000	1	0.118625
8.216667	1	0.115125
8.233333	1	0.111625
8.250000	1	0.108625
8.266667	1	0.105500
8.283333	1	0.101375
8.300000	1	0.098000
8.316667	1	0.095000
8.333333	1	0.092500
8.350000	1	0.089125
8.366667	1	0.086625
8.383333	1	0.083625
8.400000	1	0.081000
8.416667	1	0.079000
8.433333	1	0.076625
8.450000	1	0.074250
8.466667	1	0.071500
8.483333	1	0.069375
8.500000	1	0.067625
8.516667	1	0.065875
8.533333	1	0.063875
8.550000	1	0.063000
8.566667	1	0.061625
8.583333	1	0.059875
8.600000	1	0.058750
8.616667	1	0.057750
8.633333	1	0.056500
8.650000	1	0.055750
8.666667	1	0.054500
8.683333	1	0.054125
8.700000	1	0.053250
8.716667	1	0.053000
8.733333	1	0.053375
8.750000	1	0.053000
8.766667	1	0.053625
8.783333	1	0.054250
8.800000	1	0.055125
8.816667	1	0.055875
8.833333	1	0.056250
8.850000	1	0.058125
8.866667	1	0.059875
8.883333	1	0.061375
8.900000	1	0.063375
8.916667	1	0.065875
8.933333	1	0.068875
8.950000	1	0.072000
8.966667	1	0.075500
8.983333	1	0.078875
9.000000	1	0.081875
9.016667	1	0.084500
9.033333	1	0.088000
9.050000	1	0.091125
9.066667	1	0.094500
9.083333	1	0.097875
9.100000	1	0.101000
9.116667	1	0.104125
9.133333	1	0.107250
9.150000	1	0.110375
9.166667	1	0.113000
9.183333	1	0.115500
9.200000	1	0.117000
9.216667	1	0.118500
9.233333	1	0.120625
9.250000	1	0.122375
9.266667	1	0.123125
9.283333	1	0.124125
9.300000	1	0.124750
9.316667	1	0.125000
9.333333	1	0.125375
9.350000	1	0.125125
9.366667	1	0.124000
9.383333	1	0.122875
9.400000	1	0.122250
9.416667	1	0.121250
9.433333	1	0.120750
9.450000	1	0.119250
9.466667	1	0.117375
9.483333	1	0.116125
9.500000	1	0.114875
9.516667	1	0.113000
9.533333	1	0.112125
9.550000	1	0.111500
9.566667	1	0.110500
9.583333	1	0.108750
9.600000	1	0.107000
9.616667	1	0.105875
9.633333	1	0.105000
9.650000	1	0.103625
9.666667	1	0.103375
9.683333	1	0.103250
9.700000	1	0.102750
9.716667	1	0.101750
9.733333	1	0.101375
9.750000	1	0.100125
9.766667	1	0.099250
9.783333	1	0.098875
9.800000	1	0.097750
9.816667	1	0.096625
9.833333	1	0.095875
9.850000	1	0.094375
9.866667	1	0.093750
9.883333	1	0.093000
9.900000	1	0.091750
9.916667	1	0.091250
9.933333	1	0.090250
9.950000	1	0.089000
9.966667	1	0.088000
9.983333	1	0.086250
10.000000	1	0.085375
10.016667	1	0.084625
10.033333	1	0.084625
10.050000	1	0.085000
10.066667	1	0.086375
10.083333	1	0.089000
10.100000	1	0.092125
10.116667	1	0.096000
10.133333	1	0.100625
10.150000	1	0.106625
10.166667	1	0.113875
10.183333	1	0.122125
10.200000	1	0.132500
10.216667	1	0.143625
10.233333	1	0.156875
10.250000	1	0.172125
10.266667	1	0.190125
10.283333	1	0.210375
10.300000	1	0.233000
10.316667	1	0.258000
10.333333	1	0.287000
10.350000	1	0.317625
10.366667	1	0.351625
10.383333	1	0.388250
10.400000	1	0.424125
10.416667	1	0.454625
10.433333	1	0.473000
10.450000	1	0.468500
10.466667	1	0.434500
10.483333	1	0.371500
10.500000	1	0.293625
10.516667	1	0.239250
10.533333	1	0.267625
10.550000	1	0.461625
10.566667	1	0.910500
10.583333	1	1.705500
10.600000	1	2.926500
10.616667	1	4.637250
10.633333	1	6.879750
10.650000	1	9.676375
10.666667	1	13.032750
10.683333	1	16.931000
10.700000	1	21.328250
10.716667	1	26.144875
10.733333	1	31.253625
10.750000	1	36.462875
10.766667	1	41.496625
10.783333	1	46.005750
10.800000	1	49.573625
10.816667	1	51.784750
10.833333	1	52.334875
10.850000	1	51.130000
10.866667	1	48.328625
10.883333	1	44.300750
10.900000	1	39.528500
10.916667	1	34.482000
10.933333	1	29.537875
10.950000	1	24.948500
10.966667	1	20.857375
10.983333	1	17.317625
11.000000	1	14.329375
11.016667	1	11.853750
11.033333	1	9.836250
11.050000	1	8.211750
11.066667	1	6.912250
11.083333	1	5.876375
11.100000	1	5.051875
11.116667	1	4.393625
11.133333	1	3.865000
11.150000	1	3.438125
11.166667	1	3.089500
11.183333	1	2.803000
11.200000	1	2.564125
11.216667	1	2.363375
11.233333	1	2.191750
11.250000	1	2.045625
11.266667	1	1.919375
11.283333	1	1.809750
11.300000	1	1.714125
11.316667	1	1.630250
11.333333	1	1.555875
11.350000	1	1.490875
11.366667	1	1.432750
11.383333	1	1.381625
11.400000	1	1.336375
11.416667	1	1.296125
11.433333	1	1.259875
11.450000	1	1.227625
11.466667	1	1.199250
11.483333	1	1.174000
11.500000	1	1.151750
11.516667	1	1.132250
11.533333	1	1.114875
11.550000	1	1.100000
11.566667	1	1.087875
11.583333	1	1.077000
11.600000	1	1.068250
11.616667	1	1.060625
11.633333	1	1.054000
11.650000	1	1.049250
11.666667	1	1.045750
11.683333	1	1.042500
11.700000	1	1.040625
11.716667	1	1.039625
11.733333	1	1.039500
11.750000	1	1.040625
11.766667	1	1.043000
11.783333	1	1.045750
11.800000	1	1.049250
11.816667	1	1.053250
11.833333	1	1.057750
11.850000	1	1.061500
11.866667	1	1.065375
11.883333	1	1.069000
11.900000	1	1.073000
11.916667	1	1.077250
11.933333	1	1.081000
11.950000	1	1.085250
11.966667	1	1.089875
11.983333	1	1.095125
12.000000	1	1.100500
12.016667	1	1.105875
12.033333	1	1.111750
12.050000	1	1.118875
12.066667	1	1.126000
12.083333	1	1.133625
12.100000	1	1.142625
12.116667	1	1.151250
12.133333	1	1.160875
12.150000	1	1.171500
12.166667	1	1.183750
12.183333	1	1.196625
12.200000	1	1.211875
12.216667	1	1.228875
12.233333	1	1.248500
12.250000	1	1.270500
12.266667	1	1.294500
12.283333	1	1.320125
12.300000	1	1.349500
12.316667	1	1.381250
12.333333	1	1.417375
12.350000	1	1.457250
12.366667	1	1.504875
12.383333	1	1.564250
12.400000	1	1.640625
12.416667	1	1.740250
12.433333	1	1.870875
12.450000	1	2.040750
12.466667	1	2.257625
12.483333	1	2.529625
12.500000	1	2.860875
12.516667	1	3.253875
12.533333	1	3.708375
12.550000	1	4.218625
12.566667	1	4.775625
12.583333	1	5.368000
12.600000	1	5.979375
12.616667	1	6.595750
12.633333	1	7.202625
12.650000	1	7.788125
12.666667	1	8.343000
12.683333	1	8.863000
12.700000	1	9.346000
12.716667	1	9.795125
12.733333	1	10.213875
12.750000	1	10.605125
12.766667	1	10.969875
12.783333	1	11.298125
12.800000	1	11.567625
12.816667	1	11.740875
12.833333	1	11.769625
12.850000	1	11.605125
12.866667	1	11.221875
12.883333	1	10.630375
12.900000	1	9.879750
12.916667	1	9.041625
12.933333	1	8.187750
12.950000	1	7.367625
12.966667	1	6.611375
12.983333	1	5.929875
13.000000	1	5.325375
13.016667	1	4.797000
13.033333	1	4.338875
13.050000	1	3.946875
13.066667	1	3.614125
13.083333	1	3.334125
13.100000	1	3.098625
13.116667	1	2.901625
13.133333	1	2.735750
13.150000	1	2.595500
13.166667	1	2.477000
13.183333	1	2.374500
13.200000	1	2.285750
13.216667	1	2.207375
13.233333	1	2.137375
13.250000	1	2.075125
13.266667	1	2.018250
13.283333	1	1.966250
13.300000	1	1.918875
13.316667	1	1.874625
13.333333	1	1.833875
13.350000	1	1.796500
13.366667	1	1.761375
13.383333	1	1.729375
13.400000	1	1.700500
13.416667	1	1.674375
13.433333	1	1.651125
13.450000	1	1.630750
13.466667	1	1.613375
13.483333	1	1.599625
13.500000	1	1.588125
13.516667	1	1.579500
13.533333	1	1.572875
13.550000	1	1.567375
13.566667	1	1.563000
13.583333	1	1.557500
13.600000	1	1.551375
13.616667	1	1.543500
13.633333	1	1.532875
13.650000	1	1.520000
13.666667	1	1.504875
13.683333	1	1.487500
13.700000	1	1.467375
13.716667	1	1.445750
13.733333	1	1.423000
13.750000	1	1.400250
13.766667	1	1.377250
13.783333	1	1.354250
13.800000	1	1.331625
13.816667	1	1.310125
13.833333	1	1.289125
13.850000	1	1.268750
13.866667	1	1.250000
13.883333	1	1.232375
13.900000	1	1.215625
13.916667	1	1.200000
13.933333	1	1.185125
13.950000	1	1.172000
13.966667	1	1.159375
13.983333	1	1.146750
14.000000	1	1.135000
14.016667	1	1.123500
14.033333	1	1.112500
14.050000	1	1.102625
14.066667	1	1.092875
14.083333	1	1.083625
14.100000	1	1.075125
14.116667	1	1.067250
14.133333	1	1.059375
14.150000	1	1.052750
14.166667	1	1.046500
14.183333	1	1.041125
14.200000	1	1.036375
14.216667	1	1.032125
14.233333	1	1.030000
14.250000	1	1.027875
14.266667	1	1.027375
14.283333	1	1.027750
14.300000	1	1.030000
14.316667	1	1.033000
14.333333	1	1.037375
14.350000	1	1.043625
14.366667	1	1.051875
14.383333	1	1.062625
14.400000	1	1.077125
14.416667	1	1.095750
14.433333	1	1.121625
14.450000	1	1.159125
14.466667	1	1.216000
14.483333	1	1.304000
14.500000	1	1.439625
14.516667	1	1.646125
14.533333	1	1.955875
14.550000	1	2.411375
14.566667	1	3.064375
14.583333	1	3.976750
14.600000	1	5.217750
14.616667	1	6.864375
14.633333	1	8.990375
14.650000	1	11.662000
14.666667	1	14.923000
14.683333	1	18.784000
14.700000	1	23.213375
14.716667	1	28.131250
14.733333	1	33.409625
14.750000	1	38.876875
14.766667	1	44.315250
14.783333	1	49.486000
14.800000	1	54.151875
14.816667	1	58.091000
14.833333	1	61.114750
14.850000	1	63.085375
14.866667	1	63.931875
14.883333	1	63.653125
14.900000	1	62.314625
14.916667	1	60.040375
14.933333	1	56.997875
14.950000	1	53.374625
14.966667	1	49.364625
14.983333	1	45.152375
15.000000	1	40.895500
15.016667	1	36.719625
15.033333	1	32.724875
15.050000	1	28.980875
15.066667	1	25.533375
15.083333	1	22.403500
15.100000	1	19.596875
15.116667	1	17.103000
15.133333	1	14.902125
15.150000	1	12.969625
15.166667	1	11.282125
15.183333	1	9.814000
15.200000	1	8.539875
15.216667	1	7.437250
15.233333	1	6.487375
15.250000	1	5.671875
15.266667	1	4.976500
15.283333	1	4.387125
15.300000	1	3.891875
15.316667	1	3.480125
15.333333	1	3.141875
15.350000	1	2.866750
15.366667	1	2.645750
15.383333	1	2.471250
15.400000	1	2.335500
15.416667	1	2.229750
15.433333	1	2.148000
15.450000	1	2.083875
15.466667	1	2.031750
15.483333	1	1.986625
15.500000	1	1.945625
15.516667	1	1.905375
15.533333	1	1.864250
15.550000	1	1.821375
15.566667	1	1.777250
15.583333	1	1.731750
15.600000	1	1.686000
15.616667	1	1.639875
15.633333	1	1.595000
15.650000	1	1.552125
15.666667	1	1.511000
15.683333	1	1.472875
15.700000	1	1.437000
15.716667	1	1.403375
15.733333	1	1.372250
15.750000	1	1.342625
15.766667	1	1.315500
15.783333	1	1.290000
15.800000	1	1.266000
15.816667	1	1.242125
15.833333	1	1.219750
15.850000	1	1.199000
15.866667	1	1.180625
15.883333	1	1.163250
15.900000	1	1.148500
15.916667	1	1.134875
15.933333	1	1.122375
15.950000	1	1.112875
15.966667	1	1.105000
15.983333	1	1.098750
16.000000	1	1.093625
16.016667	1	1.090250
16.033333	1	1.087500
16.050000	1	1.086000
16.066667	1	1.085250
16.083333	1	1.085750
16.100000	1	1.085625
16.116667	1	1.085375
16.133333	1	1.085750
16.150000	1	1.084625
16.166667	1	1.083750
16.183333	1	1.082125
16.200000	1	1.080375
16.216667	1	1.077250
16.233333	1	1.073000
16.250000	1	1.068500
16.266667	1	1.063000
16.283333	1	1.057125
16.300000	1	1.051500
16.316667	1	1.044625
16.333333	1	1.039625
16.350000	1	1.034875
16.366667	1	1.030875
16.383333	1	1.028250
16.400000	1	1.026750
16.416667	1	1.026500
16.433333	1	1.027125
16.450000	1	1.028625
16.466667	1	1.031625
16.483333	1	1.035250
16.500000	1	1.038875
16.516667	1	1.041625
16.533333	1	1.044125
16.550000	1	1.045875
16.566667	1	1.045875
16.583333	1	1.045250
16.600000	1	1.042375
16.616667	1	1.039250
16.633333	1	1.035125
16.650000	1	1.031375
16.666667	1	1.027500
16.683333	1	1.024250
16.700000	1	1.021500
16.716667	1	1.020625
16.733333	1	1.022625
16.750000	1	1.026250
16.766667	1	1.031625
16.783333	1	1.037875
16.800000	1	1.045500
16.816667	1	1.054375
16.833333	1	1.062875
16.850000	1	1.071500
16.866667	1	1.078625
16.883333	1	1.085625
16.900000	1	1.091000
16.916667	1	1.094500
16.933333	1	1.096750
16.950000	1	1.097250
16.966667	1	1.096625
16.983333	1	1.095375
17.000000	1	1.093625
17.016667	1	1.091500
17.033333	1	1.088125
17.050000	1	1.086125
17.066667	1	1.084125
17.083333	1	1.082500
17.100000	1	1.081000
17.116667	1	1.079625
17.133333	1	1.079375
17.150000	1	1.080375
17.166667	1	1.081375
17.183333	1	1.083375
17.200000	1	1.086375
17.216667	1	1.089000
17.233333	1	1.092000
17.250000	1	1.095625
17.266667	1	1.099000
17.283333	1	1.103125
17.300000	1	1.107000
17.316667	1	1.111625
17.333333	1	1.116250
17.350000	1	1.120875
17.366667	1	1.125625
17.383333	1	1.129500
17.400000	1	1.133375
17.416667	1	1.136250
17.433333	1	1.139250
17.450000	1	1.140500
17.466667	1	1.140625
17.483333	1	1.139250
17.500000	1	1.136875
17.516667	1	1.132375
17.533333	1	1.126750
17.550000	1	1.119625
17.566667	1	1.112000
17.583333	1	1.102875
17.600000	1	1.092875
17.616667	1	1.081875
17.633333	1	1.070000
17.650000	1	1.058000
17.666667	1	1.045500
17.683333	1	1.032750
17.700000	1	1.020250
17.716667	1	1.007125
17.733333	1	0.994625
17.750000	1	0.982000
17.766667	1	0.970625
17.783333	1	0.959625
17.800000	1	0.948625
17.816667	1	0.938875
17.833333	1	0.929625
17.850000	1	0.920375
17.866667	1	0.911625
17.883333	1	0.904125
17.900000	1	0.896250
17.916667	1	0.888875
17.933333	1	0.881125
17.950000	1	0.874500
17.966667	1	0.867000
17.983333	1	0.859750
18.000000	1	0.852625
18.016667	1	0.845000
18.033333	1	0.837625
18.050000	1	0.830375
18.066667	1	0.822750
18.083333	1	0.816500
18.100000	1	0.810500
18.116667	1	0.804875
18.133333	1	0.799500
18.150000	1	0.795375
18.166667	1	0.792125
18.183333	1	0.789250
18.200000	1	0.787500
18.216667	1	0.785750
18.233333	1	0.784125
18.250000	1	0.782875
18.266667	1	0.782125
18.283333	1	0.781500
18.300000	1	0.780750
18.316667	1	0.780375
18.333333	1	0.780875
18.350000	1	0.781125
18.366667	1	0.782750
18.383333	1	0.784625
18.400000	1	0.787000
18.416667	1	0.790000
18.433333	1	0.794125
18.450000	1	0.799875
18.466667	1	0.807250
18.483333	1	0.815750
18.500000	1	0.825500
18.516667	1	0.836750
18.533333	1	0.849750
18.550000	1	0.863750
18.566667	1	0.878000
18.583333	1	0.894000
18.600000	1	0.910500
18.616667	1	0.927875
18.633333	1	0.945625
18.650000	1	0.963125
18.666667	1	0.980375
18.683333	1	0.997875
18.700000	1	1.014000
18.716667	1	1.030500
18.733333	1	1.044875
18.750000	1	1.058375
18.766667	1	1.070250
18.783333	1	1.081125
18.800000	1	1.090000
18.816667	1	1.097125
18.833333	1	1.101375
18.850000	1	1.103375
18.866667	1	1.103375
18.883333	1	1.099625
18.900000	1	1.092375
18.916667	1	1.082000
18.933333	1	1.068500
18.950000	1	1.053125
18.966667	1	1.035625
18.983333	1	1.015750
19.000000	1	0.994250
19.016667	1	0.971500
19.033333	1	0.947375
19.050000	1	0.922500
19.066667	1	0.898375
19.083333	1	0.874500
19.100000	1	0.852125
19.116667	1	0.832125
19.133333	1	0.816000
19.150000	1	0.803375
19.166667	1	0.795500
19.183333	1	0.793750
19.200000	1	0.798875
19.216667	1	0.811250
19.233333	1	0.833500
19.250000	1	0.865500
19.266667	1	0.907875
19.283333	1	0.960375
19.300000	1	1.024125
19.316667	1	1.099250
19.333333	1	1.184125
19.350000	1	1.278250
19.366667	1	1.379375
19.383333	1	1.485250
19.400000	1	1.593750
19.416667	1	1.701250
19.433333	1	1.804750
19.450000	1	1.901500
19.466667	1	1.988625
19.483333	1	2.063250
19.500000	1	2.123375
19.516667	1	2.167500
19.533333	1	2.194625
19.550000	1	2.205625
19.566667	1	2.199750
19.583333	1	2.179000
19.600000	1	2.145000
19.616667	1	2.098875
19.633333	1	2.041875
19.650000	1	1.977000
19.666667	1	1.906125
19.683333	1	1.830875
19.700000	1	1.753375
19.716667	1	1.675125
19.733333	1	1.597125
19.750000	1	1.520625
19.766667	1	1.446125
19.783333	1	1.374500
19.800000	1	1.306000
19.816667	1	1.240625
19.833333	1	1.179000
19.850000	1	1.122000
19.866667	1	1.069375
19.883333	1	1.020375
19.900000	1	0.977250
19.916667	1	0.940250
19.933333	1	0.909625
19.950000	1	0.885500
19.966667	1	0.869500
19.983333	1	0.862000
20.000000	1	0.864500
20.016667	1	0.877250
20.033333	1	0.902375
20.050000	1	0.940125
20.066667	1	0.991000
20.083333	1	1.055375
20.100000	1	1.132750
20.116667	1	1.223125
20.133333	1	1.324375
20.150000	1	1.435125
20.166667	1	1.552375
20.183333	1	1.673375
20.200000	1	1.794375
20.216667	1	1.912125
20.233333	1	2.021625
20.250000	1	2.118875
20.266667	1	2.201750
20.283333	1	2.267250
20.300000	1	2.312625
20.316667	1	2.335750
20.333333	1	2.338250
20.350000	1	2.320125
20.366667	1	2.281625
20.383333	1	2.225125
20.400000	1	2.153375
20.416667	1	2.069500
20.433333	1	1.977000
20.450000	1	1.878375
20.466667	1	1.777875
20.483333	1	1.678250
20.500000	1	1.582500
20.516667	1	1.492625
20.533333	1	1.411625
20.550000	1	1.340000
20.566667	1	1.279750
20.583333	1	1.232250
20.600000	1	1.199750
20.616667	1	1.181375
20.633333	1	1.179125
20.650000	1	1.192750
20.666667	1	1.221750
20.683333	1	1.265750
20.700000	1	1.323625
20.716667	1	1.394000
20.733333	1	1.474625
20.750000	1	1.562625
20.766667	1	1.656000
20.783333	1	1.750375
20.800000	1	1.842750
20.816667	1	1.929000
20.833333	1	2.006625
20.850000	1	2.071250
20.866667	1	2.120250
20.883333	1	2.153000
20.900000	1	2.168500
20.916667	1	2.165750
20.933333	1	2.145625
20.950000	1	2.108750
20.966667	1	2.057125
20.983333	1	1.992000
21.000000	1	1.916625
21.016667	1	1.833250
21.033333	1	1.744125
21.050000	1	1.652375
21.066667	1	1.559375
21.083333	1	1.467750
21.100000	1	1.378750
21.116667	1	1.292750
21.133333	1	1.212000
21.150000	1	1.135875
21.166667	1	1.065000
21.183333	1	1.000000
21.200000	1	0.940625
21.216667	1	0.886375
21.233333	1	0.836875
21.250000	1	0.793250
21.266667	1	0.753500
21.283333	1	0.716875
21.300000	1	0.684875
21.316667	1	0.656375
21.333333	1	0.631250
21.350000	1	0.608750
21.366667	1	0.588375
21.383333	1	0.570000
21.400000	1	0.554250
21.416667	1	0.539750
21.433333	1	0.527125
21.450000	1	0.515875
21.466667	1	0.506000
21.483333	1	0.497625
21.500000	1	0.489875
21.516667	1	0.484125
21.533333	1	0.480875
21.550000	1	0.478875
21.566667	1	0.478000
21.583333	1	0.479500
21.600000	1	0.483125
21.616667	1	0.488750
21.633333	1	0.496750
21.650000	1	0.507750
21.666667	1	0.520250
21.683333	1	0.536750
21.700000	1	0.555375
21.716667	1	0.577125
21.733333	1	0.601000
21.750000	1	0.628000
21.766667	1	0.656375
21.783333	1	0.686625
21.800000	1	0.717500
21.816667	1	0.748625
21.833333	1	0.780000
21.850000	1	0.810500
21.866667	1	0.839875
21.883333	1	0.867250
21.900000	1	0.891750
21.916667	1	0.912750
21.933333	1	0.930750
21.950000	1	0.944500
21.966667	1	0.954875
21.983333	1	0.961250
22.000000	1	0.962875
22.016667	1	0.962125
22.033333	1	0.956500
22.050000	1	0.948375
22.066667	1	0.937125
22.083333	1	0.924250
22.100000	1	0.909000
22.116667	1	0.891875
22.133333	1	0.874500
22.150000	1	0.855750
22.166667	1	0.835875
22.183333	1	0.815000
22.200000	1	0.794625
22.216667	1	0.773750
22.233333	1	0.752500
22.250000	1	0.731125
22.266667	1	0.709375
22.283333	1	0.688625
22.300000	1	0.667875
22.316667	1	0.647500
22.333333	1	0.627375
22.350000	1	0.607250
22.366667	1	0.588375
22.383333	1	0.569625
22.400000	1	0.552125
22.416667	1	0.534750
22.433333	1	0.518250
22.450000	1	0.503500
22.466667	1	0.489750
22.483333	1	0.476625
22.500000	1	0.465000
22.516667	1	0.454000
22.533333	1	0.444000
22.550000	1	0.433625
22.566667	1	0.425000
22.583333	1	0.416250
22.600000	1	0.409000
22.616667	1	0.401625
22.633333	1	0.394750
22.650000	1	0.388250
22.666667	1	0.382750
22.683333	1	0.377250
22.700000	1	0.371875
22.716667	1	0.367625
22.733333	1	0.363375
22.750000	1	0.359750
22.766667	1	0.355250
22.783333	1	0.351750
22.800000	1	0.347750
22.816667	1	0.344000
22.833333	1	0.340875
22.850000	1	0.338125
22.866667	1	0.335750
22.883333	1	0.334250
22.900000	1	0.332875
22.916667	1	0.331250
22.933333	1	0.330250
22.950000	1	0.329125
22.966667	1	0.329375
22.983333	1	0.330125
23.000000	1	0.330625
23.016667	1	0.331500
23.033333	1	0.332750
23.050000	1	0.334125
23.066667	1	0.336250
23.083333	1	0.338500
23.100000	1	0.340875
23.116667	1	0.343750
23.133333	1	0.346500
23.150000	1	0.349125
23.166667	1	0.351750
23.183333	1	0.354000
23.200000	1	0.356375
23.216667	1	0.358625
23.233333	1	0.361500
23.250000	1	0.364875
23.266667	1	0.369250
23.283333	1	0.373500
23.300000	1	0.378750
23.316667	1	0.385250
23.333333	1	0.393875
23.350000	1	0.405625
23.366667	1	0.421000
23.383333	1	0.440875
23.400000	1	0.466375
23.416667	1	0.500625
23.433333	1	0.544250
23.450000	1	0.599250
23.466667	1	0.667500
23.483333	1	0.750625
23.500000	1	0.851375
23.516667	1	0.971125
23.533333	1	1.112500
23.550000	1	1.277375
23.566667	1	1.465125
23.583333	1	1.677125
23.600000	1	1.912625
23.616667	1	2.170875
23.633333	1	2.449000
23.650000	1	2.742500
23.666667	1	3.049750
23.683333	1	3.363750
23.700000	1	3.679375
23.716667	1	3.990125
23.733333	1	4.290125
23.750000	1	4.572500
23.766667	1	4.829875
23.783333	1	5.055500
23.800000	1	5.246250
23.816667	1	5.396500
23.833333	1	5.504000
23.850000	1	5.566875
23.866667	1	5.585375
23.883333	1	5.559375
23.900000	1	5.492000
23.916667	1	5.386000
23.933333	1	5.244375
23.950000	1	5.072750
23.966667	1	4.875375
23.983333	1	4.657750
24.000000	1	4.425000
24.016667	1	4.182750
24.033333	1	3.935875
24.050000	1	3.687625
24.066667	1	3.442500
24.083333	1	3.202125
24.100000	1	2.969750
24.116667	1	2.747375
24.133333	1	2.536375
24.150000	1	2.336750
24.166667	1	2.149625
24.183333	1	1.975750
24.200000	1	1.815000
24.216667	1	1.665875
24.233333	1	1.529625
24.250000	1	1.404625
24.266667	1	1.291500
24.283333	1	1.188000
24.300000	1	1.094500
24.316667	1	1.010625
24.333333	1	0.934625
24.350000	1	0.866625
24.366667	1	0.806125
24.383333	1	0.752625
24.400000	1	0.706125
24.416667	1	0.665375
24.433333	1	0.630125
24.450000	1	0.600000
24.466667	1	0.572875
24.483333	1	0.550625
24.500000	1	0.531625
24.516667	1	0.515750
24.533333	1	0.502500
24.550000	1	0.491125
24.566667	1	0.481500
24.583333	1	0.472875
24.600000	1	0.465375
24.616667	1	0.459000
24.633333	1	0.453750
24.650000	1	0.449000
24.666667	1	0.444750
24.683333	1	0.439625
24.700000	1	0.435125
24.716667	1	0.430000
24.733333	1	0.425750
24.750000	1	0.421500
24.766667	1	0.417250
24.783333	1	0.412750
24.800000	1	0.408750
24.816667	1	0.404375
24.833333	1	0.399625
24.850000	1	0.395125
24.866667	1	0.390375
24.883333	1	0.386250
24.900000	1	0.381875
24.916667	1	0.378375
24.933333	1	0.374875
24.950000	1	0.371250
24.966667	1	0.368125
24.983333	1	0.365000
25.000000	1	0.361500
25.016667	1	0.358375
25.033333	1	0.355375
25.050000	1	0.352375
25.066667	1	0.349500
25.083333	1	0.347000
25.100000	1	0.344000
25.116667	1	0.341625
25.133333	1	0.339000
25.150000	1	0.337000
25.166667	1	0.334750
25.183333	1	0.332500
25.200000	1	0.330750
25.216667	1	0.328750
25.233333	1	0.326500
25.250000	1	0.325125
25.266667	1	0.323625
25.283333	1	0.321750
25.300000	1	0.320375
25.316667	1	0.319500
25.333333	1	0.318000
25.350000	1	0.316750
25.366667	1	0.315625
25.383333	1	0.315250
25.400000	1	0.314625
25.416667	1	0.314750
25.433333	1	0.315500
25.450000	1	0.316125
25.466667	1	0.316875
25.483333	1	0.317625
25.500000	1	0.319375
25.516667	1	0.320875
25.533333	1	0.322500
25.550000	1	0.324000
25.566667	1	0.325125
25.583333	1	0.326375
25.600000	1	0.328500
25.616667	1	0.330000
25.633333	1	0.331250
25.650000	1	0.332750
25.666667	1	0.333625
25.683333	1	0.335500
25.700000	1	0.336625
25.716667	1	0.337625
25.733333	1	0.337750
25.750000	1	0.337625
25.766667	1	0.337000
25.783333	1	0.336875
25.800000	1	0.337125
25.816667	1	0.337250
25.833333	1	0.336625
25.850000	1	0.336000
25.866667	1	0.335250
25.883333	1	0.335000
25.900000	1	0.334500
25.916667	1	0.334000
25.933333	1	0.333375
25.950000	1	0.333875
25.966667	1	0.334250
25.983333	1	0.334875
26.000000	1	0.336000
26.016667	1	0.337250
26.033333	1	0.339125
26.050000	1	0.341625
26.066667	1	0.344750
26.083333	1	0.347500
26.100000	1	0.350875
26.116667	1	0.354375
26.133333	1	0.357500
26.150000	1	0.362000
26.166667	1	0.366000
26.183333	1	0.369875
26.200000	1	0.374125
26.216667	1	0.378375
26.233333	1	0.382000
26.250000	1	0.386125
26.266667	1	0.389375
26.283333	1	0.392625
26.300000	1	0.395875
26.316667	1	0.398125
26.333333	1	0.400125
26.350000	1	0.401625
26.366667	1	0.402250
26.383333	1	0.402750
26.400000	1	0.402375
26.416667	1	0.402125
26.433333	1	0.401125
26.450000	1	0.399875
26.466667	1	0.398250
26.483333	1	0.395375
26.500000	1	0.392125
26.516667	1	0.389000
26.533333	1	0.385500
26.550000	1	0.381375
26.566667	1	0.377375
26.583333	1	0.372625
26.600000	1	0.367250
26.616667	1	0.362000
26.633333	1	0.356500
26.650000	1	0.351750
26.666667	1	0.347000
26.683333	1	0.342125
26.700000	1	0.338000
26.716667	1	0.332375
26.733333	1	0.327625
26.750000	1	0.322500
26.766667	1	0.318750
26.783333	1	0.314625
26.800000	1	0.310750
26.816667	1	0.307000
26.833333	1	0.303500
26.850000	1	0.300750
26.866667	1	0.298125
26.883333	1	0.296000
26.900000	1	0.294000
26.916667	1	0.291750
26.933333	1	0.289750
26.950000	1	0.288250
26.966667	1	0.287000
26.983333	1	0.286375
27.000000	1	0.285500
27.016667	1	0.286000
27.033333	1	0.286000
27.050000	1	0.286250
27.066667	1	0.286750
27.083333	1	0.288125
27.100000	1	0.290125
27.116667	1	0.292375
27.133333	1	0.294875
27.150000	1	0.297250
27.166667	1	0.300375
27.183333	1	0.305500
27.200000	1	0.311125
27.216667	1	0.318500
27.233333	1	0.327000
27.250000	1	0.337875
27.266667	1	0.351000
27.283333	1	0.366875
27.300000	1	0.386250
27.316667	1	0.409250
27.333333	1	0.437625
27.350000	1	0.470875
27.366667	1	0.510625
27.383333	1	0.556375
27.400000	1	0.611250
27.416667	1	0.674125
27.433333	1	0.748000
27.450000	1	0.831750
27.466667	1	0.927750
27.483333	1	1.036750
27.500000	1	1.158500
27.516667	1	1.293375
27.533333	1	1.441500
27.550000	1	1.603750
27.566667	1	1.779625
27.583333	1	1.968375
27.600000	1	2.168125
27.616667	1	2.378625
27.633333	1	2.597500
27.650000	1	2.822875
27.666667	1	3.052625
27.683333	1	3.284000
27.700000	1	3.513625
27.716667	1	3.737000
27.733333	1	3.952750
27.750000	1	4.155875
27.766667	1	4.344000
27.783333	1	4.513125
27.800000	1	4.660875
27.816667	1	4.785250
27.833333	1	4.882750
27.850000	1	4.952875
27.866667	1	4.993500
27.883333	1	5.005125
27.900000	1	4.986250
27.916667	1	4.939375
27.933333	1	4.864000
27.950000	1	4.763125
27.966667	1	4.639000
27.983333	1	4.494000
28.000000	1	4.332875
28.016667	1	4.155625
28.033333	1	3.967875
28.050000	1	3.770625
28.066667	1	3.569000
28.083333	1	3.364625
28.100000	1	3.160375
28.116667	1	2.958750
28.133333	1	2.761875
28.150000	1	2.570875
28.166667	1	2.387125
28.183333	1	2.212000
28.200000	1	2.046375
28.216667	1	1.890375
28.233333	1	1.744625
28.250000	1	1.608000
28.266667	1	1.481500
28.283333	1	1.363750
28.300000	1	1.255625
28.316667	1	1.157000
28.333333	1	1.066250
28.350000	1	0.984625
28.366667	1	0.909625
28.383333	1	0.843000
28.400000	1	0.782000
28.416667	1	0.728250
28.433333	1	0.679500
28.450000	1	0.635875
28.466667	1	0.598375
28.483333	1	0.564875
28.500000	1	0.535625
28.516667	1	0.511125
28.533333	1	0.489750
28.550000	1	0.471875
28.566667	1	0.457625
28.583333	1	0.446000
28.600000	1	0.437500
28.616667	1	0.430625
28.633333	1	0.427375
28.650000	1	0.425000
28.666667	1	0.424375
28.683333	1	0.425625
28.700000	1	0.427875
28.716667	1	0.431000
28.733333	1	0.435000
28.750000	1	0.439625
28.766667	1	0.445125
28.783333	1	0.451000
28.800000	1	0.457125
28.816667	1	0.463375
28.833333	1	0.469250
28.850000	1	0.475125
28.866667	1	0.481250
28.883333	1	0.486375
28.900000	1	0.490750
28.916667	1	0.495375
28.933333	1	0.500000
28.950000	1	0.503125
28.966667	1	0.505250
28.983333	1	0.507250
29.000000	1	0.507500
29.016667	1	0.507125
29.033333	1	0.504875
29.050000	1	0.502500
29.066667	1	0.498875
29.083333	1	0.493125
29.100000	1	0.486125
29.116667	1	0.476625
29.133333	1	0.465875
29.150000	1	0.454000
29.166667	1	0.439750
29.183333	1	0.423375
29.200000	1	0.404875
29.216667	1	0.384125
29.233333	1	0.360875
29.250000	1	0.336125
29.266667	1	0.308875
29.283333	1	0.279250
29.300000	1	0.246375
29.316667	1	0.212000
29.333333	1	0.173875
29.350000	1	0.133500
29.366667	1	0.092000
29.383333	1	0.047875
29.400000	1	0.001250
29.416667	1	-0.046125
29.433333	1	-0.095000
29.450000	1	-0.145750
29.466667	1	-0.198125
29.483333	1	-0.250875
29.500000	1	-0.303500
29.516667	1	-0.356625
29.533333	1	-0.408625
29.550000	1	-0.459250
29.566667	1	-0.508750
29.583333	1	-0.556125
29.600000	1	-0.600625
29.616667	1	-0.643000
29.633333	1	-0.682250
29.650000	1	-0.718000
29.666667	1	-0.749875
29.683333	1	-0.777500
29.700000	1	-0.800375
29.716667	1	-0.819375
29.733333	1	-0.832250
29.750000	1	-0.841375
29.766667	1	-0.846000
29.783333	1	-0.845625
29.800000	1	-0.840625
29.816667	1	-0.831625
29.833333	1	-0.819000
29.850000	1	-0.801750
29.866667	1	-0.781500
29.883333	1	-0.757375
29.900000	1	-0.732375
29.916667	1	-0.703625
29.933333	1	-0.672750
29.950000	1	-0.640750
29.966667	1	-0.606875
29.983333	1	-0.571750
30.000000	1	-0.536375
30.016667	1	-0.501000
30.033333	1	-0.465250
30.050000	1	-0.429625
30.066667	1	-0.393500
30.083333	1	-0.358500
30.100000	1	-0.324000
30.116667	1	-0.290750
30.133333	1	-0.258250
30.150000	1	-0.227125
30.166667	1	-0.197125
30.183333	1	-0.168750
30.200000	1	-0.141375
30.216667	1	-0.115625
30.233333	1	-0.091000
30.250000	1	-0.067500
30.266667	1	-0.045000
30.283333	1	-0.023625
30.300000	1	-0.004375
30.316667	1	0.014000
30.333333	1	0.031375
30.350000	1	0.047625
30.366667	1	0.062750
30.383333	1	0.077625
30.400000	1	0.091375
30.416667	1	0.104375
30.433333	1	0.116500
30.450000	1	0.128125
30.466667	1	0.138000
30.483333	1	0.148125
30.500000	1	0.157625
30.516667	1	0.166125
30.533333	1	0.175000
30.550000	1	0.183500
30.566667	1	0.190875
30.583333	1	0.198750
30.600000	1	0.206625
30.616667	1	0.214625
30.633333	1	0.222250
30.650000	1	0.229625
30.666667	1	0.237000
30.683333	1	0.244000
30.700000	1	0.252125
30.716667	1	0.259125
30.733333	1	0.266875
30.750000	1	0.274500
30.766667	1	0.282625
30.783333	1	0.290625
30.800000	1	0.299000
30.816667	1	0.307250
30.833333	1	0.316000
30.850000	1	0.325125
30.866667	1	0.335000
30.883333	1	0.345500
30.900000	1	0.356750
30.916667	1	0.368875
30.933333	1	0.382375
30.950000	1	0.397875
30.966667	1	0.415125
30.983333	1	0.434750
31.000000	1	0.457000
31.016667	1	0.481875
31.033333	1	0.510875
31.050000	1	0.544500
31.066667	1	0.583875
31.083333	1	0.628375
31.100000	1	0.679000
31.116667	1	0.737625
31.133333	1	0.803125
31.150000	1	0.878375
31.166667	1	0.963125
31.183333	1	1.058875
31.200000	1	1.165875
31.216667	1	1.283625
31.233333	1	1.414125
31.250000	1	1.556250
31.266667	1	1.710375
31.283333	1	1.876125
31.300000	1	2.052875
31.316667	1	2.239500
31.333333	1	2.436000
31.350000	1	2.639875
31.366667	1	2.850625
31.383333	1	3.065875
31.400000	1	3.283875
31.416667	1	3.501375
31.433333	1	3.716250
31.450000	1	3.925625
31.466667	1	4.127500
31.483333	1	4.318750
31.500000	1	4.498000
31.516667	1	4.661375
31.533333	1	4.807875
31.550000	1	4.934875
31.566667	1	5.041000
31.583333	1	5.125250
31.600000	1	5.186875
31.616667	1	5.224750
31.633333	1	5.239125
31.650000	1	5.230125
31.666667	1	5.198750
31.683333	1	5.146875
31.700000	1	5.073625
31.716667	1	4.980875
31.733333	1	4.871500
31.750000	1	4.746500
31.766667	1	4.608000
31.783333	1	4.459375
31.800000	1	4.300375
31.816667	1	4.133625
31.833333	1	3.959500
31.850000	1	3.782250
31.866667	1	3.603000
31.883333	1	3.423625
31.900000	1	3.245375
31.916667	1	3.068875
31.933333	1	2.896375
31.950000	1	2.727375
31.966667	1	2.563000
31.983333	1	2.404250
32.000000	1	2.251500
32.016667	1	2.105000
32.033333	1	1.964875
32.050000	1	1.831500
32.066667	1	1.705500
32.083333	1	1.585875
32.100000	1	1.472750
32.116667	1	1.366250
32.133333	1	1.266875
32.150000	1	1.173125
32.166667	1	1.084750
32.183333	1	1.002125
32.200000	1	0.925250
32.216667	1	0.852750
32.233333	1	0.785500
32.250000	1	0.723625
32.266667	1	0.665375
32.283333	1	0.611750
32.300000	1	0.561375
32.316667	1	0.515250
32.333333	1	0.473125
32.350000	1	0.433625
32.366667	1	0.397250
32.383333	1	0.364125
32.400000	1	0.332875
32.416667	1	0.304625
32.433333	1	0.278500
32.450000	1	0.254625
32.466667	1	0.232875
32.483333	1	0.213500
32.500000	1	0.195125
32.516667	1	0.178625
32.533333	1	0.163500
32.550000	1	0.151000
32.566667	1	0.138375
32.583333	1	0.127875
32.600000	1	0.117625
32.616667	1	0.108875
32.633333	1	0.100000
32.650000	1	0.092500
32.666667	1	0.085875
32.683333	1	0.080375
32.700000	1	0.075500
32.716667	1	0.070500
32.733333	1	0.066375
32.750000	1	0.063125
32.766667	1	0.060250
32.783333	1	0.057625
32.800000	1	0.056125
32.816667	1	0.054250
32.833333	1	0.053250
32.850000	1	0.051375
32.866667	1	0.050875
32.883333	1	0.050625
32.900000	1	0.049750
32.916667	1	0.049375
32.933333	1	0.049500
32.950000	1	0.049750
32.966667	1	0.049000
32.983333	1	0.049250
33.000000	1	0.049250
33.016667	1	0.049375
33.033333	1	0.049625
33.050000	1	0.049375
33.066667	1	0.049375
33.083333	1	0.049375
33.100000	1	0.049500
33.116667	1	0.049375
33.133333	1	0.050125
33.150000	1	0.050250
33.166667	1	0.049625
33.183333	1	0.049000
33.200000	1	0.049125
33.216667	1	0.049125
33.233333	1	0.049000
33.250000	1	0.049125
33.266667	1	0.049250
33.283333	1	0.049250
33.300000	1	0.049125
33.316667	1	0.049500
33.333333	1	0.049375
33.350000	1	0.050250
33.366667	1	0.050875
33.383333	1	0.051625
33.400000	1	0.053000
33.416667	1	0.053875
33.433333	1	0.055500
33.450000	1	0.056500
33.466667	1	0.058125
33.483333	1	0.059500
33.500000	1	0.061250
33.516667	1	0.063125
33.533333	1	0.065250
33.550000	1	0.067375
33.566667	1	0.070250
33.583333	1	0.071875
33.600000	1	0.074625
33.616667	1	0.077875
33.633333	1	0.081250
33.650000	1	0.084750
33.666667	1	0.087500
33.683333	1	0.090250
33.700000	1	0.093625
33.716667	1	0.096375
33.733333	1	0.099500
33.750000	1	0.102875
33.766667	1	0.106125
33.783333	1	0.109250
33.800000	1	0.112250
33.816667	1	0.115500
33.833333	1	0.118500
33.850000	1	0.121750
33.866667	1	0.124250
33.883333	1	0.127000
33.900000	1	0.129750
33.916667	1	0.132500
33.933333	1	0.134250
33.950000	1	0.136500
33.966667	1	0.138000
33.983333	1	0.140000
34.000000	1	0.141125
34.016667	1	0.141750
34.033333	1	0.142500
34.050000	1	0.143000
34.066667	1	0.143375
34.083333	1	0.143000
34.100000	1	0.143875
34.116667	1	0.144000
34.133333	1	0.143625
34.150000	1	0.142125
34.166667	1	0.141125
34.183333	1	0.139250
34.200000	1	0.138500
34.216667	1	0.136625
34.233333	1	0.134750
34.250000	1	0.132625
34.266667	1	0.130375
34.283333	1	0.128750
34.300000	1	0.126875
34.316667	1	0.124375
34.333333	1	0.122000
34.350000	1	0.120375
34.366667	1	0.118625
34.383333	1	0.116625
34.400000	1	0.114875
34.416667	1	0.112750
34.433333	1	0.111375
34.450000	1	0.109750
34.466667	1	0.108250
34.483333	1	0.107375
34.500000	1	0.106875
34.516667	1	0.106125
34.533333	1	0.105375
34.550000	1	0.104375
34.566667	1	0.104000
34.583333	1	0.104000
34.600000	1	0.103750
34.616667	1	0.103125
34.633333	1	0.103625
34.650000	1	0.103000
34.666667	1	0.103125
34.683333	1	0.103375
34.700000	1	0.103250
34.716667	1	0.103500
34.733333	1	0.104000
34.750000	1	0.103750
34.766667	1	0.103625
34.783333	1	0.103750
34.800000	1	0.104750
34.816667	1	0.105250
34.833333	1	0.106250
34.850000	1	0.107250
34.866667	1	0.108250
34.883333	1	0.108875
34.900000	1	0.110250
34.916667	1	0.111000
34.933333	1	0.111750
34.950000	1	0.112625
34.966667	1	0.113750
34.983333	1	0.114750
35.000000	1	0.115375
35.016667	1	0.116250
35.033333	1	0.117375
35.050000	1	0.118375
35.066667	1	0.119000
35.083333	1	0.119875
35.100000	1	0.121000
35.116667	1	0.121750
35.133333	1	0.123250
35.150000	1	0.123750
35.166667	1	0.125000
35.183333	1	0.125500
35.200000	1	0.126250
35.216667	1	0.126625
35.233333	1	0.127500
35.250000	1	0.128125
35.266667	1	0.127875
35.283333	1	0.127875
35.300000	1	0.127125
35.316667	1	0.126875
35.333333	1	0.126750
35.350000	1	0.126750
35.366667	1	0.126875
35.383333	1	0.126500
35.400000	1	0.126000
35.416667	1	0.125625
35.433333	1	0.125375
35.450000	1	0.125500
35.466667	1	0.125250
35.483333	1	0.125875
35.500000	1	0.126250
35.516667	1	0.126625
35.533333	1	0.127250
35.550000	1	0.128125
35.566667	1	0.129000
35.583333	1	0.130000
35.600000	1	0.130500
35.616667	1	0.131250
35.633333	1	0.133000
35.650000	1	0.134750
35.666667	1	0.135875
35.683333	1	0.137125
35.700000	1	0.139625
35.716667	1	0.141750
35.733333	1	0.144125
35.750000	1	0.145750
35.766667	1	0.148000
35.783333	1	0.149750
35.800000	1	0.150625
35.816667	1	0.152125
35.833333	1	0.154125
35.850000	1	0.155875
35.866667	1	0.157625
35.883333	1	0.159000
35.900000	1	0.160000
35.916667	1	0.160875
35.933333	1	0.161625
35.950000	1	0.162750
35.966667	1	0.164000
35.983333	1	0.165125
36.000000	1	0.166125
36.016667	1	0.166375
36.033333	1	0.166125
36.050000	1	0.166250
36.066667	1	0.166875
36.083333	1	0.166500
36.100000	1	0.166500
36.116667	1	0.166250
36.133333	1	0.166750
36.150000	1	0.167000
36.166667	1	0.167625
36.183333	1	0.167375
36.200000	1	0.167625
36.216667	1	0.167750
36.233333	1	0.167875
36.250000	1	0.168500
36.266667	1	0.169125
36.283333	1	0.170000
36.300000	1	0.170250
36.316667	1	0.170750
36.333333	1	0.171250
36.350000	1	0.172125
36.366667	1	0.173250
36.383333	1	0.174500
36.400000	1	0.175500
36.416667	1	0.176625
36.433333	1	0.177875
36.450000	1	0.178375
36.466667	1	0.179375
36.483333	1	0.181125
36.500000	1	0.181625
36.516667	1	0.181750
36.533333	1	0.182875
36.550000	1	0.183625
36.566667	1	0.183625
36.583333	1	0.183875
36.600000	1	0.183125
36.616667	1	0.182500
36.633333	1	0.181750
36.650000	1	0.181375
36.666667	1	0.180250
36.683333	1	0.179000
36.700000	1	0.178000
36.716667	1	0.176625
36.733333	1	0.174875
36.750000	1	0.173000
36.766667	1	0.170750
36.783333	1	0.167750
36.800000	1	0.165375
36.816667	1	0.163125
36.833333	1	0.161250
36.850000	1	0.159250
36.866667	1	0.156750
36.883333	1	0.154250
36.900000	1	0.152125
36.916667	1	0.150375
36.933333	1	0.148375
36.950000	1	0.146250
36.966667	1	0.144125
36.983333	1	0.141250
37.000000	1	0.138500
37.016667	1	0.137000
37.033333	1	0.135250
37.050000	1	0.133000
37.066667	1	0.131000
37.083333	1	0.128875
37.100000	1	0.127625
37.116667	1	0.126250
37.133333	1	0.125250
37.150000	1	0.124000
37.166667	1	0.122750
37.183333	1	0.121750
37.200000	1	0.120750
37.216667	1	0.118625
37.233333	1	0.117125
37.250000	1	0.115500
37.266667	1	0.114375
37.283333	1	0.113625
37.300000	1	0.112750
37.316667	1	0.110750
37.333333	1	0.109625
37.350000	1	0.108500
37.366667	1	0.107375
37.383333	1	0.106125
37.400000	1	0.103750
37.416667	1	0.102500
37.433333	1	0.100625
37.450000	1	0.099000
37.466667	1	0.097125
37.483333	1	0.095500
37.500000	1	0.093500
37.516667	1	0.091875
37.533333	1	0.090000
37.550000	1	0.087750
37.566667	1	0.085875
37.583333	1	0.084000
37.600000	1	0.082500
37.616667	1	0.080625
37.633333	1	0.078625
37.650000	1	0.076375
37.666667	1	0.074750
37.683333	1	0.072500
37.700000	1	0.070500
37.716667	1	0.068375
37.733333	1	0.066875
37.750000	1	0.064500
37.766667	1	0.062125
37.783333	1	0.059625
37.800000	1	0.057625
37.816667	1	0.055750
37.833333	1	0.054125
37.850000	1	0.052125
37.866667	1	0.050375
37.883333	1	0.048125
37.900000	1	0.046250
37.916667	1	0.044000
37.933333	1	0.042125
37.950000	1	0.040250
37.966667	1	0.038375
37.983333	1	0.037500
38.000000	1	0.036375
38.016667	1	0.035125
38.033333	1	0.033375
38.050000	1	0.031625
38.066667	1	0.029875
38.083333	1	0.028750
38.100000	1	0.027750
38.116667	1	0.027250
38.133333	1	0.026000
38.150000	1	0.025875
38.166667	1	0.024875
38.183333	1	0.024250
38.200000	1	0.024000
38.216667	1	0.023500
38.233333	1	0.022750
38.250000	1	0.023000
38.266667	1	0.022750
38.283333	1	0.023250
38.300000	1	0.023625
38.316667	1	0.023750
38.333333	1	0.023500
38.350000	1	0.023875
38.366667	1	0.023875
38.383333	1	0.024125
38.400000	1	0.025000
38.416667	1	0.025750
38.433333	1	0.027000
38.450000	1	0.028500
38.466667	1	0.029625
38.483333	1	0.031000
38.500000	1	0.031875
38.516667	1	0.033500
38.533333	1	0.033875
38.550000	1	0.035250
38.566667	1	0.036375
38.583333	1	0.037750
38.600000	1	0.039250
38.616667	1	0.039750
38.633333	1	0.040875
38.650000	1	0.042125
38.666667	1	0.042625
38.683333	1	0.044125
38.700000	1	0.045000
38.716667	1	0.046375
38.733333	1	0.047250
38.750000	1	0.047875
38.766667	1	0.048750
38.783333	1	0.049500
38.800000	1	0.050000
38.816667	1	0.049875
38.833333	1	0.049750
38.850000	1	0.050250
38.866667	1	0.050000
38.883333	1	0.049750
38.900000	1	0.049000
38.916667	1	0.049000
38.933333	1	0.048375
38.950000	1	0.047875
38.966667	1	0.047000
38.983333	1	0.046125
39.000000	1	0.046000
39.016667	1	0.045000
39.033333	1	0.044500
39.050000	1	0.044125
39.066667	1	0.043250
39.083333	1	0.042500
39.100000	1	0.042000
39.116667	1	0.041625
39.133333	1	0.041000
39.150000	1	0.039875
39.166667	1	0.038875
39.183333	1	0.037875
39.200000	1	0.037750
39.216667	1	0.037625
39.233333	1	0.037750
39.250000	1	0.037375
39.266667	1	0.037250
39.283333	1	0.036625
39.300000	1	0.036500
39.316667	1	0.035875
39.333333	1	0.035500
39.350000	1	0.035750
39.366667	1	0.035500
39.383333	1	0.035750
39.400000	1	0.036375
39.416667	1	0.037000
39.433333	1	0.037875
39.450000	1	0.038875
39.466667	1	0.039875
39.483333	1	0.040625
39.500000	1	0.041750
39.516667	1	0.043000
39.533333	1	0.042500
39.550000	1	0.043250
39.566667	1	0.044000
39.583333	1	0.044625
39.600000	1	0.044500
39.616667	1	0.045000
39.633333	1	0.044875
39.650000	1	0.045625
39.666667	1	0.045625
39.683333	1	0.045875
39.700000	1	0.046375
39.716667	1	0.046500
39.733333	1	0.046375
39.750000	1	0.046250
39.766667	1	0.046250
39.783333	1	0.046500
39.800000	1	0.047125
39.816667	1	0.046625
39.833333	1	0.046750
39.850000	1	0.046625
39.866667	1	0.046000
39.883333	1	0.045500
39.900000	1	0.046000
39.916667	1	0.045875
39.933333	1	0.045250
39.950000	1	0.045375
39.966667	1	0.044750
39.983333	1	0.044500
40.000000	1	0.044250
