URL	chrom://7040-86g6c92/XVault/Ultimate_3000/20/20240517_CMO_FP23_FP25_MarkusDeplate.seq/510.smp/RI_1.channel/RI_1.chm
Channel	RI_1

Injection Information:
Data Vault	XVault
Sequence	20240517_CMO_FP23_FP25_MarkusDeplate
Name	FP25_25.3_s2
Number	63
Position	BF3
Comment	
Processing Method	
Instrument Method	run_25B_method
Type	Unknown
Status	Finished
Inject Time	29.05.2024 12:22:39 +02:00
Volume (µl)	20.0000
Dilution Factor	1.0000
Weight	1.0000

Chromatogram Data Information:
Time Min. (min)	0.000000
Time Max. (min)	40.000000
Data Points	2401
Detector	RI
Generating Data System	Chromeleon 7.3.2.11814
Exporting Data System	Chromeleon 7.3.2.0
Operator	Instrument Controller
Signal Quantity	Refractive 
Signal Unit	µRIU
Signal Min.	-1.309625
Signal Max.	68.046125
Channel	RI_1
Driver Name	RID520Driver.dll
Channel Type	Evaluation
Min. Step (s)	1
Max. Step (s)	1
Average Step (s)	1

Signal Parameter Information:
Signal Info	

Chromatogram Data:
Time (min)	Step (s)	Value (µRIU)
0.000000	n.a.	0.019625
0.016667	1	0.020250
0.033333	1	0.021875
0.050000	1	0.023875
0.066667	1	0.025875
0.083333	1	0.027375
0.100000	1	0.029125
0.116667	1	0.030125
0.133333	1	0.030875
0.150000	1	0.031750
0.166667	1	0.032250
0.183333	1	0.032750
0.200000	1	0.033000
0.216667	1	0.033000
0.233333	1	0.032750
0.250000	1	0.032375
0.266667	1	0.032375
0.283333	1	0.031250
0.300000	1	0.030125
0.316667	1	0.029000
0.333333	1	0.028500
0.350000	1	0.026750
0.366667	1	0.024875
0.383333	1	0.022250
0.400000	1	0.020500
0.416667	1	0.019500
0.433333	1	0.018500
0.450000	1	0.019500
0.466667	1	0.020125
0.483333	1	0.020375
0.500000	1	0.020000
0.516667	1	0.019125
0.533333	1	0.018000
0.550000	1	0.017125
0.566667	1	0.015125
0.583333	1	0.011875
0.600000	1	0.008625
0.616667	1	0.005500
0.633333	1	0.002250
0.650000	1	-0.000500
0.666667	1	-0.002125
0.683333	1	-0.003000
0.700000	1	-0.004125
0.716667	1	-0.004250
0.733333	1	-0.004250
0.750000	1	-0.004625
0.766667	1	-0.004750
0.783333	1	-0.005250
0.800000	1	-0.005125
0.816667	1	-0.004875
0.833333	1	-0.005125
0.850000	1	-0.004625
0.866667	1	-0.004000
0.883333	1	-0.003625
0.900000	1	-0.003000
0.916667	1	-0.002125
0.933333	1	-0.001250
0.950000	1	-0.000500
0.966667	1	0.000875
0.983333	1	0.002000
1.000000	1	0.002875
1.016667	1	0.004375
1.033333	1	0.006125
1.050000	1	0.007250
1.066667	1	0.008250
1.083333	1	0.009250
1.100000	1	0.010375
1.116667	1	0.010625
1.133333	1	0.011750
1.150000	1	0.012750
1.166667	1	0.012875
1.183333	1	0.013625
1.200000	1	0.014500
1.216667	1	0.015375
1.233333	1	0.015500
1.250000	1	0.015500
1.266667	1	0.015625
1.283333	1	0.015750
1.300000	1	0.015625
1.316667	1	0.015875
1.333333	1	0.015625
1.350000	1	0.014875
1.366667	1	0.014875
1.383333	1	0.014500
1.400000	1	0.013625
1.416667	1	0.013125
1.433333	1	0.011625
1.450000	1	0.011000
1.466667	1	0.010000
1.483333	1	0.009000
1.500000	1	0.007250
1.516667	1	0.005250
1.533333	1	0.003875
1.550000	1	0.001875
1.566667	1	0.000125
1.583333	1	-0.001375
1.600000	1	-0.003250
1.616667	1	-0.004750
1.633333	1	-0.007125
1.650000	1	-0.009000
1.666667	1	-0.011000
1.683333	1	-0.012750
1.700000	1	-0.015125
1.716667	1	-0.017125
1.733333	1	-0.019875
1.750000	1	-0.021750
1.766667	1	-0.023125
1.783333	1	-0.025250
1.800000	1	-0.027375
1.816667	1	-0.029750
1.833333	1	-0.031500
1.850000	1	-0.033250
1.866667	1	-0.035125
1.883333	1	-0.036625
1.900000	1	-0.038250
1.916667	1	-0.039375
1.933333	1	-0.040875
1.950000	1	-0.042000
1.966667	1	-0.043125
1.983333	1	-0.044125
2.000000	1	-0.045750
2.016667	1	-0.046500
2.033333	1	-0.047000
2.050000	1	-0.047125
2.066667	1	-0.047250
2.083333	1	-0.047750
2.100000	1	-0.048125
2.116667	1	-0.048000
2.133333	1	-0.047875
2.150000	1	-0.047375
2.166667	1	-0.047500
2.183333	1	-0.047125
2.200000	1	-0.045875
2.216667	1	-0.045500
2.233333	1	-0.044375
2.250000	1	-0.043000
2.266667	1	-0.041625
2.283333	1	-0.040375
2.300000	1	-0.039000
2.316667	1	-0.037750
2.333333	1	-0.036125
2.350000	1	-0.034875
2.366667	1	-0.033625
2.383333	1	-0.032125
2.400000	1	-0.029875
2.416667	1	-0.028375
2.433333	1	-0.027125
2.450000	1	-0.026375
2.466667	1	-0.025875
2.483333	1	-0.025125
2.500000	1	-0.024500
2.516667	1	-0.023875
2.533333	1	-0.023125
2.550000	1	-0.022875
2.566667	1	-0.022750
2.583333	1	-0.022625
2.600000	1	-0.022625
2.616667	1	-0.022750
2.633333	1	-0.023500
2.650000	1	-0.023875
2.666667	1	-0.024625
2.683333	1	-0.025000
2.700000	1	-0.025625
2.716667	1	-0.026375
2.733333	1	-0.026875
2.750000	1	-0.027500
2.766667	1	-0.029250
2.783333	1	-0.029000
2.800000	1	-0.028875
2.816667	1	-0.029625
2.833333	1	-0.029750
2.850000	1	-0.029875
2.866667	1	-0.030250
2.883333	1	-0.030125
2.900000	1	-0.029500
2.916667	1	-0.028375
2.933333	1	-0.027500
2.950000	1	-0.026125
2.966667	1	-0.025125
2.983333	1	-0.023875
3.000000	1	-0.022500
3.016667	1	-0.020875
3.033333	1	-0.018250
3.050000	1	-0.016250
3.066667	1	-0.014375
3.083333	1	-0.012750
3.100000	1	-0.010750
3.116667	1	-0.008625
3.133333	1	-0.006625
3.150000	1	-0.005375
3.166667	1	-0.003500
3.183333	1	-0.002500
3.200000	1	-0.000750
3.216667	1	0.001375
3.233333	1	0.002375
3.250000	1	0.003625
3.266667	1	0.004500
3.283333	1	0.005750
3.300000	1	0.006875
3.316667	1	0.007500
3.333333	1	0.008125
3.350000	1	0.008500
3.366667	1	0.008500
3.383333	1	0.009125
3.400000	1	0.009250
3.416667	1	0.010250
3.433333	1	0.010125
3.450000	1	0.010125
3.466667	1	0.010250
3.483333	1	0.011000
3.500000	1	0.011625
3.516667	1	0.012500
3.533333	1	0.013250
3.550000	1	0.013625
3.566667	1	0.014375
3.583333	1	0.015750
3.600000	1	0.017750
3.616667	1	0.018750
3.633333	1	0.020125
3.650000	1	0.021625
3.666667	1	0.023875
3.683333	1	0.026125
3.700000	1	0.028375
3.716667	1	0.030250
3.733333	1	0.031875
3.750000	1	0.034000
3.766667	1	0.035875
3.783333	1	0.037750
3.800000	1	0.039875
3.816667	1	0.041625
3.833333	1	0.043375
3.850000	1	0.045750
3.866667	1	0.047000
3.883333	1	0.048875
3.900000	1	0.050125
3.916667	1	0.050750
3.933333	1	0.051750
3.950000	1	0.051750
3.966667	1	0.052375
3.983333	1	0.052500
4.000000	1	0.053125
4.016667	1	0.052625
4.033333	1	0.052500
4.050000	1	0.052125
4.066667	1	0.052500
4.083333	1	0.051500
4.100000	1	0.050875
4.116667	1	0.049625
4.133333	1	0.048250
4.150000	1	0.048125
4.166667	1	0.047125
4.183333	1	0.046625
4.200000	1	0.046000
4.216667	1	0.045250
4.233333	1	0.044625
4.250000	1	0.043875
4.266667	1	0.043625
4.283333	1	0.043250
4.300000	1	0.043250
4.316667	1	0.042750
4.333333	1	0.042750
4.350000	1	0.042750
4.366667	1	0.042375
4.383333	1	0.042375
4.400000	1	0.042500
4.416667	1	0.042875
4.433333	1	0.042875
4.450000	1	0.043875
4.466667	1	0.044250
4.483333	1	0.045000
4.500000	1	0.045750
4.516667	1	0.046000
4.533333	1	0.046375
4.550000	1	0.046875
4.566667	1	0.047500
4.583333	1	0.048250
4.600000	1	0.048500
4.616667	1	0.048625
4.633333	1	0.049500
4.650000	1	0.049750
4.666667	1	0.049500
4.683333	1	0.049625
4.700000	1	0.049500
4.716667	1	0.049250
4.733333	1	0.049500
4.750000	1	0.049000
4.766667	1	0.048375
4.783333	1	0.048125
4.800000	1	0.047625
4.816667	1	0.046875
4.833333	1	0.045875
4.850000	1	0.044875
4.866667	1	0.044000
4.883333	1	0.043250
4.900000	1	0.042750
4.916667	1	0.043125
4.933333	1	0.042625
4.950000	1	0.042125
4.966667	1	0.041250
4.983333	1	0.041000
5.000000	1	0.040875
5.016667	1	0.041125
5.033333	1	0.041375
5.050000	1	0.042625
5.066667	1	0.043875
5.083333	1	0.045125
5.100000	1	0.046625
5.116667	1	0.048750
5.133333	1	0.050750
5.150000	1	0.052500
5.166667	1	0.054875
5.183333	1	0.057500
5.200000	1	0.060625
5.216667	1	0.064625
5.233333	1	0.068625
5.250000	1	0.073000
5.266667	1	0.077250
5.283333	1	0.082000
5.300000	1	0.086500
5.316667	1	0.091750
5.333333	1	0.097000
5.350000	1	0.102750
5.366667	1	0.108250
5.383333	1	0.113875
5.400000	1	0.119875
5.416667	1	0.125750
5.433333	1	0.132125
5.450000	1	0.139000
5.466667	1	0.144375
5.483333	1	0.150000
5.500000	1	0.155750
5.516667	1	0.162250
5.533333	1	0.167750
5.550000	1	0.173125
5.566667	1	0.178625
5.583333	1	0.183875
5.600000	1	0.188625
5.616667	1	0.193375
5.633333	1	0.198000
5.650000	1	0.201875
5.666667	1	0.206625
5.683333	1	0.211375
5.700000	1	0.215125
5.716667	1	0.217875
5.733333	1	0.220375
5.750000	1	0.223625
5.766667	1	0.226500
5.783333	1	0.229125
5.800000	1	0.231625
5.816667	1	0.234000
5.833333	1	0.235625
5.850000	1	0.237125
5.866667	1	0.238125
5.883333	1	0.239375
5.900000	1	0.240250
5.916667	1	0.241125
5.933333	1	0.242125
5.950000	1	0.242000
5.966667	1	0.241750
5.983333	1	0.241875
6.000000	1	0.241625
6.016667	1	0.241250
6.033333	1	0.240625
6.050000	1	0.239375
6.066667	1	0.238125
6.083333	1	0.237125
6.100000	1	0.236125
6.116667	1	0.234375
6.133333	1	0.232250
6.150000	1	0.230250
6.166667	1	0.228500
6.183333	1	0.226500
6.200000	1	0.223875
6.216667	1	0.221000
6.233333	1	0.218500
6.250000	1	0.215375
6.266667	1	0.212500
6.283333	1	0.209250
6.300000	1	0.205750
6.316667	1	0.203000
6.333333	1	0.199750
6.350000	1	0.197250
6.366667	1	0.194000
6.383333	1	0.190750
6.400000	1	0.187750
6.416667	1	0.184625
6.433333	1	0.182000
6.450000	1	0.179000
6.466667	1	0.175750
6.483333	1	0.173250
6.500000	1	0.170750
6.516667	1	0.168875
6.533333	1	0.166000
6.550000	1	0.163875
6.566667	1	0.162125
6.583333	1	0.160000
6.600000	1	0.158125
6.616667	1	0.156250
6.633333	1	0.154750
6.650000	1	0.153375
6.666667	1	0.151375
6.683333	1	0.149625
6.700000	1	0.148125
6.716667	1	0.147375
6.733333	1	0.146250
6.750000	1	0.145125
6.766667	1	0.143750
6.783333	1	0.142750
6.800000	1	0.141250
6.816667	1	0.140125
6.833333	1	0.138625
6.850000	1	0.137000
6.866667	1	0.136000
6.883333	1	0.135000
6.900000	1	0.133125
6.916667	1	0.131625
6.933333	1	0.130125
6.950000	1	0.129000
6.966667	1	0.127500
6.983333	1	0.126000
7.000000	1	0.124250
7.016667	1	0.122875
7.033333	1	0.121125
7.050000	1	0.119625
7.066667	1	0.118125
7.083333	1	0.116625
7.100000	1	0.114875
7.116667	1	0.113750
7.133333	1	0.112250
7.150000	1	0.110750
7.166667	1	0.109250
7.183333	1	0.107500
7.200000	1	0.106000
7.216667	1	0.105000
7.233333	1	0.103750
7.250000	1	0.102500
7.266667	1	0.101625
7.283333	1	0.101000
7.300000	1	0.100250
7.316667	1	0.099000
7.333333	1	0.098875
7.350000	1	0.098500
7.366667	1	0.098875
7.383333	1	0.099000
7.400000	1	0.099250
7.416667	1	0.099250
7.433333	1	0.100375
7.450000	1	0.101250
7.466667	1	0.102500
7.483333	1	0.103500
7.500000	1	0.105250
7.516667	1	0.106750
7.533333	1	0.108750
7.550000	1	0.110625
7.566667	1	0.112375
7.583333	1	0.113875
7.600000	1	0.116250
7.616667	1	0.118250
7.633333	1	0.120875
7.650000	1	0.124125
7.666667	1	0.125875
7.683333	1	0.128250
7.700000	1	0.129500
7.716667	1	0.132125
7.733333	1	0.134125
7.750000	1	0.136500
7.766667	1	0.138250
7.783333	1	0.139500
7.800000	1	0.140250
7.816667	1	0.141250
7.833333	1	0.141875
7.850000	1	0.141875
7.866667	1	0.142250
7.883333	1	0.142375
7.900000	1	0.142000
7.916667	1	0.141000
7.933333	1	0.139250
7.950000	1	0.137375
7.966667	1	0.135750
7.983333	1	0.133875
8.000000	1	0.131250
8.016667	1	0.128625
8.033333	1	0.125625
8.050000	1	0.122750
8.066667	1	0.119750
8.083333	1	0.116125
8.100000	1	0.112375
8.116667	1	0.108875
8.133333	1	0.105250
8.150000	1	0.101625
8.166667	1	0.097500
8.183333	1	0.093500
8.200000	1	0.089875
8.216667	1	0.086375
8.233333	1	0.082625
8.250000	1	0.078875
8.266667	1	0.074875
8.283333	1	0.070875
8.300000	1	0.067375
8.316667	1	0.064500
8.333333	1	0.060875
8.350000	1	0.058000
8.366667	1	0.054875
8.383333	1	0.051500
8.400000	1	0.047750
8.416667	1	0.044500
8.433333	1	0.040875
8.450000	1	0.037750
8.466667	1	0.034875
8.483333	1	0.032500
8.500000	1	0.030000
8.516667	1	0.027250
8.533333	1	0.024250
8.550000	1	0.021375
8.566667	1	0.018500
8.583333	1	0.016250
8.600000	1	0.013500
8.616667	1	0.011250
8.633333	1	0.009125
8.650000	1	0.007000
8.666667	1	0.005125
8.683333	1	0.003000
8.700000	1	0.001000
8.716667	1	-0.000750
8.733333	1	-0.002125
8.750000	1	-0.003375
8.766667	1	-0.004500
8.783333	1	-0.005125
8.800000	1	-0.005750
8.816667	1	-0.006500
8.833333	1	-0.006875
8.850000	1	-0.007250
8.866667	1	-0.007625
8.883333	1	-0.007375
8.900000	1	-0.007375
8.916667	1	-0.007000
8.933333	1	-0.006375
8.950000	1	-0.005750
8.966667	1	-0.004750
8.983333	1	-0.003375
9.000000	1	-0.002000
9.016667	1	-0.001000
9.033333	1	0.000500
9.050000	1	0.003000
9.066667	1	0.005000
9.083333	1	0.007625
9.100000	1	0.010250
9.116667	1	0.012625
9.133333	1	0.015875
9.150000	1	0.019125
9.166667	1	0.021750
9.183333	1	0.024500
9.200000	1	0.028000
9.216667	1	0.031250
9.233333	1	0.034125
9.250000	1	0.037375
9.266667	1	0.040750
9.283333	1	0.044250
9.300000	1	0.047625
9.316667	1	0.050750
9.333333	1	0.053750
9.350000	1	0.056250
9.366667	1	0.058875
9.383333	1	0.061125
9.400000	1	0.063000
9.416667	1	0.065125
9.433333	1	0.067375
9.450000	1	0.068500
9.466667	1	0.069750
9.483333	1	0.070375
9.500000	1	0.070625
9.516667	1	0.071125
9.533333	1	0.071125
9.550000	1	0.070875
9.566667	1	0.070375
9.583333	1	0.069375
9.600000	1	0.068375
9.616667	1	0.067875
9.633333	1	0.066375
9.650000	1	0.064375
9.666667	1	0.062625
9.683333	1	0.060250
9.700000	1	0.059000
9.716667	1	0.057250
9.733333	1	0.054875
9.750000	1	0.052125
9.766667	1	0.049875
9.783333	1	0.047750
9.800000	1	0.045625
9.816667	1	0.043500
9.833333	1	0.041000
9.850000	1	0.038875
9.866667	1	0.037000
9.883333	1	0.035375
9.900000	1	0.033750
9.916667	1	0.032875
9.933333	1	0.031375
9.950000	1	0.031125
9.966667	1	0.031250
9.983333	1	0.032250
10.000000	1	0.033500
10.016667	1	0.035500
10.033333	1	0.038750
10.050000	1	0.042875
10.066667	1	0.048000
10.083333	1	0.053875
10.100000	1	0.060750
10.116667	1	0.067875
10.133333	1	0.076375
10.150000	1	0.084500
10.166667	1	0.094125
10.183333	1	0.104750
10.200000	1	0.116125
10.216667	1	0.128250
10.233333	1	0.142125
10.250000	1	0.157125
10.266667	1	0.173750
10.283333	1	0.192750
10.300000	1	0.215125
10.316667	1	0.239000
10.333333	1	0.265750
10.350000	1	0.295250
10.366667	1	0.327875
10.383333	1	0.363000
10.400000	1	0.399250
10.416667	1	0.433125
10.433333	1	0.457500
10.450000	1	0.463500
10.466667	1	0.440375
10.483333	1	0.384375
10.500000	1	0.302625
10.516667	1	0.224125
10.533333	1	0.201125
10.550000	1	0.311500
10.566667	1	0.645375
10.583333	1	1.298375
10.600000	1	2.357875
10.616667	1	3.896625
10.633333	1	5.964375
10.650000	1	8.591000
10.666667	1	11.787500
10.683333	1	15.540125
10.700000	1	19.810875
10.716667	1	24.526625
10.733333	1	29.565125
10.750000	1	34.742500
10.766667	1	39.793125
10.783333	1	44.366625
10.800000	1	48.047875
10.816667	1	50.417250
10.833333	1	51.156375
10.850000	1	50.150500
10.866667	1	47.538000
10.883333	1	43.677375
10.900000	1	39.043125
10.916667	1	34.105750
10.933333	1	29.246000
10.950000	1	24.720750
10.966667	1	20.675750
10.983333	1	17.168375
11.000000	1	14.198250
11.016667	1	11.731000
11.033333	1	9.714500
11.050000	1	8.085375
11.066667	1	6.778250
11.083333	1	5.734500
11.100000	1	4.903250
11.116667	1	4.240125
11.133333	1	3.708375
11.150000	1	3.281000
11.166667	1	2.935000
11.183333	1	2.651875
11.200000	1	2.417375
11.216667	1	2.222750
11.233333	1	2.059000
11.250000	1	1.920125
11.266667	1	1.801125
11.283333	1	1.699125
11.300000	1	1.610625
11.316667	1	1.534125
11.333333	1	1.467500
11.350000	1	1.408625
11.366667	1	1.356875
11.383333	1	1.312250
11.400000	1	1.272875
11.416667	1	1.237625
11.433333	1	1.207125
11.450000	1	1.180125
11.466667	1	1.156000
11.483333	1	1.134375
11.500000	1	1.114750
11.516667	1	1.097875
11.533333	1	1.082750
11.550000	1	1.069250
11.566667	1	1.057875
11.583333	1	1.048000
11.600000	1	1.039750
11.616667	1	1.032750
11.633333	1	1.026625
11.650000	1	1.021875
11.666667	1	1.019000
11.683333	1	1.017375
11.700000	1	1.017000
11.716667	1	1.018125
11.733333	1	1.019875
11.750000	1	1.023500
11.766667	1	1.027125
11.783333	1	1.031625
11.800000	1	1.036000
11.816667	1	1.040625
11.833333	1	1.044750
11.850000	1	1.048500
11.866667	1	1.052125
11.883333	1	1.054875
11.900000	1	1.056875
11.916667	1	1.059500
11.933333	1	1.061375
11.950000	1	1.063125
11.966667	1	1.064625
11.983333	1	1.067250
12.000000	1	1.070500
12.016667	1	1.074750
12.033333	1	1.078000
12.050000	1	1.083125
12.066667	1	1.088125
12.083333	1	1.094375
12.100000	1	1.101375
12.116667	1	1.108250
12.133333	1	1.116875
12.150000	1	1.125500
12.166667	1	1.135625
12.183333	1	1.146250
12.200000	1	1.159375
12.216667	1	1.173875
12.233333	1	1.190000
12.250000	1	1.208500
12.266667	1	1.229750
12.283333	1	1.251750
12.300000	1	1.276125
12.316667	1	1.302625
12.333333	1	1.333250
12.350000	1	1.367875
12.366667	1	1.407375
12.383333	1	1.455750
12.400000	1	1.516125
12.416667	1	1.592250
12.433333	1	1.688500
12.450000	1	1.810625
12.466667	1	1.962250
12.483333	1	2.148750
12.500000	1	2.373000
12.516667	1	2.637375
12.533333	1	2.941750
12.550000	1	3.285875
12.566667	1	3.667000
12.583333	1	4.081750
12.600000	1	4.524625
12.616667	1	4.991375
12.633333	1	5.477000
12.650000	1	5.979125
12.666667	1	6.491250
12.683333	1	7.012750
12.700000	1	7.539875
12.716667	1	8.073625
12.733333	1	8.611875
12.750000	1	9.155125
12.766667	1	9.703000
12.783333	1	10.252000
12.800000	1	10.792750
12.816667	1	11.302125
12.833333	1	11.738125
12.850000	1	12.031625
12.866667	1	12.105125
12.883333	1	11.894750
12.900000	1	11.381000
12.916667	1	10.605750
12.933333	1	9.656750
12.950000	1	8.638000
12.966667	1	7.637875
12.983333	1	6.710750
13.000000	1	5.885500
13.016667	1	5.168000
13.033333	1	4.554125
13.050000	1	4.035625
13.066667	1	3.603875
13.083333	1	3.247500
13.100000	1	2.954375
13.116667	1	2.715625
13.133333	1	2.519625
13.150000	1	2.359375
13.166667	1	2.227000
13.183333	1	2.116750
13.200000	1	2.022875
13.216667	1	1.942750
13.233333	1	1.872875
13.250000	1	1.810875
13.266667	1	1.755625
13.283333	1	1.704875
13.300000	1	1.658625
13.316667	1	1.615000
13.333333	1	1.575500
13.350000	1	1.538125
13.366667	1	1.504250
13.383333	1	1.473125
13.400000	1	1.444625
13.416667	1	1.418750
13.433333	1	1.396625
13.450000	1	1.377125
13.466667	1	1.360125
13.483333	1	1.345875
13.500000	1	1.334625
13.516667	1	1.325125
13.533333	1	1.317875
13.550000	1	1.312000
13.566667	1	1.307250
13.583333	1	1.302250
13.600000	1	1.297000
13.616667	1	1.290875
13.633333	1	1.283125
13.650000	1	1.273125
13.666667	1	1.261500
13.683333	1	1.248500
13.700000	1	1.233500
13.716667	1	1.217125
13.733333	1	1.200250
13.750000	1	1.183125
13.766667	1	1.166375
13.783333	1	1.148500
13.800000	1	1.132000
13.816667	1	1.115625
13.833333	1	1.099750
13.850000	1	1.085000
13.866667	1	1.071250
13.883333	1	1.058000
13.900000	1	1.045375
13.916667	1	1.033500
13.933333	1	1.022500
13.950000	1	1.011500
13.966667	1	1.002000
13.983333	1	0.992750
14.000000	1	0.984125
14.016667	1	0.975750
14.033333	1	0.967375
14.050000	1	0.960125
14.066667	1	0.952500
14.083333	1	0.946375
14.100000	1	0.939625
14.116667	1	0.932750
14.133333	1	0.927000
14.150000	1	0.921875
14.166667	1	0.916500
14.183333	1	0.911625
14.200000	1	0.907500
14.216667	1	0.903875
14.233333	1	0.901875
14.250000	1	0.900250
14.266667	1	0.899500
14.283333	1	0.899500
14.300000	1	0.901375
14.316667	1	0.903625
14.333333	1	0.907250
14.350000	1	0.911875
14.366667	1	0.918375
14.383333	1	0.927250
14.400000	1	0.939000
14.416667	1	0.954875
14.433333	1	0.976625
14.450000	1	1.008500
14.466667	1	1.057125
14.483333	1	1.133250
14.500000	1	1.251625
14.516667	1	1.434000
14.533333	1	1.711250
14.550000	1	2.125875
14.566667	1	2.730125
14.583333	1	3.585875
14.600000	1	4.767875
14.616667	1	6.358125
14.633333	1	8.440625
14.650000	1	11.093000
14.666667	1	14.371500
14.683333	1	18.303500
14.700000	1	22.873875
14.716667	1	28.012625
14.733333	1	33.597500
14.750000	1	39.453875
14.766667	1	45.359000
14.783333	1	51.054125
14.800000	1	56.277000
14.816667	1	60.778500
14.833333	1	64.338750
14.850000	1	66.789250
14.866667	1	68.033000
14.883333	1	68.046125
14.900000	1	66.886625
14.916667	1	64.681250
14.933333	1	61.601375
14.950000	1	57.844125
14.966667	1	53.620375
14.983333	1	49.138250
15.000000	1	44.574750
15.016667	1	40.079500
15.033333	1	35.763125
15.050000	1	31.706750
15.066667	1	27.960750
15.083333	1	24.552000
15.100000	1	21.487500
15.116667	1	18.758500
15.133333	1	16.345500
15.150000	1	14.222625
15.166667	1	12.364625
15.183333	1	10.744125
15.200000	1	9.334125
15.216667	1	8.112375
15.233333	1	7.055500
15.250000	1	6.146000
15.266667	1	5.367250
15.283333	1	4.705000
15.300000	1	4.145000
15.316667	1	3.677500
15.333333	1	3.288875
15.350000	1	2.971625
15.366667	1	2.715625
15.383333	1	2.511125
15.400000	1	2.349500
15.416667	1	2.223750
15.433333	1	2.126000
15.450000	1	2.048625
15.466667	1	1.986750
15.483333	1	1.934000
15.500000	1	1.887250
15.516667	1	1.842750
15.533333	1	1.798875
15.550000	1	1.753875
15.566667	1	1.707250
15.583333	1	1.660000
15.600000	1	1.612375
15.616667	1	1.565875
15.633333	1	1.519875
15.650000	1	1.475000
15.666667	1	1.432875
15.683333	1	1.393375
15.700000	1	1.356000
15.716667	1	1.321250
15.733333	1	1.289375
15.750000	1	1.259625
15.766667	1	1.232000
15.783333	1	1.205500
15.800000	1	1.180625
15.816667	1	1.157875
15.833333	1	1.137250
15.850000	1	1.119375
15.866667	1	1.103750
15.883333	1	1.090625
15.900000	1	1.081250
15.916667	1	1.075625
15.933333	1	1.073625
15.950000	1	1.074375
15.966667	1	1.078125
15.983333	1	1.084750
16.000000	1	1.093375
16.016667	1	1.103875
16.033333	1	1.115000
16.050000	1	1.126500
16.066667	1	1.136250
16.083333	1	1.144250
16.100000	1	1.150750
16.116667	1	1.155000
16.133333	1	1.156250
16.150000	1	1.155125
16.166667	1	1.151250
16.183333	1	1.144625
16.200000	1	1.136125
16.216667	1	1.125375
16.233333	1	1.114625
16.250000	1	1.102000
16.266667	1	1.089500
16.283333	1	1.076750
16.300000	1	1.064000
16.316667	1	1.051375
16.333333	1	1.039875
16.350000	1	1.030375
16.366667	1	1.022375
16.383333	1	1.015875
16.400000	1	1.012000
16.416667	1	1.009750
16.433333	1	1.008375
16.450000	1	1.008000
16.466667	1	1.011000
16.483333	1	1.013875
16.500000	1	1.016125
16.516667	1	1.019375
16.533333	1	1.021250
16.550000	1	1.022000
16.566667	1	1.021875
16.583333	1	1.020250
16.600000	1	1.016750
16.616667	1	1.012500
16.633333	1	1.007125
16.650000	1	1.001375
16.666667	1	0.996125
16.683333	1	0.991500
16.700000	1	0.987000
16.716667	1	0.985250
16.733333	1	0.984625
16.750000	1	0.985000
16.766667	1	0.987500
16.783333	1	0.992000
16.800000	1	0.997750
16.816667	1	1.004500
16.833333	1	1.011375
16.850000	1	1.018000
16.866667	1	1.023500
16.883333	1	1.028375
16.900000	1	1.032750
16.916667	1	1.034500
16.933333	1	1.035375
16.950000	1	1.033500
16.966667	1	1.030875
16.983333	1	1.027500
17.000000	1	1.022750
17.016667	1	1.017000
17.033333	1	1.011875
17.050000	1	1.006250
17.066667	1	1.001500
17.083333	1	0.996875
17.100000	1	0.993375
17.116667	1	0.990500
17.133333	1	0.988250
17.150000	1	0.986875
17.166667	1	0.986000
17.183333	1	0.986500
17.200000	1	0.988250
17.216667	1	0.989500
17.233333	1	0.992125
17.250000	1	0.995500
17.266667	1	0.999000
17.283333	1	1.003875
17.300000	1	1.008500
17.316667	1	1.013500
17.333333	1	1.018250
17.350000	1	1.023250
17.366667	1	1.028625
17.383333	1	1.033625
17.400000	1	1.039500
17.416667	1	1.044250
17.433333	1	1.047625
17.450000	1	1.050250
17.466667	1	1.051125
17.483333	1	1.051000
17.500000	1	1.048750
17.516667	1	1.045375
17.533333	1	1.040750
17.550000	1	1.033875
17.566667	1	1.026375
17.583333	1	1.018000
17.600000	1	1.008625
17.616667	1	0.998000
17.633333	1	0.986500
17.650000	1	0.974000
17.666667	1	0.961750
17.683333	1	0.948500
17.700000	1	0.935875
17.716667	1	0.923125
17.733333	1	0.910750
17.750000	1	0.898500
17.766667	1	0.887375
17.783333	1	0.876625
17.800000	1	0.866625
17.816667	1	0.857875
17.833333	1	0.850125
17.850000	1	0.843250
17.866667	1	0.836125
17.883333	1	0.830375
17.900000	1	0.825000
17.916667	1	0.819500
17.933333	1	0.814750
17.950000	1	0.809625
17.966667	1	0.804500
17.983333	1	0.800125
18.000000	1	0.795750
18.016667	1	0.790875
18.033333	1	0.785875
18.050000	1	0.781000
18.066667	1	0.777000
18.083333	1	0.772875
18.100000	1	0.768375
18.116667	1	0.765375
18.133333	1	0.762250
18.150000	1	0.759750
18.166667	1	0.758375
18.183333	1	0.756750
18.200000	1	0.755625
18.216667	1	0.755250
18.233333	1	0.755750
18.250000	1	0.755750
18.266667	1	0.755750
18.283333	1	0.756125
18.300000	1	0.756750
18.316667	1	0.757375
18.333333	1	0.758125
18.350000	1	0.758625
18.366667	1	0.759875
18.383333	1	0.762250
18.400000	1	0.764750
18.416667	1	0.768750
18.433333	1	0.774125
18.450000	1	0.780500
18.466667	1	0.789000
18.483333	1	0.798500
18.500000	1	0.810125
18.516667	1	0.823875
18.533333	1	0.839000
18.550000	1	0.857000
18.566667	1	0.876125
18.583333	1	0.897375
18.600000	1	0.920625
18.616667	1	0.945625
18.633333	1	0.972625
18.650000	1	1.000750
18.666667	1	1.030750
18.683333	1	1.061250
18.700000	1	1.092500
18.716667	1	1.125625
18.733333	1	1.159000
18.750000	1	1.192250
18.766667	1	1.225250
18.783333	1	1.257750
18.800000	1	1.288125
18.816667	1	1.317375
18.833333	1	1.343125
18.850000	1	1.364875
18.866667	1	1.382625
18.883333	1	1.395500
18.900000	1	1.402875
18.916667	1	1.404375
18.933333	1	1.399500
18.950000	1	1.388750
18.966667	1	1.371625
18.983333	1	1.348750
19.000000	1	1.320250
19.016667	1	1.286000
19.033333	1	1.247125
19.050000	1	1.205500
19.066667	1	1.161250
19.083333	1	1.115875
19.100000	1	1.069875
19.116667	1	1.023875
19.133333	1	0.978500
19.150000	1	0.935375
19.166667	1	0.895750
19.183333	1	0.859000
19.200000	1	0.826625
19.216667	1	0.798125
19.233333	1	0.774875
19.250000	1	0.756375
19.266667	1	0.743375
19.283333	1	0.736625
19.300000	1	0.735875
19.316667	1	0.740750
19.333333	1	0.751500
19.350000	1	0.767875
19.366667	1	0.789125
19.383333	1	0.813750
19.400000	1	0.841750
19.416667	1	0.872750
19.433333	1	0.905500
19.450000	1	0.939500
19.466667	1	0.972500
19.483333	1	1.004250
19.500000	1	1.034125
19.516667	1	1.061500
19.533333	1	1.085250
19.550000	1	1.105125
19.566667	1	1.120375
19.583333	1	1.130875
19.600000	1	1.136625
19.616667	1	1.138125
19.633333	1	1.135375
19.650000	1	1.127750
19.666667	1	1.116125
19.683333	1	1.100750
19.700000	1	1.082250
19.716667	1	1.060375
19.733333	1	1.035750
19.750000	1	1.009000
19.766667	1	0.980250
19.783333	1	0.949875
19.800000	1	0.918250
19.816667	1	0.885625
19.833333	1	0.853000
19.850000	1	0.819750
19.866667	1	0.787250
19.883333	1	0.755750
19.900000	1	0.725000
19.916667	1	0.695750
19.933333	1	0.669000
19.950000	1	0.644375
19.966667	1	0.622625
19.983333	1	0.603750
20.000000	1	0.588500
20.016667	1	0.576875
20.033333	1	0.568500
20.050000	1	0.565125
20.066667	1	0.565375
20.083333	1	0.571875
20.100000	1	0.582125
20.116667	1	0.596625
20.133333	1	0.614375
20.150000	1	0.635750
20.166667	1	0.660750
20.183333	1	0.687500
20.200000	1	0.715500
20.216667	1	0.743625
20.233333	1	0.770625
20.250000	1	0.794750
20.266667	1	0.815500
20.283333	1	0.832375
20.300000	1	0.844750
20.316667	1	0.852000
20.333333	1	0.855000
20.350000	1	0.851875
20.366667	1	0.844375
20.383333	1	0.832625
20.400000	1	0.815625
20.416667	1	0.796250
20.433333	1	0.775625
20.450000	1	0.753125
20.466667	1	0.730000
20.483333	1	0.707750
20.500000	1	0.687500
20.516667	1	0.669625
20.533333	1	0.655250
20.550000	1	0.644500
20.566667	1	0.639250
20.583333	1	0.640500
20.600000	1	0.648750
20.616667	1	0.664375
20.633333	1	0.687875
20.650000	1	0.719250
20.666667	1	0.760250
20.683333	1	0.809875
20.700000	1	0.867000
20.716667	1	0.930875
20.733333	1	1.001250
20.750000	1	1.076375
20.766667	1	1.154250
20.783333	1	1.232625
20.800000	1	1.308500
20.816667	1	1.380375
20.833333	1	1.445250
20.850000	1	1.500125
20.866667	1	1.544000
20.883333	1	1.575875
20.900000	1	1.594500
20.916667	1	1.599125
20.933333	1	1.590875
20.950000	1	1.569500
20.966667	1	1.537500
20.983333	1	1.495125
21.000000	1	1.444750
21.016667	1	1.387250
21.033333	1	1.325875
21.050000	1	1.262125
21.066667	1	1.198000
21.083333	1	1.133875
21.100000	1	1.072125
21.116667	1	1.012500
21.133333	1	0.956375
21.150000	1	0.903375
21.166667	1	0.854750
21.183333	1	0.809875
21.200000	1	0.768625
21.216667	1	0.731625
21.233333	1	0.699125
21.250000	1	0.669375
21.266667	1	0.643375
21.283333	1	0.620125
21.300000	1	0.599125
21.316667	1	0.581125
21.333333	1	0.565500
21.350000	1	0.550875
21.366667	1	0.538750
21.383333	1	0.527750
21.400000	1	0.517875
21.416667	1	0.509000
21.433333	1	0.500750
21.450000	1	0.493875
21.466667	1	0.487750
21.483333	1	0.482250
21.500000	1	0.476500
21.516667	1	0.471875
21.533333	1	0.466875
21.550000	1	0.463750
21.566667	1	0.460500
21.583333	1	0.457125
21.600000	1	0.455000
21.616667	1	0.452000
21.633333	1	0.449625
21.650000	1	0.448250
21.666667	1	0.447000
21.683333	1	0.446125
21.700000	1	0.445750
21.716667	1	0.445375
21.733333	1	0.446125
21.750000	1	0.446250
21.766667	1	0.447375
21.783333	1	0.448875
21.800000	1	0.450375
21.816667	1	0.452125
21.833333	1	0.454750
21.850000	1	0.457750
21.866667	1	0.460250
21.883333	1	0.463125
21.900000	1	0.467000
21.916667	1	0.471125
21.933333	1	0.476625
21.950000	1	0.481625
21.966667	1	0.487875
21.983333	1	0.494750
22.000000	1	0.501500
22.016667	1	0.508625
22.033333	1	0.515625
22.050000	1	0.523375
22.066667	1	0.530500
22.083333	1	0.538125
22.100000	1	0.545125
22.116667	1	0.552375
22.133333	1	0.558625
22.150000	1	0.564000
22.166667	1	0.567875
22.183333	1	0.571125
22.200000	1	0.573000
22.216667	1	0.573500
22.233333	1	0.571750
22.250000	1	0.568750
22.266667	1	0.563875
22.283333	1	0.559375
22.300000	1	0.552000
22.316667	1	0.543250
22.333333	1	0.534125
22.350000	1	0.523750
22.366667	1	0.513125
22.383333	1	0.501875
22.400000	1	0.490500
22.416667	1	0.478500
22.433333	1	0.466375
22.450000	1	0.455375
22.466667	1	0.444375
22.483333	1	0.433750
22.500000	1	0.423375
22.516667	1	0.412625
22.533333	1	0.403250
22.550000	1	0.394500
22.566667	1	0.386125
22.583333	1	0.378375
22.600000	1	0.371250
22.616667	1	0.364250
22.633333	1	0.357875
22.650000	1	0.351500
22.666667	1	0.345500
22.683333	1	0.339250
22.700000	1	0.334250
22.716667	1	0.329625
22.733333	1	0.325625
22.750000	1	0.321250
22.766667	1	0.316750
22.783333	1	0.313250
22.800000	1	0.309750
22.816667	1	0.306250
22.833333	1	0.302500
22.850000	1	0.298875
22.866667	1	0.296125
22.883333	1	0.292875
22.900000	1	0.290250
22.916667	1	0.288000
22.933333	1	0.285875
22.950000	1	0.284500
22.966667	1	0.283250
22.983333	1	0.283125
23.000000	1	0.282875
23.016667	1	0.282375
23.033333	1	0.282750
23.050000	1	0.283750
23.066667	1	0.284875
23.083333	1	0.285750
23.100000	1	0.287625
23.116667	1	0.289000
23.133333	1	0.290750
23.150000	1	0.292500
23.166667	1	0.293750
23.183333	1	0.295375
23.200000	1	0.297500
23.216667	1	0.298625
23.233333	1	0.300500
23.250000	1	0.302375
23.266667	1	0.304875
23.283333	1	0.307250
23.300000	1	0.311500
23.316667	1	0.316875
23.333333	1	0.323500
23.350000	1	0.332750
23.366667	1	0.345625
23.383333	1	0.362625
23.400000	1	0.385000
23.416667	1	0.414000
23.433333	1	0.452000
23.450000	1	0.500625
23.466667	1	0.561625
23.483333	1	0.637625
23.500000	1	0.730875
23.516667	1	0.843375
23.533333	1	0.975750
23.550000	1	1.131875
23.566667	1	1.312000
23.583333	1	1.517625
23.600000	1	1.747875
23.616667	1	2.001375
23.633333	1	2.276000
23.650000	1	2.570125
23.666667	1	2.879000
23.683333	1	3.197375
23.700000	1	3.520750
23.716667	1	3.843250
23.733333	1	4.155875
23.750000	1	4.452875
23.766667	1	4.726250
23.783333	1	4.971500
23.800000	1	5.181500
23.816667	1	5.352375
23.833333	1	5.480500
23.850000	1	5.563125
23.866667	1	5.600750
23.883333	1	5.594000
23.900000	1	5.544250
23.916667	1	5.453250
23.933333	1	5.325875
23.950000	1	5.165750
23.966667	1	4.979625
23.983333	1	4.771375
24.000000	1	4.546500
24.016667	1	4.310125
24.033333	1	4.067625
24.050000	1	3.823625
24.066667	1	3.580875
24.083333	1	3.342500
24.100000	1	3.110125
24.116667	1	2.887000
24.133333	1	2.673375
24.150000	1	2.471625
24.166667	1	2.281125
24.183333	1	2.102625
24.200000	1	1.936000
24.216667	1	1.781250
24.233333	1	1.638500
24.250000	1	1.507500
24.266667	1	1.386625
24.283333	1	1.275000
24.300000	1	1.173750
24.316667	1	1.081250
24.333333	1	0.997750
24.350000	1	0.922375
24.366667	1	0.854500
24.383333	1	0.793375
24.400000	1	0.738875
24.416667	1	0.689750
24.433333	1	0.646750
24.450000	1	0.609000
24.466667	1	0.576000
24.483333	1	0.547250
24.500000	1	0.522250
24.516667	1	0.500000
24.533333	1	0.480875
24.550000	1	0.464125
24.566667	1	0.449125
24.583333	1	0.435000
24.600000	1	0.422750
24.616667	1	0.411875
24.633333	1	0.401875
24.650000	1	0.393000
24.666667	1	0.384250
24.683333	1	0.375625
24.700000	1	0.367500
24.716667	1	0.359875
24.733333	1	0.353000
24.750000	1	0.346000
24.766667	1	0.339125
24.783333	1	0.332250
24.800000	1	0.326250
24.816667	1	0.320000
24.833333	1	0.313875
24.850000	1	0.308250
24.866667	1	0.303625
24.883333	1	0.299250
24.900000	1	0.295500
24.916667	1	0.292000
24.933333	1	0.289250
24.950000	1	0.287000
24.966667	1	0.284250
24.983333	1	0.282000
25.000000	1	0.280125
25.016667	1	0.278875
25.033333	1	0.278250
25.050000	1	0.278125
25.066667	1	0.277625
25.083333	1	0.277875
25.100000	1	0.278000
25.116667	1	0.279000
25.133333	1	0.279250
25.150000	1	0.279625
25.166667	1	0.281500
25.183333	1	0.282500
25.200000	1	0.283375
25.216667	1	0.284375
25.233333	1	0.285875
25.250000	1	0.287375
25.266667	1	0.289000
25.283333	1	0.291375
25.300000	1	0.293125
25.316667	1	0.294375
25.333333	1	0.296000
25.350000	1	0.297500
25.366667	1	0.298750
25.383333	1	0.300375
25.400000	1	0.302125
25.416667	1	0.303250
25.433333	1	0.304875
25.450000	1	0.306250
25.466667	1	0.308375
25.483333	1	0.310125
25.500000	1	0.311875
25.516667	1	0.313250
25.533333	1	0.315125
25.550000	1	0.316250
25.566667	1	0.317250
25.583333	1	0.318125
25.600000	1	0.318750
25.616667	1	0.319750
25.633333	1	0.319375
25.650000	1	0.319625
25.666667	1	0.318750
25.683333	1	0.319375
25.700000	1	0.318250
25.716667	1	0.317250
25.733333	1	0.315750
25.750000	1	0.314375
25.766667	1	0.312750
25.783333	1	0.311750
25.800000	1	0.309625
25.816667	1	0.307750
25.833333	1	0.305750
25.850000	1	0.303750
25.866667	1	0.302500
25.883333	1	0.301375
25.900000	1	0.299875
25.916667	1	0.298250
25.933333	1	0.296750
25.950000	1	0.295750
25.966667	1	0.295500
25.983333	1	0.295625
26.000000	1	0.296000
26.016667	1	0.296750
26.033333	1	0.297750
26.050000	1	0.300000
26.066667	1	0.302250
26.083333	1	0.305625
26.100000	1	0.309625
26.116667	1	0.314125
26.133333	1	0.318625
26.150000	1	0.323125
26.166667	1	0.328125
26.183333	1	0.333750
26.200000	1	0.339125
26.216667	1	0.344875
26.233333	1	0.351375
26.250000	1	0.357875
26.266667	1	0.363500
26.283333	1	0.369125
26.300000	1	0.374375
26.316667	1	0.379875
26.333333	1	0.384625
26.350000	1	0.388500
26.366667	1	0.392000
26.383333	1	0.394625
26.400000	1	0.396250
26.416667	1	0.397500
26.433333	1	0.398500
26.450000	1	0.398625
26.466667	1	0.397625
26.483333	1	0.396125
26.500000	1	0.394875
26.516667	1	0.393000
26.533333	1	0.389125
26.550000	1	0.385125
26.566667	1	0.380500
26.583333	1	0.375500
26.600000	1	0.370375
26.616667	1	0.364625
26.633333	1	0.358875
26.650000	1	0.353625
26.666667	1	0.347125
26.683333	1	0.341000
26.700000	1	0.335125
26.716667	1	0.329250
26.733333	1	0.323250
26.750000	1	0.317125
26.766667	1	0.312000
26.783333	1	0.306500
26.800000	1	0.301250
26.816667	1	0.296875
26.833333	1	0.292875
26.850000	1	0.288375
26.866667	1	0.285000
26.883333	1	0.281875
26.900000	1	0.279250
26.916667	1	0.276500
26.933333	1	0.274500
26.950000	1	0.272625
26.966667	1	0.271125
26.983333	1	0.270250
27.000000	1	0.269000
27.016667	1	0.268750
27.033333	1	0.268250
27.050000	1	0.269000
27.066667	1	0.269625
27.083333	1	0.270375
27.100000	1	0.271500
27.116667	1	0.274000
27.133333	1	0.276250
27.150000	1	0.278750
27.166667	1	0.282125
27.183333	1	0.286250
27.200000	1	0.291375
27.216667	1	0.298000
27.233333	1	0.305625
27.250000	1	0.314625
27.266667	1	0.325500
27.283333	1	0.339125
27.300000	1	0.355125
27.316667	1	0.374375
27.333333	1	0.396750
27.350000	1	0.423500
27.366667	1	0.455500
27.383333	1	0.493500
27.400000	1	0.537875
27.416667	1	0.588625
27.433333	1	0.648125
27.450000	1	0.717375
27.466667	1	0.796500
27.483333	1	0.886125
27.500000	1	0.986625
27.516667	1	1.098500
27.533333	1	1.222000
27.550000	1	1.357375
27.566667	1	1.504125
27.583333	1	1.661625
27.600000	1	1.829750
27.616667	1	2.006750
27.633333	1	2.191625
27.650000	1	2.383000
27.666667	1	2.578250
27.683333	1	2.774500
27.700000	1	2.969875
27.716667	1	3.161625
27.733333	1	3.346000
27.750000	1	3.520125
27.766667	1	3.680875
27.783333	1	3.825625
27.800000	1	3.952250
27.816667	1	4.058750
27.833333	1	4.142875
27.850000	1	4.202375
27.866667	1	4.236375
27.883333	1	4.245500
27.900000	1	4.228750
27.916667	1	4.188000
27.933333	1	4.123750
27.950000	1	4.036625
27.966667	1	3.930250
27.983333	1	3.806875
28.000000	1	3.668125
28.016667	1	3.517750
28.033333	1	3.357750
28.050000	1	3.191000
28.066667	1	3.019500
28.083333	1	2.846125
28.100000	1	2.673000
28.116667	1	2.502750
28.133333	1	2.336875
28.150000	1	2.176250
28.166667	1	2.022625
28.183333	1	1.875750
28.200000	1	1.736875
28.216667	1	1.606500
28.233333	1	1.484500
28.250000	1	1.370625
28.266667	1	1.265250
28.283333	1	1.167750
28.300000	1	1.077875
28.316667	1	0.996125
28.333333	1	0.921000
28.350000	1	0.853125
28.366667	1	0.792000
28.383333	1	0.737000
28.400000	1	0.687375
28.416667	1	0.643375
28.433333	1	0.604000
28.450000	1	0.569625
28.466667	1	0.539625
28.483333	1	0.513375
28.500000	1	0.491375
28.516667	1	0.472250
28.533333	1	0.457375
28.550000	1	0.445750
28.566667	1	0.435750
28.583333	1	0.429250
28.600000	1	0.425625
28.616667	1	0.424375
28.633333	1	0.424125
28.650000	1	0.426500
28.666667	1	0.430000
28.683333	1	0.435000
28.700000	1	0.441000
28.716667	1	0.448500
28.733333	1	0.456375
28.750000	1	0.464625
28.766667	1	0.474250
28.783333	1	0.483625
28.800000	1	0.492625
28.816667	1	0.501500
28.833333	1	0.510625
28.850000	1	0.518625
28.866667	1	0.526500
28.883333	1	0.533750
28.900000	1	0.540500
28.916667	1	0.546000
28.933333	1	0.550125
28.950000	1	0.553375
28.966667	1	0.555500
28.983333	1	0.555750
29.000000	1	0.554875
29.016667	1	0.552250
29.033333	1	0.548125
29.050000	1	0.542250
29.066667	1	0.533875
29.083333	1	0.524250
29.100000	1	0.512625
29.116667	1	0.498375
29.133333	1	0.481625
29.150000	1	0.462625
29.166667	1	0.441125
29.183333	1	0.416875
29.200000	1	0.390375
29.216667	1	0.361000
29.233333	1	0.329000
29.250000	1	0.293250
29.266667	1	0.254500
29.283333	1	0.212750
29.300000	1	0.167500
29.316667	1	0.118250
29.333333	1	0.066500
29.350000	1	0.012750
29.366667	1	-0.044500
29.383333	1	-0.104875
29.400000	1	-0.167750
29.416667	1	-0.233250
29.433333	1	-0.300125
29.450000	1	-0.369875
29.466667	1	-0.439750
29.483333	1	-0.511375
29.500000	1	-0.583250
29.516667	1	-0.654375
29.533333	1	-0.724125
29.550000	1	-0.793250
29.566667	1	-0.860000
29.583333	1	-0.923500
29.600000	1	-0.984000
29.616667	1	-1.041000
29.633333	1	-1.093250
29.650000	1	-1.140250
29.666667	1	-1.182625
29.683333	1	-1.218750
29.700000	1	-1.249000
29.716667	1	-1.274375
29.733333	1	-1.292750
29.750000	1	-1.304375
29.766667	1	-1.309625
29.783333	1	-1.309000
29.800000	1	-1.301250
29.816667	1	-1.287375
29.833333	1	-1.268375
29.850000	1	-1.244500
29.866667	1	-1.215500
29.883333	1	-1.182000
29.900000	1	-1.144250
29.916667	1	-1.103500
29.933333	1	-1.059750
29.950000	1	-1.014125
29.966667	1	-0.965875
29.983333	1	-0.916375
30.000000	1	-0.866000
30.016667	1	-0.815375
30.033333	1	-0.764000
30.050000	1	-0.712250
30.066667	1	-0.661875
30.083333	1	-0.612500
30.100000	1	-0.564000
30.116667	1	-0.517000
30.133333	1	-0.471250
30.150000	1	-0.428375
30.166667	1	-0.386250
30.183333	1	-0.346750
30.200000	1	-0.309250
30.216667	1	-0.273500
30.233333	1	-0.239875
30.250000	1	-0.208750
30.266667	1	-0.178750
30.283333	1	-0.151625
30.300000	1	-0.125875
30.316667	1	-0.102250
30.333333	1	-0.080625
30.350000	1	-0.060750
30.366667	1	-0.042500
30.383333	1	-0.025125
30.400000	1	-0.009375
30.416667	1	0.005625
30.433333	1	0.019125
30.450000	1	0.032750
30.466667	1	0.045000
30.483333	1	0.056875
30.500000	1	0.067125
30.516667	1	0.077000
30.533333	1	0.086375
30.550000	1	0.095875
30.566667	1	0.103875
30.583333	1	0.112250
30.600000	1	0.121250
30.616667	1	0.129750
30.633333	1	0.138000
30.650000	1	0.146375
30.666667	1	0.154750
30.683333	1	0.163625
30.700000	1	0.171875
30.716667	1	0.181250
30.733333	1	0.189750
30.750000	1	0.199125
30.766667	1	0.209125
30.783333	1	0.218625
30.800000	1	0.229000
30.816667	1	0.238500
30.833333	1	0.249500
30.850000	1	0.260875
30.866667	1	0.272875
30.883333	1	0.286375
30.900000	1	0.300625
30.916667	1	0.316250
30.933333	1	0.333375
30.950000	1	0.352500
30.966667	1	0.374375
30.983333	1	0.400375
31.000000	1	0.429875
31.016667	1	0.463125
31.033333	1	0.502750
31.050000	1	0.548375
31.066667	1	0.601625
31.083333	1	0.663250
31.100000	1	0.733250
31.116667	1	0.814875
31.133333	1	0.907375
31.150000	1	1.013500
31.166667	1	1.133375
31.183333	1	1.268750
31.200000	1	1.421125
31.216667	1	1.589875
31.233333	1	1.775625
31.250000	1	1.980125
31.266667	1	2.202750
31.283333	1	2.442250
31.300000	1	2.698875
31.316667	1	2.970750
31.333333	1	3.256500
31.350000	1	3.554500
31.366667	1	3.863000
31.383333	1	4.178625
31.400000	1	4.498875
31.416667	1	4.819875
31.433333	1	5.138625
31.450000	1	5.449875
31.466667	1	5.750875
31.483333	1	6.036375
31.500000	1	6.303250
31.516667	1	6.547625
31.533333	1	6.766625
31.550000	1	6.957875
31.566667	1	7.119000
31.583333	1	7.248000
31.600000	1	7.343875
31.616667	1	7.405875
31.633333	1	7.432875
31.650000	1	7.425875
31.666667	1	7.385250
31.683333	1	7.311625
31.700000	1	7.208875
31.716667	1	7.078125
31.733333	1	6.922125
31.750000	1	6.743375
31.766667	1	6.544500
31.783333	1	6.328125
31.800000	1	6.096625
31.816667	1	5.853750
31.833333	1	5.602500
31.850000	1	5.345375
31.866667	1	5.084875
31.883333	1	4.823875
31.900000	1	4.564625
31.916667	1	4.308000
31.933333	1	4.057125
31.950000	1	3.811750
31.966667	1	3.573625
31.983333	1	3.343625
32.000000	1	3.122250
32.016667	1	2.910125
32.033333	1	2.707375
32.050000	1	2.514750
32.066667	1	2.332375
32.083333	1	2.159750
32.100000	1	1.998125
32.116667	1	1.846000
32.133333	1	1.703375
32.150000	1	1.569750
32.166667	1	1.444750
32.183333	1	1.328750
32.200000	1	1.220625
32.216667	1	1.120000
32.233333	1	1.026375
32.250000	1	0.940250
32.266667	1	0.861125
32.283333	1	0.788250
32.300000	1	0.719875
32.316667	1	0.657250
32.333333	1	0.599750
32.350000	1	0.547125
32.366667	1	0.499375
32.383333	1	0.455750
32.400000	1	0.415250
32.416667	1	0.378375
32.433333	1	0.344375
32.450000	1	0.314250
32.466667	1	0.286500
32.483333	1	0.261625
32.500000	1	0.239125
32.516667	1	0.219000
32.533333	1	0.199500
32.550000	1	0.181875
32.566667	1	0.166000
32.583333	1	0.152500
32.600000	1	0.139625
32.616667	1	0.128125
32.633333	1	0.117750
32.650000	1	0.108250
32.666667	1	0.099500
32.683333	1	0.091125
32.700000	1	0.083875
32.716667	1	0.077125
32.733333	1	0.071500
32.750000	1	0.066000
32.766667	1	0.061250
32.783333	1	0.056750
32.800000	1	0.053000
32.816667	1	0.048875
32.833333	1	0.045500
32.850000	1	0.042375
32.866667	1	0.040250
32.883333	1	0.037750
32.900000	1	0.036125
32.916667	1	0.034250
32.933333	1	0.032875
32.950000	1	0.031500
32.966667	1	0.031000
32.983333	1	0.030625
33.000000	1	0.030375
33.016667	1	0.030375
33.033333	1	0.030875
33.050000	1	0.030625
33.066667	1	0.031000
33.083333	1	0.031375
33.100000	1	0.031750
33.116667	1	0.032125
33.133333	1	0.032250
33.150000	1	0.032500
33.166667	1	0.032750
33.183333	1	0.032625
33.200000	1	0.033375
33.216667	1	0.033750
33.233333	1	0.034250
33.250000	1	0.034375
33.266667	1	0.034500
33.283333	1	0.034375
33.300000	1	0.034250
33.316667	1	0.034500
33.333333	1	0.034375
33.350000	1	0.034625
33.366667	1	0.034625
33.383333	1	0.034500
33.400000	1	0.034875
33.416667	1	0.035375
33.433333	1	0.035500
33.450000	1	0.035500
33.466667	1	0.036250
33.483333	1	0.037750
33.500000	1	0.038875
33.516667	1	0.039750
33.533333	1	0.041625
33.550000	1	0.042875
33.566667	1	0.044500
33.583333	1	0.046125
33.600000	1	0.048750
33.616667	1	0.051000
33.633333	1	0.054125
33.650000	1	0.057000
33.666667	1	0.060375
33.683333	1	0.063250
33.700000	1	0.065875
33.716667	1	0.069625
33.733333	1	0.073000
33.750000	1	0.076500
33.766667	1	0.079625
33.783333	1	0.083375
33.800000	1	0.087000
33.816667	1	0.091000
33.833333	1	0.094125
33.850000	1	0.097250
33.866667	1	0.099375
33.883333	1	0.102000
33.900000	1	0.104625
33.916667	1	0.107000
33.933333	1	0.109500
33.950000	1	0.112125
33.966667	1	0.114625
33.983333	1	0.116375
34.000000	1	0.117875
34.016667	1	0.119375
34.033333	1	0.120625
34.050000	1	0.122875
34.066667	1	0.123875
34.083333	1	0.125250
34.100000	1	0.126875
34.116667	1	0.127500
34.133333	1	0.128250
34.150000	1	0.129625
34.166667	1	0.131000
34.183333	1	0.131500
34.200000	1	0.133125
34.216667	1	0.133375
34.233333	1	0.134000
34.250000	1	0.135125
34.266667	1	0.135875
34.283333	1	0.136625
34.300000	1	0.137875
34.316667	1	0.138625
34.333333	1	0.139250
34.350000	1	0.139875
34.366667	1	0.140875
34.383333	1	0.141625
34.400000	1	0.142500
34.416667	1	0.143750
34.433333	1	0.144875
34.450000	1	0.145000
34.466667	1	0.145500
34.483333	1	0.145750
34.500000	1	0.146250
34.516667	1	0.147500
34.533333	1	0.147875
34.550000	1	0.148125
34.566667	1	0.147875
34.583333	1	0.147625
34.600000	1	0.148125
34.616667	1	0.147875
34.633333	1	0.147625
34.650000	1	0.147250
34.666667	1	0.146500
34.683333	1	0.146250
34.700000	1	0.145750
34.716667	1	0.145250
34.733333	1	0.144125
34.750000	1	0.144125
34.766667	1	0.143250
34.783333	1	0.142750
34.800000	1	0.141625
34.816667	1	0.140500
34.833333	1	0.138250
34.850000	1	0.137375
34.866667	1	0.135875
34.883333	1	0.134375
34.900000	1	0.133125
34.916667	1	0.131000
34.933333	1	0.128375
34.950000	1	0.126125
34.966667	1	0.123750
34.983333	1	0.121625
35.000000	1	0.119250
35.016667	1	0.117375
35.033333	1	0.114625
35.050000	1	0.111750
35.066667	1	0.108875
35.083333	1	0.106500
35.100000	1	0.104000
35.116667	1	0.101750
35.133333	1	0.098750
35.150000	1	0.096875
35.166667	1	0.094625
35.183333	1	0.092125
35.200000	1	0.090125
35.216667	1	0.088125
35.233333	1	0.085750
35.250000	1	0.083875
35.266667	1	0.082000
35.283333	1	0.081000
35.300000	1	0.079875
35.316667	1	0.079250
35.333333	1	0.078375
35.350000	1	0.078000
35.366667	1	0.077250
35.383333	1	0.076625
35.400000	1	0.076875
35.416667	1	0.075750
35.433333	1	0.075750
35.450000	1	0.076125
35.466667	1	0.076375
35.483333	1	0.076750
35.500000	1	0.077750
35.516667	1	0.078875
35.533333	1	0.080125
35.550000	1	0.080375
35.566667	1	0.081500
35.583333	1	0.082375
35.600000	1	0.083500
35.616667	1	0.084500
35.633333	1	0.086250
35.650000	1	0.087125
35.666667	1	0.088125
35.683333	1	0.089250
35.700000	1	0.091125
35.716667	1	0.092500
35.733333	1	0.093875
35.750000	1	0.095125
35.766667	1	0.096125
35.783333	1	0.097375
35.800000	1	0.098625
35.816667	1	0.099000
35.833333	1	0.099250
35.850000	1	0.099625
35.866667	1	0.099750
35.883333	1	0.099625
35.900000	1	0.099625
35.916667	1	0.099875
35.933333	1	0.100500
35.950000	1	0.100000
35.966667	1	0.099875
35.983333	1	0.099375
36.000000	1	0.098875
36.016667	1	0.098500
36.033333	1	0.097875
36.050000	1	0.097375
36.066667	1	0.096750
36.083333	1	0.096125
36.100000	1	0.095750
36.116667	1	0.094875
36.133333	1	0.093375
36.150000	1	0.092625
36.166667	1	0.092125
36.183333	1	0.091250
36.200000	1	0.090000
36.216667	1	0.088125
36.233333	1	0.087250
36.250000	1	0.086625
36.266667	1	0.085250
36.283333	1	0.084750
36.300000	1	0.084125
36.316667	1	0.083625
36.333333	1	0.083750
36.350000	1	0.083000
36.366667	1	0.082125
36.383333	1	0.081875
36.400000	1	0.081750
36.416667	1	0.081500
36.433333	1	0.081125
36.450000	1	0.081000
36.466667	1	0.082125
36.483333	1	0.082125
36.500000	1	0.082250
36.516667	1	0.082500
36.533333	1	0.083125
36.550000	1	0.083750
36.566667	1	0.084375
36.583333	1	0.084625
36.600000	1	0.085750
36.616667	1	0.087125
36.633333	1	0.087500
36.650000	1	0.088375
36.666667	1	0.089000
36.683333	1	0.089375
36.700000	1	0.089875
36.716667	1	0.090000
36.733333	1	0.089875
36.750000	1	0.090625
36.766667	1	0.090625
36.783333	1	0.090750
36.800000	1	0.090625
36.816667	1	0.090625
36.833333	1	0.090500
36.850000	1	0.090000
36.866667	1	0.089500
36.883333	1	0.089250
36.900000	1	0.088125
36.916667	1	0.087750
36.933333	1	0.087750
36.950000	1	0.088250
36.966667	1	0.088125
36.983333	1	0.087750
37.000000	1	0.087500
37.016667	1	0.087125
37.033333	1	0.087375
37.050000	1	0.087375
37.066667	1	0.087125
37.083333	1	0.087000
37.100000	1	0.087500
37.116667	1	0.087750
37.133333	1	0.087875
37.150000	1	0.087875
37.166667	1	0.088000
37.183333	1	0.089125
37.200000	1	0.089500
37.216667	1	0.090625
37.233333	1	0.092375
37.250000	1	0.093500
37.266667	1	0.094500
37.283333	1	0.095750
37.300000	1	0.097625
37.316667	1	0.099375
37.333333	1	0.100625
37.350000	1	0.102500
37.366667	1	0.104125
37.383333	1	0.105625
37.400000	1	0.106500
37.416667	1	0.108750
37.433333	1	0.110750
37.450000	1	0.113125
37.466667	1	0.114125
37.483333	1	0.115750
37.500000	1	0.116625
37.516667	1	0.118000
37.533333	1	0.120000
37.550000	1	0.121125
37.566667	1	0.122375
37.583333	1	0.123000
37.600000	1	0.124625
37.616667	1	0.125375
37.633333	1	0.125500
37.650000	1	0.125500
37.666667	1	0.125875
37.683333	1	0.126000
37.700000	1	0.126125
37.716667	1	0.125750
37.733333	1	0.125500
37.750000	1	0.125000
37.766667	1	0.124375
37.783333	1	0.123250
37.800000	1	0.121750
37.816667	1	0.120500
37.833333	1	0.119625
37.850000	1	0.118750
37.866667	1	0.117375
37.883333	1	0.116375
37.900000	1	0.114750
37.916667	1	0.113250
37.933333	1	0.111625
37.950000	1	0.109250
37.966667	1	0.107750
37.983333	1	0.106000
38.000000	1	0.104000
38.016667	1	0.101750
38.033333	1	0.099750
38.050000	1	0.098875
38.066667	1	0.097500
38.083333	1	0.096500
38.100000	1	0.094750
38.116667	1	0.093625
38.133333	1	0.092250
38.150000	1	0.091250
38.166667	1	0.089750
38.183333	1	0.089000
38.200000	1	0.088375
38.216667	1	0.087625
38.233333	1	0.087000
38.250000	1	0.086750
38.266667	1	0.086375
38.283333	1	0.086625
38.300000	1	0.086750
38.316667	1	0.087250
38.333333	1	0.087625
38.350000	1	0.088625
38.366667	1	0.089375
38.383333	1	0.090125
38.400000	1	0.090625
38.416667	1	0.091625
38.433333	1	0.092625
38.450000	1	0.093000
38.466667	1	0.094375
38.483333	1	0.095375
38.500000	1	0.096875
38.516667	1	0.098000
38.533333	1	0.098875
38.550000	1	0.099375
38.566667	1	0.101125
38.583333	1	0.102000
38.600000	1	0.103375
38.616667	1	0.104125
38.633333	1	0.104750
38.650000	1	0.106125
38.666667	1	0.106375
38.683333	1	0.106375
38.700000	1	0.107250
38.716667	1	0.108375
38.733333	1	0.108625
38.750000	1	0.109125
38.766667	1	0.109750
38.783333	1	0.109875
38.800000	1	0.111250
38.816667	1	0.112125
38.833333	1	0.112125
38.850000	1	0.112750
38.866667	1	0.112875
38.883333	1	0.113625
38.900000	1	0.114000
38.916667	1	0.115125
38.933333	1	0.115250
38.950000	1	0.116250
38.966667	1	0.116500
38.983333	1	0.116375
39.000000	1	0.115875
39.016667	1	0.116250
39.033333	1	0.116000
39.050000	1	0.115875
39.066667	1	0.115875
39.083333	1	0.115375
39.100000	1	0.114750
39.116667	1	0.113625
39.133333	1	0.113375
39.150000	1	0.111000
39.166667	1	0.110250
39.183333	1	0.108750
39.200000	1	0.107000
39.216667	1	0.105125
39.233333	1	0.103250
39.250000	1	0.101000
39.266667	1	0.098625
39.283333	1	0.095625
39.300000	1	0.093250
39.316667	1	0.091250
39.333333	1	0.089375
39.350000	1	0.086875
39.366667	1	0.085125
39.383333	1	0.083375
39.400000	1	0.081500
39.416667	1	0.079125
39.433333	1	0.077125
39.450000	1	0.076000
39.466667	1	0.074625
39.483333	1	0.073250
39.500000	1	0.071250
39.516667	1	0.069875
39.533333	1	0.068750
39.550000	1	0.067500
39.566667	1	0.066375
39.583333	1	0.064750
39.600000	1	0.063375
39.616667	1	0.061750
39.633333	1	0.060875
39.650000	1	0.059875
39.666667	1	0.057750
39.683333	1	0.056750
39.700000	1	0.055250
39.716667	1	0.053875
39.733333	1	0.052500
39.750000	1	0.050500
39.766667	1	0.049125
39.783333	1	0.048000
39.800000	1	0.045875
39.816667	1	0.043875
39.833333	1	0.042375
39.850000	1	0.040250
39.866667	1	0.039375
39.883333	1	0.037000
39.900000	1	0.036000
39.916667	1	0.033375
39.933333	1	0.031750
39.950000	1	0.030625
39.966667	1	0.029250
39.983333	1	0.027875
40.000000	1	0.026250
