URL	chrom://7040-86g6c92/XVault/Ultimate_3000/20/20240517_CMO_FP23_FP25_MarkusDeplate.seq/343.smp/RI_1.channel/RI_1.chm
Channel	RI_1

Injection Information:
Data Vault	XVault
Sequence	20240517_CMO_FP23_FP25_MarkusDeplate
Name	FP25_25.1_s6
Number	46
Position	BD10
Comment	
Processing Method	
Instrument Method	run_25B_method
Type	Unknown
Status	Finished
Inject Time	29.05.2024 00:46:04 +02:00
Volume (µl)	20.0000
Dilution Factor	1.0000
Weight	1.0000

Chromatogram Data Information:
Time Min. (min)	0.000000
Time Max. (min)	40.000000
Data Points	2401
Detector	RI
Generating Data System	Chromeleon 7.3.2.11814
Exporting Data System	Chromeleon 7.3.2.0
Operator	Instrument Controller
Signal Quantity	Refractive 
Signal Unit	µRIU
Signal Min.	-0.963250
Signal Max.	61.892500
Channel	RI_1
Driver Name	RID520Driver.dll
Channel Type	Evaluation
Min. Step (s)	1
Max. Step (s)	1
Average Step (s)	1

Signal Parameter Information:
Signal Info	

Chromatogram Data:
Time (min)	Step (s)	Value (µRIU)
0.000000	n.a.	-0.074125
0.016667	1	-0.074625
0.033333	1	-0.075125
0.050000	1	-0.075500
0.066667	1	-0.076500
0.083333	1	-0.076875
0.100000	1	-0.077375
0.116667	1	-0.078250
0.133333	1	-0.079125
0.150000	1	-0.079125
0.166667	1	-0.080125
0.183333	1	-0.080625
0.200000	1	-0.081125
0.216667	1	-0.081375
0.233333	1	-0.082125
0.250000	1	-0.082375
0.266667	1	-0.083125
0.283333	1	-0.083250
0.300000	1	-0.083750
0.316667	1	-0.083875
0.333333	1	-0.083625
0.350000	1	-0.083625
0.366667	1	-0.084125
0.383333	1	-0.085750
0.400000	1	-0.086750
0.416667	1	-0.086875
0.433333	1	-0.085125
0.450000	1	-0.083375
0.466667	1	-0.081000
0.483333	1	-0.079250
0.500000	1	-0.077625
0.516667	1	-0.077250
0.533333	1	-0.076875
0.550000	1	-0.076250
0.566667	1	-0.077250
0.583333	1	-0.079500
0.600000	1	-0.080875
0.616667	1	-0.082375
0.633333	1	-0.083250
0.650000	1	-0.084000
0.666667	1	-0.084625
0.683333	1	-0.084750
0.700000	1	-0.084875
0.716667	1	-0.084875
0.733333	1	-0.085125
0.750000	1	-0.085375
0.766667	1	-0.085750
0.783333	1	-0.085625
0.800000	1	-0.086375
0.816667	1	-0.086500
0.833333	1	-0.086500
0.850000	1	-0.086500
0.866667	1	-0.086750
0.883333	1	-0.087375
0.900000	1	-0.088125
0.916667	1	-0.088625
0.933333	1	-0.089750
0.950000	1	-0.091000
0.966667	1	-0.092250
0.983333	1	-0.093625
1.000000	1	-0.094500
1.016667	1	-0.095750
1.033333	1	-0.096750
1.050000	1	-0.097875
1.066667	1	-0.098625
1.083333	1	-0.099000
1.100000	1	-0.099625
1.116667	1	-0.101125
1.133333	1	-0.102375
1.150000	1	-0.103250
1.166667	1	-0.103250
1.183333	1	-0.103500
1.200000	1	-0.103750
1.216667	1	-0.104500
1.233333	1	-0.104125
1.250000	1	-0.104375
1.266667	1	-0.104250
1.283333	1	-0.104250
1.300000	1	-0.103750
1.316667	1	-0.103875
1.333333	1	-0.103125
1.350000	1	-0.102750
1.366667	1	-0.102500
1.383333	1	-0.102000
1.400000	1	-0.102125
1.416667	1	-0.101875
1.433333	1	-0.101500
1.450000	1	-0.100500
1.466667	1	-0.099625
1.483333	1	-0.099250
1.500000	1	-0.098875
1.516667	1	-0.099375
1.533333	1	-0.099750
1.550000	1	-0.100250
1.566667	1	-0.100000
1.583333	1	-0.100250
1.600000	1	-0.101000
1.616667	1	-0.101625
1.633333	1	-0.102500
1.650000	1	-0.103250
1.666667	1	-0.103125
1.683333	1	-0.104000
1.700000	1	-0.104625
1.716667	1	-0.105500
1.733333	1	-0.106750
1.750000	1	-0.107625
1.766667	1	-0.108625
1.783333	1	-0.109500
1.800000	1	-0.110250
1.816667	1	-0.111375
1.833333	1	-0.112250
1.850000	1	-0.112750
1.866667	1	-0.113750
1.883333	1	-0.114250
1.900000	1	-0.115125
1.916667	1	-0.115375
1.933333	1	-0.115375
1.950000	1	-0.115500
1.966667	1	-0.115750
1.983333	1	-0.116125
2.000000	1	-0.115750
2.016667	1	-0.115750
2.033333	1	-0.115375
2.050000	1	-0.115375
2.066667	1	-0.114625
2.083333	1	-0.114500
2.100000	1	-0.114000
2.116667	1	-0.113000
2.133333	1	-0.112250
2.150000	1	-0.111875
2.166667	1	-0.111250
2.183333	1	-0.110500
2.200000	1	-0.109875
2.216667	1	-0.109000
2.233333	1	-0.108375
2.250000	1	-0.107375
2.266667	1	-0.106625
2.283333	1	-0.106250
2.300000	1	-0.105750
2.316667	1	-0.104750
2.333333	1	-0.104000
2.350000	1	-0.103750
2.366667	1	-0.103625
2.383333	1	-0.103500
2.400000	1	-0.103125
2.416667	1	-0.102625
2.433333	1	-0.102000
2.450000	1	-0.102125
2.466667	1	-0.101875
2.483333	1	-0.102000
2.500000	1	-0.102125
2.516667	1	-0.102125
2.533333	1	-0.102250
2.550000	1	-0.102125
2.566667	1	-0.102000
2.583333	1	-0.101750
2.600000	1	-0.101375
2.616667	1	-0.101625
2.633333	1	-0.101000
2.650000	1	-0.100875
2.666667	1	-0.101125
2.683333	1	-0.101250
2.700000	1	-0.101250
2.716667	1	-0.101750
2.733333	1	-0.102750
2.750000	1	-0.103125
2.766667	1	-0.103125
2.783333	1	-0.102625
2.800000	1	-0.102625
2.816667	1	-0.103125
2.833333	1	-0.103125
2.850000	1	-0.103000
2.866667	1	-0.103625
2.883333	1	-0.103750
2.900000	1	-0.104250
2.916667	1	-0.104500
2.933333	1	-0.104750
2.950000	1	-0.104375
2.966667	1	-0.104250
2.983333	1	-0.104625
3.000000	1	-0.105375
3.016667	1	-0.105875
3.033333	1	-0.106000
3.050000	1	-0.107000
3.066667	1	-0.107750
3.083333	1	-0.108500
3.100000	1	-0.108500
3.116667	1	-0.109000
3.133333	1	-0.109125
3.150000	1	-0.109500
3.166667	1	-0.109250
3.183333	1	-0.109625
3.200000	1	-0.109625
3.216667	1	-0.109875
3.233333	1	-0.109375
3.250000	1	-0.109750
3.266667	1	-0.109750
3.283333	1	-0.110125
3.300000	1	-0.110375
3.316667	1	-0.110625
3.333333	1	-0.110750
3.350000	1	-0.110625
3.366667	1	-0.109875
3.383333	1	-0.109500
3.400000	1	-0.109125
3.416667	1	-0.108500
3.433333	1	-0.108125
3.450000	1	-0.107500
3.466667	1	-0.106750
3.483333	1	-0.106375
3.500000	1	-0.105875
3.516667	1	-0.104625
3.533333	1	-0.103500
3.550000	1	-0.102875
3.566667	1	-0.101625
3.583333	1	-0.100750
3.600000	1	-0.100000
3.616667	1	-0.098500
3.633333	1	-0.097625
3.650000	1	-0.096375
3.666667	1	-0.095625
3.683333	1	-0.094500
3.700000	1	-0.093500
3.716667	1	-0.092875
3.733333	1	-0.092500
3.750000	1	-0.091750
3.766667	1	-0.090625
3.783333	1	-0.089125
3.800000	1	-0.087875
3.816667	1	-0.087375
3.833333	1	-0.086750
3.850000	1	-0.086000
3.866667	1	-0.085375
3.883333	1	-0.084750
3.900000	1	-0.083375
3.916667	1	-0.082750
3.933333	1	-0.081750
3.950000	1	-0.081750
3.966667	1	-0.081250
3.983333	1	-0.081375
4.000000	1	-0.080625
4.016667	1	-0.080625
4.033333	1	-0.079875
4.050000	1	-0.080000
4.066667	1	-0.079625
4.083333	1	-0.079375
4.100000	1	-0.078750
4.116667	1	-0.078500
4.133333	1	-0.078125
4.150000	1	-0.078000
4.166667	1	-0.078000
4.183333	1	-0.077375
4.200000	1	-0.077375
4.216667	1	-0.077125
4.233333	1	-0.077250
4.250000	1	-0.077000
4.266667	1	-0.077750
4.283333	1	-0.077625
4.300000	1	-0.077250
4.316667	1	-0.077125
4.333333	1	-0.077750
4.350000	1	-0.077375
4.366667	1	-0.077375
4.383333	1	-0.077500
4.400000	1	-0.077750
4.416667	1	-0.077375
4.433333	1	-0.077125
4.450000	1	-0.077125
4.466667	1	-0.077125
4.483333	1	-0.077500
4.500000	1	-0.078500
4.516667	1	-0.078875
4.533333	1	-0.078375
4.550000	1	-0.077875
4.566667	1	-0.077500
4.583333	1	-0.077500
4.600000	1	-0.076750
4.616667	1	-0.076625
4.633333	1	-0.075875
4.650000	1	-0.075625
4.666667	1	-0.074750
4.683333	1	-0.073750
4.700000	1	-0.072750
4.716667	1	-0.072125
4.733333	1	-0.071000
4.750000	1	-0.070000
4.766667	1	-0.068375
4.783333	1	-0.067125
4.800000	1	-0.065875
4.816667	1	-0.063750
4.833333	1	-0.062250
4.850000	1	-0.060500
4.866667	1	-0.058625
4.883333	1	-0.056000
4.900000	1	-0.053625
4.916667	1	-0.051375
4.933333	1	-0.049125
4.950000	1	-0.046125
4.966667	1	-0.043125
4.983333	1	-0.039875
5.000000	1	-0.037000
5.016667	1	-0.034000
5.033333	1	-0.031375
5.050000	1	-0.027625
5.066667	1	-0.024875
5.083333	1	-0.021125
5.100000	1	-0.017625
5.116667	1	-0.014125
5.133333	1	-0.010125
5.150000	1	-0.006250
5.166667	1	-0.001875
5.183333	1	0.001750
5.200000	1	0.005750
5.216667	1	0.010250
5.233333	1	0.014125
5.250000	1	0.018625
5.266667	1	0.022625
5.283333	1	0.026750
5.300000	1	0.031750
5.316667	1	0.036250
5.333333	1	0.040750
5.350000	1	0.044500
5.366667	1	0.048750
5.383333	1	0.052625
5.400000	1	0.057125
5.416667	1	0.061000
5.433333	1	0.065125
5.450000	1	0.068625
5.466667	1	0.072625
5.483333	1	0.076875
5.500000	1	0.080375
5.516667	1	0.084000
5.533333	1	0.087625
5.550000	1	0.092125
5.566667	1	0.096000
5.583333	1	0.100000
5.600000	1	0.103750
5.616667	1	0.108000
5.633333	1	0.111000
5.650000	1	0.114375
5.666667	1	0.117000
5.683333	1	0.119750
5.700000	1	0.122625
5.716667	1	0.125000
5.733333	1	0.127250
5.750000	1	0.129875
5.766667	1	0.132250
5.783333	1	0.134375
5.800000	1	0.135750
5.816667	1	0.137125
5.833333	1	0.138500
5.850000	1	0.139375
5.866667	1	0.140375
5.883333	1	0.140250
5.900000	1	0.140125
5.916667	1	0.140375
5.933333	1	0.139750
5.950000	1	0.139750
5.966667	1	0.138875
5.983333	1	0.138250
6.000000	1	0.137375
6.016667	1	0.136000
6.033333	1	0.134500
6.050000	1	0.132625
6.066667	1	0.132125
6.083333	1	0.130375
6.100000	1	0.128250
6.116667	1	0.126875
6.133333	1	0.124750
6.150000	1	0.122625
6.166667	1	0.120625
6.183333	1	0.118125
6.200000	1	0.116000
6.216667	1	0.114125
6.233333	1	0.111500
6.250000	1	0.108750
6.266667	1	0.106500
6.283333	1	0.104750
6.300000	1	0.102125
6.316667	1	0.099375
6.333333	1	0.096500
6.350000	1	0.094250
6.366667	1	0.091250
6.383333	1	0.088375
6.400000	1	0.085875
6.416667	1	0.083125
6.433333	1	0.080625
6.450000	1	0.078250
6.466667	1	0.076000
6.483333	1	0.073500
6.500000	1	0.070500
6.516667	1	0.068125
6.533333	1	0.065250
6.550000	1	0.062750
6.566667	1	0.060000
6.583333	1	0.057500
6.600000	1	0.056000
6.616667	1	0.054000
6.633333	1	0.051500
6.650000	1	0.048625
6.666667	1	0.046750
6.683333	1	0.044625
6.700000	1	0.042125
6.716667	1	0.040250
6.733333	1	0.039125
6.750000	1	0.037625
6.766667	1	0.036250
6.783333	1	0.034625
6.800000	1	0.033000
6.816667	1	0.030750
6.833333	1	0.029375
6.850000	1	0.027750
6.866667	1	0.026250
6.883333	1	0.025125
6.900000	1	0.024000
6.916667	1	0.023000
6.933333	1	0.022125
6.950000	1	0.021125
6.966667	1	0.019625
6.983333	1	0.018125
7.000000	1	0.016500
7.016667	1	0.015750
7.033333	1	0.014625
7.050000	1	0.013500
7.066667	1	0.012375
7.083333	1	0.011750
7.100000	1	0.010125
7.116667	1	0.009875
7.133333	1	0.009375
7.150000	1	0.009000
7.166667	1	0.008500
7.183333	1	0.008500
7.200000	1	0.009250
7.216667	1	0.010000
7.233333	1	0.011000
7.250000	1	0.011375
7.266667	1	0.011875
7.283333	1	0.012875
7.300000	1	0.014875
7.316667	1	0.016625
7.333333	1	0.018500
7.350000	1	0.021000
7.366667	1	0.023125
7.383333	1	0.025750
7.400000	1	0.028375
7.416667	1	0.030250
7.433333	1	0.033000
7.450000	1	0.035375
7.466667	1	0.038875
7.483333	1	0.041875
7.500000	1	0.044875
7.516667	1	0.048000
7.533333	1	0.051250
7.550000	1	0.054375
7.566667	1	0.057000
7.583333	1	0.059000
7.600000	1	0.061125
7.616667	1	0.063625
7.633333	1	0.065500
7.650000	1	0.067250
7.666667	1	0.068500
7.683333	1	0.069125
7.700000	1	0.070000
7.716667	1	0.070750
7.733333	1	0.070875
7.750000	1	0.070750
7.766667	1	0.070125
7.783333	1	0.069250
7.800000	1	0.068625
7.816667	1	0.067125
7.833333	1	0.064875
7.850000	1	0.063125
7.866667	1	0.061625
7.883333	1	0.059250
7.900000	1	0.056375
7.916667	1	0.053375
7.933333	1	0.050125
7.950000	1	0.047875
7.966667	1	0.043875
7.983333	1	0.040500
8.000000	1	0.036500
8.016667	1	0.032000
8.033333	1	0.027750
8.050000	1	0.023375
8.066667	1	0.019500
8.083333	1	0.015250
8.100000	1	0.011250
8.116667	1	0.007250
8.133333	1	0.003750
8.150000	1	-0.000750
8.166667	1	-0.003875
8.183333	1	-0.008125
8.200000	1	-0.011875
8.216667	1	-0.016125
8.233333	1	-0.019875
8.250000	1	-0.024125
8.266667	1	-0.027375
8.283333	1	-0.030250
8.300000	1	-0.033625
8.316667	1	-0.036000
8.333333	1	-0.039125
8.350000	1	-0.041250
8.366667	1	-0.043875
8.383333	1	-0.046375
8.400000	1	-0.049000
8.416667	1	-0.050875
8.433333	1	-0.053000
8.450000	1	-0.054625
8.466667	1	-0.057125
8.483333	1	-0.058750
8.500000	1	-0.060250
8.516667	1	-0.061000
8.533333	1	-0.061875
8.550000	1	-0.062500
8.566667	1	-0.063375
8.583333	1	-0.063875
8.600000	1	-0.064875
8.616667	1	-0.065125
8.633333	1	-0.065875
8.650000	1	-0.065875
8.666667	1	-0.065375
8.683333	1	-0.064500
8.700000	1	-0.064125
8.716667	1	-0.064000
8.733333	1	-0.063000
8.750000	1	-0.062250
8.766667	1	-0.061500
8.783333	1	-0.060125
8.800000	1	-0.058625
8.816667	1	-0.057125
8.833333	1	-0.056375
8.850000	1	-0.055250
8.866667	1	-0.053625
8.883333	1	-0.052125
8.900000	1	-0.050250
8.916667	1	-0.049125
8.933333	1	-0.047375
8.950000	1	-0.045875
8.966667	1	-0.044000
8.983333	1	-0.042125
9.000000	1	-0.040125
9.016667	1	-0.039125
9.033333	1	-0.037875
9.050000	1	-0.037000
9.066667	1	-0.036250
9.083333	1	-0.035000
9.100000	1	-0.033750
9.116667	1	-0.032125
9.133333	1	-0.030875
9.150000	1	-0.030125
9.166667	1	-0.029375
9.183333	1	-0.028750
9.200000	1	-0.028000
9.216667	1	-0.027875
9.233333	1	-0.026875
9.250000	1	-0.026375
9.266667	1	-0.026125
9.283333	1	-0.025250
9.300000	1	-0.024000
9.316667	1	-0.023875
9.333333	1	-0.023500
9.350000	1	-0.022625
9.366667	1	-0.022375
9.383333	1	-0.022625
9.400000	1	-0.022000
9.416667	1	-0.021375
9.433333	1	-0.020750
9.450000	1	-0.021000
9.466667	1	-0.020750
9.483333	1	-0.021125
9.500000	1	-0.021250
9.516667	1	-0.021250
9.533333	1	-0.021750
9.550000	1	-0.022000
9.566667	1	-0.022000
9.583333	1	-0.022250
9.600000	1	-0.022250
9.616667	1	-0.022875
9.633333	1	-0.023500
9.650000	1	-0.025000
9.666667	1	-0.025625
9.683333	1	-0.027000
9.700000	1	-0.028250
9.716667	1	-0.029500
9.733333	1	-0.030125
9.750000	1	-0.031625
9.766667	1	-0.033750
9.783333	1	-0.036000
9.800000	1	-0.038125
9.816667	1	-0.039625
9.833333	1	-0.041625
9.850000	1	-0.044125
9.866667	1	-0.047500
9.883333	1	-0.050500
9.900000	1	-0.053375
9.916667	1	-0.055750
9.933333	1	-0.058375
9.950000	1	-0.060625
9.966667	1	-0.062375
9.983333	1	-0.064500
10.000000	1	-0.066125
10.016667	1	-0.067500
10.033333	1	-0.068000
10.050000	1	-0.068625
10.066667	1	-0.067750
10.083333	1	-0.066000
10.100000	1	-0.062625
10.116667	1	-0.058500
10.133333	1	-0.053000
10.150000	1	-0.047500
10.166667	1	-0.040250
10.183333	1	-0.032250
10.200000	1	-0.022000
10.216667	1	-0.010125
10.233333	1	0.003875
10.250000	1	0.019000
10.266667	1	0.036250
10.283333	1	0.056875
10.300000	1	0.079875
10.316667	1	0.106125
10.333333	1	0.135500
10.350000	1	0.168875
10.366667	1	0.205750
10.383333	1	0.247000
10.400000	1	0.291125
10.416667	1	0.334875
10.433333	1	0.372000
10.450000	1	0.390875
10.466667	1	0.380750
10.483333	1	0.335250
10.500000	1	0.259875
10.516667	1	0.185500
10.533333	1	0.166500
10.550000	1	0.284500
10.566667	1	0.634500
10.583333	1	1.317375
10.600000	1	2.423125
10.616667	1	4.026125
10.633333	1	6.178125
10.650000	1	8.907750
10.666667	1	12.224750
10.683333	1	16.116875
10.700000	1	20.541750
10.716667	1	25.419375
10.733333	1	30.616625
10.750000	1	35.933250
10.766667	1	41.082250
10.783333	1	45.690000
10.800000	1	49.316500
10.816667	1	51.531500
10.833333	1	52.027625
10.850000	1	50.728000
10.866667	1	47.819875
10.883333	1	43.705625
10.900000	1	38.888875
10.916667	1	33.843125
10.933333	1	28.937875
10.950000	1	24.411375
10.966667	1	20.390875
10.983333	1	16.920250
11.000000	1	13.992250
11.016667	1	11.566250
11.033333	1	9.585875
11.050000	1	7.986875
11.066667	1	6.705000
11.083333	1	5.679750
11.100000	1	4.861625
11.116667	1	4.206375
11.133333	1	3.680000
11.150000	1	3.254125
11.166667	1	2.907125
11.183333	1	2.621625
11.200000	1	2.384750
11.216667	1	2.185875
11.233333	1	2.018125
11.250000	1	1.875750
11.266667	1	1.753250
11.283333	1	1.647500
11.300000	1	1.555375
11.316667	1	1.475750
11.333333	1	1.405250
11.350000	1	1.343500
11.366667	1	1.289250
11.383333	1	1.241625
11.400000	1	1.199250
11.416667	1	1.162000
11.433333	1	1.128250
11.450000	1	1.097750
11.466667	1	1.070750
11.483333	1	1.046000
11.500000	1	1.024750
11.516667	1	1.004625
11.533333	1	0.985625
11.550000	1	0.968750
11.566667	1	0.954125
11.583333	1	0.941000
11.600000	1	0.929500
11.616667	1	0.919000
11.633333	1	0.910750
11.650000	1	0.903875
11.666667	1	0.898500
11.683333	1	0.894750
11.700000	1	0.893375
11.716667	1	0.892875
11.733333	1	0.894000
11.750000	1	0.896250
11.766667	1	0.900125
11.783333	1	0.904125
11.800000	1	0.909000
11.816667	1	0.914500
11.833333	1	0.919750
11.850000	1	0.925000
11.866667	1	0.929625
11.883333	1	0.933750
11.900000	1	0.937375
11.916667	1	0.941500
11.933333	1	0.945125
11.950000	1	0.949250
11.966667	1	0.953500
11.983333	1	0.957875
12.000000	1	0.963625
12.016667	1	0.969125
12.033333	1	0.975500
12.050000	1	0.982875
12.066667	1	0.990500
12.083333	1	0.998750
12.100000	1	1.006750
12.116667	1	1.016500
12.133333	1	1.026375
12.150000	1	1.037250
12.166667	1	1.048500
12.183333	1	1.060250
12.200000	1	1.073875
12.216667	1	1.088000
12.233333	1	1.103000
12.250000	1	1.120375
12.266667	1	1.139250
12.283333	1	1.160000
12.300000	1	1.183875
12.316667	1	1.209625
12.333333	1	1.238625
12.350000	1	1.272375
12.366667	1	1.312000
12.383333	1	1.359500
12.400000	1	1.419625
12.416667	1	1.494875
12.433333	1	1.589750
12.450000	1	1.707375
12.466667	1	1.852375
12.483333	1	2.028375
12.500000	1	2.237375
12.516667	1	2.480875
12.533333	1	2.759125
12.550000	1	3.071750
12.566667	1	3.418000
12.583333	1	3.797500
12.600000	1	4.207000
12.616667	1	4.643875
12.633333	1	5.106875
12.650000	1	5.594250
12.666667	1	6.103750
12.683333	1	6.632750
12.700000	1	7.180875
12.716667	1	7.745250
12.733333	1	8.323625
12.750000	1	8.916625
12.766667	1	9.522875
12.783333	1	10.141125
12.800000	1	10.769500
12.816667	1	11.402625
12.833333	1	12.027500
12.850000	1	12.607500
12.866667	1	13.074125
12.883333	1	13.328625
12.900000	1	13.268375
12.916667	1	12.833125
12.933333	1	12.033250
12.950000	1	10.955375
12.966667	1	9.728625
12.983333	1	8.479750
13.000000	1	7.302875
13.016667	1	6.249250
13.033333	1	5.338500
13.050000	1	4.569125
13.066667	1	3.931750
13.083333	1	3.410750
13.100000	1	2.989250
13.116667	1	2.652250
13.133333	1	2.383625
13.150000	1	2.170375
13.166667	1	2.000875
13.183333	1	1.865875
13.200000	1	1.757000
13.216667	1	1.668500
13.233333	1	1.594875
13.250000	1	1.532875
13.266667	1	1.479875
13.283333	1	1.433125
13.300000	1	1.391375
13.316667	1	1.353500
13.333333	1	1.319125
13.350000	1	1.288875
13.366667	1	1.260250
13.383333	1	1.235125
13.400000	1	1.211750
13.416667	1	1.191125
13.433333	1	1.173750
13.450000	1	1.158375
13.466667	1	1.145875
13.483333	1	1.135500
13.500000	1	1.127500
13.516667	1	1.122375
13.533333	1	1.118625
13.550000	1	1.115500
13.566667	1	1.113125
13.583333	1	1.110500
13.600000	1	1.107500
13.616667	1	1.102000
13.633333	1	1.095500
13.650000	1	1.086625
13.666667	1	1.074875
13.683333	1	1.062125
13.700000	1	1.047250
13.716667	1	1.031250
13.733333	1	1.013875
13.750000	1	0.994875
13.766667	1	0.977750
13.783333	1	0.960875
13.800000	1	0.944250
13.816667	1	0.927875
13.833333	1	0.911625
13.850000	1	0.896500
13.866667	1	0.882250
13.883333	1	0.868625
13.900000	1	0.855750
13.916667	1	0.843500
13.933333	1	0.831875
13.950000	1	0.821000
13.966667	1	0.810375
13.983333	1	0.800750
14.000000	1	0.791375
14.016667	1	0.782500
14.033333	1	0.774375
14.050000	1	0.767000
14.066667	1	0.760125
14.083333	1	0.752625
14.100000	1	0.746500
14.116667	1	0.740250
14.133333	1	0.734625
14.150000	1	0.729625
14.166667	1	0.725875
14.183333	1	0.722000
14.200000	1	0.718750
14.216667	1	0.715125
14.233333	1	0.713625
14.250000	1	0.712875
14.266667	1	0.714000
14.283333	1	0.714625
14.300000	1	0.716875
14.316667	1	0.719375
14.333333	1	0.723000
14.350000	1	0.728500
14.366667	1	0.735250
14.383333	1	0.743500
14.400000	1	0.754250
14.416667	1	0.768250
14.433333	1	0.787125
14.450000	1	0.815250
14.466667	1	0.857500
14.483333	1	0.923125
14.500000	1	1.026250
14.516667	1	1.186625
14.533333	1	1.433500
14.550000	1	1.806125
14.566667	1	2.352125
14.583333	1	3.131875
14.600000	1	4.214000
14.616667	1	5.676000
14.633333	1	7.596875
14.650000	1	10.049125
14.666667	1	13.084625
14.683333	1	16.726625
14.700000	1	20.957375
14.716667	1	25.710000
14.733333	1	30.867000
14.750000	1	36.261000
14.766667	1	41.678250
14.783333	1	46.875625
14.800000	1	51.609375
14.816667	1	55.649625
14.833333	1	58.797500
14.850000	1	60.905500
14.866667	1	61.892500
14.883333	1	61.750375
14.900000	1	60.545000
14.916667	1	58.399625
14.933333	1	55.479875
14.950000	1	51.973000
14.966667	1	48.075250
14.983333	1	43.974875
15.000000	1	39.826750
15.016667	1	35.760750
15.033333	1	31.874500
15.050000	1	28.236375
15.066667	1	24.889375
15.083333	1	21.853375
15.100000	1	19.131625
15.116667	1	16.712625
15.133333	1	14.575875
15.150000	1	12.696875
15.166667	1	11.051000
15.183333	1	9.614500
15.200000	1	8.362750
15.216667	1	7.275000
15.233333	1	6.333750
15.250000	1	5.522750
15.266667	1	4.827125
15.283333	1	4.235375
15.300000	1	3.735000
15.316667	1	3.317125
15.333333	1	2.971500
15.350000	1	2.689875
15.366667	1	2.464500
15.383333	1	2.285875
15.400000	1	2.146125
15.416667	1	2.038750
15.433333	1	1.956375
15.450000	1	1.892250
15.466667	1	1.841125
15.483333	1	1.797625
15.500000	1	1.758125
15.516667	1	1.719750
15.533333	1	1.680875
15.550000	1	1.640375
15.566667	1	1.598250
15.583333	1	1.554250
15.600000	1	1.510000
15.616667	1	1.465250
15.633333	1	1.422375
15.650000	1	1.381250
15.666667	1	1.342500
15.683333	1	1.306250
15.700000	1	1.272500
15.716667	1	1.241500
15.733333	1	1.212750
15.750000	1	1.185750
15.766667	1	1.160250
15.783333	1	1.136750
15.800000	1	1.114125
15.816667	1	1.093375
15.833333	1	1.073000
15.850000	1	1.053875
15.866667	1	1.036500
15.883333	1	1.020375
15.900000	1	1.006375
15.916667	1	0.994000
15.933333	1	0.983250
15.950000	1	0.975125
15.966667	1	0.968000
15.983333	1	0.962750
16.000000	1	0.960000
16.016667	1	0.958250
16.033333	1	0.958250
16.050000	1	0.958875
16.066667	1	0.961625
16.083333	1	0.964375
16.100000	1	0.966125
16.116667	1	0.968875
16.133333	1	0.971375
16.150000	1	0.973375
16.166667	1	0.974125
16.183333	1	0.974375
16.200000	1	0.973750
16.216667	1	0.971625
16.233333	1	0.968375
16.250000	1	0.964375
16.266667	1	0.959375
16.283333	1	0.953750
16.300000	1	0.947875
16.316667	1	0.941250
16.333333	1	0.935125
16.350000	1	0.929625
16.366667	1	0.924625
16.383333	1	0.920875
16.400000	1	0.918875
16.416667	1	0.917875
16.433333	1	0.917500
16.450000	1	0.919125
16.466667	1	0.921125
16.483333	1	0.924125
16.500000	1	0.927125
16.516667	1	0.929375
16.533333	1	0.930500
16.550000	1	0.929750
16.566667	1	0.928375
16.583333	1	0.924875
16.600000	1	0.919875
16.616667	1	0.914375
16.633333	1	0.908000
16.650000	1	0.901500
16.666667	1	0.894625
16.683333	1	0.888375
16.700000	1	0.883375
16.716667	1	0.879875
16.733333	1	0.878500
16.750000	1	0.879500
16.766667	1	0.882125
16.783333	1	0.887750
16.800000	1	0.893375
16.816667	1	0.900500
16.833333	1	0.907625
16.850000	1	0.914750
16.866667	1	0.920750
16.883333	1	0.926375
16.900000	1	0.930500
16.916667	1	0.932625
16.933333	1	0.932625
16.950000	1	0.931125
16.966667	1	0.928375
16.983333	1	0.924000
17.000000	1	0.919500
17.016667	1	0.913875
17.033333	1	0.908375
17.050000	1	0.902750
17.066667	1	0.897625
17.083333	1	0.893000
17.100000	1	0.889000
17.116667	1	0.885750
17.133333	1	0.884375
17.150000	1	0.883125
17.166667	1	0.882875
17.183333	1	0.883125
17.200000	1	0.885125
17.216667	1	0.887500
17.233333	1	0.890500
17.250000	1	0.893500
17.266667	1	0.897000
17.283333	1	0.901500
17.300000	1	0.906500
17.316667	1	0.912250
17.333333	1	0.917000
17.350000	1	0.923250
17.366667	1	0.929250
17.383333	1	0.934750
17.400000	1	0.939250
17.416667	1	0.943750
17.433333	1	0.946750
17.450000	1	0.948625
17.466667	1	0.948375
17.483333	1	0.946750
17.500000	1	0.944750
17.516667	1	0.940875
17.533333	1	0.934875
17.550000	1	0.927500
17.566667	1	0.918625
17.583333	1	0.907500
17.600000	1	0.896250
17.616667	1	0.883500
17.633333	1	0.870500
17.650000	1	0.856125
17.666667	1	0.840750
17.683333	1	0.826125
17.700000	1	0.811125
17.716667	1	0.796125
17.733333	1	0.782250
17.750000	1	0.767875
17.766667	1	0.754125
17.783333	1	0.741125
17.800000	1	0.728750
17.816667	1	0.718250
17.833333	1	0.708750
17.850000	1	0.699750
17.866667	1	0.691875
17.883333	1	0.685125
17.900000	1	0.678500
17.916667	1	0.672500
17.933333	1	0.667375
17.950000	1	0.662875
17.966667	1	0.657750
17.983333	1	0.652750
18.000000	1	0.648000
18.016667	1	0.643375
18.033333	1	0.638500
18.050000	1	0.633375
18.066667	1	0.629125
18.083333	1	0.625000
18.100000	1	0.621500
18.116667	1	0.619000
18.133333	1	0.616500
18.150000	1	0.614750
18.166667	1	0.613500
18.183333	1	0.613250
18.200000	1	0.613500
18.216667	1	0.613625
18.233333	1	0.614000
18.250000	1	0.614125
18.266667	1	0.614500
18.283333	1	0.614625
18.300000	1	0.615375
18.316667	1	0.616250
18.333333	1	0.616750
18.350000	1	0.618125
18.366667	1	0.620125
18.383333	1	0.621875
18.400000	1	0.625875
18.416667	1	0.629875
18.433333	1	0.636000
18.450000	1	0.643875
18.466667	1	0.653875
18.483333	1	0.665000
18.500000	1	0.679125
18.516667	1	0.694625
18.533333	1	0.712250
18.550000	1	0.732125
18.566667	1	0.753625
18.583333	1	0.778125
18.600000	1	0.804750
18.616667	1	0.832875
18.633333	1	0.863000
18.650000	1	0.893750
18.666667	1	0.926500
18.683333	1	0.960000
18.700000	1	0.995250
18.716667	1	1.030875
18.733333	1	1.067250
18.750000	1	1.104250
18.766667	1	1.140125
18.783333	1	1.174875
18.800000	1	1.208250
18.816667	1	1.239375
18.833333	1	1.266625
18.850000	1	1.290750
18.866667	1	1.310125
18.883333	1	1.324500
18.900000	1	1.333625
18.916667	1	1.336625
18.933333	1	1.333000
18.950000	1	1.322500
18.966667	1	1.305250
18.983333	1	1.282250
19.000000	1	1.253125
19.016667	1	1.218500
19.033333	1	1.180125
19.050000	1	1.138375
19.066667	1	1.093750
19.083333	1	1.047750
19.100000	1	1.001125
19.116667	1	0.954125
19.133333	1	0.909000
19.150000	1	0.865750
19.166667	1	0.825500
19.183333	1	0.788625
19.200000	1	0.755375
19.216667	1	0.726375
19.233333	1	0.703125
19.250000	1	0.684500
19.266667	1	0.671875
19.283333	1	0.665500
19.300000	1	0.664875
19.316667	1	0.670750
19.333333	1	0.681750
19.350000	1	0.698500
19.366667	1	0.720500
19.383333	1	0.746500
19.400000	1	0.776375
19.416667	1	0.809750
19.433333	1	0.844000
19.450000	1	0.878750
19.466667	1	0.912750
19.483333	1	0.946000
19.500000	1	0.977375
19.516667	1	1.005875
19.533333	1	1.029500
19.550000	1	1.049500
19.566667	1	1.065125
19.583333	1	1.076250
19.600000	1	1.082875
19.616667	1	1.084750
19.633333	1	1.081750
19.650000	1	1.074875
19.666667	1	1.063250
19.683333	1	1.047875
19.700000	1	1.029500
19.716667	1	1.007875
19.733333	1	0.983625
19.750000	1	0.956625
19.766667	1	0.928125
19.783333	1	0.897500
19.800000	1	0.865875
19.816667	1	0.832875
19.833333	1	0.800375
19.850000	1	0.767625
19.866667	1	0.735875
19.883333	1	0.704625
19.900000	1	0.674625
19.916667	1	0.647750
19.933333	1	0.623625
19.950000	1	0.602750
19.966667	1	0.585875
19.983333	1	0.573250
20.000000	1	0.565625
20.016667	1	0.565250
20.033333	1	0.570625
20.050000	1	0.583500
20.066667	1	0.605125
20.083333	1	0.633625
20.100000	1	0.670625
20.116667	1	0.715250
20.133333	1	0.766500
20.150000	1	0.824875
20.166667	1	0.888125
20.183333	1	0.954125
20.200000	1	1.021500
20.216667	1	1.087250
20.233333	1	1.149625
20.250000	1	1.206000
20.266667	1	1.254500
20.283333	1	1.293000
20.300000	1	1.321125
20.316667	1	1.336875
20.333333	1	1.340875
20.350000	1	1.333125
20.366667	1	1.313750
20.383333	1	1.283500
20.400000	1	1.244500
20.416667	1	1.198125
20.433333	1	1.146625
20.450000	1	1.091875
20.466667	1	1.036250
20.483333	1	0.980625
20.500000	1	0.927750
20.516667	1	0.878250
20.533333	1	0.833750
20.550000	1	0.794125
20.566667	1	0.762625
20.583333	1	0.739625
20.600000	1	0.725375
20.616667	1	0.720375
20.633333	1	0.725875
20.650000	1	0.741625
20.666667	1	0.767750
20.683333	1	0.804625
20.700000	1	0.851000
20.716667	1	0.906000
20.733333	1	0.969000
20.750000	1	1.037250
20.766667	1	1.109875
20.783333	1	1.184125
20.800000	1	1.256250
20.816667	1	1.324500
20.833333	1	1.386625
20.850000	1	1.439250
20.866667	1	1.481000
20.883333	1	1.511125
20.900000	1	1.527000
20.916667	1	1.528250
20.933333	1	1.517125
20.950000	1	1.492750
20.966667	1	1.457750
20.983333	1	1.412125
21.000000	1	1.358000
21.016667	1	1.297500
21.033333	1	1.232875
21.050000	1	1.165625
21.066667	1	1.096875
21.083333	1	1.028625
21.100000	1	0.963375
21.116667	1	0.900375
21.133333	1	0.840625
21.150000	1	0.784500
21.166667	1	0.732500
21.183333	1	0.683875
21.200000	1	0.639375
21.216667	1	0.599000
21.233333	1	0.562375
21.250000	1	0.529125
21.266667	1	0.498625
21.283333	1	0.472625
21.300000	1	0.449000
21.316667	1	0.428000
21.333333	1	0.408500
21.350000	1	0.390875
21.366667	1	0.375500
21.383333	1	0.362000
21.400000	1	0.349875
21.416667	1	0.339125
21.433333	1	0.328625
21.450000	1	0.319875
21.466667	1	0.312375
21.483333	1	0.305500
21.500000	1	0.299500
21.516667	1	0.294500
21.533333	1	0.289875
21.550000	1	0.286375
21.566667	1	0.284250
21.583333	1	0.282750
21.600000	1	0.281625
21.616667	1	0.280500
21.633333	1	0.279875
21.650000	1	0.280625
21.666667	1	0.281500
21.683333	1	0.283625
21.700000	1	0.285500
21.716667	1	0.288375
21.733333	1	0.292000
21.750000	1	0.295375
21.766667	1	0.299375
21.783333	1	0.303750
21.800000	1	0.308750
21.816667	1	0.313625
21.833333	1	0.319250
21.850000	1	0.324750
21.866667	1	0.331000
21.883333	1	0.337125
21.900000	1	0.343375
21.916667	1	0.350375
21.933333	1	0.357875
21.950000	1	0.365625
21.966667	1	0.373375
21.983333	1	0.381500
22.000000	1	0.389375
22.016667	1	0.397750
22.033333	1	0.407125
22.050000	1	0.415500
22.066667	1	0.424000
22.083333	1	0.432875
22.100000	1	0.440500
22.116667	1	0.448000
22.133333	1	0.455000
22.150000	1	0.460625
22.166667	1	0.465000
22.183333	1	0.468125
22.200000	1	0.470000
22.216667	1	0.470000
22.233333	1	0.467750
22.250000	1	0.464875
22.266667	1	0.460375
22.283333	1	0.454000
22.300000	1	0.446875
22.316667	1	0.439125
22.333333	1	0.429625
22.350000	1	0.419750
22.366667	1	0.408500
22.383333	1	0.397250
22.400000	1	0.385375
22.416667	1	0.373750
22.433333	1	0.362250
22.450000	1	0.350625
22.466667	1	0.339375
22.483333	1	0.328750
22.500000	1	0.319125
22.516667	1	0.310500
22.533333	1	0.302250
22.550000	1	0.293750
22.566667	1	0.285875
22.583333	1	0.278125
22.600000	1	0.271375
22.616667	1	0.265000
22.633333	1	0.259500
22.650000	1	0.253875
22.666667	1	0.249000
22.683333	1	0.243625
22.700000	1	0.238750
22.716667	1	0.234125
22.733333	1	0.229375
22.750000	1	0.225250
22.766667	1	0.221375
22.783333	1	0.217750
22.800000	1	0.214000
22.816667	1	0.210625
22.833333	1	0.207250
22.850000	1	0.202875
22.866667	1	0.199500
22.883333	1	0.196625
22.900000	1	0.194000
22.916667	1	0.191250
22.933333	1	0.188125
22.950000	1	0.186125
22.966667	1	0.184250
22.983333	1	0.182875
23.000000	1	0.181875
23.016667	1	0.181500
23.033333	1	0.180375
23.050000	1	0.179750
23.066667	1	0.179375
23.083333	1	0.179125
23.100000	1	0.179500
23.116667	1	0.179875
23.133333	1	0.180750
23.150000	1	0.181500
23.166667	1	0.182000
23.183333	1	0.182250
23.200000	1	0.183250
23.216667	1	0.183625
23.233333	1	0.184875
23.250000	1	0.185500
23.266667	1	0.187250
23.283333	1	0.189250
23.300000	1	0.194625
23.316667	1	0.200625
23.333333	1	0.209625
23.350000	1	0.222250
23.366667	1	0.239375
23.383333	1	0.263125
23.400000	1	0.294000
23.416667	1	0.336125
23.433333	1	0.389625
23.450000	1	0.458625
23.466667	1	0.546000
23.483333	1	0.653875
23.500000	1	0.786375
23.516667	1	0.947375
23.533333	1	1.138875
23.550000	1	1.363875
23.566667	1	1.624750
23.583333	1	1.921875
23.600000	1	2.254875
23.616667	1	2.622750
23.633333	1	3.024125
23.650000	1	3.452125
23.666667	1	3.902250
23.683333	1	4.368750
23.700000	1	4.842000
23.716667	1	5.313125
23.733333	1	5.771500
23.750000	1	6.207375
23.766667	1	6.609125
23.783333	1	6.967875
23.800000	1	7.274375
23.816667	1	7.523750
23.833333	1	7.710125
23.850000	1	7.830125
23.866667	1	7.883375
23.883333	1	7.871125
23.900000	1	7.795375
23.916667	1	7.660875
23.933333	1	7.472625
23.950000	1	7.237875
23.966667	1	6.964875
23.983333	1	6.659625
24.000000	1	6.332125
24.016667	1	5.988750
24.033333	1	5.637000
24.050000	1	5.282625
24.066667	1	4.930500
24.083333	1	4.584875
24.100000	1	4.249625
24.116667	1	3.927750
24.133333	1	3.621000
24.150000	1	3.330125
24.166667	1	3.056875
24.183333	1	2.800875
24.200000	1	2.561750
24.216667	1	2.339750
24.233333	1	2.134750
24.250000	1	1.946000
24.266667	1	1.772875
24.283333	1	1.613875
24.300000	1	1.468125
24.316667	1	1.335000
24.333333	1	1.214500
24.350000	1	1.104875
24.366667	1	1.005375
24.383333	1	0.915875
24.400000	1	0.836125
24.416667	1	0.765125
24.433333	1	0.702500
24.450000	1	0.647250
24.466667	1	0.598625
24.483333	1	0.555875
24.500000	1	0.518500
24.516667	1	0.486000
24.533333	1	0.457625
24.550000	1	0.432500
24.566667	1	0.411500
24.583333	1	0.392875
24.600000	1	0.377000
24.616667	1	0.363000
24.633333	1	0.350875
24.650000	1	0.339375
24.666667	1	0.329000
24.683333	1	0.320000
24.700000	1	0.311375
24.716667	1	0.302875
24.733333	1	0.296375
24.750000	1	0.289125
24.766667	1	0.282375
24.783333	1	0.275375
24.800000	1	0.269000
24.816667	1	0.263125
24.833333	1	0.258000
24.850000	1	0.252875
24.866667	1	0.248250
24.883333	1	0.243750
24.900000	1	0.238875
24.916667	1	0.235250
24.933333	1	0.231000
24.950000	1	0.227250
24.966667	1	0.224125
24.983333	1	0.221375
25.000000	1	0.218625
25.016667	1	0.216250
25.033333	1	0.213500
25.050000	1	0.211750
25.066667	1	0.210250
25.083333	1	0.208500
25.100000	1	0.206375
25.116667	1	0.204375
25.133333	1	0.202875
25.150000	1	0.201625
25.166667	1	0.199625
25.183333	1	0.197625
25.200000	1	0.195750
25.216667	1	0.193500
25.233333	1	0.192250
25.250000	1	0.190750
25.266667	1	0.189000
25.283333	1	0.187500
25.300000	1	0.185875
25.316667	1	0.185000
25.333333	1	0.183750
25.350000	1	0.182375
25.366667	1	0.180875
25.383333	1	0.180500
25.400000	1	0.180125
25.416667	1	0.180000
25.433333	1	0.180125
25.450000	1	0.179750
25.466667	1	0.180125
25.483333	1	0.180250
25.500000	1	0.180375
25.516667	1	0.181250
25.533333	1	0.182250
25.550000	1	0.183625
25.566667	1	0.184500
25.583333	1	0.185875
25.600000	1	0.187000
25.616667	1	0.187875
25.633333	1	0.188875
25.650000	1	0.189875
25.666667	1	0.190500
25.683333	1	0.191000
25.700000	1	0.191375
25.716667	1	0.191375
25.733333	1	0.191375
25.750000	1	0.191250
25.766667	1	0.191125
25.783333	1	0.191375
25.800000	1	0.190875
25.816667	1	0.189500
25.833333	1	0.188125
25.850000	1	0.187375
25.866667	1	0.186625
25.883333	1	0.186500
25.900000	1	0.186875
25.916667	1	0.186375
25.933333	1	0.186375
25.950000	1	0.186500
25.966667	1	0.187000
25.983333	1	0.187500
26.000000	1	0.188875
26.016667	1	0.189500
26.033333	1	0.191875
26.050000	1	0.193250
26.066667	1	0.195625
26.083333	1	0.198000
26.100000	1	0.201500
26.116667	1	0.204875
26.133333	1	0.207625
26.150000	1	0.210875
26.166667	1	0.214750
26.183333	1	0.218250
26.200000	1	0.222250
26.216667	1	0.226375
26.233333	1	0.230375
26.250000	1	0.234250
26.266667	1	0.237500
26.283333	1	0.241500
26.300000	1	0.245125
26.316667	1	0.247250
26.333333	1	0.249250
26.350000	1	0.251625
26.366667	1	0.252625
26.383333	1	0.253500
26.400000	1	0.253250
26.416667	1	0.253125
26.433333	1	0.252500
26.450000	1	0.251375
26.466667	1	0.250125
26.483333	1	0.247750
26.500000	1	0.245125
26.516667	1	0.242375
26.533333	1	0.238375
26.550000	1	0.235000
26.566667	1	0.230750
26.583333	1	0.226500
26.600000	1	0.222750
26.616667	1	0.217875
26.633333	1	0.213500
26.650000	1	0.208875
26.666667	1	0.205125
26.683333	1	0.200625
26.700000	1	0.196250
26.716667	1	0.192500
26.733333	1	0.188875
26.750000	1	0.185000
26.766667	1	0.181875
26.783333	1	0.178375
26.800000	1	0.175375
26.816667	1	0.172375
26.833333	1	0.169625
26.850000	1	0.167500
26.866667	1	0.165875
26.883333	1	0.164875
26.900000	1	0.162750
26.916667	1	0.161500
26.933333	1	0.160375
26.950000	1	0.160250
26.966667	1	0.159375
26.983333	1	0.159125
27.000000	1	0.158625
27.016667	1	0.158875
27.033333	1	0.160250
27.050000	1	0.160625
27.066667	1	0.161500
27.083333	1	0.162875
27.100000	1	0.164875
27.116667	1	0.167750
27.133333	1	0.170875
27.150000	1	0.173875
27.166667	1	0.177500
27.183333	1	0.182250
27.200000	1	0.187000
27.216667	1	0.193250
27.233333	1	0.201000
27.250000	1	0.210250
27.266667	1	0.220500
27.283333	1	0.233125
27.300000	1	0.248875
27.316667	1	0.266625
27.333333	1	0.287875
27.350000	1	0.312875
27.366667	1	0.343000
27.383333	1	0.378125
27.400000	1	0.420375
27.416667	1	0.469125
27.433333	1	0.526625
27.450000	1	0.592000
27.466667	1	0.668000
27.483333	1	0.754250
27.500000	1	0.851875
27.516667	1	0.961000
27.533333	1	1.082375
27.550000	1	1.215875
27.566667	1	1.361500
27.583333	1	1.518750
27.600000	1	1.686375
27.616667	1	1.864250
27.633333	1	2.050625
27.650000	1	2.243250
27.666667	1	2.441125
27.683333	1	2.641750
27.700000	1	2.843000
27.716667	1	3.040500
27.733333	1	3.231875
27.750000	1	3.414125
27.766667	1	3.583750
27.783333	1	3.738750
27.800000	1	3.876250
27.816667	1	3.992750
27.833333	1	4.086875
27.850000	1	4.156875
27.866667	1	4.201500
27.883333	1	4.220375
27.900000	1	4.213250
27.916667	1	4.180250
27.933333	1	4.122500
27.950000	1	4.041250
27.966667	1	3.939750
27.983333	1	3.819000
28.000000	1	3.683250
28.016667	1	3.533375
28.033333	1	3.373250
28.050000	1	3.204500
28.066667	1	3.030375
28.083333	1	2.854250
28.100000	1	2.677625
28.116667	1	2.502750
28.133333	1	2.332875
28.150000	1	2.167625
28.166667	1	2.009250
28.183333	1	1.857500
28.200000	1	1.714625
28.216667	1	1.580375
28.233333	1	1.454375
28.250000	1	1.336375
28.266667	1	1.227375
28.283333	1	1.126250
28.300000	1	1.032625
28.316667	1	0.948000
28.333333	1	0.870000
28.350000	1	0.799375
28.366667	1	0.735500
28.383333	1	0.679000
28.400000	1	0.628000
28.416667	1	0.582750
28.433333	1	0.542375
28.450000	1	0.506875
28.466667	1	0.475250
28.483333	1	0.448250
28.500000	1	0.425125
28.516667	1	0.406375
28.533333	1	0.390125
28.550000	1	0.377625
28.566667	1	0.367625
28.583333	1	0.361375
28.600000	1	0.356625
28.616667	1	0.355125
28.633333	1	0.355250
28.650000	1	0.357000
28.666667	1	0.360625
28.683333	1	0.366000
28.700000	1	0.372375
28.716667	1	0.379625
28.733333	1	0.387000
28.750000	1	0.394875
28.766667	1	0.403500
28.783333	1	0.412875
28.800000	1	0.421125
28.816667	1	0.429625
28.833333	1	0.437625
28.850000	1	0.445125
28.866667	1	0.452750
28.883333	1	0.460000
28.900000	1	0.465500
28.916667	1	0.469500
28.933333	1	0.473250
28.950000	1	0.476000
28.966667	1	0.477125
28.983333	1	0.477125
29.000000	1	0.475750
29.016667	1	0.474000
29.033333	1	0.470250
29.050000	1	0.464875
29.066667	1	0.457875
29.083333	1	0.450125
29.100000	1	0.440000
29.116667	1	0.428500
29.133333	1	0.414500
29.150000	1	0.398875
29.166667	1	0.381875
29.183333	1	0.362875
29.200000	1	0.342500
29.216667	1	0.319875
29.233333	1	0.293875
29.250000	1	0.266250
29.266667	1	0.236375
29.283333	1	0.204250
29.300000	1	0.169875
29.316667	1	0.133000
29.333333	1	0.094125
29.350000	1	0.052750
29.366667	1	0.009250
29.383333	1	-0.036375
29.400000	1	-0.083125
29.416667	1	-0.132375
29.433333	1	-0.183125
29.450000	1	-0.235500
29.466667	1	-0.288875
29.483333	1	-0.343125
29.500000	1	-0.396625
29.516667	1	-0.450625
29.533333	1	-0.503375
29.550000	1	-0.555375
29.566667	1	-0.605750
29.583333	1	-0.654500
29.600000	1	-0.701125
29.616667	1	-0.744875
29.633333	1	-0.785250
29.650000	1	-0.822125
29.666667	1	-0.855000
29.683333	1	-0.883875
29.700000	1	-0.908625
29.716667	1	-0.928750
29.733333	1	-0.944125
29.750000	1	-0.955250
29.766667	1	-0.961375
29.783333	1	-0.963250
29.800000	1	-0.959625
29.816667	1	-0.952250
29.833333	1	-0.940125
29.850000	1	-0.924250
29.866667	1	-0.904750
29.883333	1	-0.881625
29.900000	1	-0.856125
29.916667	1	-0.828500
29.933333	1	-0.799000
29.950000	1	-0.766875
29.966667	1	-0.733750
29.983333	1	-0.699500
30.000000	1	-0.664375
30.016667	1	-0.629375
30.033333	1	-0.593250
30.050000	1	-0.557750
30.066667	1	-0.522750
30.083333	1	-0.487875
30.100000	1	-0.453875
30.116667	1	-0.421625
30.133333	1	-0.390000
30.150000	1	-0.359875
30.166667	1	-0.331000
30.183333	1	-0.304125
30.200000	1	-0.277625
30.216667	1	-0.252750
30.233333	1	-0.229500
30.250000	1	-0.208000
30.266667	1	-0.187500
30.283333	1	-0.169250
30.300000	1	-0.151625
30.316667	1	-0.135875
30.333333	1	-0.121250
30.350000	1	-0.107875
30.366667	1	-0.095500
30.383333	1	-0.083125
30.400000	1	-0.072500
30.416667	1	-0.062500
30.433333	1	-0.053875
30.450000	1	-0.045625
30.466667	1	-0.038500
30.483333	1	-0.030625
30.500000	1	-0.023500
30.516667	1	-0.017000
30.533333	1	-0.011000
30.550000	1	-0.005250
30.566667	1	0.000750
30.583333	1	0.007000
30.600000	1	0.012875
30.616667	1	0.018875
30.633333	1	0.025250
30.650000	1	0.032125
30.666667	1	0.039000
30.683333	1	0.046625
30.700000	1	0.054000
30.716667	1	0.062500
30.733333	1	0.070750
30.750000	1	0.079000
30.766667	1	0.087750
30.783333	1	0.097500
30.800000	1	0.106875
30.816667	1	0.116500
30.833333	1	0.127250
30.850000	1	0.138250
30.866667	1	0.149500
30.883333	1	0.161875
30.900000	1	0.175000
30.916667	1	0.189375
30.933333	1	0.205000
30.950000	1	0.222125
30.966667	1	0.241125
30.983333	1	0.262500
31.000000	1	0.287000
31.016667	1	0.314625
31.033333	1	0.346500
31.050000	1	0.383125
31.066667	1	0.424375
31.083333	1	0.472500
31.100000	1	0.528125
31.116667	1	0.592000
31.133333	1	0.664500
31.150000	1	0.747125
31.166667	1	0.841000
31.183333	1	0.947000
31.200000	1	1.066125
31.216667	1	1.198125
31.233333	1	1.344500
31.250000	1	1.505375
31.266667	1	1.680750
31.283333	1	1.870625
31.300000	1	2.073875
31.316667	1	2.290875
31.333333	1	2.518750
31.350000	1	2.756750
31.366667	1	3.003750
31.383333	1	3.256875
31.400000	1	3.515125
31.416667	1	3.774625
31.433333	1	4.031875
31.450000	1	4.284750
31.466667	1	4.529625
31.483333	1	4.762875
31.500000	1	4.982125
31.516667	1	5.184125
31.533333	1	5.365875
31.550000	1	5.525500
31.566667	1	5.661625
31.583333	1	5.771625
31.600000	1	5.855000
31.616667	1	5.909875
31.633333	1	5.937750
31.650000	1	5.936750
31.666667	1	5.908500
31.683333	1	5.854000
31.700000	1	5.774500
31.716667	1	5.671875
31.733333	1	5.548500
31.750000	1	5.405625
31.766667	1	5.246625
31.783333	1	5.072750
31.800000	1	4.886250
31.816667	1	4.690500
31.833333	1	4.487125
31.850000	1	4.278750
31.866667	1	4.067750
31.883333	1	3.855375
31.900000	1	3.644125
31.916667	1	3.435625
31.933333	1	3.230875
31.950000	1	3.031250
31.966667	1	2.837375
31.983333	1	2.650000
32.000000	1	2.469000
32.016667	1	2.295750
32.033333	1	2.131250
32.050000	1	1.974375
32.066667	1	1.826500
32.083333	1	1.686500
32.100000	1	1.554250
32.116667	1	1.430125
32.133333	1	1.313750
32.150000	1	1.204875
32.166667	1	1.102625
32.183333	1	1.007250
32.200000	1	0.918500
32.216667	1	0.834875
32.233333	1	0.757625
32.250000	1	0.686250
32.266667	1	0.620500
32.283333	1	0.559125
32.300000	1	0.502125
32.316667	1	0.449875
32.333333	1	0.402000
32.350000	1	0.357500
32.366667	1	0.316000
32.383333	1	0.278125
32.400000	1	0.243250
32.416667	1	0.211750
32.433333	1	0.182500
32.450000	1	0.156250
32.466667	1	0.131250
32.483333	1	0.108750
32.500000	1	0.087750
32.516667	1	0.068625
32.533333	1	0.052000
32.550000	1	0.036625
32.566667	1	0.022000
32.583333	1	0.009000
32.600000	1	-0.002750
32.616667	1	-0.013625
32.633333	1	-0.023250
32.650000	1	-0.031875
32.666667	1	-0.040125
32.683333	1	-0.047750
32.700000	1	-0.054500
32.716667	1	-0.060000
32.733333	1	-0.064875
32.750000	1	-0.068875
32.766667	1	-0.073000
32.783333	1	-0.075875
32.800000	1	-0.078375
32.816667	1	-0.080500
32.833333	1	-0.082750
32.850000	1	-0.084625
32.866667	1	-0.085875
32.883333	1	-0.087000
32.900000	1	-0.087000
32.916667	1	-0.087375
32.933333	1	-0.087375
32.950000	1	-0.087250
32.966667	1	-0.087125
32.983333	1	-0.086875
33.000000	1	-0.086250
33.016667	1	-0.085625
33.033333	1	-0.085250
33.050000	1	-0.084375
33.066667	1	-0.083750
33.083333	1	-0.082375
33.100000	1	-0.081250
33.116667	1	-0.080375
33.133333	1	-0.079000
33.150000	1	-0.078125
33.166667	1	-0.077250
33.183333	1	-0.076000
33.200000	1	-0.074750
33.216667	1	-0.073875
33.233333	1	-0.073125
33.250000	1	-0.072000
33.266667	1	-0.071625
33.283333	1	-0.070500
33.300000	1	-0.069750
33.316667	1	-0.068375
33.333333	1	-0.068000
33.350000	1	-0.066250
33.366667	1	-0.065250
33.383333	1	-0.064625
33.400000	1	-0.063625
33.416667	1	-0.062875
33.433333	1	-0.061625
33.450000	1	-0.061375
33.466667	1	-0.059625
33.483333	1	-0.058625
33.500000	1	-0.057625
33.516667	1	-0.056750
33.533333	1	-0.055500
33.550000	1	-0.054375
33.566667	1	-0.052625
33.583333	1	-0.051125
33.600000	1	-0.049125
33.616667	1	-0.047250
33.633333	1	-0.045750
33.650000	1	-0.043875
33.666667	1	-0.041875
33.683333	1	-0.040000
33.700000	1	-0.037750
33.716667	1	-0.035250
33.733333	1	-0.032125
33.750000	1	-0.028750
33.766667	1	-0.026500
33.783333	1	-0.023375
33.800000	1	-0.019875
33.816667	1	-0.015750
33.833333	1	-0.013375
33.850000	1	-0.010500
33.866667	1	-0.008375
33.883333	1	-0.005250
33.900000	1	-0.001875
33.916667	1	0.000750
33.933333	1	0.003875
33.950000	1	0.006625
33.966667	1	0.008750
33.983333	1	0.010250
34.000000	1	0.011500
34.016667	1	0.013000
34.033333	1	0.013625
34.050000	1	0.014875
34.066667	1	0.015500
34.083333	1	0.016000
34.100000	1	0.016000
34.116667	1	0.015875
34.133333	1	0.014625
34.150000	1	0.013500
34.166667	1	0.012000
34.183333	1	0.010500
34.200000	1	0.009875
34.216667	1	0.008375
34.233333	1	0.006875
34.250000	1	0.004875
34.266667	1	0.003500
34.283333	1	0.001625
34.300000	1	0.000000
34.316667	1	-0.000875
34.333333	1	-0.001750
34.350000	1	-0.002375
34.366667	1	-0.002750
34.383333	1	-0.003875
34.400000	1	-0.003750
34.416667	1	-0.005000
34.433333	1	-0.004875
34.450000	1	-0.005125
34.466667	1	-0.004375
34.483333	1	-0.004125
34.500000	1	-0.003000
34.516667	1	-0.001750
34.533333	1	-0.001125
34.550000	1	0.000250
34.566667	1	0.001250
34.583333	1	0.002250
34.600000	1	0.003250
34.616667	1	0.004500
34.633333	1	0.006125
34.650000	1	0.007625
34.666667	1	0.008750
34.683333	1	0.010125
34.700000	1	0.011125
34.716667	1	0.012000
34.733333	1	0.012750
34.750000	1	0.013000
34.766667	1	0.012625
34.783333	1	0.012500
34.800000	1	0.013125
34.816667	1	0.013000
34.833333	1	0.012625
34.850000	1	0.012125
34.866667	1	0.011500
34.883333	1	0.010125
34.900000	1	0.008500
34.916667	1	0.007250
34.933333	1	0.006250
34.950000	1	0.004875
34.966667	1	0.003125
34.983333	1	0.001000
35.000000	1	-0.000375
35.016667	1	-0.002375
35.033333	1	-0.004375
35.050000	1	-0.006125
35.066667	1	-0.008000
35.083333	1	-0.010625
35.100000	1	-0.012125
35.116667	1	-0.013625
35.133333	1	-0.015125
35.150000	1	-0.016750
35.166667	1	-0.017750
35.183333	1	-0.019000
35.200000	1	-0.020000
35.216667	1	-0.021250
35.233333	1	-0.022000
35.250000	1	-0.022375
35.266667	1	-0.023125
35.283333	1	-0.023375
35.300000	1	-0.023750
35.316667	1	-0.024375
35.333333	1	-0.024625
35.350000	1	-0.024375
35.366667	1	-0.024500
35.383333	1	-0.024000
35.400000	1	-0.024125
35.416667	1	-0.023125
35.433333	1	-0.022625
35.450000	1	-0.022750
35.466667	1	-0.021625
35.483333	1	-0.020125
35.500000	1	-0.019125
35.516667	1	-0.017375
35.533333	1	-0.015250
35.550000	1	-0.014125
35.566667	1	-0.011750
35.583333	1	-0.010125
35.600000	1	-0.007625
35.616667	1	-0.005250
35.633333	1	-0.002375
35.650000	1	0.000750
35.666667	1	0.003625
35.683333	1	0.006625
35.700000	1	0.009500
35.716667	1	0.012750
35.733333	1	0.016375
35.750000	1	0.020000
35.766667	1	0.023875
35.783333	1	0.026750
35.800000	1	0.030000
35.816667	1	0.033125
35.833333	1	0.035625
35.850000	1	0.037625
35.866667	1	0.039750
35.883333	1	0.041250
35.900000	1	0.043500
35.916667	1	0.044875
35.933333	1	0.046750
35.950000	1	0.048000
35.966667	1	0.048375
35.983333	1	0.048750
36.000000	1	0.048875
36.016667	1	0.048625
36.033333	1	0.048250
36.050000	1	0.047500
36.066667	1	0.046375
36.083333	1	0.044625
36.100000	1	0.043250
36.116667	1	0.042000
36.133333	1	0.039500
36.150000	1	0.037000
36.166667	1	0.034375
36.183333	1	0.032250
36.200000	1	0.030125
36.216667	1	0.028750
36.233333	1	0.025875
36.250000	1	0.024375
36.266667	1	0.022375
36.283333	1	0.020250
36.300000	1	0.018500
36.316667	1	0.016875
36.333333	1	0.015500
36.350000	1	0.014125
36.366667	1	0.013625
36.383333	1	0.013125
36.400000	1	0.012750
36.416667	1	0.012125
36.433333	1	0.011750
36.450000	1	0.011250
36.466667	1	0.011125
36.483333	1	0.011000
36.500000	1	0.011000
36.516667	1	0.011250
36.533333	1	0.010875
36.550000	1	0.011000
36.566667	1	0.011375
36.583333	1	0.011125
36.600000	1	0.011375
36.616667	1	0.011125
36.633333	1	0.010875
36.650000	1	0.010125
36.666667	1	0.009750
36.683333	1	0.009625
36.700000	1	0.009000
36.716667	1	0.008000
36.733333	1	0.006750
36.750000	1	0.005375
36.766667	1	0.003875
36.783333	1	0.003125
36.800000	1	0.001875
36.816667	1	0.000750
36.833333	1	-0.000375
36.850000	1	-0.001875
36.866667	1	-0.003250
36.883333	1	-0.004250
36.900000	1	-0.005500
36.916667	1	-0.005875
36.933333	1	-0.006500
36.950000	1	-0.006750
36.966667	1	-0.007375
36.983333	1	-0.006625
37.000000	1	-0.007000
37.016667	1	-0.007250
37.033333	1	-0.006625
37.050000	1	-0.006625
37.066667	1	-0.005750
37.083333	1	-0.004500
37.100000	1	-0.002250
37.116667	1	-0.000750
37.133333	1	0.001125
37.150000	1	0.003125
37.166667	1	0.006125
37.183333	1	0.009125
37.200000	1	0.012250
37.216667	1	0.015250
37.233333	1	0.018500
37.250000	1	0.022250
37.266667	1	0.027000
37.283333	1	0.030500
37.300000	1	0.035125
37.316667	1	0.039500
37.333333	1	0.045000
37.350000	1	0.050375
37.366667	1	0.055375
37.383333	1	0.060875
37.400000	1	0.066500
37.416667	1	0.072625
37.433333	1	0.078125
37.450000	1	0.085000
37.466667	1	0.091500
37.483333	1	0.098125
37.500000	1	0.104625
37.516667	1	0.110875
37.533333	1	0.117625
37.550000	1	0.124750
37.566667	1	0.130750
37.583333	1	0.137625
37.600000	1	0.144750
37.616667	1	0.152250
37.633333	1	0.159000
37.650000	1	0.166125
37.666667	1	0.173625
37.683333	1	0.180750
37.700000	1	0.188375
37.716667	1	0.195375
37.733333	1	0.203125
37.750000	1	0.211000
37.766667	1	0.218125
37.783333	1	0.225125
37.800000	1	0.232625
37.816667	1	0.239875
37.833333	1	0.247125
37.850000	1	0.254500
37.866667	1	0.262250
37.883333	1	0.269750
37.900000	1	0.276500
37.916667	1	0.283750
37.933333	1	0.291000
37.950000	1	0.298625
37.966667	1	0.305875
37.983333	1	0.313375
38.000000	1	0.320750
38.016667	1	0.327750
38.033333	1	0.335250
38.050000	1	0.342750
38.066667	1	0.350500
38.083333	1	0.357625
38.100000	1	0.364875
38.116667	1	0.372125
38.133333	1	0.379625
38.150000	1	0.387375
38.166667	1	0.394125
38.183333	1	0.400875
38.200000	1	0.408000
38.216667	1	0.415000
38.233333	1	0.421750
38.250000	1	0.428000
38.266667	1	0.433750
38.283333	1	0.440125
38.300000	1	0.446500
38.316667	1	0.452750
38.333333	1	0.458625
38.350000	1	0.464375
38.366667	1	0.470000
38.383333	1	0.475375
38.400000	1	0.480500
38.416667	1	0.485125
38.433333	1	0.489375
38.450000	1	0.493250
38.466667	1	0.497000
38.483333	1	0.500000
38.500000	1	0.503625
38.516667	1	0.506125
38.533333	1	0.509375
38.550000	1	0.512000
38.566667	1	0.514375
38.583333	1	0.515875
38.600000	1	0.517375
38.616667	1	0.518125
38.633333	1	0.518875
38.650000	1	0.519500
38.666667	1	0.520000
38.683333	1	0.520000
38.700000	1	0.519625
38.716667	1	0.518875
38.733333	1	0.517875
38.750000	1	0.516500
38.766667	1	0.514125
38.783333	1	0.511250
38.800000	1	0.508500
38.816667	1	0.505875
38.833333	1	0.503000
38.850000	1	0.499500
38.866667	1	0.496500
38.883333	1	0.492250
38.900000	1	0.487250
38.916667	1	0.482250
38.933333	1	0.476000
38.950000	1	0.470625
38.966667	1	0.464875
38.983333	1	0.458625
39.000000	1	0.451750
39.016667	1	0.445250
39.033333	1	0.437750
39.050000	1	0.429750
39.066667	1	0.421500
39.083333	1	0.413625
39.100000	1	0.405500
39.116667	1	0.397625
39.133333	1	0.389000
39.150000	1	0.380250
39.166667	1	0.372000
39.183333	1	0.363625
39.200000	1	0.355125
39.216667	1	0.346750
39.233333	1	0.338625
39.250000	1	0.330750
39.266667	1	0.322625
39.283333	1	0.314750
39.300000	1	0.307625
39.316667	1	0.299750
39.333333	1	0.292750
39.350000	1	0.284750
39.366667	1	0.277250
39.383333	1	0.270375
39.400000	1	0.263375
39.416667	1	0.256250
39.433333	1	0.249750
39.450000	1	0.243125
39.466667	1	0.236625
39.483333	1	0.229375
39.500000	1	0.222750
39.516667	1	0.217125
39.533333	1	0.210875
39.550000	1	0.204375
39.566667	1	0.197250
39.583333	1	0.190625
39.600000	1	0.183500
39.616667	1	0.176500
39.633333	1	0.169875
39.650000	1	0.162750
39.666667	1	0.156000
39.683333	1	0.149125
39.700000	1	0.142125
39.716667	1	0.135250
39.733333	1	0.127875
39.750000	1	0.120250
39.766667	1	0.112875
39.783333	1	0.105625
39.800000	1	0.098875
39.816667	1	0.092125
39.833333	1	0.085375
39.850000	1	0.078125
39.866667	1	0.071750
39.883333	1	0.065000
39.900000	1	0.058625
39.916667	1	0.051750
39.933333	1	0.045750
39.950000	1	0.039750
39.966667	1	0.033875
39.983333	1	0.028125
40.000000	1	0.023000
