URL	chrom://7040-86g6c92/XVault/Ultimate_3000/20/20240517_CMO_FP23_FP25_MarkusDeplate.seq/165.smp/RI_1.channel/RI_1.chm
Channel	RI_1

Injection Information:
Data Vault	XVault
Sequence	20240517_CMO_FP23_FP25_MarkusDeplate
Name	FP25_25.2_s3
Number	54
Position	BE6
Comment	
Processing Method	
Instrument Method	run_25B_method
Type	Unknown
Status	Finished
Inject Time	29.05.2024 06:13:52 +02:00
Volume (µl)	20.0000
Dilution Factor	1.0000
Weight	1.0000

Chromatogram Data Information:
Time Min. (min)	0.000000
Time Max. (min)	40.000000
Data Points	2401
Detector	RI
Generating Data System	Chromeleon 7.3.2.11814
Exporting Data System	Chromeleon 7.3.2.0
Operator	Instrument Controller
Signal Quantity	Refractive 
Signal Unit	µRIU
Signal Min.	-0.912875
Signal Max.	70.080750
Channel	RI_1
Driver Name	RID520Driver.dll
Channel Type	Evaluation
Min. Step (s)	1
Max. Step (s)	1
Average Step (s)	1

Signal Parameter Information:
Signal Info	

Chromatogram Data:
Time (min)	Step (s)	Value (µRIU)
0.000000	n.a.	-0.011750
0.016667	1	-0.010750
0.033333	1	-0.009750
0.050000	1	-0.008500
0.066667	1	-0.007000
0.083333	1	-0.005750
0.100000	1	-0.004375
0.116667	1	-0.003250
0.133333	1	-0.002500
0.150000	1	-0.001375
0.166667	1	-0.000125
0.183333	1	0.001000
0.200000	1	0.001625
0.216667	1	0.002500
0.233333	1	0.003000
0.250000	1	0.003875
0.266667	1	0.004625
0.283333	1	0.005250
0.300000	1	0.006250
0.316667	1	0.006750
0.333333	1	0.006250
0.350000	1	0.005625
0.366667	1	0.004500
0.383333	1	0.003750
0.400000	1	0.003500
0.416667	1	0.003125
0.433333	1	0.004375
0.450000	1	0.006125
0.466667	1	0.008250
0.483333	1	0.009125
0.500000	1	0.010125
0.516667	1	0.010250
0.533333	1	0.010500
0.550000	1	0.010000
0.566667	1	0.009125
0.583333	1	0.007125
0.600000	1	0.004750
0.616667	1	0.002250
0.633333	1	0.001000
0.650000	1	-0.000250
0.666667	1	-0.001125
0.683333	1	-0.000875
0.700000	1	-0.000625
0.716667	1	-0.000750
0.733333	1	-0.000500
0.750000	1	-0.000375
0.766667	1	0.000375
0.783333	1	0.000500
0.800000	1	0.001125
0.816667	1	0.002125
0.833333	1	0.002500
0.850000	1	0.004000
0.866667	1	0.004500
0.883333	1	0.005375
0.900000	1	0.007250
0.916667	1	0.009000
0.933333	1	0.009125
0.950000	1	0.010375
0.966667	1	0.011750
0.983333	1	0.012875
1.000000	1	0.013375
1.016667	1	0.015000
1.033333	1	0.016500
1.050000	1	0.017875
1.066667	1	0.018875
1.083333	1	0.020125
1.100000	1	0.020875
1.116667	1	0.021750
1.133333	1	0.022625
1.150000	1	0.023500
1.166667	1	0.023250
1.183333	1	0.023625
1.200000	1	0.024750
1.216667	1	0.024375
1.233333	1	0.024375
1.250000	1	0.024000
1.266667	1	0.024375
1.283333	1	0.023125
1.300000	1	0.021625
1.316667	1	0.020250
1.333333	1	0.019125
1.350000	1	0.017625
1.366667	1	0.016500
1.383333	1	0.015000
1.400000	1	0.013500
1.416667	1	0.012500
1.433333	1	0.011375
1.450000	1	0.009250
1.466667	1	0.007000
1.483333	1	0.004875
1.500000	1	0.003000
1.516667	1	0.001125
1.533333	1	-0.000375
1.550000	1	-0.002125
1.566667	1	-0.003875
1.583333	1	-0.005375
1.600000	1	-0.007625
1.616667	1	-0.008875
1.633333	1	-0.009875
1.650000	1	-0.012000
1.666667	1	-0.013500
1.683333	1	-0.014750
1.700000	1	-0.015625
1.716667	1	-0.016875
1.733333	1	-0.017875
1.750000	1	-0.018625
1.766667	1	-0.020125
1.783333	1	-0.021250
1.800000	1	-0.022375
1.816667	1	-0.023000
1.833333	1	-0.023375
1.850000	1	-0.023625
1.866667	1	-0.024625
1.883333	1	-0.025000
1.900000	1	-0.025625
1.916667	1	-0.026375
1.933333	1	-0.027125
1.950000	1	-0.027625
1.966667	1	-0.028125
1.983333	1	-0.028125
2.000000	1	-0.029250
2.016667	1	-0.029750
2.033333	1	-0.029500
2.050000	1	-0.029500
2.066667	1	-0.028875
2.083333	1	-0.029125
2.100000	1	-0.029000
2.116667	1	-0.028625
2.133333	1	-0.028250
2.150000	1	-0.027250
2.166667	1	-0.027125
2.183333	1	-0.025625
2.200000	1	-0.024250
2.216667	1	-0.023625
2.233333	1	-0.022750
2.250000	1	-0.021250
2.266667	1	-0.020250
2.283333	1	-0.019750
2.300000	1	-0.018375
2.316667	1	-0.017250
2.333333	1	-0.016875
2.350000	1	-0.016250
2.366667	1	-0.015500
2.383333	1	-0.014250
2.400000	1	-0.013250
2.416667	1	-0.012500
2.433333	1	-0.011250
2.450000	1	-0.010875
2.466667	1	-0.010125
2.483333	1	-0.010000
2.500000	1	-0.009625
2.516667	1	-0.009500
2.533333	1	-0.009500
2.550000	1	-0.008500
2.566667	1	-0.007750
2.583333	1	-0.007125
2.600000	1	-0.005750
2.616667	1	-0.005375
2.633333	1	-0.005375
2.650000	1	-0.004250
2.666667	1	-0.004500
2.683333	1	-0.004250
2.700000	1	-0.004250
2.716667	1	-0.003750
2.733333	1	-0.003375
2.750000	1	-0.003375
2.766667	1	-0.004125
2.783333	1	-0.003625
2.800000	1	-0.003125
2.816667	1	-0.003125
2.833333	1	-0.002750
2.850000	1	-0.002625
2.866667	1	-0.002500
2.883333	1	-0.002875
2.900000	1	-0.003250
2.916667	1	-0.002625
2.933333	1	-0.002875
2.950000	1	-0.002750
2.966667	1	-0.002750
2.983333	1	-0.002375
3.000000	1	-0.002625
3.016667	1	-0.001875
3.033333	1	-0.001375
3.050000	1	-0.001125
3.066667	1	-0.000750
3.083333	1	-0.000500
3.100000	1	-0.000250
3.116667	1	-0.000375
3.133333	1	-0.000125
3.150000	1	0.000000
3.166667	1	0.000250
3.183333	1	0.000750
3.200000	1	0.001250
3.216667	1	0.001375
3.233333	1	0.001875
3.250000	1	0.001250
3.266667	1	0.001000
3.283333	1	0.000750
3.300000	1	0.001375
3.316667	1	0.000875
3.333333	1	0.000625
3.350000	1	-0.000250
3.366667	1	-0.000375
3.383333	1	-0.000375
3.400000	1	-0.001000
3.416667	1	-0.001125
3.433333	1	-0.000750
3.450000	1	-0.001375
3.466667	1	-0.002250
3.483333	1	-0.003000
3.500000	1	-0.003375
3.516667	1	-0.004500
3.533333	1	-0.005500
3.550000	1	-0.006250
3.566667	1	-0.007000
3.583333	1	-0.007875
3.600000	1	-0.007125
3.616667	1	-0.007875
3.633333	1	-0.008375
3.650000	1	-0.008750
3.666667	1	-0.008125
3.683333	1	-0.008125
3.700000	1	-0.008000
3.716667	1	-0.007750
3.733333	1	-0.007875
3.750000	1	-0.007375
3.766667	1	-0.006500
3.783333	1	-0.005250
3.800000	1	-0.004375
3.816667	1	-0.003250
3.833333	1	-0.002375
3.850000	1	-0.001375
3.866667	1	0.000125
3.883333	1	0.001875
3.900000	1	0.003125
3.916667	1	0.004750
3.933333	1	0.005875
3.950000	1	0.007125
3.966667	1	0.008625
3.983333	1	0.011000
4.000000	1	0.013625
4.016667	1	0.015250
4.033333	1	0.016750
4.050000	1	0.017875
4.066667	1	0.019875
4.083333	1	0.021125
4.100000	1	0.023000
4.116667	1	0.024000
4.133333	1	0.025375
4.150000	1	0.026375
4.166667	1	0.027125
4.183333	1	0.027875
4.200000	1	0.028875
4.216667	1	0.030125
4.233333	1	0.030625
4.250000	1	0.030625
4.266667	1	0.031000
4.283333	1	0.032000
4.300000	1	0.032125
4.316667	1	0.033250
4.333333	1	0.033250
4.350000	1	0.034000
4.366667	1	0.035000
4.383333	1	0.036000
4.400000	1	0.036500
4.416667	1	0.037750
4.433333	1	0.039000
4.450000	1	0.039750
4.466667	1	0.040625
4.483333	1	0.041625
4.500000	1	0.042250
4.516667	1	0.044375
4.533333	1	0.045250
4.550000	1	0.046500
4.566667	1	0.048000
4.583333	1	0.049000
4.600000	1	0.050125
4.616667	1	0.051000
4.633333	1	0.052500
4.650000	1	0.053500
4.666667	1	0.054875
4.683333	1	0.055500
4.700000	1	0.056125
4.716667	1	0.057500
4.733333	1	0.058625
4.750000	1	0.059500
4.766667	1	0.059625
4.783333	1	0.059750
4.800000	1	0.061000
4.816667	1	0.061375
4.833333	1	0.061750
4.850000	1	0.061125
4.866667	1	0.061750
4.883333	1	0.062125
4.900000	1	0.062000
4.916667	1	0.062250
4.933333	1	0.063000
4.950000	1	0.063250
4.966667	1	0.063625
4.983333	1	0.063750
5.000000	1	0.064875
5.016667	1	0.066000
5.033333	1	0.066750
5.050000	1	0.068750
5.066667	1	0.069875
5.083333	1	0.071875
5.100000	1	0.073875
5.116667	1	0.075625
5.133333	1	0.077625
5.150000	1	0.080375
5.166667	1	0.082875
5.183333	1	0.086375
5.200000	1	0.089875
5.216667	1	0.093500
5.233333	1	0.097000
5.250000	1	0.101125
5.266667	1	0.105500
5.283333	1	0.109625
5.300000	1	0.114125
5.316667	1	0.119125
5.333333	1	0.123500
5.350000	1	0.128625
5.366667	1	0.133250
5.383333	1	0.138250
5.400000	1	0.143000
5.416667	1	0.148125
5.433333	1	0.153625
5.450000	1	0.158125
5.466667	1	0.163250
5.483333	1	0.167875
5.500000	1	0.172500
5.516667	1	0.177000
5.533333	1	0.180750
5.550000	1	0.185625
5.566667	1	0.190250
5.583333	1	0.194000
5.600000	1	0.198375
5.616667	1	0.202875
5.633333	1	0.207500
5.650000	1	0.211625
5.666667	1	0.214750
5.683333	1	0.217250
5.700000	1	0.221000
5.716667	1	0.224000
5.733333	1	0.226875
5.750000	1	0.230000
5.766667	1	0.232250
5.783333	1	0.235000
5.800000	1	0.236625
5.816667	1	0.238500
5.833333	1	0.240125
5.850000	1	0.242000
5.866667	1	0.243375
5.883333	1	0.244250
5.900000	1	0.244750
5.916667	1	0.245250
5.933333	1	0.245125
5.950000	1	0.244875
5.966667	1	0.244375
5.983333	1	0.243875
6.000000	1	0.243625
6.016667	1	0.243125
6.033333	1	0.242125
6.050000	1	0.240625
6.066667	1	0.238750
6.083333	1	0.236750
6.100000	1	0.234750
6.116667	1	0.232500
6.133333	1	0.230625
6.150000	1	0.227875
6.166667	1	0.225875
6.183333	1	0.222375
6.200000	1	0.220500
6.216667	1	0.217375
6.233333	1	0.214125
6.250000	1	0.211000
6.266667	1	0.208375
6.283333	1	0.205125
6.300000	1	0.202375
6.316667	1	0.198375
6.333333	1	0.195125
6.350000	1	0.191750
6.366667	1	0.188250
6.383333	1	0.184375
6.400000	1	0.180125
6.416667	1	0.176250
6.433333	1	0.173000
6.450000	1	0.168875
6.466667	1	0.165375
6.483333	1	0.161750
6.500000	1	0.157625
6.516667	1	0.153875
6.533333	1	0.149750
6.550000	1	0.146375
6.566667	1	0.141750
6.583333	1	0.137875
6.600000	1	0.134750
6.616667	1	0.131250
6.633333	1	0.127250
6.650000	1	0.124125
6.666667	1	0.120250
6.683333	1	0.116750
6.700000	1	0.113375
6.716667	1	0.110625
6.733333	1	0.108000
6.750000	1	0.105625
6.766667	1	0.103750
6.783333	1	0.101125
6.800000	1	0.099000
6.816667	1	0.097125
6.833333	1	0.095875
6.850000	1	0.094625
6.866667	1	0.093500
6.883333	1	0.092625
6.900000	1	0.091500
6.916667	1	0.090750
6.933333	1	0.090500
6.950000	1	0.091375
6.966667	1	0.091625
6.983333	1	0.091750
7.000000	1	0.092625
7.016667	1	0.092750
7.033333	1	0.093250
7.050000	1	0.093875
7.066667	1	0.094375
7.083333	1	0.095625
7.100000	1	0.097375
7.116667	1	0.099375
7.133333	1	0.101250
7.150000	1	0.102125
7.166667	1	0.103875
7.183333	1	0.106125
7.200000	1	0.108250
7.216667	1	0.110375
7.233333	1	0.112375
7.250000	1	0.114000
7.266667	1	0.116000
7.283333	1	0.118625
7.300000	1	0.120875
7.316667	1	0.123125
7.333333	1	0.126000
7.350000	1	0.128625
7.366667	1	0.130875
7.383333	1	0.133625
7.400000	1	0.136000
7.416667	1	0.138125
7.433333	1	0.140500
7.450000	1	0.143625
7.466667	1	0.146750
7.483333	1	0.148500
7.500000	1	0.150875
7.516667	1	0.153875
7.533333	1	0.156250
7.550000	1	0.158625
7.566667	1	0.160750
7.583333	1	0.162625
7.600000	1	0.163875
7.616667	1	0.165375
7.633333	1	0.167125
7.650000	1	0.169250
7.666667	1	0.169875
7.683333	1	0.170625
7.700000	1	0.171500
7.716667	1	0.172500
7.733333	1	0.173000
7.750000	1	0.172500
7.766667	1	0.172625
7.783333	1	0.172750
7.800000	1	0.171625
7.816667	1	0.170750
7.833333	1	0.169500
7.850000	1	0.167750
7.866667	1	0.166250
7.883333	1	0.164125
7.900000	1	0.161750
7.916667	1	0.159250
7.933333	1	0.156250
7.950000	1	0.152750
7.966667	1	0.149625
7.983333	1	0.146500
8.000000	1	0.143000
8.016667	1	0.139000
8.033333	1	0.135000
8.050000	1	0.130250
8.066667	1	0.125875
8.083333	1	0.121000
8.100000	1	0.116250
8.116667	1	0.111875
8.133333	1	0.107000
8.150000	1	0.102250
8.166667	1	0.097750
8.183333	1	0.092875
8.200000	1	0.088250
8.216667	1	0.083375
8.233333	1	0.078250
8.250000	1	0.073875
8.266667	1	0.069375
8.283333	1	0.065125
8.300000	1	0.060875
8.316667	1	0.057250
8.333333	1	0.053000
8.350000	1	0.049375
8.366667	1	0.046250
8.383333	1	0.042875
8.400000	1	0.040125
8.416667	1	0.036500
8.433333	1	0.033875
8.450000	1	0.031250
8.466667	1	0.029625
8.483333	1	0.028500
8.500000	1	0.027750
8.516667	1	0.027250
8.533333	1	0.026000
8.550000	1	0.025375
8.566667	1	0.024750
8.583333	1	0.024625
8.600000	1	0.024250
8.616667	1	0.024750
8.633333	1	0.025250
8.650000	1	0.025000
8.666667	1	0.024375
8.683333	1	0.025125
8.700000	1	0.025500
8.716667	1	0.026000
8.733333	1	0.026625
8.750000	1	0.027250
8.766667	1	0.027875
8.783333	1	0.028750
8.800000	1	0.029500
8.816667	1	0.030625
8.833333	1	0.031375
8.850000	1	0.032250
8.866667	1	0.032750
8.883333	1	0.033625
8.900000	1	0.034375
8.916667	1	0.036125
8.933333	1	0.037000
8.950000	1	0.037500
8.966667	1	0.038750
8.983333	1	0.039375
9.000000	1	0.040500
9.016667	1	0.041250
9.033333	1	0.042000
9.050000	1	0.042625
9.066667	1	0.043750
9.083333	1	0.044875
9.100000	1	0.045625
9.116667	1	0.046000
9.133333	1	0.047125
9.150000	1	0.048125
9.166667	1	0.049125
9.183333	1	0.050625
9.200000	1	0.051750
9.216667	1	0.053500
9.233333	1	0.054625
9.250000	1	0.055625
9.266667	1	0.056250
9.283333	1	0.056875
9.300000	1	0.058750
9.316667	1	0.059625
9.333333	1	0.060625
9.350000	1	0.062125
9.366667	1	0.063375
9.383333	1	0.064375
9.400000	1	0.065500
9.416667	1	0.066250
9.433333	1	0.067375
9.450000	1	0.068375
9.466667	1	0.069250
9.483333	1	0.069625
9.500000	1	0.069750
9.516667	1	0.070750
9.533333	1	0.071625
9.550000	1	0.071625
9.566667	1	0.071750
9.583333	1	0.072125
9.600000	1	0.071750
9.616667	1	0.072125
9.633333	1	0.072250
9.650000	1	0.072125
9.666667	1	0.071625
9.683333	1	0.071375
9.700000	1	0.070250
9.716667	1	0.069000
9.733333	1	0.068500
9.750000	1	0.067875
9.766667	1	0.067000
9.783333	1	0.064875
9.800000	1	0.062500
9.816667	1	0.060750
9.833333	1	0.059375
9.850000	1	0.058125
9.866667	1	0.056125
9.883333	1	0.055250
9.900000	1	0.053375
9.916667	1	0.051250
9.933333	1	0.049500
9.950000	1	0.047625
9.966667	1	0.046125
9.983333	1	0.044250
10.000000	1	0.043375
10.016667	1	0.042125
10.033333	1	0.041500
10.050000	1	0.041750
10.066667	1	0.042375
10.083333	1	0.044000
10.100000	1	0.046000
10.116667	1	0.049875
10.133333	1	0.053500
10.150000	1	0.059000
10.166667	1	0.066125
10.183333	1	0.074250
10.200000	1	0.083625
10.216667	1	0.095375
10.233333	1	0.108625
10.250000	1	0.124125
10.266667	1	0.141750
10.283333	1	0.162500
10.300000	1	0.186125
10.316667	1	0.211750
10.333333	1	0.241125
10.350000	1	0.274000
10.366667	1	0.309625
10.383333	1	0.348875
10.400000	1	0.388625
10.416667	1	0.424500
10.433333	1	0.450250
10.450000	1	0.454125
10.466667	1	0.426000
10.483333	1	0.363500
10.500000	1	0.280000
10.516667	1	0.213000
10.533333	1	0.225750
10.550000	1	0.403500
10.566667	1	0.842625
10.583333	1	1.641250
10.600000	1	2.885500
10.616667	1	4.643500
10.633333	1	6.958250
10.650000	1	9.852250
10.666667	1	13.332500
10.683333	1	17.380875
10.700000	1	21.949375
10.716667	1	26.951000
10.733333	1	32.242625
10.750000	1	37.615375
10.766667	1	42.765375
10.783333	1	47.304875
10.800000	1	50.784750
10.816667	1	52.780000
10.833333	1	53.003125
10.850000	1	51.411500
10.866667	1	48.229625
10.883333	1	43.889625
10.900000	1	38.907125
10.916667	1	33.752750
10.933333	1	28.785875
10.950000	1	24.234500
10.966667	1	20.213750
10.983333	1	16.758625
11.000000	1	13.854875
11.016667	1	11.457375
11.033333	1	9.506500
11.050000	1	7.934250
11.066667	1	6.676000
11.083333	1	5.671625
11.100000	1	4.870875
11.116667	1	4.231125
11.133333	1	3.717750
11.150000	1	3.303000
11.166667	1	2.965000
11.183333	1	2.687375
11.200000	1	2.457000
11.216667	1	2.263125
11.233333	1	2.099750
11.250000	1	1.959625
11.266667	1	1.840125
11.283333	1	1.736000
11.300000	1	1.645875
11.316667	1	1.567000
11.333333	1	1.497750
11.350000	1	1.437125
11.366667	1	1.383375
11.383333	1	1.336000
11.400000	1	1.294125
11.416667	1	1.256375
11.433333	1	1.222625
11.450000	1	1.192375
11.466667	1	1.164750
11.483333	1	1.140250
11.500000	1	1.118625
11.516667	1	1.098500
11.533333	1	1.080125
11.550000	1	1.064500
11.566667	1	1.049750
11.583333	1	1.037125
11.600000	1	1.026125
11.616667	1	1.016125
11.633333	1	1.008750
11.650000	1	1.002500
11.666667	1	0.998500
11.683333	1	0.995500
11.700000	1	0.994500
11.716667	1	0.994875
11.733333	1	0.996500
11.750000	1	1.000375
11.766667	1	1.004750
11.783333	1	1.009750
11.800000	1	1.016125
11.816667	1	1.022000
11.833333	1	1.028000
11.850000	1	1.033250
11.866667	1	1.038500
11.883333	1	1.043500
11.900000	1	1.048000
11.916667	1	1.052250
11.933333	1	1.055875
11.950000	1	1.059250
11.966667	1	1.063000
11.983333	1	1.067500
12.000000	1	1.072750
12.016667	1	1.078500
12.033333	1	1.084375
12.050000	1	1.091000
12.066667	1	1.098000
12.083333	1	1.105875
12.100000	1	1.114000
12.116667	1	1.123000
12.133333	1	1.132500
12.150000	1	1.143125
12.166667	1	1.154375
12.183333	1	1.166500
12.200000	1	1.181125
12.216667	1	1.197625
12.233333	1	1.214750
12.250000	1	1.234375
12.266667	1	1.255250
12.283333	1	1.279500
12.300000	1	1.305750
12.316667	1	1.335250
12.333333	1	1.368375
12.350000	1	1.405750
12.366667	1	1.450375
12.383333	1	1.504000
12.400000	1	1.569875
12.416667	1	1.651500
12.433333	1	1.753125
12.450000	1	1.878250
12.466667	1	2.031250
12.483333	1	2.215250
12.500000	1	2.431875
12.516667	1	2.682750
12.533333	1	2.968000
12.550000	1	3.287000
12.566667	1	3.639625
12.583333	1	4.022875
12.600000	1	4.436000
12.616667	1	4.876125
12.633333	1	5.341750
12.650000	1	5.830000
12.666667	1	6.340000
12.683333	1	6.869750
12.700000	1	7.416750
12.716667	1	7.980375
12.733333	1	8.557375
12.750000	1	9.148125
12.766667	1	9.751125
12.783333	1	10.364500
12.800000	1	10.984000
12.816667	1	11.597875
12.833333	1	12.180500
12.850000	1	12.677000
12.866667	1	13.002250
12.883333	1	13.060000
12.900000	1	12.775875
12.916667	1	12.137375
12.933333	1	11.202750
12.950000	1	10.085000
12.966667	1	8.907125
12.983333	1	7.768625
13.000000	1	6.731000
13.016667	1	5.820500
13.033333	1	5.040625
13.050000	1	4.385375
13.066667	1	3.842875
13.083333	1	3.398625
13.100000	1	3.039500
13.116667	1	2.751125
13.133333	1	2.519750
13.150000	1	2.334750
13.166667	1	2.185875
13.183333	1	2.065125
13.200000	1	1.967375
13.216667	1	1.885375
13.233333	1	1.816375
13.250000	1	1.756750
13.266667	1	1.705375
13.283333	1	1.659125
13.300000	1	1.618125
13.316667	1	1.580250
13.333333	1	1.545500
13.350000	1	1.513875
13.366667	1	1.485625
13.383333	1	1.461250
13.400000	1	1.438750
13.416667	1	1.419000
13.433333	1	1.401625
13.450000	1	1.387125
13.466667	1	1.375500
13.483333	1	1.366250
13.500000	1	1.358500
13.516667	1	1.353500
13.533333	1	1.349875
13.550000	1	1.347125
13.566667	1	1.345250
13.583333	1	1.342500
13.600000	1	1.338875
13.616667	1	1.333625
13.633333	1	1.326500
13.650000	1	1.317250
13.666667	1	1.305875
13.683333	1	1.292625
13.700000	1	1.277500
13.716667	1	1.260750
13.733333	1	1.243125
13.750000	1	1.225125
13.766667	1	1.206625
13.783333	1	1.187750
13.800000	1	1.169875
13.816667	1	1.151500
13.833333	1	1.134375
13.850000	1	1.118000
13.866667	1	1.102000
13.883333	1	1.086500
13.900000	1	1.071875
13.916667	1	1.057625
13.933333	1	1.044250
13.950000	1	1.031375
13.966667	1	1.019500
13.983333	1	1.007750
14.000000	1	0.996625
14.016667	1	0.985750
14.033333	1	0.975750
14.050000	1	0.966625
14.066667	1	0.957375
14.083333	1	0.948875
14.100000	1	0.940750
14.116667	1	0.933000
14.133333	1	0.926250
14.150000	1	0.919750
14.166667	1	0.913375
14.183333	1	0.909000
14.200000	1	0.905375
14.216667	1	0.902125
14.233333	1	0.900500
14.250000	1	0.900000
14.266667	1	0.900500
14.283333	1	0.901875
14.300000	1	0.904500
14.316667	1	0.909250
14.333333	1	0.914250
14.350000	1	0.920875
14.366667	1	0.930000
14.383333	1	0.940875
14.400000	1	0.955125
14.416667	1	0.973875
14.433333	1	0.999375
14.450000	1	1.036750
14.466667	1	1.093375
14.483333	1	1.181000
14.500000	1	1.318375
14.516667	1	1.530500
14.533333	1	1.852625
14.550000	1	2.331125
14.566667	1	3.025625
14.583333	1	4.005250
14.600000	1	5.351125
14.616667	1	7.150625
14.633333	1	9.491375
14.650000	1	12.447375
14.666667	1	16.070875
14.683333	1	20.376875
14.700000	1	25.326500
14.716667	1	30.828625
14.733333	1	36.735375
14.750000	1	42.842625
14.766667	1	48.900375
14.783333	1	54.634375
14.800000	1	59.772750
14.816667	1	64.064750
14.833333	1	67.298500
14.850000	1	69.327875
14.866667	1	70.080750
14.883333	1	69.569500
14.900000	1	67.882750
14.916667	1	65.177375
14.933333	1	61.651250
14.950000	1	57.524125
14.966667	1	53.016875
14.983333	1	48.335125
15.000000	1	43.648875
15.016667	1	39.093125
15.033333	1	34.767875
15.050000	1	30.741875
15.066667	1	27.055125
15.083333	1	23.723250
15.100000	1	20.744625
15.116667	1	18.103500
15.133333	1	15.774250
15.150000	1	13.729125
15.166667	1	11.940500
15.183333	1	10.381625
15.200000	1	9.025500
15.216667	1	7.849250
15.233333	1	6.832500
15.250000	1	5.956750
15.266667	1	5.207125
15.283333	1	4.570125
15.300000	1	4.033750
15.316667	1	3.585125
15.333333	1	3.215000
15.350000	1	2.912625
15.366667	1	2.670250
15.383333	1	2.477125
15.400000	1	2.324875
15.416667	1	2.206625
15.433333	1	2.113875
15.450000	1	2.040500
15.466667	1	1.980000
15.483333	1	1.927750
15.500000	1	1.878250
15.516667	1	1.831500
15.533333	1	1.784000
15.550000	1	1.735000
15.566667	1	1.685250
15.583333	1	1.635125
15.600000	1	1.584125
15.616667	1	1.535625
15.633333	1	1.488375
15.650000	1	1.443375
15.666667	1	1.401250
15.683333	1	1.361375
15.700000	1	1.324625
15.716667	1	1.290750
15.733333	1	1.259125
15.750000	1	1.229500
15.766667	1	1.202125
15.783333	1	1.176125
15.800000	1	1.151625
15.816667	1	1.128375
15.833333	1	1.107625
15.850000	1	1.087000
15.866667	1	1.069250
15.883333	1	1.054000
15.900000	1	1.041000
15.916667	1	1.030125
15.933333	1	1.022625
15.950000	1	1.017000
15.966667	1	1.014250
15.983333	1	1.013750
16.000000	1	1.015625
16.016667	1	1.019125
16.033333	1	1.022625
16.050000	1	1.028000
16.066667	1	1.034000
16.083333	1	1.039750
16.100000	1	1.044375
16.116667	1	1.048500
16.133333	1	1.051750
16.150000	1	1.055000
16.166667	1	1.056125
16.183333	1	1.056125
16.200000	1	1.055000
16.216667	1	1.053000
16.233333	1	1.049875
16.250000	1	1.045625
16.266667	1	1.041125
16.283333	1	1.035750
16.300000	1	1.029875
16.316667	1	1.025000
16.333333	1	1.020750
16.350000	1	1.018000
16.366667	1	1.016000
16.383333	1	1.014750
16.400000	1	1.015625
16.416667	1	1.018000
16.433333	1	1.021750
16.450000	1	1.026875
16.466667	1	1.033000
16.483333	1	1.039500
16.500000	1	1.045875
16.516667	1	1.051125
16.533333	1	1.055750
16.550000	1	1.058375
16.566667	1	1.059750
16.583333	1	1.059625
16.600000	1	1.057750
16.616667	1	1.054125
16.633333	1	1.050375
16.650000	1	1.045250
16.666667	1	1.040875
16.683333	1	1.036125
16.700000	1	1.033500
16.716667	1	1.032500
16.733333	1	1.033125
16.750000	1	1.035375
16.766667	1	1.039000
16.783333	1	1.045125
16.800000	1	1.051625
16.816667	1	1.058250
16.833333	1	1.064625
16.850000	1	1.070250
16.866667	1	1.075125
16.883333	1	1.079000
16.900000	1	1.080500
16.916667	1	1.080375
16.933333	1	1.078000
16.950000	1	1.074125
16.966667	1	1.069125
16.983333	1	1.062875
17.000000	1	1.055875
17.016667	1	1.048250
17.033333	1	1.040500
17.050000	1	1.033375
17.066667	1	1.026375
17.083333	1	1.020875
17.100000	1	1.015875
17.116667	1	1.011875
17.133333	1	1.009375
17.150000	1	1.007625
17.166667	1	1.007000
17.183333	1	1.006875
17.200000	1	1.008250
17.216667	1	1.010250
17.233333	1	1.013625
17.250000	1	1.016625
17.266667	1	1.021125
17.283333	1	1.025125
17.300000	1	1.030875
17.316667	1	1.036750
17.333333	1	1.043500
17.350000	1	1.049625
17.366667	1	1.056375
17.383333	1	1.062750
17.400000	1	1.068500
17.416667	1	1.073500
17.433333	1	1.077625
17.450000	1	1.080375
17.466667	1	1.082250
17.483333	1	1.082875
17.500000	1	1.081375
17.516667	1	1.077750
17.533333	1	1.073000
17.550000	1	1.066625
17.566667	1	1.058875
17.583333	1	1.050250
17.600000	1	1.040125
17.616667	1	1.028750
17.633333	1	1.016250
17.650000	1	1.003750
17.666667	1	0.991125
17.683333	1	0.978125
17.700000	1	0.964500
17.716667	1	0.951250
17.733333	1	0.937750
17.750000	1	0.924750
17.766667	1	0.912750
17.783333	1	0.900875
17.800000	1	0.889875
17.816667	1	0.880875
17.833333	1	0.871500
17.850000	1	0.863250
17.866667	1	0.855750
17.883333	1	0.848125
17.900000	1	0.841875
17.916667	1	0.835750
17.933333	1	0.829125
17.950000	1	0.822875
17.966667	1	0.817000
17.983333	1	0.810500
18.000000	1	0.805000
18.016667	1	0.799250
18.033333	1	0.793375
18.050000	1	0.786625
18.066667	1	0.780125
18.083333	1	0.774875
18.100000	1	0.770250
18.116667	1	0.765500
18.133333	1	0.762125
18.150000	1	0.759000
18.166667	1	0.756500
18.183333	1	0.754250
18.200000	1	0.752625
18.216667	1	0.752250
18.233333	1	0.751750
18.250000	1	0.751125
18.266667	1	0.749875
18.283333	1	0.749125
18.300000	1	0.749000
18.316667	1	0.749250
18.333333	1	0.749250
18.350000	1	0.749625
18.366667	1	0.750750
18.383333	1	0.753250
18.400000	1	0.756375
18.416667	1	0.759875
18.433333	1	0.764625
18.450000	1	0.772875
18.466667	1	0.782375
18.483333	1	0.794125
18.500000	1	0.807250
18.516667	1	0.823000
18.533333	1	0.840750
18.550000	1	0.860625
18.566667	1	0.883000
18.583333	1	0.906750
18.600000	1	0.932750
18.616667	1	0.960000
18.633333	1	0.988875
18.650000	1	1.019750
18.666667	1	1.051875
18.683333	1	1.085875
18.700000	1	1.120875
18.716667	1	1.155500
18.733333	1	1.190625
18.750000	1	1.226125
18.766667	1	1.260750
18.783333	1	1.294125
18.800000	1	1.326375
18.816667	1	1.354875
18.833333	1	1.380875
18.850000	1	1.402250
18.866667	1	1.419250
18.883333	1	1.430625
18.900000	1	1.435875
18.916667	1	1.435125
18.933333	1	1.427750
18.950000	1	1.414500
18.966667	1	1.394875
18.983333	1	1.368500
19.000000	1	1.336375
19.016667	1	1.299375
19.033333	1	1.257625
19.050000	1	1.213375
19.066667	1	1.167250
19.083333	1	1.119875
19.100000	1	1.071625
19.116667	1	1.024250
19.133333	1	0.978500
19.150000	1	0.935625
19.166667	1	0.896250
19.183333	1	0.860625
19.200000	1	0.829125
19.216667	1	0.802625
19.233333	1	0.781250
19.250000	1	0.765875
19.266667	1	0.756125
19.283333	1	0.752500
19.300000	1	0.755625
19.316667	1	0.765250
19.333333	1	0.780750
19.350000	1	0.800625
19.366667	1	0.826750
19.383333	1	0.856875
19.400000	1	0.890875
19.416667	1	0.927375
19.433333	1	0.965125
19.450000	1	1.003000
19.466667	1	1.040250
19.483333	1	1.076250
19.500000	1	1.109750
19.516667	1	1.140500
19.533333	1	1.166375
19.550000	1	1.188000
19.566667	1	1.204875
19.583333	1	1.216375
19.600000	1	1.223125
19.616667	1	1.225500
19.633333	1	1.223125
19.650000	1	1.216375
19.666667	1	1.204750
19.683333	1	1.190250
19.700000	1	1.171250
19.716667	1	1.149500
19.733333	1	1.125125
19.750000	1	1.097500
19.766667	1	1.068125
19.783333	1	1.037000
19.800000	1	1.004875
19.816667	1	0.971875
19.833333	1	0.938500
19.850000	1	0.905375
19.866667	1	0.872875
19.883333	1	0.841250
19.900000	1	0.810500
19.916667	1	0.781125
19.933333	1	0.754625
19.950000	1	0.731625
19.966667	1	0.712000
19.983333	1	0.695000
20.000000	1	0.682000
20.016667	1	0.672500
20.033333	1	0.668625
20.050000	1	0.670250
20.066667	1	0.677625
20.083333	1	0.690000
20.100000	1	0.708375
20.116667	1	0.731000
20.133333	1	0.758000
20.150000	1	0.789125
20.166667	1	0.823875
20.183333	1	0.859625
20.200000	1	0.896375
20.216667	1	0.932375
20.233333	1	0.966000
20.250000	1	0.995750
20.266667	1	1.020125
20.283333	1	1.039625
20.300000	1	1.051875
20.316667	1	1.057000
20.333333	1	1.055000
20.350000	1	1.047625
20.366667	1	1.031750
20.383333	1	1.011000
20.400000	1	0.984375
20.416667	1	0.955625
20.433333	1	0.924250
20.450000	1	0.891000
20.466667	1	0.858250
20.483333	1	0.826625
20.500000	1	0.798125
20.516667	1	0.772000
20.533333	1	0.750750
20.550000	1	0.735125
20.566667	1	0.725875
20.583333	1	0.723875
20.600000	1	0.730000
20.616667	1	0.744375
20.633333	1	0.768000
20.650000	1	0.801500
20.666667	1	0.845125
20.683333	1	0.897875
20.700000	1	0.959250
20.716667	1	1.028125
20.733333	1	1.103375
20.750000	1	1.182750
20.766667	1	1.264625
20.783333	1	1.346375
20.800000	1	1.424750
20.816667	1	1.497750
20.833333	1	1.562375
20.850000	1	1.616250
20.866667	1	1.658500
20.883333	1	1.687125
20.900000	1	1.701250
20.916667	1	1.701000
20.933333	1	1.687125
20.950000	1	1.659625
20.966667	1	1.620750
20.983333	1	1.572750
21.000000	1	1.515500
21.016667	1	1.452500
21.033333	1	1.385750
21.050000	1	1.316500
21.066667	1	1.247500
21.083333	1	1.179875
21.100000	1	1.114250
21.116667	1	1.050750
21.133333	1	0.990750
21.150000	1	0.935625
21.166667	1	0.883625
21.183333	1	0.836750
21.200000	1	0.792375
21.216667	1	0.751750
21.233333	1	0.716000
21.250000	1	0.683250
21.266667	1	0.653625
21.283333	1	0.627125
21.300000	1	0.603250
21.316667	1	0.581875
21.333333	1	0.562500
21.350000	1	0.544875
21.366667	1	0.528500
21.383333	1	0.514125
21.400000	1	0.501625
21.416667	1	0.489000
21.433333	1	0.477875
21.450000	1	0.467750
21.466667	1	0.458250
21.483333	1	0.449375
21.500000	1	0.441375
21.516667	1	0.434000
21.533333	1	0.427750
21.550000	1	0.422125
21.566667	1	0.416750
21.583333	1	0.411750
21.600000	1	0.408000
21.616667	1	0.404500
21.633333	1	0.401250
21.650000	1	0.399000
21.666667	1	0.397750
21.683333	1	0.396625
21.700000	1	0.396125
21.716667	1	0.396750
21.733333	1	0.398375
21.750000	1	0.400125
21.766667	1	0.402000
21.783333	1	0.404375
21.800000	1	0.407000
21.816667	1	0.409750
21.833333	1	0.412500
21.850000	1	0.416500
21.866667	1	0.420625
21.883333	1	0.425750
21.900000	1	0.431000
21.916667	1	0.436000
21.933333	1	0.441750
21.950000	1	0.448375
21.966667	1	0.455250
21.983333	1	0.462375
22.000000	1	0.469375
22.016667	1	0.477625
22.033333	1	0.486000
22.050000	1	0.494875
22.066667	1	0.503000
22.083333	1	0.511625
22.100000	1	0.519625
22.116667	1	0.527125
22.133333	1	0.533875
22.150000	1	0.539500
22.166667	1	0.544625
22.183333	1	0.547875
22.200000	1	0.549750
22.216667	1	0.550500
22.233333	1	0.549125
22.250000	1	0.546375
22.266667	1	0.542250
22.283333	1	0.536500
22.300000	1	0.530375
22.316667	1	0.523000
22.333333	1	0.514625
22.350000	1	0.505250
22.366667	1	0.495875
22.383333	1	0.485875
22.400000	1	0.475000
22.416667	1	0.463750
22.433333	1	0.453125
22.450000	1	0.441625
22.466667	1	0.430750
22.483333	1	0.420625
22.500000	1	0.410500
22.516667	1	0.401375
22.533333	1	0.392250
22.550000	1	0.383750
22.566667	1	0.375125
22.583333	1	0.366625
22.600000	1	0.359125
22.616667	1	0.351750
22.633333	1	0.344000
22.650000	1	0.337500
22.666667	1	0.331750
22.683333	1	0.325750
22.700000	1	0.319875
22.716667	1	0.314375
22.733333	1	0.309625
22.750000	1	0.305125
22.766667	1	0.300875
22.783333	1	0.297375
22.800000	1	0.293875
22.816667	1	0.289750
22.833333	1	0.286875
22.850000	1	0.284250
22.866667	1	0.281875
22.883333	1	0.280500
22.900000	1	0.279625
22.916667	1	0.279250
22.933333	1	0.279125
22.950000	1	0.279000
22.966667	1	0.278750
22.983333	1	0.279750
23.000000	1	0.280875
23.016667	1	0.282125
23.033333	1	0.283500
23.050000	1	0.284875
23.066667	1	0.287750
23.083333	1	0.290125
23.100000	1	0.292125
23.116667	1	0.294500
23.133333	1	0.297125
23.150000	1	0.299875
23.166667	1	0.301750
23.183333	1	0.303750
23.200000	1	0.305375
23.216667	1	0.307250
23.233333	1	0.309375
23.250000	1	0.311625
23.266667	1	0.313750
23.283333	1	0.316750
23.300000	1	0.322000
23.316667	1	0.328000
23.333333	1	0.336125
23.350000	1	0.347000
23.366667	1	0.361500
23.383333	1	0.381000
23.400000	1	0.407375
23.416667	1	0.441375
23.433333	1	0.484625
23.450000	1	0.540875
23.466667	1	0.611500
23.483333	1	0.699375
23.500000	1	0.806375
23.516667	1	0.935375
23.533333	1	1.087375
23.550000	1	1.266000
23.566667	1	1.471875
23.583333	1	1.704375
23.600000	1	1.963875
23.616667	1	2.249250
23.633333	1	2.558250
23.650000	1	2.886125
23.666667	1	3.229250
23.683333	1	3.581125
23.700000	1	3.936625
23.716667	1	4.288000
23.733333	1	4.626375
23.750000	1	4.945500
23.766667	1	5.237000
23.783333	1	5.494000
23.800000	1	5.710125
23.816667	1	5.882875
23.833333	1	6.006625
23.850000	1	6.081000
23.866667	1	6.105000
23.883333	1	6.080500
23.900000	1	6.009375
23.916667	1	5.895875
23.933333	1	5.743000
23.950000	1	5.558125
23.966667	1	5.345500
23.983333	1	5.111500
24.000000	1	4.861250
24.016667	1	4.601000
24.033333	1	4.334250
24.050000	1	4.068875
24.066667	1	3.806000
24.083333	1	3.549750
24.100000	1	3.301250
24.116667	1	3.062875
24.133333	1	2.836875
24.150000	1	2.622625
24.166667	1	2.421750
24.183333	1	2.233625
24.200000	1	2.059125
24.216667	1	1.897000
24.233333	1	1.748000
24.250000	1	1.610625
24.266667	1	1.484750
24.283333	1	1.368875
24.300000	1	1.263875
24.316667	1	1.167500
24.333333	1	1.080125
24.350000	1	1.001500
24.366667	1	0.931125
24.383333	1	0.868375
24.400000	1	0.812625
24.416667	1	0.763375
24.433333	1	0.720625
24.450000	1	0.683500
24.466667	1	0.650625
24.483333	1	0.623125
24.500000	1	0.598625
24.516667	1	0.578250
24.533333	1	0.560250
24.550000	1	0.545875
24.566667	1	0.533125
24.583333	1	0.522250
24.600000	1	0.512625
24.616667	1	0.505250
24.633333	1	0.498125
24.650000	1	0.491500
24.666667	1	0.484500
24.683333	1	0.478500
24.700000	1	0.472750
24.716667	1	0.467125
24.733333	1	0.461375
24.750000	1	0.455750
24.766667	1	0.450125
24.783333	1	0.443750
24.800000	1	0.438000
24.816667	1	0.431250
24.833333	1	0.425125
24.850000	1	0.418750
24.866667	1	0.412250
24.883333	1	0.405625
24.900000	1	0.399750
24.916667	1	0.393125
24.933333	1	0.387125
24.950000	1	0.380250
24.966667	1	0.373750
24.983333	1	0.368375
25.000000	1	0.362375
25.016667	1	0.356750
25.033333	1	0.351250
25.050000	1	0.345375
25.066667	1	0.340375
25.083333	1	0.335500
25.100000	1	0.330750
25.116667	1	0.326500
25.133333	1	0.322125
25.150000	1	0.316625
25.166667	1	0.311375
25.183333	1	0.306625
25.200000	1	0.302625
25.216667	1	0.298625
25.233333	1	0.294375
25.250000	1	0.291125
25.266667	1	0.287125
25.283333	1	0.284250
25.300000	1	0.280750
25.316667	1	0.278250
25.333333	1	0.275375
25.350000	1	0.273125
25.366667	1	0.271500
25.383333	1	0.269875
25.400000	1	0.268625
25.416667	1	0.267125
25.433333	1	0.266125
25.450000	1	0.265500
25.466667	1	0.265625
25.483333	1	0.265875
25.500000	1	0.266000
25.516667	1	0.266625
25.533333	1	0.267375
25.550000	1	0.268125
25.566667	1	0.269375
25.583333	1	0.270750
25.600000	1	0.271625
25.616667	1	0.273000
25.633333	1	0.274750
25.650000	1	0.276875
25.666667	1	0.278750
25.683333	1	0.281000
25.700000	1	0.282250
25.716667	1	0.283750
25.733333	1	0.286125
25.750000	1	0.287625
25.766667	1	0.289250
25.783333	1	0.291625
25.800000	1	0.293500
25.816667	1	0.295500
25.833333	1	0.297500
25.850000	1	0.299875
25.866667	1	0.302375
25.883333	1	0.305875
25.900000	1	0.309625
25.916667	1	0.313000
25.933333	1	0.316125
25.950000	1	0.320125
25.966667	1	0.324250
25.983333	1	0.328375
26.000000	1	0.333000
26.016667	1	0.338125
26.033333	1	0.343875
26.050000	1	0.348625
26.066667	1	0.354500
26.083333	1	0.360875
26.100000	1	0.366750
26.116667	1	0.373375
26.133333	1	0.379625
26.150000	1	0.385375
26.166667	1	0.391500
26.183333	1	0.397250
26.200000	1	0.402625
26.216667	1	0.408125
26.233333	1	0.413250
26.250000	1	0.417000
26.266667	1	0.420500
26.283333	1	0.424000
26.300000	1	0.427000
26.316667	1	0.429125
26.333333	1	0.431250
26.350000	1	0.431125
26.366667	1	0.430750
26.383333	1	0.429625
26.400000	1	0.427625
26.416667	1	0.425125
26.433333	1	0.422375
26.450000	1	0.418125
26.466667	1	0.414250
26.483333	1	0.409625
26.500000	1	0.403750
26.516667	1	0.397750
26.533333	1	0.390750
26.550000	1	0.383250
26.566667	1	0.375375
26.583333	1	0.367625
26.600000	1	0.359500
26.616667	1	0.351875
26.633333	1	0.344000
26.650000	1	0.336125
26.666667	1	0.328125
26.683333	1	0.320250
26.700000	1	0.312750
26.716667	1	0.305000
26.733333	1	0.297500
26.750000	1	0.290750
26.766667	1	0.284375
26.783333	1	0.278000
26.800000	1	0.272000
26.816667	1	0.267500
26.833333	1	0.262625
26.850000	1	0.258000
26.866667	1	0.254125
26.883333	1	0.251375
26.900000	1	0.248750
26.916667	1	0.245750
26.933333	1	0.243000
26.950000	1	0.240750
26.966667	1	0.239875
26.983333	1	0.239375
27.000000	1	0.238750
27.016667	1	0.238750
27.033333	1	0.239500
27.050000	1	0.240375
27.066667	1	0.242125
27.083333	1	0.243500
27.100000	1	0.246125
27.116667	1	0.249000
27.133333	1	0.252625
27.150000	1	0.255750
27.166667	1	0.260000
27.183333	1	0.265125
27.200000	1	0.271500
27.216667	1	0.279125
27.233333	1	0.287500
27.250000	1	0.298375
27.266667	1	0.310500
27.283333	1	0.324875
27.300000	1	0.342250
27.316667	1	0.362625
27.333333	1	0.386750
27.350000	1	0.414500
27.366667	1	0.448375
27.383333	1	0.487750
27.400000	1	0.534375
27.416667	1	0.588500
27.433333	1	0.651250
27.450000	1	0.724000
27.466667	1	0.806000
27.483333	1	0.899375
27.500000	1	1.004250
27.516667	1	1.121125
27.533333	1	1.250250
27.550000	1	1.391875
27.566667	1	1.545125
27.583333	1	1.710125
27.600000	1	1.885875
27.616667	1	2.070250
27.633333	1	2.264000
27.650000	1	2.463625
27.666667	1	2.666750
27.683333	1	2.871375
27.700000	1	3.075375
27.716667	1	3.273875
27.733333	1	3.465375
27.750000	1	3.646125
27.766667	1	3.813000
27.783333	1	3.963000
27.800000	1	4.093875
27.816667	1	4.202875
27.833333	1	4.289000
27.850000	1	4.349750
27.866667	1	4.384750
27.883333	1	4.393500
27.900000	1	4.376125
27.916667	1	4.332500
27.933333	1	4.264375
27.950000	1	4.174000
27.966667	1	4.062750
27.983333	1	3.934250
28.000000	1	3.789875
28.016667	1	3.633500
28.033333	1	3.467375
28.050000	1	3.294250
28.066667	1	3.117500
28.083333	1	2.938375
28.100000	1	2.759375
28.116667	1	2.584125
28.133333	1	2.412500
28.150000	1	2.247000
28.166667	1	2.088750
28.183333	1	1.938500
28.200000	1	1.796250
28.216667	1	1.662375
28.233333	1	1.537250
28.250000	1	1.420375
28.266667	1	1.312125
28.283333	1	1.212625
28.300000	1	1.121375
28.316667	1	1.037875
28.333333	1	0.961875
28.350000	1	0.892500
28.366667	1	0.830375
28.383333	1	0.774250
28.400000	1	0.723625
28.416667	1	0.678125
28.433333	1	0.637875
28.450000	1	0.602125
28.466667	1	0.570625
28.483333	1	0.543500
28.500000	1	0.520375
28.516667	1	0.500250
28.533333	1	0.483125
28.550000	1	0.470250
28.566667	1	0.460500
28.583333	1	0.453125
28.600000	1	0.448750
28.616667	1	0.446625
28.633333	1	0.446125
28.650000	1	0.447250
28.666667	1	0.450125
28.683333	1	0.454875
28.700000	1	0.459375
28.716667	1	0.465500
28.733333	1	0.472500
28.750000	1	0.480625
28.766667	1	0.488625
28.783333	1	0.497125
28.800000	1	0.504875
28.816667	1	0.513625
28.833333	1	0.522000
28.850000	1	0.529875
28.866667	1	0.536500
28.883333	1	0.543250
28.900000	1	0.548875
28.916667	1	0.553750
28.933333	1	0.557375
28.950000	1	0.560125
28.966667	1	0.561625
28.983333	1	0.562500
29.000000	1	0.561375
29.016667	1	0.558625
29.033333	1	0.554875
29.050000	1	0.548500
29.066667	1	0.542000
29.083333	1	0.533625
29.100000	1	0.523250
29.116667	1	0.510000
29.133333	1	0.495375
29.150000	1	0.478625
29.166667	1	0.459750
29.183333	1	0.439000
29.200000	1	0.416250
29.216667	1	0.391375
29.233333	1	0.363625
29.250000	1	0.333625
29.266667	1	0.300375
29.283333	1	0.265500
29.300000	1	0.228375
29.316667	1	0.189125
29.333333	1	0.146375
29.350000	1	0.101750
29.366667	1	0.055500
29.383333	1	0.007125
29.400000	1	-0.042750
29.416667	1	-0.095125
29.433333	1	-0.149375
29.450000	1	-0.203625
29.466667	1	-0.258875
29.483333	1	-0.315250
29.500000	1	-0.370875
29.516667	1	-0.425750
29.533333	1	-0.480375
29.550000	1	-0.533875
29.566667	1	-0.585500
29.583333	1	-0.633750
29.600000	1	-0.679250
29.616667	1	-0.722125
29.633333	1	-0.761500
29.650000	1	-0.796625
29.666667	1	-0.827500
29.683333	1	-0.853875
29.700000	1	-0.875375
29.716667	1	-0.892625
29.733333	1	-0.904500
29.750000	1	-0.911250
29.766667	1	-0.912875
29.783333	1	-0.909875
29.800000	1	-0.902500
29.816667	1	-0.890375
29.833333	1	-0.874125
29.850000	1	-0.854000
29.866667	1	-0.830125
29.883333	1	-0.803250
29.900000	1	-0.774125
29.916667	1	-0.742625
29.933333	1	-0.709375
29.950000	1	-0.674125
29.966667	1	-0.637625
29.983333	1	-0.600125
30.000000	1	-0.562875
30.016667	1	-0.525125
30.033333	1	-0.486625
30.050000	1	-0.448375
30.066667	1	-0.410875
30.083333	1	-0.375000
30.100000	1	-0.340375
30.116667	1	-0.306000
30.133333	1	-0.272625
30.150000	1	-0.241125
30.166667	1	-0.211625
30.183333	1	-0.183000
30.200000	1	-0.155625
30.216667	1	-0.130500
30.233333	1	-0.106500
30.250000	1	-0.084250
30.266667	1	-0.063875
30.283333	1	-0.044750
30.300000	1	-0.027250
30.316667	1	-0.011375
30.333333	1	0.003125
30.350000	1	0.015500
30.366667	1	0.027500
30.383333	1	0.038250
30.400000	1	0.049000
30.416667	1	0.057875
30.433333	1	0.066000
30.450000	1	0.073375
30.466667	1	0.080375
30.483333	1	0.086375
30.500000	1	0.091875
30.516667	1	0.097375
30.533333	1	0.102250
30.550000	1	0.106875
30.566667	1	0.111375
30.583333	1	0.115875
30.600000	1	0.120375
30.616667	1	0.125625
30.633333	1	0.131000
30.650000	1	0.136000
30.666667	1	0.141500
30.683333	1	0.147250
30.700000	1	0.153500
30.716667	1	0.159625
30.733333	1	0.166000
30.750000	1	0.173375
30.766667	1	0.181250
30.783333	1	0.189250
30.800000	1	0.197250
30.816667	1	0.206000
30.833333	1	0.214625
30.850000	1	0.223875
30.866667	1	0.233500
30.883333	1	0.244250
30.900000	1	0.256250
30.916667	1	0.269000
30.933333	1	0.282000
30.950000	1	0.296875
30.966667	1	0.313625
30.983333	1	0.332375
31.000000	1	0.353250
31.016667	1	0.377500
31.033333	1	0.404375
31.050000	1	0.435375
31.066667	1	0.470375
31.083333	1	0.510375
31.100000	1	0.556250
31.116667	1	0.609625
31.133333	1	0.669000
31.150000	1	0.735500
31.166667	1	0.810625
31.183333	1	0.894875
31.200000	1	0.988625
31.216667	1	1.092625
31.233333	1	1.207000
31.250000	1	1.332000
31.266667	1	1.467375
31.283333	1	1.612750
31.300000	1	1.767000
31.316667	1	1.930125
31.333333	1	2.101875
31.350000	1	2.280750
31.366667	1	2.464250
31.383333	1	2.651375
31.400000	1	2.841500
31.416667	1	3.031875
31.433333	1	3.219625
31.450000	1	3.402625
31.466667	1	3.578375
31.483333	1	3.745000
31.500000	1	3.899625
31.516667	1	4.041250
31.533333	1	4.167000
31.550000	1	4.276125
31.566667	1	4.367750
31.583333	1	4.439375
31.600000	1	4.491250
31.616667	1	4.522375
31.633333	1	4.532625
31.650000	1	4.522625
31.666667	1	4.492250
31.683333	1	4.443250
31.700000	1	4.375875
31.716667	1	4.291375
31.733333	1	4.192625
31.750000	1	4.080000
31.766667	1	3.955750
31.783333	1	3.821875
31.800000	1	3.679250
31.816667	1	3.530125
31.833333	1	3.376250
31.850000	1	3.218875
31.866667	1	3.060125
31.883333	1	2.900875
31.900000	1	2.743125
31.916667	1	2.587875
31.933333	1	2.436375
31.950000	1	2.289125
31.966667	1	2.146250
31.983333	1	2.009000
32.000000	1	1.876625
32.016667	1	1.750375
32.033333	1	1.629000
32.050000	1	1.513625
32.066667	1	1.405125
32.083333	1	1.302125
32.100000	1	1.205875
32.116667	1	1.114750
32.133333	1	1.030875
32.150000	1	0.951625
32.166667	1	0.877250
32.183333	1	0.808375
32.200000	1	0.743500
32.216667	1	0.683500
32.233333	1	0.627500
32.250000	1	0.576000
32.266667	1	0.528000
32.283333	1	0.484000
32.300000	1	0.443125
32.316667	1	0.405000
32.333333	1	0.371250
32.350000	1	0.339750
32.366667	1	0.311125
32.383333	1	0.284500
32.400000	1	0.260625
32.416667	1	0.238125
32.433333	1	0.217750
32.450000	1	0.199375
32.466667	1	0.183125
32.483333	1	0.167375
32.500000	1	0.153375
32.516667	1	0.140500
32.533333	1	0.129750
32.550000	1	0.119125
32.566667	1	0.110000
32.583333	1	0.101750
32.600000	1	0.094250
32.616667	1	0.088000
32.633333	1	0.081375
32.650000	1	0.076500
32.666667	1	0.070875
32.683333	1	0.066500
32.700000	1	0.062875
32.716667	1	0.059250
32.733333	1	0.056125
32.750000	1	0.053500
32.766667	1	0.051125
32.783333	1	0.048500
32.800000	1	0.046500
32.816667	1	0.044875
32.833333	1	0.043250
32.850000	1	0.041500
32.866667	1	0.040000
32.883333	1	0.038875
32.900000	1	0.038000
32.916667	1	0.037125
32.933333	1	0.036000
32.950000	1	0.034625
32.966667	1	0.034000
32.983333	1	0.033000
33.000000	1	0.032250
33.016667	1	0.031000
33.033333	1	0.029125
33.050000	1	0.027750
33.066667	1	0.026375
33.083333	1	0.025000
33.100000	1	0.024125
33.116667	1	0.022500
33.133333	1	0.020875
33.150000	1	0.019625
33.166667	1	0.018125
33.183333	1	0.016750
33.200000	1	0.014875
33.216667	1	0.013875
33.233333	1	0.012750
33.250000	1	0.011500
33.266667	1	0.009875
33.283333	1	0.008750
33.300000	1	0.007625
33.316667	1	0.006750
33.333333	1	0.005500
33.350000	1	0.004750
33.366667	1	0.004000
33.383333	1	0.003375
33.400000	1	0.003875
33.416667	1	0.004375
33.433333	1	0.004875
33.450000	1	0.005625
33.466667	1	0.005750
33.483333	1	0.007250
33.500000	1	0.009500
33.516667	1	0.011250
33.533333	1	0.013375
33.550000	1	0.016125
33.566667	1	0.019125
33.583333	1	0.022500
33.600000	1	0.026125
33.616667	1	0.030375
33.633333	1	0.034500
33.650000	1	0.039250
33.666667	1	0.043875
33.683333	1	0.048500
33.700000	1	0.053750
33.716667	1	0.059750
33.733333	1	0.065125
33.750000	1	0.071250
33.766667	1	0.077500
33.783333	1	0.083375
33.800000	1	0.089375
33.816667	1	0.094250
33.833333	1	0.100000
33.850000	1	0.105500
33.866667	1	0.111125
33.883333	1	0.115875
33.900000	1	0.121000
33.916667	1	0.125500
33.933333	1	0.130500
33.950000	1	0.134875
33.966667	1	0.138750
33.983333	1	0.141875
34.000000	1	0.145125
34.016667	1	0.147750
34.033333	1	0.150500
34.050000	1	0.152500
34.066667	1	0.154750
34.083333	1	0.156000
34.100000	1	0.157000
34.116667	1	0.157500
34.133333	1	0.157375
34.150000	1	0.157250
34.166667	1	0.156375
34.183333	1	0.156250
34.200000	1	0.155250
34.216667	1	0.154250
34.233333	1	0.152625
34.250000	1	0.150875
34.266667	1	0.148500
34.283333	1	0.147250
34.300000	1	0.145000
34.316667	1	0.142625
34.333333	1	0.140500
34.350000	1	0.138875
34.366667	1	0.136000
34.383333	1	0.133875
34.400000	1	0.131125
34.416667	1	0.128750
34.433333	1	0.126750
34.450000	1	0.124750
34.466667	1	0.123125
34.483333	1	0.121750
34.500000	1	0.120000
34.516667	1	0.118375
34.533333	1	0.117125
34.550000	1	0.115875
34.566667	1	0.114750
34.583333	1	0.113875
34.600000	1	0.112375
34.616667	1	0.110625
34.633333	1	0.109375
34.650000	1	0.108000
34.666667	1	0.107250
34.683333	1	0.106250
34.700000	1	0.105375
34.716667	1	0.104000
34.733333	1	0.102625
34.750000	1	0.101250
34.766667	1	0.099375
34.783333	1	0.098000
34.800000	1	0.095750
34.816667	1	0.094000
34.833333	1	0.091125
34.850000	1	0.088875
34.866667	1	0.086250
34.883333	1	0.083750
34.900000	1	0.081125
34.916667	1	0.077750
34.933333	1	0.074750
34.950000	1	0.073250
34.966667	1	0.070500
34.983333	1	0.068000
35.000000	1	0.065375
35.016667	1	0.063500
35.033333	1	0.061125
35.050000	1	0.059500
35.066667	1	0.058500
35.083333	1	0.057250
35.100000	1	0.055750
35.116667	1	0.054750
35.133333	1	0.054250
35.150000	1	0.053125
35.166667	1	0.053375
35.183333	1	0.053500
35.200000	1	0.054625
35.216667	1	0.055250
35.233333	1	0.056000
35.250000	1	0.056625
35.266667	1	0.058375
35.283333	1	0.059875
35.300000	1	0.062625
35.316667	1	0.065125
35.333333	1	0.068125
35.350000	1	0.070125
35.366667	1	0.072625
35.383333	1	0.075500
35.400000	1	0.078250
35.416667	1	0.081375
35.433333	1	0.084250
35.450000	1	0.087000
35.466667	1	0.089375
35.483333	1	0.091625
35.500000	1	0.094500
35.516667	1	0.098000
35.533333	1	0.100875
35.550000	1	0.103875
35.566667	1	0.107250
35.583333	1	0.110000
35.600000	1	0.112500
35.616667	1	0.115125
35.633333	1	0.117500
35.650000	1	0.119500
35.666667	1	0.121500
35.683333	1	0.123250
35.700000	1	0.125250
35.716667	1	0.126375
35.733333	1	0.128250
35.750000	1	0.129500
35.766667	1	0.130875
35.783333	1	0.131625
35.800000	1	0.132875
35.816667	1	0.132625
35.833333	1	0.132625
35.850000	1	0.132500
35.866667	1	0.131375
35.883333	1	0.130500
35.900000	1	0.130125
35.916667	1	0.129500
35.933333	1	0.128375
35.950000	1	0.126250
35.966667	1	0.124875
35.983333	1	0.123000
36.000000	1	0.121250
36.016667	1	0.119000
36.033333	1	0.117375
36.050000	1	0.115125
36.066667	1	0.113125
36.083333	1	0.111500
36.100000	1	0.109875
36.116667	1	0.107750
36.133333	1	0.106000
36.150000	1	0.104750
36.166667	1	0.104375
36.183333	1	0.103625
36.200000	1	0.102250
36.216667	1	0.102000
36.233333	1	0.101875
36.250000	1	0.102250
36.266667	1	0.101750
36.283333	1	0.102750
36.300000	1	0.102875
36.316667	1	0.103500
36.333333	1	0.104250
36.350000	1	0.104875
36.366667	1	0.106750
36.383333	1	0.108500
36.400000	1	0.109375
36.416667	1	0.111125
36.433333	1	0.111750
36.450000	1	0.113375
36.466667	1	0.114875
36.483333	1	0.116125
36.500000	1	0.117500
36.516667	1	0.119125
36.533333	1	0.119875
36.550000	1	0.121750
36.566667	1	0.123625
36.583333	1	0.124375
36.600000	1	0.125750
36.616667	1	0.126875
36.633333	1	0.127750
36.650000	1	0.128625
36.666667	1	0.129375
36.683333	1	0.130000
36.700000	1	0.130625
36.716667	1	0.131250
36.733333	1	0.132125
36.750000	1	0.132500
36.766667	1	0.132875
36.783333	1	0.133500
36.800000	1	0.133375
36.816667	1	0.133125
36.833333	1	0.133250
36.850000	1	0.132750
36.866667	1	0.132125
36.883333	1	0.131625
36.900000	1	0.130750
36.916667	1	0.131000
36.933333	1	0.130250
36.950000	1	0.129125
36.966667	1	0.128000
36.983333	1	0.127875
37.000000	1	0.126750
37.016667	1	0.126000
37.033333	1	0.125250
37.050000	1	0.124500
37.066667	1	0.123625
37.083333	1	0.123250
37.100000	1	0.123250
37.116667	1	0.122500
37.133333	1	0.121500
37.150000	1	0.120875
37.166667	1	0.119375
37.183333	1	0.118625
37.200000	1	0.117625
37.216667	1	0.116500
37.233333	1	0.115750
37.250000	1	0.114875
37.266667	1	0.113875
37.283333	1	0.113375
37.300000	1	0.112375
37.316667	1	0.111125
37.333333	1	0.111125
37.350000	1	0.110625
37.366667	1	0.109875
37.383333	1	0.108875
37.400000	1	0.108000
37.416667	1	0.106875
37.433333	1	0.105500
37.450000	1	0.104500
37.466667	1	0.103250
37.483333	1	0.102000
37.500000	1	0.100625
37.516667	1	0.099125
37.533333	1	0.097500
37.550000	1	0.096125
37.566667	1	0.094750
37.583333	1	0.093375
37.600000	1	0.092125
37.616667	1	0.091125
37.633333	1	0.089250
37.650000	1	0.087875
37.666667	1	0.086500
37.683333	1	0.085625
37.700000	1	0.084625
37.716667	1	0.083750
37.733333	1	0.083625
37.750000	1	0.083250
37.766667	1	0.082000
37.783333	1	0.080375
37.800000	1	0.078750
37.816667	1	0.078250
37.833333	1	0.077625
37.850000	1	0.076000
37.866667	1	0.075500
37.883333	1	0.075500
37.900000	1	0.074875
37.916667	1	0.074625
37.933333	1	0.073625
37.950000	1	0.073250
37.966667	1	0.072000
37.983333	1	0.070875
38.000000	1	0.070125
38.016667	1	0.069375
38.033333	1	0.068375
38.050000	1	0.067375
38.066667	1	0.067000
38.083333	1	0.066000
38.100000	1	0.065750
38.116667	1	0.064750
38.133333	1	0.064875
38.150000	1	0.063875
38.166667	1	0.063500
38.183333	1	0.063000
38.200000	1	0.062375
38.216667	1	0.061375
38.233333	1	0.060500
38.250000	1	0.060000
38.266667	1	0.060250
38.283333	1	0.060500
38.300000	1	0.060125
38.316667	1	0.060375
38.333333	1	0.060750
38.350000	1	0.061750
38.366667	1	0.062625
38.383333	1	0.062500
38.400000	1	0.062625
38.416667	1	0.064000
38.433333	1	0.064750
38.450000	1	0.065750
38.466667	1	0.066875
38.483333	1	0.068375
38.500000	1	0.069625
38.516667	1	0.070375
38.533333	1	0.071625
38.550000	1	0.072750
38.566667	1	0.073625
38.583333	1	0.075125
38.600000	1	0.076500
38.616667	1	0.077625
38.633333	1	0.078625
38.650000	1	0.079750
38.666667	1	0.080750
38.683333	1	0.081750
38.700000	1	0.082750
38.716667	1	0.084000
38.733333	1	0.084500
38.750000	1	0.085375
38.766667	1	0.085500
38.783333	1	0.085625
38.800000	1	0.085375
38.816667	1	0.084625
38.833333	1	0.084500
38.850000	1	0.084750
38.866667	1	0.084875
38.883333	1	0.084500
38.900000	1	0.084250
38.916667	1	0.083375
38.933333	1	0.082875
38.950000	1	0.082250
38.966667	1	0.081375
38.983333	1	0.079875
39.000000	1	0.078750
39.016667	1	0.077125
39.033333	1	0.075125
39.050000	1	0.074250
39.066667	1	0.072750
39.083333	1	0.072000
39.100000	1	0.070625
39.116667	1	0.069250
39.133333	1	0.068125
39.150000	1	0.067000
39.166667	1	0.065750
39.183333	1	0.064125
39.200000	1	0.062625
39.216667	1	0.061250
39.233333	1	0.059500
39.250000	1	0.058500
39.266667	1	0.057250
39.283333	1	0.056625
39.300000	1	0.055000
39.316667	1	0.053250
39.333333	1	0.052125
39.350000	1	0.051375
39.366667	1	0.050000
39.383333	1	0.049125
39.400000	1	0.047125
39.416667	1	0.045875
39.433333	1	0.045625
39.450000	1	0.045125
39.466667	1	0.044125
39.483333	1	0.042750
39.500000	1	0.041750
39.516667	1	0.040625
39.533333	1	0.039375
39.550000	1	0.038125
39.566667	1	0.037625
39.583333	1	0.037125
39.600000	1	0.037375
39.616667	1	0.036875
39.633333	1	0.036750
39.650000	1	0.036750
39.666667	1	0.037000
39.683333	1	0.037625
39.700000	1	0.038500
39.716667	1	0.039000
39.733333	1	0.039625
39.750000	1	0.041000
39.766667	1	0.042500
39.783333	1	0.043875
39.800000	1	0.045625
39.816667	1	0.047625
39.833333	1	0.049500
39.850000	1	0.051250
39.866667	1	0.052750
39.883333	1	0.054875
39.900000	1	0.057000
39.916667	1	0.058875
39.933333	1	0.060750
39.950000	1	0.062875
39.966667	1	0.065000
39.983333	1	0.066500
40.000000	1	0.068125
