URL	chrom://7040-86g6c92/XVault/Ultimate_3000/20/20240517_CMO_FP23_FP25_MarkusDeplate.seq/270.smp/RI_1.channel/RI_1.chm
Channel	RI_1

Injection Information:
Data Vault	XVault
Sequence	20240517_CMO_FP23_FP25_MarkusDeplate
Name	FP25_22.1_s3
Number	72
Position	BF12
Comment	
Processing Method	
Instrument Method	run_25B_method
Type	Unknown
Status	Finished
Inject Time	29.05.2024 19:12:01 +02:00
Volume (µl)	20.0000
Dilution Factor	1.0000
Weight	1.0000

Chromatogram Data Information:
Time Min. (min)	0.000000
Time Max. (min)	40.000000
Data Points	2401
Detector	RI
Generating Data System	Chromeleon 7.3.2.11814
Exporting Data System	Chromeleon 7.3.2.0
Operator	Instrument Controller
Signal Quantity	Refractive 
Signal Unit	µRIU
Signal Min.	-0.971000
Signal Max.	61.047375
Channel	RI_1
Driver Name	RID520Driver.dll
Channel Type	Evaluation
Min. Step (s)	1
Max. Step (s)	1
Average Step (s)	1

Signal Parameter Information:
Signal Info	

Chromatogram Data:
Time (min)	Step (s)	Value (µRIU)
0.000000	n.a.	-0.024875
0.016667	1	-0.025500
0.033333	1	-0.025875
0.050000	1	-0.025000
0.066667	1	-0.025125
0.083333	1	-0.024750
0.100000	1	-0.025000
0.116667	1	-0.024000
0.133333	1	-0.024875
0.150000	1	-0.025500
0.166667	1	-0.026000
0.183333	1	-0.026125
0.200000	1	-0.026250
0.216667	1	-0.026125
0.233333	1	-0.026250
0.250000	1	-0.026125
0.266667	1	-0.026250
0.283333	1	-0.026625
0.300000	1	-0.026625
0.316667	1	-0.025875
0.333333	1	-0.025750
0.350000	1	-0.026125
0.366667	1	-0.026500
0.383333	1	-0.027375
0.400000	1	-0.028500
0.416667	1	-0.027875
0.433333	1	-0.026750
0.450000	1	-0.024875
0.466667	1	-0.022625
0.483333	1	-0.020875
0.500000	1	-0.019500
0.516667	1	-0.017875
0.533333	1	-0.018250
0.550000	1	-0.018875
0.566667	1	-0.020000
0.583333	1	-0.021875
0.600000	1	-0.024250
0.616667	1	-0.027125
0.633333	1	-0.029625
0.650000	1	-0.031750
0.666667	1	-0.033000
0.683333	1	-0.034000
0.700000	1	-0.034875
0.716667	1	-0.035375
0.733333	1	-0.036000
0.750000	1	-0.036375
0.766667	1	-0.036875
0.783333	1	-0.036625
0.800000	1	-0.036625
0.816667	1	-0.036500
0.833333	1	-0.036375
0.850000	1	-0.036250
0.866667	1	-0.035875
0.883333	1	-0.035625
0.900000	1	-0.034625
0.916667	1	-0.034375
0.933333	1	-0.033625
0.950000	1	-0.032250
0.966667	1	-0.030625
0.983333	1	-0.029875
1.000000	1	-0.028500
1.016667	1	-0.027375
1.033333	1	-0.025875
1.050000	1	-0.024125
1.066667	1	-0.022750
1.083333	1	-0.021625
1.100000	1	-0.020000
1.116667	1	-0.018750
1.133333	1	-0.017125
1.150000	1	-0.015250
1.166667	1	-0.014125
1.183333	1	-0.012250
1.200000	1	-0.010750
1.216667	1	-0.009500
1.233333	1	-0.008375
1.250000	1	-0.007375
1.266667	1	-0.007000
1.283333	1	-0.005750
1.300000	1	-0.005000
1.316667	1	-0.004250
1.333333	1	-0.003250
1.350000	1	-0.003000
1.366667	1	-0.002125
1.383333	1	-0.001125
1.400000	1	-0.001125
1.416667	1	-0.001000
1.433333	1	-0.000500
1.450000	1	-0.000750
1.466667	1	-0.000125
1.483333	1	0.000000
1.500000	1	0.000125
1.516667	1	0.000250
1.533333	1	0.000625
1.550000	1	0.001375
1.566667	1	0.002000
1.583333	1	0.002000
1.600000	1	0.001875
1.616667	1	0.002375
1.633333	1	0.002125
1.650000	1	0.002000
1.666667	1	0.002125
1.683333	1	0.002375
1.700000	1	0.002625
1.716667	1	0.002625
1.733333	1	0.002375
1.750000	1	0.002000
1.766667	1	0.002625
1.783333	1	0.002875
1.800000	1	0.003125
1.816667	1	0.002250
1.833333	1	0.002625
1.850000	1	0.002125
1.866667	1	0.002625
1.883333	1	0.003375
1.900000	1	0.003625
1.916667	1	0.003500
1.933333	1	0.003000
1.950000	1	0.003125
1.966667	1	0.002500
1.983333	1	0.002375
2.000000	1	0.002000
2.016667	1	0.001375
2.033333	1	0.000750
2.050000	1	0.000250
2.066667	1	-0.000375
2.083333	1	-0.001125
2.100000	1	-0.001250
2.116667	1	-0.002125
2.133333	1	-0.003000
2.150000	1	-0.004125
2.166667	1	-0.004625
2.183333	1	-0.006125
2.200000	1	-0.007875
2.216667	1	-0.010250
2.233333	1	-0.010750
2.250000	1	-0.011250
2.266667	1	-0.011875
2.283333	1	-0.013375
2.300000	1	-0.013500
2.316667	1	-0.014000
2.333333	1	-0.015000
2.350000	1	-0.016375
2.366667	1	-0.017000
2.383333	1	-0.018500
2.400000	1	-0.019000
2.416667	1	-0.019375
2.433333	1	-0.019625
2.450000	1	-0.019750
2.466667	1	-0.020375
2.483333	1	-0.020875
2.500000	1	-0.021250
2.516667	1	-0.022375
2.533333	1	-0.022375
2.550000	1	-0.022625
2.566667	1	-0.022625
2.583333	1	-0.023500
2.600000	1	-0.023500
2.616667	1	-0.023625
2.633333	1	-0.024125
2.650000	1	-0.024750
2.666667	1	-0.025375
2.683333	1	-0.025875
2.700000	1	-0.027000
2.716667	1	-0.027125
2.733333	1	-0.027625
2.750000	1	-0.028625
2.766667	1	-0.029125
2.783333	1	-0.030000
2.800000	1	-0.030750
2.816667	1	-0.031250
2.833333	1	-0.032375
2.850000	1	-0.033250
2.866667	1	-0.034000
2.883333	1	-0.034625
2.900000	1	-0.035000
2.916667	1	-0.035000
2.933333	1	-0.035875
2.950000	1	-0.036000
2.966667	1	-0.036000
2.983333	1	-0.037125
3.000000	1	-0.037375
3.016667	1	-0.037500
3.033333	1	-0.038000
3.050000	1	-0.038000
3.066667	1	-0.037750
3.083333	1	-0.038000
3.100000	1	-0.038000
3.116667	1	-0.037750
3.133333	1	-0.037625
3.150000	1	-0.037250
3.166667	1	-0.036875
3.183333	1	-0.036500
3.200000	1	-0.036000
3.216667	1	-0.034875
3.233333	1	-0.034125
3.250000	1	-0.033000
3.266667	1	-0.031750
3.283333	1	-0.030500
3.300000	1	-0.029500
3.316667	1	-0.028000
3.333333	1	-0.026875
3.350000	1	-0.025250
3.366667	1	-0.023500
3.383333	1	-0.021875
3.400000	1	-0.019875
3.416667	1	-0.017375
3.433333	1	-0.015250
3.450000	1	-0.013500
3.466667	1	-0.010875
3.483333	1	-0.008750
3.500000	1	-0.007250
3.516667	1	-0.005375
3.533333	1	-0.003375
3.550000	1	-0.001875
3.566667	1	0.000375
3.583333	1	0.001875
3.600000	1	0.003375
3.616667	1	0.004750
3.633333	1	0.005750
3.650000	1	0.006875
3.666667	1	0.007000
3.683333	1	0.006875
3.700000	1	0.008000
3.716667	1	0.007875
3.733333	1	0.007000
3.750000	1	0.006625
3.766667	1	0.006000
3.783333	1	0.005625
3.800000	1	0.005000
3.816667	1	0.004375
3.833333	1	0.003375
3.850000	1	0.002250
3.866667	1	0.001625
3.883333	1	0.000875
3.900000	1	-0.000625
3.916667	1	-0.001500
3.933333	1	-0.002250
3.950000	1	-0.003125
3.966667	1	-0.004500
3.983333	1	-0.004625
4.000000	1	-0.005500
4.016667	1	-0.006250
4.033333	1	-0.006125
4.050000	1	-0.005875
4.066667	1	-0.005625
4.083333	1	-0.005125
4.100000	1	-0.004375
4.116667	1	-0.004375
4.133333	1	-0.003500
4.150000	1	-0.002000
4.166667	1	-0.001125
4.183333	1	0.000250
4.200000	1	0.001000
4.216667	1	0.002000
4.233333	1	0.003250
4.250000	1	0.004375
4.266667	1	0.005875
4.283333	1	0.007375
4.300000	1	0.008375
4.316667	1	0.009750
4.333333	1	0.010625
4.350000	1	0.012000
4.366667	1	0.013000
4.383333	1	0.013625
4.400000	1	0.014750
4.416667	1	0.016250
4.433333	1	0.016625
4.450000	1	0.016875
4.466667	1	0.018125
4.483333	1	0.019000
4.500000	1	0.018875
4.516667	1	0.019250
4.533333	1	0.020375
4.550000	1	0.021125
4.566667	1	0.021750
4.583333	1	0.022125
4.600000	1	0.023625
4.616667	1	0.025000
4.633333	1	0.025500
4.650000	1	0.025750
4.666667	1	0.026625
4.683333	1	0.028250
4.700000	1	0.030000
4.716667	1	0.030500
4.733333	1	0.032500
4.750000	1	0.033625
4.766667	1	0.034000
4.783333	1	0.036125
4.800000	1	0.037625
4.816667	1	0.039625
4.833333	1	0.041375
4.850000	1	0.043625
4.866667	1	0.044750
4.883333	1	0.046875
4.900000	1	0.049250
4.916667	1	0.051125
4.933333	1	0.053500
4.950000	1	0.056250
4.966667	1	0.057750
4.983333	1	0.060625
5.000000	1	0.062875
5.016667	1	0.065500
5.033333	1	0.067750
5.050000	1	0.070250
5.066667	1	0.073250
5.083333	1	0.076000
5.100000	1	0.079125
5.116667	1	0.081875
5.133333	1	0.084625
5.150000	1	0.087500
5.166667	1	0.091000
5.183333	1	0.094750
5.200000	1	0.098375
5.216667	1	0.101000
5.233333	1	0.104500
5.250000	1	0.107750
5.266667	1	0.111750
5.283333	1	0.115250
5.300000	1	0.119000
5.316667	1	0.122125
5.333333	1	0.125875
5.350000	1	0.129750
5.366667	1	0.133875
5.383333	1	0.138000
5.400000	1	0.142125
5.416667	1	0.146375
5.433333	1	0.150625
5.450000	1	0.154500
5.466667	1	0.158625
5.483333	1	0.163125
5.500000	1	0.167875
5.516667	1	0.171875
5.533333	1	0.176500
5.550000	1	0.181250
5.566667	1	0.185750
5.583333	1	0.190375
5.600000	1	0.193875
5.616667	1	0.198250
5.633333	1	0.202125
5.650000	1	0.205500
5.666667	1	0.209250
5.683333	1	0.213000
5.700000	1	0.216500
5.716667	1	0.219375
5.733333	1	0.222250
5.750000	1	0.224750
5.766667	1	0.227000
5.783333	1	0.229250
5.800000	1	0.231125
5.816667	1	0.233125
5.833333	1	0.234125
5.850000	1	0.235125
5.866667	1	0.235875
5.883333	1	0.236250
5.900000	1	0.235875
5.916667	1	0.235250
5.933333	1	0.234750
5.950000	1	0.233750
5.966667	1	0.232500
5.983333	1	0.230875
6.000000	1	0.229500
6.016667	1	0.227875
6.033333	1	0.226125
6.050000	1	0.223625
6.066667	1	0.220875
6.083333	1	0.217625
6.100000	1	0.214750
6.116667	1	0.212000
6.133333	1	0.210250
6.150000	1	0.207375
6.166667	1	0.204750
6.183333	1	0.202250
6.200000	1	0.199375
6.216667	1	0.197125
6.233333	1	0.194500
6.250000	1	0.191125
6.266667	1	0.188750
6.283333	1	0.186875
6.300000	1	0.184625
6.316667	1	0.182375
6.333333	1	0.179625
6.350000	1	0.177750
6.366667	1	0.175375
6.383333	1	0.173000
6.400000	1	0.170750
6.416667	1	0.169000
6.433333	1	0.167000
6.450000	1	0.164375
6.466667	1	0.162500
6.483333	1	0.160625
6.500000	1	0.158375
6.516667	1	0.155750
6.533333	1	0.152875
6.550000	1	0.150750
6.566667	1	0.148500
6.583333	1	0.146000
6.600000	1	0.143875
6.616667	1	0.140750
6.633333	1	0.138000
6.650000	1	0.135000
6.666667	1	0.132250
6.683333	1	0.129250
6.700000	1	0.126500
6.716667	1	0.123875
6.733333	1	0.120625
6.750000	1	0.116625
6.766667	1	0.113875
6.783333	1	0.110875
6.800000	1	0.108250
6.816667	1	0.104875
6.833333	1	0.102375
6.850000	1	0.099500
6.866667	1	0.096250
6.883333	1	0.093500
6.900000	1	0.090500
6.916667	1	0.087875
6.933333	1	0.085750
6.950000	1	0.083500
6.966667	1	0.080750
6.983333	1	0.078500
7.000000	1	0.076750
7.016667	1	0.075750
7.033333	1	0.074250
7.050000	1	0.072625
7.066667	1	0.071375
7.083333	1	0.070250
7.100000	1	0.069375
7.116667	1	0.068625
7.133333	1	0.069000
7.150000	1	0.069000
7.166667	1	0.069500
7.183333	1	0.069625
7.200000	1	0.070125
7.216667	1	0.071250
7.233333	1	0.072875
7.250000	1	0.074625
7.266667	1	0.076875
7.283333	1	0.079875
7.300000	1	0.082375
7.316667	1	0.085000
7.333333	1	0.088000
7.350000	1	0.091000
7.366667	1	0.094375
7.383333	1	0.097625
7.400000	1	0.101375
7.416667	1	0.104375
7.433333	1	0.107875
7.450000	1	0.111250
7.466667	1	0.114750
7.483333	1	0.118375
7.500000	1	0.121625
7.516667	1	0.124375
7.533333	1	0.127375
7.550000	1	0.130875
7.566667	1	0.134000
7.583333	1	0.137000
7.600000	1	0.139375
7.616667	1	0.141000
7.633333	1	0.142125
7.650000	1	0.143375
7.666667	1	0.144625
7.683333	1	0.145500
7.700000	1	0.146250
7.716667	1	0.146875
7.733333	1	0.147750
7.750000	1	0.148500
7.766667	1	0.148750
7.783333	1	0.148500
7.800000	1	0.147125
7.816667	1	0.145875
7.833333	1	0.144625
7.850000	1	0.143625
7.866667	1	0.140875
7.883333	1	0.139375
7.900000	1	0.137375
7.916667	1	0.134375
7.933333	1	0.131375
7.950000	1	0.128875
7.966667	1	0.126000
7.983333	1	0.122375
8.000000	1	0.119875
8.016667	1	0.116500
8.033333	1	0.113000
8.050000	1	0.109250
8.066667	1	0.106000
8.083333	1	0.102375
8.100000	1	0.098375
8.116667	1	0.094500
8.133333	1	0.091125
8.150000	1	0.087750
8.166667	1	0.084000
8.183333	1	0.080125
8.200000	1	0.076625
8.216667	1	0.072375
8.233333	1	0.068750
8.250000	1	0.064625
8.266667	1	0.061125
8.283333	1	0.056750
8.300000	1	0.052750
8.316667	1	0.049000
8.333333	1	0.045000
8.350000	1	0.041625
8.366667	1	0.037875
8.383333	1	0.034375
8.400000	1	0.030750
8.416667	1	0.026875
8.433333	1	0.023125
8.450000	1	0.019250
8.466667	1	0.015625
8.483333	1	0.012000
8.500000	1	0.007875
8.516667	1	0.005125
8.533333	1	0.001750
8.550000	1	-0.001375
8.566667	1	-0.004250
8.583333	1	-0.006625
8.600000	1	-0.009375
8.616667	1	-0.011625
8.633333	1	-0.014000
8.650000	1	-0.015375
8.666667	1	-0.016875
8.683333	1	-0.018625
8.700000	1	-0.020375
8.716667	1	-0.021000
8.733333	1	-0.021875
8.750000	1	-0.022125
8.766667	1	-0.021750
8.783333	1	-0.021750
8.800000	1	-0.021250
8.816667	1	-0.020625
8.833333	1	-0.019000
8.850000	1	-0.017750
8.866667	1	-0.016500
8.883333	1	-0.014750
8.900000	1	-0.012875
8.916667	1	-0.011125
8.933333	1	-0.009125
8.950000	1	-0.007250
8.966667	1	-0.005500
8.983333	1	-0.003625
9.000000	1	-0.001875
9.016667	1	-0.000125
9.033333	1	0.001250
9.050000	1	0.003375
9.066667	1	0.005500
9.083333	1	0.007000
9.100000	1	0.008000
9.116667	1	0.009375
9.133333	1	0.010500
9.150000	1	0.011750
9.166667	1	0.012750
9.183333	1	0.013750
9.200000	1	0.013750
9.216667	1	0.013750
9.233333	1	0.013875
9.250000	1	0.014750
9.266667	1	0.015000
9.283333	1	0.015000
9.300000	1	0.014875
9.316667	1	0.015500
9.333333	1	0.016000
9.350000	1	0.015750
9.366667	1	0.015875
9.383333	1	0.016000
9.400000	1	0.016000
9.416667	1	0.016125
9.433333	1	0.016000
9.450000	1	0.016375
9.466667	1	0.016500
9.483333	1	0.016625
9.500000	1	0.016375
9.516667	1	0.016375
9.533333	1	0.017375
9.550000	1	0.018125
9.566667	1	0.018875
9.583333	1	0.018750
9.600000	1	0.019000
9.616667	1	0.019500
9.633333	1	0.019875
9.650000	1	0.019750
9.666667	1	0.019750
9.683333	1	0.019625
9.700000	1	0.019125
9.716667	1	0.019125
9.733333	1	0.019250
9.750000	1	0.019125
9.766667	1	0.019500
9.783333	1	0.019500
9.800000	1	0.018875
9.816667	1	0.018500
9.833333	1	0.017500
9.850000	1	0.017125
9.866667	1	0.017625
9.883333	1	0.017000
9.900000	1	0.016000
9.916667	1	0.015875
9.933333	1	0.016250
9.950000	1	0.017250
9.966667	1	0.017500
9.983333	1	0.017500
10.000000	1	0.018250
10.016667	1	0.020000
10.033333	1	0.020875
10.050000	1	0.022750
10.066667	1	0.025250
10.083333	1	0.029125
10.100000	1	0.033625
10.116667	1	0.037875
10.133333	1	0.043375
10.150000	1	0.049500
10.166667	1	0.057000
10.183333	1	0.065750
10.200000	1	0.074875
10.216667	1	0.085125
10.233333	1	0.098000
10.250000	1	0.111625
10.266667	1	0.127125
10.283333	1	0.145375
10.300000	1	0.167000
10.316667	1	0.190375
10.333333	1	0.217500
10.350000	1	0.247000
10.366667	1	0.280375
10.383333	1	0.315750
10.400000	1	0.351500
10.416667	1	0.384500
10.433333	1	0.408875
10.450000	1	0.414875
10.466667	1	0.393250
10.483333	1	0.340500
10.500000	1	0.263750
10.516667	1	0.189750
10.533333	1	0.169375
10.550000	1	0.276250
10.566667	1	0.597125
10.583333	1	1.226375
10.600000	1	2.249000
10.616667	1	3.739125
10.633333	1	5.750875
10.650000	1	8.314125
10.666667	1	11.444000
10.683333	1	15.132625
10.700000	1	19.349750
10.716667	1	24.034500
10.733333	1	29.081125
10.750000	1	34.326750
10.766667	1	39.530500
10.783333	1	44.369875
10.800000	1	48.446000
10.816667	1	51.323375
10.833333	1	52.631500
10.850000	1	52.175250
10.866667	1	50.006250
10.883333	1	46.423625
10.900000	1	41.881750
10.916667	1	36.874625
10.933333	1	31.828125
10.950000	1	27.046375
10.966667	1	22.714000
10.983333	1	18.918125
11.000000	1	15.676750
11.016667	1	12.964125
11.033333	1	10.732875
11.050000	1	8.922625
11.066667	1	7.466375
11.083333	1	6.302125
11.100000	1	5.374375
11.116667	1	4.634250
11.133333	1	4.042375
11.150000	1	3.566000
11.166667	1	3.181500
11.183333	1	2.867250
11.200000	1	2.608750
11.216667	1	2.394250
11.233333	1	2.213625
11.250000	1	2.061125
11.266667	1	1.930125
11.283333	1	1.817125
11.300000	1	1.720000
11.316667	1	1.635375
11.333333	1	1.560500
11.350000	1	1.494875
11.366667	1	1.436625
11.383333	1	1.385125
11.400000	1	1.339625
11.416667	1	1.299625
11.433333	1	1.263500
11.450000	1	1.230750
11.466667	1	1.202000
11.483333	1	1.175875
11.500000	1	1.152375
11.516667	1	1.130750
11.533333	1	1.111750
11.550000	1	1.093875
11.566667	1	1.078750
11.583333	1	1.064625
11.600000	1	1.052250
11.616667	1	1.041375
11.633333	1	1.031750
11.650000	1	1.024625
11.666667	1	1.019250
11.683333	1	1.014500
11.700000	1	1.010500
11.716667	1	1.009625
11.733333	1	1.009375
11.750000	1	1.010750
11.766667	1	1.013500
11.783333	1	1.018000
11.800000	1	1.022625
11.816667	1	1.027125
11.833333	1	1.032375
11.850000	1	1.036875
11.866667	1	1.041625
11.883333	1	1.046250
11.900000	1	1.049750
11.916667	1	1.053250
11.933333	1	1.057000
11.950000	1	1.060750
11.966667	1	1.064500
11.983333	1	1.068250
12.000000	1	1.072875
12.016667	1	1.078000
12.033333	1	1.083500
12.050000	1	1.089750
12.066667	1	1.096375
12.083333	1	1.103250
12.100000	1	1.111250
12.116667	1	1.120125
12.133333	1	1.128500
12.150000	1	1.138500
12.166667	1	1.150250
12.183333	1	1.163125
12.200000	1	1.177750
12.216667	1	1.193875
12.233333	1	1.213000
12.250000	1	1.234875
12.266667	1	1.259125
12.283333	1	1.285250
12.300000	1	1.313250
12.316667	1	1.344125
12.333333	1	1.378250
12.350000	1	1.417000
12.366667	1	1.462000
12.383333	1	1.516125
12.400000	1	1.585375
12.416667	1	1.674750
12.433333	1	1.792250
12.450000	1	1.945000
12.466667	1	2.142250
12.483333	1	2.390500
12.500000	1	2.698500
12.516667	1	3.069750
12.533333	1	3.504750
12.550000	1	3.999125
12.566667	1	4.545500
12.583333	1	5.132500
12.600000	1	5.747000
12.616667	1	6.372625
12.633333	1	6.993875
12.650000	1	7.597875
12.666667	1	8.173500
12.683333	1	8.714625
12.700000	1	9.218375
12.716667	1	9.686750
12.733333	1	10.122750
12.750000	1	10.531500
12.766667	1	10.919500
12.783333	1	11.284500
12.800000	1	11.618000
12.816667	1	11.893375
12.833333	1	12.066000
12.850000	1	12.079625
12.866667	1	11.880750
12.883333	1	11.444875
12.900000	1	10.786500
12.916667	1	9.965625
12.933333	1	9.063250
12.950000	1	8.153000
12.966667	1	7.288125
12.983333	1	6.497250
13.000000	1	5.790125
13.016667	1	5.169250
13.033333	1	4.630875
13.050000	1	4.169125
13.066667	1	3.777500
13.083333	1	3.448625
13.100000	1	3.174000
13.116667	1	2.945250
13.133333	1	2.754750
13.150000	1	2.595875
13.166667	1	2.462125
13.183333	1	2.348750
13.200000	1	2.251250
13.216667	1	2.166625
13.233333	1	2.092375
13.250000	1	2.025625
13.266667	1	1.965750
13.283333	1	1.911250
13.300000	1	1.860875
13.316667	1	1.813625
13.333333	1	1.770125
13.350000	1	1.730125
13.366667	1	1.692250
13.383333	1	1.658125
13.400000	1	1.627375
13.416667	1	1.599500
13.433333	1	1.574125
13.450000	1	1.552250
13.466667	1	1.534375
13.483333	1	1.519375
13.500000	1	1.506875
13.516667	1	1.496625
13.533333	1	1.488750
13.550000	1	1.482750
13.566667	1	1.478125
13.583333	1	1.472625
13.600000	1	1.467375
13.616667	1	1.460875
13.633333	1	1.452250
13.650000	1	1.441500
13.666667	1	1.428875
13.683333	1	1.414125
13.700000	1	1.396875
13.716667	1	1.377875
13.733333	1	1.358625
13.750000	1	1.338375
13.766667	1	1.317750
13.783333	1	1.296625
13.800000	1	1.276375
13.816667	1	1.257125
13.833333	1	1.238375
13.850000	1	1.220625
13.866667	1	1.203500
13.883333	1	1.188000
13.900000	1	1.173000
13.916667	1	1.159125
13.933333	1	1.145250
13.950000	1	1.132750
13.966667	1	1.120500
13.983333	1	1.109375
14.000000	1	1.098625
14.016667	1	1.088625
14.033333	1	1.079125
14.050000	1	1.069625
14.066667	1	1.060625
14.083333	1	1.053000
14.100000	1	1.043750
14.116667	1	1.036125
14.133333	1	1.028875
14.150000	1	1.022000
14.166667	1	1.016250
14.183333	1	1.010500
14.200000	1	1.005250
14.216667	1	1.000625
14.233333	1	0.997375
14.250000	1	0.995625
14.266667	1	0.995000
14.283333	1	0.995250
14.300000	1	0.996875
14.316667	1	0.999625
14.333333	1	1.004750
14.350000	1	1.010750
14.366667	1	1.018375
14.383333	1	1.028000
14.400000	1	1.039875
14.416667	1	1.054375
14.433333	1	1.074750
14.450000	1	1.102875
14.466667	1	1.145625
14.483333	1	1.211000
14.500000	1	1.311875
14.516667	1	1.468125
14.533333	1	1.705375
14.550000	1	2.061250
14.566667	1	2.580875
14.583333	1	3.318625
14.600000	1	4.338625
14.616667	1	5.714875
14.633333	1	7.521250
14.650000	1	9.825250
14.666667	1	12.681000
14.683333	1	16.114625
14.700000	1	20.115125
14.716667	1	24.627000
14.733333	1	29.549250
14.750000	1	34.738500
14.766667	1	40.001250
14.783333	1	45.110500
14.800000	1	49.834125
14.816667	1	53.947875
14.833333	1	57.251125
14.850000	1	59.588375
14.866667	1	60.863875
14.883333	1	61.047375
14.900000	1	60.178875
14.916667	1	58.356000
14.933333	1	55.724375
14.950000	1	52.457875
14.966667	1	48.747375
14.983333	1	44.774375
15.000000	1	40.703000
15.016667	1	36.668750
15.033333	1	32.777625
15.050000	1	29.106500
15.066667	1	25.706000
15.083333	1	22.603125
15.100000	1	19.807125
15.116667	1	17.313250
15.133333	1	15.106250
15.150000	1	13.164125
15.166667	1	11.463875
15.183333	1	9.980625
15.200000	1	8.691625
15.216667	1	7.573875
15.233333	1	6.607750
15.250000	1	5.777000
15.266667	1	5.065625
15.283333	1	4.461250
15.300000	1	3.951375
15.316667	1	3.525875
15.333333	1	3.173750
15.350000	1	2.887125
15.366667	1	2.657000
15.383333	1	2.474375
15.400000	1	2.331250
15.416667	1	2.221000
15.433333	1	2.136500
15.450000	1	2.070250
15.466667	1	2.017375
15.483333	1	1.972750
15.500000	1	1.932375
15.516667	1	1.893125
15.533333	1	1.853500
15.550000	1	1.811625
15.566667	1	1.768000
15.583333	1	1.721375
15.600000	1	1.674125
15.616667	1	1.626750
15.633333	1	1.580375
15.650000	1	1.534750
15.666667	1	1.491625
15.683333	1	1.450875
15.700000	1	1.411875
15.716667	1	1.375875
15.733333	1	1.341375
15.750000	1	1.310125
15.766667	1	1.280250
15.783333	1	1.251875
15.800000	1	1.224750
15.816667	1	1.199375
15.833333	1	1.175250
15.850000	1	1.152500
15.866667	1	1.131500
15.883333	1	1.112625
15.900000	1	1.095375
15.916667	1	1.080125
15.933333	1	1.066625
15.950000	1	1.055875
15.966667	1	1.047375
15.983333	1	1.041000
16.000000	1	1.036750
16.016667	1	1.034125
16.033333	1	1.033375
16.050000	1	1.033875
16.066667	1	1.035375
16.083333	1	1.038125
16.100000	1	1.040500
16.116667	1	1.044125
16.133333	1	1.047125
16.150000	1	1.050000
16.166667	1	1.052000
16.183333	1	1.053375
16.200000	1	1.053625
16.216667	1	1.053750
16.233333	1	1.052625
16.250000	1	1.050500
16.266667	1	1.048125
16.283333	1	1.045000
16.300000	1	1.041000
16.316667	1	1.036875
16.333333	1	1.033375
16.350000	1	1.030250
16.366667	1	1.028250
16.383333	1	1.026625
16.400000	1	1.027000
16.416667	1	1.029000
16.433333	1	1.031875
16.450000	1	1.036250
16.466667	1	1.040500
16.483333	1	1.046250
16.500000	1	1.051875
16.516667	1	1.056875
16.533333	1	1.060625
16.550000	1	1.063250
16.566667	1	1.064750
16.583333	1	1.064750
16.600000	1	1.062875
16.616667	1	1.060625
16.633333	1	1.056375
16.650000	1	1.052250
16.666667	1	1.047625
16.683333	1	1.043750
16.700000	1	1.040625
16.716667	1	1.038375
16.733333	1	1.038500
16.750000	1	1.040750
16.766667	1	1.044625
16.783333	1	1.050250
16.800000	1	1.058000
16.816667	1	1.066625
16.833333	1	1.075625
16.850000	1	1.084625
16.866667	1	1.093750
16.883333	1	1.101375
16.900000	1	1.108375
16.916667	1	1.114125
16.933333	1	1.117750
16.950000	1	1.119375
16.966667	1	1.120250
16.983333	1	1.119250
17.000000	1	1.117625
17.016667	1	1.114500
17.033333	1	1.110500
17.050000	1	1.105875
17.066667	1	1.101000
17.083333	1	1.096125
17.100000	1	1.092125
17.116667	1	1.088375
17.133333	1	1.085375
17.150000	1	1.082125
17.166667	1	1.080250
17.183333	1	1.079250
17.200000	1	1.079000
17.216667	1	1.079000
17.233333	1	1.079000
17.250000	1	1.080500
17.266667	1	1.082750
17.283333	1	1.085625
17.300000	1	1.088750
17.316667	1	1.092875
17.333333	1	1.096875
17.350000	1	1.101250
17.366667	1	1.105875
17.383333	1	1.111000
17.400000	1	1.115250
17.416667	1	1.119000
17.433333	1	1.121500
17.450000	1	1.123000
17.466667	1	1.123125
17.483333	1	1.121625
17.500000	1	1.118875
17.516667	1	1.113250
17.533333	1	1.107000
17.550000	1	1.098500
17.566667	1	1.088750
17.583333	1	1.078250
17.600000	1	1.065125
17.616667	1	1.051125
17.633333	1	1.036750
17.650000	1	1.021000
17.666667	1	1.005500
17.683333	1	0.989750
17.700000	1	0.974250
17.716667	1	0.958500
17.733333	1	0.944250
17.750000	1	0.931250
17.766667	1	0.919125
17.783333	1	0.907500
17.800000	1	0.897125
17.816667	1	0.888125
17.833333	1	0.879375
17.850000	1	0.872000
17.866667	1	0.865000
17.883333	1	0.858875
17.900000	1	0.853250
17.916667	1	0.847625
17.933333	1	0.843000
17.950000	1	0.838125
17.966667	1	0.833250
17.983333	1	0.828250
18.000000	1	0.822875
18.016667	1	0.818000
18.033333	1	0.813125
18.050000	1	0.808250
18.066667	1	0.803625
18.083333	1	0.798750
18.100000	1	0.794875
18.116667	1	0.791625
18.133333	1	0.789000
18.150000	1	0.787000
18.166667	1	0.785875
18.183333	1	0.785500
18.200000	1	0.785750
18.216667	1	0.786625
18.233333	1	0.787750
18.250000	1	0.788750
18.266667	1	0.789750
18.283333	1	0.791250
18.300000	1	0.793000
18.316667	1	0.795000
18.333333	1	0.796750
18.350000	1	0.798875
18.366667	1	0.802125
18.383333	1	0.805125
18.400000	1	0.809750
18.416667	1	0.815375
18.433333	1	0.822125
18.450000	1	0.830875
18.466667	1	0.841750
18.483333	1	0.853250
18.500000	1	0.866625
18.516667	1	0.882375
18.533333	1	0.900250
18.550000	1	0.919625
18.566667	1	0.941250
18.583333	1	0.964500
18.600000	1	0.990125
18.616667	1	1.016625
18.633333	1	1.045500
18.650000	1	1.075625
18.666667	1	1.107250
18.683333	1	1.140875
18.700000	1	1.173875
18.716667	1	1.208625
18.733333	1	1.243875
18.750000	1	1.278625
18.766667	1	1.314000
18.783333	1	1.348000
18.800000	1	1.380750
18.816667	1	1.411500
18.833333	1	1.439875
18.850000	1	1.464250
18.866667	1	1.484375
18.883333	1	1.499875
18.900000	1	1.509750
18.916667	1	1.513375
18.933333	1	1.510750
18.950000	1	1.502375
18.966667	1	1.487625
18.983333	1	1.467000
19.000000	1	1.439750
19.016667	1	1.407750
19.033333	1	1.371000
19.050000	1	1.330250
19.066667	1	1.286750
19.083333	1	1.241375
19.100000	1	1.195500
19.116667	1	1.149375
19.133333	1	1.105125
19.150000	1	1.062375
19.166667	1	1.021625
19.183333	1	0.984250
19.200000	1	0.951125
19.216667	1	0.921250
19.233333	1	0.897750
19.250000	1	0.878250
19.266667	1	0.864250
19.283333	1	0.856125
19.300000	1	0.854625
19.316667	1	0.857625
19.333333	1	0.867250
19.350000	1	0.882125
19.366667	1	0.902250
19.383333	1	0.926250
19.400000	1	0.954125
19.416667	1	0.984750
19.433333	1	1.017000
19.450000	1	1.050500
19.466667	1	1.083250
19.483333	1	1.115750
19.500000	1	1.145625
19.516667	1	1.172750
19.533333	1	1.195750
19.550000	1	1.215250
19.566667	1	1.231000
19.583333	1	1.242250
19.600000	1	1.248125
19.616667	1	1.249625
19.633333	1	1.245875
19.650000	1	1.238125
19.666667	1	1.226250
19.683333	1	1.210625
19.700000	1	1.191125
19.716667	1	1.169250
19.733333	1	1.144125
19.750000	1	1.116500
19.766667	1	1.087750
19.783333	1	1.056500
19.800000	1	1.023875
19.816667	1	0.990750
19.833333	1	0.957875
19.850000	1	0.924125
19.866667	1	0.891750
19.883333	1	0.860125
19.900000	1	0.830375
19.916667	1	0.800625
19.933333	1	0.774625
19.950000	1	0.750875
19.966667	1	0.730875
19.983333	1	0.713500
20.000000	1	0.700625
20.016667	1	0.691250
20.033333	1	0.687375
20.050000	1	0.687875
20.066667	1	0.693500
20.083333	1	0.705375
20.100000	1	0.722250
20.116667	1	0.743875
20.133333	1	0.770625
20.150000	1	0.801750
20.166667	1	0.835875
20.183333	1	0.873000
20.200000	1	0.911375
20.216667	1	0.948625
20.233333	1	0.983750
20.250000	1	1.015625
20.266667	1	1.043500
20.283333	1	1.066125
20.300000	1	1.081500
20.316667	1	1.090250
20.333333	1	1.092125
20.350000	1	1.085625
20.366667	1	1.072750
20.383333	1	1.053625
20.400000	1	1.029625
20.416667	1	1.000125
20.433333	1	0.967500
20.450000	1	0.932125
20.466667	1	0.896875
20.483333	1	0.862000
20.500000	1	0.829250
20.516667	1	0.799000
20.533333	1	0.772625
20.550000	1	0.751125
20.566667	1	0.735625
20.583333	1	0.726875
20.600000	1	0.726000
20.616667	1	0.733750
20.633333	1	0.750625
20.650000	1	0.776500
20.666667	1	0.811500
20.683333	1	0.856500
20.700000	1	0.910250
20.716667	1	0.972000
20.733333	1	1.040625
20.750000	1	1.114500
20.766667	1	1.191500
20.783333	1	1.270500
20.800000	1	1.347125
20.816667	1	1.419750
20.833333	1	1.485875
20.850000	1	1.543500
20.866667	1	1.590375
20.883333	1	1.625000
20.900000	1	1.646250
20.916667	1	1.654500
20.933333	1	1.648625
20.950000	1	1.630625
20.966667	1	1.600500
20.983333	1	1.559250
21.000000	1	1.509750
21.016667	1	1.453625
21.033333	1	1.391625
21.050000	1	1.327125
21.066667	1	1.261375
21.083333	1	1.195625
21.100000	1	1.131250
21.116667	1	1.068875
21.133333	1	1.009625
21.150000	1	0.954625
21.166667	1	0.903500
21.183333	1	0.855125
21.200000	1	0.811750
21.216667	1	0.772375
21.233333	1	0.737125
21.250000	1	0.704625
21.266667	1	0.676000
21.283333	1	0.651375
21.300000	1	0.629000
21.316667	1	0.609250
21.333333	1	0.592875
21.350000	1	0.577625
21.366667	1	0.564250
21.383333	1	0.552625
21.400000	1	0.542250
21.416667	1	0.532875
21.433333	1	0.524875
21.450000	1	0.518000
21.466667	1	0.512000
21.483333	1	0.506500
21.500000	1	0.502500
21.516667	1	0.499000
21.533333	1	0.497000
21.550000	1	0.496250
21.566667	1	0.495625
21.583333	1	0.497500
21.600000	1	0.500500
21.616667	1	0.506000
21.633333	1	0.512250
21.650000	1	0.520500
21.666667	1	0.531375
21.683333	1	0.544750
21.700000	1	0.560250
21.716667	1	0.579125
21.733333	1	0.600250
21.750000	1	0.622625
21.766667	1	0.647625
21.783333	1	0.674500
21.800000	1	0.702750
21.816667	1	0.730500
21.833333	1	0.759000
21.850000	1	0.786500
21.866667	1	0.812875
21.883333	1	0.838375
21.900000	1	0.861125
21.916667	1	0.881125
21.933333	1	0.898125
21.950000	1	0.912000
21.966667	1	0.922625
21.983333	1	0.929375
22.000000	1	0.933125
22.016667	1	0.933250
22.033333	1	0.929750
22.050000	1	0.923250
22.066667	1	0.914750
22.083333	1	0.903250
22.100000	1	0.889750
22.116667	1	0.874500
22.133333	1	0.859250
22.150000	1	0.841750
22.166667	1	0.823625
22.183333	1	0.803875
22.200000	1	0.783875
22.216667	1	0.763625
22.233333	1	0.742250
22.250000	1	0.721375
22.266667	1	0.699750
22.283333	1	0.678250
22.300000	1	0.656875
22.316667	1	0.636250
22.333333	1	0.615125
22.350000	1	0.595000
22.366667	1	0.575125
22.383333	1	0.556250
22.400000	1	0.538250
22.416667	1	0.520875
22.433333	1	0.504750
22.450000	1	0.489375
22.466667	1	0.474875
22.483333	1	0.461875
22.500000	1	0.450000
22.516667	1	0.439500
22.533333	1	0.430000
22.550000	1	0.421375
22.566667	1	0.413875
22.583333	1	0.406250
22.600000	1	0.399500
22.616667	1	0.393250
22.633333	1	0.387375
22.650000	1	0.382125
22.666667	1	0.376500
22.683333	1	0.371375
22.700000	1	0.366750
22.716667	1	0.362375
22.733333	1	0.358500
22.750000	1	0.354500
22.766667	1	0.350375
22.783333	1	0.346500
22.800000	1	0.342000
22.816667	1	0.338250
22.833333	1	0.334250
22.850000	1	0.330125
22.866667	1	0.326375
22.883333	1	0.322875
22.900000	1	0.320250
22.916667	1	0.317250
22.933333	1	0.314625
22.950000	1	0.312375
22.966667	1	0.310500
22.983333	1	0.309500
23.000000	1	0.308250
23.016667	1	0.307875
23.033333	1	0.307000
23.050000	1	0.307375
23.066667	1	0.308500
23.083333	1	0.309375
23.100000	1	0.310750
23.116667	1	0.312625
23.133333	1	0.313875
23.150000	1	0.315375
23.166667	1	0.317125
23.183333	1	0.318375
23.200000	1	0.320125
23.216667	1	0.321500
23.233333	1	0.323125
23.250000	1	0.325750
23.266667	1	0.328375
23.283333	1	0.331250
23.300000	1	0.335000
23.316667	1	0.340000
23.333333	1	0.346750
23.350000	1	0.355750
23.366667	1	0.367750
23.383333	1	0.383500
23.400000	1	0.404125
23.416667	1	0.431375
23.433333	1	0.466625
23.450000	1	0.511250
23.466667	1	0.567500
23.483333	1	0.637000
23.500000	1	0.721125
23.516667	1	0.824000
23.533333	1	0.944625
23.550000	1	1.087000
23.566667	1	1.250875
23.583333	1	1.436750
23.600000	1	1.646125
23.616667	1	1.876375
23.633333	1	2.126500
23.650000	1	2.394000
23.666667	1	2.675375
23.683333	1	2.966125
23.700000	1	3.262250
23.716667	1	3.557750
23.733333	1	3.846000
23.750000	1	4.121125
23.766667	1	4.377250
23.783333	1	4.607000
23.800000	1	4.806125
23.816667	1	4.970750
23.833333	1	5.096500
23.850000	1	5.181625
23.866667	1	5.226250
23.883333	1	5.229000
23.900000	1	5.192875
23.916667	1	5.119125
23.933333	1	5.011500
23.950000	1	4.872875
23.966667	1	4.708750
23.983333	1	4.523625
24.000000	1	4.322125
24.016667	1	4.109125
24.033333	1	3.889375
24.050000	1	3.666125
24.066667	1	3.443375
24.083333	1	3.224250
24.100000	1	3.010000
24.116667	1	2.802625
24.133333	1	2.603875
24.150000	1	2.415875
24.166667	1	2.237875
24.183333	1	2.071500
24.200000	1	1.915750
24.216667	1	1.770125
24.233333	1	1.635750
24.250000	1	1.511500
24.266667	1	1.397500
24.283333	1	1.293000
24.300000	1	1.197250
24.316667	1	1.109625
24.333333	1	1.030750
24.350000	1	0.959000
24.366667	1	0.895000
24.383333	1	0.836875
24.400000	1	0.785875
24.416667	1	0.740250
24.433333	1	0.700125
24.450000	1	0.665000
24.466667	1	0.634625
24.483333	1	0.608625
24.500000	1	0.586250
24.516667	1	0.567250
24.533333	1	0.550875
24.550000	1	0.536750
24.566667	1	0.524375
24.583333	1	0.513375
24.600000	1	0.505125
24.616667	1	0.496375
24.633333	1	0.489250
24.650000	1	0.483625
24.666667	1	0.478375
24.683333	1	0.472375
24.700000	1	0.466125
24.716667	1	0.460375
24.733333	1	0.455000
24.750000	1	0.449125
24.766667	1	0.443500
24.783333	1	0.438250
24.800000	1	0.431625
24.816667	1	0.426375
24.833333	1	0.421125
24.850000	1	0.415750
24.866667	1	0.411000
24.883333	1	0.405875
24.900000	1	0.400875
24.916667	1	0.396375
24.933333	1	0.391375
24.950000	1	0.387000
24.966667	1	0.382500
24.983333	1	0.378375
25.000000	1	0.374125
25.016667	1	0.369875
25.033333	1	0.366250
25.050000	1	0.362000
25.066667	1	0.358750
25.083333	1	0.356125
25.100000	1	0.352875
25.116667	1	0.349375
25.133333	1	0.346875
25.150000	1	0.344125
25.166667	1	0.340500
25.183333	1	0.338000
25.200000	1	0.335375
25.216667	1	0.332250
25.233333	1	0.328500
25.250000	1	0.325500
25.266667	1	0.323125
25.283333	1	0.320375
25.300000	1	0.317375
25.316667	1	0.314875
25.333333	1	0.312875
25.350000	1	0.309875
25.366667	1	0.307875
25.383333	1	0.305750
25.400000	1	0.303125
25.416667	1	0.301625
25.433333	1	0.299625
25.450000	1	0.298500
25.466667	1	0.298125
25.483333	1	0.297125
25.500000	1	0.296125
25.516667	1	0.295375
25.533333	1	0.295250
25.550000	1	0.295250
25.566667	1	0.294125
25.583333	1	0.294250
25.600000	1	0.293750
25.616667	1	0.293750
25.633333	1	0.293500
25.650000	1	0.293250
25.666667	1	0.292750
25.683333	1	0.292500
25.700000	1	0.292125
25.716667	1	0.291625
25.733333	1	0.290375
25.750000	1	0.289750
25.766667	1	0.288750
25.783333	1	0.287750
25.800000	1	0.286375
25.816667	1	0.285625
25.833333	1	0.284125
25.850000	1	0.284000
25.866667	1	0.283500
25.883333	1	0.283625
25.900000	1	0.283625
25.916667	1	0.284250
25.933333	1	0.284125
25.950000	1	0.285125
25.966667	1	0.286250
25.983333	1	0.287875
26.000000	1	0.290875
26.016667	1	0.293500
26.033333	1	0.297500
26.050000	1	0.301000
26.066667	1	0.305750
26.083333	1	0.311125
26.100000	1	0.316750
26.116667	1	0.323125
26.133333	1	0.329625
26.150000	1	0.336125
26.166667	1	0.342750
26.183333	1	0.351250
26.200000	1	0.359125
26.216667	1	0.366625
26.233333	1	0.374000
26.250000	1	0.380625
26.266667	1	0.387625
26.283333	1	0.394250
26.300000	1	0.400625
26.316667	1	0.407000
26.333333	1	0.411625
26.350000	1	0.416125
26.366667	1	0.419375
26.383333	1	0.422125
26.400000	1	0.423875
26.416667	1	0.425375
26.433333	1	0.425375
26.450000	1	0.425500
26.466667	1	0.424500
26.483333	1	0.423375
26.500000	1	0.419625
26.516667	1	0.416625
26.533333	1	0.412875
26.550000	1	0.407625
26.566667	1	0.401750
26.583333	1	0.396375
26.600000	1	0.389750
26.616667	1	0.383375
26.633333	1	0.376375
26.650000	1	0.369750
26.666667	1	0.362500
26.683333	1	0.355500
26.700000	1	0.348750
26.716667	1	0.341875
26.733333	1	0.334500
26.750000	1	0.326875
26.766667	1	0.319750
26.783333	1	0.313250
26.800000	1	0.307000
26.816667	1	0.300750
26.833333	1	0.295625
26.850000	1	0.290000
26.866667	1	0.284875
26.883333	1	0.280250
26.900000	1	0.275500
26.916667	1	0.271375
26.933333	1	0.267625
26.950000	1	0.264500
26.966667	1	0.261375
26.983333	1	0.259625
27.000000	1	0.257375
27.016667	1	0.255625
27.033333	1	0.254125
27.050000	1	0.253000
27.066667	1	0.252750
27.083333	1	0.253000
27.100000	1	0.253000
27.116667	1	0.254000
27.133333	1	0.255875
27.150000	1	0.258750
27.166667	1	0.262125
27.183333	1	0.265875
27.200000	1	0.271125
27.216667	1	0.277625
27.233333	1	0.285000
27.250000	1	0.294125
27.266667	1	0.304875
27.283333	1	0.318250
27.300000	1	0.335000
27.316667	1	0.354125
27.333333	1	0.378125
27.350000	1	0.405750
27.366667	1	0.438500
27.383333	1	0.477000
27.400000	1	0.521750
27.416667	1	0.574375
27.433333	1	0.635000
27.450000	1	0.705250
27.466667	1	0.785500
27.483333	1	0.874875
27.500000	1	0.977000
27.516667	1	1.090375
27.533333	1	1.215750
27.550000	1	1.353125
27.566667	1	1.502875
27.583333	1	1.663125
27.600000	1	1.833875
27.616667	1	2.013750
27.633333	1	2.201875
27.650000	1	2.396250
27.666667	1	2.596250
27.683333	1	2.797250
27.700000	1	2.997125
27.716667	1	3.193250
27.733333	1	3.383125
27.750000	1	3.563125
27.766667	1	3.729750
27.783333	1	3.880750
27.800000	1	4.014375
27.816667	1	4.127500
27.833333	1	4.218125
27.850000	1	4.285125
27.866667	1	4.326250
27.883333	1	4.342000
27.900000	1	4.332625
27.916667	1	4.296875
27.933333	1	4.236875
27.950000	1	4.154125
27.966667	1	4.050250
27.983333	1	3.929125
28.000000	1	3.791375
28.016667	1	3.640500
28.033333	1	3.480250
28.050000	1	3.311250
28.066667	1	3.136875
28.083333	1	2.959500
28.100000	1	2.782750
28.116667	1	2.608375
28.133333	1	2.437500
28.150000	1	2.271750
28.166667	1	2.113000
28.183333	1	1.961500
28.200000	1	1.818500
28.216667	1	1.683375
28.233333	1	1.557000
28.250000	1	1.438375
28.266667	1	1.328875
28.283333	1	1.228250
28.300000	1	1.135375
28.316667	1	1.050500
28.333333	1	0.973000
28.350000	1	0.903750
28.366667	1	0.840500
28.383333	1	0.784125
28.400000	1	0.732875
28.416667	1	0.688000
28.433333	1	0.648000
28.450000	1	0.613125
28.466667	1	0.581750
28.483333	1	0.555500
28.500000	1	0.532125
28.516667	1	0.512875
28.533333	1	0.496500
28.550000	1	0.483375
28.566667	1	0.474000
28.583333	1	0.467125
28.600000	1	0.462500
28.616667	1	0.459875
28.633333	1	0.459125
28.650000	1	0.460000
28.666667	1	0.462750
28.683333	1	0.466375
28.700000	1	0.470625
28.716667	1	0.475875
28.733333	1	0.482375
28.750000	1	0.488750
28.766667	1	0.495625
28.783333	1	0.502375
28.800000	1	0.510125
28.816667	1	0.517000
28.833333	1	0.524000
28.850000	1	0.530125
28.866667	1	0.536000
28.883333	1	0.540875
28.900000	1	0.545250
28.916667	1	0.548750
28.933333	1	0.551250
28.950000	1	0.552875
28.966667	1	0.553750
28.983333	1	0.553500
29.000000	1	0.552250
29.016667	1	0.550000
29.033333	1	0.545875
29.050000	1	0.540750
29.066667	1	0.533875
29.083333	1	0.525625
29.100000	1	0.515625
29.116667	1	0.504625
29.133333	1	0.491000
29.150000	1	0.475875
29.166667	1	0.458875
29.183333	1	0.439875
29.200000	1	0.418750
29.216667	1	0.395375
29.233333	1	0.370125
29.250000	1	0.342125
29.266667	1	0.312000
29.283333	1	0.279500
29.300000	1	0.244125
29.316667	1	0.206000
29.333333	1	0.166125
29.350000	1	0.123625
29.366667	1	0.078375
29.383333	1	0.031250
29.400000	1	-0.018250
29.416667	1	-0.069000
29.433333	1	-0.121875
29.450000	1	-0.176250
29.466667	1	-0.231875
29.483333	1	-0.289000
29.500000	1	-0.346000
29.516667	1	-0.403250
29.533333	1	-0.460000
29.550000	1	-0.516375
29.566667	1	-0.571250
29.583333	1	-0.623750
29.600000	1	-0.673750
29.616667	1	-0.721875
29.633333	1	-0.765875
29.650000	1	-0.807250
29.666667	1	-0.844375
29.683333	1	-0.877250
29.700000	1	-0.905375
29.716667	1	-0.928125
29.733333	1	-0.946125
29.750000	1	-0.959000
29.766667	1	-0.967875
29.783333	1	-0.971000
29.800000	1	-0.969375
29.816667	1	-0.963000
29.833333	1	-0.951625
29.850000	1	-0.935750
29.866667	1	-0.916500
29.883333	1	-0.893125
29.900000	1	-0.866375
29.916667	1	-0.837125
29.933333	1	-0.805375
29.950000	1	-0.771625
29.966667	1	-0.735750
29.983333	1	-0.697750
30.000000	1	-0.659500
30.016667	1	-0.620125
30.033333	1	-0.580625
30.050000	1	-0.541875
30.066667	1	-0.502500
30.083333	1	-0.463375
30.100000	1	-0.425750
30.116667	1	-0.388875
30.133333	1	-0.353000
30.150000	1	-0.318000
30.166667	1	-0.285000
30.183333	1	-0.252875
30.200000	1	-0.222375
30.216667	1	-0.193250
30.233333	1	-0.166000
30.250000	1	-0.140625
30.266667	1	-0.116750
30.283333	1	-0.094250
30.300000	1	-0.073375
30.316667	1	-0.053875
30.333333	1	-0.035875
30.350000	1	-0.019500
30.366667	1	-0.005000
30.383333	1	0.008750
30.400000	1	0.021875
30.416667	1	0.034000
30.433333	1	0.044500
30.450000	1	0.054875
30.466667	1	0.064000
30.483333	1	0.072375
30.500000	1	0.079875
30.516667	1	0.087000
30.533333	1	0.094250
30.550000	1	0.100875
30.566667	1	0.107125
30.583333	1	0.113500
30.600000	1	0.119500
30.616667	1	0.125750
30.633333	1	0.132125
30.650000	1	0.138000
30.666667	1	0.144125
30.683333	1	0.150375
30.700000	1	0.156875
30.716667	1	0.163250
30.733333	1	0.169875
30.750000	1	0.177250
30.766667	1	0.184750
30.783333	1	0.192250
30.800000	1	0.200875
30.816667	1	0.209375
30.833333	1	0.218750
30.850000	1	0.228500
30.866667	1	0.239375
30.883333	1	0.250750
30.900000	1	0.263000
30.916667	1	0.276625
30.933333	1	0.291000
30.950000	1	0.307250
30.966667	1	0.325875
30.983333	1	0.346375
31.000000	1	0.370250
31.016667	1	0.396125
31.033333	1	0.426125
31.050000	1	0.460875
31.066667	1	0.500000
31.083333	1	0.545000
31.100000	1	0.596750
31.116667	1	0.655750
31.133333	1	0.723125
31.150000	1	0.799125
31.166667	1	0.885625
31.183333	1	0.982250
31.200000	1	1.090250
31.216667	1	1.210250
31.233333	1	1.342250
31.250000	1	1.487250
31.266667	1	1.644500
31.283333	1	1.814125
31.300000	1	1.996500
31.316667	1	2.190875
31.333333	1	2.395375
31.350000	1	2.608875
31.366667	1	2.829250
31.383333	1	3.055875
31.400000	1	3.286875
31.416667	1	3.518375
31.433333	1	3.749250
31.450000	1	3.975625
31.466667	1	4.195750
31.483333	1	4.405750
31.500000	1	4.603500
31.516667	1	4.786000
31.533333	1	4.951250
31.550000	1	5.097125
31.566667	1	5.222000
31.583333	1	5.324375
31.600000	1	5.403625
31.616667	1	5.457875
31.633333	1	5.487875
31.650000	1	5.492625
31.666667	1	5.473250
31.683333	1	5.430000
31.700000	1	5.364125
31.716667	1	5.277125
31.733333	1	5.171875
31.750000	1	5.048875
31.766667	1	4.910500
31.783333	1	4.758750
31.800000	1	4.594625
31.816667	1	4.421625
31.833333	1	4.241750
31.850000	1	4.055750
31.866667	1	3.866875
31.883333	1	3.676750
31.900000	1	3.486375
31.916667	1	3.297875
31.933333	1	3.112375
31.950000	1	2.931125
31.966667	1	2.754125
31.983333	1	2.582625
32.000000	1	2.417625
32.016667	1	2.258375
32.033333	1	2.105875
32.050000	1	1.960500
32.066667	1	1.821875
32.083333	1	1.691125
32.100000	1	1.567750
32.116667	1	1.450750
32.133333	1	1.340625
32.150000	1	1.236750
32.166667	1	1.139375
32.183333	1	1.047750
32.200000	1	0.961750
32.216667	1	0.881625
32.233333	1	0.806375
32.250000	1	0.736750
32.266667	1	0.670875
32.283333	1	0.609625
32.300000	1	0.552750
32.316667	1	0.500000
32.333333	1	0.451250
32.350000	1	0.406125
32.366667	1	0.363750
32.383333	1	0.325250
32.400000	1	0.289125
32.416667	1	0.256000
32.433333	1	0.224625
32.450000	1	0.196000
32.466667	1	0.170125
32.483333	1	0.146750
32.500000	1	0.124875
32.516667	1	0.105250
32.533333	1	0.087625
32.550000	1	0.071625
32.566667	1	0.056375
32.583333	1	0.043875
32.600000	1	0.032625
32.616667	1	0.022875
32.633333	1	0.013625
32.650000	1	0.005375
32.666667	1	-0.001875
32.683333	1	-0.007625
32.700000	1	-0.012875
32.716667	1	-0.017000
32.733333	1	-0.020375
32.750000	1	-0.022625
32.766667	1	-0.024875
32.783333	1	-0.026500
32.800000	1	-0.027250
32.816667	1	-0.027625
32.833333	1	-0.027375
32.850000	1	-0.027375
32.866667	1	-0.026625
32.883333	1	-0.025500
32.900000	1	-0.024125
32.916667	1	-0.022875
32.933333	1	-0.021250
32.950000	1	-0.019500
32.966667	1	-0.017375
32.983333	1	-0.015000
33.000000	1	-0.012500
33.016667	1	-0.009125
33.033333	1	-0.006625
33.050000	1	-0.003875
33.066667	1	-0.001250
33.083333	1	0.001250
33.100000	1	0.003375
33.116667	1	0.006125
33.133333	1	0.009000
33.150000	1	0.011375
33.166667	1	0.013750
33.183333	1	0.017000
33.200000	1	0.020125
33.216667	1	0.022875
33.233333	1	0.024750
33.250000	1	0.027125
33.266667	1	0.029125
33.283333	1	0.031125
33.300000	1	0.032500
33.316667	1	0.034750
33.333333	1	0.036500
33.350000	1	0.038625
33.366667	1	0.040000
33.383333	1	0.041375
33.400000	1	0.042750
33.416667	1	0.043625
33.433333	1	0.044875
33.450000	1	0.045750
33.466667	1	0.046625
33.483333	1	0.047375
33.500000	1	0.048500
33.516667	1	0.048875
33.533333	1	0.050375
33.550000	1	0.051375
33.566667	1	0.052500
33.583333	1	0.053000
33.600000	1	0.053500
33.616667	1	0.054125
33.633333	1	0.054875
33.650000	1	0.055250
33.666667	1	0.056125
33.683333	1	0.057750
33.700000	1	0.059125
33.716667	1	0.061000
33.733333	1	0.062875
33.750000	1	0.064000
33.766667	1	0.066000
33.783333	1	0.068125
33.800000	1	0.069375
33.816667	1	0.071375
33.833333	1	0.073000
33.850000	1	0.074625
33.866667	1	0.076000
33.883333	1	0.077875
33.900000	1	0.079750
33.916667	1	0.082000
33.933333	1	0.083750
33.950000	1	0.085625
33.966667	1	0.087125
33.983333	1	0.088625
34.000000	1	0.089250
34.016667	1	0.090500
34.033333	1	0.091000
34.050000	1	0.091500
34.066667	1	0.092375
34.083333	1	0.092750
34.100000	1	0.093125
34.116667	1	0.093500
34.133333	1	0.093875
34.150000	1	0.094250
34.166667	1	0.094000
34.183333	1	0.094000
34.200000	1	0.093125
34.216667	1	0.093250
34.233333	1	0.092750
34.250000	1	0.092750
34.266667	1	0.093125
34.283333	1	0.092500
34.300000	1	0.092750
34.316667	1	0.092750
34.333333	1	0.093375
34.350000	1	0.093750
34.366667	1	0.093875
34.383333	1	0.094000
34.400000	1	0.095125
34.416667	1	0.095750
34.433333	1	0.096250
34.450000	1	0.097500
34.466667	1	0.098625
34.483333	1	0.099375
34.500000	1	0.099875
34.516667	1	0.100750
34.533333	1	0.102250
34.550000	1	0.103000
34.566667	1	0.104125
34.583333	1	0.105375
34.600000	1	0.106625
34.616667	1	0.107500
34.633333	1	0.108375
34.650000	1	0.109125
34.666667	1	0.109875
34.683333	1	0.110625
34.700000	1	0.111625
34.716667	1	0.111750
34.733333	1	0.111250
34.750000	1	0.111500
34.766667	1	0.112000
34.783333	1	0.111875
34.800000	1	0.112375
34.816667	1	0.112250
34.833333	1	0.112000
34.850000	1	0.110875
34.866667	1	0.110750
34.883333	1	0.109875
34.900000	1	0.109250
34.916667	1	0.108125
34.933333	1	0.106875
34.950000	1	0.106250
34.966667	1	0.105125
34.983333	1	0.104000
35.000000	1	0.102375
35.016667	1	0.100750
35.033333	1	0.099250
35.050000	1	0.097625
35.066667	1	0.095000
35.083333	1	0.092750
35.100000	1	0.091000
35.116667	1	0.089750
35.133333	1	0.087750
35.150000	1	0.085250
35.166667	1	0.082625
35.183333	1	0.079750
35.200000	1	0.077375
35.216667	1	0.074500
35.233333	1	0.072500
35.250000	1	0.069750
35.266667	1	0.066625
35.283333	1	0.064500
35.300000	1	0.061875
35.316667	1	0.059625
35.333333	1	0.057000
35.350000	1	0.055000
35.366667	1	0.053500
35.383333	1	0.052250
35.400000	1	0.051875
35.416667	1	0.051125
35.433333	1	0.049500
35.450000	1	0.048875
35.466667	1	0.048125
35.483333	1	0.048125
35.500000	1	0.048000
35.516667	1	0.048875
35.533333	1	0.050125
35.550000	1	0.050625
35.566667	1	0.051500
35.583333	1	0.053125
35.600000	1	0.054625
35.616667	1	0.056125
35.633333	1	0.058375
35.650000	1	0.060625
35.666667	1	0.062125
35.683333	1	0.064125
35.700000	1	0.066250
35.716667	1	0.068375
35.733333	1	0.070625
35.750000	1	0.072750
35.766667	1	0.075000
35.783333	1	0.077500
35.800000	1	0.079500
35.816667	1	0.081375
35.833333	1	0.083375
35.850000	1	0.084875
35.866667	1	0.086500
35.883333	1	0.088250
35.900000	1	0.089625
35.916667	1	0.091500
35.933333	1	0.093500
35.950000	1	0.095250
35.966667	1	0.097375
35.983333	1	0.099000
36.000000	1	0.101250
36.016667	1	0.103500
36.033333	1	0.105250
36.050000	1	0.106875
36.066667	1	0.108375
36.083333	1	0.110250
36.100000	1	0.112375
36.116667	1	0.114625
36.133333	1	0.116500
36.150000	1	0.119000
36.166667	1	0.120625
36.183333	1	0.122250
36.200000	1	0.123500
36.216667	1	0.125250
36.233333	1	0.127500
36.250000	1	0.129875
36.266667	1	0.131500
36.283333	1	0.132625
36.300000	1	0.134125
36.316667	1	0.136125
36.333333	1	0.137500
36.350000	1	0.138875
36.366667	1	0.140125
36.383333	1	0.141375
36.400000	1	0.142625
36.416667	1	0.143625
36.433333	1	0.145000
36.450000	1	0.145750
36.466667	1	0.146125
36.483333	1	0.146375
36.500000	1	0.147375
36.516667	1	0.148000
36.533333	1	0.148125
36.550000	1	0.148250
36.566667	1	0.147625
36.583333	1	0.147625
36.600000	1	0.147125
36.616667	1	0.145750
36.633333	1	0.144000
36.650000	1	0.142125
36.666667	1	0.141125
36.683333	1	0.139125
36.700000	1	0.136625
36.716667	1	0.134250
36.733333	1	0.131000
36.750000	1	0.128250
36.766667	1	0.125250
36.783333	1	0.122250
36.800000	1	0.119125
36.816667	1	0.116500
36.833333	1	0.112750
36.850000	1	0.109000
36.866667	1	0.104375
36.883333	1	0.099875
36.900000	1	0.096125
36.916667	1	0.092625
36.933333	1	0.088875
36.950000	1	0.085625
36.966667	1	0.081375
36.983333	1	0.076750
37.000000	1	0.073375
37.016667	1	0.069875
37.033333	1	0.066250
37.050000	1	0.062500
37.066667	1	0.060125
37.083333	1	0.056625
37.100000	1	0.053875
37.116667	1	0.051250
37.133333	1	0.048625
37.150000	1	0.046000
37.166667	1	0.044375
37.183333	1	0.042000
37.200000	1	0.040750
37.216667	1	0.038625
37.233333	1	0.037500
37.250000	1	0.035750
37.266667	1	0.034875
37.283333	1	0.033625
37.300000	1	0.033750
37.316667	1	0.033500
37.333333	1	0.033125
37.350000	1	0.032750
37.366667	1	0.032750
37.383333	1	0.032875
37.400000	1	0.032875
37.416667	1	0.033500
37.433333	1	0.033500
37.450000	1	0.033625
37.466667	1	0.033625
37.483333	1	0.033500
37.500000	1	0.033250
37.516667	1	0.033500
37.533333	1	0.033875
37.550000	1	0.034250
37.566667	1	0.034375
37.583333	1	0.034375
37.600000	1	0.033750
37.616667	1	0.033750
37.633333	1	0.033375
37.650000	1	0.033125
37.666667	1	0.032500
37.683333	1	0.032500
37.700000	1	0.032750
37.716667	1	0.032500
37.733333	1	0.032000
37.750000	1	0.031250
37.766667	1	0.031250
37.783333	1	0.030875
37.800000	1	0.030750
37.816667	1	0.030500
37.833333	1	0.030000
37.850000	1	0.029625
37.866667	1	0.030125
37.883333	1	0.031000
37.900000	1	0.032125
37.916667	1	0.032000
37.933333	1	0.033000
37.950000	1	0.033250
37.966667	1	0.034125
37.983333	1	0.034125
38.000000	1	0.034625
38.016667	1	0.035125
38.033333	1	0.036375
38.050000	1	0.037000
38.066667	1	0.038500
38.083333	1	0.039750
38.100000	1	0.041250
38.116667	1	0.042000
38.133333	1	0.042500
38.150000	1	0.043625
38.166667	1	0.044500
38.183333	1	0.045625
38.200000	1	0.046750
38.216667	1	0.047125
38.233333	1	0.047500
38.250000	1	0.048375
38.266667	1	0.049500
38.283333	1	0.050375
38.300000	1	0.050500
38.316667	1	0.050500
38.333333	1	0.051000
38.350000	1	0.050750
38.366667	1	0.051250
38.383333	1	0.052000
38.400000	1	0.050500
38.416667	1	0.050750
38.433333	1	0.051000
38.450000	1	0.050250
38.466667	1	0.049750
38.483333	1	0.049125
38.500000	1	0.048250
38.516667	1	0.047375
38.533333	1	0.046625
38.550000	1	0.045875
38.566667	1	0.045000
38.583333	1	0.043875
38.600000	1	0.043125
38.616667	1	0.041375
38.633333	1	0.039375
38.650000	1	0.038500
38.666667	1	0.037500
38.683333	1	0.035750
38.700000	1	0.034375
38.716667	1	0.033625
38.733333	1	0.032125
38.750000	1	0.030625
38.766667	1	0.029125
38.783333	1	0.028375
38.800000	1	0.027000
38.816667	1	0.026250
38.833333	1	0.025625
38.850000	1	0.024500
38.866667	1	0.022875
38.883333	1	0.022250
38.900000	1	0.021500
38.916667	1	0.020625
38.933333	1	0.020250
38.950000	1	0.019875
38.966667	1	0.019250
38.983333	1	0.018500
39.000000	1	0.017750
39.016667	1	0.016375
39.033333	1	0.015000
39.050000	1	0.014750
39.066667	1	0.014250
39.083333	1	0.013250
39.100000	1	0.012750
39.116667	1	0.011500
39.133333	1	0.010000
39.150000	1	0.009250
39.166667	1	0.008125
39.183333	1	0.007375
39.200000	1	0.006750
39.216667	1	0.005250
39.233333	1	0.003750
39.250000	1	0.002375
39.266667	1	0.001500
39.283333	1	0.000375
39.300000	1	-0.000250
39.316667	1	-0.000250
39.333333	1	-0.001375
39.350000	1	-0.002250
39.366667	1	-0.003250
39.383333	1	-0.003750
39.400000	1	-0.004500
39.416667	1	-0.005500
39.433333	1	-0.006500
39.450000	1	-0.007000
39.466667	1	-0.007125
39.483333	1	-0.007375
39.500000	1	-0.008125
39.516667	1	-0.008375
39.533333	1	-0.009375
39.550000	1	-0.009125
39.566667	1	-0.009125
39.583333	1	-0.008750
39.600000	1	-0.008625
39.616667	1	-0.008375
39.633333	1	-0.008000
39.650000	1	-0.007625
39.666667	1	-0.006750
39.683333	1	-0.006625
39.700000	1	-0.006750
39.716667	1	-0.006500
39.733333	1	-0.007125
39.750000	1	-0.006875
39.766667	1	-0.006625
39.783333	1	-0.006250
39.800000	1	-0.006500
39.816667	1	-0.006625
39.833333	1	-0.006125
39.850000	1	-0.005500
39.866667	1	-0.005375
39.883333	1	-0.004750
39.900000	1	-0.004500
39.916667	1	-0.004875
39.933333	1	-0.004625
39.950000	1	-0.005000
39.966667	1	-0.005000
39.983333	1	-0.005250
40.000000	1	-0.004875
