URL	chrom://7040-86g6c92/XVault/Ultimate_3000/20/20240517_CMO_FP23_FP25_MarkusDeplate.seq/219.smp/RI_1.channel/RI_1.chm
Channel	RI_1

Injection Information:
Data Vault	XVault
Sequence	20240517_CMO_FP23_FP25_MarkusDeplate
Name	FP25_25.1_s2
Number	42
Position	BD6
Comment	
Processing Method	
Instrument Method	run_25B_method
Type	Unknown
Status	Finished
Inject Time	28.05.2024 22:02:10 +02:00
Volume (µl)	20.0000
Dilution Factor	1.0000
Weight	1.0000

Chromatogram Data Information:
Time Min. (min)	0.000000
Time Max. (min)	40.000000
Data Points	2401
Detector	RI
Generating Data System	Chromeleon 7.3.2.11814
Exporting Data System	Chromeleon 7.3.2.0
Operator	Instrument Controller
Signal Quantity	Refractive 
Signal Unit	µRIU
Signal Min.	-1.016000
Signal Max.	66.751000
Channel	RI_1
Driver Name	RID520Driver.dll
Channel Type	Evaluation
Min. Step (s)	1
Max. Step (s)	1
Average Step (s)	1

Signal Parameter Information:
Signal Info	

Chromatogram Data:
Time (min)	Step (s)	Value (µRIU)
0.000000	n.a.	0.026000
0.016667	1	0.026625
0.033333	1	0.026750
0.050000	1	0.027125
0.066667	1	0.027875
0.083333	1	0.028375
0.100000	1	0.028625
0.116667	1	0.028375
0.133333	1	0.028625
0.150000	1	0.028000
0.166667	1	0.027500
0.183333	1	0.027625
0.200000	1	0.027250
0.216667	1	0.026500
0.233333	1	0.025750
0.250000	1	0.025500
0.266667	1	0.024875
0.283333	1	0.024750
0.300000	1	0.024375
0.316667	1	0.024125
0.333333	1	0.023500
0.350000	1	0.023000
0.366667	1	0.022125
0.383333	1	0.020375
0.400000	1	0.019250
0.416667	1	0.018750
0.433333	1	0.019875
0.450000	1	0.022125
0.466667	1	0.024250
0.483333	1	0.025375
0.500000	1	0.026250
0.516667	1	0.026750
0.533333	1	0.026250
0.550000	1	0.025750
0.566667	1	0.024750
0.583333	1	0.022875
0.600000	1	0.020750
0.616667	1	0.018750
0.633333	1	0.016500
0.650000	1	0.015625
0.666667	1	0.015000
0.683333	1	0.015750
0.700000	1	0.016500
0.716667	1	0.017625
0.733333	1	0.017750
0.750000	1	0.018000
0.766667	1	0.018000
0.783333	1	0.018250
0.800000	1	0.019250
0.816667	1	0.019750
0.833333	1	0.020125
0.850000	1	0.021000
0.866667	1	0.021250
0.883333	1	0.022000
0.900000	1	0.022500
0.916667	1	0.023250
0.933333	1	0.023750
0.950000	1	0.024625
0.966667	1	0.024625
0.983333	1	0.024750
1.000000	1	0.024750
1.016667	1	0.024250
1.033333	1	0.024250
1.050000	1	0.024250
1.066667	1	0.024000
1.083333	1	0.023875
1.100000	1	0.023375
1.116667	1	0.021875
1.133333	1	0.021375
1.150000	1	0.020000
1.166667	1	0.018875
1.183333	1	0.017750
1.200000	1	0.017000
1.216667	1	0.015625
1.233333	1	0.014625
1.250000	1	0.013250
1.266667	1	0.011875
1.283333	1	0.009750
1.300000	1	0.008000
1.316667	1	0.006375
1.333333	1	0.004875
1.350000	1	0.003500
1.366667	1	0.002000
1.383333	1	0.001375
1.400000	1	-0.000250
1.416667	1	-0.002000
1.433333	1	-0.003750
1.450000	1	-0.004875
1.466667	1	-0.006125
1.483333	1	-0.007250
1.500000	1	-0.008375
1.516667	1	-0.009500
1.533333	1	-0.011375
1.550000	1	-0.012500
1.566667	1	-0.013750
1.583333	1	-0.014750
1.600000	1	-0.016000
1.616667	1	-0.017375
1.633333	1	-0.017125
1.650000	1	-0.018625
1.666667	1	-0.019375
1.683333	1	-0.020750
1.700000	1	-0.021875
1.716667	1	-0.023375
1.733333	1	-0.024000
1.750000	1	-0.024750
1.766667	1	-0.025375
1.783333	1	-0.025875
1.800000	1	-0.025500
1.816667	1	-0.025875
1.833333	1	-0.025875
1.850000	1	-0.026375
1.866667	1	-0.025750
1.883333	1	-0.025750
1.900000	1	-0.025750
1.916667	1	-0.025250
1.933333	1	-0.024375
1.950000	1	-0.024125
1.966667	1	-0.023875
1.983333	1	-0.023875
2.000000	1	-0.023000
2.016667	1	-0.021750
2.033333	1	-0.020875
2.050000	1	-0.019750
2.066667	1	-0.018875
2.083333	1	-0.018125
2.100000	1	-0.017125
2.116667	1	-0.015375
2.133333	1	-0.014875
2.150000	1	-0.013375
2.166667	1	-0.012375
2.183333	1	-0.011500
2.200000	1	-0.010125
2.216667	1	-0.008500
2.233333	1	-0.007375
2.250000	1	-0.006250
2.266667	1	-0.005500
2.283333	1	-0.004250
2.300000	1	-0.003125
2.316667	1	-0.001875
2.333333	1	-0.001500
2.350000	1	-0.000500
2.366667	1	0.000000
2.383333	1	0.000500
2.400000	1	0.001250
2.416667	1	0.001750
2.433333	1	0.002750
2.450000	1	0.003625
2.466667	1	0.004250
2.483333	1	0.004250
2.500000	1	0.005125
2.516667	1	0.005875
2.533333	1	0.005750
2.550000	1	0.006375
2.566667	1	0.006875
2.583333	1	0.006750
2.600000	1	0.008125
2.616667	1	0.008000
2.633333	1	0.009125
2.650000	1	0.008875
2.666667	1	0.009250
2.683333	1	0.008875
2.700000	1	0.008750
2.716667	1	0.009125
2.733333	1	0.008875
2.750000	1	0.009125
2.766667	1	0.009125
2.783333	1	0.009125
2.800000	1	0.009375
2.816667	1	0.009125
2.833333	1	0.009500
2.850000	1	0.009750
2.866667	1	0.010125
2.883333	1	0.010750
2.900000	1	0.011625
2.916667	1	0.011875
2.933333	1	0.011875
2.950000	1	0.013125
2.966667	1	0.013750
2.983333	1	0.014125
3.000000	1	0.014625
3.016667	1	0.015875
3.033333	1	0.016625
3.050000	1	0.017125
3.066667	1	0.018250
3.083333	1	0.018500
3.100000	1	0.019375
3.116667	1	0.019750
3.133333	1	0.019875
3.150000	1	0.020250
3.166667	1	0.020750
3.183333	1	0.021000
3.200000	1	0.021500
3.216667	1	0.021375
3.233333	1	0.021125
3.250000	1	0.020750
3.266667	1	0.020625
3.283333	1	0.020625
3.300000	1	0.020500
3.316667	1	0.020500
3.333333	1	0.020625
3.350000	1	0.020125
3.366667	1	0.020125
3.383333	1	0.020500
3.400000	1	0.020750
3.416667	1	0.021250
3.433333	1	0.021125
3.450000	1	0.021625
3.466667	1	0.022750
3.483333	1	0.023000
3.500000	1	0.023125
3.516667	1	0.024250
3.533333	1	0.024500
3.550000	1	0.025500
3.566667	1	0.026875
3.583333	1	0.028750
3.600000	1	0.030500
3.616667	1	0.031625
3.633333	1	0.033375
3.650000	1	0.035500
3.666667	1	0.037625
3.683333	1	0.039250
3.700000	1	0.039875
3.716667	1	0.041625
3.733333	1	0.043375
3.750000	1	0.045000
3.766667	1	0.047125
3.783333	1	0.049000
3.800000	1	0.050250
3.816667	1	0.051250
3.833333	1	0.052875
3.850000	1	0.054250
3.866667	1	0.055750
3.883333	1	0.056875
3.900000	1	0.057750
3.916667	1	0.058125
3.933333	1	0.059375
3.950000	1	0.059875
3.966667	1	0.060500
3.983333	1	0.061000
4.000000	1	0.061750
4.016667	1	0.061500
4.033333	1	0.061500
4.050000	1	0.061875
4.066667	1	0.061625
4.083333	1	0.061375
4.100000	1	0.061625
4.116667	1	0.061125
4.133333	1	0.060125
4.150000	1	0.059125
4.166667	1	0.058375
4.183333	1	0.058000
4.200000	1	0.056875
4.216667	1	0.055375
4.233333	1	0.055000
4.250000	1	0.054125
4.266667	1	0.052875
4.283333	1	0.052625
4.300000	1	0.052000
4.316667	1	0.051875
4.333333	1	0.051125
4.350000	1	0.050375
4.366667	1	0.050000
4.383333	1	0.049875
4.400000	1	0.050250
4.416667	1	0.050250
4.433333	1	0.050375
4.450000	1	0.051000
4.466667	1	0.050750
4.483333	1	0.051500
4.500000	1	0.052250
4.516667	1	0.053250
4.533333	1	0.053625
4.550000	1	0.054250
4.566667	1	0.055250
4.583333	1	0.056375
4.600000	1	0.058875
4.616667	1	0.060500
4.633333	1	0.061750
4.650000	1	0.062750
4.666667	1	0.064500
4.683333	1	0.065625
4.700000	1	0.067875
4.716667	1	0.069750
4.733333	1	0.072250
4.750000	1	0.074375
4.766667	1	0.076500
4.783333	1	0.079000
4.800000	1	0.081625
4.816667	1	0.084250
4.833333	1	0.087125
4.850000	1	0.089500
4.866667	1	0.091500
4.883333	1	0.093500
4.900000	1	0.096000
4.916667	1	0.098500
4.933333	1	0.101625
4.950000	1	0.104500
4.966667	1	0.106875
4.983333	1	0.109125
5.000000	1	0.111375
5.016667	1	0.113875
5.033333	1	0.116500
5.050000	1	0.119000
5.066667	1	0.122125
5.083333	1	0.124500
5.100000	1	0.127000
5.116667	1	0.129250
5.133333	1	0.131750
5.150000	1	0.134625
5.166667	1	0.137625
5.183333	1	0.140375
5.200000	1	0.143750
5.216667	1	0.147125
5.233333	1	0.150625
5.250000	1	0.154375
5.266667	1	0.157750
5.283333	1	0.160750
5.300000	1	0.164500
5.316667	1	0.168000
5.333333	1	0.171750
5.350000	1	0.175875
5.366667	1	0.179875
5.383333	1	0.183750
5.400000	1	0.187875
5.416667	1	0.191625
5.433333	1	0.195500
5.450000	1	0.199625
5.466667	1	0.203250
5.483333	1	0.207125
5.500000	1	0.211375
5.516667	1	0.214875
5.533333	1	0.218875
5.550000	1	0.223125
5.566667	1	0.227250
5.583333	1	0.231375
5.600000	1	0.235500
5.616667	1	0.239125
5.633333	1	0.242500
5.650000	1	0.246000
5.666667	1	0.249000
5.683333	1	0.251750
5.700000	1	0.253875
5.716667	1	0.256875
5.733333	1	0.258875
5.750000	1	0.261250
5.766667	1	0.262875
5.783333	1	0.265000
5.800000	1	0.267125
5.816667	1	0.268875
5.833333	1	0.269875
5.850000	1	0.270250
5.866667	1	0.270125
5.883333	1	0.270750
5.900000	1	0.270375
5.916667	1	0.270875
5.933333	1	0.270375
5.950000	1	0.269750
5.966667	1	0.268625
5.983333	1	0.267375
6.000000	1	0.266000
6.016667	1	0.264125
6.033333	1	0.262625
6.050000	1	0.260750
6.066667	1	0.258125
6.083333	1	0.256000
6.100000	1	0.253750
6.116667	1	0.250500
6.133333	1	0.248625
6.150000	1	0.245625
6.166667	1	0.242750
6.183333	1	0.239250
6.200000	1	0.236000
6.216667	1	0.232625
6.233333	1	0.229750
6.250000	1	0.227125
6.266667	1	0.223875
6.283333	1	0.220750
6.300000	1	0.218250
6.316667	1	0.215375
6.333333	1	0.213000
6.350000	1	0.210875
6.366667	1	0.207500
6.383333	1	0.204875
6.400000	1	0.201875
6.416667	1	0.198875
6.433333	1	0.195875
6.450000	1	0.193750
6.466667	1	0.191625
6.483333	1	0.189000
6.500000	1	0.186125
6.516667	1	0.183625
6.533333	1	0.181500
6.550000	1	0.178375
6.566667	1	0.176125
6.583333	1	0.174375
6.600000	1	0.172875
6.616667	1	0.170750
6.633333	1	0.168500
6.650000	1	0.166250
6.666667	1	0.164000
6.683333	1	0.161500
6.700000	1	0.159250
6.716667	1	0.157125
6.733333	1	0.155375
6.750000	1	0.153625
6.766667	1	0.152000
6.783333	1	0.150125
6.800000	1	0.148250
6.816667	1	0.146375
6.833333	1	0.145000
6.850000	1	0.143125
6.866667	1	0.142250
6.883333	1	0.141125
6.900000	1	0.140625
6.916667	1	0.139750
6.933333	1	0.138875
6.950000	1	0.138750
6.966667	1	0.138500
6.983333	1	0.138500
7.000000	1	0.138625
7.016667	1	0.138875
7.033333	1	0.139625
7.050000	1	0.140125
7.066667	1	0.140125
7.083333	1	0.140500
7.100000	1	0.140875
7.116667	1	0.141750
7.133333	1	0.143000
7.150000	1	0.144625
7.166667	1	0.146000
7.183333	1	0.147750
7.200000	1	0.149250
7.216667	1	0.150875
7.233333	1	0.152250
7.250000	1	0.154125
7.266667	1	0.156125
7.283333	1	0.158250
7.300000	1	0.160875
7.316667	1	0.163250
7.333333	1	0.165750
7.350000	1	0.168250
7.366667	1	0.170125
7.383333	1	0.172750
7.400000	1	0.175750
7.416667	1	0.178500
7.433333	1	0.181250
7.450000	1	0.184500
7.466667	1	0.187125
7.483333	1	0.189500
7.500000	1	0.192250
7.516667	1	0.195000
7.533333	1	0.198000
7.550000	1	0.200750
7.566667	1	0.203375
7.583333	1	0.206125
7.600000	1	0.208750
7.616667	1	0.211500
7.633333	1	0.213250
7.650000	1	0.215250
7.666667	1	0.217250
7.683333	1	0.219000
7.700000	1	0.220250
7.716667	1	0.221750
7.733333	1	0.222625
7.750000	1	0.223375
7.766667	1	0.223250
7.783333	1	0.222625
7.800000	1	0.223125
7.816667	1	0.222875
7.833333	1	0.221625
7.850000	1	0.219625
7.866667	1	0.218125
7.883333	1	0.216375
7.900000	1	0.214625
7.916667	1	0.212375
7.933333	1	0.210250
7.950000	1	0.208750
7.966667	1	0.205750
7.983333	1	0.203125
8.000000	1	0.199875
8.016667	1	0.196375
8.033333	1	0.192375
8.050000	1	0.188500
8.066667	1	0.185000
8.083333	1	0.180875
8.100000	1	0.176875
8.116667	1	0.173000
8.133333	1	0.168625
8.150000	1	0.163875
8.166667	1	0.158875
8.183333	1	0.153875
8.200000	1	0.149250
8.216667	1	0.144875
8.233333	1	0.141250
8.250000	1	0.136125
8.266667	1	0.131625
8.283333	1	0.127125
8.300000	1	0.123000
8.316667	1	0.118500
8.333333	1	0.114375
8.350000	1	0.111000
8.366667	1	0.107750
8.383333	1	0.104875
8.400000	1	0.101500
8.416667	1	0.097250
8.433333	1	0.093875
8.450000	1	0.091500
8.466667	1	0.089250
8.483333	1	0.087125
8.500000	1	0.085375
8.516667	1	0.083250
8.533333	1	0.081750
8.550000	1	0.080375
8.566667	1	0.079500
8.583333	1	0.078750
8.600000	1	0.077875
8.616667	1	0.076875
8.633333	1	0.075750
8.650000	1	0.075000
8.666667	1	0.075000
8.683333	1	0.074500
8.700000	1	0.074125
8.716667	1	0.074375
8.733333	1	0.074500
8.750000	1	0.074500
8.766667	1	0.074875
8.783333	1	0.075125
8.800000	1	0.075000
8.816667	1	0.074500
8.833333	1	0.074750
8.850000	1	0.074750
8.866667	1	0.075250
8.883333	1	0.075625
8.900000	1	0.076250
8.916667	1	0.075375
8.933333	1	0.075750
8.950000	1	0.075750
8.966667	1	0.075750
8.983333	1	0.075500
9.000000	1	0.075125
9.016667	1	0.074875
9.033333	1	0.074625
9.050000	1	0.073875
9.066667	1	0.073875
9.083333	1	0.073750
9.100000	1	0.073375
9.116667	1	0.073125
9.133333	1	0.073000
9.150000	1	0.072500
9.166667	1	0.072000
9.183333	1	0.071000
9.200000	1	0.070125
9.216667	1	0.069500
9.233333	1	0.069375
9.250000	1	0.068500
9.266667	1	0.067500
9.283333	1	0.066375
9.300000	1	0.065875
9.316667	1	0.065250
9.333333	1	0.064875
9.350000	1	0.064625
9.366667	1	0.063125
9.383333	1	0.062500
9.400000	1	0.060625
9.416667	1	0.059625
9.433333	1	0.058875
9.450000	1	0.057250
9.466667	1	0.056375
9.483333	1	0.055250
9.500000	1	0.053875
9.516667	1	0.054375
9.533333	1	0.053500
9.550000	1	0.052000
9.566667	1	0.051125
9.583333	1	0.050750
9.600000	1	0.051000
9.616667	1	0.050125
9.633333	1	0.050500
9.650000	1	0.049750
9.666667	1	0.050500
9.683333	1	0.051375
9.700000	1	0.052625
9.716667	1	0.052625
9.733333	1	0.053500
9.750000	1	0.054250
9.766667	1	0.055500
9.783333	1	0.056875
9.800000	1	0.058375
9.816667	1	0.059625
9.833333	1	0.061125
9.850000	1	0.061750
9.866667	1	0.062625
9.883333	1	0.064375
9.900000	1	0.065500
9.916667	1	0.066375
9.933333	1	0.068000
9.950000	1	0.069625
9.966667	1	0.071000
9.983333	1	0.073000
10.000000	1	0.074500
10.016667	1	0.076750
10.033333	1	0.079250
10.050000	1	0.081500
10.066667	1	0.084500
10.083333	1	0.088750
10.100000	1	0.092875
10.116667	1	0.098375
10.133333	1	0.104250
10.150000	1	0.110750
10.166667	1	0.118250
10.183333	1	0.126500
10.200000	1	0.136875
10.216667	1	0.148250
10.233333	1	0.161125
10.250000	1	0.175875
10.266667	1	0.193375
10.283333	1	0.214125
10.300000	1	0.237125
10.316667	1	0.262500
10.333333	1	0.291250
10.350000	1	0.322500
10.366667	1	0.357375
10.383333	1	0.396500
10.400000	1	0.437500
10.416667	1	0.477125
10.433333	1	0.509125
10.450000	1	0.522000
10.466667	1	0.504875
10.483333	1	0.449125
10.500000	1	0.364750
10.516667	1	0.282125
10.533333	1	0.260000
10.550000	1	0.380500
10.566667	1	0.740375
10.583333	1	1.441375
10.600000	1	2.572375
10.616667	1	4.206875
10.633333	1	6.394250
10.650000	1	9.161875
10.666667	1	12.518875
10.683333	1	16.449750
10.700000	1	20.909125
10.716667	1	25.811625
10.733333	1	31.014750
10.750000	1	36.308625
10.766667	1	41.393125
10.783333	1	45.884000
10.800000	1	49.339625
10.816667	1	51.340625
10.833333	1	51.606625
10.850000	1	50.096125
10.866667	1	47.031625
10.883333	1	42.836625
10.900000	1	38.012125
10.916667	1	33.019125
10.933333	1	28.202750
10.950000	1	23.783750
10.966667	1	19.873875
10.983333	1	16.511500
11.000000	1	13.681625
11.016667	1	11.340375
11.033333	1	9.431875
11.050000	1	7.891000
11.066667	1	6.655875
11.083333	1	5.668000
11.100000	1	4.878125
11.116667	1	4.244500
11.133333	1	3.734375
11.150000	1	3.320750
11.166667	1	2.983750
11.183333	1	2.705125
11.200000	1	2.473625
11.216667	1	2.278875
11.233333	1	2.113750
11.250000	1	1.973250
11.266667	1	1.852750
11.283333	1	1.749250
11.300000	1	1.658875
11.316667	1	1.580625
11.333333	1	1.511500
11.350000	1	1.450625
11.366667	1	1.397125
11.383333	1	1.350500
11.400000	1	1.308750
11.416667	1	1.271500
11.433333	1	1.238625
11.450000	1	1.209000
11.466667	1	1.182125
11.483333	1	1.158625
11.500000	1	1.135875
11.516667	1	1.116500
11.533333	1	1.099000
11.550000	1	1.083125
11.566667	1	1.069500
11.583333	1	1.057125
11.600000	1	1.046625
11.616667	1	1.036750
11.633333	1	1.029375
11.650000	1	1.023375
11.666667	1	1.019500
11.683333	1	1.017875
11.700000	1	1.017375
11.716667	1	1.018250
11.733333	1	1.020875
11.750000	1	1.025500
11.766667	1	1.031250
11.783333	1	1.037625
11.800000	1	1.044750
11.816667	1	1.050375
11.833333	1	1.057000
11.850000	1	1.062750
11.866667	1	1.067875
11.883333	1	1.073625
11.900000	1	1.078125
11.916667	1	1.081750
11.933333	1	1.085625
11.950000	1	1.089125
11.966667	1	1.092625
11.983333	1	1.097250
12.000000	1	1.101500
12.016667	1	1.106625
12.033333	1	1.111750
12.050000	1	1.117750
12.066667	1	1.123750
12.083333	1	1.130375
12.100000	1	1.137000
12.116667	1	1.144500
12.133333	1	1.152875
12.150000	1	1.162375
12.166667	1	1.172500
12.183333	1	1.183375
12.200000	1	1.195000
12.216667	1	1.208125
12.233333	1	1.222500
12.250000	1	1.239875
12.266667	1	1.259000
12.283333	1	1.279875
12.300000	1	1.303375
12.316667	1	1.329500
12.333333	1	1.359500
12.350000	1	1.394250
12.366667	1	1.436000
12.383333	1	1.486000
12.400000	1	1.549250
12.416667	1	1.627500
12.433333	1	1.725375
12.450000	1	1.847875
12.466667	1	1.998125
12.483333	1	2.178750
12.500000	1	2.392250
12.516667	1	2.639875
12.533333	1	2.923125
12.550000	1	3.239625
12.566667	1	3.590000
12.583333	1	3.972000
12.600000	1	4.384375
12.616667	1	4.824250
12.633333	1	5.290375
12.650000	1	5.780250
12.666667	1	6.291750
12.683333	1	6.824000
12.700000	1	7.374625
12.716667	1	7.942375
12.733333	1	8.525000
12.750000	1	9.123000
12.766667	1	9.733500
12.783333	1	10.357125
12.800000	1	10.992125
12.816667	1	11.633625
12.833333	1	12.269750
12.850000	1	12.870125
12.866667	1	13.370625
12.883333	1	13.674125
12.900000	1	13.674625
12.916667	1	13.298250
12.933333	1	12.541750
12.950000	1	11.480250
12.966667	1	10.240750
12.983333	1	8.954875
13.000000	1	7.729750
13.016667	1	6.625375
13.033333	1	5.665875
13.050000	1	4.854500
13.066667	1	4.180500
13.083333	1	3.628875
13.100000	1	3.183500
13.116667	1	2.826125
13.133333	1	2.543250
13.150000	1	2.318625
13.166667	1	2.140375
13.183333	1	1.998375
13.200000	1	1.885125
13.216667	1	1.793625
13.233333	1	1.718125
13.250000	1	1.654500
13.266667	1	1.600375
13.283333	1	1.552875
13.300000	1	1.510625
13.316667	1	1.473750
13.333333	1	1.439750
13.350000	1	1.408625
13.366667	1	1.379375
13.383333	1	1.353750
13.400000	1	1.330250
13.416667	1	1.309750
13.433333	1	1.291875
13.450000	1	1.275875
13.466667	1	1.261875
13.483333	1	1.250625
13.500000	1	1.241625
13.516667	1	1.235500
13.533333	1	1.230625
13.550000	1	1.227125
13.566667	1	1.223375
13.583333	1	1.218625
13.600000	1	1.214000
13.616667	1	1.207500
13.633333	1	1.198625
13.650000	1	1.188875
13.666667	1	1.177125
13.683333	1	1.162625
13.700000	1	1.146750
13.716667	1	1.129750
13.733333	1	1.112250
13.750000	1	1.094000
13.766667	1	1.076375
13.783333	1	1.058000
13.800000	1	1.040750
13.816667	1	1.024375
13.833333	1	1.008500
13.850000	1	0.993375
13.866667	1	0.979000
13.883333	1	0.965500
13.900000	1	0.953000
13.916667	1	0.941000
13.933333	1	0.930375
13.950000	1	0.920000
13.966667	1	0.910625
13.983333	1	0.900500
14.000000	1	0.891500
14.016667	1	0.883750
14.033333	1	0.875875
14.050000	1	0.869000
14.066667	1	0.861750
14.083333	1	0.855500
14.100000	1	0.849875
14.116667	1	0.843750
14.133333	1	0.838875
14.150000	1	0.834375
14.166667	1	0.829500
14.183333	1	0.825750
14.200000	1	0.822250
14.216667	1	0.819375
14.233333	1	0.817500
14.250000	1	0.816375
14.266667	1	0.815625
14.283333	1	0.816125
14.300000	1	0.817125
14.316667	1	0.819500
14.333333	1	0.822875
14.350000	1	0.827500
14.366667	1	0.834375
14.383333	1	0.842500
14.400000	1	0.854000
14.416667	1	0.867750
14.433333	1	0.888000
14.450000	1	0.917875
14.466667	1	0.962625
14.483333	1	1.032625
14.500000	1	1.142875
14.516667	1	1.315375
14.533333	1	1.581375
14.550000	1	1.982500
14.566667	1	2.571250
14.583333	1	3.411375
14.600000	1	4.578875
14.616667	1	6.157125
14.633333	1	8.231625
14.650000	1	10.879750
14.666667	1	14.159000
14.683333	1	18.095750
14.700000	1	22.670625
14.716667	1	27.809000
14.733333	1	33.381375
14.750000	1	39.206125
14.766667	1	45.051125
14.783333	1	50.653125
14.800000	1	55.750500
14.816667	1	60.093375
14.833333	1	63.467625
14.850000	1	65.715250
14.866667	1	66.751000
14.883333	1	66.567750
14.900000	1	65.240500
14.916667	1	62.905375
14.933333	1	59.741375
14.950000	1	55.954000
14.966667	1	51.753750
14.983333	1	47.342875
15.000000	1	42.888500
15.016667	1	38.528750
15.033333	1	34.366250
15.050000	1	30.472000
15.066667	1	26.890875
15.083333	1	23.642000
15.100000	1	20.728250
15.116667	1	18.135750
15.133333	1	15.842250
15.150000	1	13.822125
15.166667	1	12.050125
15.183333	1	10.500500
15.200000	1	9.148625
15.216667	1	7.972375
15.233333	1	6.952000
15.250000	1	6.071500
15.266667	1	5.314375
15.283333	1	4.668000
15.300000	1	4.120875
15.316667	1	3.662250
15.333333	1	3.281000
15.350000	1	2.967625
15.366667	1	2.713875
15.383333	1	2.511875
15.400000	1	2.352000
15.416667	1	2.226500
15.433333	1	2.129125
15.450000	1	2.052875
15.466667	1	1.990875
15.483333	1	1.938125
15.500000	1	1.890625
15.516667	1	1.845125
15.533333	1	1.799500
15.550000	1	1.754375
15.566667	1	1.708250
15.583333	1	1.660625
15.600000	1	1.613500
15.616667	1	1.567625
15.633333	1	1.522500
15.650000	1	1.479750
15.666667	1	1.439125
15.683333	1	1.400875
15.700000	1	1.366125
15.716667	1	1.334375
15.733333	1	1.305250
15.750000	1	1.277000
15.766667	1	1.251375
15.783333	1	1.225625
15.800000	1	1.201250
15.816667	1	1.179000
15.833333	1	1.157625
15.850000	1	1.137250
15.866667	1	1.118250
15.883333	1	1.100125
15.900000	1	1.084375
15.916667	1	1.070375
15.933333	1	1.057875
15.950000	1	1.047500
15.966667	1	1.039625
15.983333	1	1.033625
16.000000	1	1.028625
16.016667	1	1.026250
16.033333	1	1.025375
16.050000	1	1.024875
16.066667	1	1.025000
16.083333	1	1.027250
16.100000	1	1.028750
16.116667	1	1.030750
16.133333	1	1.032375
16.150000	1	1.033500
16.166667	1	1.034500
16.183333	1	1.034875
16.200000	1	1.033500
16.216667	1	1.032250
16.233333	1	1.030000
16.250000	1	1.026500
16.266667	1	1.022125
16.283333	1	1.017375
16.300000	1	1.012375
16.316667	1	1.006875
16.333333	1	1.002750
16.350000	1	0.999125
16.366667	1	0.997000
16.383333	1	0.995375
16.400000	1	0.995500
16.416667	1	0.996375
16.433333	1	0.998500
16.450000	1	1.002125
16.466667	1	1.006125
16.483333	1	1.009750
16.500000	1	1.013875
16.516667	1	1.017375
16.533333	1	1.020750
16.550000	1	1.022000
16.566667	1	1.022875
16.583333	1	1.021125
16.600000	1	1.017500
16.616667	1	1.013125
16.633333	1	1.008375
16.650000	1	1.003125
16.666667	1	0.997375
16.683333	1	0.993750
16.700000	1	0.989875
16.716667	1	0.988625
16.733333	1	0.989375
16.750000	1	0.992375
16.766667	1	0.996875
16.783333	1	1.003000
16.800000	1	1.010625
16.816667	1	1.019750
16.833333	1	1.028625
16.850000	1	1.037750
16.866667	1	1.045750
16.883333	1	1.053000
16.900000	1	1.058500
16.916667	1	1.062125
16.933333	1	1.063875
16.950000	1	1.063625
16.966667	1	1.062500
16.983333	1	1.060375
17.000000	1	1.057750
17.016667	1	1.054000
17.033333	1	1.049875
17.050000	1	1.045875
17.066667	1	1.041375
17.083333	1	1.038625
17.100000	1	1.036375
17.116667	1	1.034250
17.133333	1	1.033375
17.150000	1	1.033750
17.166667	1	1.034875
17.183333	1	1.036500
17.200000	1	1.038875
17.216667	1	1.041375
17.233333	1	1.045000
17.250000	1	1.049125
17.266667	1	1.053500
17.283333	1	1.057875
17.300000	1	1.063375
17.316667	1	1.068750
17.333333	1	1.075000
17.350000	1	1.081250
17.366667	1	1.087250
17.383333	1	1.092125
17.400000	1	1.097000
17.416667	1	1.101375
17.433333	1	1.104500
17.450000	1	1.105500
17.466667	1	1.106375
17.483333	1	1.105875
17.500000	1	1.103500
17.516667	1	1.099000
17.533333	1	1.092625
17.550000	1	1.085125
17.566667	1	1.076250
17.583333	1	1.066625
17.600000	1	1.054625
17.616667	1	1.042500
17.633333	1	1.029125
17.650000	1	1.014125
17.666667	1	0.999125
17.683333	1	0.984375
17.700000	1	0.969000
17.716667	1	0.954250
17.733333	1	0.939625
17.750000	1	0.924625
17.766667	1	0.910875
17.783333	1	0.897375
17.800000	1	0.885000
17.816667	1	0.873875
17.833333	1	0.863875
17.850000	1	0.854750
17.866667	1	0.846875
17.883333	1	0.839875
17.900000	1	0.832625
17.916667	1	0.825125
17.933333	1	0.819625
17.950000	1	0.813500
17.966667	1	0.807500
17.983333	1	0.801750
18.000000	1	0.795625
18.016667	1	0.789750
18.033333	1	0.783750
18.050000	1	0.778125
18.066667	1	0.773250
18.083333	1	0.768625
18.100000	1	0.764500
18.116667	1	0.761000
18.133333	1	0.758000
18.150000	1	0.755750
18.166667	1	0.753500
18.183333	1	0.752250
18.200000	1	0.751250
18.216667	1	0.751250
18.233333	1	0.750750
18.250000	1	0.751125
18.266667	1	0.750750
18.283333	1	0.751000
18.300000	1	0.751000
18.316667	1	0.751375
18.333333	1	0.751875
18.350000	1	0.752375
18.366667	1	0.753875
18.383333	1	0.756125
18.400000	1	0.758500
18.416667	1	0.762250
18.433333	1	0.768000
18.450000	1	0.775125
18.466667	1	0.785000
18.483333	1	0.795750
18.500000	1	0.808500
18.516667	1	0.823625
18.533333	1	0.840375
18.550000	1	0.859625
18.566667	1	0.881625
18.583333	1	0.905375
18.600000	1	0.931500
18.616667	1	0.958250
18.633333	1	0.987875
18.650000	1	1.019250
18.666667	1	1.052000
18.683333	1	1.085875
18.700000	1	1.120250
18.716667	1	1.155875
18.733333	1	1.192375
18.750000	1	1.228750
18.766667	1	1.264750
18.783333	1	1.299375
18.800000	1	1.332750
18.816667	1	1.364375
18.833333	1	1.393125
18.850000	1	1.417750
18.866667	1	1.437625
18.883333	1	1.452375
18.900000	1	1.461125
18.916667	1	1.463750
18.933333	1	1.460125
18.950000	1	1.450000
18.966667	1	1.433250
18.983333	1	1.410250
19.000000	1	1.382125
19.016667	1	1.348250
19.033333	1	1.310000
19.050000	1	1.269125
19.066667	1	1.225125
19.083333	1	1.180125
19.100000	1	1.134625
19.116667	1	1.089125
19.133333	1	1.045250
19.150000	1	1.003375
19.166667	1	0.964250
19.183333	1	0.928750
19.200000	1	0.897375
19.216667	1	0.870000
19.233333	1	0.848250
19.250000	1	0.830625
19.266667	1	0.819000
19.283333	1	0.813000
19.300000	1	0.814000
19.316667	1	0.821000
19.333333	1	0.833250
19.350000	1	0.851250
19.366667	1	0.873875
19.383333	1	0.901250
19.400000	1	0.932250
19.416667	1	0.965125
19.433333	1	1.000000
19.450000	1	1.035375
19.466667	1	1.070625
19.483333	1	1.104625
19.500000	1	1.136750
19.516667	1	1.165500
19.533333	1	1.190500
19.550000	1	1.211875
19.566667	1	1.227625
19.583333	1	1.240000
19.600000	1	1.247750
19.616667	1	1.250750
19.633333	1	1.248750
19.650000	1	1.242375
19.666667	1	1.232500
19.683333	1	1.218250
19.700000	1	1.201125
19.716667	1	1.180250
19.733333	1	1.156875
19.750000	1	1.131000
19.766667	1	1.102375
19.783333	1	1.072125
19.800000	1	1.041250
19.816667	1	1.009125
19.833333	1	0.976250
19.850000	1	0.943875
19.866667	1	0.910875
19.883333	1	0.879000
19.900000	1	0.848750
19.916667	1	0.819750
19.933333	1	0.792750
19.950000	1	0.768625
19.966667	1	0.747875
19.983333	1	0.730375
20.000000	1	0.717125
20.016667	1	0.708250
20.033333	1	0.704500
20.050000	1	0.705750
20.066667	1	0.713000
20.083333	1	0.726375
20.100000	1	0.746625
20.116667	1	0.771250
20.133333	1	0.800875
20.150000	1	0.835375
20.166667	1	0.873125
20.183333	1	0.913625
20.200000	1	0.954625
20.216667	1	0.995375
20.233333	1	1.034250
20.250000	1	1.068875
20.266667	1	1.098375
20.283333	1	1.121000
20.300000	1	1.136500
20.316667	1	1.144625
20.333333	1	1.144500
20.350000	1	1.136500
20.366667	1	1.120125
20.383333	1	1.097875
20.400000	1	1.069875
20.416667	1	1.037250
20.433333	1	1.000875
20.450000	1	0.962625
20.466667	1	0.923750
20.483333	1	0.886000
20.500000	1	0.850625
20.516667	1	0.818625
20.533333	1	0.791375
20.550000	1	0.768375
20.566667	1	0.752500
20.583333	1	0.742875
20.600000	1	0.741250
20.616667	1	0.748250
20.633333	1	0.764875
20.650000	1	0.790375
20.666667	1	0.825750
20.683333	1	0.870500
20.700000	1	0.924375
20.716667	1	0.986750
20.733333	1	1.056125
20.750000	1	1.131250
20.766667	1	1.209500
20.783333	1	1.288750
20.800000	1	1.366625
20.816667	1	1.439375
20.833333	1	1.505375
20.850000	1	1.561750
20.866667	1	1.607125
20.883333	1	1.639750
20.900000	1	1.658500
20.916667	1	1.664375
20.933333	1	1.656625
20.950000	1	1.635625
20.966667	1	1.602750
20.983333	1	1.559625
21.000000	1	1.508000
21.016667	1	1.450500
21.033333	1	1.388000
21.050000	1	1.323000
21.066667	1	1.257875
21.083333	1	1.193625
21.100000	1	1.130875
21.116667	1	1.070875
21.133333	1	1.013375
21.150000	1	0.959375
21.166667	1	0.909750
21.183333	1	0.864375
21.200000	1	0.822750
21.216667	1	0.784875
21.233333	1	0.750000
21.250000	1	0.719000
21.266667	1	0.691000
21.283333	1	0.665625
21.300000	1	0.643500
21.316667	1	0.623750
21.333333	1	0.606250
21.350000	1	0.590875
21.366667	1	0.576625
21.383333	1	0.563500
21.400000	1	0.551500
21.416667	1	0.541000
21.433333	1	0.531625
21.450000	1	0.522875
21.466667	1	0.514750
21.483333	1	0.506875
21.500000	1	0.500500
21.516667	1	0.494875
21.533333	1	0.489250
21.550000	1	0.484750
21.566667	1	0.480500
21.583333	1	0.476750
21.600000	1	0.473750
21.616667	1	0.470750
21.633333	1	0.468875
21.650000	1	0.468125
21.666667	1	0.467875
21.683333	1	0.468250
21.700000	1	0.467625
21.716667	1	0.468250
21.733333	1	0.469750
21.750000	1	0.472000
21.766667	1	0.473750
21.783333	1	0.475750
21.800000	1	0.478125
21.816667	1	0.481375
21.833333	1	0.484625
21.850000	1	0.488375
21.866667	1	0.492125
21.883333	1	0.496375
21.900000	1	0.501000
21.916667	1	0.506250
21.933333	1	0.512250
21.950000	1	0.518000
21.966667	1	0.524125
21.983333	1	0.530875
22.000000	1	0.537875
22.016667	1	0.545125
22.033333	1	0.552750
22.050000	1	0.560375
22.066667	1	0.568375
22.083333	1	0.575625
22.100000	1	0.583125
22.116667	1	0.590250
22.133333	1	0.596500
22.150000	1	0.601875
22.166667	1	0.606125
22.183333	1	0.609125
22.200000	1	0.610750
22.216667	1	0.611375
22.233333	1	0.609625
22.250000	1	0.606875
22.266667	1	0.602750
22.283333	1	0.597000
22.300000	1	0.590000
22.316667	1	0.581500
22.333333	1	0.572625
22.350000	1	0.562625
22.366667	1	0.551625
22.383333	1	0.541250
22.400000	1	0.530500
22.416667	1	0.519750
22.433333	1	0.509625
22.450000	1	0.499500
22.466667	1	0.489250
22.483333	1	0.480125
22.500000	1	0.470125
22.516667	1	0.461375
22.533333	1	0.453125
22.550000	1	0.445625
22.566667	1	0.438750
22.583333	1	0.431625
22.600000	1	0.425250
22.616667	1	0.418875
22.633333	1	0.413625
22.650000	1	0.408625
22.666667	1	0.403500
22.683333	1	0.398375
22.700000	1	0.394250
22.716667	1	0.389750
22.733333	1	0.385875
22.750000	1	0.382000
22.766667	1	0.378625
22.783333	1	0.375000
22.800000	1	0.371500
22.816667	1	0.368000
22.833333	1	0.364875
22.850000	1	0.362000
22.866667	1	0.359375
22.883333	1	0.356875
22.900000	1	0.354250
22.916667	1	0.352750
22.933333	1	0.350875
22.950000	1	0.348750
22.966667	1	0.346750
22.983333	1	0.345625
23.000000	1	0.344625
23.016667	1	0.343625
23.033333	1	0.342750
23.050000	1	0.342500
23.066667	1	0.341500
23.083333	1	0.341500
23.100000	1	0.341375
23.116667	1	0.341625
23.133333	1	0.341125
23.150000	1	0.341500
23.166667	1	0.341375
23.183333	1	0.341250
23.200000	1	0.341375
23.216667	1	0.341375
23.233333	1	0.341250
23.250000	1	0.341375
23.266667	1	0.342250
23.283333	1	0.344625
23.300000	1	0.347125
23.316667	1	0.351125
23.333333	1	0.357625
23.350000	1	0.366750
23.366667	1	0.380000
23.383333	1	0.397500
23.400000	1	0.420875
23.416667	1	0.452125
23.433333	1	0.493625
23.450000	1	0.545750
23.466667	1	0.612750
23.483333	1	0.695750
23.500000	1	0.797625
23.516667	1	0.922250
23.533333	1	1.070125
23.550000	1	1.243875
23.566667	1	1.444625
23.583333	1	1.673250
23.600000	1	1.931125
23.616667	1	2.216000
23.633333	1	2.526625
23.650000	1	2.859000
23.666667	1	3.208500
23.683333	1	3.571125
23.700000	1	3.938750
23.716667	1	4.305500
23.733333	1	4.662875
23.750000	1	5.002875
23.766667	1	5.316250
23.783333	1	5.596875
23.800000	1	5.837625
23.816667	1	6.033500
23.833333	1	6.180750
23.850000	1	6.276750
23.866667	1	6.320625
23.883333	1	6.313875
23.900000	1	6.257375
23.916667	1	6.154625
23.933333	1	6.010375
23.950000	1	5.830000
23.966667	1	5.619500
23.983333	1	5.385250
24.000000	1	5.131625
24.016667	1	4.865625
24.033333	1	4.593000
24.050000	1	4.318625
24.066667	1	4.045625
24.083333	1	3.778875
24.100000	1	3.519000
24.116667	1	3.269625
24.133333	1	3.030625
24.150000	1	2.803875
24.166667	1	2.591875
24.183333	1	2.393000
24.200000	1	2.207375
24.216667	1	2.034750
24.233333	1	1.875500
24.250000	1	1.728125
24.266667	1	1.593375
24.283333	1	1.468875
24.300000	1	1.354625
24.316667	1	1.250875
24.333333	1	1.156000
24.350000	1	1.070375
24.366667	1	0.993250
24.383333	1	0.924625
24.400000	1	0.862875
24.416667	1	0.808375
24.433333	1	0.760375
24.450000	1	0.718875
24.466667	1	0.682125
24.483333	1	0.650125
24.500000	1	0.622250
24.516667	1	0.598125
24.533333	1	0.577250
24.550000	1	0.558875
24.566667	1	0.543375
24.583333	1	0.530000
24.600000	1	0.517750
24.616667	1	0.507625
24.633333	1	0.498125
24.650000	1	0.489000
24.666667	1	0.481500
24.683333	1	0.474250
24.700000	1	0.467625
24.716667	1	0.461250
24.733333	1	0.454500
24.750000	1	0.448250
24.766667	1	0.442750
24.783333	1	0.437500
24.800000	1	0.432750
24.816667	1	0.427750
24.833333	1	0.423000
24.850000	1	0.418750
24.866667	1	0.415125
24.883333	1	0.412125
24.900000	1	0.409250
24.916667	1	0.406750
24.933333	1	0.404375
24.950000	1	0.402125
24.966667	1	0.400625
24.983333	1	0.399625
25.000000	1	0.399250
25.016667	1	0.399250
25.033333	1	0.398375
25.050000	1	0.398250
25.066667	1	0.398250
25.083333	1	0.398250
25.100000	1	0.397875
25.116667	1	0.398625
25.133333	1	0.398875
25.150000	1	0.398500
25.166667	1	0.397625
25.183333	1	0.397375
25.200000	1	0.396625
25.216667	1	0.395375
25.233333	1	0.394250
25.250000	1	0.393250
25.266667	1	0.391375
25.283333	1	0.389875
25.300000	1	0.388000
25.316667	1	0.386500
25.333333	1	0.384500
25.350000	1	0.382375
25.366667	1	0.381000
25.383333	1	0.378250
25.400000	1	0.376000
25.416667	1	0.373750
25.433333	1	0.372500
25.450000	1	0.370375
25.466667	1	0.369125
25.483333	1	0.367125
25.500000	1	0.366125
25.516667	1	0.365250
25.533333	1	0.364500
25.550000	1	0.364250
25.566667	1	0.364250
25.583333	1	0.363500
25.600000	1	0.362625
25.616667	1	0.361875
25.633333	1	0.362375
25.650000	1	0.361875
25.666667	1	0.361375
25.683333	1	0.361625
25.700000	1	0.361375
25.716667	1	0.361500
25.733333	1	0.361250
25.750000	1	0.361250
25.766667	1	0.361125
25.783333	1	0.360250
25.800000	1	0.359750
25.816667	1	0.359375
25.833333	1	0.359250
25.850000	1	0.360250
25.866667	1	0.360250
25.883333	1	0.360625
25.900000	1	0.361375
25.916667	1	0.362125
25.933333	1	0.363250
25.950000	1	0.364750
25.966667	1	0.366000
25.983333	1	0.368000
26.000000	1	0.370000
26.016667	1	0.372125
26.033333	1	0.375125
26.050000	1	0.379375
26.066667	1	0.383000
26.083333	1	0.387125
26.100000	1	0.391250
26.116667	1	0.395750
26.133333	1	0.401000
26.150000	1	0.405750
26.166667	1	0.410500
26.183333	1	0.415500
26.200000	1	0.420500
26.216667	1	0.425000
26.233333	1	0.429750
26.250000	1	0.434125
26.266667	1	0.438500
26.283333	1	0.441625
26.300000	1	0.444750
26.316667	1	0.448250
26.333333	1	0.450000
26.350000	1	0.451375
26.366667	1	0.452250
26.383333	1	0.452000
26.400000	1	0.451125
26.416667	1	0.449750
26.433333	1	0.447625
26.450000	1	0.444875
26.466667	1	0.441875
26.483333	1	0.437625
26.500000	1	0.432500
26.516667	1	0.426875
26.533333	1	0.421250
26.550000	1	0.416000
26.566667	1	0.409500
26.583333	1	0.402625
26.600000	1	0.395375
26.616667	1	0.389250
26.633333	1	0.382375
26.650000	1	0.376125
26.666667	1	0.369625
26.683333	1	0.363375
26.700000	1	0.357125
26.716667	1	0.351500
26.733333	1	0.345625
26.750000	1	0.340500
26.766667	1	0.335500
26.783333	1	0.330625
26.800000	1	0.326625
26.816667	1	0.322375
26.833333	1	0.319125
26.850000	1	0.315375
26.866667	1	0.313250
26.883333	1	0.310500
26.900000	1	0.307875
26.916667	1	0.305750
26.933333	1	0.304500
26.950000	1	0.303375
26.966667	1	0.302750
26.983333	1	0.301750
27.000000	1	0.301625
27.016667	1	0.302250
27.033333	1	0.303625
27.050000	1	0.304875
27.066667	1	0.305625
27.083333	1	0.307875
27.100000	1	0.309625
27.116667	1	0.311625
27.133333	1	0.314250
27.150000	1	0.317250
27.166667	1	0.321125
27.183333	1	0.325250
27.200000	1	0.330500
27.216667	1	0.337875
27.233333	1	0.345750
27.250000	1	0.355375
27.266667	1	0.366375
27.283333	1	0.379500
27.300000	1	0.395375
27.316667	1	0.414625
27.333333	1	0.437250
27.350000	1	0.464000
27.366667	1	0.496000
27.383333	1	0.533375
27.400000	1	0.576625
27.416667	1	0.626875
27.433333	1	0.685750
27.450000	1	0.753375
27.466667	1	0.831250
27.483333	1	0.918625
27.500000	1	1.017375
27.516667	1	1.128375
27.533333	1	1.251125
27.550000	1	1.385625
27.566667	1	1.532250
27.583333	1	1.689625
27.600000	1	1.858375
27.616667	1	2.036125
27.633333	1	2.222625
27.650000	1	2.416000
27.666667	1	2.614000
27.683333	1	2.813125
27.700000	1	3.011750
27.716667	1	3.206250
27.733333	1	3.394875
27.750000	1	3.573375
27.766667	1	3.739125
27.783333	1	3.889250
27.800000	1	4.022000
27.816667	1	4.133625
27.833333	1	4.222625
27.850000	1	4.287875
27.866667	1	4.327250
27.883333	1	4.340500
27.900000	1	4.327875
27.916667	1	4.290250
27.933333	1	4.228125
27.950000	1	4.143625
27.966667	1	4.038375
27.983333	1	3.915125
28.000000	1	3.776625
28.016667	1	3.625625
28.033333	1	3.463500
28.050000	1	3.294500
28.066667	1	3.120125
28.083333	1	2.944125
28.100000	1	2.767625
28.116667	1	2.594000
28.133333	1	2.423750
28.150000	1	2.259125
28.166667	1	2.102000
28.183333	1	1.952125
28.200000	1	1.810875
28.216667	1	1.676750
28.233333	1	1.552375
28.250000	1	1.436250
28.266667	1	1.328625
28.283333	1	1.228500
28.300000	1	1.137625
28.316667	1	1.053625
28.333333	1	0.977875
28.350000	1	0.909125
28.366667	1	0.846750
28.383333	1	0.790625
28.400000	1	0.740000
28.416667	1	0.695000
28.433333	1	0.655000
28.450000	1	0.619250
28.466667	1	0.588750
28.483333	1	0.562750
28.500000	1	0.541625
28.516667	1	0.523000
28.533333	1	0.507000
28.550000	1	0.494250
28.566667	1	0.486000
28.583333	1	0.480250
28.600000	1	0.476500
28.616667	1	0.475500
28.633333	1	0.476000
28.650000	1	0.478375
28.666667	1	0.482750
28.683333	1	0.488625
28.700000	1	0.495125
28.716667	1	0.502500
28.733333	1	0.510500
28.750000	1	0.519875
28.766667	1	0.529125
28.783333	1	0.539000
28.800000	1	0.548750
28.816667	1	0.558125
28.833333	1	0.567875
28.850000	1	0.576875
28.866667	1	0.585375
28.883333	1	0.592375
28.900000	1	0.599375
28.916667	1	0.604625
28.933333	1	0.609375
28.950000	1	0.612500
28.966667	1	0.616000
28.983333	1	0.617750
29.000000	1	0.616875
29.016667	1	0.615375
29.033333	1	0.612750
29.050000	1	0.608000
29.066667	1	0.601625
29.083333	1	0.593375
29.100000	1	0.582750
29.116667	1	0.571625
29.133333	1	0.557875
29.150000	1	0.541125
29.166667	1	0.523375
29.183333	1	0.502875
29.200000	1	0.479625
29.216667	1	0.454125
29.233333	1	0.426375
29.250000	1	0.396250
29.266667	1	0.362625
29.283333	1	0.326125
29.300000	1	0.287125
29.316667	1	0.245375
29.333333	1	0.201000
29.350000	1	0.153000
29.366667	1	0.102750
29.383333	1	0.050875
29.400000	1	-0.004000
29.416667	1	-0.061250
29.433333	1	-0.120375
29.450000	1	-0.180750
29.466667	1	-0.242250
29.483333	1	-0.305125
29.500000	1	-0.368000
29.516667	1	-0.430125
29.533333	1	-0.492500
29.550000	1	-0.553375
29.566667	1	-0.611750
29.583333	1	-0.668250
29.600000	1	-0.722125
29.616667	1	-0.772500
29.633333	1	-0.818750
29.650000	1	-0.861375
29.666667	1	-0.899375
29.683333	1	-0.932875
29.700000	1	-0.960500
29.716667	1	-0.982125
29.733333	1	-0.998500
29.750000	1	-1.010375
29.766667	1	-1.016000
29.783333	1	-1.015625
29.800000	1	-1.010125
29.816667	1	-1.000375
29.833333	1	-0.984875
29.850000	1	-0.964500
29.866667	1	-0.940875
29.883333	1	-0.913375
29.900000	1	-0.883125
29.916667	1	-0.849125
29.933333	1	-0.813250
29.950000	1	-0.775000
29.966667	1	-0.734500
29.983333	1	-0.693625
30.000000	1	-0.651875
30.016667	1	-0.609125
30.033333	1	-0.566750
30.050000	1	-0.524750
30.066667	1	-0.483000
30.083333	1	-0.441875
30.100000	1	-0.402375
30.116667	1	-0.363875
30.133333	1	-0.326500
30.150000	1	-0.291250
30.166667	1	-0.256125
30.183333	1	-0.223500
30.200000	1	-0.192250
30.216667	1	-0.162875
30.233333	1	-0.135125
30.250000	1	-0.108250
30.266667	1	-0.083750
30.283333	1	-0.061000
30.300000	1	-0.039500
30.316667	1	-0.019875
30.333333	1	-0.001750
30.350000	1	0.014875
30.366667	1	0.030750
30.383333	1	0.045000
30.400000	1	0.058750
30.416667	1	0.070875
30.433333	1	0.082375
30.450000	1	0.093375
30.466667	1	0.103000
30.483333	1	0.113125
30.500000	1	0.122000
30.516667	1	0.130500
30.533333	1	0.138375
30.550000	1	0.145375
30.566667	1	0.152875
30.583333	1	0.161125
30.600000	1	0.168625
30.616667	1	0.175875
30.633333	1	0.183875
30.650000	1	0.192000
30.666667	1	0.199625
30.683333	1	0.207875
30.700000	1	0.215500
30.716667	1	0.223250
30.733333	1	0.231250
30.750000	1	0.240125
30.766667	1	0.249000
30.783333	1	0.257750
30.800000	1	0.267375
30.816667	1	0.277625
30.833333	1	0.288375
30.850000	1	0.299125
30.866667	1	0.311375
30.883333	1	0.323625
30.900000	1	0.336125
30.916667	1	0.350125
30.933333	1	0.365000
30.950000	1	0.382250
30.966667	1	0.401500
30.983333	1	0.423000
31.000000	1	0.448000
31.016667	1	0.475250
31.033333	1	0.507875
31.050000	1	0.544125
31.066667	1	0.586125
31.083333	1	0.634500
31.100000	1	0.690875
31.116667	1	0.755375
31.133333	1	0.829500
31.150000	1	0.914250
31.166667	1	1.010625
31.183333	1	1.119625
31.200000	1	1.242250
31.216667	1	1.379250
31.233333	1	1.531375
31.250000	1	1.698875
31.266667	1	1.881875
31.283333	1	2.080250
31.300000	1	2.292875
31.316667	1	2.520125
31.333333	1	2.759000
31.350000	1	3.009750
31.366667	1	3.270375
31.383333	1	3.538875
31.400000	1	3.812000
31.416667	1	4.087625
31.433333	1	4.362000
31.450000	1	4.631750
31.466667	1	4.893875
31.483333	1	5.144875
31.500000	1	5.380625
31.516667	1	5.598625
31.533333	1	5.796375
31.550000	1	5.970875
31.566667	1	6.120250
31.583333	1	6.243125
31.600000	1	6.337500
31.616667	1	6.401750
31.633333	1	6.437125
31.650000	1	6.441625
31.666667	1	6.418750
31.683333	1	6.367875
31.700000	1	6.289875
31.716667	1	6.186250
31.733333	1	6.061000
31.750000	1	5.915125
31.766667	1	5.751375
31.783333	1	5.571500
31.800000	1	5.378250
31.816667	1	5.174875
31.833333	1	4.962875
31.850000	1	4.745125
31.866667	1	4.523750
31.883333	1	4.300875
31.900000	1	4.079250
31.916667	1	3.859500
31.933333	1	3.644000
31.950000	1	3.433500
31.966667	1	3.228750
31.983333	1	3.030250
32.000000	1	2.839125
32.016667	1	2.654625
32.033333	1	2.478375
32.050000	1	2.310500
32.066667	1	2.151875
32.083333	1	2.002000
32.100000	1	1.860625
32.116667	1	1.726750
32.133333	1	1.601375
32.150000	1	1.483875
32.166667	1	1.373125
32.183333	1	1.269500
32.200000	1	1.172750
32.216667	1	1.082375
32.233333	1	0.998375
32.250000	1	0.919750
32.266667	1	0.846875
32.283333	1	0.779000
32.300000	1	0.717000
32.316667	1	0.659375
32.333333	1	0.606250
32.350000	1	0.556625
32.366667	1	0.511250
32.383333	1	0.470125
32.400000	1	0.432250
32.416667	1	0.396875
32.433333	1	0.364875
32.450000	1	0.335375
32.466667	1	0.309000
32.483333	1	0.284750
32.500000	1	0.261375
32.516667	1	0.241250
32.533333	1	0.223000
32.550000	1	0.206125
32.566667	1	0.190750
32.583333	1	0.177125
32.600000	1	0.164750
32.616667	1	0.153375
32.633333	1	0.143125
32.650000	1	0.134000
32.666667	1	0.125625
32.683333	1	0.118125
32.700000	1	0.111250
32.716667	1	0.105750
32.733333	1	0.100250
32.750000	1	0.095625
32.766667	1	0.091500
32.783333	1	0.087750
32.800000	1	0.085000
32.816667	1	0.082125
32.833333	1	0.079875
32.850000	1	0.077625
32.866667	1	0.075500
32.883333	1	0.074250
32.900000	1	0.072500
32.916667	1	0.071750
32.933333	1	0.071250
32.950000	1	0.070500
32.966667	1	0.070375
32.983333	1	0.069125
33.000000	1	0.068875
33.016667	1	0.068250
33.033333	1	0.067750
33.050000	1	0.067750
33.066667	1	0.067375
33.083333	1	0.067375
33.100000	1	0.067250
33.116667	1	0.066500
33.133333	1	0.066125
33.150000	1	0.066250
33.166667	1	0.066625
33.183333	1	0.066125
33.200000	1	0.065625
33.216667	1	0.065375
33.233333	1	0.065875
33.250000	1	0.065750
33.266667	1	0.066000
33.283333	1	0.065250
33.300000	1	0.064875
33.316667	1	0.065375
33.333333	1	0.065000
33.350000	1	0.065750
33.366667	1	0.065875
33.383333	1	0.067125
33.400000	1	0.067125
33.416667	1	0.067625
33.433333	1	0.068000
33.450000	1	0.068750
33.466667	1	0.069500
33.483333	1	0.071000
33.500000	1	0.071500
33.516667	1	0.072250
33.533333	1	0.073625
33.550000	1	0.075375
33.566667	1	0.077375
33.583333	1	0.079500
33.600000	1	0.082000
33.616667	1	0.083875
33.633333	1	0.086500
33.650000	1	0.088625
33.666667	1	0.091250
33.683333	1	0.093625
33.700000	1	0.096375
33.716667	1	0.099375
33.733333	1	0.102500
33.750000	1	0.106125
33.766667	1	0.110125
33.783333	1	0.113000
33.800000	1	0.117625
33.816667	1	0.120750
33.833333	1	0.123625
33.850000	1	0.127000
33.866667	1	0.130250
33.883333	1	0.133625
33.900000	1	0.138000
33.916667	1	0.140875
33.933333	1	0.144000
33.950000	1	0.146750
33.966667	1	0.148625
33.983333	1	0.151375
34.000000	1	0.153000
34.016667	1	0.155000
34.033333	1	0.155750
34.050000	1	0.156625
34.066667	1	0.157125
34.083333	1	0.157500
34.100000	1	0.157625
34.116667	1	0.157625
34.133333	1	0.156875
34.150000	1	0.156250
34.166667	1	0.155875
34.183333	1	0.154625
34.200000	1	0.153250
34.216667	1	0.152250
34.233333	1	0.150125
34.250000	1	0.148500
34.266667	1	0.146750
34.283333	1	0.144625
34.300000	1	0.143500
34.316667	1	0.141875
34.333333	1	0.140375
34.350000	1	0.138500
34.366667	1	0.137250
34.383333	1	0.136125
34.400000	1	0.135250
34.416667	1	0.133875
34.433333	1	0.133500
34.450000	1	0.133125
34.466667	1	0.133375
34.483333	1	0.133750
34.500000	1	0.134250
34.516667	1	0.134750
34.533333	1	0.135250
34.550000	1	0.136000
34.566667	1	0.137500
34.583333	1	0.139375
34.600000	1	0.141375
34.616667	1	0.142750
34.633333	1	0.144250
34.650000	1	0.145750
34.666667	1	0.148000
34.683333	1	0.150250
34.700000	1	0.151875
34.716667	1	0.153875
34.733333	1	0.155500
34.750000	1	0.158375
34.766667	1	0.160125
34.783333	1	0.161875
34.800000	1	0.163125
34.816667	1	0.164375
34.833333	1	0.165375
34.850000	1	0.166375
34.866667	1	0.166875
34.883333	1	0.167500
34.900000	1	0.167875
34.916667	1	0.167375
34.933333	1	0.167625
34.950000	1	0.167125
34.966667	1	0.166750
34.983333	1	0.166750
35.000000	1	0.165500
35.016667	1	0.164625
35.033333	1	0.163500
35.050000	1	0.161500
35.066667	1	0.160000
35.083333	1	0.157750
35.100000	1	0.156500
35.116667	1	0.154625
35.133333	1	0.152875
35.150000	1	0.151000
35.166667	1	0.149875
35.183333	1	0.148250
35.200000	1	0.146375
35.216667	1	0.144625
35.233333	1	0.142625
35.250000	1	0.141375
35.266667	1	0.140000
35.283333	1	0.138250
35.300000	1	0.136625
35.316667	1	0.135500
35.333333	1	0.133875
35.350000	1	0.133375
35.366667	1	0.132875
35.383333	1	0.133375
35.400000	1	0.133500
35.416667	1	0.133500
35.433333	1	0.133250
35.450000	1	0.132875
35.466667	1	0.133125
35.483333	1	0.133875
35.500000	1	0.135000
35.516667	1	0.135750
35.533333	1	0.136625
35.550000	1	0.137875
35.566667	1	0.139125
35.583333	1	0.140750
35.600000	1	0.142250
35.616667	1	0.144250
35.633333	1	0.145875
35.650000	1	0.147500
35.666667	1	0.149125
35.683333	1	0.150875
35.700000	1	0.152750
35.716667	1	0.154625
35.733333	1	0.156250
35.750000	1	0.158125
35.766667	1	0.160250
35.783333	1	0.162625
35.800000	1	0.164000
35.816667	1	0.165750
35.833333	1	0.167000
35.850000	1	0.168750
35.866667	1	0.170500
35.883333	1	0.171625
35.900000	1	0.173500
35.916667	1	0.174500
35.933333	1	0.175500
35.950000	1	0.176125
35.966667	1	0.177375
35.983333	1	0.177375
36.000000	1	0.178000
36.016667	1	0.178625
36.033333	1	0.179250
36.050000	1	0.178125
36.066667	1	0.178500
36.083333	1	0.178000
36.100000	1	0.178125
36.116667	1	0.178000
36.133333	1	0.177500
36.150000	1	0.177625
36.166667	1	0.176875
36.183333	1	0.176625
36.200000	1	0.175625
36.216667	1	0.175125
36.233333	1	0.173500
36.250000	1	0.172875
36.266667	1	0.171750
36.283333	1	0.171250
36.300000	1	0.170625
36.316667	1	0.170125
36.333333	1	0.169500
36.350000	1	0.168875
36.366667	1	0.167375
36.383333	1	0.166500
36.400000	1	0.166000
36.416667	1	0.165750
36.433333	1	0.165625
36.450000	1	0.165000
36.466667	1	0.164375
36.483333	1	0.164250
36.500000	1	0.164375
36.516667	1	0.165250
36.533333	1	0.165500
36.550000	1	0.165500
36.566667	1	0.165875
36.583333	1	0.165875
36.600000	1	0.166750
36.616667	1	0.167375
36.633333	1	0.168250
36.650000	1	0.168500
36.666667	1	0.169250
36.683333	1	0.170125
36.700000	1	0.170750
36.716667	1	0.171625
36.733333	1	0.172125
36.750000	1	0.172625
36.766667	1	0.172750
36.783333	1	0.172750
36.800000	1	0.173250
36.816667	1	0.173250
36.833333	1	0.172875
36.850000	1	0.172625
36.866667	1	0.173000
36.883333	1	0.172875
36.900000	1	0.171875
36.916667	1	0.171625
36.933333	1	0.170875
36.950000	1	0.170125
36.966667	1	0.169500
36.983333	1	0.168625
37.000000	1	0.167125
37.016667	1	0.166125
37.033333	1	0.165625
37.050000	1	0.164375
37.066667	1	0.163750
37.083333	1	0.163500
37.100000	1	0.163375
37.116667	1	0.163250
37.133333	1	0.162875
37.150000	1	0.161750
37.166667	1	0.161750
37.183333	1	0.160750
37.200000	1	0.160500
37.216667	1	0.160250
37.233333	1	0.160375
37.250000	1	0.159875
37.266667	1	0.160250
37.283333	1	0.161000
37.300000	1	0.161375
37.316667	1	0.161500
37.333333	1	0.162750
37.350000	1	0.163375
37.366667	1	0.163750
37.383333	1	0.164625
37.400000	1	0.164875
37.416667	1	0.165875
37.433333	1	0.166625
37.450000	1	0.167375
37.466667	1	0.167625
37.483333	1	0.168375
37.500000	1	0.169250
37.516667	1	0.170000
37.533333	1	0.170375
37.550000	1	0.170625
37.566667	1	0.170875
37.583333	1	0.170625
37.600000	1	0.170125
37.616667	1	0.170000
37.633333	1	0.170000
37.650000	1	0.170000
37.666667	1	0.169500
37.683333	1	0.168875
37.700000	1	0.168375
37.716667	1	0.168375
37.733333	1	0.167250
37.750000	1	0.166125
37.766667	1	0.164625
37.783333	1	0.163625
37.800000	1	0.162625
37.816667	1	0.161250
37.833333	1	0.159625
37.850000	1	0.157125
37.866667	1	0.155500
37.883333	1	0.154000
37.900000	1	0.152000
37.916667	1	0.150750
37.933333	1	0.148875
37.950000	1	0.146875
37.966667	1	0.145000
37.983333	1	0.142875
38.000000	1	0.141000
38.016667	1	0.138625
38.033333	1	0.136875
38.050000	1	0.134500
38.066667	1	0.133375
38.083333	1	0.131625
38.100000	1	0.130750
38.116667	1	0.129625
38.133333	1	0.128500
38.150000	1	0.127625
38.166667	1	0.126875
38.183333	1	0.126250
38.200000	1	0.125625
38.216667	1	0.125875
38.233333	1	0.125750
38.250000	1	0.126500
38.266667	1	0.127375
38.283333	1	0.128375
38.300000	1	0.129375
38.316667	1	0.130500
38.333333	1	0.132250
38.350000	1	0.134000
38.366667	1	0.135250
38.383333	1	0.137375
38.400000	1	0.139875
38.416667	1	0.142750
38.433333	1	0.144875
38.450000	1	0.147500
38.466667	1	0.150625
38.483333	1	0.153625
38.500000	1	0.156875
38.516667	1	0.160000
38.533333	1	0.163125
38.550000	1	0.166250
38.566667	1	0.169250
38.583333	1	0.172625
38.600000	1	0.175750
38.616667	1	0.178625
38.633333	1	0.181750
38.650000	1	0.184500
38.666667	1	0.187250
38.683333	1	0.189625
38.700000	1	0.192375
38.716667	1	0.194750
38.733333	1	0.197250
38.750000	1	0.199125
38.766667	1	0.200750
38.783333	1	0.202000
38.800000	1	0.203125
38.816667	1	0.204500
38.833333	1	0.205500
38.850000	1	0.206250
38.866667	1	0.206375
38.883333	1	0.206750
38.900000	1	0.207125
38.916667	1	0.207000
38.933333	1	0.207250
38.950000	1	0.207375
38.966667	1	0.206500
38.983333	1	0.206375
39.000000	1	0.205250
39.016667	1	0.205250
39.033333	1	0.204250
39.050000	1	0.203250
39.066667	1	0.202000
39.083333	1	0.201000
39.100000	1	0.199375
39.116667	1	0.197875
39.133333	1	0.196125
39.150000	1	0.194750
39.166667	1	0.193750
39.183333	1	0.192125
39.200000	1	0.191000
39.216667	1	0.190375
39.233333	1	0.188375
39.250000	1	0.187250
39.266667	1	0.185375
39.283333	1	0.184250
39.300000	1	0.182875
39.316667	1	0.181875
39.333333	1	0.181250
39.350000	1	0.179500
39.366667	1	0.178500
39.383333	1	0.177125
39.400000	1	0.175250
39.416667	1	0.174500
39.433333	1	0.173625
39.450000	1	0.171875
39.466667	1	0.171125
39.483333	1	0.169375
39.500000	1	0.167750
39.516667	1	0.166375
39.533333	1	0.165250
39.550000	1	0.163375
39.566667	1	0.161375
39.583333	1	0.159250
39.600000	1	0.157250
39.616667	1	0.155250
39.633333	1	0.153875
39.650000	1	0.151875
39.666667	1	0.149750
39.683333	1	0.148750
39.700000	1	0.147000
39.716667	1	0.145000
39.733333	1	0.142500
39.750000	1	0.141000
39.766667	1	0.139000
39.783333	1	0.136250
39.800000	1	0.134125
39.816667	1	0.131875
39.833333	1	0.129625
39.850000	1	0.127250
39.866667	1	0.124625
39.883333	1	0.122125
39.900000	1	0.120125
39.916667	1	0.117625
39.933333	1	0.114625
39.950000	1	0.111750
39.966667	1	0.109375
39.983333	1	0.107000
40.000000	1	0.104875
