URL	chrom://7040-86g6c92/XVault/Ultimate_3000/20/20240517_CMO_FP23_FP25_MarkusDeplate.seq/858.smp/RI_1.channel/RI_1.chm
Channel	RI_1

Injection Information:
Data Vault	XVault
Sequence	20240517_CMO_FP23_FP25_MarkusDeplate
Name	FP25_24.2_s3
Number	60
Position	BE12
Comment	
Processing Method	
Instrument Method	run_25B_method
Type	Unknown
Status	Finished
Inject Time	29.05.2024 10:19:44 +02:00
Volume (µl)	20.0000
Dilution Factor	1.0000
Weight	1.0000

Chromatogram Data Information:
Time Min. (min)	0.000000
Time Max. (min)	40.000000
Data Points	2401
Detector	RI
Generating Data System	Chromeleon 7.3.2.11814
Exporting Data System	Chromeleon 7.3.2.0
Operator	Instrument Controller
Signal Quantity	Refractive 
Signal Unit	µRIU
Signal Min.	-0.751875
Signal Max.	59.711875
Channel	RI_1
Driver Name	RID520Driver.dll
Channel Type	Evaluation
Min. Step (s)	1
Max. Step (s)	1
Average Step (s)	1

Signal Parameter Information:
Signal Info	

Chromatogram Data:
Time (min)	Step (s)	Value (µRIU)
0.000000	n.a.	-0.001000
0.016667	1	-0.001750
0.033333	1	-0.001875
0.050000	1	-0.002250
0.066667	1	-0.002125
0.083333	1	-0.002125
0.100000	1	-0.002375
0.116667	1	-0.003875
0.133333	1	-0.005500
0.150000	1	-0.006000
0.166667	1	-0.006625
0.183333	1	-0.006750
0.200000	1	-0.007125
0.216667	1	-0.007250
0.233333	1	-0.007625
0.250000	1	-0.007500
0.266667	1	-0.007875
0.283333	1	-0.007125
0.300000	1	-0.007000
0.316667	1	-0.006625
0.333333	1	-0.006000
0.350000	1	-0.005500
0.366667	1	-0.004750
0.383333	1	-0.004500
0.400000	1	-0.003875
0.416667	1	-0.002375
0.433333	1	0.000500
0.450000	1	0.003875
0.466667	1	0.007375
0.483333	1	0.010750
0.500000	1	0.013875
0.516667	1	0.016750
0.533333	1	0.019250
0.550000	1	0.020750
0.566667	1	0.020625
0.583333	1	0.020000
0.600000	1	0.019375
0.616667	1	0.018250
0.633333	1	0.018250
0.650000	1	0.019125
0.666667	1	0.020250
0.683333	1	0.021000
0.700000	1	0.022000
0.716667	1	0.023250
0.733333	1	0.024250
0.750000	1	0.024750
0.766667	1	0.025125
0.783333	1	0.025875
0.800000	1	0.025875
0.816667	1	0.025875
0.833333	1	0.026125
0.850000	1	0.025875
0.866667	1	0.025500
0.883333	1	0.025750
0.900000	1	0.025250
0.916667	1	0.024625
0.933333	1	0.024125
0.950000	1	0.023500
0.966667	1	0.022500
0.983333	1	0.021500
1.000000	1	0.021250
1.016667	1	0.020375
1.033333	1	0.020250
1.050000	1	0.019500
1.066667	1	0.019875
1.083333	1	0.019500
1.100000	1	0.018750
1.116667	1	0.018375
1.133333	1	0.017875
1.150000	1	0.017750
1.166667	1	0.017625
1.183333	1	0.018000
1.200000	1	0.018000
1.216667	1	0.017750
1.233333	1	0.018125
1.250000	1	0.018000
1.266667	1	0.018625
1.283333	1	0.019250
1.300000	1	0.019750
1.316667	1	0.019750
1.333333	1	0.019375
1.350000	1	0.019875
1.366667	1	0.020125
1.383333	1	0.020750
1.400000	1	0.021000
1.416667	1	0.021125
1.433333	1	0.020625
1.450000	1	0.020125
1.466667	1	0.019375
1.483333	1	0.018250
1.500000	1	0.017000
1.516667	1	0.016125
1.533333	1	0.014625
1.550000	1	0.013750
1.566667	1	0.011750
1.583333	1	0.009625
1.600000	1	0.007375
1.616667	1	0.004625
1.633333	1	0.002375
1.650000	1	0.000000
1.666667	1	-0.002750
1.683333	1	-0.005375
1.700000	1	-0.008125
1.716667	1	-0.010625
1.733333	1	-0.013750
1.750000	1	-0.015875
1.766667	1	-0.018750
1.783333	1	-0.021625
1.800000	1	-0.024375
1.816667	1	-0.026375
1.833333	1	-0.027875
1.850000	1	-0.030250
1.866667	1	-0.032625
1.883333	1	-0.034625
1.900000	1	-0.036750
1.916667	1	-0.038625
1.933333	1	-0.040250
1.950000	1	-0.041625
1.966667	1	-0.042375
1.983333	1	-0.043375
2.000000	1	-0.044000
2.016667	1	-0.044250
2.033333	1	-0.044750
2.050000	1	-0.044875
2.066667	1	-0.044750
2.083333	1	-0.044250
2.100000	1	-0.043625
2.116667	1	-0.043375
2.133333	1	-0.042750
2.150000	1	-0.043250
2.166667	1	-0.042750
2.183333	1	-0.042125
2.200000	1	-0.041500
2.216667	1	-0.040500
2.233333	1	-0.040125
2.250000	1	-0.039750
2.266667	1	-0.039500
2.283333	1	-0.039000
2.300000	1	-0.039125
2.316667	1	-0.038875
2.333333	1	-0.039625
2.350000	1	-0.040250
2.366667	1	-0.040625
2.383333	1	-0.041625
2.400000	1	-0.041125
2.416667	1	-0.041625
2.433333	1	-0.042500
2.450000	1	-0.042625
2.466667	1	-0.042875
2.483333	1	-0.043250
2.500000	1	-0.043750
2.516667	1	-0.043875
2.533333	1	-0.043625
2.550000	1	-0.043875
2.566667	1	-0.044000
2.583333	1	-0.043750
2.600000	1	-0.042750
2.616667	1	-0.041625
2.633333	1	-0.040875
2.650000	1	-0.039875
2.666667	1	-0.038500
2.683333	1	-0.037625
2.700000	1	-0.036375
2.716667	1	-0.034625
2.733333	1	-0.033125
2.750000	1	-0.032250
2.766667	1	-0.030500
2.783333	1	-0.029375
2.800000	1	-0.027875
2.816667	1	-0.026250
2.833333	1	-0.025125
2.850000	1	-0.024250
2.866667	1	-0.023625
2.883333	1	-0.023125
2.900000	1	-0.022750
2.916667	1	-0.021875
2.933333	1	-0.022125
2.950000	1	-0.021875
2.966667	1	-0.021625
2.983333	1	-0.021250
3.000000	1	-0.022375
3.016667	1	-0.023000
3.033333	1	-0.023625
3.050000	1	-0.023250
3.066667	1	-0.023125
3.083333	1	-0.024125
3.100000	1	-0.024750
3.116667	1	-0.025250
3.133333	1	-0.025875
3.150000	1	-0.026125
3.166667	1	-0.025500
3.183333	1	-0.025000
3.200000	1	-0.025625
3.216667	1	-0.025750
3.233333	1	-0.025125
3.250000	1	-0.024625
3.266667	1	-0.023750
3.283333	1	-0.022875
3.300000	1	-0.021250
3.316667	1	-0.020000
3.333333	1	-0.018375
3.350000	1	-0.016875
3.366667	1	-0.015125
3.383333	1	-0.013500
3.400000	1	-0.011750
3.416667	1	-0.009375
3.433333	1	-0.006500
3.450000	1	-0.004500
3.466667	1	-0.002625
3.483333	1	0.000000
3.500000	1	0.002000
3.516667	1	0.003375
3.533333	1	0.005250
3.550000	1	0.006500
3.566667	1	0.008000
3.583333	1	0.009625
3.600000	1	0.010750
3.616667	1	0.011625
3.633333	1	0.011125
3.650000	1	0.011250
3.666667	1	0.011250
3.683333	1	0.010875
3.700000	1	0.010250
3.716667	1	0.009250
3.733333	1	0.008500
3.750000	1	0.007125
3.766667	1	0.006000
3.783333	1	0.005000
3.800000	1	0.003750
3.816667	1	0.002375
3.833333	1	0.000875
3.850000	1	-0.001000
3.866667	1	-0.003875
3.883333	1	-0.006250
3.900000	1	-0.007500
3.916667	1	-0.009000
3.933333	1	-0.010875
3.950000	1	-0.013000
3.966667	1	-0.014875
3.983333	1	-0.016000
4.000000	1	-0.017125
4.016667	1	-0.018750
4.033333	1	-0.020000
4.050000	1	-0.020875
4.066667	1	-0.021375
4.083333	1	-0.022250
4.100000	1	-0.022625
4.116667	1	-0.022875
4.133333	1	-0.022500
4.150000	1	-0.022125
4.166667	1	-0.021250
4.183333	1	-0.020875
4.200000	1	-0.020125
4.216667	1	-0.018625
4.233333	1	-0.017500
4.250000	1	-0.016625
4.266667	1	-0.015375
4.283333	1	-0.013625
4.300000	1	-0.012250
4.316667	1	-0.009750
4.333333	1	-0.007750
4.350000	1	-0.005875
4.366667	1	-0.003500
4.383333	1	-0.001125
4.400000	1	0.000750
4.416667	1	0.003250
4.433333	1	0.005375
4.450000	1	0.008250
4.466667	1	0.010875
4.483333	1	0.013625
4.500000	1	0.016125
4.516667	1	0.018125
4.533333	1	0.019875
4.550000	1	0.022375
4.566667	1	0.024875
4.583333	1	0.026500
4.600000	1	0.029000
4.616667	1	0.030375
4.633333	1	0.032875
4.650000	1	0.034625
4.666667	1	0.036500
4.683333	1	0.038250
4.700000	1	0.040125
4.716667	1	0.041500
4.733333	1	0.043750
4.750000	1	0.045125
4.766667	1	0.046875
4.783333	1	0.047875
4.800000	1	0.049750
4.816667	1	0.050875
4.833333	1	0.052500
4.850000	1	0.054125
4.866667	1	0.056125
4.883333	1	0.058250
4.900000	1	0.060375
4.916667	1	0.062125
4.933333	1	0.063250
4.950000	1	0.065125
4.966667	1	0.066625
4.983333	1	0.069000
5.000000	1	0.070500
5.016667	1	0.072500
5.033333	1	0.074375
5.050000	1	0.077125
5.066667	1	0.078875
5.083333	1	0.081125
5.100000	1	0.083250
5.116667	1	0.085875
5.133333	1	0.088375
5.150000	1	0.090875
5.166667	1	0.093625
5.183333	1	0.096125
5.200000	1	0.099500
5.216667	1	0.102625
5.233333	1	0.105125
5.250000	1	0.108250
5.266667	1	0.112625
5.283333	1	0.115875
5.300000	1	0.119375
5.316667	1	0.123000
5.333333	1	0.126750
5.350000	1	0.130750
5.366667	1	0.135375
5.383333	1	0.139250
5.400000	1	0.143875
5.416667	1	0.148500
5.433333	1	0.153625
5.450000	1	0.158250
5.466667	1	0.163125
5.483333	1	0.168125
5.500000	1	0.173500
5.516667	1	0.178750
5.533333	1	0.183875
5.550000	1	0.188250
5.566667	1	0.193500
5.583333	1	0.198625
5.600000	1	0.203125
5.616667	1	0.208500
5.633333	1	0.213375
5.650000	1	0.218000
5.666667	1	0.223000
5.683333	1	0.227750
5.700000	1	0.232250
5.716667	1	0.236375
5.733333	1	0.240000
5.750000	1	0.244000
5.766667	1	0.247750
5.783333	1	0.251000
5.800000	1	0.254250
5.816667	1	0.257500
5.833333	1	0.259375
5.850000	1	0.262000
5.866667	1	0.264125
5.883333	1	0.266250
5.900000	1	0.267125
5.916667	1	0.268000
5.933333	1	0.268875
5.950000	1	0.269750
5.966667	1	0.270250
5.983333	1	0.270375
6.000000	1	0.270000
6.016667	1	0.269125
6.033333	1	0.268375
6.050000	1	0.266500
6.066667	1	0.264375
6.083333	1	0.263000
6.100000	1	0.261000
6.116667	1	0.258625
6.133333	1	0.256250
6.150000	1	0.253625
6.166667	1	0.250125
6.183333	1	0.246500
6.200000	1	0.243750
6.216667	1	0.240125
6.233333	1	0.236500
6.250000	1	0.232750
6.266667	1	0.229375
6.283333	1	0.225250
6.300000	1	0.221000
6.316667	1	0.216125
6.333333	1	0.212500
6.350000	1	0.208500
6.366667	1	0.204500
6.383333	1	0.200500
6.400000	1	0.197125
6.416667	1	0.192875
6.433333	1	0.188875
6.450000	1	0.184875
6.466667	1	0.181250
6.483333	1	0.178250
6.500000	1	0.174500
6.516667	1	0.171125
6.533333	1	0.167125
6.550000	1	0.163125
6.566667	1	0.159625
6.583333	1	0.156375
6.600000	1	0.152250
6.616667	1	0.148375
6.633333	1	0.144750
6.650000	1	0.140750
6.666667	1	0.136375
6.683333	1	0.132250
6.700000	1	0.128000
6.716667	1	0.124375
6.733333	1	0.120125
6.750000	1	0.115875
6.766667	1	0.112000
6.783333	1	0.107500
6.800000	1	0.103000
6.816667	1	0.098125
6.833333	1	0.094250
6.850000	1	0.090000
6.866667	1	0.085375
6.883333	1	0.081000
6.900000	1	0.076625
6.916667	1	0.072875
6.933333	1	0.068875
6.950000	1	0.064500
6.966667	1	0.061250
6.983333	1	0.058250
7.000000	1	0.054500
7.016667	1	0.051625
7.033333	1	0.049250
7.050000	1	0.047125
7.066667	1	0.044750
7.083333	1	0.042375
7.100000	1	0.041250
7.116667	1	0.040625
7.133333	1	0.039750
7.150000	1	0.039875
7.166667	1	0.040125
7.183333	1	0.041125
7.200000	1	0.042250
7.216667	1	0.043875
7.233333	1	0.045500
7.250000	1	0.048125
7.266667	1	0.050375
7.283333	1	0.053000
7.300000	1	0.056250
7.316667	1	0.059250
7.333333	1	0.063000
7.350000	1	0.067000
7.366667	1	0.070875
7.383333	1	0.074875
7.400000	1	0.079125
7.416667	1	0.082750
7.433333	1	0.086875
7.450000	1	0.091500
7.466667	1	0.095125
7.483333	1	0.099250
7.500000	1	0.102500
7.516667	1	0.105375
7.533333	1	0.108875
7.550000	1	0.112125
7.566667	1	0.115125
7.583333	1	0.117000
7.600000	1	0.119000
7.616667	1	0.120500
7.633333	1	0.121625
7.650000	1	0.122625
7.666667	1	0.124125
7.683333	1	0.124875
7.700000	1	0.124750
7.716667	1	0.124500
7.733333	1	0.124375
7.750000	1	0.122750
7.766667	1	0.121500
7.783333	1	0.119750
7.800000	1	0.117625
7.816667	1	0.114875
7.833333	1	0.112250
7.850000	1	0.109000
7.866667	1	0.105500
7.883333	1	0.102000
7.900000	1	0.097375
7.916667	1	0.093750
7.933333	1	0.089875
7.950000	1	0.085625
7.966667	1	0.081000
7.983333	1	0.076000
8.000000	1	0.071125
8.016667	1	0.066000
8.033333	1	0.061625
8.050000	1	0.056375
8.066667	1	0.051750
8.083333	1	0.047500
8.100000	1	0.042750
8.116667	1	0.038875
8.133333	1	0.035000
8.150000	1	0.031000
8.166667	1	0.027625
8.183333	1	0.024250
8.200000	1	0.021250
8.216667	1	0.018750
8.233333	1	0.017000
8.250000	1	0.015125
8.266667	1	0.012750
8.283333	1	0.010750
8.300000	1	0.009125
8.316667	1	0.007750
8.333333	1	0.006875
8.350000	1	0.006375
8.366667	1	0.006375
8.383333	1	0.005375
8.400000	1	0.004875
8.416667	1	0.004375
8.433333	1	0.004375
8.450000	1	0.004500
8.466667	1	0.004250
8.483333	1	0.004125
8.500000	1	0.004250
8.516667	1	0.004375
8.533333	1	0.004125
8.550000	1	0.003625
8.566667	1	0.004125
8.583333	1	0.003375
8.600000	1	0.002875
8.616667	1	0.002125
8.633333	1	0.001000
8.650000	1	-0.000125
8.666667	1	-0.001375
8.683333	1	-0.002125
8.700000	1	-0.003875
8.716667	1	-0.005125
8.733333	1	-0.006625
8.750000	1	-0.007500
8.766667	1	-0.009000
8.783333	1	-0.011000
8.800000	1	-0.013375
8.816667	1	-0.015375
8.833333	1	-0.016625
8.850000	1	-0.018125
8.866667	1	-0.019250
8.883333	1	-0.020750
8.900000	1	-0.021500
8.916667	1	-0.021875
8.933333	1	-0.022500
8.950000	1	-0.023375
8.966667	1	-0.023750
8.983333	1	-0.023125
9.000000	1	-0.022750
9.016667	1	-0.021875
9.033333	1	-0.020375
9.050000	1	-0.018875
9.066667	1	-0.017000
9.083333	1	-0.014875
9.100000	1	-0.012625
9.116667	1	-0.010125
9.133333	1	-0.006875
9.150000	1	-0.003500
9.166667	1	-0.000125
9.183333	1	0.003500
9.200000	1	0.007500
9.216667	1	0.011875
9.233333	1	0.015500
9.250000	1	0.020000
9.266667	1	0.024750
9.283333	1	0.030000
9.300000	1	0.034875
9.316667	1	0.039500
9.333333	1	0.043750
9.350000	1	0.048250
9.366667	1	0.052625
9.383333	1	0.057125
9.400000	1	0.061500
9.416667	1	0.064750
9.433333	1	0.068000
9.450000	1	0.071500
9.466667	1	0.074000
9.483333	1	0.075500
9.500000	1	0.077250
9.516667	1	0.078875
9.533333	1	0.079500
9.550000	1	0.080375
9.566667	1	0.080875
9.583333	1	0.080750
9.600000	1	0.080375
9.616667	1	0.078750
9.633333	1	0.077250
9.650000	1	0.075625
9.666667	1	0.073750
9.683333	1	0.072375
9.700000	1	0.070250
9.716667	1	0.067500
9.733333	1	0.065375
9.750000	1	0.062000
9.766667	1	0.059375
9.783333	1	0.055375
9.800000	1	0.051125
9.816667	1	0.047500
9.833333	1	0.044000
9.850000	1	0.040750
9.866667	1	0.038250
9.883333	1	0.034875
9.900000	1	0.031750
9.916667	1	0.029000
9.933333	1	0.027375
9.950000	1	0.025500
9.966667	1	0.024625
9.983333	1	0.023500
10.000000	1	0.023000
10.016667	1	0.023625
10.033333	1	0.024875
10.050000	1	0.026250
10.066667	1	0.029125
10.083333	1	0.033125
10.100000	1	0.037375
10.116667	1	0.042500
10.133333	1	0.047875
10.150000	1	0.054500
10.166667	1	0.061750
10.183333	1	0.069500
10.200000	1	0.079250
10.216667	1	0.090875
10.233333	1	0.104625
10.250000	1	0.119500
10.266667	1	0.135875
10.283333	1	0.154875
10.300000	1	0.177500
10.316667	1	0.202625
10.333333	1	0.231250
10.350000	1	0.262250
10.366667	1	0.297500
10.383333	1	0.335500
10.400000	1	0.374625
10.416667	1	0.410750
10.433333	1	0.436500
10.450000	1	0.442375
10.466667	1	0.416875
10.483333	1	0.358250
10.500000	1	0.280750
10.516667	1	0.217875
10.533333	1	0.232125
10.550000	1	0.403750
10.566667	1	0.829000
10.583333	1	1.601875
10.600000	1	2.808375
10.616667	1	4.516375
10.633333	1	6.770625
10.650000	1	9.594125
10.666667	1	12.993625
10.683333	1	16.952000
10.700000	1	21.424000
10.716667	1	26.327250
10.733333	1	31.526375
10.750000	1	36.821500
10.766667	1	41.921375
10.783333	1	46.454375
10.800000	1	49.985250
10.816667	1	52.093500
10.833333	1	52.483250
10.850000	1	51.089750
10.866667	1	48.103625
10.883333	1	43.929000
10.900000	1	39.066000
10.916667	1	33.982875
10.933333	1	29.047750
10.950000	1	24.496000
10.966667	1	20.456875
10.983333	1	16.974250
11.000000	1	14.038750
11.016667	1	11.608750
11.033333	1	9.628625
11.050000	1	8.031875
11.066667	1	6.754125
11.083333	1	5.735250
11.100000	1	4.924625
11.116667	1	4.277125
11.133333	1	3.759250
11.150000	1	3.341875
11.166667	1	3.003500
11.183333	1	2.726750
11.200000	1	2.497625
11.216667	1	2.306250
11.233333	1	2.145125
11.250000	1	2.007750
11.266667	1	1.890250
11.283333	1	1.788875
11.300000	1	1.701250
11.316667	1	1.624250
11.333333	1	1.556500
11.350000	1	1.497375
11.366667	1	1.444250
11.383333	1	1.397250
11.400000	1	1.354750
11.416667	1	1.316625
11.433333	1	1.282750
11.450000	1	1.251375
11.466667	1	1.223125
11.483333	1	1.196625
11.500000	1	1.171500
11.516667	1	1.148750
11.533333	1	1.128000
11.550000	1	1.108375
11.566667	1	1.090125
11.583333	1	1.073125
11.600000	1	1.057375
11.616667	1	1.043750
11.633333	1	1.031625
11.650000	1	1.021000
11.666667	1	1.012375
11.683333	1	1.005625
11.700000	1	1.000000
11.716667	1	0.996125
11.733333	1	0.994250
11.750000	1	0.993625
11.766667	1	0.994250
11.783333	1	0.995750
11.800000	1	0.998125
11.816667	1	1.000875
11.833333	1	1.003375
11.850000	1	1.006500
11.866667	1	1.009250
11.883333	1	1.011625
11.900000	1	1.014125
11.916667	1	1.016125
11.933333	1	1.018375
11.950000	1	1.020750
11.966667	1	1.023250
11.983333	1	1.026750
12.000000	1	1.031000
12.016667	1	1.035625
12.033333	1	1.041375
12.050000	1	1.048500
12.066667	1	1.055625
12.083333	1	1.063625
12.100000	1	1.072750
12.116667	1	1.082000
12.133333	1	1.092625
12.150000	1	1.104125
12.166667	1	1.116125
12.183333	1	1.130000
12.200000	1	1.144375
12.216667	1	1.161625
12.233333	1	1.181250
12.250000	1	1.201750
12.266667	1	1.224625
12.283333	1	1.249250
12.300000	1	1.275500
12.316667	1	1.304750
12.333333	1	1.336500
12.350000	1	1.373375
12.366667	1	1.418875
12.383333	1	1.475125
12.400000	1	1.549375
12.416667	1	1.646500
12.433333	1	1.776750
12.450000	1	1.947750
12.466667	1	2.166625
12.483333	1	2.441625
12.500000	1	2.777500
12.516667	1	3.176875
12.533333	1	3.638500
12.550000	1	4.155875
12.566667	1	4.720375
12.583333	1	5.320500
12.600000	1	5.940500
12.616667	1	6.564000
12.633333	1	7.178125
12.650000	1	7.772125
12.666667	1	8.338000
12.683333	1	8.872000
12.700000	1	9.374250
12.716667	1	9.849125
12.733333	1	10.301625
12.750000	1	10.739750
12.766667	1	11.172500
12.783333	1	11.604875
12.800000	1	12.034625
12.816667	1	12.447875
12.833333	1	12.807250
12.850000	1	13.048125
12.866667	1	13.086875
12.883333	1	12.848250
12.900000	1	12.298500
12.916667	1	11.465625
12.933333	1	10.433875
12.950000	1	9.313625
12.966667	1	8.202375
12.983333	1	7.168000
13.000000	1	6.245875
13.016667	1	5.444625
13.033333	1	4.762250
13.050000	1	4.188125
13.066667	1	3.712250
13.083333	1	3.321750
13.100000	1	3.003750
13.116667	1	2.744250
13.133333	1	2.535000
13.150000	1	2.365000
13.166667	1	2.225750
13.183333	1	2.111125
13.200000	1	2.015500
13.216667	1	1.934750
13.233333	1	1.866000
13.250000	1	1.805250
13.266667	1	1.751500
13.283333	1	1.703125
13.300000	1	1.659250
13.316667	1	1.619375
13.333333	1	1.582875
13.350000	1	1.549375
13.366667	1	1.519000
13.383333	1	1.491375
13.400000	1	1.466375
13.416667	1	1.444250
13.433333	1	1.425000
13.450000	1	1.408375
13.466667	1	1.394500
13.483333	1	1.383250
13.500000	1	1.373500
13.516667	1	1.366125
13.533333	1	1.360625
13.550000	1	1.356125
13.566667	1	1.352875
13.583333	1	1.349250
13.600000	1	1.344500
13.616667	1	1.338625
13.633333	1	1.330125
13.650000	1	1.320125
13.666667	1	1.306625
13.683333	1	1.292375
13.700000	1	1.276125
13.716667	1	1.258625
13.733333	1	1.240250
13.750000	1	1.221000
13.766667	1	1.201750
13.783333	1	1.183375
13.800000	1	1.165125
13.816667	1	1.147125
13.833333	1	1.130125
13.850000	1	1.114000
13.866667	1	1.098625
13.883333	1	1.083750
13.900000	1	1.070375
13.916667	1	1.057500
13.933333	1	1.044250
13.950000	1	1.033000
13.966667	1	1.022000
13.983333	1	1.012125
14.000000	1	1.002875
14.016667	1	0.993375
14.033333	1	0.984375
14.050000	1	0.976250
14.066667	1	0.968375
14.083333	1	0.960500
14.100000	1	0.953250
14.116667	1	0.947000
14.133333	1	0.940500
14.150000	1	0.934750
14.166667	1	0.929000
14.183333	1	0.924000
14.200000	1	0.919750
14.216667	1	0.916500
14.233333	1	0.913750
14.250000	1	0.911875
14.266667	1	0.911125
14.283333	1	0.911500
14.300000	1	0.912375
14.316667	1	0.915125
14.333333	1	0.918250
14.350000	1	0.923250
14.366667	1	0.930000
14.383333	1	0.938000
14.400000	1	0.949250
14.416667	1	0.964375
14.433333	1	0.985625
14.450000	1	1.016625
14.466667	1	1.064000
14.483333	1	1.137375
14.500000	1	1.252750
14.516667	1	1.430625
14.533333	1	1.700875
14.550000	1	2.103125
14.566667	1	2.686625
14.583333	1	3.508625
14.600000	1	4.638125
14.616667	1	6.147500
14.633333	1	8.110875
14.650000	1	10.591375
14.666667	1	13.632000
14.683333	1	17.246375
14.700000	1	21.406500
14.716667	1	26.036875
14.733333	1	31.017875
14.750000	1	36.181000
14.766667	1	41.320000
14.783333	1	46.205250
14.800000	1	50.607500
14.816667	1	54.313000
14.833333	1	57.141875
14.850000	1	58.963375
14.866667	1	59.711875
14.883333	1	59.391750
14.900000	1	58.074500
14.916667	1	55.885625
14.933333	1	52.983375
14.950000	1	49.548875
14.966667	1	45.766750
14.983333	1	41.810625
15.000000	1	37.827125
15.016667	1	33.935000
15.033333	1	30.223625
15.050000	1	26.757250
15.066667	1	23.573375
15.083333	1	20.688000
15.100000	1	18.103500
15.116667	1	15.808625
15.133333	1	13.784000
15.150000	1	12.006375
15.166667	1	10.453000
15.183333	1	9.100000
15.200000	1	7.925750
15.216667	1	6.908750
15.233333	1	6.030875
15.250000	1	5.276750
15.266667	1	4.633000
15.283333	1	4.086500
15.300000	1	3.628000
15.316667	1	3.247000
15.333333	1	2.933875
15.350000	1	2.679875
15.366667	1	2.476750
15.383333	1	2.317375
15.400000	1	2.193625
15.416667	1	2.098625
15.433333	1	2.025875
15.450000	1	1.968750
15.466667	1	1.921625
15.483333	1	1.881250
15.500000	1	1.843625
15.516667	1	1.805125
15.533333	1	1.764625
15.550000	1	1.721500
15.566667	1	1.676625
15.583333	1	1.630125
15.600000	1	1.582000
15.616667	1	1.534500
15.633333	1	1.488000
15.650000	1	1.443625
15.666667	1	1.401250
15.683333	1	1.361750
15.700000	1	1.324625
15.716667	1	1.290250
15.733333	1	1.258500
15.750000	1	1.228625
15.766667	1	1.201250
15.783333	1	1.174375
15.800000	1	1.150375
15.816667	1	1.126875
15.833333	1	1.106000
15.850000	1	1.086000
15.866667	1	1.068375
15.883333	1	1.051750
15.900000	1	1.038250
15.916667	1	1.026500
15.933333	1	1.017125
15.950000	1	1.009875
15.966667	1	1.005000
15.983333	1	1.002125
16.000000	1	1.000625
16.016667	1	1.000875
16.033333	1	1.002500
16.050000	1	1.004875
16.066667	1	1.007750
16.083333	1	1.011500
16.100000	1	1.015125
16.116667	1	1.018875
16.133333	1	1.021500
16.150000	1	1.024875
16.166667	1	1.027000
16.183333	1	1.028500
16.200000	1	1.028875
16.216667	1	1.029375
16.233333	1	1.028125
16.250000	1	1.025500
16.266667	1	1.022875
16.283333	1	1.019125
16.300000	1	1.015375
16.316667	1	1.012875
16.333333	1	1.009125
16.350000	1	1.006875
16.366667	1	1.005625
16.383333	1	1.005625
16.400000	1	1.007000
16.416667	1	1.009375
16.433333	1	1.012250
16.450000	1	1.016625
16.466667	1	1.021750
16.483333	1	1.026500
16.500000	1	1.031375
16.516667	1	1.035125
16.533333	1	1.038375
16.550000	1	1.040375
16.566667	1	1.040750
16.583333	1	1.038375
16.600000	1	1.035250
16.616667	1	1.030125
16.633333	1	1.024750
16.650000	1	1.018750
16.666667	1	1.012875
16.683333	1	1.008125
16.700000	1	1.003625
16.716667	1	1.000875
16.733333	1	0.999875
16.750000	1	1.000750
16.766667	1	1.004375
16.783333	1	1.008875
16.800000	1	1.015500
16.816667	1	1.022500
16.833333	1	1.029250
16.850000	1	1.036875
16.866667	1	1.043625
16.883333	1	1.049250
16.900000	1	1.052500
16.916667	1	1.054375
16.933333	1	1.054750
16.950000	1	1.055000
16.966667	1	1.052500
16.983333	1	1.050125
17.000000	1	1.045750
17.016667	1	1.041250
17.033333	1	1.036875
17.050000	1	1.032500
17.066667	1	1.029375
17.083333	1	1.026250
17.100000	1	1.024375
17.116667	1	1.023250
17.133333	1	1.022750
17.150000	1	1.023375
17.166667	1	1.024625
17.183333	1	1.026500
17.200000	1	1.029500
17.216667	1	1.033250
17.233333	1	1.037625
17.250000	1	1.041875
17.266667	1	1.046000
17.283333	1	1.050125
17.300000	1	1.054625
17.316667	1	1.059875
17.333333	1	1.065125
17.350000	1	1.070125
17.366667	1	1.074750
17.383333	1	1.078750
17.400000	1	1.082250
17.416667	1	1.084875
17.433333	1	1.086625
17.450000	1	1.086375
17.466667	1	1.084250
17.483333	1	1.081125
17.500000	1	1.075000
17.516667	1	1.068000
17.533333	1	1.059000
17.550000	1	1.048375
17.566667	1	1.036375
17.583333	1	1.022250
17.600000	1	1.007500
17.616667	1	0.992625
17.633333	1	0.976500
17.650000	1	0.959625
17.666667	1	0.942125
17.683333	1	0.925000
17.700000	1	0.906375
17.716667	1	0.889000
17.733333	1	0.872375
17.750000	1	0.856375
17.766667	1	0.841500
17.783333	1	0.827625
17.800000	1	0.814500
17.816667	1	0.802125
17.833333	1	0.791500
17.850000	1	0.781875
17.866667	1	0.773625
17.883333	1	0.765500
17.900000	1	0.758500
17.916667	1	0.752000
17.933333	1	0.746750
17.950000	1	0.741750
17.966667	1	0.736750
17.983333	1	0.732000
18.000000	1	0.728250
18.016667	1	0.725000
18.033333	1	0.721125
18.050000	1	0.717125
18.066667	1	0.713500
18.083333	1	0.710500
18.100000	1	0.708750
18.116667	1	0.707875
18.133333	1	0.707500
18.150000	1	0.708375
18.166667	1	0.708750
18.183333	1	0.709875
18.200000	1	0.711250
18.216667	1	0.713500
18.233333	1	0.716250
18.250000	1	0.719500
18.266667	1	0.721625
18.283333	1	0.725375
18.300000	1	0.727750
18.316667	1	0.731250
18.333333	1	0.735500
18.350000	1	0.739500
18.366667	1	0.744250
18.383333	1	0.749750
18.400000	1	0.756500
18.416667	1	0.764250
18.433333	1	0.774000
18.450000	1	0.784750
18.466667	1	0.797125
18.483333	1	0.811000
18.500000	1	0.826875
18.516667	1	0.844750
18.533333	1	0.864500
18.550000	1	0.885375
18.566667	1	0.909250
18.583333	1	0.934375
18.600000	1	0.961625
18.616667	1	0.990375
18.633333	1	1.020375
18.650000	1	1.052000
18.666667	1	1.084500
18.683333	1	1.118250
18.700000	1	1.152625
18.716667	1	1.187625
18.733333	1	1.223000
18.750000	1	1.258000
18.766667	1	1.292750
18.783333	1	1.326625
18.800000	1	1.359000
18.816667	1	1.388375
18.833333	1	1.413875
18.850000	1	1.435500
18.866667	1	1.452375
18.883333	1	1.465250
18.900000	1	1.470750
18.916667	1	1.470250
18.933333	1	1.463875
18.950000	1	1.451500
18.966667	1	1.431375
18.983333	1	1.406125
19.000000	1	1.375750
19.016667	1	1.340250
19.033333	1	1.301125
19.050000	1	1.258875
19.066667	1	1.215375
19.083333	1	1.170750
19.100000	1	1.127375
19.116667	1	1.086750
19.133333	1	1.049875
19.150000	1	1.018375
19.166667	1	0.994375
19.183333	1	0.977750
19.200000	1	0.972250
19.216667	1	0.978000
19.233333	1	0.997125
19.250000	1	1.030750
19.266667	1	1.079875
19.283333	1	1.146000
19.300000	1	1.229875
19.316667	1	1.329875
19.333333	1	1.445125
19.350000	1	1.574000
19.366667	1	1.713500
19.383333	1	1.860250
19.400000	1	2.011375
19.416667	1	2.160875
19.433333	1	2.305000
19.450000	1	2.438750
19.466667	1	2.557500
19.483333	1	2.657375
19.500000	1	2.736250
19.516667	1	2.792250
19.533333	1	2.823375
19.550000	1	2.830500
19.566667	1	2.813500
19.583333	1	2.776000
19.600000	1	2.718375
19.616667	1	2.644500
19.633333	1	2.557250
19.650000	1	2.460500
19.666667	1	2.355000
19.683333	1	2.245000
19.700000	1	2.133750
19.716667	1	2.022125
19.733333	1	1.912500
19.750000	1	1.806000
19.766667	1	1.702500
19.783333	1	1.603375
19.800000	1	1.508750
19.816667	1	1.419375
19.833333	1	1.334500
19.850000	1	1.254500
19.866667	1	1.179875
19.883333	1	1.111375
19.900000	1	1.048250
19.916667	1	0.991000
19.933333	1	0.938875
19.950000	1	0.892125
19.966667	1	0.852125
19.983333	1	0.818375
20.000000	1	0.791625
20.016667	1	0.771375
20.033333	1	0.758625
20.050000	1	0.753375
20.066667	1	0.755250
20.083333	1	0.764500
20.100000	1	0.781500
20.116667	1	0.805375
20.133333	1	0.835750
20.150000	1	0.871750
20.166667	1	0.911500
20.183333	1	0.954375
20.200000	1	0.998250
20.216667	1	1.040875
20.233333	1	1.081125
20.250000	1	1.117125
20.266667	1	1.147250
20.283333	1	1.170250
20.300000	1	1.185250
20.316667	1	1.191125
20.333333	1	1.188375
20.350000	1	1.177375
20.366667	1	1.158000
20.383333	1	1.131750
20.400000	1	1.098250
20.416667	1	1.061375
20.433333	1	1.021375
20.450000	1	0.979375
20.466667	1	0.936375
20.483333	1	0.895000
20.500000	1	0.856625
20.516667	1	0.821625
20.533333	1	0.791250
20.550000	1	0.766875
20.566667	1	0.749250
20.583333	1	0.739125
20.600000	1	0.737875
20.616667	1	0.746000
20.633333	1	0.764250
20.650000	1	0.791750
20.666667	1	0.829875
20.683333	1	0.877125
20.700000	1	0.933500
20.716667	1	0.998125
20.733333	1	1.069875
20.750000	1	1.146375
20.766667	1	1.226125
20.783333	1	1.304000
20.800000	1	1.380625
20.816667	1	1.451750
20.833333	1	1.515500
20.850000	1	1.569250
20.866667	1	1.611000
20.883333	1	1.640000
20.900000	1	1.654125
20.916667	1	1.655125
20.933333	1	1.641750
20.950000	1	1.616125
20.966667	1	1.579375
20.983333	1	1.531875
21.000000	1	1.477375
21.016667	1	1.416625
21.033333	1	1.351500
21.050000	1	1.283875
21.066667	1	1.215250
21.083333	1	1.148625
21.100000	1	1.083000
21.116667	1	1.020125
21.133333	1	0.961000
21.150000	1	0.905750
21.166667	1	0.854500
21.183333	1	0.807250
21.200000	1	0.763625
21.216667	1	0.724125
21.233333	1	0.688875
21.250000	1	0.657000
21.266667	1	0.629000
21.283333	1	0.603125
21.300000	1	0.579875
21.316667	1	0.559500
21.333333	1	0.542125
21.350000	1	0.525750
21.366667	1	0.511250
21.383333	1	0.498375
21.400000	1	0.486750
21.416667	1	0.476625
21.433333	1	0.467750
21.450000	1	0.460125
21.466667	1	0.452625
21.483333	1	0.447500
21.500000	1	0.442500
21.516667	1	0.439000
21.533333	1	0.436375
21.550000	1	0.435000
21.566667	1	0.434250
21.583333	1	0.435125
21.600000	1	0.438375
21.616667	1	0.441750
21.633333	1	0.447375
21.650000	1	0.454875
21.666667	1	0.464125
21.683333	1	0.474625
21.700000	1	0.486625
21.716667	1	0.501125
21.733333	1	0.516875
21.750000	1	0.534500
21.766667	1	0.552875
21.783333	1	0.572375
21.800000	1	0.592375
21.816667	1	0.612750
21.833333	1	0.633125
21.850000	1	0.653125
21.866667	1	0.671375
21.883333	1	0.688375
21.900000	1	0.703625
21.916667	1	0.717250
21.933333	1	0.728375
21.950000	1	0.737000
21.966667	1	0.743750
21.983333	1	0.747750
22.000000	1	0.749000
22.016667	1	0.748750
22.033333	1	0.746125
22.050000	1	0.742375
22.066667	1	0.736625
22.083333	1	0.729375
22.100000	1	0.721750
22.116667	1	0.712500
22.133333	1	0.702000
22.150000	1	0.690375
22.166667	1	0.678750
22.183333	1	0.666625
22.200000	1	0.653750
22.216667	1	0.639750
22.233333	1	0.625750
22.250000	1	0.610125
22.266667	1	0.594000
22.283333	1	0.578250
22.300000	1	0.561875
22.316667	1	0.546500
22.333333	1	0.531375
22.350000	1	0.515625
22.366667	1	0.500250
22.383333	1	0.485000
22.400000	1	0.470750
22.416667	1	0.457375
22.433333	1	0.444375
22.450000	1	0.432125
22.466667	1	0.421250
22.483333	1	0.411125
22.500000	1	0.401875
22.516667	1	0.393875
22.533333	1	0.385875
22.550000	1	0.379750
22.566667	1	0.374250
22.583333	1	0.368625
22.600000	1	0.363875
22.616667	1	0.359875
22.633333	1	0.356375
22.650000	1	0.352875
22.666667	1	0.349625
22.683333	1	0.347000
22.700000	1	0.344750
22.716667	1	0.343250
22.733333	1	0.341750
22.750000	1	0.339625
22.766667	1	0.338000
22.783333	1	0.336125
22.800000	1	0.334875
22.816667	1	0.333250
22.833333	1	0.331750
22.850000	1	0.329750
22.866667	1	0.328375
22.883333	1	0.327000
22.900000	1	0.326125
22.916667	1	0.325000
22.933333	1	0.324500
22.950000	1	0.324000
22.966667	1	0.323500
22.983333	1	0.323125
23.000000	1	0.322750
23.016667	1	0.322625
23.033333	1	0.322500
23.050000	1	0.322250
23.066667	1	0.322375
23.083333	1	0.323000
23.100000	1	0.323750
23.116667	1	0.324750
23.133333	1	0.324500
23.150000	1	0.324500
23.166667	1	0.324625
23.183333	1	0.324750
23.200000	1	0.324375
23.216667	1	0.324250
23.233333	1	0.323875
23.250000	1	0.323875
23.266667	1	0.324875
23.283333	1	0.326500
23.300000	1	0.329250
23.316667	1	0.335125
23.333333	1	0.342750
23.350000	1	0.354750
23.366667	1	0.372625
23.383333	1	0.396500
23.400000	1	0.429125
23.416667	1	0.472250
23.433333	1	0.527875
23.450000	1	0.599125
23.466667	1	0.689250
23.483333	1	0.800500
23.500000	1	0.936750
23.516667	1	1.101000
23.533333	1	1.295750
23.550000	1	1.523250
23.566667	1	1.785500
23.583333	1	2.081375
23.600000	1	2.412625
23.616667	1	2.776250
23.633333	1	3.168750
23.650000	1	3.585875
23.666667	1	4.020750
23.683333	1	4.468250
23.700000	1	4.918750
23.716667	1	5.364000
23.733333	1	5.792875
23.750000	1	6.197250
23.766667	1	6.566000
23.783333	1	6.891000
23.800000	1	7.164750
23.816667	1	7.382500
23.833333	1	7.538125
23.850000	1	7.631875
23.866667	1	7.662625
23.883333	1	7.630375
23.900000	1	7.539625
23.916667	1	7.394500
23.933333	1	7.200000
23.950000	1	6.964000
23.966667	1	6.692875
23.983333	1	6.394750
24.000000	1	6.076750
24.016667	1	5.744625
24.033333	1	5.406500
24.050000	1	5.068250
24.066667	1	4.734875
24.083333	1	4.407500
24.100000	1	4.091000
24.116667	1	3.787500
24.133333	1	3.499125
24.150000	1	3.227000
24.166667	1	2.971000
24.183333	1	2.732125
24.200000	1	2.510000
24.216667	1	2.305000
24.233333	1	2.115500
24.250000	1	1.941875
24.266667	1	1.782500
24.283333	1	1.636625
24.300000	1	1.503875
24.316667	1	1.382625
24.333333	1	1.272750
24.350000	1	1.173000
24.366667	1	1.083250
24.383333	1	1.002250
24.400000	1	0.930875
24.416667	1	0.867000
24.433333	1	0.810250
24.450000	1	0.760125
24.466667	1	0.716000
24.483333	1	0.677875
24.500000	1	0.644125
24.516667	1	0.614375
24.533333	1	0.588375
24.550000	1	0.565125
24.566667	1	0.544625
24.583333	1	0.526125
24.600000	1	0.509500
24.616667	1	0.495750
24.633333	1	0.482125
24.650000	1	0.469500
24.666667	1	0.457875
24.683333	1	0.446375
24.700000	1	0.435625
24.716667	1	0.425625
24.733333	1	0.416125
24.750000	1	0.406875
24.766667	1	0.397625
24.783333	1	0.388875
24.800000	1	0.380750
24.816667	1	0.372750
24.833333	1	0.366125
24.850000	1	0.358750
24.866667	1	0.352500
24.883333	1	0.347375
24.900000	1	0.342125
24.916667	1	0.337375
24.933333	1	0.333125
24.950000	1	0.330250
24.966667	1	0.327000
24.983333	1	0.323875
25.000000	1	0.321875
25.016667	1	0.319875
25.033333	1	0.318625
25.050000	1	0.317750
25.066667	1	0.316125
25.083333	1	0.315625
25.100000	1	0.315000
25.116667	1	0.314250
25.133333	1	0.314750
25.150000	1	0.314000
25.166667	1	0.313500
25.183333	1	0.313000
25.200000	1	0.312000
25.216667	1	0.310625
25.233333	1	0.309625
25.250000	1	0.308250
25.266667	1	0.306750
25.283333	1	0.306000
25.300000	1	0.304375
25.316667	1	0.302625
25.333333	1	0.300875
25.350000	1	0.299000
25.366667	1	0.297125
25.383333	1	0.294125
25.400000	1	0.291375
25.416667	1	0.289625
25.433333	1	0.287875
25.450000	1	0.285875
25.466667	1	0.284500
25.483333	1	0.282375
25.500000	1	0.281000
25.516667	1	0.279125
25.533333	1	0.277500
25.550000	1	0.276250
25.566667	1	0.274875
25.583333	1	0.273750
25.600000	1	0.273125
25.616667	1	0.272125
25.633333	1	0.271125
25.650000	1	0.270625
25.666667	1	0.270625
25.683333	1	0.270625
25.700000	1	0.270500
25.716667	1	0.270500
25.733333	1	0.270500
25.750000	1	0.270875
25.766667	1	0.270375
25.783333	1	0.270375
25.800000	1	0.271375
25.816667	1	0.271625
25.833333	1	0.271875
25.850000	1	0.273500
25.866667	1	0.274875
25.883333	1	0.276875
25.900000	1	0.278500
25.916667	1	0.281500
25.933333	1	0.283625
25.950000	1	0.287125
25.966667	1	0.290875
25.983333	1	0.295125
26.000000	1	0.299500
26.016667	1	0.304625
26.033333	1	0.309625
26.050000	1	0.315500
26.066667	1	0.321875
26.083333	1	0.328125
26.100000	1	0.334375
26.116667	1	0.341875
26.133333	1	0.348750
26.150000	1	0.355625
26.166667	1	0.362125
26.183333	1	0.369000
26.200000	1	0.376375
26.216667	1	0.383000
26.233333	1	0.389750
26.250000	1	0.396000
26.266667	1	0.402375
26.283333	1	0.407625
26.300000	1	0.413125
26.316667	1	0.417500
26.333333	1	0.421250
26.350000	1	0.424625
26.366667	1	0.426375
26.383333	1	0.428000
26.400000	1	0.429500
26.416667	1	0.429500
26.433333	1	0.429000
26.450000	1	0.428000
26.466667	1	0.426875
26.483333	1	0.424750
26.500000	1	0.421750
26.516667	1	0.418375
26.533333	1	0.413375
26.550000	1	0.408500
26.566667	1	0.403000
26.583333	1	0.397625
26.600000	1	0.391875
26.616667	1	0.386250
26.633333	1	0.379625
26.650000	1	0.373625
26.666667	1	0.367000
26.683333	1	0.361125
26.700000	1	0.354250
26.716667	1	0.347750
26.733333	1	0.341875
26.750000	1	0.335875
26.766667	1	0.329375
26.783333	1	0.323250
26.800000	1	0.318375
26.816667	1	0.313125
26.833333	1	0.308625
26.850000	1	0.303875
26.866667	1	0.299125
26.883333	1	0.295125
26.900000	1	0.291375
26.916667	1	0.287875
26.933333	1	0.284625
26.950000	1	0.281250
26.966667	1	0.278750
26.983333	1	0.276000
27.000000	1	0.273250
27.016667	1	0.271750
27.033333	1	0.269750
27.050000	1	0.269125
27.066667	1	0.267750
27.083333	1	0.266875
27.100000	1	0.266125
27.116667	1	0.266500
27.133333	1	0.266625
27.150000	1	0.267750
27.166667	1	0.269125
27.183333	1	0.270875
27.200000	1	0.273375
27.216667	1	0.277625
27.233333	1	0.283500
27.250000	1	0.291000
27.266667	1	0.299750
27.283333	1	0.311000
27.300000	1	0.325000
27.316667	1	0.343000
27.333333	1	0.364500
27.350000	1	0.389875
27.366667	1	0.421375
27.383333	1	0.458250
27.400000	1	0.501875
27.416667	1	0.553750
27.433333	1	0.613875
27.450000	1	0.682500
27.466667	1	0.763000
27.483333	1	0.854250
27.500000	1	0.956375
27.516667	1	1.070750
27.533333	1	1.197000
27.550000	1	1.334875
27.566667	1	1.484125
27.583333	1	1.644875
27.600000	1	1.815875
27.616667	1	1.995875
27.633333	1	2.183375
27.650000	1	2.375750
27.666667	1	2.573375
27.683333	1	2.770625
27.700000	1	2.966500
27.716667	1	3.157375
27.733333	1	3.340375
27.750000	1	3.512750
27.766667	1	3.671375
27.783333	1	3.813500
27.800000	1	3.936625
27.816667	1	4.038875
27.833333	1	4.118875
27.850000	1	4.173375
27.866667	1	4.203750
27.883333	1	4.207750
27.900000	1	4.186625
27.916667	1	4.141750
27.933333	1	4.072500
27.950000	1	3.982500
27.966667	1	3.872750
27.983333	1	3.746125
28.000000	1	3.605750
28.016667	1	3.454125
28.033333	1	3.292625
28.050000	1	3.125375
28.066667	1	2.954625
28.083333	1	2.782375
28.100000	1	2.611125
28.116667	1	2.442875
28.133333	1	2.279625
28.150000	1	2.121750
28.166667	1	1.971500
28.183333	1	1.828000
28.200000	1	1.693750
28.216667	1	1.567875
28.233333	1	1.450250
28.250000	1	1.340000
28.266667	1	1.238875
28.283333	1	1.144875
28.300000	1	1.059875
28.316667	1	0.981875
28.333333	1	0.910875
28.350000	1	0.846250
28.366667	1	0.788625
28.383333	1	0.735875
28.400000	1	0.689000
28.416667	1	0.647000
28.433333	1	0.610250
28.450000	1	0.577625
28.466667	1	0.549500
28.483333	1	0.525375
28.500000	1	0.504875
28.516667	1	0.487750
28.533333	1	0.474000
28.550000	1	0.463125
28.566667	1	0.455250
28.583333	1	0.449375
28.600000	1	0.446375
28.616667	1	0.445500
28.633333	1	0.446250
28.650000	1	0.449250
28.666667	1	0.453375
28.683333	1	0.459000
28.700000	1	0.465625
28.716667	1	0.473875
28.733333	1	0.482750
28.750000	1	0.492375
28.766667	1	0.501375
28.783333	1	0.510125
28.800000	1	0.519500
28.816667	1	0.529375
28.833333	1	0.538750
28.850000	1	0.547125
28.866667	1	0.555000
28.883333	1	0.562250
28.900000	1	0.569250
28.916667	1	0.575000
28.933333	1	0.579000
28.950000	1	0.581750
28.966667	1	0.583000
28.983333	1	0.583250
29.000000	1	0.582625
29.016667	1	0.580000
29.033333	1	0.575125
29.050000	1	0.569000
29.066667	1	0.562000
29.083333	1	0.552875
29.100000	1	0.542000
29.116667	1	0.529625
29.133333	1	0.515250
29.150000	1	0.499000
29.166667	1	0.480875
29.183333	1	0.461000
29.200000	1	0.439375
29.216667	1	0.415625
29.233333	1	0.389625
29.250000	1	0.361750
29.266667	1	0.332375
29.283333	1	0.300125
29.300000	1	0.265750
29.316667	1	0.229750
29.333333	1	0.191625
29.350000	1	0.151125
29.366667	1	0.109000
29.383333	1	0.065625
29.400000	1	0.021125
29.416667	1	-0.024750
29.433333	1	-0.072125
29.450000	1	-0.121000
29.466667	1	-0.169750
29.483333	1	-0.219000
29.500000	1	-0.268250
29.516667	1	-0.317375
29.533333	1	-0.364750
29.550000	1	-0.411875
29.566667	1	-0.457125
29.583333	1	-0.499625
29.600000	1	-0.539500
29.616667	1	-0.577250
29.633333	1	-0.612000
29.650000	1	-0.643875
29.666667	1	-0.671125
29.683333	1	-0.694375
29.700000	1	-0.714250
29.716667	1	-0.730625
29.733333	1	-0.742250
29.750000	1	-0.749500
29.766667	1	-0.751875
29.783333	1	-0.750750
29.800000	1	-0.745625
29.816667	1	-0.736375
29.833333	1	-0.723125
29.850000	1	-0.707125
29.866667	1	-0.688125
29.883333	1	-0.665125
29.900000	1	-0.641125
29.916667	1	-0.614750
29.933333	1	-0.586875
29.950000	1	-0.557125
29.966667	1	-0.526000
29.983333	1	-0.493750
30.000000	1	-0.461500
30.016667	1	-0.428250
30.033333	1	-0.396000
30.050000	1	-0.364500
30.066667	1	-0.334125
30.083333	1	-0.303625
30.100000	1	-0.273000
30.116667	1	-0.244125
30.133333	1	-0.216750
30.150000	1	-0.191375
30.166667	1	-0.166250
30.183333	1	-0.142750
30.200000	1	-0.120375
30.216667	1	-0.100125
30.233333	1	-0.080875
30.250000	1	-0.063125
30.266667	1	-0.047000
30.283333	1	-0.032250
30.300000	1	-0.019000
30.316667	1	-0.007250
30.333333	1	0.003500
30.350000	1	0.012750
30.366667	1	0.021375
30.383333	1	0.029375
30.400000	1	0.036625
30.416667	1	0.042875
30.433333	1	0.048125
30.450000	1	0.052875
30.466667	1	0.057375
30.483333	1	0.061625
30.500000	1	0.065750
30.516667	1	0.069500
30.533333	1	0.072875
30.550000	1	0.076750
30.566667	1	0.080875
30.583333	1	0.084875
30.600000	1	0.089250
30.616667	1	0.093875
30.633333	1	0.099000
30.650000	1	0.103625
30.666667	1	0.110000
30.683333	1	0.116750
30.700000	1	0.122875
30.716667	1	0.130500
30.733333	1	0.138250
30.750000	1	0.146500
30.766667	1	0.155625
30.783333	1	0.165000
30.800000	1	0.174625
30.816667	1	0.185125
30.833333	1	0.197125
30.850000	1	0.208750
30.866667	1	0.221000
30.883333	1	0.234625
30.900000	1	0.248375
30.916667	1	0.262750
30.933333	1	0.278625
30.950000	1	0.295250
30.966667	1	0.313875
30.983333	1	0.333750
31.000000	1	0.355125
31.016667	1	0.379375
31.033333	1	0.406375
31.050000	1	0.436000
31.066667	1	0.469625
31.083333	1	0.507250
31.100000	1	0.550250
31.116667	1	0.597750
31.133333	1	0.651375
31.150000	1	0.711625
31.166667	1	0.779500
31.183333	1	0.854875
31.200000	1	0.938625
31.216667	1	1.031125
31.233333	1	1.133625
31.250000	1	1.244750
31.266667	1	1.364125
31.283333	1	1.493000
31.300000	1	1.630625
31.316667	1	1.776125
31.333333	1	1.929750
31.350000	1	2.089125
31.366667	1	2.253625
31.383333	1	2.422500
31.400000	1	2.592625
31.416667	1	2.764625
31.433333	1	2.934125
31.450000	1	3.100000
31.466667	1	3.261250
31.483333	1	3.413375
31.500000	1	3.555875
31.516667	1	3.686500
31.533333	1	3.803750
31.550000	1	3.906375
31.566667	1	3.992875
31.583333	1	4.062500
31.600000	1	4.113375
31.616667	1	4.146125
31.633333	1	4.160125
31.650000	1	4.156000
31.666667	1	4.133250
31.683333	1	4.093250
31.700000	1	4.037625
31.716667	1	3.965750
31.733333	1	3.880375
31.750000	1	3.782250
31.766667	1	3.673875
31.783333	1	3.555625
31.800000	1	3.429125
31.816667	1	3.297000
31.833333	1	3.159625
31.850000	1	3.019125
31.866667	1	2.876375
31.883333	1	2.732625
31.900000	1	2.590125
31.916667	1	2.450125
31.933333	1	2.311625
31.950000	1	2.176625
31.966667	1	2.045250
31.983333	1	1.919000
32.000000	1	1.796625
32.016667	1	1.679125
32.033333	1	1.566625
32.050000	1	1.459250
32.066667	1	1.357500
32.083333	1	1.260875
32.100000	1	1.169375
32.116667	1	1.083875
32.133333	1	1.002375
32.150000	1	0.925625
32.166667	1	0.853750
32.183333	1	0.785375
32.200000	1	0.722000
32.216667	1	0.661875
32.233333	1	0.605750
32.250000	1	0.552250
32.266667	1	0.503000
32.283333	1	0.457000
32.300000	1	0.414250
32.316667	1	0.374625
32.333333	1	0.338750
32.350000	1	0.305250
32.366667	1	0.274500
32.383333	1	0.245625
32.400000	1	0.219125
32.416667	1	0.195625
32.433333	1	0.173750
32.450000	1	0.153125
32.466667	1	0.135000
32.483333	1	0.118250
32.500000	1	0.102625
32.516667	1	0.089625
32.533333	1	0.078375
32.550000	1	0.068125
32.566667	1	0.058875
32.583333	1	0.051250
32.600000	1	0.043625
32.616667	1	0.037875
32.633333	1	0.032125
32.650000	1	0.027625
32.666667	1	0.022625
32.683333	1	0.019000
32.700000	1	0.015875
32.716667	1	0.013500
32.733333	1	0.011625
32.750000	1	0.010375
32.766667	1	0.008875
32.783333	1	0.007625
32.800000	1	0.006875
32.816667	1	0.006000
32.833333	1	0.005750
32.850000	1	0.005250
32.866667	1	0.005250
32.883333	1	0.004625
32.900000	1	0.004875
32.916667	1	0.005250
32.933333	1	0.004750
32.950000	1	0.004875
32.966667	1	0.004750
32.983333	1	0.004875
33.000000	1	0.005500
33.016667	1	0.005750
33.033333	1	0.006750
33.050000	1	0.007000
33.066667	1	0.007750
33.083333	1	0.007875
33.100000	1	0.008625
33.116667	1	0.009000
33.133333	1	0.009750
33.150000	1	0.010750
33.166667	1	0.011375
33.183333	1	0.012625
33.200000	1	0.014000
33.216667	1	0.015375
33.233333	1	0.015750
33.250000	1	0.016625
33.266667	1	0.017250
33.283333	1	0.017625
33.300000	1	0.017750
33.316667	1	0.017875
33.333333	1	0.018500
33.350000	1	0.018875
33.366667	1	0.018750
33.383333	1	0.019000
33.400000	1	0.019250
33.416667	1	0.019000
33.433333	1	0.018750
33.450000	1	0.018000
33.466667	1	0.017375
33.483333	1	0.016500
33.500000	1	0.014750
33.516667	1	0.013875
33.533333	1	0.013375
33.550000	1	0.013000
33.566667	1	0.012750
33.583333	1	0.012625
33.600000	1	0.012750
33.616667	1	0.012125
33.633333	1	0.011625
33.650000	1	0.011500
33.666667	1	0.011250
33.683333	1	0.011500
33.700000	1	0.012875
33.716667	1	0.014000
33.733333	1	0.015375
33.750000	1	0.016625
33.766667	1	0.018000
33.783333	1	0.019375
33.800000	1	0.021375
33.816667	1	0.023625
33.833333	1	0.025875
33.850000	1	0.028125
33.866667	1	0.030875
33.883333	1	0.033125
33.900000	1	0.035875
33.916667	1	0.038500
33.933333	1	0.041125
33.950000	1	0.044000
33.966667	1	0.046250
33.983333	1	0.049000
34.000000	1	0.051000
34.016667	1	0.053250
34.033333	1	0.055125
34.050000	1	0.057625
34.066667	1	0.059375
34.083333	1	0.060625
34.100000	1	0.062375
34.116667	1	0.063500
34.133333	1	0.065000
34.150000	1	0.065875
34.166667	1	0.066125
34.183333	1	0.067125
34.200000	1	0.067750
34.216667	1	0.068375
34.233333	1	0.069375
34.250000	1	0.069125
34.266667	1	0.069375
34.283333	1	0.068375
34.300000	1	0.068375
34.316667	1	0.068625
34.333333	1	0.068375
34.350000	1	0.068500
34.366667	1	0.068750
34.383333	1	0.068625
34.400000	1	0.068750
34.416667	1	0.068750
34.433333	1	0.069875
34.450000	1	0.069750
34.466667	1	0.070125
34.483333	1	0.070750
34.500000	1	0.072000
34.516667	1	0.073000
34.533333	1	0.074250
34.550000	1	0.075250
34.566667	1	0.076625
34.583333	1	0.077750
34.600000	1	0.080000
34.616667	1	0.081625
34.633333	1	0.083250
34.650000	1	0.085625
34.666667	1	0.087375
34.683333	1	0.089125
34.700000	1	0.090500
34.716667	1	0.092000
34.733333	1	0.094125
34.750000	1	0.096625
34.766667	1	0.098125
34.783333	1	0.099500
34.800000	1	0.100875
34.816667	1	0.101875
34.833333	1	0.103000
34.850000	1	0.104750
34.866667	1	0.105750
34.883333	1	0.107375
34.900000	1	0.108750
34.916667	1	0.109625
34.933333	1	0.110375
34.950000	1	0.111000
34.966667	1	0.111500
34.983333	1	0.111875
35.000000	1	0.111000
35.016667	1	0.111125
35.033333	1	0.111375
35.050000	1	0.111250
35.066667	1	0.111500
35.083333	1	0.111500
35.100000	1	0.111250
35.116667	1	0.110250
35.133333	1	0.110375
35.150000	1	0.109875
35.166667	1	0.110250
35.183333	1	0.109750
35.200000	1	0.109875
35.216667	1	0.109250
35.233333	1	0.109125
35.250000	1	0.108375
35.266667	1	0.108500
35.283333	1	0.108250
35.300000	1	0.108625
35.316667	1	0.108250
35.333333	1	0.107500
35.350000	1	0.107500
35.366667	1	0.107500
35.383333	1	0.107250
35.400000	1	0.106750
35.416667	1	0.106125
35.433333	1	0.105500
35.450000	1	0.104875
35.466667	1	0.104875
35.483333	1	0.104875
35.500000	1	0.105250
35.516667	1	0.105375
35.533333	1	0.105000
35.550000	1	0.105375
35.566667	1	0.105500
35.583333	1	0.106125
35.600000	1	0.106000
35.616667	1	0.106250
35.633333	1	0.106375
35.650000	1	0.106500
35.666667	1	0.106625
35.683333	1	0.106875
35.700000	1	0.107125
35.716667	1	0.107500
35.733333	1	0.108000
35.750000	1	0.107750
35.766667	1	0.108625
35.783333	1	0.109125
35.800000	1	0.110000
35.816667	1	0.110875
35.833333	1	0.111875
35.850000	1	0.112500
35.866667	1	0.113250
35.883333	1	0.113625
35.900000	1	0.114500
35.916667	1	0.115875
35.933333	1	0.117500
35.950000	1	0.118750
35.966667	1	0.121125
35.983333	1	0.123000
36.000000	1	0.124500
36.016667	1	0.126250
36.033333	1	0.128250
36.050000	1	0.130125
36.066667	1	0.131625
36.083333	1	0.133500
36.100000	1	0.135250
36.116667	1	0.137500
36.133333	1	0.139500
36.150000	1	0.141625
36.166667	1	0.143625
36.183333	1	0.145625
36.200000	1	0.147375
36.216667	1	0.149375
36.233333	1	0.150375
36.250000	1	0.151500
36.266667	1	0.152625
36.283333	1	0.154375
36.300000	1	0.154875
36.316667	1	0.156000
36.333333	1	0.156125
36.350000	1	0.155375
36.366667	1	0.156250
36.383333	1	0.156000
36.400000	1	0.154625
36.416667	1	0.153875
36.433333	1	0.152375
36.450000	1	0.151250
36.466667	1	0.149625
36.483333	1	0.147750
36.500000	1	0.146500
36.516667	1	0.143750
36.533333	1	0.141250
36.550000	1	0.138000
36.566667	1	0.134625
36.583333	1	0.131875
36.600000	1	0.128250
36.616667	1	0.124750
36.633333	1	0.121625
36.650000	1	0.118625
36.666667	1	0.115500
36.683333	1	0.112000
36.700000	1	0.108750
36.716667	1	0.105250
36.733333	1	0.102250
36.750000	1	0.099375
36.766667	1	0.096500
36.783333	1	0.093250
36.800000	1	0.089875
36.816667	1	0.087375
36.833333	1	0.085625
36.850000	1	0.083500
36.866667	1	0.081250
36.883333	1	0.079500
36.900000	1	0.077125
36.916667	1	0.075000
36.933333	1	0.073000
36.950000	1	0.071750
36.966667	1	0.069875
36.983333	1	0.068750
37.000000	1	0.067125
37.016667	1	0.065375
37.033333	1	0.062875
37.050000	1	0.060250
37.066667	1	0.058250
37.083333	1	0.056625
37.100000	1	0.054875
37.116667	1	0.052625
37.133333	1	0.050250
37.150000	1	0.047750
37.166667	1	0.045625
37.183333	1	0.043500
37.200000	1	0.040500
37.216667	1	0.037375
37.233333	1	0.035250
37.250000	1	0.033250
37.266667	1	0.030875
37.283333	1	0.029500
37.300000	1	0.028250
37.316667	1	0.026250
37.333333	1	0.023875
37.350000	1	0.022375
37.366667	1	0.020625
37.383333	1	0.019375
37.400000	1	0.019250
37.416667	1	0.017625
37.433333	1	0.017375
37.450000	1	0.017250
37.466667	1	0.017250
37.483333	1	0.017125
37.500000	1	0.017500
37.516667	1	0.017750
37.533333	1	0.018375
37.550000	1	0.019250
37.566667	1	0.019875
37.583333	1	0.020250
37.600000	1	0.020250
37.616667	1	0.020625
37.633333	1	0.020875
37.650000	1	0.021500
37.666667	1	0.021000
37.683333	1	0.020875
37.700000	1	0.020500
37.716667	1	0.019750
37.733333	1	0.019250
37.750000	1	0.018625
37.766667	1	0.017500
37.783333	1	0.016750
37.800000	1	0.015875
37.816667	1	0.014875
37.833333	1	0.012750
37.850000	1	0.011125
37.866667	1	0.009750
37.883333	1	0.008250
37.900000	1	0.006500
37.916667	1	0.004750
37.933333	1	0.003250
37.950000	1	0.001500
37.966667	1	-0.000250
37.983333	1	-0.002250
38.000000	1	-0.003875
38.016667	1	-0.005875
38.033333	1	-0.007000
38.050000	1	-0.008625
38.066667	1	-0.009625
38.083333	1	-0.010375
38.100000	1	-0.011375
38.116667	1	-0.011375
38.133333	1	-0.011000
38.150000	1	-0.011500
38.166667	1	-0.011625
38.183333	1	-0.011625
38.200000	1	-0.011250
38.216667	1	-0.010750
38.233333	1	-0.010000
38.250000	1	-0.008375
38.266667	1	-0.006625
38.283333	1	-0.005750
38.300000	1	-0.004625
38.316667	1	-0.002625
38.333333	1	-0.000625
38.350000	1	0.000875
38.366667	1	0.002875
38.383333	1	0.005625
38.400000	1	0.008000
38.416667	1	0.010500
38.433333	1	0.012375
38.450000	1	0.014375
38.466667	1	0.017250
38.483333	1	0.019875
38.500000	1	0.022625
38.516667	1	0.025000
38.533333	1	0.027875
38.550000	1	0.030250
38.566667	1	0.032375
38.583333	1	0.034875
38.600000	1	0.037000
38.616667	1	0.038625
38.633333	1	0.041625
38.650000	1	0.043500
38.666667	1	0.045625
38.683333	1	0.047500
38.700000	1	0.049000
38.716667	1	0.050875
38.733333	1	0.052125
38.750000	1	0.053000
38.766667	1	0.054125
38.783333	1	0.054750
38.800000	1	0.055250
38.816667	1	0.055500
38.833333	1	0.055750
38.850000	1	0.056250
38.866667	1	0.055875
38.883333	1	0.055375
38.900000	1	0.054875
38.916667	1	0.054375
38.933333	1	0.053875
38.950000	1	0.052625
38.966667	1	0.051625
38.983333	1	0.051500
39.000000	1	0.050625
39.016667	1	0.049750
39.033333	1	0.048625
39.050000	1	0.047750
39.066667	1	0.046750
39.083333	1	0.045500
39.100000	1	0.044250
39.116667	1	0.043375
39.133333	1	0.042125
39.150000	1	0.041750
39.166667	1	0.040750
39.183333	1	0.039500
39.200000	1	0.038750
39.216667	1	0.038625
39.233333	1	0.038625
39.250000	1	0.038625
39.266667	1	0.038500
39.283333	1	0.038125
39.300000	1	0.038250
39.316667	1	0.038750
39.333333	1	0.038875
39.350000	1	0.039000
39.366667	1	0.039375
39.383333	1	0.039625
39.400000	1	0.039750
39.416667	1	0.039250
39.433333	1	0.039500
39.450000	1	0.039375
39.466667	1	0.039500
39.483333	1	0.039625
39.500000	1	0.039875
39.516667	1	0.039500
39.533333	1	0.038750
39.550000	1	0.038375
39.566667	1	0.038500
39.583333	1	0.036375
39.600000	1	0.035000
39.616667	1	0.033375
39.633333	1	0.031625
39.650000	1	0.029375
39.666667	1	0.027375
39.683333	1	0.025500
39.700000	1	0.023250
39.716667	1	0.020625
39.733333	1	0.017875
39.750000	1	0.015500
39.766667	1	0.012000
39.783333	1	0.008375
39.800000	1	0.004625
39.816667	1	0.000875
39.833333	1	-0.002625
39.850000	1	-0.005750
39.866667	1	-0.009125
39.883333	1	-0.013250
39.900000	1	-0.017250
39.916667	1	-0.021250
39.933333	1	-0.025500
39.950000	1	-0.029000
39.966667	1	-0.033375
39.983333	1	-0.037250
40.000000	1	-0.041250
