URL	chrom://7040-86g6c92/XVault/Ultimate_3000/20/20240517_CMO_FP23_FP25_MarkusDeplate.seq/603.smp/RI_1.channel/RI_1.chm
Channel	RI_1

Injection Information:
Data Vault	XVault
Sequence	20240517_CMO_FP23_FP25_MarkusDeplate
Name	FP25_25.2_s2
Number	53
Position	BE5
Comment	
Processing Method	
Instrument Method	run_25B_method
Type	Unknown
Status	Finished
Inject Time	29.05.2024 05:32:54 +02:00
Volume (µl)	20.0000
Dilution Factor	1.0000
Weight	1.0000

Chromatogram Data Information:
Time Min. (min)	0.000000
Time Max. (min)	40.000000
Data Points	2401
Detector	RI
Generating Data System	Chromeleon 7.3.2.11814
Exporting Data System	Chromeleon 7.3.2.0
Operator	Instrument Controller
Signal Quantity	Refractive 
Signal Unit	µRIU
Signal Min.	-1.055750
Signal Max.	73.317625
Channel	RI_1
Driver Name	RID520Driver.dll
Channel Type	Evaluation
Min. Step (s)	1
Max. Step (s)	1
Average Step (s)	1

Signal Parameter Information:
Signal Info	

Chromatogram Data:
Time (min)	Step (s)	Value (µRIU)
0.000000	n.a.	0.054500
0.016667	1	0.054375
0.033333	1	0.055000
0.050000	1	0.055875
0.066667	1	0.056625
0.083333	1	0.057000
0.100000	1	0.057625
0.116667	1	0.057625
0.133333	1	0.058250
0.150000	1	0.058250
0.166667	1	0.057625
0.183333	1	0.057625
0.200000	1	0.057375
0.216667	1	0.057375
0.233333	1	0.057375
0.250000	1	0.057500
0.266667	1	0.056875
0.283333	1	0.056625
0.300000	1	0.056625
0.316667	1	0.056500
0.333333	1	0.056375
0.350000	1	0.056375
0.366667	1	0.055875
0.383333	1	0.054875
0.400000	1	0.054500
0.416667	1	0.054750
0.433333	1	0.055625
0.450000	1	0.058250
0.466667	1	0.061375
0.483333	1	0.064250
0.500000	1	0.066375
0.516667	1	0.068000
0.533333	1	0.069125
0.550000	1	0.070250
0.566667	1	0.071500
0.583333	1	0.071750
0.600000	1	0.071125
0.616667	1	0.069875
0.633333	1	0.069500
0.650000	1	0.068875
0.666667	1	0.069875
0.683333	1	0.070250
0.700000	1	0.071125
0.716667	1	0.071250
0.733333	1	0.072250
0.750000	1	0.072500
0.766667	1	0.072625
0.783333	1	0.072750
0.800000	1	0.072750
0.816667	1	0.072875
0.833333	1	0.072750
0.850000	1	0.072625
0.866667	1	0.071750
0.883333	1	0.070875
0.900000	1	0.071000
0.916667	1	0.070125
0.933333	1	0.069500
0.950000	1	0.069000
0.966667	1	0.067625
0.983333	1	0.066500
1.000000	1	0.065125
1.016667	1	0.064000
1.033333	1	0.063000
1.050000	1	0.061875
1.066667	1	0.060500
1.083333	1	0.059750
1.100000	1	0.058000
1.116667	1	0.057750
1.133333	1	0.057125
1.150000	1	0.055750
1.166667	1	0.053875
1.183333	1	0.053625
1.200000	1	0.052750
1.216667	1	0.051375
1.233333	1	0.050375
1.250000	1	0.049500
1.266667	1	0.048500
1.283333	1	0.047125
1.300000	1	0.046375
1.316667	1	0.045375
1.333333	1	0.044375
1.350000	1	0.043000
1.366667	1	0.042125
1.383333	1	0.040375
1.400000	1	0.038750
1.416667	1	0.036625
1.433333	1	0.036250
1.450000	1	0.035125
1.466667	1	0.034500
1.483333	1	0.033250
1.500000	1	0.032250
1.516667	1	0.030500
1.533333	1	0.029250
1.550000	1	0.028500
1.566667	1	0.027875
1.583333	1	0.027750
1.600000	1	0.026875
1.616667	1	0.027375
1.633333	1	0.027125
1.650000	1	0.027000
1.666667	1	0.027000
1.683333	1	0.027250
1.700000	1	0.027375
1.716667	1	0.027750
1.733333	1	0.028000
1.750000	1	0.028375
1.766667	1	0.028500
1.783333	1	0.029375
1.800000	1	0.030000
1.816667	1	0.030375
1.833333	1	0.030750
1.850000	1	0.031250
1.866667	1	0.031875
1.883333	1	0.031250
1.900000	1	0.030750
1.916667	1	0.030625
1.933333	1	0.030250
1.950000	1	0.030000
1.966667	1	0.029750
1.983333	1	0.029500
2.000000	1	0.029625
2.016667	1	0.028750
2.033333	1	0.028250
2.050000	1	0.026750
2.066667	1	0.026125
2.083333	1	0.025000
2.100000	1	0.023875
2.116667	1	0.022875
2.133333	1	0.021250
2.150000	1	0.019750
2.166667	1	0.018250
2.183333	1	0.016750
2.200000	1	0.015500
2.216667	1	0.014375
2.233333	1	0.012750
2.250000	1	0.011375
2.266667	1	0.009750
2.283333	1	0.008375
2.300000	1	0.006625
2.316667	1	0.005750
2.333333	1	0.004250
2.350000	1	0.003375
2.366667	1	0.002250
2.383333	1	0.001375
2.400000	1	0.000250
2.416667	1	-0.000750
2.433333	1	-0.001375
2.450000	1	-0.002750
2.466667	1	-0.003375
2.483333	1	-0.004250
2.500000	1	-0.005125
2.516667	1	-0.005625
2.533333	1	-0.006625
2.550000	1	-0.007000
2.566667	1	-0.007375
2.583333	1	-0.008000
2.600000	1	-0.008250
2.616667	1	-0.008500
2.633333	1	-0.009375
2.650000	1	-0.009375
2.666667	1	-0.009375
2.683333	1	-0.009000
2.700000	1	-0.009000
2.716667	1	-0.009125
2.733333	1	-0.008375
2.750000	1	-0.008000
2.766667	1	-0.006875
2.783333	1	-0.006875
2.800000	1	-0.006375
2.816667	1	-0.005375
2.833333	1	-0.005125
2.850000	1	-0.004250
2.866667	1	-0.003000
2.883333	1	-0.001375
2.900000	1	0.000000
2.916667	1	0.001250
2.933333	1	0.002750
2.950000	1	0.004125
2.966667	1	0.005875
2.983333	1	0.007000
3.000000	1	0.009375
3.016667	1	0.011500
3.033333	1	0.013750
3.050000	1	0.015375
3.066667	1	0.017500
3.083333	1	0.019125
3.100000	1	0.020375
3.116667	1	0.022250
3.133333	1	0.024375
3.150000	1	0.026875
3.166667	1	0.028125
3.183333	1	0.030000
3.200000	1	0.032125
3.216667	1	0.033750
3.233333	1	0.035375
3.250000	1	0.036625
3.266667	1	0.038625
3.283333	1	0.039625
3.300000	1	0.040750
3.316667	1	0.042375
3.333333	1	0.043250
3.350000	1	0.043250
3.366667	1	0.043875
3.383333	1	0.045500
3.400000	1	0.045750
3.416667	1	0.046500
3.433333	1	0.046125
3.450000	1	0.046125
3.466667	1	0.046375
3.483333	1	0.045500
3.500000	1	0.044750
3.516667	1	0.043875
3.533333	1	0.043500
3.550000	1	0.042375
3.566667	1	0.041875
3.583333	1	0.041500
3.600000	1	0.040500
3.616667	1	0.040375
3.633333	1	0.039875
3.650000	1	0.039125
3.666667	1	0.039250
3.683333	1	0.038125
3.700000	1	0.037500
3.716667	1	0.037125
3.733333	1	0.036500
3.750000	1	0.036750
3.766667	1	0.037000
3.783333	1	0.037500
3.800000	1	0.037250
3.816667	1	0.036875
3.833333	1	0.037125
3.850000	1	0.037625
3.866667	1	0.037500
3.883333	1	0.037875
3.900000	1	0.037875
3.916667	1	0.037375
3.933333	1	0.037250
3.950000	1	0.037625
3.966667	1	0.038375
3.983333	1	0.038000
4.000000	1	0.038250
4.016667	1	0.038000
4.033333	1	0.038500
4.050000	1	0.038375
4.066667	1	0.038500
4.083333	1	0.038625
4.100000	1	0.038375
4.116667	1	0.038625
4.133333	1	0.038000
4.150000	1	0.038000
4.166667	1	0.038250
4.183333	1	0.038250
4.200000	1	0.039375
4.216667	1	0.039250
4.233333	1	0.039375
4.250000	1	0.040000
4.266667	1	0.040000
4.283333	1	0.039875
4.300000	1	0.040500
4.316667	1	0.041000
4.333333	1	0.041500
4.350000	1	0.041625
4.366667	1	0.042250
4.383333	1	0.043375
4.400000	1	0.044125
4.416667	1	0.045000
4.433333	1	0.046375
4.450000	1	0.047875
4.466667	1	0.048625
4.483333	1	0.049750
4.500000	1	0.050375
4.516667	1	0.051250
4.533333	1	0.052000
4.550000	1	0.053500
4.566667	1	0.055500
4.583333	1	0.057375
4.600000	1	0.058750
4.616667	1	0.060375
4.633333	1	0.062625
4.650000	1	0.065000
4.666667	1	0.066750
4.683333	1	0.069000
4.700000	1	0.071375
4.716667	1	0.073375
4.733333	1	0.076250
4.750000	1	0.078250
4.766667	1	0.080875
4.783333	1	0.083875
4.800000	1	0.086500
4.816667	1	0.088500
4.833333	1	0.091500
4.850000	1	0.094375
4.866667	1	0.097375
4.883333	1	0.099375
4.900000	1	0.102250
4.916667	1	0.104625
4.933333	1	0.107625
4.950000	1	0.110625
4.966667	1	0.112875
4.983333	1	0.115500
5.000000	1	0.118500
5.016667	1	0.121500
5.033333	1	0.124250
5.050000	1	0.126625
5.066667	1	0.129375
5.083333	1	0.132375
5.100000	1	0.135125
5.116667	1	0.138250
5.133333	1	0.140750
5.150000	1	0.143750
5.166667	1	0.146000
5.183333	1	0.148750
5.200000	1	0.151625
5.216667	1	0.154500
5.233333	1	0.156875
5.250000	1	0.159875
5.266667	1	0.163000
5.283333	1	0.166625
5.300000	1	0.169125
5.316667	1	0.172250
5.333333	1	0.175375
5.350000	1	0.179000
5.366667	1	0.182250
5.383333	1	0.186500
5.400000	1	0.190250
5.416667	1	0.194750
5.433333	1	0.199125
5.450000	1	0.202750
5.466667	1	0.206875
5.483333	1	0.210500
5.500000	1	0.214125
5.516667	1	0.217875
5.533333	1	0.221500
5.550000	1	0.224750
5.566667	1	0.228625
5.583333	1	0.231875
5.600000	1	0.235375
5.616667	1	0.238625
5.633333	1	0.241875
5.650000	1	0.245625
5.666667	1	0.248375
5.683333	1	0.250625
5.700000	1	0.252750
5.716667	1	0.254500
5.733333	1	0.257000
5.750000	1	0.259875
5.766667	1	0.261250
5.783333	1	0.262500
5.800000	1	0.264125
5.816667	1	0.266125
5.833333	1	0.267250
5.850000	1	0.268250
5.866667	1	0.268500
5.883333	1	0.268750
5.900000	1	0.268625
5.916667	1	0.268875
5.933333	1	0.268625
5.950000	1	0.268375
5.966667	1	0.268500
5.983333	1	0.268250
6.000000	1	0.267500
6.016667	1	0.266625
6.033333	1	0.264875
6.050000	1	0.264500
6.066667	1	0.263375
6.083333	1	0.262000
6.100000	1	0.260250
6.116667	1	0.258750
6.133333	1	0.256750
6.150000	1	0.255125
6.166667	1	0.253125
6.183333	1	0.251250
6.200000	1	0.249125
6.216667	1	0.246875
6.233333	1	0.244750
6.250000	1	0.242625
6.266667	1	0.240250
6.283333	1	0.237625
6.300000	1	0.236250
6.316667	1	0.233250
6.333333	1	0.231125
6.350000	1	0.227750
6.366667	1	0.225125
6.383333	1	0.223125
6.400000	1	0.220375
6.416667	1	0.217250
6.433333	1	0.214375
6.450000	1	0.211125
6.466667	1	0.208375
6.483333	1	0.205375
6.500000	1	0.202875
6.516667	1	0.199750
6.533333	1	0.197125
6.550000	1	0.194125
6.566667	1	0.191125
6.583333	1	0.188625
6.600000	1	0.186875
6.616667	1	0.184500
6.633333	1	0.182250
6.650000	1	0.179625
6.666667	1	0.177500
6.683333	1	0.175250
6.700000	1	0.173625
6.716667	1	0.171250
6.733333	1	0.169750
6.750000	1	0.168500
6.766667	1	0.167000
6.783333	1	0.166125
6.800000	1	0.164500
6.816667	1	0.163875
6.833333	1	0.162875
6.850000	1	0.161875
6.866667	1	0.160125
6.883333	1	0.159125
6.900000	1	0.158500
6.916667	1	0.157875
6.933333	1	0.158000
6.950000	1	0.157375
6.966667	1	0.156875
6.983333	1	0.156500
7.000000	1	0.156750
7.016667	1	0.156250
7.033333	1	0.155500
7.050000	1	0.155375
7.066667	1	0.155500
7.083333	1	0.155375
7.100000	1	0.155125
7.116667	1	0.155875
7.133333	1	0.155750
7.150000	1	0.155625
7.166667	1	0.156125
7.183333	1	0.156500
7.200000	1	0.157375
7.216667	1	0.157750
7.233333	1	0.158500
7.250000	1	0.159500
7.266667	1	0.160500
7.283333	1	0.161250
7.300000	1	0.162375
7.316667	1	0.164250
7.333333	1	0.165875
7.350000	1	0.167250
7.366667	1	0.169375
7.383333	1	0.171625
7.400000	1	0.173625
7.416667	1	0.175750
7.433333	1	0.178375
7.450000	1	0.181125
7.466667	1	0.184000
7.483333	1	0.186750
7.500000	1	0.188750
7.516667	1	0.191750
7.533333	1	0.194625
7.550000	1	0.197250
7.566667	1	0.200500
7.583333	1	0.202875
7.600000	1	0.204875
7.616667	1	0.207250
7.633333	1	0.209250
7.650000	1	0.210625
7.666667	1	0.212750
7.683333	1	0.214000
7.700000	1	0.214875
7.716667	1	0.216125
7.733333	1	0.217500
7.750000	1	0.217750
7.766667	1	0.217500
7.783333	1	0.216375
7.800000	1	0.215625
7.816667	1	0.214375
7.833333	1	0.212250
7.850000	1	0.210375
7.866667	1	0.208625
7.883333	1	0.207625
7.900000	1	0.205125
7.916667	1	0.201500
7.933333	1	0.196625
7.950000	1	0.192500
7.966667	1	0.188750
7.983333	1	0.184750
8.000000	1	0.179625
8.016667	1	0.174750
8.033333	1	0.170875
8.050000	1	0.166250
8.066667	1	0.161250
8.083333	1	0.155875
8.100000	1	0.150625
8.116667	1	0.146125
8.133333	1	0.141625
8.150000	1	0.136625
8.166667	1	0.131000
8.183333	1	0.126875
8.200000	1	0.122250
8.216667	1	0.117875
8.233333	1	0.113625
8.250000	1	0.109875
8.266667	1	0.106250
8.283333	1	0.102750
8.300000	1	0.099500
8.316667	1	0.095875
8.333333	1	0.093625
8.350000	1	0.091000
8.366667	1	0.088625
8.383333	1	0.086500
8.400000	1	0.084375
8.416667	1	0.082625
8.433333	1	0.081625
8.450000	1	0.080000
8.466667	1	0.079000
8.483333	1	0.078125
8.500000	1	0.078000
8.516667	1	0.078125
8.533333	1	0.078125
8.550000	1	0.077125
8.566667	1	0.076750
8.583333	1	0.076625
8.600000	1	0.076375
8.616667	1	0.076875
8.633333	1	0.076625
8.650000	1	0.076125
8.666667	1	0.076250
8.683333	1	0.075500
8.700000	1	0.074750
8.716667	1	0.074000
8.733333	1	0.073500
8.750000	1	0.073250
8.766667	1	0.073375
8.783333	1	0.072625
8.800000	1	0.072250
8.816667	1	0.071625
8.833333	1	0.070750
8.850000	1	0.070250
8.866667	1	0.069750
8.883333	1	0.069375
8.900000	1	0.068375
8.916667	1	0.068625
8.933333	1	0.067875
8.950000	1	0.067125
8.966667	1	0.067625
8.983333	1	0.067125
9.000000	1	0.066875
9.016667	1	0.066750
9.033333	1	0.065750
9.050000	1	0.065375
9.066667	1	0.065750
9.083333	1	0.065250
9.100000	1	0.065125
9.116667	1	0.065125
9.133333	1	0.065375
9.150000	1	0.065375
9.166667	1	0.065250
9.183333	1	0.064875
9.200000	1	0.065125
9.216667	1	0.064750
9.233333	1	0.064375
9.250000	1	0.063875
9.266667	1	0.063750
9.283333	1	0.063625
9.300000	1	0.063375
9.316667	1	0.062875
9.333333	1	0.063000
9.350000	1	0.062625
9.366667	1	0.062125
9.383333	1	0.061250
9.400000	1	0.060625
9.416667	1	0.060125
9.433333	1	0.059625
9.450000	1	0.058875
9.466667	1	0.058500
9.483333	1	0.057625
9.500000	1	0.056875
9.516667	1	0.056125
9.533333	1	0.055000
9.550000	1	0.054375
9.566667	1	0.053750
9.583333	1	0.052250
9.600000	1	0.051500
9.616667	1	0.050625
9.633333	1	0.049750
9.650000	1	0.048625
9.666667	1	0.047625
9.683333	1	0.047000
9.700000	1	0.046125
9.716667	1	0.045375
9.733333	1	0.044500
9.750000	1	0.043750
9.766667	1	0.042375
9.783333	1	0.041875
9.800000	1	0.041000
9.816667	1	0.040125
9.833333	1	0.038375
9.850000	1	0.037125
9.866667	1	0.036625
9.883333	1	0.035625
9.900000	1	0.034875
9.916667	1	0.033750
9.933333	1	0.033750
9.950000	1	0.033125
9.966667	1	0.032750
9.983333	1	0.033125
10.000000	1	0.034250
10.016667	1	0.036125
10.033333	1	0.037875
10.050000	1	0.039875
10.066667	1	0.042500
10.083333	1	0.046375
10.100000	1	0.051000
10.116667	1	0.056750
10.133333	1	0.063375
10.150000	1	0.070625
10.166667	1	0.078875
10.183333	1	0.088750
10.200000	1	0.099375
10.216667	1	0.111375
10.233333	1	0.125125
10.250000	1	0.141625
10.266667	1	0.159750
10.283333	1	0.181000
10.300000	1	0.204500
10.316667	1	0.230375
10.333333	1	0.259375
10.350000	1	0.291625
10.366667	1	0.327375
10.383333	1	0.366000
10.400000	1	0.406750
10.416667	1	0.447375
10.433333	1	0.480000
10.450000	1	0.495750
10.466667	1	0.483875
10.483333	1	0.437125
10.500000	1	0.361500
10.516667	1	0.283500
10.533333	1	0.256250
10.550000	1	0.357375
10.566667	1	0.681500
10.583333	1	1.326750
10.600000	1	2.386375
10.616667	1	3.936250
10.633333	1	6.032500
10.650000	1	8.706750
10.666667	1	11.975000
10.683333	1	15.828375
10.700000	1	20.236375
10.716667	1	25.128875
10.733333	1	30.393500
10.750000	1	35.855000
10.766667	1	41.254125
10.783333	1	46.237125
10.800000	1	50.372125
10.816667	1	53.196625
10.833333	1	54.329500
10.850000	1	53.593875
10.866667	1	51.083500
10.883333	1	47.151125
10.900000	1	42.300875
10.916667	1	37.053750
10.933333	1	31.840000
10.950000	1	26.958000
10.966667	1	22.580625
10.983333	1	18.774125
11.000000	1	15.542750
11.016667	1	12.852375
11.033333	1	10.647625
11.050000	1	8.864125
11.066667	1	7.431250
11.083333	1	6.287500
11.100000	1	5.375500
11.116667	1	4.647625
11.133333	1	4.065125
11.150000	1	3.596000
11.166667	1	3.215500
11.183333	1	2.904000
11.200000	1	2.647250
11.216667	1	2.433125
11.233333	1	2.252750
11.250000	1	2.098625
11.266667	1	1.967250
11.283333	1	1.854125
11.300000	1	1.755500
11.316667	1	1.669000
11.333333	1	1.594000
11.350000	1	1.527750
11.366667	1	1.469500
11.383333	1	1.417750
11.400000	1	1.371500
11.416667	1	1.330750
11.433333	1	1.294375
11.450000	1	1.261125
11.466667	1	1.231625
11.483333	1	1.205250
11.500000	1	1.181500
11.516667	1	1.160500
11.533333	1	1.140875
11.550000	1	1.123625
11.566667	1	1.108000
11.583333	1	1.095125
11.600000	1	1.083875
11.616667	1	1.074500
11.633333	1	1.067000
11.650000	1	1.061375
11.666667	1	1.058125
11.683333	1	1.056500
11.700000	1	1.056625
11.716667	1	1.058875
11.733333	1	1.062375
11.750000	1	1.067375
11.766667	1	1.073750
11.783333	1	1.081500
11.800000	1	1.089000
11.816667	1	1.097750
11.833333	1	1.105875
11.850000	1	1.113625
11.866667	1	1.121000
11.883333	1	1.128000
11.900000	1	1.134250
11.916667	1	1.140000
11.933333	1	1.145125
11.950000	1	1.150250
11.966667	1	1.155375
11.983333	1	1.160375
12.000000	1	1.165625
12.016667	1	1.170375
12.033333	1	1.176125
12.050000	1	1.181625
12.066667	1	1.189125
12.083333	1	1.195750
12.100000	1	1.203125
12.116667	1	1.210625
12.133333	1	1.218250
12.150000	1	1.227375
12.166667	1	1.235750
12.183333	1	1.245375
12.200000	1	1.256000
12.216667	1	1.267750
12.233333	1	1.281125
12.250000	1	1.297125
12.266667	1	1.314375
12.283333	1	1.334375
12.300000	1	1.356500
12.316667	1	1.382000
12.333333	1	1.409625
12.350000	1	1.442750
12.366667	1	1.481750
12.383333	1	1.529250
12.400000	1	1.588500
12.416667	1	1.662750
12.433333	1	1.757375
12.450000	1	1.876375
12.466667	1	2.023875
12.483333	1	2.204000
12.500000	1	2.420250
12.516667	1	2.673750
12.533333	1	2.965375
12.550000	1	3.293625
12.566667	1	3.657875
12.583333	1	4.055625
12.600000	1	4.483125
12.616667	1	4.936375
12.633333	1	5.412375
12.650000	1	5.906875
12.666667	1	6.418625
12.683333	1	6.945000
12.700000	1	7.483500
12.716667	1	8.033125
12.733333	1	8.592625
12.750000	1	9.162375
12.766667	1	9.742750
12.783333	1	10.334375
12.800000	1	10.935875
12.816667	1	11.543000
12.833333	1	12.145375
12.850000	1	12.713250
12.866667	1	13.186000
12.883333	1	13.475500
12.900000	1	13.481375
12.916667	1	13.134000
12.933333	1	12.425125
12.950000	1	11.423125
12.966667	1	10.245000
12.983333	1	9.017875
13.000000	1	7.841125
13.016667	1	6.774625
13.033333	1	5.842375
13.050000	1	5.048375
13.066667	1	4.383500
13.083333	1	3.836500
13.100000	1	3.390500
13.116667	1	3.031625
13.133333	1	2.744625
13.150000	1	2.515000
13.166667	1	2.332750
13.183333	1	2.186250
13.200000	1	2.067875
13.216667	1	1.971250
13.233333	1	1.892250
13.250000	1	1.825000
13.266667	1	1.767625
13.283333	1	1.717500
13.300000	1	1.673875
13.316667	1	1.635125
13.333333	1	1.599250
13.350000	1	1.566500
13.366667	1	1.537500
13.383333	1	1.510875
13.400000	1	1.487750
13.416667	1	1.467750
13.433333	1	1.449625
13.450000	1	1.434375
13.466667	1	1.422625
13.483333	1	1.413250
13.500000	1	1.406375
13.516667	1	1.400875
13.533333	1	1.397750
13.550000	1	1.395750
13.566667	1	1.393500
13.583333	1	1.391625
13.600000	1	1.389500
13.616667	1	1.385875
13.633333	1	1.380250
13.650000	1	1.372250
13.666667	1	1.362875
13.683333	1	1.350250
13.700000	1	1.336000
13.716667	1	1.320250
13.733333	1	1.303375
13.750000	1	1.286125
13.766667	1	1.268125
13.783333	1	1.250500
13.800000	1	1.233750
13.816667	1	1.216500
13.833333	1	1.201375
13.850000	1	1.185875
13.866667	1	1.171125
13.883333	1	1.156625
13.900000	1	1.143250
13.916667	1	1.130375
13.933333	1	1.117875
13.950000	1	1.106250
13.966667	1	1.095125
13.983333	1	1.084750
14.000000	1	1.074625
14.016667	1	1.065500
14.033333	1	1.056000
14.050000	1	1.046250
14.066667	1	1.037750
14.083333	1	1.029625
14.100000	1	1.021250
14.116667	1	1.013125
14.133333	1	1.005625
14.150000	1	0.998875
14.166667	1	0.992125
14.183333	1	0.986125
14.200000	1	0.980500
14.216667	1	0.975875
14.233333	1	0.972000
14.250000	1	0.969250
14.266667	1	0.966875
14.283333	1	0.965375
14.300000	1	0.965000
14.316667	1	0.966125
14.333333	1	0.968750
14.350000	1	0.972500
14.366667	1	0.978125
14.383333	1	0.985875
14.400000	1	0.996250
14.416667	1	1.010750
14.433333	1	1.030875
14.450000	1	1.062000
14.466667	1	1.109125
14.483333	1	1.183125
14.500000	1	1.299750
14.516667	1	1.481375
14.533333	1	1.760875
14.550000	1	2.181250
14.566667	1	2.799375
14.583333	1	3.683125
14.600000	1	4.910250
14.616667	1	6.570750
14.633333	1	8.757500
14.650000	1	11.556375
14.666667	1	15.033750
14.683333	1	19.224750
14.700000	1	24.116750
14.716667	1	29.640625
14.733333	1	35.666375
14.750000	1	42.006625
14.766667	1	48.420875
14.783333	1	54.623750
14.800000	1	60.328750
14.816667	1	65.259125
14.833333	1	69.171000
14.850000	1	71.878875
14.866667	1	73.269875
14.883333	1	73.317625
14.900000	1	72.081125
14.916667	1	69.696500
14.933333	1	66.353750
14.950000	1	62.277125
14.966667	1	57.699500
14.983333	1	52.849875
15.000000	1	47.920875
15.016667	1	43.072875
15.033333	1	38.424375
15.050000	1	34.061125
15.066667	1	30.036500
15.083333	1	26.377625
15.100000	1	23.090625
15.116667	1	20.165125
15.133333	1	17.579125
15.150000	1	15.305000
15.166667	1	13.314125
15.183333	1	11.576375
15.200000	1	10.064250
15.216667	1	8.751250
15.233333	1	7.613125
15.250000	1	6.630625
15.266667	1	5.786750
15.283333	1	5.066875
15.300000	1	4.457125
15.316667	1	3.944625
15.333333	1	3.519875
15.350000	1	3.171250
15.366667	1	2.888750
15.383333	1	2.662000
15.400000	1	2.484000
15.416667	1	2.344250
15.433333	1	2.234500
15.450000	1	2.148250
15.466667	1	2.078750
15.483333	1	2.020250
15.500000	1	1.968250
15.516667	1	1.920125
15.533333	1	1.871375
15.550000	1	1.822875
15.566667	1	1.773500
15.583333	1	1.723875
15.600000	1	1.673000
15.616667	1	1.623625
15.633333	1	1.575500
15.650000	1	1.529625
15.666667	1	1.486625
15.683333	1	1.447125
15.700000	1	1.410000
15.716667	1	1.376250
15.733333	1	1.345750
15.750000	1	1.316625
15.766667	1	1.290000
15.783333	1	1.266250
15.800000	1	1.243000
15.816667	1	1.222250
15.833333	1	1.203875
15.850000	1	1.187875
15.866667	1	1.174500
15.883333	1	1.164000
15.900000	1	1.156125
15.916667	1	1.151500
15.933333	1	1.151375
15.950000	1	1.153875
15.966667	1	1.160125
15.983333	1	1.168250
16.000000	1	1.179500
16.016667	1	1.191000
16.033333	1	1.203500
16.050000	1	1.215500
16.066667	1	1.226875
16.083333	1	1.236500
16.100000	1	1.243000
16.116667	1	1.247750
16.133333	1	1.249375
16.150000	1	1.248250
16.166667	1	1.245000
16.183333	1	1.238250
16.200000	1	1.229875
16.216667	1	1.219875
16.233333	1	1.207875
16.250000	1	1.195625
16.266667	1	1.182375
16.283333	1	1.169250
16.300000	1	1.155625
16.316667	1	1.142625
16.333333	1	1.130500
16.350000	1	1.120250
16.366667	1	1.111250
16.383333	1	1.103750
16.400000	1	1.097875
16.416667	1	1.094875
16.433333	1	1.093250
16.450000	1	1.092875
16.466667	1	1.093625
16.483333	1	1.094625
16.500000	1	1.097000
16.516667	1	1.098875
16.533333	1	1.100500
16.550000	1	1.100125
16.566667	1	1.098000
16.583333	1	1.094625
16.600000	1	1.089625
16.616667	1	1.083375
16.633333	1	1.076625
16.650000	1	1.069375
16.666667	1	1.062000
16.683333	1	1.054625
16.700000	1	1.049125
16.716667	1	1.045000
16.733333	1	1.042625
16.750000	1	1.043250
16.766667	1	1.044875
16.783333	1	1.049250
16.800000	1	1.055125
16.816667	1	1.061625
16.833333	1	1.068500
16.850000	1	1.076250
16.866667	1	1.082000
16.883333	1	1.087375
16.900000	1	1.091000
16.916667	1	1.093250
16.933333	1	1.093500
16.950000	1	1.092000
16.966667	1	1.089000
16.983333	1	1.085750
17.000000	1	1.081125
17.016667	1	1.076500
17.033333	1	1.071125
17.050000	1	1.065875
17.066667	1	1.061500
17.083333	1	1.057625
17.100000	1	1.054125
17.116667	1	1.051500
17.133333	1	1.050125
17.150000	1	1.050000
17.166667	1	1.050250
17.183333	1	1.051750
17.200000	1	1.053000
17.216667	1	1.054875
17.233333	1	1.057250
17.250000	1	1.059625
17.266667	1	1.064500
17.283333	1	1.068500
17.300000	1	1.072625
17.316667	1	1.078000
17.333333	1	1.083375
17.350000	1	1.088875
17.366667	1	1.094375
17.383333	1	1.098750
17.400000	1	1.103750
17.416667	1	1.107875
17.433333	1	1.111125
17.450000	1	1.112750
17.466667	1	1.113625
17.483333	1	1.113125
17.500000	1	1.110000
17.516667	1	1.105125
17.533333	1	1.098375
17.550000	1	1.091000
17.566667	1	1.081500
17.583333	1	1.070875
17.600000	1	1.058500
17.616667	1	1.045500
17.633333	1	1.031250
17.650000	1	1.016625
17.666667	1	1.001500
17.683333	1	0.985750
17.700000	1	0.970500
17.716667	1	0.955500
17.733333	1	0.940250
17.750000	1	0.926375
17.766667	1	0.912500
17.783333	1	0.899625
17.800000	1	0.887750
17.816667	1	0.877875
17.833333	1	0.868000
17.850000	1	0.859125
17.866667	1	0.851125
17.883333	1	0.844250
17.900000	1	0.838500
17.916667	1	0.832250
17.933333	1	0.827500
17.950000	1	0.822500
17.966667	1	0.818875
17.983333	1	0.814250
18.000000	1	0.809500
18.016667	1	0.804875
18.033333	1	0.800125
18.050000	1	0.795625
18.066667	1	0.791250
18.083333	1	0.787750
18.100000	1	0.783875
18.116667	1	0.780500
18.133333	1	0.777625
18.150000	1	0.775250
18.166667	1	0.773875
18.183333	1	0.772875
18.200000	1	0.772750
18.216667	1	0.773000
18.233333	1	0.773125
18.250000	1	0.773125
18.266667	1	0.773000
18.283333	1	0.773625
18.300000	1	0.773125
18.316667	1	0.773250
18.333333	1	0.773500
18.350000	1	0.774375
18.366667	1	0.775875
18.383333	1	0.777875
18.400000	1	0.781250
18.416667	1	0.786000
18.433333	1	0.790750
18.450000	1	0.798375
18.466667	1	0.807125
18.483333	1	0.819125
18.500000	1	0.832625
18.516667	1	0.848750
18.533333	1	0.866625
18.550000	1	0.886125
18.566667	1	0.907875
18.583333	1	0.932750
18.600000	1	0.959000
18.616667	1	0.986375
18.633333	1	1.016625
18.650000	1	1.047625
18.666667	1	1.080500
18.683333	1	1.114750
18.700000	1	1.149875
18.716667	1	1.186375
18.733333	1	1.223500
18.750000	1	1.259875
18.766667	1	1.296625
18.783333	1	1.332500
18.800000	1	1.366750
18.816667	1	1.398000
18.833333	1	1.426375
18.850000	1	1.451125
18.866667	1	1.471250
18.883333	1	1.485625
18.900000	1	1.494875
18.916667	1	1.497125
18.933333	1	1.493000
18.950000	1	1.482000
18.966667	1	1.465125
18.983333	1	1.440375
19.000000	1	1.409750
19.016667	1	1.374000
19.033333	1	1.333375
19.050000	1	1.289500
19.066667	1	1.242250
19.083333	1	1.193875
19.100000	1	1.144625
19.116667	1	1.095125
19.133333	1	1.047500
19.150000	1	1.000875
19.166667	1	0.957750
19.183333	1	0.918500
19.200000	1	0.882875
19.216667	1	0.852500
19.233333	1	0.826125
19.250000	1	0.806125
19.266667	1	0.792125
19.283333	1	0.783625
19.300000	1	0.782000
19.316667	1	0.787000
19.333333	1	0.797750
19.350000	1	0.814625
19.366667	1	0.837000
19.383333	1	0.863875
19.400000	1	0.895250
19.416667	1	0.929625
19.433333	1	0.966250
19.450000	1	1.003625
19.466667	1	1.040875
19.483333	1	1.077250
19.500000	1	1.111750
19.516667	1	1.143125
19.533333	1	1.170625
19.550000	1	1.194000
19.566667	1	1.213375
19.583333	1	1.226875
19.600000	1	1.236750
19.616667	1	1.242125
19.633333	1	1.242000
19.650000	1	1.237625
19.666667	1	1.228875
19.683333	1	1.215875
19.700000	1	1.199500
19.716667	1	1.179750
19.733333	1	1.156625
19.750000	1	1.131625
19.766667	1	1.104250
19.783333	1	1.075000
19.800000	1	1.044125
19.816667	1	1.012125
19.833333	1	0.979375
19.850000	1	0.947250
19.866667	1	0.914750
19.883333	1	0.882875
19.900000	1	0.852500
19.916667	1	0.823875
19.933333	1	0.796500
19.950000	1	0.772625
19.966667	1	0.751750
19.983333	1	0.734500
20.000000	1	0.720250
20.016667	1	0.710000
20.033333	1	0.703375
20.050000	1	0.702875
20.066667	1	0.707000
20.083333	1	0.716500
20.100000	1	0.730875
20.116667	1	0.750500
20.133333	1	0.774875
20.150000	1	0.802875
20.166667	1	0.833750
20.183333	1	0.866750
20.200000	1	0.901875
20.216667	1	0.936000
20.233333	1	0.968875
20.250000	1	0.998000
20.266667	1	1.023500
20.283333	1	1.043625
20.300000	1	1.058750
20.316667	1	1.066875
20.333333	1	1.068375
20.350000	1	1.063375
20.366667	1	1.052500
20.383333	1	1.034750
20.400000	1	1.013000
20.416667	1	0.988000
20.433333	1	0.959125
20.450000	1	0.929375
20.466667	1	0.898875
20.483333	1	0.869375
20.500000	1	0.840875
20.516667	1	0.816625
20.533333	1	0.796375
20.550000	1	0.781125
20.566667	1	0.771500
20.583333	1	0.768125
20.600000	1	0.773125
20.616667	1	0.786375
20.633333	1	0.808125
20.650000	1	0.840250
20.666667	1	0.881625
20.683333	1	0.932500
20.700000	1	0.992375
20.716667	1	1.060875
20.733333	1	1.135625
20.750000	1	1.215375
20.766667	1	1.299375
20.783333	1	1.383750
20.800000	1	1.465500
20.816667	1	1.542000
20.833333	1	1.611875
20.850000	1	1.670625
20.866667	1	1.717500
20.883333	1	1.751000
20.900000	1	1.770250
20.916667	1	1.774125
20.933333	1	1.764000
20.950000	1	1.739375
20.966667	1	1.701750
20.983333	1	1.653375
21.000000	1	1.596125
21.016667	1	1.530750
21.033333	1	1.461250
21.050000	1	1.389375
21.066667	1	1.315750
21.083333	1	1.242750
21.100000	1	1.172375
21.116667	1	1.104500
21.133333	1	1.040000
21.150000	1	0.979500
21.166667	1	0.923500
21.183333	1	0.871375
21.200000	1	0.823500
21.216667	1	0.780000
21.233333	1	0.740500
21.250000	1	0.705125
21.266667	1	0.673125
21.283333	1	0.644500
21.300000	1	0.619500
21.316667	1	0.597000
21.333333	1	0.577000
21.350000	1	0.559125
21.366667	1	0.542625
21.383333	1	0.527625
21.400000	1	0.515000
21.416667	1	0.504125
21.433333	1	0.493375
21.450000	1	0.484375
21.466667	1	0.476375
21.483333	1	0.468750
21.500000	1	0.462625
21.516667	1	0.456750
21.533333	1	0.451625
21.550000	1	0.447375
21.566667	1	0.444125
21.583333	1	0.441125
21.600000	1	0.439125
21.616667	1	0.438125
21.633333	1	0.438125
21.650000	1	0.437750
21.666667	1	0.437750
21.683333	1	0.439250
21.700000	1	0.441750
21.716667	1	0.444000
21.733333	1	0.447125
21.750000	1	0.450375
21.766667	1	0.454750
21.783333	1	0.459000
21.800000	1	0.463625
21.816667	1	0.468500
21.833333	1	0.474125
21.850000	1	0.479250
21.866667	1	0.484500
21.883333	1	0.491875
21.900000	1	0.498875
21.916667	1	0.506125
21.933333	1	0.513500
21.950000	1	0.521125
21.966667	1	0.529250
21.983333	1	0.537750
22.000000	1	0.546250
22.016667	1	0.554625
22.033333	1	0.563750
22.050000	1	0.573500
22.066667	1	0.582875
22.083333	1	0.591125
22.100000	1	0.599875
22.116667	1	0.606875
22.133333	1	0.614125
22.150000	1	0.619750
22.166667	1	0.624250
22.183333	1	0.627750
22.200000	1	0.630250
22.216667	1	0.629875
22.233333	1	0.628875
22.250000	1	0.626375
22.266667	1	0.621875
22.283333	1	0.615375
22.300000	1	0.608500
22.316667	1	0.600750
22.333333	1	0.591875
22.350000	1	0.581625
22.366667	1	0.570500
22.383333	1	0.558875
22.400000	1	0.547875
22.416667	1	0.535625
22.433333	1	0.523500
22.450000	1	0.511750
22.466667	1	0.501125
22.483333	1	0.490000
22.500000	1	0.479625
22.516667	1	0.469500
22.533333	1	0.458875
22.550000	1	0.449125
22.566667	1	0.440750
22.583333	1	0.432625
22.600000	1	0.424500
22.616667	1	0.416500
22.633333	1	0.408125
22.650000	1	0.401250
22.666667	1	0.394250
22.683333	1	0.387125
22.700000	1	0.380250
22.716667	1	0.372875
22.733333	1	0.366500
22.750000	1	0.360250
22.766667	1	0.354125
22.783333	1	0.346500
22.800000	1	0.340250
22.816667	1	0.334125
22.833333	1	0.328125
22.850000	1	0.322500
22.866667	1	0.317375
22.883333	1	0.312750
22.900000	1	0.308625
22.916667	1	0.304125
22.933333	1	0.299250
22.950000	1	0.295875
22.966667	1	0.292500
22.983333	1	0.289125
23.000000	1	0.286500
23.016667	1	0.283625
23.033333	1	0.282750
23.050000	1	0.281250
23.066667	1	0.281125
23.083333	1	0.280750
23.100000	1	0.280750
23.116667	1	0.280875
23.133333	1	0.281375
23.150000	1	0.282375
23.166667	1	0.283125
23.183333	1	0.284750
23.200000	1	0.286750
23.216667	1	0.287875
23.233333	1	0.289750
23.250000	1	0.292125
23.266667	1	0.294250
23.283333	1	0.297625
23.300000	1	0.302250
23.316667	1	0.307500
23.333333	1	0.314625
23.350000	1	0.324500
23.366667	1	0.338000
23.383333	1	0.356000
23.400000	1	0.380500
23.416667	1	0.411750
23.433333	1	0.452500
23.450000	1	0.503625
23.466667	1	0.569000
23.483333	1	0.650000
23.500000	1	0.749000
23.516667	1	0.867750
23.533333	1	1.010250
23.550000	1	1.177250
23.566667	1	1.371250
23.583333	1	1.591625
23.600000	1	1.839375
23.616667	1	2.113000
23.633333	1	2.410875
23.650000	1	2.728875
23.666667	1	3.064500
23.683333	1	3.411125
23.700000	1	3.764375
23.716667	1	4.116375
23.733333	1	4.460375
23.750000	1	4.787625
23.766667	1	5.091125
23.783333	1	5.362875
23.800000	1	5.597375
23.816667	1	5.789500
23.833333	1	5.934750
23.850000	1	6.031750
23.866667	1	6.078125
23.883333	1	6.076125
23.900000	1	6.026250
23.916667	1	5.931875
23.933333	1	5.797750
23.950000	1	5.628000
23.966667	1	5.427625
23.983333	1	5.203625
24.000000	1	4.962000
24.016667	1	4.708625
24.033333	1	4.446875
24.050000	1	4.183250
24.066667	1	3.921125
24.083333	1	3.663750
24.100000	1	3.413125
24.116667	1	3.171750
24.133333	1	2.941500
24.150000	1	2.723125
24.166667	1	2.516875
24.183333	1	2.323500
24.200000	1	2.143625
24.216667	1	1.976750
24.233333	1	1.822375
24.250000	1	1.680125
24.266667	1	1.549625
24.283333	1	1.429500
24.300000	1	1.320000
24.316667	1	1.219000
24.333333	1	1.128750
24.350000	1	1.047000
24.366667	1	0.972500
24.383333	1	0.905625
24.400000	1	0.846875
24.416667	1	0.793875
24.433333	1	0.747875
24.450000	1	0.707750
24.466667	1	0.672875
24.483333	1	0.642625
24.500000	1	0.616500
24.516667	1	0.594125
24.533333	1	0.574375
24.550000	1	0.557875
24.566667	1	0.543125
24.583333	1	0.531000
24.600000	1	0.519625
24.616667	1	0.510125
24.633333	1	0.502000
24.650000	1	0.495000
24.666667	1	0.487750
24.683333	1	0.481375
24.700000	1	0.474875
24.716667	1	0.468750
24.733333	1	0.462000
24.750000	1	0.456500
24.766667	1	0.450375
24.783333	1	0.443625
24.800000	1	0.437000
24.816667	1	0.431125
24.833333	1	0.425250
24.850000	1	0.419500
24.866667	1	0.413625
24.883333	1	0.408500
24.900000	1	0.403625
24.916667	1	0.398000
24.933333	1	0.392500
24.950000	1	0.387750
24.966667	1	0.383375
24.983333	1	0.378500
25.000000	1	0.374750
25.016667	1	0.371000
25.033333	1	0.367125
25.050000	1	0.363625
25.066667	1	0.360250
25.083333	1	0.356375
25.100000	1	0.353125
25.116667	1	0.349875
25.133333	1	0.346875
25.150000	1	0.343250
25.166667	1	0.340125
25.183333	1	0.337625
25.200000	1	0.334000
25.216667	1	0.331125
25.233333	1	0.328000
25.250000	1	0.324875
25.266667	1	0.322250
25.283333	1	0.319750
25.300000	1	0.316750
25.316667	1	0.314250
25.333333	1	0.311500
25.350000	1	0.309000
25.366667	1	0.307000
25.383333	1	0.304875
25.400000	1	0.303125
25.416667	1	0.301625
25.433333	1	0.300125
25.450000	1	0.299750
25.466667	1	0.299250
25.483333	1	0.298625
25.500000	1	0.298375
25.516667	1	0.298625
25.533333	1	0.298500
25.550000	1	0.298750
25.566667	1	0.299000
25.583333	1	0.299875
25.600000	1	0.300000
25.616667	1	0.299750
25.633333	1	0.301125
25.650000	1	0.301750
25.666667	1	0.302375
25.683333	1	0.303000
25.700000	1	0.303125
25.716667	1	0.303250
25.733333	1	0.303625
25.750000	1	0.303625
25.766667	1	0.303500
25.783333	1	0.303000
25.800000	1	0.302875
25.816667	1	0.302125
25.833333	1	0.301875
25.850000	1	0.301375
25.866667	1	0.302000
25.883333	1	0.301625
25.900000	1	0.302250
25.916667	1	0.303000
25.933333	1	0.303500
25.950000	1	0.304250
25.966667	1	0.306125
25.983333	1	0.307875
26.000000	1	0.310250
26.016667	1	0.313875
26.033333	1	0.317375
26.050000	1	0.321750
26.066667	1	0.326375
26.083333	1	0.330875
26.100000	1	0.336125
26.116667	1	0.341750
26.133333	1	0.348250
26.150000	1	0.355125
26.166667	1	0.361625
26.183333	1	0.368875
26.200000	1	0.376000
26.216667	1	0.383500
26.233333	1	0.390375
26.250000	1	0.397875
26.266667	1	0.404625
26.283333	1	0.411250
26.300000	1	0.416750
26.316667	1	0.422500
26.333333	1	0.427500
26.350000	1	0.432375
26.366667	1	0.436625
26.383333	1	0.440000
26.400000	1	0.443125
26.416667	1	0.444125
26.433333	1	0.445750
26.450000	1	0.446000
26.466667	1	0.445750
26.483333	1	0.445250
26.500000	1	0.444000
26.516667	1	0.441000
26.533333	1	0.437875
26.550000	1	0.434500
26.566667	1	0.430250
26.583333	1	0.426000
26.600000	1	0.421500
26.616667	1	0.417000
26.633333	1	0.412125
26.650000	1	0.407000
26.666667	1	0.401375
26.683333	1	0.395750
26.700000	1	0.390250
26.716667	1	0.385000
26.733333	1	0.379250
26.750000	1	0.374250
26.766667	1	0.369125
26.783333	1	0.363875
26.800000	1	0.359125
26.816667	1	0.354750
26.833333	1	0.350250
26.850000	1	0.346250
26.866667	1	0.342750
26.883333	1	0.339500
26.900000	1	0.335875
26.916667	1	0.332750
26.933333	1	0.330125
26.950000	1	0.327500
26.966667	1	0.324875
26.983333	1	0.322500
27.000000	1	0.321000
27.016667	1	0.319625
27.033333	1	0.318500
27.050000	1	0.316875
27.066667	1	0.315750
27.083333	1	0.315500
27.100000	1	0.315625
27.116667	1	0.315875
27.133333	1	0.317125
27.150000	1	0.318875
27.166667	1	0.321500
27.183333	1	0.324875
27.200000	1	0.329250
27.216667	1	0.335250
27.233333	1	0.342375
27.250000	1	0.351000
27.266667	1	0.362000
27.283333	1	0.374375
27.300000	1	0.389125
27.316667	1	0.407375
27.333333	1	0.429375
27.350000	1	0.455875
27.366667	1	0.487375
27.383333	1	0.524875
27.400000	1	0.568625
27.416667	1	0.619500
27.433333	1	0.678250
27.450000	1	0.746875
27.466667	1	0.824750
27.483333	1	0.913875
27.500000	1	1.014000
27.516667	1	1.127125
27.533333	1	1.251625
27.550000	1	1.388875
27.566667	1	1.538250
27.583333	1	1.699125
27.600000	1	1.872250
27.616667	1	2.054750
27.633333	1	2.246000
27.650000	1	2.444125
27.666667	1	2.647000
27.683333	1	2.853500
27.700000	1	3.060375
27.716667	1	3.263875
27.733333	1	3.460500
27.750000	1	3.648500
27.766667	1	3.823875
27.783333	1	3.983250
27.800000	1	4.124625
27.816667	1	4.246000
27.833333	1	4.344125
27.850000	1	4.417250
27.866667	1	4.464250
27.883333	1	4.484250
27.900000	1	4.477375
27.916667	1	4.443750
27.933333	1	4.384875
27.950000	1	4.302250
27.966667	1	4.197875
27.983333	1	4.074375
28.000000	1	3.935000
28.016667	1	3.780625
28.033333	1	3.615375
28.050000	1	3.441375
28.066667	1	3.262250
28.083333	1	3.081125
28.100000	1	2.899125
28.116667	1	2.719000
28.133333	1	2.543125
28.150000	1	2.372375
28.166667	1	2.208875
28.183333	1	2.052500
28.200000	1	1.905750
28.216667	1	1.768000
28.233333	1	1.638750
28.250000	1	1.519000
28.266667	1	1.407125
28.283333	1	1.304000
28.300000	1	1.209250
28.316667	1	1.123250
28.333333	1	1.044250
28.350000	1	0.972750
28.366667	1	0.908875
28.383333	1	0.850875
28.400000	1	0.800125
28.416667	1	0.754125
28.433333	1	0.713625
28.450000	1	0.678250
28.466667	1	0.647750
28.483333	1	0.620625
28.500000	1	0.597875
28.516667	1	0.578750
28.533333	1	0.563000
28.550000	1	0.550375
28.566667	1	0.540875
28.583333	1	0.533750
28.600000	1	0.529500
28.616667	1	0.527500
28.633333	1	0.527875
28.650000	1	0.528750
28.666667	1	0.531625
28.683333	1	0.536125
28.700000	1	0.541750
28.716667	1	0.548000
28.733333	1	0.554500
28.750000	1	0.561375
28.766667	1	0.569250
28.783333	1	0.577500
28.800000	1	0.584625
28.816667	1	0.592250
28.833333	1	0.599500
28.850000	1	0.607125
28.866667	1	0.613375
28.883333	1	0.618875
28.900000	1	0.623375
28.916667	1	0.627250
28.933333	1	0.629500
28.950000	1	0.630375
28.966667	1	0.630375
28.983333	1	0.629375
29.000000	1	0.626500
29.016667	1	0.622750
29.033333	1	0.616750
29.050000	1	0.608875
29.066667	1	0.600500
29.083333	1	0.589625
29.100000	1	0.577500
29.116667	1	0.563125
29.133333	1	0.546750
29.150000	1	0.528125
29.166667	1	0.508125
29.183333	1	0.484875
29.200000	1	0.459750
29.216667	1	0.431875
29.233333	1	0.401375
29.250000	1	0.368500
29.266667	1	0.333875
29.283333	1	0.295750
29.300000	1	0.254750
29.316667	1	0.211375
29.333333	1	0.164875
29.350000	1	0.115750
29.366667	1	0.064500
29.383333	1	0.010375
29.400000	1	-0.045750
29.416667	1	-0.103875
29.433333	1	-0.163625
29.450000	1	-0.224625
29.466667	1	-0.287250
29.483333	1	-0.350000
29.500000	1	-0.413375
29.516667	1	-0.477000
29.533333	1	-0.539500
29.550000	1	-0.600500
29.566667	1	-0.659250
29.583333	1	-0.715875
29.600000	1	-0.769750
29.616667	1	-0.820125
29.633333	1	-0.866125
29.650000	1	-0.908625
29.666667	1	-0.945375
29.683333	1	-0.977375
29.700000	1	-1.004625
29.716667	1	-1.026125
29.733333	1	-1.041875
29.750000	1	-1.051375
29.766667	1	-1.055750
29.783333	1	-1.055000
29.800000	1	-1.048500
29.816667	1	-1.037125
29.833333	1	-1.020500
29.850000	1	-0.999000
29.866667	1	-0.973250
29.883333	1	-0.944625
29.900000	1	-0.911125
29.916667	1	-0.875375
29.933333	1	-0.837375
29.950000	1	-0.797875
29.966667	1	-0.756000
29.983333	1	-0.712875
30.000000	1	-0.670125
30.016667	1	-0.625875
30.033333	1	-0.582000
30.050000	1	-0.538375
30.066667	1	-0.495500
30.083333	1	-0.453250
30.100000	1	-0.412750
30.116667	1	-0.372625
30.133333	1	-0.334500
30.150000	1	-0.297875
30.166667	1	-0.263375
30.183333	1	-0.229375
30.200000	1	-0.198125
30.216667	1	-0.168500
30.233333	1	-0.140000
30.250000	1	-0.114000
30.266667	1	-0.089500
30.283333	1	-0.066625
30.300000	1	-0.045625
30.316667	1	-0.025500
30.333333	1	-0.007750
30.350000	1	0.009125
30.366667	1	0.025250
30.383333	1	0.039250
30.400000	1	0.052625
30.416667	1	0.065375
30.433333	1	0.076750
30.450000	1	0.087125
30.466667	1	0.097125
30.483333	1	0.106750
30.500000	1	0.116125
30.516667	1	0.125250
30.533333	1	0.134750
30.550000	1	0.143375
30.566667	1	0.153125
30.583333	1	0.161000
30.600000	1	0.169375
30.616667	1	0.178125
30.633333	1	0.186625
30.650000	1	0.195375
30.666667	1	0.205000
30.683333	1	0.213875
30.700000	1	0.223625
30.716667	1	0.233500
30.733333	1	0.243000
30.750000	1	0.252500
30.766667	1	0.262750
30.783333	1	0.272250
30.800000	1	0.283375
30.816667	1	0.295125
30.833333	1	0.305625
30.850000	1	0.316500
30.866667	1	0.327500
30.883333	1	0.339750
30.900000	1	0.352375
30.916667	1	0.365625
30.933333	1	0.378500
30.950000	1	0.392875
30.966667	1	0.407875
30.983333	1	0.425125
31.000000	1	0.444125
31.016667	1	0.465625
31.033333	1	0.490125
31.050000	1	0.517750
31.066667	1	0.549625
31.083333	1	0.586000
31.100000	1	0.627875
31.116667	1	0.675125
31.133333	1	0.728500
31.150000	1	0.790125
31.166667	1	0.860500
31.183333	1	0.940000
31.200000	1	1.028000
31.216667	1	1.126125
31.233333	1	1.236000
31.250000	1	1.356000
31.266667	1	1.486875
31.283333	1	1.629125
31.300000	1	1.781250
31.316667	1	1.943000
31.333333	1	2.113875
31.350000	1	2.292750
31.366667	1	2.478000
31.383333	1	2.668500
31.400000	1	2.861750
31.416667	1	3.057625
31.433333	1	3.251250
31.450000	1	3.442000
31.466667	1	3.626250
31.483333	1	3.802875
31.500000	1	3.969250
31.516667	1	4.122500
31.533333	1	4.260250
31.550000	1	4.382500
31.566667	1	4.486500
31.583333	1	4.571500
31.600000	1	4.636500
31.616667	1	4.680250
31.633333	1	4.702625
31.650000	1	4.703625
31.666667	1	4.684000
31.683333	1	4.644750
31.700000	1	4.585500
31.716667	1	4.509625
31.733333	1	4.416250
31.750000	1	4.308875
31.766667	1	4.187875
31.783333	1	4.056000
31.800000	1	3.914500
31.816667	1	3.765750
31.833333	1	3.611000
31.850000	1	3.451750
31.866667	1	3.291375
31.883333	1	3.130000
31.900000	1	2.968375
31.916667	1	2.808750
31.933333	1	2.652500
31.950000	1	2.500000
31.966667	1	2.352125
31.983333	1	2.208500
32.000000	1	2.069750
32.016667	1	1.937000
32.033333	1	1.810625
32.050000	1	1.689625
32.066667	1	1.574750
32.083333	1	1.466625
32.100000	1	1.364000
32.116667	1	1.267625
32.133333	1	1.176625
32.150000	1	1.091500
32.166667	1	1.011625
32.183333	1	0.937250
32.200000	1	0.866750
32.216667	1	0.801625
32.233333	1	0.740750
32.250000	1	0.683625
32.266667	1	0.630500
32.283333	1	0.580875
32.300000	1	0.536000
32.316667	1	0.493375
32.333333	1	0.453625
32.350000	1	0.417000
32.366667	1	0.383250
32.383333	1	0.351750
32.400000	1	0.322750
32.416667	1	0.296125
32.433333	1	0.271875
32.450000	1	0.247750
32.466667	1	0.226750
32.483333	1	0.207250
32.500000	1	0.189125
32.516667	1	0.172250
32.533333	1	0.157500
32.550000	1	0.143625
32.566667	1	0.131000
32.583333	1	0.118375
32.600000	1	0.107250
32.616667	1	0.097375
32.633333	1	0.088250
32.650000	1	0.079125
32.666667	1	0.070875
32.683333	1	0.063375
32.700000	1	0.056750
32.716667	1	0.050750
32.733333	1	0.045375
32.750000	1	0.041250
32.766667	1	0.037000
32.783333	1	0.033625
32.800000	1	0.030000
32.816667	1	0.027625
32.833333	1	0.024625
32.850000	1	0.022625
32.866667	1	0.020875
32.883333	1	0.019875
32.900000	1	0.018500
32.916667	1	0.018125
32.933333	1	0.017000
32.950000	1	0.016375
32.966667	1	0.015875
32.983333	1	0.015875
33.000000	1	0.016000
33.016667	1	0.016875
33.033333	1	0.017625
33.050000	1	0.017875
33.066667	1	0.018625
33.083333	1	0.019000
33.100000	1	0.019500
33.116667	1	0.019875
33.133333	1	0.020250
33.150000	1	0.021375
33.166667	1	0.022375
33.183333	1	0.023625
33.200000	1	0.024375
33.216667	1	0.025375
33.233333	1	0.025375
33.250000	1	0.026000
33.266667	1	0.027375
33.283333	1	0.027750
33.300000	1	0.029250
33.316667	1	0.030250
33.333333	1	0.031000
33.350000	1	0.031875
33.366667	1	0.033875
33.383333	1	0.035625
33.400000	1	0.037375
33.416667	1	0.039125
33.433333	1	0.041625
33.450000	1	0.042875
33.466667	1	0.044750
33.483333	1	0.047125
33.500000	1	0.049250
33.516667	1	0.051250
33.533333	1	0.053750
33.550000	1	0.056625
33.566667	1	0.059375
33.583333	1	0.062000
33.600000	1	0.065000
33.616667	1	0.068500
33.633333	1	0.071750
33.650000	1	0.075375
33.666667	1	0.079625
33.683333	1	0.083875
33.700000	1	0.087750
33.716667	1	0.091250
33.733333	1	0.095500
33.750000	1	0.100250
33.766667	1	0.105250
33.783333	1	0.110250
33.800000	1	0.114000
33.816667	1	0.118250
33.833333	1	0.122375
33.850000	1	0.126750
33.866667	1	0.130250
33.883333	1	0.134250
33.900000	1	0.138375
33.916667	1	0.141875
33.933333	1	0.145125
33.950000	1	0.148000
33.966667	1	0.151000
33.983333	1	0.153625
34.000000	1	0.156125
34.016667	1	0.157625
34.033333	1	0.159375
34.050000	1	0.160125
34.066667	1	0.161250
34.083333	1	0.162250
34.100000	1	0.163250
34.116667	1	0.163250
34.133333	1	0.163000
34.150000	1	0.162500
34.166667	1	0.161625
34.183333	1	0.160625
34.200000	1	0.159625
34.216667	1	0.158375
34.233333	1	0.156875
34.250000	1	0.155375
34.266667	1	0.154000
34.283333	1	0.152500
34.300000	1	0.150875
34.316667	1	0.148750
34.333333	1	0.146875
34.350000	1	0.145625
34.366667	1	0.144750
34.383333	1	0.143625
34.400000	1	0.142000
34.416667	1	0.141875
34.433333	1	0.140875
34.450000	1	0.140500
34.466667	1	0.140250
34.483333	1	0.140000
34.500000	1	0.140250
34.516667	1	0.139875
34.533333	1	0.139750
34.550000	1	0.141000
34.566667	1	0.141625
34.583333	1	0.142250
34.600000	1	0.142625
34.616667	1	0.142875
34.633333	1	0.144125
34.650000	1	0.144000
34.666667	1	0.145375
34.683333	1	0.146375
34.700000	1	0.146875
34.716667	1	0.147375
34.733333	1	0.148000
34.750000	1	0.148625
34.766667	1	0.149000
34.783333	1	0.148875
34.800000	1	0.148375
34.816667	1	0.148375
34.833333	1	0.147875
34.850000	1	0.147125
34.866667	1	0.146125
34.883333	1	0.145500
34.900000	1	0.144750
34.916667	1	0.142875
34.933333	1	0.141375
34.950000	1	0.139125
34.966667	1	0.137500
34.983333	1	0.135750
35.000000	1	0.133375
35.016667	1	0.131500
35.033333	1	0.129375
35.050000	1	0.126000
35.066667	1	0.123000
35.083333	1	0.120625
35.100000	1	0.117375
35.116667	1	0.115250
35.133333	1	0.113250
35.150000	1	0.110875
35.166667	1	0.109000
35.183333	1	0.106500
35.200000	1	0.103875
35.216667	1	0.102125
35.233333	1	0.100375
35.250000	1	0.098625
35.266667	1	0.097125
35.283333	1	0.095875
35.300000	1	0.094750
35.316667	1	0.094000
35.333333	1	0.094125
35.350000	1	0.093625
35.366667	1	0.093125
35.383333	1	0.092750
35.400000	1	0.092250
35.416667	1	0.092375
35.433333	1	0.092375
35.450000	1	0.092375
35.466667	1	0.093250
35.483333	1	0.093125
35.500000	1	0.093500
35.516667	1	0.093875
35.533333	1	0.094500
35.550000	1	0.095500
35.566667	1	0.096000
35.583333	1	0.096625
35.600000	1	0.097375
35.616667	1	0.098000
35.633333	1	0.098500
35.650000	1	0.099625
35.666667	1	0.100375
35.683333	1	0.101750
35.700000	1	0.102625
35.716667	1	0.104125
35.733333	1	0.105500
35.750000	1	0.106375
35.766667	1	0.107375
35.783333	1	0.109125
35.800000	1	0.110125
35.816667	1	0.111750
35.833333	1	0.113875
35.850000	1	0.116000
35.866667	1	0.118250
35.883333	1	0.120000
35.900000	1	0.122250
35.916667	1	0.124250
35.933333	1	0.126000
35.950000	1	0.128125
35.966667	1	0.130625
35.983333	1	0.132500
36.000000	1	0.135500
36.016667	1	0.137375
36.033333	1	0.138875
36.050000	1	0.140250
36.066667	1	0.142625
36.083333	1	0.144500
36.100000	1	0.146750
36.116667	1	0.148750
36.133333	1	0.150125
36.150000	1	0.151750
36.166667	1	0.153625
36.183333	1	0.155500
36.200000	1	0.157000
36.216667	1	0.158750
36.233333	1	0.160500
36.250000	1	0.162750
36.266667	1	0.164000
36.283333	1	0.165375
36.300000	1	0.166250
36.316667	1	0.167625
36.333333	1	0.168875
36.350000	1	0.170750
36.366667	1	0.172125
36.383333	1	0.173625
36.400000	1	0.174625
36.416667	1	0.176000
36.433333	1	0.176750
36.450000	1	0.177375
36.466667	1	0.178375
36.483333	1	0.179500
36.500000	1	0.180000
36.516667	1	0.180875
36.533333	1	0.181500
36.550000	1	0.181875
36.566667	1	0.182125
36.583333	1	0.182875
36.600000	1	0.182875
36.616667	1	0.182750
36.633333	1	0.182500
36.650000	1	0.181500
36.666667	1	0.180750
36.683333	1	0.180375
36.700000	1	0.180125
36.716667	1	0.179125
36.733333	1	0.177500
36.750000	1	0.176000
36.766667	1	0.174250
36.783333	1	0.173375
36.800000	1	0.172375
36.816667	1	0.171000
36.833333	1	0.169875
36.850000	1	0.168500
36.866667	1	0.167750
36.883333	1	0.166500
36.900000	1	0.165375
36.916667	1	0.163625
36.933333	1	0.163125
36.950000	1	0.162500
36.966667	1	0.161000
36.983333	1	0.159500
37.000000	1	0.158625
37.016667	1	0.157875
37.033333	1	0.156625
37.050000	1	0.155500
37.066667	1	0.154125
37.083333	1	0.153625
37.100000	1	0.152625
37.116667	1	0.151875
37.133333	1	0.151125
37.150000	1	0.151125
37.166667	1	0.150375
37.183333	1	0.149375
37.200000	1	0.147875
37.216667	1	0.146750
37.233333	1	0.146000
37.250000	1	0.145750
37.266667	1	0.145375
37.283333	1	0.144250
37.300000	1	0.142750
37.316667	1	0.141875
37.333333	1	0.141000
37.350000	1	0.140125
37.366667	1	0.139375
37.383333	1	0.138250
37.400000	1	0.137625
37.416667	1	0.137125
37.433333	1	0.136000
37.450000	1	0.134750
37.466667	1	0.134500
37.483333	1	0.133750
37.500000	1	0.132625
37.516667	1	0.132000
37.533333	1	0.131000
37.550000	1	0.129625
37.566667	1	0.129000
37.583333	1	0.128250
37.600000	1	0.127250
37.616667	1	0.125625
37.633333	1	0.124375
37.650000	1	0.123625
37.666667	1	0.121875
37.683333	1	0.120250
37.700000	1	0.118750
37.716667	1	0.117375
37.733333	1	0.115625
37.750000	1	0.113875
37.766667	1	0.112125
37.783333	1	0.110125
37.800000	1	0.108500
37.816667	1	0.106500
37.833333	1	0.104375
37.850000	1	0.102875
37.866667	1	0.100625
37.883333	1	0.098625
37.900000	1	0.096500
37.916667	1	0.094625
37.933333	1	0.092000
37.950000	1	0.090500
37.966667	1	0.089250
37.983333	1	0.087500
38.000000	1	0.085875
38.016667	1	0.084625
38.033333	1	0.083875
38.050000	1	0.083125
38.066667	1	0.083000
38.083333	1	0.082750
38.100000	1	0.082125
38.116667	1	0.081750
38.133333	1	0.081750
38.150000	1	0.082125
38.166667	1	0.082875
38.183333	1	0.083500
38.200000	1	0.084250
38.216667	1	0.085375
38.233333	1	0.086750
38.250000	1	0.087500
38.266667	1	0.090125
38.283333	1	0.091625
38.300000	1	0.093625
38.316667	1	0.096000
38.333333	1	0.098375
38.350000	1	0.101125
38.366667	1	0.104250
38.383333	1	0.106500
38.400000	1	0.109375
38.416667	1	0.112750
38.433333	1	0.116500
38.450000	1	0.120375
38.466667	1	0.124750
38.483333	1	0.128875
38.500000	1	0.132750
38.516667	1	0.136750
38.533333	1	0.140500
38.550000	1	0.144250
38.566667	1	0.148750
38.583333	1	0.152750
38.600000	1	0.156000
38.616667	1	0.159375
38.633333	1	0.162125
38.650000	1	0.165250
38.666667	1	0.168000
38.683333	1	0.170750
38.700000	1	0.172750
38.716667	1	0.175000
38.733333	1	0.176625
38.750000	1	0.177125
38.766667	1	0.177625
38.783333	1	0.177875
38.800000	1	0.177625
38.816667	1	0.176500
38.833333	1	0.175750
38.850000	1	0.174500
38.866667	1	0.173625
38.883333	1	0.172375
38.900000	1	0.169875
38.916667	1	0.167750
38.933333	1	0.165375
38.950000	1	0.161875
38.966667	1	0.159375
38.983333	1	0.156250
39.000000	1	0.154000
39.016667	1	0.151375
39.033333	1	0.148125
39.050000	1	0.145000
39.066667	1	0.142125
39.083333	1	0.139250
39.100000	1	0.136125
39.116667	1	0.132875
39.133333	1	0.130000
39.150000	1	0.127250
39.166667	1	0.124500
39.183333	1	0.122250
39.200000	1	0.119250
39.216667	1	0.116500
39.233333	1	0.113750
39.250000	1	0.111875
39.266667	1	0.109625
39.283333	1	0.107375
39.300000	1	0.105500
39.316667	1	0.103375
39.333333	1	0.101250
39.350000	1	0.098750
39.366667	1	0.097250
39.383333	1	0.095125
39.400000	1	0.093000
39.416667	1	0.090375
39.433333	1	0.087250
39.450000	1	0.085250
39.466667	1	0.082375
39.483333	1	0.080000
39.500000	1	0.077375
39.516667	1	0.075000
39.533333	1	0.072625
39.550000	1	0.069625
39.566667	1	0.067500
39.583333	1	0.064375
39.600000	1	0.061625
39.616667	1	0.059375
39.633333	1	0.057250
39.650000	1	0.054500
39.666667	1	0.052000
39.683333	1	0.049750
39.700000	1	0.047500
39.716667	1	0.045500
39.733333	1	0.043250
39.750000	1	0.041625
39.766667	1	0.039125
39.783333	1	0.036875
39.800000	1	0.035125
39.816667	1	0.034000
39.833333	1	0.033375
39.850000	1	0.032625
39.866667	1	0.031750
39.883333	1	0.031500
39.900000	1	0.031000
39.916667	1	0.030000
39.933333	1	0.030000
39.950000	1	0.030250
39.966667	1	0.029875
39.983333	1	0.030125
40.000000	1	0.030500
