URL	chrom://7040-86g6c92/XVault/Ultimate_3000/20/20240517_CMO_FP23_FP25_MarkusDeplate.seq/758.smp/RI_1.channel/RI_1.chm
Channel	RI_1

Injection Information:
Data Vault	XVault
Sequence	20240517_CMO_FP23_FP25_MarkusDeplate
Name	FP25_21_s5
Number	78
Position	BG6
Comment	
Processing Method	
Instrument Method	run_25B_method
Type	Unknown
Status	Finished
Inject Time	29.05.2024 23:17:52 +02:00
Volume (µl)	20.0000
Dilution Factor	1.0000
Weight	1.0000

Chromatogram Data Information:
Time Min. (min)	0.000000
Time Max. (min)	40.000000
Data Points	2401
Detector	RI
Generating Data System	Chromeleon 7.3.2.11814
Exporting Data System	Chromeleon 7.3.2.0
Operator	Instrument Controller
Signal Quantity	Refractive 
Signal Unit	µRIU
Signal Min.	-0.621250
Signal Max.	55.982500
Channel	RI_1
Driver Name	RID520Driver.dll
Channel Type	Evaluation
Min. Step (s)	1
Max. Step (s)	1
Average Step (s)	1

Signal Parameter Information:
Signal Info	

Chromatogram Data:
Time (min)	Step (s)	Value (µRIU)
0.000000	n.a.	-0.011875
0.016667	1	-0.010875
0.033333	1	-0.010125
0.050000	1	-0.009375
0.066667	1	-0.007500
0.083333	1	-0.006250
0.100000	1	-0.004500
0.116667	1	-0.002875
0.133333	1	-0.002375
0.150000	1	-0.001375
0.166667	1	0.000000
0.183333	1	0.001125
0.200000	1	0.002375
0.216667	1	0.004375
0.233333	1	0.006125
0.250000	1	0.008000
0.266667	1	0.008750
0.283333	1	0.010000
0.300000	1	0.011875
0.316667	1	0.012875
0.333333	1	0.014250
0.350000	1	0.014875
0.366667	1	0.014875
0.383333	1	0.015000
0.400000	1	0.015250
0.416667	1	0.015625
0.433333	1	0.017125
0.450000	1	0.019375
0.466667	1	0.021250
0.483333	1	0.023000
0.500000	1	0.024625
0.516667	1	0.024500
0.533333	1	0.024875
0.550000	1	0.024250
0.566667	1	0.023500
0.583333	1	0.021500
0.600000	1	0.018375
0.616667	1	0.015875
0.633333	1	0.013750
0.650000	1	0.012250
0.666667	1	0.010875
0.683333	1	0.010125
0.700000	1	0.009125
0.716667	1	0.009000
0.733333	1	0.008500
0.750000	1	0.008000
0.766667	1	0.007625
0.783333	1	0.007125
0.800000	1	0.007375
0.816667	1	0.007375
0.833333	1	0.007625
0.850000	1	0.008000
0.866667	1	0.008625
0.883333	1	0.009250
0.900000	1	0.009250
0.916667	1	0.009750
0.933333	1	0.010250
0.950000	1	0.011000
0.966667	1	0.011250
0.983333	1	0.012125
1.000000	1	0.012875
1.016667	1	0.013250
1.033333	1	0.013875
1.050000	1	0.014250
1.066667	1	0.015750
1.083333	1	0.016875
1.100000	1	0.017500
1.116667	1	0.017875
1.133333	1	0.018375
1.150000	1	0.018750
1.166667	1	0.019250
1.183333	1	0.019500
1.200000	1	0.019500
1.216667	1	0.020500
1.233333	1	0.021000
1.250000	1	0.021250
1.266667	1	0.021250
1.283333	1	0.021250
1.300000	1	0.021375
1.316667	1	0.022000
1.333333	1	0.022375
1.350000	1	0.021750
1.366667	1	0.021500
1.383333	1	0.021250
1.400000	1	0.021000
1.416667	1	0.021000
1.433333	1	0.021375
1.450000	1	0.021500
1.466667	1	0.021250
1.483333	1	0.020875
1.500000	1	0.021000
1.516667	1	0.021000
1.533333	1	0.020875
1.550000	1	0.020875
1.566667	1	0.021125
1.583333	1	0.021625
1.600000	1	0.021875
1.616667	1	0.022000
1.633333	1	0.022750
1.650000	1	0.023250
1.666667	1	0.023875
1.683333	1	0.025500
1.700000	1	0.026375
1.716667	1	0.027125
1.733333	1	0.027750
1.750000	1	0.028875
1.766667	1	0.029375
1.783333	1	0.030250
1.800000	1	0.031000
1.816667	1	0.032375
1.833333	1	0.033625
1.850000	1	0.034375
1.866667	1	0.034875
1.883333	1	0.035500
1.900000	1	0.035875
1.916667	1	0.037250
1.933333	1	0.037375
1.950000	1	0.037375
1.966667	1	0.038000
1.983333	1	0.038000
2.000000	1	0.038000
2.016667	1	0.038000
2.033333	1	0.038250
2.050000	1	0.037750
2.066667	1	0.036875
2.083333	1	0.036125
2.100000	1	0.035125
2.116667	1	0.033875
2.133333	1	0.032125
2.150000	1	0.030500
2.166667	1	0.029625
2.183333	1	0.027875
2.200000	1	0.026625
2.216667	1	0.025500
2.233333	1	0.023250
2.250000	1	0.021375
2.266667	1	0.018750
2.283333	1	0.016875
2.300000	1	0.014750
2.316667	1	0.012750
2.333333	1	0.010875
2.350000	1	0.008125
2.366667	1	0.005125
2.383333	1	0.002500
2.400000	1	-0.000250
2.416667	1	-0.002625
2.433333	1	-0.004875
2.450000	1	-0.006500
2.466667	1	-0.008750
2.483333	1	-0.010875
2.500000	1	-0.012250
2.516667	1	-0.014250
2.533333	1	-0.016500
2.550000	1	-0.018500
2.566667	1	-0.020125
2.583333	1	-0.021625
2.600000	1	-0.022750
2.616667	1	-0.024000
2.633333	1	-0.024500
2.650000	1	-0.025125
2.666667	1	-0.025625
2.683333	1	-0.025625
2.700000	1	-0.026000
2.716667	1	-0.026500
2.733333	1	-0.026625
2.750000	1	-0.026625
2.766667	1	-0.026125
2.783333	1	-0.026375
2.800000	1	-0.025500
2.816667	1	-0.024875
2.833333	1	-0.023625
2.850000	1	-0.023250
2.866667	1	-0.022125
2.883333	1	-0.020500
2.900000	1	-0.019000
2.916667	1	-0.017250
2.933333	1	-0.015125
2.950000	1	-0.013375
2.966667	1	-0.011000
2.983333	1	-0.009250
3.000000	1	-0.006875
3.016667	1	-0.004375
3.033333	1	-0.001750
3.050000	1	0.000875
3.066667	1	0.003000
3.083333	1	0.005875
3.100000	1	0.008500
3.116667	1	0.011125
3.133333	1	0.013500
3.150000	1	0.015625
3.166667	1	0.017875
3.183333	1	0.020000
3.200000	1	0.022125
3.216667	1	0.024375
3.233333	1	0.026250
3.250000	1	0.027750
3.266667	1	0.029250
3.283333	1	0.030125
3.300000	1	0.031500
3.316667	1	0.031625
3.333333	1	0.032750
3.350000	1	0.033500
3.366667	1	0.034375
3.383333	1	0.034250
3.400000	1	0.034875
3.416667	1	0.035250
3.433333	1	0.036000
3.450000	1	0.036250
3.466667	1	0.036625
3.483333	1	0.037625
3.500000	1	0.038000
3.516667	1	0.037875
3.533333	1	0.038875
3.550000	1	0.039625
3.566667	1	0.040250
3.583333	1	0.041000
3.600000	1	0.041000
3.616667	1	0.042250
3.633333	1	0.043375
3.650000	1	0.044375
3.666667	1	0.044875
3.683333	1	0.045125
3.700000	1	0.046000
3.716667	1	0.047625
3.733333	1	0.048875
3.750000	1	0.049875
3.766667	1	0.050750
3.783333	1	0.052125
3.800000	1	0.053125
3.816667	1	0.054625
3.833333	1	0.055250
3.850000	1	0.056875
3.866667	1	0.057875
3.883333	1	0.059000
3.900000	1	0.059375
3.916667	1	0.060500
3.933333	1	0.061875
3.950000	1	0.063250
3.966667	1	0.063250
3.983333	1	0.063500
4.000000	1	0.063875
4.016667	1	0.064375
4.033333	1	0.065625
4.050000	1	0.065875
4.066667	1	0.066375
4.083333	1	0.066875
4.100000	1	0.066750
4.116667	1	0.066750
4.133333	1	0.067000
4.150000	1	0.066875
4.166667	1	0.067375
4.183333	1	0.067125
4.200000	1	0.067000
4.216667	1	0.066625
4.233333	1	0.066625
4.250000	1	0.066250
4.266667	1	0.066125
4.283333	1	0.065750
4.300000	1	0.066375
4.316667	1	0.065875
4.333333	1	0.065375
4.350000	1	0.064375
4.366667	1	0.064125
4.383333	1	0.064250
4.400000	1	0.064250
4.416667	1	0.064125
4.433333	1	0.063875
4.450000	1	0.063625
4.466667	1	0.063250
4.483333	1	0.064375
4.500000	1	0.064375
4.516667	1	0.064375
4.533333	1	0.064000
4.550000	1	0.064625
4.566667	1	0.065500
4.583333	1	0.066500
4.600000	1	0.067375
4.616667	1	0.068500
4.633333	1	0.070250
4.650000	1	0.071750
4.666667	1	0.072750
4.683333	1	0.074125
4.700000	1	0.076125
4.716667	1	0.077875
4.733333	1	0.080000
4.750000	1	0.082125
4.766667	1	0.083625
4.783333	1	0.085500
4.800000	1	0.087750
4.816667	1	0.090000
4.833333	1	0.093000
4.850000	1	0.095250
4.866667	1	0.097375
4.883333	1	0.100125
4.900000	1	0.102750
4.916667	1	0.105125
4.933333	1	0.108125
4.950000	1	0.110750
4.966667	1	0.113875
4.983333	1	0.116750
5.000000	1	0.119125
5.016667	1	0.121625
5.033333	1	0.125000
5.050000	1	0.127750
5.066667	1	0.130625
5.083333	1	0.133500
5.100000	1	0.135875
5.116667	1	0.138625
5.133333	1	0.141500
5.150000	1	0.144375
5.166667	1	0.147125
5.183333	1	0.150125
5.200000	1	0.152750
5.216667	1	0.155500
5.233333	1	0.158000
5.250000	1	0.161125
5.266667	1	0.163875
5.283333	1	0.166500
5.300000	1	0.169125
5.316667	1	0.172500
5.333333	1	0.174375
5.350000	1	0.177625
5.366667	1	0.179625
5.383333	1	0.182750
5.400000	1	0.185750
5.416667	1	0.188750
5.433333	1	0.191625
5.450000	1	0.194750
5.466667	1	0.198250
5.483333	1	0.201625
5.500000	1	0.204875
5.516667	1	0.207750
5.533333	1	0.210875
5.550000	1	0.214000
5.566667	1	0.217875
5.583333	1	0.221625
5.600000	1	0.225375
5.616667	1	0.228750
5.633333	1	0.231500
5.650000	1	0.234250
5.666667	1	0.237375
5.683333	1	0.241000
5.700000	1	0.244125
5.716667	1	0.247625
5.733333	1	0.250750
5.750000	1	0.253625
5.766667	1	0.256875
5.783333	1	0.259625
5.800000	1	0.261625
5.816667	1	0.263750
5.833333	1	0.266375
5.850000	1	0.269250
5.866667	1	0.270250
5.883333	1	0.271250
5.900000	1	0.271625
5.916667	1	0.272750
5.933333	1	0.272875
5.950000	1	0.272500
5.966667	1	0.271875
5.983333	1	0.270625
6.000000	1	0.269750
6.016667	1	0.269000
6.033333	1	0.267000
6.050000	1	0.264500
6.066667	1	0.262750
6.083333	1	0.260375
6.100000	1	0.256500
6.116667	1	0.253750
6.133333	1	0.250375
6.150000	1	0.246250
6.166667	1	0.242625
6.183333	1	0.238500
6.200000	1	0.234375
6.216667	1	0.230250
6.233333	1	0.226250
6.250000	1	0.221125
6.266667	1	0.216500
6.283333	1	0.211750
6.300000	1	0.207000
6.316667	1	0.202375
6.333333	1	0.198000
6.350000	1	0.194000
6.366667	1	0.189625
6.383333	1	0.185625
6.400000	1	0.182000
6.416667	1	0.177875
6.433333	1	0.174625
6.450000	1	0.171500
6.466667	1	0.168250
6.483333	1	0.165125
6.500000	1	0.162875
6.516667	1	0.159750
6.533333	1	0.157250
6.550000	1	0.155250
6.566667	1	0.153375
6.583333	1	0.151375
6.600000	1	0.149625
6.616667	1	0.148000
6.633333	1	0.147000
6.650000	1	0.145875
6.666667	1	0.144250
6.683333	1	0.142875
6.700000	1	0.141500
6.716667	1	0.141375
6.733333	1	0.140375
6.750000	1	0.138875
6.766667	1	0.138250
6.783333	1	0.137625
6.800000	1	0.137250
6.816667	1	0.136250
6.833333	1	0.135625
6.850000	1	0.135500
6.866667	1	0.135125
6.883333	1	0.134625
6.900000	1	0.134250
6.916667	1	0.134000
6.933333	1	0.133375
6.950000	1	0.132750
6.966667	1	0.132375
6.983333	1	0.131875
7.000000	1	0.131875
7.016667	1	0.131375
7.033333	1	0.131375
7.050000	1	0.131375
7.066667	1	0.130875
7.083333	1	0.130750
7.100000	1	0.130125
7.116667	1	0.130250
7.133333	1	0.130875
7.150000	1	0.131750
7.166667	1	0.131875
7.183333	1	0.132750
7.200000	1	0.133750
7.216667	1	0.134125
7.233333	1	0.135750
7.250000	1	0.136500
7.266667	1	0.137625
7.283333	1	0.139375
7.300000	1	0.140375
7.316667	1	0.141750
7.333333	1	0.143625
7.350000	1	0.145500
7.366667	1	0.148000
7.383333	1	0.151000
7.400000	1	0.153250
7.416667	1	0.156000
7.433333	1	0.158500
7.450000	1	0.160750
7.466667	1	0.163125
7.483333	1	0.165000
7.500000	1	0.167250
7.516667	1	0.169375
7.533333	1	0.172125
7.550000	1	0.175250
7.566667	1	0.178000
7.583333	1	0.179875
7.600000	1	0.181750
7.616667	1	0.183625
7.633333	1	0.185250
7.650000	1	0.186625
7.666667	1	0.187500
7.683333	1	0.189000
7.700000	1	0.189750
7.716667	1	0.190375
7.733333	1	0.191500
7.750000	1	0.191875
7.766667	1	0.192125
7.783333	1	0.191375
7.800000	1	0.191500
7.816667	1	0.190875
7.833333	1	0.190500
7.850000	1	0.189625
7.866667	1	0.188375
7.883333	1	0.186875
7.900000	1	0.185375
7.916667	1	0.183250
7.933333	1	0.181750
7.950000	1	0.180000
7.966667	1	0.177125
7.983333	1	0.174500
8.000000	1	0.171750
8.016667	1	0.168500
8.033333	1	0.164625
8.050000	1	0.161750
8.066667	1	0.157125
8.083333	1	0.153625
8.100000	1	0.149875
8.116667	1	0.146250
8.133333	1	0.142125
8.150000	1	0.138625
8.166667	1	0.134500
8.183333	1	0.131000
8.200000	1	0.126750
8.216667	1	0.123125
8.233333	1	0.119375
8.250000	1	0.115625
8.266667	1	0.111875
8.283333	1	0.107625
8.300000	1	0.103875
8.316667	1	0.099625
8.333333	1	0.096000
8.350000	1	0.093250
8.366667	1	0.090000
8.383333	1	0.086625
8.400000	1	0.083375
8.416667	1	0.079625
8.433333	1	0.077500
8.450000	1	0.074250
8.466667	1	0.071750
8.483333	1	0.069125
8.500000	1	0.066750
8.516667	1	0.064375
8.533333	1	0.062625
8.550000	1	0.060375
8.566667	1	0.059125
8.583333	1	0.057375
8.600000	1	0.056250
8.616667	1	0.054750
8.633333	1	0.054000
8.650000	1	0.053125
8.666667	1	0.053000
8.683333	1	0.052750
8.700000	1	0.052125
8.716667	1	0.051375
8.733333	1	0.051250
8.750000	1	0.050750
8.766667	1	0.050500
8.783333	1	0.050250
8.800000	1	0.050125
8.816667	1	0.050625
8.833333	1	0.050500
8.850000	1	0.050750
8.866667	1	0.050125
8.883333	1	0.049625
8.900000	1	0.049750
8.916667	1	0.049625
8.933333	1	0.049875
8.950000	1	0.049625
8.966667	1	0.048875
8.983333	1	0.047625
9.000000	1	0.046750
9.016667	1	0.045250
9.033333	1	0.044375
9.050000	1	0.043625
9.066667	1	0.042375
9.083333	1	0.040875
9.100000	1	0.040375
9.116667	1	0.038750
9.133333	1	0.038000
9.150000	1	0.037250
9.166667	1	0.036625
9.183333	1	0.036250
9.200000	1	0.036000
9.216667	1	0.035000
9.233333	1	0.034125
9.250000	1	0.032500
9.266667	1	0.032125
9.283333	1	0.031750
9.300000	1	0.031625
9.316667	1	0.031625
9.333333	1	0.032000
9.350000	1	0.032500
9.366667	1	0.033000
9.383333	1	0.033625
9.400000	1	0.034000
9.416667	1	0.035500
9.433333	1	0.035625
9.450000	1	0.036625
9.466667	1	0.037375
9.483333	1	0.039000
9.500000	1	0.040625
9.516667	1	0.041375
9.533333	1	0.042625
9.550000	1	0.044500
9.566667	1	0.046000
9.583333	1	0.047250
9.600000	1	0.048375
9.616667	1	0.050500
9.633333	1	0.051875
9.650000	1	0.053500
9.666667	1	0.055125
9.683333	1	0.056875
9.700000	1	0.057875
9.716667	1	0.059500
9.733333	1	0.060250
9.750000	1	0.061250
9.766667	1	0.062000
9.783333	1	0.062500
9.800000	1	0.062750
9.816667	1	0.063250
9.833333	1	0.064000
9.850000	1	0.063875
9.866667	1	0.063125
9.883333	1	0.062250
9.900000	1	0.062500
9.916667	1	0.062625
9.933333	1	0.062125
9.950000	1	0.061625
9.966667	1	0.061000
9.983333	1	0.060375
10.000000	1	0.060375
10.016667	1	0.060500
10.033333	1	0.060875
10.050000	1	0.061375
10.066667	1	0.063125
10.083333	1	0.065375
10.100000	1	0.069000
10.116667	1	0.073125
10.133333	1	0.078125
10.150000	1	0.084500
10.166667	1	0.092375
10.183333	1	0.101000
10.200000	1	0.111625
10.216667	1	0.123625
10.233333	1	0.137250
10.250000	1	0.153375
10.266667	1	0.171625
10.283333	1	0.191750
10.300000	1	0.215125
10.316667	1	0.240875
10.333333	1	0.270000
10.350000	1	0.302250
10.366667	1	0.336500
10.383333	1	0.373500
10.400000	1	0.411250
10.416667	1	0.444000
10.433333	1	0.465500
10.450000	1	0.466500
10.466667	1	0.439250
10.483333	1	0.379875
10.500000	1	0.303625
10.516667	1	0.241125
10.533333	1	0.249500
10.550000	1	0.406375
10.566667	1	0.800000
10.583333	1	1.521000
10.600000	1	2.651625
10.616667	1	4.258375
10.633333	1	6.389000
10.650000	1	9.067250
10.666667	1	12.302625
10.683333	1	16.082125
10.700000	1	20.369750
10.716667	1	25.094750
10.733333	1	30.144750
10.750000	1	35.346000
10.766667	1	40.446750
10.783333	1	45.113500
10.800000	1	48.944125
10.816667	1	51.516375
10.833333	1	52.487125
10.850000	1	51.705125
10.866667	1	49.263125
10.883333	1	45.486875
10.900000	1	40.840250
10.916667	1	35.807250
10.933333	1	30.795500
10.950000	1	26.089625
10.966667	1	21.856750
10.983333	1	18.172000
11.000000	1	15.045250
11.016667	1	12.446250
11.033333	1	10.323375
11.050000	1	8.611625
11.066667	1	7.242250
11.083333	1	6.152125
11.100000	1	5.283750
11.116667	1	4.590625
11.133333	1	4.035625
11.150000	1	3.585750
11.166667	1	3.219500
11.183333	1	2.917750
11.200000	1	2.666625
11.216667	1	2.454875
11.233333	1	2.275500
11.250000	1	2.122500
11.266667	1	1.990000
11.283333	1	1.875000
11.300000	1	1.775375
11.316667	1	1.688000
11.333333	1	1.610625
11.350000	1	1.543375
11.366667	1	1.483750
11.383333	1	1.431125
11.400000	1	1.384250
11.416667	1	1.342875
11.433333	1	1.306250
11.450000	1	1.273625
11.466667	1	1.245000
11.483333	1	1.219250
11.500000	1	1.196500
11.516667	1	1.177000
11.533333	1	1.159000
11.550000	1	1.143750
11.566667	1	1.130750
11.583333	1	1.120250
11.600000	1	1.110750
11.616667	1	1.102625
11.633333	1	1.095250
11.650000	1	1.088875
11.666667	1	1.083875
11.683333	1	1.079875
11.700000	1	1.076125
11.716667	1	1.073375
11.733333	1	1.071750
11.750000	1	1.071000
11.766667	1	1.071375
11.783333	1	1.071500
11.800000	1	1.073000
11.816667	1	1.075500
11.833333	1	1.077875
11.850000	1	1.079875
11.866667	1	1.082125
11.883333	1	1.084875
11.900000	1	1.087500
11.916667	1	1.090750
11.933333	1	1.093500
11.950000	1	1.096500
11.966667	1	1.100750
11.983333	1	1.105375
12.000000	1	1.110375
12.016667	1	1.115000
12.033333	1	1.121250
12.050000	1	1.127250
12.066667	1	1.134375
12.083333	1	1.141375
12.100000	1	1.148875
12.116667	1	1.156000
12.133333	1	1.164125
12.150000	1	1.173750
12.166667	1	1.183625
12.183333	1	1.194750
12.200000	1	1.207125
12.216667	1	1.221750
12.233333	1	1.237875
12.250000	1	1.256750
12.266667	1	1.276750
12.283333	1	1.299750
12.300000	1	1.324500
12.316667	1	1.351625
12.333333	1	1.381500
12.350000	1	1.416000
12.366667	1	1.457750
12.383333	1	1.509500
12.400000	1	1.576875
12.416667	1	1.665750
12.433333	1	1.783250
12.450000	1	1.939000
12.466667	1	2.139750
12.483333	1	2.393625
12.500000	1	2.706750
12.516667	1	3.082625
12.533333	1	3.521000
12.550000	1	4.016500
12.566667	1	4.560625
12.583333	1	5.142375
12.600000	1	5.747250
12.616667	1	6.359375
12.633333	1	6.964750
12.650000	1	7.550500
12.666667	1	8.106500
12.683333	1	8.626875
12.700000	1	9.109750
12.716667	1	9.554625
12.733333	1	9.964375
12.750000	1	10.340250
12.766667	1	10.679125
12.783333	1	10.969000
12.800000	1	11.185375
12.816667	1	11.291875
12.833333	1	11.246375
12.850000	1	11.012500
12.866667	1	10.579500
12.883333	1	9.971500
12.900000	1	9.242250
12.916667	1	8.456750
12.933333	1	7.674250
12.950000	1	6.932500
12.966667	1	6.250125
12.983333	1	5.634750
13.000000	1	5.087000
13.016667	1	4.605750
13.033333	1	4.186250
13.050000	1	3.826125
13.066667	1	3.518500
13.083333	1	3.258000
13.100000	1	3.037375
13.116667	1	2.851750
13.133333	1	2.693875
13.150000	1	2.560500
13.166667	1	2.445000
13.183333	1	2.346250
13.200000	1	2.259375
13.216667	1	2.182375
13.233333	1	2.114375
13.250000	1	2.052000
13.266667	1	1.995500
13.283333	1	1.943250
13.300000	1	1.895750
13.316667	1	1.850875
13.333333	1	1.810250
13.350000	1	1.772000
13.366667	1	1.737250
13.383333	1	1.705000
13.400000	1	1.675375
13.416667	1	1.649000
13.433333	1	1.625500
13.450000	1	1.605625
13.466667	1	1.588875
13.483333	1	1.575250
13.500000	1	1.564500
13.516667	1	1.556625
13.533333	1	1.550750
13.550000	1	1.546375
13.566667	1	1.542750
13.583333	1	1.539000
13.600000	1	1.534125
13.616667	1	1.527750
13.633333	1	1.520125
13.650000	1	1.509500
13.666667	1	1.496375
13.683333	1	1.481375
13.700000	1	1.463375
13.716667	1	1.443625
13.733333	1	1.422625
13.750000	1	1.401000
13.766667	1	1.379125
13.783333	1	1.357625
13.800000	1	1.335875
13.816667	1	1.315250
13.833333	1	1.295250
13.850000	1	1.276250
13.866667	1	1.258500
13.883333	1	1.241375
13.900000	1	1.225000
13.916667	1	1.209000
13.933333	1	1.194250
13.950000	1	1.180125
13.966667	1	1.166250
13.983333	1	1.153125
14.000000	1	1.141000
14.016667	1	1.128500
14.033333	1	1.117250
14.050000	1	1.106625
14.066667	1	1.095250
14.083333	1	1.085375
14.100000	1	1.075875
14.116667	1	1.066125
14.133333	1	1.057250
14.150000	1	1.049000
14.166667	1	1.041625
14.183333	1	1.035125
14.200000	1	1.028750
14.216667	1	1.023625
14.233333	1	1.019375
14.250000	1	1.017000
14.266667	1	1.015500
14.283333	1	1.015500
14.300000	1	1.016375
14.316667	1	1.019500
14.333333	1	1.023875
14.350000	1	1.029875
14.366667	1	1.037875
14.383333	1	1.048250
14.400000	1	1.060750
14.416667	1	1.077250
14.433333	1	1.100500
14.450000	1	1.133000
14.466667	1	1.181500
14.483333	1	1.254750
14.500000	1	1.366000
14.516667	1	1.535500
14.533333	1	1.790750
14.550000	1	2.165500
14.566667	1	2.705500
14.583333	1	3.462625
14.600000	1	4.496500
14.616667	1	5.873375
14.633333	1	7.660000
14.650000	1	9.914250
14.666667	1	12.678375
14.683333	1	15.967500
14.700000	1	19.759500
14.716667	1	23.989875
14.733333	1	28.558500
14.750000	1	33.319875
14.766667	1	38.092125
14.783333	1	42.665000
14.800000	1	46.831875
14.816667	1	50.394250
14.833333	1	53.182625
14.850000	1	55.070125
14.866667	1	55.982500
14.883333	1	55.908625
14.900000	1	54.894625
14.916667	1	53.041000
14.933333	1	50.484875
14.950000	1	47.388125
14.966667	1	43.920750
14.983333	1	40.249250
15.000000	1	36.512125
15.016667	1	32.829500
15.033333	1	29.291750
15.050000	1	25.966500
15.066667	1	22.896875
15.083333	1	20.104250
15.100000	1	17.595250
15.116667	1	15.363500
15.133333	1	13.393250
15.150000	1	11.663750
15.166667	1	10.153875
15.183333	1	8.840125
15.200000	1	7.701750
15.216667	1	6.718125
15.233333	1	5.869625
15.250000	1	5.141125
15.266667	1	4.520125
15.283333	1	3.993500
15.300000	1	3.552625
15.316667	1	3.186125
15.333333	1	2.885625
15.350000	1	2.641125
15.366667	1	2.446875
15.383333	1	2.295125
15.400000	1	2.177375
15.416667	1	2.087250
15.433333	1	2.019250
15.450000	1	1.966625
15.466667	1	1.924375
15.483333	1	1.888250
15.500000	1	1.854250
15.516667	1	1.820250
15.533333	1	1.784625
15.550000	1	1.747000
15.566667	1	1.706375
15.583333	1	1.664500
15.600000	1	1.621125
15.616667	1	1.578125
15.633333	1	1.536000
15.650000	1	1.495000
15.666667	1	1.456250
15.683333	1	1.419500
15.700000	1	1.385250
15.716667	1	1.354125
15.733333	1	1.325750
15.750000	1	1.299125
15.766667	1	1.273875
15.783333	1	1.250250
15.800000	1	1.228500
15.816667	1	1.208750
15.833333	1	1.190375
15.850000	1	1.173250
15.866667	1	1.158125
15.883333	1	1.144625
15.900000	1	1.132625
15.916667	1	1.121500
15.933333	1	1.112875
15.950000	1	1.106000
15.966667	1	1.100625
15.983333	1	1.096375
16.000000	1	1.093125
16.016667	1	1.091125
16.033333	1	1.089875
16.050000	1	1.089375
16.066667	1	1.089375
16.083333	1	1.089125
16.100000	1	1.089000
16.116667	1	1.088625
16.133333	1	1.088500
16.150000	1	1.088000
16.166667	1	1.086500
16.183333	1	1.085625
16.200000	1	1.083875
16.216667	1	1.081125
16.233333	1	1.077750
16.250000	1	1.074375
16.266667	1	1.070125
16.283333	1	1.065250
16.300000	1	1.059500
16.316667	1	1.054375
16.333333	1	1.049000
16.350000	1	1.045125
16.366667	1	1.041125
16.383333	1	1.038250
16.400000	1	1.036500
16.416667	1	1.036875
16.433333	1	1.037500
16.450000	1	1.038750
16.466667	1	1.041750
16.483333	1	1.044125
16.500000	1	1.046875
16.516667	1	1.049750
16.533333	1	1.052125
16.550000	1	1.054000
16.566667	1	1.054250
16.583333	1	1.053750
16.600000	1	1.051875
16.616667	1	1.048625
16.633333	1	1.045000
16.650000	1	1.041125
16.666667	1	1.037125
16.683333	1	1.033750
16.700000	1	1.031750
16.716667	1	1.031375
16.733333	1	1.032000
16.750000	1	1.033625
16.766667	1	1.037250
16.783333	1	1.042250
16.800000	1	1.047625
16.816667	1	1.054125
16.833333	1	1.061375
16.850000	1	1.067500
16.866667	1	1.071625
16.883333	1	1.075125
16.900000	1	1.076875
16.916667	1	1.077000
16.933333	1	1.075000
16.950000	1	1.071875
16.966667	1	1.066625
16.983333	1	1.061125
17.000000	1	1.053250
17.016667	1	1.046000
17.033333	1	1.037875
17.050000	1	1.030125
17.066667	1	1.021875
17.083333	1	1.014500
17.100000	1	1.007875
17.116667	1	1.002250
17.133333	1	0.996875
17.150000	1	0.992125
17.166667	1	0.988125
17.183333	1	0.985000
17.200000	1	0.982625
17.216667	1	0.980750
17.233333	1	0.980250
17.250000	1	0.980000
17.266667	1	0.980625
17.283333	1	0.981125
17.300000	1	0.982875
17.316667	1	0.984500
17.333333	1	0.987125
17.350000	1	0.989875
17.366667	1	0.993125
17.383333	1	0.996875
17.400000	1	1.000250
17.416667	1	1.003250
17.433333	1	1.006500
17.450000	1	1.008125
17.466667	1	1.009000
17.483333	1	1.009375
17.500000	1	1.008000
17.516667	1	1.005625
17.533333	1	1.002250
17.550000	1	0.998125
17.566667	1	0.993125
17.583333	1	0.987125
17.600000	1	0.980500
17.616667	1	0.973000
17.633333	1	0.965000
17.650000	1	0.956750
17.666667	1	0.948250
17.683333	1	0.939875
17.700000	1	0.931375
17.716667	1	0.923250
17.733333	1	0.915625
17.750000	1	0.908875
17.766667	1	0.902250
17.783333	1	0.896875
17.800000	1	0.891500
17.816667	1	0.886625
17.833333	1	0.881750
17.850000	1	0.877625
17.866667	1	0.873750
17.883333	1	0.870625
17.900000	1	0.867250
17.916667	1	0.864000
17.933333	1	0.860125
17.950000	1	0.855750
17.966667	1	0.851625
17.983333	1	0.847125
18.000000	1	0.842750
18.016667	1	0.837875
18.033333	1	0.833250
18.050000	1	0.827625
18.066667	1	0.822875
18.083333	1	0.817250
18.100000	1	0.812750
18.116667	1	0.808625
18.133333	1	0.804500
18.150000	1	0.800375
18.166667	1	0.798125
18.183333	1	0.795500
18.200000	1	0.793875
18.216667	1	0.792375
18.233333	1	0.790750
18.250000	1	0.789125
18.266667	1	0.787250
18.283333	1	0.786000
18.300000	1	0.785125
18.316667	1	0.783375
18.333333	1	0.782000
18.350000	1	0.780750
18.366667	1	0.779750
18.383333	1	0.779500
18.400000	1	0.779250
18.416667	1	0.780125
18.433333	1	0.782000
18.450000	1	0.785250
18.466667	1	0.789000
18.483333	1	0.793500
18.500000	1	0.798000
18.516667	1	0.804500
18.533333	1	0.811000
18.550000	1	0.819000
18.566667	1	0.827375
18.583333	1	0.836125
18.600000	1	0.844500
18.616667	1	0.853000
18.633333	1	0.861250
18.650000	1	0.868125
18.666667	1	0.874625
18.683333	1	0.880750
18.700000	1	0.885625
18.716667	1	0.889000
18.733333	1	0.892000
18.750000	1	0.892625
18.766667	1	0.892250
18.783333	1	0.890000
18.800000	1	0.885875
18.816667	1	0.880125
18.833333	1	0.872750
18.850000	1	0.863250
18.866667	1	0.852125
18.883333	1	0.839750
18.900000	1	0.826375
18.916667	1	0.811750
18.933333	1	0.796500
18.950000	1	0.780000
18.966667	1	0.763750
18.983333	1	0.747000
19.000000	1	0.729750
19.016667	1	0.713875
19.033333	1	0.698250
19.050000	1	0.683875
19.066667	1	0.671000
19.083333	1	0.659875
19.100000	1	0.651625
19.116667	1	0.646500
19.133333	1	0.646875
19.150000	1	0.651875
19.166667	1	0.663000
19.183333	1	0.682250
19.200000	1	0.711125
19.216667	1	0.751125
19.233333	1	0.803500
19.250000	1	0.869750
19.266667	1	0.950750
19.283333	1	1.048125
19.300000	1	1.161875
19.316667	1	1.291375
19.333333	1	1.435250
19.350000	1	1.592125
19.366667	1	1.758375
19.383333	1	1.931250
19.400000	1	2.107375
19.416667	1	2.280625
19.433333	1	2.445875
19.450000	1	2.597625
19.466667	1	2.732625
19.483333	1	2.845375
19.500000	1	2.933750
19.516667	1	2.994500
19.533333	1	3.026875
19.550000	1	3.032000
19.566667	1	3.008750
19.583333	1	2.960375
19.600000	1	2.888375
19.616667	1	2.797000
19.633333	1	2.689500
19.650000	1	2.570250
19.666667	1	2.443500
19.683333	1	2.312125
19.700000	1	2.179125
19.716667	1	2.046875
19.733333	1	1.918000
19.750000	1	1.794625
19.766667	1	1.676500
19.783333	1	1.566000
19.800000	1	1.463250
19.816667	1	1.368375
19.833333	1	1.280750
19.850000	1	1.202500
19.866667	1	1.132875
19.883333	1	1.072875
19.900000	1	1.022375
19.916667	1	0.983375
19.933333	1	0.955875
19.950000	1	0.941625
19.966667	1	0.941750
19.983333	1	0.959125
20.000000	1	0.995250
20.016667	1	1.052250
20.033333	1	1.132875
20.050000	1	1.239125
20.066667	1	1.372500
20.083333	1	1.533250
20.100000	1	1.722250
20.116667	1	1.937125
20.133333	1	2.176250
20.150000	1	2.435375
20.166667	1	2.710500
20.183333	1	2.993750
20.200000	1	3.279000
20.216667	1	3.556125
20.233333	1	3.817500
20.250000	1	4.053250
20.266667	1	4.257500
20.283333	1	4.421625
20.300000	1	4.541375
20.316667	1	4.614000
20.333333	1	4.638000
20.350000	1	4.613125
20.366667	1	4.542875
20.383333	1	4.430500
20.400000	1	4.281375
20.416667	1	4.102625
20.433333	1	3.899250
20.450000	1	3.681375
20.466667	1	3.454500
20.483333	1	3.226625
20.500000	1	3.001875
20.516667	1	2.784875
20.533333	1	2.580375
20.550000	1	2.392000
20.566667	1	2.222875
20.583333	1	2.072750
20.600000	1	1.944500
20.616667	1	1.839000
20.633333	1	1.756750
20.650000	1	1.697000
20.666667	1	1.659250
20.683333	1	1.642750
20.700000	1	1.646500
20.716667	1	1.667500
20.733333	1	1.703875
20.750000	1	1.752125
20.766667	1	1.810250
20.783333	1	1.874125
20.800000	1	1.939500
20.816667	1	2.002625
20.833333	1	2.060625
20.850000	1	2.108250
20.866667	1	2.144250
20.883333	1	2.166625
20.900000	1	2.173250
20.916667	1	2.164625
20.933333	1	2.139125
20.950000	1	2.099125
20.966667	1	2.044125
20.983333	1	1.978125
21.000000	1	1.901750
21.016667	1	1.818625
21.033333	1	1.729875
21.050000	1	1.638375
21.066667	1	1.546125
21.083333	1	1.455000
21.100000	1	1.366375
21.116667	1	1.281750
21.133333	1	1.201625
21.150000	1	1.127250
21.166667	1	1.058125
21.183333	1	0.994250
21.200000	1	0.935000
21.216667	1	0.881125
21.233333	1	0.832875
21.250000	1	0.789750
21.266667	1	0.750875
21.283333	1	0.715875
21.300000	1	0.684250
21.316667	1	0.655875
21.333333	1	0.631125
21.350000	1	0.608875
21.366667	1	0.589750
21.383333	1	0.571875
21.400000	1	0.556500
21.416667	1	0.542500
21.433333	1	0.530625
21.450000	1	0.520375
21.466667	1	0.511250
21.483333	1	0.503625
21.500000	1	0.498625
21.516667	1	0.495125
21.533333	1	0.493500
21.550000	1	0.494125
21.566667	1	0.497375
21.583333	1	0.503500
21.600000	1	0.511625
21.616667	1	0.523750
21.633333	1	0.539000
21.650000	1	0.559125
21.666667	1	0.583625
21.683333	1	0.612250
21.700000	1	0.645500
21.716667	1	0.683500
21.733333	1	0.726000
21.750000	1	0.772250
21.766667	1	0.821875
21.783333	1	0.875125
21.800000	1	0.928750
21.816667	1	0.984000
21.833333	1	1.039000
21.850000	1	1.092375
21.866667	1	1.143375
21.883333	1	1.190750
21.900000	1	1.233125
21.916667	1	1.269500
21.933333	1	1.299625
21.950000	1	1.323000
21.966667	1	1.338500
21.983333	1	1.347250
22.000000	1	1.348250
22.016667	1	1.341875
22.033333	1	1.329000
22.050000	1	1.310750
22.066667	1	1.287250
22.083333	1	1.259250
22.100000	1	1.228000
22.116667	1	1.193750
22.133333	1	1.157625
22.150000	1	1.120625
22.166667	1	1.083625
22.183333	1	1.045000
22.200000	1	1.007375
22.216667	1	0.969625
22.233333	1	0.932750
22.250000	1	0.897000
22.266667	1	0.862375
22.283333	1	0.829125
22.300000	1	0.797250
22.316667	1	0.766250
22.333333	1	0.736375
22.350000	1	0.708500
22.366667	1	0.682625
22.383333	1	0.656750
22.400000	1	0.633125
22.416667	1	0.611125
22.433333	1	0.590000
22.450000	1	0.571375
22.466667	1	0.553750
22.483333	1	0.537000
22.500000	1	0.521750
22.516667	1	0.508250
22.533333	1	0.495125
22.550000	1	0.483500
22.566667	1	0.472875
22.583333	1	0.463125
22.600000	1	0.453250
22.616667	1	0.443750
22.633333	1	0.435250
22.650000	1	0.426875
22.666667	1	0.418875
22.683333	1	0.411750
22.700000	1	0.403875
22.716667	1	0.396250
22.733333	1	0.389375
22.750000	1	0.382125
22.766667	1	0.375750
22.783333	1	0.368500
22.800000	1	0.362250
22.816667	1	0.356125
22.833333	1	0.350875
22.850000	1	0.345375
22.866667	1	0.340000
22.883333	1	0.334750
22.900000	1	0.330500
22.916667	1	0.326750
22.933333	1	0.322750
22.950000	1	0.319000
22.966667	1	0.316000
22.983333	1	0.314250
23.000000	1	0.312625
23.016667	1	0.310875
23.033333	1	0.310000
23.050000	1	0.308875
23.066667	1	0.308750
23.083333	1	0.308875
23.100000	1	0.309750
23.116667	1	0.310125
23.133333	1	0.310125
23.150000	1	0.310750
23.166667	1	0.312250
23.183333	1	0.314250
23.200000	1	0.315125
23.216667	1	0.317125
23.233333	1	0.318500
23.250000	1	0.320625
23.266667	1	0.323250
23.283333	1	0.327750
23.300000	1	0.332375
23.316667	1	0.338750
23.333333	1	0.348000
23.350000	1	0.360500
23.366667	1	0.376750
23.383333	1	0.397750
23.400000	1	0.426375
23.416667	1	0.462500
23.433333	1	0.508875
23.450000	1	0.567000
23.466667	1	0.639625
23.483333	1	0.728750
23.500000	1	0.836375
23.516667	1	0.965375
23.533333	1	1.118250
23.550000	1	1.294875
23.566667	1	1.497500
23.583333	1	1.725875
23.600000	1	1.981000
23.616667	1	2.259875
23.633333	1	2.561500
23.650000	1	2.880875
23.666667	1	3.214000
23.683333	1	3.556375
23.700000	1	3.901750
23.716667	1	4.242625
23.733333	1	4.572375
23.750000	1	4.883375
23.766667	1	5.168500
23.783333	1	5.420375
23.800000	1	5.633500
23.816667	1	5.802750
23.833333	1	5.926125
23.850000	1	6.000625
23.866667	1	6.025250
23.883333	1	6.002750
23.900000	1	5.933250
23.916667	1	5.820375
23.933333	1	5.668625
23.950000	1	5.482625
23.966667	1	5.268125
23.983333	1	5.030375
24.000000	1	4.775500
24.016667	1	4.509375
24.033333	1	4.237375
24.050000	1	3.964000
24.066667	1	3.692500
24.083333	1	3.427625
24.100000	1	3.170625
24.116667	1	2.923875
24.133333	1	2.689375
24.150000	1	2.468625
24.166667	1	2.262500
24.183333	1	2.069875
24.200000	1	1.893250
24.216667	1	1.729500
24.233333	1	1.580500
24.250000	1	1.443875
24.266667	1	1.319875
24.283333	1	1.208125
24.300000	1	1.107500
24.316667	1	1.016375
24.333333	1	0.935250
24.350000	1	0.863375
24.366667	1	0.799625
24.383333	1	0.743250
24.400000	1	0.694625
24.416667	1	0.651625
24.433333	1	0.614625
24.450000	1	0.582750
24.466667	1	0.556375
24.483333	1	0.533625
24.500000	1	0.514625
24.516667	1	0.499250
24.533333	1	0.485625
24.550000	1	0.474875
24.566667	1	0.465625
24.583333	1	0.458125
24.600000	1	0.451625
24.616667	1	0.446750
24.633333	1	0.441750
24.650000	1	0.438375
24.666667	1	0.434875
24.683333	1	0.431750
24.700000	1	0.428500
24.716667	1	0.424500
24.733333	1	0.421375
24.750000	1	0.417750
24.766667	1	0.414250
24.783333	1	0.410000
24.800000	1	0.405875
24.816667	1	0.401750
24.833333	1	0.398000
24.850000	1	0.394375
24.866667	1	0.390250
24.883333	1	0.386500
24.900000	1	0.382375
24.916667	1	0.379125
24.933333	1	0.375875
24.950000	1	0.371750
24.966667	1	0.368500
24.983333	1	0.365000
25.000000	1	0.361875
25.016667	1	0.358750
25.033333	1	0.355500
25.050000	1	0.353125
25.066667	1	0.350375
25.083333	1	0.347375
25.100000	1	0.344125
25.116667	1	0.342000
25.133333	1	0.339750
25.150000	1	0.337750
25.166667	1	0.334875
25.183333	1	0.333000
25.200000	1	0.330375
25.216667	1	0.328500
25.233333	1	0.325875
25.250000	1	0.323625
25.266667	1	0.322000
25.283333	1	0.320250
25.300000	1	0.318500
25.316667	1	0.316625
25.333333	1	0.315125
25.350000	1	0.314000
25.366667	1	0.312625
25.383333	1	0.311500
25.400000	1	0.310125
25.416667	1	0.309500
25.433333	1	0.309125
25.450000	1	0.309375
25.466667	1	0.309250
25.483333	1	0.309750
25.500000	1	0.309625
25.516667	1	0.309375
25.533333	1	0.309625
25.550000	1	0.310375
25.566667	1	0.310375
25.583333	1	0.310625
25.600000	1	0.310750
25.616667	1	0.309875
25.633333	1	0.309625
25.650000	1	0.309750
25.666667	1	0.308875
25.683333	1	0.308500
25.700000	1	0.307750
25.716667	1	0.306875
25.733333	1	0.306000
25.750000	1	0.304125
25.766667	1	0.302000
25.783333	1	0.300375
25.800000	1	0.298375
25.816667	1	0.296250
25.833333	1	0.294875
25.850000	1	0.293125
25.866667	1	0.291000
25.883333	1	0.289375
25.900000	1	0.287625
25.916667	1	0.286375
25.933333	1	0.284000
25.950000	1	0.282750
25.966667	1	0.281875
25.983333	1	0.280875
26.000000	1	0.280375
26.016667	1	0.280750
26.033333	1	0.280875
26.050000	1	0.281125
26.066667	1	0.281625
26.083333	1	0.282125
26.100000	1	0.283250
26.116667	1	0.284375
26.133333	1	0.286000
26.150000	1	0.288125
26.166667	1	0.290000
26.183333	1	0.291750
26.200000	1	0.294375
26.216667	1	0.297625
26.233333	1	0.300375
26.250000	1	0.303750
26.266667	1	0.307250
26.283333	1	0.310000
26.300000	1	0.313125
26.316667	1	0.315875
26.333333	1	0.319375
26.350000	1	0.322500
26.366667	1	0.325250
26.383333	1	0.328000
26.400000	1	0.330750
26.416667	1	0.333000
26.433333	1	0.335250
26.450000	1	0.336500
26.466667	1	0.337500
26.483333	1	0.338250
26.500000	1	0.338875
26.516667	1	0.339750
26.533333	1	0.339375
26.550000	1	0.339750
26.566667	1	0.339125
26.583333	1	0.338375
26.600000	1	0.337375
26.616667	1	0.336250
26.633333	1	0.334625
26.650000	1	0.333625
26.666667	1	0.332750
26.683333	1	0.330625
26.700000	1	0.328625
26.716667	1	0.327000
26.733333	1	0.324875
26.750000	1	0.321750
26.766667	1	0.319500
26.783333	1	0.317375
26.800000	1	0.315125
26.816667	1	0.313000
26.833333	1	0.311125
26.850000	1	0.309625
26.866667	1	0.307500
26.883333	1	0.305500
26.900000	1	0.304250
26.916667	1	0.302625
26.933333	1	0.301750
26.950000	1	0.300375
26.966667	1	0.299625
26.983333	1	0.298625
27.000000	1	0.298000
27.016667	1	0.297750
27.033333	1	0.297625
27.050000	1	0.297250
27.066667	1	0.297625
27.083333	1	0.298875
27.100000	1	0.300875
27.116667	1	0.302625
27.133333	1	0.304875
27.150000	1	0.307500
27.166667	1	0.311625
27.183333	1	0.316250
27.200000	1	0.321875
27.216667	1	0.328625
27.233333	1	0.337000
27.250000	1	0.347875
27.266667	1	0.361250
27.283333	1	0.377500
27.300000	1	0.397750
27.316667	1	0.422000
27.333333	1	0.451000
27.350000	1	0.485625
27.366667	1	0.527125
27.383333	1	0.575625
27.400000	1	0.633625
27.416667	1	0.701375
27.433333	1	0.779625
27.450000	1	0.869375
27.466667	1	0.971750
27.483333	1	1.088750
27.500000	1	1.219875
27.516667	1	1.366625
27.533333	1	1.527750
27.550000	1	1.704625
27.566667	1	1.897250
27.583333	1	2.103000
27.600000	1	2.322500
27.616667	1	2.553250
27.633333	1	2.796000
27.650000	1	3.046000
27.666667	1	3.302625
27.683333	1	3.560750
27.700000	1	3.818750
27.716667	1	4.071625
27.733333	1	4.317000
27.750000	1	4.549750
27.766667	1	4.767125
27.783333	1	4.963875
27.800000	1	5.137375
27.816667	1	5.286375
27.833333	1	5.406250
27.850000	1	5.495875
27.866667	1	5.553750
27.883333	1	5.578875
27.900000	1	5.570125
27.916667	1	5.528875
27.933333	1	5.455625
27.950000	1	5.353500
27.966667	1	5.224000
27.983333	1	5.070500
28.000000	1	4.895875
28.016667	1	4.704500
28.033333	1	4.498250
28.050000	1	4.281500
28.066667	1	4.057125
28.083333	1	3.829000
28.100000	1	3.601250
28.116667	1	3.375000
28.133333	1	3.153375
28.150000	1	2.937750
28.166667	1	2.730875
28.183333	1	2.532875
28.200000	1	2.345000
28.216667	1	2.168000
28.233333	1	2.002000
28.250000	1	1.846750
28.266667	1	1.702000
28.283333	1	1.567625
28.300000	1	1.444000
28.316667	1	1.329375
28.333333	1	1.224750
28.350000	1	1.128375
28.366667	1	1.041000
28.383333	1	0.960875
28.400000	1	0.888250
28.416667	1	0.822125
28.433333	1	0.762500
28.450000	1	0.707750
28.466667	1	0.658500
28.483333	1	0.614875
28.500000	1	0.575625
28.516667	1	0.540625
28.533333	1	0.509625
28.550000	1	0.481875
28.566667	1	0.457500
28.583333	1	0.436375
28.600000	1	0.417625
28.616667	1	0.401625
28.633333	1	0.387625
28.650000	1	0.376125
28.666667	1	0.367125
28.683333	1	0.358875
28.700000	1	0.352125
28.716667	1	0.347000
28.733333	1	0.343000
28.750000	1	0.339625
28.766667	1	0.338125
28.783333	1	0.336750
28.800000	1	0.336250
28.816667	1	0.336125
28.833333	1	0.336875
28.850000	1	0.337750
28.866667	1	0.339000
28.883333	1	0.339250
28.900000	1	0.340250
28.916667	1	0.341250
28.933333	1	0.342375
28.950000	1	0.342625
28.966667	1	0.343250
28.983333	1	0.342750
29.000000	1	0.342500
29.016667	1	0.341625
29.033333	1	0.340500
29.050000	1	0.338125
29.066667	1	0.334750
29.083333	1	0.330250
29.100000	1	0.324625
29.116667	1	0.318500
29.133333	1	0.310750
29.150000	1	0.301500
29.166667	1	0.292000
29.183333	1	0.280750
29.200000	1	0.267500
29.216667	1	0.252750
29.233333	1	0.236500
29.250000	1	0.218000
29.266667	1	0.198000
29.283333	1	0.175625
29.300000	1	0.152750
29.316667	1	0.126500
29.333333	1	0.099250
29.350000	1	0.070250
29.366667	1	0.039750
29.383333	1	0.008125
29.400000	1	-0.025250
29.416667	1	-0.059875
29.433333	1	-0.096250
29.450000	1	-0.133000
29.466667	1	-0.170625
29.483333	1	-0.208375
29.500000	1	-0.246750
29.516667	1	-0.284125
29.533333	1	-0.321250
29.550000	1	-0.358000
29.566667	1	-0.392750
29.583333	1	-0.426625
29.600000	1	-0.458250
29.616667	1	-0.487875
29.633333	1	-0.514875
29.650000	1	-0.539125
29.666667	1	-0.561000
29.683333	1	-0.580250
29.700000	1	-0.595500
29.716667	1	-0.607875
29.733333	1	-0.616125
29.750000	1	-0.620750
29.766667	1	-0.621250
29.783333	1	-0.619875
29.800000	1	-0.613875
29.816667	1	-0.604750
29.833333	1	-0.592125
29.850000	1	-0.577000
29.866667	1	-0.559250
29.883333	1	-0.538500
29.900000	1	-0.515625
29.916667	1	-0.491125
29.933333	1	-0.465000
29.950000	1	-0.436875
29.966667	1	-0.408250
29.983333	1	-0.379375
30.000000	1	-0.349500
30.016667	1	-0.319000
30.033333	1	-0.288875
30.050000	1	-0.258375
30.066667	1	-0.228500
30.083333	1	-0.199000
30.100000	1	-0.171125
30.116667	1	-0.143750
30.133333	1	-0.117125
30.150000	1	-0.091625
30.166667	1	-0.067625
30.183333	1	-0.044500
30.200000	1	-0.022500
30.216667	1	-0.002625
30.233333	1	0.016375
30.250000	1	0.034125
30.266667	1	0.050750
30.283333	1	0.065500
30.300000	1	0.079250
30.316667	1	0.091500
30.333333	1	0.103500
30.350000	1	0.113625
30.366667	1	0.122625
30.383333	1	0.130375
30.400000	1	0.137625
30.416667	1	0.144125
30.433333	1	0.150125
30.450000	1	0.155500
30.466667	1	0.160250
30.483333	1	0.164000
30.500000	1	0.167125
30.516667	1	0.170250
30.533333	1	0.173375
30.550000	1	0.176375
30.566667	1	0.179500
30.583333	1	0.181375
30.600000	1	0.183375
30.616667	1	0.186000
30.633333	1	0.188875
30.650000	1	0.191750
30.666667	1	0.195750
30.683333	1	0.199500
30.700000	1	0.203125
30.716667	1	0.207125
30.733333	1	0.211000
30.750000	1	0.215875
30.766667	1	0.221125
30.783333	1	0.226500
30.800000	1	0.232000
30.816667	1	0.239125
30.833333	1	0.245500
30.850000	1	0.252500
30.866667	1	0.260500
30.883333	1	0.269750
30.900000	1	0.279625
30.916667	1	0.290375
30.933333	1	0.302500
30.950000	1	0.316125
30.966667	1	0.331250
30.983333	1	0.349125
31.000000	1	0.369250
31.016667	1	0.393000
31.033333	1	0.419750
31.050000	1	0.450750
31.066667	1	0.486125
31.083333	1	0.526625
31.100000	1	0.574125
31.116667	1	0.628250
31.133333	1	0.689500
31.150000	1	0.759000
31.166667	1	0.837375
31.183333	1	0.924625
31.200000	1	1.023125
31.216667	1	1.132125
31.233333	1	1.251875
31.250000	1	1.382250
31.266667	1	1.524500
31.283333	1	1.677125
31.300000	1	1.839750
31.316667	1	2.012500
31.333333	1	2.193250
31.350000	1	2.381375
31.366667	1	2.576250
31.383333	1	2.774500
31.400000	1	2.975625
31.416667	1	3.176625
31.433333	1	3.376125
31.450000	1	3.571125
31.466667	1	3.758875
31.483333	1	3.937125
31.500000	1	4.104125
31.516667	1	4.258125
31.533333	1	4.395750
31.550000	1	4.516125
31.566667	1	4.617500
31.583333	1	4.699250
31.600000	1	4.760625
31.616667	1	4.800750
31.633333	1	4.818375
31.650000	1	4.814875
31.666667	1	4.790125
31.683333	1	4.745875
31.700000	1	4.682250
31.716667	1	4.602000
31.733333	1	4.505375
31.750000	1	4.394000
31.766667	1	4.270000
31.783333	1	4.134250
31.800000	1	3.990000
31.816667	1	3.837750
31.833333	1	3.680500
31.850000	1	3.518500
31.866667	1	3.354250
31.883333	1	3.189125
31.900000	1	3.025375
31.916667	1	2.863500
31.933333	1	2.704875
31.950000	1	2.549875
31.966667	1	2.399000
31.983333	1	2.252250
32.000000	1	2.111875
32.016667	1	1.976750
32.033333	1	1.847750
32.050000	1	1.724125
32.066667	1	1.607500
32.083333	1	1.497125
32.100000	1	1.391875
32.116667	1	1.292875
32.133333	1	1.199875
32.150000	1	1.112625
32.166667	1	1.030750
32.183333	1	0.953875
32.200000	1	0.881875
32.216667	1	0.813875
32.233333	1	0.751250
32.250000	1	0.692000
32.266667	1	0.636750
32.283333	1	0.585375
32.300000	1	0.537750
32.316667	1	0.494500
32.333333	1	0.453875
32.350000	1	0.416750
32.366667	1	0.382250
32.383333	1	0.350625
32.400000	1	0.320875
32.416667	1	0.293750
32.433333	1	0.268875
32.450000	1	0.246125
32.466667	1	0.225250
32.483333	1	0.206500
32.500000	1	0.189375
32.516667	1	0.173375
32.533333	1	0.160000
32.550000	1	0.148125
32.566667	1	0.136625
32.583333	1	0.126625
32.600000	1	0.116750
32.616667	1	0.108375
32.633333	1	0.101000
32.650000	1	0.093875
32.666667	1	0.087625
32.683333	1	0.082250
32.700000	1	0.077500
32.716667	1	0.074250
32.733333	1	0.070250
32.750000	1	0.067125
32.766667	1	0.064375
32.783333	1	0.061500
32.800000	1	0.058000
32.816667	1	0.056000
32.833333	1	0.053875
32.850000	1	0.052000
32.866667	1	0.050250
32.883333	1	0.048375
32.900000	1	0.046375
32.916667	1	0.045625
32.933333	1	0.044250
32.950000	1	0.042500
32.966667	1	0.041875
32.983333	1	0.040000
33.000000	1	0.039375
33.016667	1	0.038375
33.033333	1	0.036750
33.050000	1	0.035375
33.066667	1	0.034625
33.083333	1	0.034375
33.100000	1	0.033625
33.116667	1	0.032625
33.133333	1	0.031750
33.150000	1	0.031625
33.166667	1	0.031625
33.183333	1	0.031500
33.200000	1	0.031500
33.216667	1	0.031125
33.233333	1	0.031125
33.250000	1	0.031250
33.266667	1	0.031750
33.283333	1	0.032125
33.300000	1	0.032750
33.316667	1	0.032875
33.333333	1	0.033875
33.350000	1	0.034875
33.366667	1	0.036750
33.383333	1	0.037750
33.400000	1	0.039125
33.416667	1	0.041000
33.433333	1	0.042750
33.450000	1	0.044000
33.466667	1	0.045500
33.483333	1	0.047250
33.500000	1	0.048750
33.516667	1	0.050500
33.533333	1	0.052125
33.550000	1	0.054125
33.566667	1	0.056375
33.583333	1	0.059125
33.600000	1	0.061125
33.616667	1	0.063250
33.633333	1	0.065750
33.650000	1	0.069000
33.666667	1	0.071500
33.683333	1	0.073875
33.700000	1	0.076875
33.716667	1	0.079500
33.733333	1	0.082500
33.750000	1	0.085125
33.766667	1	0.088125
33.783333	1	0.090500
33.800000	1	0.093375
33.816667	1	0.096250
33.833333	1	0.099125
33.850000	1	0.101500
33.866667	1	0.104250
33.883333	1	0.106750
33.900000	1	0.109375
33.916667	1	0.111375
33.933333	1	0.114000
33.950000	1	0.116000
33.966667	1	0.118375
33.983333	1	0.120375
34.000000	1	0.122500
34.016667	1	0.124375
34.033333	1	0.126250
34.050000	1	0.127250
34.066667	1	0.128750
34.083333	1	0.129625
34.100000	1	0.130875
34.116667	1	0.132125
34.133333	1	0.133375
34.150000	1	0.134375
34.166667	1	0.135000
34.183333	1	0.135000
34.200000	1	0.134875
34.216667	1	0.135500
34.233333	1	0.135125
34.250000	1	0.135750
34.266667	1	0.135625
34.283333	1	0.135375
34.300000	1	0.135125
34.316667	1	0.135125
34.333333	1	0.135125
34.350000	1	0.135375
34.366667	1	0.135375
34.383333	1	0.134375
34.400000	1	0.133750
34.416667	1	0.133750
34.433333	1	0.133000
34.450000	1	0.131750
34.466667	1	0.131125
34.483333	1	0.130250
34.500000	1	0.129375
34.516667	1	0.128875
34.533333	1	0.128500
34.550000	1	0.127500
34.566667	1	0.126625
34.583333	1	0.125750
34.600000	1	0.125125
34.616667	1	0.124875
34.633333	1	0.124375
34.650000	1	0.123500
34.666667	1	0.122750
34.683333	1	0.121625
34.700000	1	0.120875
34.716667	1	0.120250
34.733333	1	0.120500
34.750000	1	0.120000
34.766667	1	0.120000
34.783333	1	0.119500
34.800000	1	0.119000
34.816667	1	0.118875
34.833333	1	0.118000
34.850000	1	0.117875
34.866667	1	0.117125
34.883333	1	0.117250
34.900000	1	0.117875
34.916667	1	0.117875
34.933333	1	0.117375
34.950000	1	0.117125
34.966667	1	0.116125
34.983333	1	0.116125
35.000000	1	0.116250
35.016667	1	0.115750
35.033333	1	0.115000
35.050000	1	0.115000
35.066667	1	0.115000
35.083333	1	0.114500
35.100000	1	0.114250
35.116667	1	0.113625
35.133333	1	0.112375
35.150000	1	0.112000
35.166667	1	0.111750
35.183333	1	0.111250
35.200000	1	0.110375
35.216667	1	0.109625
35.233333	1	0.108875
35.250000	1	0.108250
35.266667	1	0.107375
35.283333	1	0.107625
35.300000	1	0.107125
35.316667	1	0.106000
35.333333	1	0.105875
35.350000	1	0.106000
35.366667	1	0.106000
35.383333	1	0.105875
35.400000	1	0.105250
35.416667	1	0.105500
35.433333	1	0.106000
35.450000	1	0.106375
35.466667	1	0.107000
35.483333	1	0.108125
35.500000	1	0.108625
35.516667	1	0.109625
35.533333	1	0.110500
35.550000	1	0.111125
35.566667	1	0.111625
35.583333	1	0.112625
35.600000	1	0.114250
35.616667	1	0.116000
35.633333	1	0.117750
35.650000	1	0.119125
35.666667	1	0.119625
35.683333	1	0.120375
35.700000	1	0.121375
35.716667	1	0.122625
35.733333	1	0.123125
35.750000	1	0.124000
35.766667	1	0.125000
35.783333	1	0.125375
35.800000	1	0.125875
35.816667	1	0.126125
35.833333	1	0.126375
35.850000	1	0.126625
35.866667	1	0.126125
35.883333	1	0.126500
35.900000	1	0.126500
35.916667	1	0.126250
35.933333	1	0.126125
35.950000	1	0.126000
35.966667	1	0.125750
35.983333	1	0.124875
36.000000	1	0.125125
36.016667	1	0.124125
36.033333	1	0.123750
36.050000	1	0.123375
36.066667	1	0.123375
36.083333	1	0.122500
36.100000	1	0.122000
36.116667	1	0.121375
36.133333	1	0.121125
36.150000	1	0.120375
36.166667	1	0.119500
36.183333	1	0.119000
36.200000	1	0.118875
36.216667	1	0.118250
36.233333	1	0.117250
36.250000	1	0.117250
36.266667	1	0.117000
36.283333	1	0.116875
36.300000	1	0.117375
36.316667	1	0.117875
36.333333	1	0.118375
36.350000	1	0.119125
36.366667	1	0.119750
36.383333	1	0.120500
36.400000	1	0.121750
36.416667	1	0.123000
36.433333	1	0.124750
36.450000	1	0.125875
36.466667	1	0.127625
36.483333	1	0.129750
36.500000	1	0.132250
36.516667	1	0.134625
36.533333	1	0.136625
36.550000	1	0.138625
36.566667	1	0.140375
36.583333	1	0.142625
36.600000	1	0.144375
36.616667	1	0.146000
36.633333	1	0.147750
36.650000	1	0.149625
36.666667	1	0.151375
36.683333	1	0.152375
36.700000	1	0.153625
36.716667	1	0.154125
36.733333	1	0.155375
36.750000	1	0.156000
36.766667	1	0.156750
36.783333	1	0.157375
36.800000	1	0.157750
36.816667	1	0.157500
36.833333	1	0.156625
36.850000	1	0.156500
36.866667	1	0.155875
36.883333	1	0.155875
36.900000	1	0.156125
36.916667	1	0.156375
36.933333	1	0.156125
36.950000	1	0.156000
36.966667	1	0.155625
36.983333	1	0.155750
37.000000	1	0.155500
37.016667	1	0.155625
37.033333	1	0.155250
37.050000	1	0.155250
37.066667	1	0.155500
37.083333	1	0.156250
37.100000	1	0.156000
37.116667	1	0.155500
37.133333	1	0.155250
37.150000	1	0.154875
37.166667	1	0.154500
37.183333	1	0.154125
37.200000	1	0.153375
37.216667	1	0.152875
37.233333	1	0.151750
37.250000	1	0.150375
37.266667	1	0.149125
37.283333	1	0.146625
37.300000	1	0.144500
37.316667	1	0.142750
37.333333	1	0.140750
37.350000	1	0.138000
37.366667	1	0.135750
37.383333	1	0.133250
37.400000	1	0.129875
37.416667	1	0.126500
37.433333	1	0.123625
37.450000	1	0.120375
37.466667	1	0.116875
37.483333	1	0.112875
37.500000	1	0.109375
37.516667	1	0.106500
37.533333	1	0.102750
37.550000	1	0.099750
37.566667	1	0.096000
37.583333	1	0.092125
37.600000	1	0.088375
37.616667	1	0.084875
37.633333	1	0.081000
37.650000	1	0.077500
37.666667	1	0.073875
37.683333	1	0.070375
37.700000	1	0.067500
37.716667	1	0.064250
37.733333	1	0.061000
37.750000	1	0.057875
37.766667	1	0.054500
37.783333	1	0.051750
37.800000	1	0.048625
37.816667	1	0.045750
37.833333	1	0.042625
37.850000	1	0.039875
37.866667	1	0.037125
37.883333	1	0.035125
37.900000	1	0.032500
37.916667	1	0.030125
37.933333	1	0.027875
37.950000	1	0.025625
37.966667	1	0.023625
37.983333	1	0.022250
38.000000	1	0.020000
38.016667	1	0.018375
38.033333	1	0.016500
38.050000	1	0.014750
38.066667	1	0.013125
38.083333	1	0.011250
38.100000	1	0.010375
38.116667	1	0.009500
38.133333	1	0.007500
38.150000	1	0.006500
38.166667	1	0.005500
38.183333	1	0.004375
38.200000	1	0.003125
38.216667	1	0.001875
38.233333	1	0.001625
38.250000	1	0.001125
38.266667	1	0.001000
38.283333	1	0.000500
38.300000	1	0.000500
38.316667	1	0.001250
38.333333	1	0.001750
38.350000	1	0.001875
38.366667	1	0.002375
38.383333	1	0.002625
38.400000	1	0.002625
38.416667	1	0.003375
38.433333	1	0.004500
38.450000	1	0.004875
38.466667	1	0.005375
38.483333	1	0.006250
38.500000	1	0.007125
38.516667	1	0.008000
38.533333	1	0.009000
38.550000	1	0.009375
38.566667	1	0.009625
38.583333	1	0.010500
38.600000	1	0.010625
38.616667	1	0.011250
38.633333	1	0.011250
38.650000	1	0.011250
38.666667	1	0.012125
38.683333	1	0.012375
38.700000	1	0.012875
38.716667	1	0.012750
38.733333	1	0.012375
38.750000	1	0.012250
38.766667	1	0.012000
38.783333	1	0.011750
38.800000	1	0.011750
38.816667	1	0.011125
38.833333	1	0.009875
38.850000	1	0.009500
38.866667	1	0.009500
38.883333	1	0.009375
38.900000	1	0.009250
38.916667	1	0.008000
38.933333	1	0.007750
38.950000	1	0.006750
38.966667	1	0.006125
38.983333	1	0.004625
39.000000	1	0.004500
39.016667	1	0.003125
39.033333	1	0.002000
39.050000	1	0.000750
39.066667	1	0.000875
39.083333	1	0.000625
39.100000	1	-0.000250
39.116667	1	-0.001125
39.133333	1	-0.002000
39.150000	1	-0.002250
39.166667	1	-0.003250
39.183333	1	-0.003875
39.200000	1	-0.004750
39.216667	1	-0.004875
39.233333	1	-0.005500
39.250000	1	-0.005875
39.266667	1	-0.006625
39.283333	1	-0.006500
39.300000	1	-0.006375
39.316667	1	-0.006875
39.333333	1	-0.007250
39.350000	1	-0.007375
39.366667	1	-0.006750
39.383333	1	-0.007125
39.400000	1	-0.006750
39.416667	1	-0.006375
39.433333	1	-0.005625
39.450000	1	-0.005625
39.466667	1	-0.004750
39.483333	1	-0.005125
39.500000	1	-0.004375
39.516667	1	-0.004250
39.533333	1	-0.003625
39.550000	1	-0.003375
39.566667	1	-0.002750
39.583333	1	-0.001750
39.600000	1	-0.000750
39.616667	1	-0.000500
39.633333	1	-0.000125
39.650000	1	0.000375
39.666667	1	0.001500
39.683333	1	0.002750
39.700000	1	0.004625
39.716667	1	0.006125
39.733333	1	0.007500
39.750000	1	0.008750
39.766667	1	0.010375
39.783333	1	0.012000
39.800000	1	0.014000
39.816667	1	0.016375
39.833333	1	0.018375
39.850000	1	0.021375
39.866667	1	0.024375
39.883333	1	0.027500
39.900000	1	0.030750
39.916667	1	0.034250
39.933333	1	0.037000
39.950000	1	0.040250
39.966667	1	0.043625
39.983333	1	0.046875
40.000000	1	0.050250
