URL	chrom://7040-86g6c92/XVault/Ultimate_3000/20/20240517_CMO_FP23_FP25_MarkusDeplate.seq/732.smp/RI_1.channel/RI_1.chm
Channel	RI_1

Injection Information:
Data Vault	XVault
Sequence	20240517_CMO_FP23_FP25_MarkusDeplate
Name	FP25_22.1_s1
Number	70
Position	BF10
Comment	
Processing Method	
Instrument Method	run_25B_method
Type	Unknown
Status	Finished
Inject Time	29.05.2024 17:50:03 +02:00
Volume (µl)	20.0000
Dilution Factor	1.0000
Weight	1.0000

Chromatogram Data Information:
Time Min. (min)	0.000000
Time Max. (min)	40.000000
Data Points	2401
Detector	RI
Generating Data System	Chromeleon 7.3.2.11814
Exporting Data System	Chromeleon 7.3.2.0
Operator	Instrument Controller
Signal Quantity	Refractive 
Signal Unit	µRIU
Signal Min.	-1.119875
Signal Max.	67.110625
Channel	RI_1
Driver Name	RID520Driver.dll
Channel Type	Evaluation
Min. Step (s)	1
Max. Step (s)	1
Average Step (s)	1

Signal Parameter Information:
Signal Info	

Chromatogram Data:
Time (min)	Step (s)	Value (µRIU)
0.000000	n.a.	0.030875
0.016667	1	0.030500
0.033333	1	0.030250
0.050000	1	0.031125
0.066667	1	0.031750
0.083333	1	0.032500
0.100000	1	0.033500
0.116667	1	0.033875
0.133333	1	0.034250
0.150000	1	0.035000
0.166667	1	0.036500
0.183333	1	0.037125
0.200000	1	0.037250
0.216667	1	0.038375
0.233333	1	0.038625
0.250000	1	0.039625
0.266667	1	0.039750
0.283333	1	0.040625
0.300000	1	0.041500
0.316667	1	0.041500
0.333333	1	0.041375
0.350000	1	0.041250
0.366667	1	0.040625
0.383333	1	0.039000
0.400000	1	0.038000
0.416667	1	0.038000
0.433333	1	0.038000
0.450000	1	0.039125
0.466667	1	0.040250
0.483333	1	0.040625
0.500000	1	0.040375
0.516667	1	0.039875
0.533333	1	0.038500
0.550000	1	0.036375
0.566667	1	0.034250
0.583333	1	0.031500
0.600000	1	0.027000
0.616667	1	0.023750
0.633333	1	0.019750
0.650000	1	0.017250
0.666667	1	0.015625
0.683333	1	0.014000
0.700000	1	0.012625
0.716667	1	0.011250
0.733333	1	0.010375
0.750000	1	0.008875
0.766667	1	0.007500
0.783333	1	0.006375
0.800000	1	0.006375
0.816667	1	0.006000
0.833333	1	0.005125
0.850000	1	0.003875
0.866667	1	0.003250
0.883333	1	0.002625
0.900000	1	0.001500
0.916667	1	0.000375
0.933333	1	-0.000375
0.950000	1	-0.001250
0.966667	1	-0.002375
0.983333	1	-0.003250
1.000000	1	-0.004000
1.016667	1	-0.004375
1.033333	1	-0.004875
1.050000	1	-0.005250
1.066667	1	-0.005500
1.083333	1	-0.006000
1.100000	1	-0.006500
1.116667	1	-0.007625
1.133333	1	-0.008250
1.150000	1	-0.008750
1.166667	1	-0.009000
1.183333	1	-0.009375
1.200000	1	-0.010000
1.216667	1	-0.010500
1.233333	1	-0.010375
1.250000	1	-0.011125
1.266667	1	-0.012000
1.283333	1	-0.013250
1.300000	1	-0.014000
1.316667	1	-0.015250
1.333333	1	-0.016250
1.350000	1	-0.016875
1.366667	1	-0.017125
1.383333	1	-0.017875
1.400000	1	-0.018000
1.416667	1	-0.018500
1.433333	1	-0.018875
1.450000	1	-0.019250
1.466667	1	-0.019125
1.483333	1	-0.019250
1.500000	1	-0.019000
1.516667	1	-0.019250
1.533333	1	-0.018625
1.550000	1	-0.017875
1.566667	1	-0.017250
1.583333	1	-0.017000
1.600000	1	-0.016125
1.616667	1	-0.015000
1.633333	1	-0.013500
1.650000	1	-0.012375
1.666667	1	-0.011000
1.683333	1	-0.010250
1.700000	1	-0.009250
1.716667	1	-0.007625
1.733333	1	-0.006375
1.750000	1	-0.005000
1.766667	1	-0.003500
1.783333	1	-0.002375
1.800000	1	-0.001250
1.816667	1	0.000000
1.833333	1	0.001125
1.850000	1	0.002875
1.866667	1	0.003500
1.883333	1	0.004125
1.900000	1	0.004500
1.916667	1	0.005375
1.933333	1	0.006125
1.950000	1	0.006375
1.966667	1	0.006250
1.983333	1	0.006375
2.000000	1	0.006625
2.016667	1	0.006250
2.033333	1	0.006250
2.050000	1	0.006000
2.066667	1	0.005875
2.083333	1	0.004875
2.100000	1	0.004375
2.116667	1	0.003750
2.133333	1	0.003375
2.150000	1	0.001750
2.166667	1	0.001000
2.183333	1	0.000125
2.200000	1	-0.000375
2.216667	1	-0.001625
2.233333	1	-0.002250
2.250000	1	-0.003375
2.266667	1	-0.003750
2.283333	1	-0.004625
2.300000	1	-0.005375
2.316667	1	-0.006125
2.333333	1	-0.007750
2.350000	1	-0.008750
2.366667	1	-0.009125
2.383333	1	-0.009375
2.400000	1	-0.010500
2.416667	1	-0.010750
2.433333	1	-0.011375
2.450000	1	-0.011625
2.466667	1	-0.011875
2.483333	1	-0.011875
2.500000	1	-0.012250
2.516667	1	-0.013000
2.533333	1	-0.013000
2.550000	1	-0.012875
2.566667	1	-0.013625
2.583333	1	-0.012625
2.600000	1	-0.012875
2.616667	1	-0.012875
2.633333	1	-0.012500
2.650000	1	-0.012625
2.666667	1	-0.012125
2.683333	1	-0.011625
2.700000	1	-0.011875
2.716667	1	-0.011125
2.733333	1	-0.010500
2.750000	1	-0.009875
2.766667	1	-0.009625
2.783333	1	-0.008875
2.800000	1	-0.007750
2.816667	1	-0.007375
2.833333	1	-0.006750
2.850000	1	-0.006000
2.866667	1	-0.005375
2.883333	1	-0.004875
2.900000	1	-0.004750
2.916667	1	-0.004125
2.933333	1	-0.003875
2.950000	1	-0.003625
2.966667	1	-0.003125
2.983333	1	-0.002875
3.000000	1	-0.002875
3.016667	1	-0.002750
3.033333	1	-0.002375
3.050000	1	-0.002625
3.066667	1	-0.003000
3.083333	1	-0.003500
3.100000	1	-0.003875
3.116667	1	-0.004250
3.133333	1	-0.005250
3.150000	1	-0.005375
3.166667	1	-0.006125
3.183333	1	-0.006625
3.200000	1	-0.007625
3.216667	1	-0.008250
3.233333	1	-0.008750
3.250000	1	-0.008375
3.266667	1	-0.009500
3.283333	1	-0.009375
3.300000	1	-0.009875
3.316667	1	-0.010000
3.333333	1	-0.011500
3.350000	1	-0.012375
3.366667	1	-0.012375
3.383333	1	-0.012750
3.400000	1	-0.012875
3.416667	1	-0.013375
3.433333	1	-0.013500
3.450000	1	-0.012875
3.466667	1	-0.012375
3.483333	1	-0.012625
3.500000	1	-0.012375
3.516667	1	-0.012875
3.533333	1	-0.013375
3.550000	1	-0.013875
3.566667	1	-0.012750
3.583333	1	-0.012750
3.600000	1	-0.012250
3.616667	1	-0.011625
3.633333	1	-0.011125
3.650000	1	-0.010625
3.666667	1	-0.010375
3.683333	1	-0.010000
3.700000	1	-0.009875
3.716667	1	-0.009000
3.733333	1	-0.008500
3.750000	1	-0.008375
3.766667	1	-0.008250
3.783333	1	-0.007750
3.800000	1	-0.007125
3.816667	1	-0.006500
3.833333	1	-0.006000
3.850000	1	-0.004750
3.866667	1	-0.004750
3.883333	1	-0.003500
3.900000	1	-0.002750
3.916667	1	-0.002250
3.933333	1	-0.002125
3.950000	1	-0.001250
3.966667	1	-0.001250
3.983333	1	0.000000
4.000000	1	0.000375
4.016667	1	0.001125
4.033333	1	0.001500
4.050000	1	0.001500
4.066667	1	0.001750
4.083333	1	0.002875
4.100000	1	0.003000
4.116667	1	0.003125
4.133333	1	0.003250
4.150000	1	0.003375
4.166667	1	0.003875
4.183333	1	0.003250
4.200000	1	0.003125
4.216667	1	0.003500
4.233333	1	0.004000
4.250000	1	0.004125
4.266667	1	0.004000
4.283333	1	0.003000
4.300000	1	0.002375
4.316667	1	0.001125
4.333333	1	0.000125
4.350000	1	-0.000375
4.366667	1	-0.001125
4.383333	1	-0.002500
4.400000	1	-0.003875
4.416667	1	-0.005500
4.433333	1	-0.006750
4.450000	1	-0.008625
4.466667	1	-0.010625
4.483333	1	-0.011750
4.500000	1	-0.012500
4.516667	1	-0.014000
4.533333	1	-0.015750
4.550000	1	-0.017000
4.566667	1	-0.019125
4.583333	1	-0.019625
4.600000	1	-0.020625
4.616667	1	-0.021500
4.633333	1	-0.022125
4.650000	1	-0.023500
4.666667	1	-0.024625
4.683333	1	-0.025250
4.700000	1	-0.025500
4.716667	1	-0.025125
4.733333	1	-0.025125
4.750000	1	-0.025250
4.766667	1	-0.024875
4.783333	1	-0.024875
4.800000	1	-0.024875
4.816667	1	-0.023875
4.833333	1	-0.023500
4.850000	1	-0.023000
4.866667	1	-0.022250
4.883333	1	-0.022000
4.900000	1	-0.021250
4.916667	1	-0.020375
4.933333	1	-0.019375
4.950000	1	-0.018500
4.966667	1	-0.017000
4.983333	1	-0.016000
5.000000	1	-0.014750
5.016667	1	-0.013125
5.033333	1	-0.011625
5.050000	1	-0.010250
5.066667	1	-0.008875
5.083333	1	-0.007500
5.100000	1	-0.006125
5.116667	1	-0.004625
5.133333	1	-0.002750
5.150000	1	-0.000750
5.166667	1	0.000875
5.183333	1	0.003000
5.200000	1	0.005500
5.216667	1	0.008000
5.233333	1	0.010750
5.250000	1	0.013875
5.266667	1	0.016625
5.283333	1	0.019125
5.300000	1	0.022500
5.316667	1	0.025000
5.333333	1	0.027625
5.350000	1	0.031375
5.366667	1	0.035000
5.383333	1	0.039500
5.400000	1	0.043250
5.416667	1	0.046375
5.433333	1	0.050750
5.450000	1	0.054500
5.466667	1	0.059125
5.483333	1	0.063375
5.500000	1	0.067250
5.516667	1	0.071250
5.533333	1	0.075000
5.550000	1	0.079625
5.566667	1	0.083250
5.583333	1	0.087250
5.600000	1	0.091000
5.616667	1	0.094625
5.633333	1	0.098750
5.650000	1	0.102750
5.666667	1	0.106625
5.683333	1	0.109625
5.700000	1	0.112625
5.716667	1	0.115000
5.733333	1	0.118375
5.750000	1	0.120625
5.766667	1	0.122375
5.783333	1	0.124500
5.800000	1	0.126250
5.816667	1	0.126750
5.833333	1	0.127500
5.850000	1	0.127875
5.866667	1	0.128125
5.883333	1	0.127250
5.900000	1	0.126625
5.916667	1	0.124875
5.933333	1	0.123250
5.950000	1	0.121125
5.966667	1	0.118500
5.983333	1	0.115500
6.000000	1	0.112125
6.016667	1	0.109375
6.033333	1	0.105875
6.050000	1	0.102375
6.066667	1	0.098125
6.083333	1	0.093875
6.100000	1	0.089625
6.116667	1	0.086125
6.133333	1	0.081500
6.150000	1	0.078000
6.166667	1	0.074375
6.183333	1	0.070875
6.200000	1	0.066875
6.216667	1	0.063500
6.233333	1	0.060375
6.250000	1	0.056750
6.266667	1	0.054000
6.283333	1	0.052000
6.300000	1	0.049875
6.316667	1	0.047625
6.333333	1	0.046250
6.350000	1	0.044375
6.366667	1	0.042875
6.383333	1	0.041750
6.400000	1	0.040750
6.416667	1	0.039875
6.433333	1	0.039250
6.450000	1	0.038250
6.466667	1	0.037125
6.483333	1	0.036125
6.500000	1	0.035125
6.516667	1	0.034625
6.533333	1	0.034250
6.550000	1	0.033500
6.566667	1	0.032875
6.583333	1	0.032125
6.600000	1	0.031875
6.616667	1	0.031375
6.633333	1	0.030875
6.650000	1	0.029750
6.666667	1	0.029375
6.683333	1	0.027625
6.700000	1	0.027000
6.716667	1	0.026500
6.733333	1	0.025375
6.750000	1	0.025375
6.766667	1	0.024750
6.783333	1	0.023750
6.800000	1	0.023500
6.816667	1	0.022750
6.833333	1	0.022750
6.850000	1	0.022500
6.866667	1	0.022125
6.883333	1	0.022125
6.900000	1	0.023000
6.916667	1	0.023125
6.933333	1	0.022875
6.950000	1	0.024000
6.966667	1	0.025250
6.983333	1	0.026375
7.000000	1	0.027125
7.016667	1	0.028000
7.033333	1	0.028750
7.050000	1	0.029875
7.066667	1	0.031250
7.083333	1	0.032750
7.100000	1	0.034625
7.116667	1	0.036625
7.133333	1	0.039250
7.150000	1	0.042500
7.166667	1	0.044625
7.183333	1	0.046375
7.200000	1	0.048500
7.216667	1	0.050875
7.233333	1	0.053250
7.250000	1	0.056375
7.266667	1	0.059250
7.283333	1	0.062000
7.300000	1	0.064875
7.316667	1	0.067875
7.333333	1	0.071000
7.350000	1	0.074125
7.366667	1	0.077500
7.383333	1	0.081000
7.400000	1	0.084125
7.416667	1	0.087250
7.433333	1	0.090750
7.450000	1	0.093625
7.466667	1	0.096500
7.483333	1	0.099250
7.500000	1	0.101375
7.516667	1	0.104250
7.533333	1	0.107000
7.550000	1	0.109875
7.566667	1	0.112500
7.583333	1	0.114875
7.600000	1	0.117500
7.616667	1	0.119500
7.633333	1	0.121375
7.650000	1	0.123125
7.666667	1	0.124625
7.683333	1	0.126000
7.700000	1	0.127125
7.716667	1	0.128250
7.733333	1	0.129125
7.750000	1	0.130000
7.766667	1	0.130125
7.783333	1	0.130250
7.800000	1	0.130875
7.816667	1	0.130375
7.833333	1	0.129375
7.850000	1	0.128875
7.866667	1	0.127875
7.883333	1	0.127250
7.900000	1	0.126000
7.916667	1	0.125000
7.933333	1	0.123625
7.950000	1	0.122375
7.966667	1	0.120750
7.983333	1	0.119000
8.000000	1	0.117750
8.016667	1	0.115625
8.033333	1	0.114000
8.050000	1	0.111375
8.066667	1	0.109750
8.083333	1	0.108375
8.100000	1	0.106625
8.116667	1	0.104500
8.133333	1	0.103250
8.150000	1	0.101500
8.166667	1	0.100000
8.183333	1	0.098125
8.200000	1	0.096875
8.216667	1	0.095625
8.233333	1	0.093625
8.250000	1	0.091875
8.266667	1	0.090125
8.283333	1	0.088500
8.300000	1	0.086250
8.316667	1	0.084125
8.333333	1	0.082000
8.350000	1	0.080000
8.366667	1	0.077500
8.383333	1	0.075250
8.400000	1	0.072375
8.416667	1	0.069750
8.433333	1	0.067375
8.450000	1	0.064750
8.466667	1	0.062125
8.483333	1	0.058625
8.500000	1	0.055875
8.516667	1	0.053250
8.533333	1	0.050250
8.550000	1	0.046625
8.566667	1	0.043125
8.583333	1	0.040125
8.600000	1	0.037375
8.616667	1	0.034000
8.633333	1	0.031625
8.650000	1	0.028625
8.666667	1	0.026250
8.683333	1	0.024125
8.700000	1	0.021750
8.716667	1	0.019625
8.733333	1	0.017375
8.750000	1	0.015500
8.766667	1	0.014000
8.783333	1	0.013125
8.800000	1	0.012125
8.816667	1	0.011125
8.833333	1	0.010500
8.850000	1	0.009125
8.866667	1	0.007625
8.883333	1	0.006875
8.900000	1	0.006125
8.916667	1	0.006500
8.933333	1	0.006125
8.950000	1	0.006000
8.966667	1	0.005500
8.983333	1	0.005750
9.000000	1	0.006375
9.016667	1	0.006000
9.033333	1	0.006000
9.050000	1	0.006875
9.066667	1	0.006875
9.083333	1	0.007375
9.100000	1	0.008250
9.116667	1	0.009250
9.133333	1	0.010500
9.150000	1	0.011125
9.166667	1	0.011375
9.183333	1	0.012250
9.200000	1	0.012500
9.216667	1	0.013000
9.233333	1	0.014375
9.250000	1	0.015375
9.266667	1	0.016500
9.283333	1	0.017500
9.300000	1	0.018875
9.316667	1	0.020625
9.333333	1	0.022250
9.350000	1	0.022750
9.366667	1	0.023625
9.383333	1	0.024625
9.400000	1	0.026125
9.416667	1	0.027125
9.433333	1	0.028250
9.450000	1	0.029500
9.466667	1	0.030000
9.483333	1	0.031500
9.500000	1	0.033250
9.516667	1	0.034250
9.533333	1	0.035750
9.550000	1	0.037375
9.566667	1	0.038500
9.583333	1	0.039000
9.600000	1	0.039875
9.616667	1	0.041125
9.633333	1	0.042000
9.650000	1	0.043875
9.666667	1	0.044375
9.683333	1	0.045500
9.700000	1	0.046625
9.716667	1	0.048000
9.733333	1	0.048750
9.750000	1	0.049500
9.766667	1	0.050625
9.783333	1	0.052000
9.800000	1	0.053125
9.816667	1	0.054000
9.833333	1	0.055000
9.850000	1	0.056000
9.866667	1	0.057375
9.883333	1	0.058125
9.900000	1	0.059250
9.916667	1	0.060125
9.933333	1	0.061875
9.950000	1	0.062625
9.966667	1	0.063625
9.983333	1	0.064500
10.000000	1	0.065750
10.016667	1	0.067125
10.033333	1	0.069250
10.050000	1	0.071250
10.066667	1	0.074250
10.083333	1	0.078000
10.100000	1	0.081875
10.116667	1	0.086500
10.133333	1	0.092750
10.150000	1	0.099500
10.166667	1	0.107000
10.183333	1	0.116125
10.200000	1	0.126125
10.216667	1	0.137375
10.233333	1	0.151375
10.250000	1	0.166875
10.266667	1	0.184250
10.283333	1	0.204125
10.300000	1	0.226625
10.316667	1	0.252625
10.333333	1	0.280125
10.350000	1	0.312000
10.366667	1	0.346500
10.383333	1	0.383250
10.400000	1	0.420000
10.416667	1	0.451500
10.433333	1	0.470500
10.450000	1	0.466625
10.466667	1	0.432000
10.483333	1	0.366500
10.500000	1	0.287750
10.516667	1	0.234875
10.533333	1	0.270375
10.550000	1	0.476625
10.566667	1	0.946500
10.583333	1	1.772625
10.600000	1	3.034625
10.616667	1	4.797250
10.633333	1	7.099750
10.650000	1	9.963875
10.666667	1	13.392625
10.683333	1	17.367250
10.700000	1	21.841000
10.716667	1	26.729000
10.733333	1	31.897000
10.750000	1	37.140500
10.766667	1	42.172875
10.783333	1	46.626750
10.800000	1	50.076875
10.816667	1	52.109625
10.833333	1	52.440500
10.850000	1	51.007250
10.866667	1	48.006000
10.883333	1	43.835125
10.900000	1	38.986500
10.916667	1	33.923625
10.933333	1	29.008125
10.950000	1	24.474625
10.966667	1	20.449750
10.983333	1	16.977750
11.000000	1	14.049500
11.016667	1	11.624500
11.033333	1	9.647125
11.050000	1	8.051250
11.066667	1	6.773875
11.083333	1	5.754375
11.100000	1	4.942500
11.116667	1	4.293500
11.133333	1	3.773750
11.150000	1	3.354750
11.166667	1	3.014375
11.183333	1	2.735500
11.200000	1	2.503625
11.216667	1	2.310375
11.233333	1	2.147125
11.250000	1	2.007875
11.266667	1	1.888500
11.283333	1	1.785000
11.300000	1	1.695500
11.316667	1	1.617625
11.333333	1	1.550000
11.350000	1	1.489375
11.366667	1	1.437000
11.383333	1	1.390500
11.400000	1	1.349750
11.416667	1	1.314125
11.433333	1	1.282000
11.450000	1	1.253125
11.466667	1	1.227500
11.483333	1	1.205000
11.500000	1	1.184875
11.516667	1	1.167125
11.533333	1	1.151000
11.550000	1	1.137250
11.566667	1	1.125250
11.583333	1	1.115125
11.600000	1	1.106000
11.616667	1	1.099250
11.633333	1	1.093375
11.650000	1	1.089000
11.666667	1	1.085875
11.683333	1	1.084500
11.700000	1	1.085250
11.716667	1	1.087750
11.733333	1	1.091125
11.750000	1	1.095750
11.766667	1	1.100875
11.783333	1	1.107375
11.800000	1	1.114500
11.816667	1	1.121375
11.833333	1	1.128500
11.850000	1	1.134375
11.866667	1	1.139875
11.883333	1	1.144875
11.900000	1	1.149875
11.916667	1	1.153750
11.933333	1	1.158125
11.950000	1	1.161875
11.966667	1	1.165875
11.983333	1	1.169875
12.000000	1	1.174500
12.016667	1	1.179500
12.033333	1	1.185625
12.050000	1	1.190625
12.066667	1	1.197125
12.083333	1	1.203375
12.100000	1	1.210750
12.116667	1	1.218625
12.133333	1	1.227125
12.150000	1	1.237250
12.166667	1	1.248375
12.183333	1	1.260750
12.200000	1	1.275500
12.216667	1	1.292125
12.233333	1	1.311250
12.250000	1	1.332500
12.266667	1	1.357125
12.283333	1	1.383500
12.300000	1	1.412250
12.316667	1	1.444375
12.333333	1	1.480000
12.350000	1	1.521375
12.366667	1	1.570250
12.383333	1	1.632750
12.400000	1	1.712250
12.416667	1	1.816375
12.433333	1	1.951750
12.450000	1	2.128125
12.466667	1	2.352875
12.483333	1	2.634500
12.500000	1	2.976500
12.516667	1	3.382625
12.533333	1	3.850625
12.550000	1	4.374750
12.566667	1	4.946125
12.583333	1	5.552250
12.600000	1	6.175875
12.616667	1	6.801875
12.633333	1	7.417000
12.650000	1	8.009000
12.666667	1	8.569250
12.683333	1	9.092625
12.700000	1	9.580250
12.716667	1	10.034250
12.733333	1	10.461500
12.750000	1	10.867125
12.766667	1	11.258250
12.783333	1	11.633250
12.800000	1	11.980125
12.816667	1	12.269625
12.833333	1	12.451750
12.850000	1	12.463875
12.866667	1	12.248875
12.883333	1	11.778125
12.900000	1	11.072125
12.916667	1	10.196500
12.933333	1	9.238125
12.950000	1	8.277625
12.966667	1	7.370500
12.983333	1	6.546125
13.000000	1	5.814875
13.016667	1	5.176625
13.033333	1	4.625375
13.050000	1	4.157000
13.066667	1	3.761375
13.083333	1	3.430875
13.100000	1	3.156500
13.116667	1	2.928500
13.133333	1	2.739250
13.150000	1	2.580875
13.166667	1	2.447625
13.183333	1	2.334250
13.200000	1	2.237500
13.216667	1	2.153750
13.233333	1	2.080000
13.250000	1	2.013375
13.266667	1	1.954125
13.283333	1	1.898875
13.300000	1	1.848625
13.316667	1	1.802000
13.333333	1	1.759750
13.350000	1	1.721125
13.366667	1	1.685750
13.383333	1	1.653375
13.400000	1	1.624375
13.416667	1	1.598625
13.433333	1	1.576250
13.450000	1	1.556000
13.466667	1	1.540250
13.483333	1	1.527625
13.500000	1	1.517750
13.516667	1	1.509125
13.533333	1	1.503000
13.550000	1	1.498625
13.566667	1	1.494750
13.583333	1	1.491500
13.600000	1	1.486750
13.616667	1	1.481125
13.633333	1	1.473500
13.650000	1	1.463750
13.666667	1	1.451250
13.683333	1	1.437375
13.700000	1	1.421625
13.716667	1	1.404500
13.733333	1	1.386500
13.750000	1	1.368125
13.766667	1	1.349625
13.783333	1	1.331000
13.800000	1	1.313250
13.816667	1	1.295375
13.833333	1	1.278750
13.850000	1	1.262375
13.866667	1	1.247500
13.883333	1	1.232750
13.900000	1	1.218375
13.916667	1	1.204500
13.933333	1	1.192000
13.950000	1	1.179500
13.966667	1	1.168125
13.983333	1	1.156125
14.000000	1	1.144875
14.016667	1	1.133875
14.033333	1	1.123500
14.050000	1	1.112625
14.066667	1	1.102625
14.083333	1	1.091875
14.100000	1	1.082125
14.116667	1	1.072750
14.133333	1	1.063875
14.150000	1	1.054500
14.166667	1	1.045875
14.183333	1	1.037750
14.200000	1	1.030375
14.216667	1	1.024375
14.233333	1	1.018875
14.250000	1	1.014750
14.266667	1	1.012625
14.283333	1	1.011125
14.300000	1	1.011500
14.316667	1	1.013875
14.333333	1	1.017375
14.350000	1	1.022875
14.366667	1	1.030125
14.383333	1	1.039500
14.400000	1	1.052250
14.416667	1	1.070625
14.433333	1	1.095500
14.450000	1	1.133250
14.466667	1	1.190875
14.483333	1	1.281000
14.500000	1	1.421125
14.516667	1	1.636500
14.533333	1	1.961625
14.550000	1	2.440875
14.566667	1	3.130000
14.583333	1	4.095125
14.600000	1	5.410750
14.616667	1	7.159125
14.633333	1	9.420125
14.650000	1	12.261000
14.666667	1	15.727875
14.683333	1	19.829750
14.700000	1	24.528500
14.716667	1	29.736875
14.733333	1	35.323000
14.750000	1	41.097375
14.766667	1	46.829500
14.783333	1	52.262125
14.800000	1	57.144375
14.816667	1	61.237875
14.833333	1	64.345500
14.850000	1	66.326500
14.866667	1	67.110625
14.883333	1	66.705625
14.900000	1	65.190875
14.916667	1	62.705250
14.933333	1	59.427500
14.950000	1	55.561125
14.966667	1	51.312875
14.983333	1	46.876000
15.000000	1	42.413250
15.016667	1	38.054375
15.033333	1	33.898875
15.050000	1	30.016250
15.066667	1	26.448125
15.083333	1	23.215500
15.100000	1	20.320125
15.116667	1	17.749625
15.133333	1	15.483500
15.150000	1	13.495125
15.166667	1	11.757875
15.183333	1	10.245250
15.200000	1	8.932000
15.216667	1	7.796000
15.233333	1	6.815250
15.250000	1	5.972875
15.266667	1	5.254500
15.283333	1	4.645375
15.300000	1	4.134125
15.316667	1	3.707625
15.333333	1	3.357500
15.350000	1	3.072500
15.366667	1	2.844750
15.383333	1	2.665000
15.400000	1	2.524875
15.416667	1	2.415750
15.433333	1	2.331625
15.450000	1	2.264875
15.466667	1	2.210875
15.483333	1	2.164000
15.500000	1	2.120750
15.516667	1	2.078375
15.533333	1	2.034500
15.550000	1	1.989875
15.566667	1	1.943375
15.583333	1	1.896375
15.600000	1	1.848875
15.616667	1	1.800750
15.633333	1	1.755125
15.650000	1	1.710625
15.666667	1	1.668625
15.683333	1	1.629000
15.700000	1	1.591500
15.716667	1	1.556750
15.733333	1	1.524000
15.750000	1	1.493000
15.766667	1	1.463250
15.783333	1	1.435250
15.800000	1	1.408625
15.816667	1	1.383500
15.833333	1	1.358875
15.850000	1	1.336250
15.866667	1	1.315375
15.883333	1	1.296000
15.900000	1	1.278125
15.916667	1	1.262250
15.933333	1	1.249625
15.950000	1	1.238875
15.966667	1	1.230375
15.983333	1	1.224750
16.000000	1	1.220000
16.016667	1	1.217125
16.033333	1	1.216000
16.050000	1	1.216250
16.066667	1	1.217500
16.083333	1	1.218750
16.100000	1	1.220250
16.116667	1	1.222125
16.133333	1	1.224250
16.150000	1	1.225625
16.166667	1	1.226500
16.183333	1	1.225625
16.200000	1	1.223875
16.216667	1	1.221625
16.233333	1	1.218250
16.250000	1	1.214250
16.266667	1	1.207750
16.283333	1	1.201625
16.300000	1	1.194750
16.316667	1	1.188000
16.333333	1	1.181125
16.350000	1	1.174000
16.366667	1	1.168250
16.383333	1	1.163750
16.400000	1	1.160125
16.416667	1	1.158125
16.433333	1	1.156875
16.450000	1	1.156250
16.466667	1	1.155250
16.483333	1	1.155500
16.500000	1	1.155875
16.516667	1	1.155250
16.533333	1	1.153000
16.550000	1	1.150125
16.566667	1	1.146375
16.583333	1	1.140875
16.600000	1	1.133000
16.616667	1	1.124750
16.633333	1	1.116250
16.650000	1	1.107000
16.666667	1	1.098500
16.683333	1	1.090625
16.700000	1	1.084125
16.716667	1	1.078625
16.733333	1	1.076000
16.750000	1	1.076125
16.766667	1	1.078125
16.783333	1	1.081750
16.800000	1	1.087250
16.816667	1	1.093375
16.833333	1	1.100375
16.850000	1	1.107125
16.866667	1	1.113250
16.883333	1	1.118750
16.900000	1	1.123000
16.916667	1	1.126250
16.933333	1	1.126625
16.950000	1	1.126500
16.966667	1	1.125375
16.983333	1	1.122875
17.000000	1	1.118750
17.016667	1	1.114625
17.033333	1	1.110500
17.050000	1	1.105500
17.066667	1	1.100250
17.083333	1	1.096500
17.100000	1	1.092375
17.116667	1	1.088625
17.133333	1	1.085250
17.150000	1	1.083000
17.166667	1	1.080875
17.183333	1	1.080000
17.200000	1	1.079250
17.216667	1	1.079750
17.233333	1	1.080500
17.250000	1	1.081750
17.266667	1	1.083750
17.283333	1	1.086375
17.300000	1	1.089000
17.316667	1	1.092875
17.333333	1	1.096625
17.350000	1	1.100375
17.366667	1	1.104625
17.383333	1	1.108250
17.400000	1	1.111625
17.416667	1	1.114500
17.433333	1	1.117625
17.450000	1	1.118250
17.466667	1	1.118375
17.483333	1	1.116625
17.500000	1	1.113125
17.516667	1	1.107750
17.533333	1	1.101375
17.550000	1	1.093125
17.566667	1	1.083375
17.583333	1	1.072000
17.600000	1	1.059250
17.616667	1	1.046250
17.633333	1	1.032375
17.650000	1	1.019000
17.666667	1	1.005000
17.683333	1	0.991625
17.700000	1	0.977750
17.716667	1	0.965375
17.733333	1	0.953375
17.750000	1	0.941750
17.766667	1	0.931875
17.783333	1	0.923000
17.800000	1	0.913875
17.816667	1	0.906125
17.833333	1	0.898750
17.850000	1	0.893125
17.866667	1	0.886750
17.883333	1	0.880750
17.900000	1	0.876250
17.916667	1	0.871250
17.933333	1	0.865625
17.950000	1	0.860125
17.966667	1	0.854875
17.983333	1	0.848875
18.000000	1	0.842750
18.016667	1	0.836875
18.033333	1	0.830250
18.050000	1	0.823125
18.066667	1	0.816500
18.083333	1	0.810750
18.100000	1	0.804625
18.116667	1	0.798250
18.133333	1	0.793375
18.150000	1	0.789000
18.166667	1	0.785375
18.183333	1	0.782375
18.200000	1	0.780250
18.216667	1	0.778125
18.233333	1	0.776250
18.250000	1	0.774500
18.266667	1	0.772750
18.283333	1	0.771500
18.300000	1	0.770000
18.316667	1	0.769125
18.333333	1	0.768375
18.350000	1	0.768875
18.366667	1	0.769500
18.383333	1	0.771625
18.400000	1	0.775125
18.416667	1	0.779875
18.433333	1	0.785875
18.450000	1	0.794125
18.466667	1	0.804375
18.483333	1	0.816000
18.500000	1	0.830375
18.516667	1	0.847125
18.533333	1	0.865750
18.550000	1	0.887375
18.566667	1	0.909500
18.583333	1	0.935000
18.600000	1	0.962375
18.616667	1	0.991375
18.633333	1	1.021125
18.650000	1	1.052750
18.666667	1	1.086125
18.683333	1	1.119875
18.700000	1	1.155000
18.716667	1	1.190625
18.733333	1	1.226625
18.750000	1	1.262500
18.766667	1	1.298375
18.783333	1	1.332000
18.800000	1	1.364125
18.816667	1	1.394500
18.833333	1	1.421000
18.850000	1	1.442000
18.866667	1	1.459375
18.883333	1	1.471000
18.900000	1	1.477250
18.916667	1	1.476625
18.933333	1	1.470125
18.950000	1	1.457000
18.966667	1	1.437875
18.983333	1	1.412125
19.000000	1	1.380875
19.016667	1	1.344875
19.033333	1	1.305375
19.050000	1	1.261750
19.066667	1	1.216625
19.083333	1	1.169375
19.100000	1	1.122375
19.116667	1	1.076500
19.133333	1	1.032375
19.150000	1	0.990375
19.166667	1	0.951125
19.183333	1	0.916375
19.200000	1	0.886500
19.216667	1	0.860625
19.233333	1	0.839625
19.250000	1	0.825000
19.266667	1	0.815750
19.283333	1	0.813250
19.300000	1	0.815875
19.316667	1	0.825125
19.333333	1	0.840000
19.350000	1	0.859250
19.366667	1	0.884000
19.383333	1	0.913250
19.400000	1	0.945125
19.416667	1	0.979250
19.433333	1	1.014250
19.450000	1	1.049750
19.466667	1	1.084500
19.483333	1	1.117500
19.500000	1	1.147750
19.516667	1	1.174250
19.533333	1	1.197250
19.550000	1	1.215500
19.566667	1	1.229000
19.583333	1	1.238125
19.600000	1	1.241750
19.616667	1	1.241000
19.633333	1	1.235625
19.650000	1	1.225750
19.666667	1	1.211750
19.683333	1	1.193250
19.700000	1	1.172000
19.716667	1	1.147875
19.733333	1	1.121500
19.750000	1	1.092375
19.766667	1	1.061250
19.783333	1	1.029000
19.800000	1	0.995625
19.816667	1	0.961375
19.833333	1	0.926625
19.850000	1	0.892375
19.866667	1	0.859250
19.883333	1	0.827750
19.900000	1	0.796375
19.916667	1	0.767000
19.933333	1	0.740250
19.950000	1	0.716125
19.966667	1	0.695000
19.983333	1	0.677125
20.000000	1	0.662500
20.016667	1	0.651875
20.033333	1	0.644625
20.050000	1	0.642375
20.066667	1	0.644625
20.083333	1	0.651250
20.100000	1	0.662125
20.116667	1	0.676750
20.133333	1	0.695750
20.150000	1	0.717875
20.166667	1	0.742375
20.183333	1	0.768125
20.200000	1	0.795000
20.216667	1	0.820500
20.233333	1	0.844625
20.250000	1	0.865125
20.266667	1	0.882750
20.283333	1	0.896500
20.300000	1	0.904625
20.316667	1	0.908375
20.333333	1	0.906500
20.350000	1	0.899375
20.366667	1	0.888000
20.383333	1	0.871625
20.400000	1	0.852625
20.416667	1	0.830250
20.433333	1	0.806875
20.450000	1	0.783125
20.466667	1	0.759125
20.483333	1	0.737250
20.500000	1	0.716500
20.516667	1	0.699750
20.533333	1	0.687250
20.550000	1	0.678625
20.566667	1	0.677000
20.583333	1	0.682125
20.600000	1	0.694250
20.616667	1	0.714875
20.633333	1	0.744250
20.650000	1	0.782500
20.666667	1	0.829000
20.683333	1	0.884125
20.700000	1	0.946750
20.716667	1	1.017750
20.733333	1	1.094500
20.750000	1	1.174375
20.766667	1	1.256500
20.783333	1	1.338125
20.800000	1	1.416625
20.816667	1	1.489250
20.833333	1	1.553000
20.850000	1	1.606750
20.866667	1	1.649375
20.883333	1	1.679000
20.900000	1	1.694625
20.916667	1	1.696500
20.933333	1	1.684750
20.950000	1	1.660500
20.966667	1	1.624250
20.983333	1	1.578375
21.000000	1	1.524500
21.016667	1	1.464625
21.033333	1	1.400875
21.050000	1	1.334750
21.066667	1	1.267875
21.083333	1	1.201875
21.100000	1	1.137875
21.116667	1	1.075625
21.133333	1	1.016875
21.150000	1	0.961500
21.166667	1	0.910625
21.183333	1	0.863500
21.200000	1	0.819875
21.216667	1	0.781250
21.233333	1	0.745375
21.250000	1	0.713500
21.266667	1	0.683875
21.283333	1	0.658250
21.300000	1	0.634750
21.316667	1	0.614000
21.333333	1	0.595375
21.350000	1	0.578875
21.366667	1	0.564125
21.383333	1	0.550875
21.400000	1	0.538625
21.416667	1	0.526875
21.433333	1	0.517000
21.450000	1	0.507750
21.466667	1	0.500000
21.483333	1	0.493125
21.500000	1	0.487625
21.516667	1	0.482625
21.533333	1	0.478625
21.550000	1	0.475250
21.566667	1	0.473625
21.583333	1	0.473250
21.600000	1	0.473125
21.616667	1	0.475000
21.633333	1	0.478625
21.650000	1	0.483250
21.666667	1	0.489250
21.683333	1	0.497250
21.700000	1	0.507375
21.716667	1	0.517375
21.733333	1	0.529250
21.750000	1	0.542250
21.766667	1	0.556375
21.783333	1	0.571125
21.800000	1	0.586500
21.816667	1	0.602625
21.833333	1	0.618000
21.850000	1	0.632500
21.866667	1	0.647125
21.883333	1	0.660750
21.900000	1	0.673625
21.916667	1	0.684125
21.933333	1	0.692875
21.950000	1	0.700375
21.966667	1	0.705875
21.983333	1	0.710000
22.000000	1	0.712750
22.016667	1	0.714125
22.033333	1	0.713625
22.050000	1	0.712375
22.066667	1	0.709000
22.083333	1	0.704875
22.100000	1	0.699500
22.116667	1	0.693125
22.133333	1	0.686000
22.150000	1	0.678250
22.166667	1	0.669875
22.183333	1	0.660000
22.200000	1	0.649625
22.216667	1	0.637875
22.233333	1	0.626625
22.250000	1	0.614750
22.266667	1	0.601375
22.283333	1	0.587500
22.300000	1	0.573375
22.316667	1	0.559625
22.333333	1	0.545375
22.350000	1	0.531000
22.366667	1	0.517250
22.383333	1	0.503625
22.400000	1	0.490125
22.416667	1	0.477250
22.433333	1	0.465000
22.450000	1	0.453375
22.466667	1	0.442250
22.483333	1	0.432625
22.500000	1	0.423250
22.516667	1	0.415375
22.533333	1	0.407375
22.550000	1	0.400125
22.566667	1	0.392750
22.583333	1	0.386625
22.600000	1	0.380375
22.616667	1	0.374750
22.633333	1	0.369250
22.650000	1	0.364125
22.666667	1	0.359875
22.683333	1	0.355000
22.700000	1	0.350250
22.716667	1	0.345500
22.733333	1	0.341000
22.750000	1	0.336125
22.766667	1	0.331875
22.783333	1	0.327500
22.800000	1	0.323375
22.816667	1	0.318750
22.833333	1	0.314125
22.850000	1	0.310125
22.866667	1	0.306625
22.883333	1	0.303000
22.900000	1	0.300250
22.916667	1	0.297500
22.933333	1	0.294750
22.950000	1	0.292750
22.966667	1	0.291250
22.983333	1	0.289625
23.000000	1	0.288250
23.016667	1	0.287375
23.033333	1	0.286000
23.050000	1	0.286625
23.066667	1	0.287250
23.083333	1	0.287500
23.100000	1	0.288875
23.116667	1	0.289375
23.133333	1	0.290875
23.150000	1	0.291875
23.166667	1	0.294375
23.183333	1	0.296500
23.200000	1	0.298750
23.216667	1	0.300625
23.233333	1	0.303375
23.250000	1	0.306125
23.266667	1	0.308500
23.283333	1	0.312500
23.300000	1	0.316750
23.316667	1	0.322625
23.333333	1	0.330250
23.350000	1	0.341375
23.366667	1	0.355750
23.383333	1	0.374250
23.400000	1	0.397375
23.416667	1	0.428375
23.433333	1	0.467750
23.450000	1	0.516875
23.466667	1	0.578250
23.483333	1	0.653250
23.500000	1	0.745250
23.516667	1	0.854875
23.533333	1	0.983500
23.550000	1	1.133125
23.566667	1	1.304625
23.583333	1	1.498750
23.600000	1	1.714000
23.616667	1	1.949625
23.633333	1	2.203750
23.650000	1	2.472250
23.666667	1	2.753250
23.683333	1	3.041000
23.700000	1	3.330875
23.716667	1	3.616500
23.733333	1	3.892375
23.750000	1	4.151375
23.766667	1	4.389875
23.783333	1	4.599375
23.800000	1	4.777125
23.816667	1	4.918500
23.833333	1	5.021125
23.850000	1	5.083750
23.866667	1	5.107000
23.883333	1	5.090000
23.900000	1	5.035125
23.916667	1	4.945000
23.933333	1	4.824500
23.950000	1	4.676500
23.966667	1	4.505375
23.983333	1	4.316500
24.000000	1	4.114625
24.016667	1	3.903375
24.033333	1	3.687625
24.050000	1	3.471000
24.066667	1	3.255875
24.083333	1	3.046000
24.100000	1	2.841750
24.116667	1	2.645750
24.133333	1	2.458125
24.150000	1	2.280875
24.166667	1	2.114500
24.183333	1	1.957875
24.200000	1	1.812500
24.216667	1	1.676625
24.233333	1	1.551250
24.250000	1	1.435250
24.266667	1	1.329875
24.283333	1	1.232000
24.300000	1	1.142875
24.316667	1	1.061625
24.333333	1	0.987625
24.350000	1	0.921375
24.366667	1	0.861125
24.383333	1	0.807250
24.400000	1	0.759000
24.416667	1	0.716250
24.433333	1	0.679750
24.450000	1	0.646125
24.466667	1	0.617750
24.483333	1	0.592500
24.500000	1	0.571125
24.516667	1	0.552625
24.533333	1	0.536125
24.550000	1	0.521625
24.566667	1	0.508750
24.583333	1	0.497125
24.600000	1	0.487500
24.616667	1	0.478750
24.633333	1	0.470250
24.650000	1	0.462375
24.666667	1	0.454250
24.683333	1	0.446500
24.700000	1	0.439500
24.716667	1	0.432000
24.733333	1	0.424250
24.750000	1	0.417000
24.766667	1	0.409125
24.783333	1	0.401625
24.800000	1	0.394125
24.816667	1	0.386625
24.833333	1	0.379750
24.850000	1	0.373125
24.866667	1	0.366625
24.883333	1	0.360250
24.900000	1	0.353500
24.916667	1	0.347750
24.933333	1	0.342250
24.950000	1	0.336250
24.966667	1	0.330500
24.983333	1	0.325375
25.000000	1	0.320625
25.016667	1	0.315875
25.033333	1	0.311375
25.050000	1	0.306500
25.066667	1	0.302750
25.083333	1	0.299250
25.100000	1	0.295625
25.116667	1	0.291625
25.133333	1	0.288000
25.150000	1	0.283875
25.166667	1	0.280375
25.183333	1	0.276625
25.200000	1	0.273000
25.216667	1	0.270000
25.233333	1	0.266875
25.250000	1	0.264000
25.266667	1	0.260625
25.283333	1	0.258375
25.300000	1	0.255750
25.316667	1	0.253125
25.333333	1	0.250375
25.350000	1	0.248125
25.366667	1	0.245625
25.383333	1	0.243750
25.400000	1	0.241500
25.416667	1	0.239500
25.433333	1	0.237625
25.450000	1	0.236250
25.466667	1	0.235250
25.483333	1	0.234875
25.500000	1	0.233500
25.516667	1	0.232500
25.533333	1	0.231250
25.550000	1	0.231250
25.566667	1	0.230875
25.583333	1	0.230375
25.600000	1	0.230625
25.616667	1	0.230000
25.633333	1	0.229375
25.650000	1	0.228375
25.666667	1	0.227875
25.683333	1	0.227250
25.700000	1	0.226500
25.716667	1	0.226000
25.733333	1	0.225750
25.750000	1	0.224625
25.766667	1	0.223875
25.783333	1	0.223125
25.800000	1	0.223500
25.816667	1	0.223125
25.833333	1	0.223375
25.850000	1	0.223500
25.866667	1	0.223875
25.883333	1	0.224500
25.900000	1	0.225750
25.916667	1	0.226625
25.933333	1	0.228375
25.950000	1	0.229625
25.966667	1	0.231875
25.983333	1	0.235000
26.000000	1	0.237625
26.016667	1	0.240625
26.033333	1	0.244625
26.050000	1	0.249125
26.066667	1	0.254125
26.083333	1	0.259625
26.100000	1	0.265500
26.116667	1	0.271875
26.133333	1	0.277625
26.150000	1	0.283500
26.166667	1	0.290125
26.183333	1	0.296750
26.200000	1	0.303125
26.216667	1	0.309500
26.233333	1	0.315750
26.250000	1	0.322250
26.266667	1	0.328500
26.283333	1	0.334375
26.300000	1	0.339375
26.316667	1	0.344125
26.333333	1	0.348125
26.350000	1	0.351625
26.366667	1	0.354625
26.383333	1	0.356750
26.400000	1	0.358875
26.416667	1	0.358750
26.433333	1	0.359000
26.450000	1	0.358375
26.466667	1	0.356750
26.483333	1	0.353750
26.500000	1	0.351125
26.516667	1	0.347375
26.533333	1	0.343750
26.550000	1	0.338875
26.566667	1	0.333375
26.583333	1	0.328000
26.600000	1	0.322250
26.616667	1	0.315875
26.633333	1	0.309500
26.650000	1	0.303250
26.666667	1	0.297000
26.683333	1	0.290500
26.700000	1	0.284000
26.716667	1	0.277250
26.733333	1	0.270500
26.750000	1	0.264750
26.766667	1	0.258375
26.783333	1	0.252625
26.800000	1	0.246625
26.816667	1	0.240875
26.833333	1	0.236125
26.850000	1	0.232125
26.866667	1	0.228375
26.883333	1	0.224750
26.900000	1	0.221250
26.916667	1	0.218500
26.933333	1	0.214375
26.950000	1	0.212875
26.966667	1	0.210750
26.983333	1	0.209375
27.000000	1	0.208375
27.016667	1	0.207625
27.033333	1	0.206750
27.050000	1	0.207125
27.066667	1	0.208375
27.083333	1	0.209500
27.100000	1	0.210875
27.116667	1	0.212875
27.133333	1	0.215750
27.150000	1	0.219250
27.166667	1	0.223625
27.183333	1	0.228625
27.200000	1	0.235125
27.216667	1	0.242500
27.233333	1	0.251125
27.250000	1	0.261750
27.266667	1	0.275250
27.283333	1	0.290750
27.300000	1	0.308875
27.316667	1	0.330750
27.333333	1	0.356875
27.350000	1	0.388000
27.366667	1	0.425125
27.383333	1	0.468125
27.400000	1	0.518375
27.416667	1	0.575625
27.433333	1	0.642250
27.450000	1	0.719375
27.466667	1	0.806625
27.483333	1	0.905750
27.500000	1	1.015375
27.516667	1	1.137250
27.533333	1	1.271000
27.550000	1	1.417000
27.566667	1	1.573375
27.583333	1	1.741000
27.600000	1	1.918625
27.616667	1	2.104625
27.633333	1	2.298625
27.650000	1	2.497625
27.666667	1	2.699125
27.683333	1	2.901000
27.700000	1	3.101250
27.716667	1	3.296000
27.733333	1	3.481000
27.750000	1	3.655500
27.766667	1	3.815625
27.783333	1	3.958125
27.800000	1	4.081500
27.816667	1	4.183375
27.833333	1	4.261375
27.850000	1	4.314125
27.866667	1	4.342000
27.883333	1	4.343625
27.900000	1	4.320000
27.916667	1	4.271125
27.933333	1	4.199750
27.950000	1	4.105625
27.966667	1	3.992125
27.983333	1	3.862250
28.000000	1	3.718125
28.016667	1	3.561750
28.033333	1	3.396375
28.050000	1	3.224375
28.066667	1	3.048250
28.083333	1	2.870375
28.100000	1	2.693625
28.116667	1	2.520375
28.133333	1	2.351125
28.150000	1	2.188250
28.166667	1	2.031625
28.183333	1	1.883375
28.200000	1	1.742375
28.216667	1	1.610375
28.233333	1	1.486875
28.250000	1	1.371625
28.266667	1	1.264500
28.283333	1	1.166000
28.300000	1	1.076250
28.316667	1	0.993750
28.333333	1	0.918750
28.350000	1	0.850000
28.366667	1	0.788750
28.383333	1	0.733250
28.400000	1	0.683250
28.416667	1	0.640000
28.433333	1	0.601000
28.450000	1	0.567375
28.466667	1	0.538500
28.483333	1	0.513125
28.500000	1	0.492250
28.516667	1	0.474750
28.533333	1	0.460625
28.550000	1	0.449500
28.566667	1	0.442250
28.583333	1	0.437000
28.600000	1	0.434750
28.616667	1	0.433750
28.633333	1	0.435500
28.650000	1	0.438750
28.666667	1	0.443375
28.683333	1	0.449375
28.700000	1	0.456500
28.716667	1	0.464375
28.733333	1	0.473000
28.750000	1	0.481875
28.766667	1	0.490750
28.783333	1	0.500125
28.800000	1	0.509875
28.816667	1	0.518250
28.833333	1	0.527000
28.850000	1	0.534625
28.866667	1	0.541750
28.883333	1	0.547750
28.900000	1	0.553375
28.916667	1	0.557750
28.933333	1	0.560625
28.950000	1	0.562750
28.966667	1	0.563250
28.983333	1	0.562625
29.000000	1	0.560000
29.016667	1	0.556625
29.033333	1	0.551500
29.050000	1	0.544250
29.066667	1	0.534750
29.083333	1	0.524125
29.100000	1	0.511125
29.116667	1	0.496750
29.133333	1	0.479375
29.150000	1	0.461125
29.166667	1	0.441250
29.183333	1	0.418250
29.200000	1	0.392250
29.216667	1	0.364875
29.233333	1	0.334625
29.250000	1	0.301375
29.266667	1	0.265875
29.283333	1	0.227000
29.300000	1	0.185875
29.316667	1	0.141625
29.333333	1	0.095250
29.350000	1	0.046500
29.366667	1	-0.005500
29.383333	1	-0.059250
29.400000	1	-0.115125
29.416667	1	-0.173500
29.433333	1	-0.233375
29.450000	1	-0.295875
29.466667	1	-0.359000
29.483333	1	-0.422000
29.500000	1	-0.485875
29.516667	1	-0.548875
29.533333	1	-0.611000
29.550000	1	-0.671375
29.566667	1	-0.730375
29.583333	1	-0.787125
29.600000	1	-0.840750
29.616667	1	-0.890125
29.633333	1	-0.935875
29.650000	1	-0.977625
29.666667	1	-1.014250
29.683333	1	-1.046125
29.700000	1	-1.073000
29.716667	1	-1.093750
29.733333	1	-1.108000
29.750000	1	-1.116375
29.766667	1	-1.119875
29.783333	1	-1.117500
29.800000	1	-1.109375
29.816667	1	-1.095875
29.833333	1	-1.077875
29.850000	1	-1.054875
29.866667	1	-1.028250
29.883333	1	-0.997875
29.900000	1	-0.963500
29.916667	1	-0.926000
29.933333	1	-0.885500
29.950000	1	-0.843625
29.966667	1	-0.799750
29.983333	1	-0.755000
30.000000	1	-0.709375
30.016667	1	-0.663875
30.033333	1	-0.617750
30.050000	1	-0.572125
30.066667	1	-0.526875
30.083333	1	-0.483750
30.100000	1	-0.441375
30.116667	1	-0.400250
30.133333	1	-0.360125
30.150000	1	-0.321500
30.166667	1	-0.285000
30.183333	1	-0.250875
30.200000	1	-0.217875
30.216667	1	-0.186500
30.233333	1	-0.158375
30.250000	1	-0.131750
30.266667	1	-0.106625
30.283333	1	-0.083250
30.300000	1	-0.062250
30.316667	1	-0.042375
30.333333	1	-0.024875
30.350000	1	-0.009125
30.366667	1	0.005750
30.383333	1	0.019750
30.400000	1	0.032500
30.416667	1	0.043125
30.433333	1	0.053375
30.450000	1	0.062875
30.466667	1	0.071750
30.483333	1	0.079250
30.500000	1	0.087000
30.516667	1	0.093000
30.533333	1	0.099000
30.550000	1	0.105125
30.566667	1	0.111375
30.583333	1	0.116250
30.600000	1	0.122250
30.616667	1	0.128375
30.633333	1	0.134250
30.650000	1	0.140500
30.666667	1	0.147250
30.683333	1	0.153625
30.700000	1	0.161500
30.716667	1	0.169125
30.733333	1	0.176875
30.750000	1	0.185375
30.766667	1	0.194000
30.783333	1	0.202750
30.800000	1	0.213250
30.816667	1	0.223750
30.833333	1	0.235000
30.850000	1	0.246625
30.866667	1	0.259375
30.883333	1	0.272125
30.900000	1	0.286375
30.916667	1	0.301625
30.933333	1	0.318875
30.950000	1	0.337625
30.966667	1	0.358125
30.983333	1	0.380625
31.000000	1	0.406250
31.016667	1	0.435000
31.033333	1	0.467250
31.050000	1	0.504000
31.066667	1	0.546000
31.083333	1	0.593750
31.100000	1	0.648000
31.116667	1	0.709500
31.133333	1	0.780500
31.150000	1	0.860500
31.166667	1	0.950500
31.183333	1	1.050875
31.200000	1	1.163250
31.216667	1	1.287750
31.233333	1	1.424750
31.250000	1	1.574250
31.266667	1	1.736500
31.283333	1	1.911000
31.300000	1	2.097625
31.316667	1	2.295625
31.333333	1	2.502625
31.350000	1	2.718750
31.366667	1	2.941750
31.383333	1	3.169875
31.400000	1	3.400875
31.416667	1	3.632000
31.433333	1	3.861375
31.450000	1	4.085375
31.466667	1	4.301625
31.483333	1	4.505875
31.500000	1	4.697125
31.516667	1	4.872125
31.533333	1	5.029000
31.550000	1	5.165375
31.566667	1	5.280375
31.583333	1	5.371250
31.600000	1	5.438875
31.616667	1	5.482000
31.633333	1	5.500375
31.650000	1	5.493375
31.666667	1	5.461625
31.683333	1	5.407500
31.700000	1	5.330750
31.716667	1	5.234000
31.733333	1	5.119000
31.750000	1	4.987875
31.766667	1	4.841625
31.783333	1	4.682625
31.800000	1	4.512500
31.816667	1	4.334625
31.833333	1	4.150250
31.850000	1	3.961375
31.866667	1	3.771125
31.883333	1	3.579625
31.900000	1	3.389375
31.916667	1	3.201250
31.933333	1	3.016875
31.950000	1	2.836125
31.966667	1	2.661375
31.983333	1	2.492000
32.000000	1	2.329125
32.016667	1	2.172375
32.033333	1	2.022500
32.050000	1	1.880500
32.066667	1	1.745500
32.083333	1	1.617750
32.100000	1	1.497250
32.116667	1	1.384875
32.133333	1	1.279625
32.150000	1	1.179500
32.166667	1	1.085750
32.183333	1	0.998750
32.200000	1	0.917125
32.216667	1	0.841875
32.233333	1	0.771125
32.250000	1	0.705875
32.266667	1	0.645500
32.283333	1	0.589375
32.300000	1	0.537500
32.316667	1	0.489875
32.333333	1	0.446875
32.350000	1	0.406625
32.366667	1	0.369875
32.383333	1	0.336375
32.400000	1	0.306125
32.416667	1	0.278375
32.433333	1	0.252375
32.450000	1	0.229500
32.466667	1	0.209500
32.483333	1	0.190250
32.500000	1	0.173625
32.516667	1	0.160000
32.533333	1	0.146750
32.550000	1	0.135250
32.566667	1	0.125000
32.583333	1	0.116125
32.600000	1	0.108375
32.616667	1	0.101500
32.633333	1	0.095750
32.650000	1	0.090625
32.666667	1	0.086375
32.683333	1	0.083000
32.700000	1	0.079500
32.716667	1	0.076500
32.733333	1	0.074375
32.750000	1	0.073000
32.766667	1	0.071750
32.783333	1	0.070875
32.800000	1	0.069500
32.816667	1	0.068750
32.833333	1	0.068500
32.850000	1	0.068250
32.866667	1	0.067875
32.883333	1	0.067000
32.900000	1	0.067000
32.916667	1	0.066750
32.933333	1	0.066625
32.950000	1	0.066125
32.966667	1	0.065750
32.983333	1	0.065500
33.000000	1	0.064500
33.016667	1	0.064250
33.033333	1	0.063750
33.050000	1	0.063375
33.066667	1	0.063250
33.083333	1	0.062625
33.100000	1	0.062000
33.116667	1	0.060750
33.133333	1	0.060000
33.150000	1	0.060125
33.166667	1	0.059875
33.183333	1	0.060125
33.200000	1	0.059625
33.216667	1	0.059375
33.233333	1	0.058750
33.250000	1	0.057250
33.266667	1	0.056500
33.283333	1	0.055500
33.300000	1	0.054875
33.316667	1	0.054625
33.333333	1	0.053500
33.350000	1	0.052750
33.366667	1	0.052375
33.383333	1	0.052125
33.400000	1	0.051875
33.416667	1	0.051500
33.433333	1	0.051250
33.450000	1	0.051000
33.466667	1	0.050625
33.483333	1	0.050500
33.500000	1	0.050250
33.516667	1	0.050375
33.533333	1	0.050875
33.550000	1	0.051000
33.566667	1	0.052000
33.583333	1	0.052625
33.600000	1	0.054375
33.616667	1	0.055875
33.633333	1	0.056625
33.650000	1	0.058125
33.666667	1	0.059875
33.683333	1	0.061750
33.700000	1	0.063625
33.716667	1	0.065250
33.733333	1	0.067375
33.750000	1	0.070625
33.766667	1	0.072750
33.783333	1	0.075875
33.800000	1	0.078500
33.816667	1	0.081375
33.833333	1	0.084125
33.850000	1	0.087250
33.866667	1	0.090250
33.883333	1	0.093750
33.900000	1	0.097000
33.916667	1	0.100375
33.933333	1	0.103875
33.950000	1	0.107000
33.966667	1	0.110625
33.983333	1	0.113750
34.000000	1	0.116750
34.016667	1	0.119875
34.033333	1	0.123000
34.050000	1	0.126125
34.066667	1	0.129500
34.083333	1	0.132125
34.100000	1	0.134750
34.116667	1	0.137000
34.133333	1	0.138875
34.150000	1	0.141500
34.166667	1	0.143375
34.183333	1	0.144250
34.200000	1	0.146125
34.216667	1	0.147125
34.233333	1	0.148125
34.250000	1	0.148750
34.266667	1	0.149875
34.283333	1	0.150500
34.300000	1	0.151500
34.316667	1	0.151875
34.333333	1	0.152250
34.350000	1	0.152250
34.366667	1	0.152375
34.383333	1	0.151500
34.400000	1	0.151625
34.416667	1	0.152125
34.433333	1	0.151250
34.450000	1	0.150875
34.466667	1	0.150000
34.483333	1	0.149750
34.500000	1	0.148750
34.516667	1	0.148750
34.533333	1	0.148375
34.550000	1	0.147750
34.566667	1	0.146250
34.583333	1	0.145750
34.600000	1	0.145250
34.616667	1	0.144250
34.633333	1	0.143375
34.650000	1	0.142125
34.666667	1	0.140625
34.683333	1	0.139125
34.700000	1	0.138125
34.716667	1	0.137500
34.733333	1	0.137000
34.750000	1	0.136125
34.766667	1	0.134875
34.783333	1	0.133250
34.800000	1	0.132000
34.816667	1	0.129875
34.833333	1	0.128250
34.850000	1	0.127000
34.866667	1	0.125750
34.883333	1	0.124000
34.900000	1	0.122750
34.916667	1	0.121750
34.933333	1	0.120750
34.950000	1	0.119000
34.966667	1	0.117875
34.983333	1	0.116750
35.000000	1	0.115750
35.016667	1	0.114500
35.033333	1	0.112875
35.050000	1	0.111625
35.066667	1	0.111000
35.083333	1	0.110500
35.100000	1	0.109625
35.116667	1	0.108625
35.133333	1	0.108250
35.150000	1	0.108000
35.166667	1	0.106750
35.183333	1	0.106500
35.200000	1	0.105875
35.216667	1	0.105500
35.233333	1	0.104750
35.250000	1	0.104500
35.266667	1	0.104000
35.283333	1	0.104125
35.300000	1	0.103500
35.316667	1	0.103375
35.333333	1	0.102875
35.350000	1	0.101875
35.366667	1	0.101500
35.383333	1	0.100750
35.400000	1	0.100625
35.416667	1	0.100125
35.433333	1	0.099375
35.450000	1	0.098500
35.466667	1	0.098250
35.483333	1	0.098250
35.500000	1	0.098125
35.516667	1	0.097625
35.533333	1	0.097250
35.550000	1	0.097125
35.566667	1	0.097750
35.583333	1	0.097875
35.600000	1	0.097750
35.616667	1	0.097875
35.633333	1	0.098500
35.650000	1	0.099000
35.666667	1	0.099750
35.683333	1	0.100125
35.700000	1	0.101375
35.716667	1	0.102875
35.733333	1	0.104375
35.750000	1	0.105625
35.766667	1	0.106625
35.783333	1	0.107750
35.800000	1	0.109250
35.816667	1	0.110750
35.833333	1	0.112250
35.850000	1	0.113375
35.866667	1	0.114375
35.883333	1	0.115375
35.900000	1	0.116125
35.916667	1	0.117250
35.933333	1	0.117875
35.950000	1	0.119125
35.966667	1	0.119750
35.983333	1	0.121125
36.000000	1	0.121625
36.016667	1	0.122125
36.033333	1	0.122500
36.050000	1	0.121875
36.066667	1	0.122250
36.083333	1	0.122375
36.100000	1	0.122375
36.116667	1	0.122250
36.133333	1	0.122250
36.150000	1	0.122375
36.166667	1	0.122500
36.183333	1	0.122875
36.200000	1	0.123000
36.216667	1	0.122500
36.233333	1	0.122750
36.250000	1	0.122750
36.266667	1	0.123375
36.283333	1	0.124000
36.300000	1	0.124250
36.316667	1	0.126000
36.333333	1	0.127250
36.350000	1	0.127500
36.366667	1	0.128375
36.383333	1	0.130125
36.400000	1	0.132000
36.416667	1	0.133375
36.433333	1	0.134375
36.450000	1	0.135375
36.466667	1	0.137125
36.483333	1	0.138250
36.500000	1	0.139750
36.516667	1	0.141625
36.533333	1	0.143000
36.550000	1	0.144125
36.566667	1	0.144750
36.583333	1	0.145750
36.600000	1	0.146125
36.616667	1	0.147125
36.633333	1	0.148000
36.650000	1	0.148500
36.666667	1	0.149375
36.683333	1	0.149625
36.700000	1	0.150375
36.716667	1	0.151125
36.733333	1	0.152375
36.750000	1	0.152875
36.766667	1	0.153000
36.783333	1	0.153125
36.800000	1	0.153000
36.816667	1	0.153500
36.833333	1	0.154500
36.850000	1	0.155125
36.866667	1	0.156375
36.883333	1	0.157125
36.900000	1	0.158000
36.916667	1	0.159375
36.933333	1	0.160625
36.950000	1	0.161875
36.966667	1	0.164125
36.983333	1	0.166125
37.000000	1	0.168875
37.016667	1	0.172000
37.033333	1	0.175625
37.050000	1	0.178125
37.066667	1	0.181250
37.083333	1	0.185500
37.100000	1	0.189875
37.116667	1	0.194500
37.133333	1	0.199500
37.150000	1	0.204500
37.166667	1	0.210000
37.183333	1	0.215625
37.200000	1	0.221875
37.216667	1	0.228875
37.233333	1	0.235625
37.250000	1	0.243000
37.266667	1	0.251625
37.283333	1	0.260125
37.300000	1	0.268250
37.316667	1	0.278375
37.333333	1	0.288250
37.350000	1	0.298000
37.366667	1	0.307750
37.383333	1	0.319000
37.400000	1	0.330125
37.416667	1	0.341250
37.433333	1	0.352750
37.450000	1	0.364750
37.466667	1	0.377750
37.483333	1	0.390625
37.500000	1	0.404125
37.516667	1	0.417500
37.533333	1	0.432500
37.550000	1	0.446750
37.566667	1	0.460625
37.583333	1	0.475375
37.600000	1	0.489875
37.616667	1	0.504375
37.633333	1	0.519375
37.650000	1	0.534875
37.666667	1	0.550750
37.683333	1	0.566250
37.700000	1	0.581750
37.716667	1	0.597500
37.733333	1	0.613250
37.750000	1	0.629000
37.766667	1	0.644875
37.783333	1	0.660125
37.800000	1	0.676000
37.816667	1	0.691625
37.833333	1	0.706875
37.850000	1	0.722375
37.866667	1	0.737875
37.883333	1	0.752875
37.900000	1	0.768125
37.916667	1	0.783375
37.933333	1	0.798125
37.950000	1	0.812625
37.966667	1	0.827250
37.983333	1	0.841125
38.000000	1	0.854625
38.016667	1	0.868750
38.033333	1	0.881875
38.050000	1	0.894750
38.066667	1	0.907375
38.083333	1	0.919625
38.100000	1	0.932250
38.116667	1	0.944000
38.133333	1	0.955000
38.150000	1	0.965875
38.166667	1	0.976750
38.183333	1	0.986375
38.200000	1	0.995750
38.216667	1	1.004000
38.233333	1	1.012250
38.250000	1	1.020000
38.266667	1	1.027375
38.283333	1	1.033500
38.300000	1	1.039750
38.316667	1	1.045375
38.333333	1	1.049625
38.350000	1	1.053750
38.366667	1	1.057750
38.383333	1	1.060625
38.400000	1	1.063000
38.416667	1	1.064500
38.433333	1	1.065125
38.450000	1	1.065750
38.466667	1	1.065625
38.483333	1	1.064875
38.500000	1	1.063625
38.516667	1	1.062000
38.533333	1	1.060125
38.550000	1	1.057500
38.566667	1	1.054500
38.583333	1	1.051000
38.600000	1	1.046500
38.616667	1	1.042750
38.633333	1	1.038125
38.650000	1	1.032750
38.666667	1	1.027250
38.683333	1	1.021500
38.700000	1	1.015500
38.716667	1	1.009375
38.733333	1	1.003250
38.750000	1	0.996625
38.766667	1	0.989500
38.783333	1	0.981875
38.800000	1	0.973625
38.816667	1	0.965625
38.833333	1	0.957125
38.850000	1	0.948500
38.866667	1	0.941125
38.883333	1	0.932625
38.900000	1	0.922750
38.916667	1	0.913500
38.933333	1	0.904500
38.950000	1	0.894375
38.966667	1	0.884500
38.983333	1	0.874000
39.000000	1	0.863125
39.016667	1	0.852375
39.033333	1	0.841000
39.050000	1	0.829375
39.066667	1	0.817750
39.083333	1	0.805625
39.100000	1	0.793250
39.116667	1	0.780750
39.133333	1	0.767750
39.150000	1	0.754000
39.166667	1	0.740375
39.183333	1	0.726875
39.200000	1	0.712750
39.216667	1	0.698375
39.233333	1	0.684375
39.250000	1	0.670500
39.266667	1	0.656875
39.283333	1	0.642500
39.300000	1	0.628250
39.316667	1	0.614375
39.333333	1	0.599750
39.350000	1	0.586375
39.366667	1	0.572375
39.383333	1	0.558375
39.400000	1	0.544125
39.416667	1	0.530875
39.433333	1	0.518000
39.450000	1	0.505875
39.466667	1	0.494000
39.483333	1	0.482500
39.500000	1	0.470625
39.516667	1	0.459250
39.533333	1	0.447500
39.550000	1	0.436250
39.566667	1	0.425375
39.583333	1	0.414750
39.600000	1	0.404250
39.616667	1	0.394375
39.633333	1	0.385125
39.650000	1	0.375625
39.666667	1	0.366875
39.683333	1	0.357875
39.700000	1	0.349125
39.716667	1	0.340625
39.733333	1	0.331500
39.750000	1	0.322875
39.766667	1	0.314125
39.783333	1	0.305625
39.800000	1	0.297500
39.816667	1	0.289250
39.833333	1	0.281000
39.850000	1	0.273500
39.866667	1	0.264750
39.883333	1	0.256875
39.900000	1	0.249250
39.916667	1	0.241750
39.933333	1	0.234000
39.950000	1	0.226375
39.966667	1	0.219250
39.983333	1	0.212375
40.000000	1	0.205125
