URL	chrom://7040-86g6c92/XVault/Ultimate_3000/20/20240517_CMO_FP23_FP25_MarkusDeplate.seq/982.smp/RI_1.channel/RI_1.chm
Channel	RI_1

Injection Information:
Data Vault	XVault
Sequence	20240517_CMO_FP23_FP25_MarkusDeplate
Name	FP25_25.1_s4
Number	44
Position	BD8
Comment	
Processing Method	
Instrument Method	run_25B_method
Type	Unknown
Status	Finished
Inject Time	28.05.2024 23:24:07 +02:00
Volume (µl)	20.0000
Dilution Factor	1.0000
Weight	1.0000

Chromatogram Data Information:
Time Min. (min)	0.000000
Time Max. (min)	40.000000
Data Points	2401
Detector	RI
Generating Data System	Chromeleon 7.3.2.11814
Exporting Data System	Chromeleon 7.3.2.0
Operator	Instrument Controller
Signal Quantity	Refractive 
Signal Unit	µRIU
Signal Min.	-1.014625
Signal Max.	64.190000
Channel	RI_1
Driver Name	RID520Driver.dll
Channel Type	Evaluation
Min. Step (s)	1
Max. Step (s)	1
Average Step (s)	1

Signal Parameter Information:
Signal Info	

Chromatogram Data:
Time (min)	Step (s)	Value (µRIU)
0.000000	n.a.	-0.011500
0.016667	1	-0.010500
0.033333	1	-0.009375
0.050000	1	-0.008625
0.066667	1	-0.007500
0.083333	1	-0.006125
0.100000	1	-0.004875
0.116667	1	-0.003375
0.133333	1	-0.002000
0.150000	1	-0.001375
0.166667	1	0.000000
0.183333	1	0.000750
0.200000	1	0.002125
0.216667	1	0.002750
0.233333	1	0.003875
0.250000	1	0.004625
0.266667	1	0.005000
0.283333	1	0.005500
0.300000	1	0.006750
0.316667	1	0.007125
0.333333	1	0.007125
0.350000	1	0.006375
0.366667	1	0.005625
0.383333	1	0.004625
0.400000	1	0.004000
0.416667	1	0.003625
0.433333	1	0.004250
0.450000	1	0.005250
0.466667	1	0.006750
0.483333	1	0.008375
0.500000	1	0.008875
0.516667	1	0.009000
0.533333	1	0.008750
0.550000	1	0.008000
0.566667	1	0.006250
0.583333	1	0.004000
0.600000	1	0.001125
0.616667	1	-0.002000
0.633333	1	-0.004875
0.650000	1	-0.006625
0.666667	1	-0.008625
0.683333	1	-0.009500
0.700000	1	-0.009750
0.716667	1	-0.010625
0.733333	1	-0.010625
0.750000	1	-0.010375
0.766667	1	-0.010500
0.783333	1	-0.011375
0.800000	1	-0.011125
0.816667	1	-0.011250
0.833333	1	-0.011500
0.850000	1	-0.011500
0.866667	1	-0.011875
0.883333	1	-0.011750
0.900000	1	-0.012500
0.916667	1	-0.012875
0.933333	1	-0.013625
0.950000	1	-0.014875
0.966667	1	-0.015250
0.983333	1	-0.015750
1.000000	1	-0.016500
1.016667	1	-0.017250
1.033333	1	-0.017250
1.050000	1	-0.017500
1.066667	1	-0.018125
1.083333	1	-0.018375
1.100000	1	-0.018875
1.116667	1	-0.019625
1.133333	1	-0.020375
1.150000	1	-0.021000
1.166667	1	-0.022625
1.183333	1	-0.024125
1.200000	1	-0.025250
1.216667	1	-0.026125
1.233333	1	-0.027125
1.250000	1	-0.027500
1.266667	1	-0.027750
1.283333	1	-0.027625
1.300000	1	-0.028500
1.316667	1	-0.028125
1.333333	1	-0.029375
1.350000	1	-0.030125
1.366667	1	-0.030125
1.383333	1	-0.030875
1.400000	1	-0.030375
1.416667	1	-0.030250
1.433333	1	-0.030000
1.450000	1	-0.029500
1.466667	1	-0.029375
1.483333	1	-0.028500
1.500000	1	-0.027625
1.516667	1	-0.027375
1.533333	1	-0.027000
1.550000	1	-0.026375
1.566667	1	-0.025000
1.583333	1	-0.024000
1.600000	1	-0.023375
1.616667	1	-0.022125
1.633333	1	-0.021375
1.650000	1	-0.019875
1.666667	1	-0.018875
1.683333	1	-0.017750
1.700000	1	-0.015750
1.716667	1	-0.014500
1.733333	1	-0.012750
1.750000	1	-0.011125
1.766667	1	-0.008750
1.783333	1	-0.007375
1.800000	1	-0.005000
1.816667	1	-0.002875
1.833333	1	-0.001500
1.850000	1	0.000125
1.866667	1	0.001875
1.883333	1	0.004500
1.900000	1	0.005750
1.916667	1	0.007375
1.933333	1	0.007875
1.950000	1	0.009250
1.966667	1	0.010250
1.983333	1	0.010375
2.000000	1	0.011375
2.016667	1	0.012500
2.033333	1	0.012375
2.050000	1	0.012875
2.066667	1	0.013250
2.083333	1	0.013875
2.100000	1	0.014125
2.116667	1	0.013750
2.133333	1	0.012625
2.150000	1	0.012500
2.166667	1	0.012000
2.183333	1	0.011375
2.200000	1	0.011000
2.216667	1	0.010250
2.233333	1	0.009125
2.250000	1	0.008250
2.266667	1	0.007250
2.283333	1	0.007000
2.300000	1	0.005250
2.316667	1	0.004125
2.333333	1	0.002750
2.350000	1	0.001000
2.366667	1	-0.000500
2.383333	1	-0.002250
2.400000	1	-0.003750
2.416667	1	-0.005500
2.433333	1	-0.007625
2.450000	1	-0.009250
2.466667	1	-0.011125
2.483333	1	-0.013500
2.500000	1	-0.015250
2.516667	1	-0.017125
2.533333	1	-0.019500
2.550000	1	-0.021500
2.566667	1	-0.023875
2.583333	1	-0.026250
2.600000	1	-0.027875
2.616667	1	-0.029500
2.633333	1	-0.031625
2.650000	1	-0.034000
2.666667	1	-0.036250
2.683333	1	-0.038375
2.700000	1	-0.040375
2.716667	1	-0.042375
2.733333	1	-0.044125
2.750000	1	-0.046625
2.766667	1	-0.049250
2.783333	1	-0.050750
2.800000	1	-0.052625
2.816667	1	-0.053375
2.833333	1	-0.055250
2.850000	1	-0.056375
2.866667	1	-0.058125
2.883333	1	-0.059125
2.900000	1	-0.060000
2.916667	1	-0.061375
2.933333	1	-0.063000
2.950000	1	-0.063750
2.966667	1	-0.064125
2.983333	1	-0.063875
3.000000	1	-0.064375
3.016667	1	-0.064500
3.033333	1	-0.064625
3.050000	1	-0.064625
3.066667	1	-0.064875
3.083333	1	-0.064750
3.100000	1	-0.064125
3.116667	1	-0.064000
3.133333	1	-0.063125
3.150000	1	-0.063000
3.166667	1	-0.061625
3.183333	1	-0.060750
3.200000	1	-0.059500
3.216667	1	-0.058750
3.233333	1	-0.058000
3.250000	1	-0.056750
3.266667	1	-0.055750
3.283333	1	-0.054875
3.300000	1	-0.053750
3.316667	1	-0.052875
3.333333	1	-0.052250
3.350000	1	-0.051375
3.366667	1	-0.049875
3.383333	1	-0.049375
3.400000	1	-0.048250
3.416667	1	-0.046500
3.433333	1	-0.045000
3.450000	1	-0.043875
3.466667	1	-0.042750
3.483333	1	-0.040875
3.500000	1	-0.039375
3.516667	1	-0.038000
3.533333	1	-0.036500
3.550000	1	-0.035625
3.566667	1	-0.034625
3.583333	1	-0.032625
3.600000	1	-0.031375
3.616667	1	-0.029750
3.633333	1	-0.028625
3.650000	1	-0.027875
3.666667	1	-0.026500
3.683333	1	-0.024875
3.700000	1	-0.023250
3.716667	1	-0.022000
3.733333	1	-0.020125
3.750000	1	-0.019375
3.766667	1	-0.017500
3.783333	1	-0.015875
3.800000	1	-0.014625
3.816667	1	-0.013125
3.833333	1	-0.010875
3.850000	1	-0.009500
3.866667	1	-0.008000
3.883333	1	-0.006500
3.900000	1	-0.005125
3.916667	1	-0.004750
3.933333	1	-0.003125
3.950000	1	-0.002500
3.966667	1	-0.001250
3.983333	1	-0.000500
4.000000	1	0.000250
4.016667	1	0.001125
4.033333	1	0.002375
4.050000	1	0.003625
4.066667	1	0.004500
4.083333	1	0.005125
4.100000	1	0.005500
4.116667	1	0.006000
4.133333	1	0.006000
4.150000	1	0.006125
4.166667	1	0.005750
4.183333	1	0.005750
4.200000	1	0.005625
4.216667	1	0.005625
4.233333	1	0.005875
4.250000	1	0.005625
4.266667	1	0.004750
4.283333	1	0.004375
4.300000	1	0.003500
4.316667	1	0.003125
4.333333	1	0.001875
4.350000	1	0.001375
4.366667	1	0.000625
4.383333	1	0.000000
4.400000	1	-0.000750
4.416667	1	-0.000625
4.433333	1	-0.000875
4.450000	1	-0.001250
4.466667	1	-0.001625
4.483333	1	-0.002125
4.500000	1	-0.002375
4.516667	1	-0.002250
4.533333	1	-0.002625
4.550000	1	-0.002375
4.566667	1	-0.001875
4.583333	1	-0.001375
4.600000	1	-0.000750
4.616667	1	0.000875
4.633333	1	0.002125
4.650000	1	0.003500
4.666667	1	0.004875
4.683333	1	0.006125
4.700000	1	0.007625
4.716667	1	0.009625
4.733333	1	0.011875
4.750000	1	0.013875
4.766667	1	0.016625
4.783333	1	0.019000
4.800000	1	0.021000
4.816667	1	0.023125
4.833333	1	0.025375
4.850000	1	0.028125
4.866667	1	0.030750
4.883333	1	0.033625
4.900000	1	0.035750
4.916667	1	0.038750
4.933333	1	0.041375
4.950000	1	0.043750
4.966667	1	0.046250
4.983333	1	0.048625
5.000000	1	0.051250
5.016667	1	0.053375
5.033333	1	0.056000
5.050000	1	0.058500
5.066667	1	0.060000
5.083333	1	0.062250
5.100000	1	0.065125
5.116667	1	0.067875
5.133333	1	0.070625
5.150000	1	0.073250
5.166667	1	0.076125
5.183333	1	0.079375
5.200000	1	0.082125
5.216667	1	0.085250
5.233333	1	0.088000
5.250000	1	0.090875
5.266667	1	0.094125
5.283333	1	0.097500
5.300000	1	0.100875
5.316667	1	0.104375
5.333333	1	0.108375
5.350000	1	0.112375
5.366667	1	0.115875
5.383333	1	0.119625
5.400000	1	0.123625
5.416667	1	0.127500
5.433333	1	0.131125
5.450000	1	0.136000
5.466667	1	0.139750
5.483333	1	0.143875
5.500000	1	0.148125
5.516667	1	0.152375
5.533333	1	0.156625
5.550000	1	0.161125
5.566667	1	0.164875
5.583333	1	0.168750
5.600000	1	0.171875
5.616667	1	0.175375
5.633333	1	0.179375
5.650000	1	0.182625
5.666667	1	0.184375
5.683333	1	0.187375
5.700000	1	0.190000
5.716667	1	0.192625
5.733333	1	0.195000
5.750000	1	0.197375
5.766667	1	0.198875
5.783333	1	0.200375
5.800000	1	0.201000
5.816667	1	0.201625
5.833333	1	0.202375
5.850000	1	0.203125
5.866667	1	0.202875
5.883333	1	0.202500
5.900000	1	0.202625
5.916667	1	0.201500
5.933333	1	0.200875
5.950000	1	0.200000
5.966667	1	0.198625
5.983333	1	0.197000
6.000000	1	0.195000
6.016667	1	0.192500
6.033333	1	0.190875
6.050000	1	0.188625
6.066667	1	0.186625
6.083333	1	0.184625
6.100000	1	0.181375
6.116667	1	0.179125
6.133333	1	0.176750
6.150000	1	0.174250
6.166667	1	0.171000
6.183333	1	0.168000
6.200000	1	0.164500
6.216667	1	0.161875
6.233333	1	0.159500
6.250000	1	0.156750
6.266667	1	0.153875
6.283333	1	0.150625
6.300000	1	0.147750
6.316667	1	0.145000
6.333333	1	0.142625
6.350000	1	0.139875
6.366667	1	0.137625
6.383333	1	0.135250
6.400000	1	0.133125
6.416667	1	0.131375
6.433333	1	0.129375
6.450000	1	0.127750
6.466667	1	0.125625
6.483333	1	0.124250
6.500000	1	0.122875
6.516667	1	0.122125
6.533333	1	0.120250
6.550000	1	0.118750
6.566667	1	0.118250
6.583333	1	0.117500
6.600000	1	0.116625
6.616667	1	0.115375
6.633333	1	0.114500
6.650000	1	0.114250
6.666667	1	0.114125
6.683333	1	0.113500
6.700000	1	0.112875
6.716667	1	0.112500
6.733333	1	0.112125
6.750000	1	0.111625
6.766667	1	0.112000
6.783333	1	0.111125
6.800000	1	0.111250
6.816667	1	0.111125
6.833333	1	0.111500
6.850000	1	0.111375
6.866667	1	0.111500
6.883333	1	0.111125
6.900000	1	0.111000
6.916667	1	0.110625
6.933333	1	0.110875
6.950000	1	0.110750
6.966667	1	0.111000
6.983333	1	0.110750
7.000000	1	0.110625
7.016667	1	0.110875
7.033333	1	0.110750
7.050000	1	0.111250
7.066667	1	0.111750
7.083333	1	0.111500
7.100000	1	0.111375
7.116667	1	0.112125
7.133333	1	0.112000
7.150000	1	0.112125
7.166667	1	0.112500
7.183333	1	0.113375
7.200000	1	0.113875
7.216667	1	0.115000
7.233333	1	0.115625
7.250000	1	0.116500
7.266667	1	0.116500
7.283333	1	0.116750
7.300000	1	0.117000
7.316667	1	0.118000
7.333333	1	0.118250
7.350000	1	0.119125
7.366667	1	0.120000
7.383333	1	0.120250
7.400000	1	0.120750
7.416667	1	0.121000
7.433333	1	0.121000
7.450000	1	0.121875
7.466667	1	0.122250
7.483333	1	0.122750
7.500000	1	0.122750
7.516667	1	0.122375
7.533333	1	0.122500
7.550000	1	0.122750
7.566667	1	0.122750
7.583333	1	0.122000
7.600000	1	0.121625
7.616667	1	0.120375
7.633333	1	0.119875
7.650000	1	0.119750
7.666667	1	0.119375
7.683333	1	0.119375
7.700000	1	0.118625
7.716667	1	0.117375
7.733333	1	0.116250
7.750000	1	0.115625
7.766667	1	0.114500
7.783333	1	0.113625
7.800000	1	0.112625
7.816667	1	0.110250
7.833333	1	0.109000
7.850000	1	0.107750
7.866667	1	0.106500
7.883333	1	0.104375
7.900000	1	0.102000
7.916667	1	0.099625
7.933333	1	0.097875
7.950000	1	0.095500
7.966667	1	0.093125
7.983333	1	0.090875
8.000000	1	0.088250
8.016667	1	0.085625
8.033333	1	0.082875
8.050000	1	0.080125
8.066667	1	0.077500
8.083333	1	0.075000
8.100000	1	0.073125
8.116667	1	0.070750
8.133333	1	0.069125
8.150000	1	0.066875
8.166667	1	0.064875
8.183333	1	0.063250
8.200000	1	0.061250
8.216667	1	0.059375
8.233333	1	0.057500
8.250000	1	0.056500
8.266667	1	0.055875
8.283333	1	0.054000
8.300000	1	0.053250
8.316667	1	0.052625
8.333333	1	0.052375
8.350000	1	0.051875
8.366667	1	0.051250
8.383333	1	0.050750
8.400000	1	0.050250
8.416667	1	0.050000
8.433333	1	0.049875
8.450000	1	0.049750
8.466667	1	0.049750
8.483333	1	0.049625
8.500000	1	0.049375
8.516667	1	0.049750
8.533333	1	0.049875
8.550000	1	0.049750
8.566667	1	0.048875
8.583333	1	0.048125
8.600000	1	0.047500
8.616667	1	0.047625
8.633333	1	0.047125
8.650000	1	0.046250
8.666667	1	0.045375
8.683333	1	0.043875
8.700000	1	0.042625
8.716667	1	0.041375
8.733333	1	0.039250
8.750000	1	0.038250
8.766667	1	0.037000
8.783333	1	0.035375
8.800000	1	0.033750
8.816667	1	0.032250
8.833333	1	0.030375
8.850000	1	0.029000
8.866667	1	0.027875
8.883333	1	0.025875
8.900000	1	0.024875
8.916667	1	0.023500
8.933333	1	0.022875
8.950000	1	0.021750
8.966667	1	0.021000
8.983333	1	0.019875
9.000000	1	0.018625
9.016667	1	0.017875
9.033333	1	0.017500
9.050000	1	0.016750
9.066667	1	0.015750
9.083333	1	0.015500
9.100000	1	0.015125
9.116667	1	0.014750
9.133333	1	0.013875
9.150000	1	0.013625
9.166667	1	0.013500
9.183333	1	0.013625
9.200000	1	0.013250
9.216667	1	0.013750
9.233333	1	0.014250
9.250000	1	0.014000
9.266667	1	0.013500
9.283333	1	0.013750
9.300000	1	0.013500
9.316667	1	0.013500
9.333333	1	0.013750
9.350000	1	0.013875
9.366667	1	0.014000
9.383333	1	0.013250
9.400000	1	0.014250
9.416667	1	0.014000
9.433333	1	0.013875
9.450000	1	0.014125
9.466667	1	0.014125
9.483333	1	0.014125
9.500000	1	0.014500
9.516667	1	0.014875
9.533333	1	0.014750
9.550000	1	0.014250
9.566667	1	0.013875
9.583333	1	0.014000
9.600000	1	0.014125
9.616667	1	0.014125
9.633333	1	0.013500
9.650000	1	0.012750
9.666667	1	0.012750
9.683333	1	0.011000
9.700000	1	0.011250
9.716667	1	0.010000
9.733333	1	0.009250
9.750000	1	0.008625
9.766667	1	0.008625
9.783333	1	0.007250
9.800000	1	0.006250
9.816667	1	0.005375
9.833333	1	0.004125
9.850000	1	0.002625
9.866667	1	0.002250
9.883333	1	0.001250
9.900000	1	0.000250
9.916667	1	0.000000
9.933333	1	-0.000375
9.950000	1	-0.000125
9.966667	1	0.000375
9.983333	1	0.001500
10.000000	1	0.003000
10.016667	1	0.005750
10.033333	1	0.009500
10.050000	1	0.014375
10.066667	1	0.019625
10.083333	1	0.025875
10.100000	1	0.032375
10.116667	1	0.040875
10.133333	1	0.049625
10.150000	1	0.059625
10.166667	1	0.069500
10.183333	1	0.080875
10.200000	1	0.093750
10.216667	1	0.107250
10.233333	1	0.122000
10.250000	1	0.138750
10.266667	1	0.157250
10.283333	1	0.179125
10.300000	1	0.202875
10.316667	1	0.229625
10.333333	1	0.259625
10.350000	1	0.292500
10.366667	1	0.328250
10.383333	1	0.368875
10.400000	1	0.412000
10.416667	1	0.455750
10.433333	1	0.492625
10.450000	1	0.513750
10.466667	1	0.507250
10.483333	1	0.464500
10.500000	1	0.390375
10.516667	1	0.309625
10.533333	1	0.274375
10.550000	1	0.363000
10.566667	1	0.670625
10.583333	1	1.297125
10.600000	1	2.335750
10.616667	1	3.864625
10.633333	1	5.937375
10.650000	1	8.586875
10.666667	1	11.826000
10.683333	1	15.643500
10.700000	1	20.002000
10.716667	1	24.825750
10.733333	1	29.987750
10.750000	1	35.297125
10.766667	1	40.475500
10.783333	1	45.158375
10.800000	1	48.911875
10.816667	1	51.299250
10.833333	1	51.994750
10.850000	1	50.892750
10.866667	1	48.150625
10.883333	1	44.154625
10.900000	1	39.402500
10.916667	1	34.376125
10.933333	1	29.456625
10.950000	1	24.895875
10.966667	1	20.834250
10.983333	1	17.319000
11.000000	1	14.345625
11.016667	1	11.876625
11.033333	1	9.857375
11.050000	1	8.223375
11.066667	1	6.912250
11.083333	1	5.863875
11.100000	1	5.025500
11.116667	1	4.354750
11.133333	1	3.815000
11.150000	1	3.379000
11.166667	1	3.023250
11.183333	1	2.731375
11.200000	1	2.488500
11.216667	1	2.285375
11.233333	1	2.114500
11.250000	1	1.969000
11.266667	1	1.843750
11.283333	1	1.735625
11.300000	1	1.642625
11.316667	1	1.561125
11.333333	1	1.490125
11.350000	1	1.428750
11.366667	1	1.374125
11.383333	1	1.325250
11.400000	1	1.282750
11.416667	1	1.244375
11.433333	1	1.209875
11.450000	1	1.178375
11.466667	1	1.150375
11.483333	1	1.125125
11.500000	1	1.102125
11.516667	1	1.081000
11.533333	1	1.062000
11.550000	1	1.044250
11.566667	1	1.028375
11.583333	1	1.013375
11.600000	1	1.000000
11.616667	1	0.988125
11.633333	1	0.978125
11.650000	1	0.969625
11.666667	1	0.962375
11.683333	1	0.957625
11.700000	1	0.954375
11.716667	1	0.952125
11.733333	1	0.952125
11.750000	1	0.953625
11.766667	1	0.956000
11.783333	1	0.959875
11.800000	1	0.965250
11.816667	1	0.970125
11.833333	1	0.974875
11.850000	1	0.979750
11.866667	1	0.984125
11.883333	1	0.988500
11.900000	1	0.993125
11.916667	1	0.997375
11.933333	1	1.001625
11.950000	1	1.006125
11.966667	1	1.010250
11.983333	1	1.015500
12.000000	1	1.020375
12.016667	1	1.026250
12.033333	1	1.032875
12.050000	1	1.039750
12.066667	1	1.047250
12.083333	1	1.056125
12.100000	1	1.064875
12.116667	1	1.073875
12.133333	1	1.083125
12.150000	1	1.094375
12.166667	1	1.105125
12.183333	1	1.117250
12.200000	1	1.130000
12.216667	1	1.144000
12.233333	1	1.159875
12.250000	1	1.177250
12.266667	1	1.196500
12.283333	1	1.217500
12.300000	1	1.241000
12.316667	1	1.267250
12.333333	1	1.296875
12.350000	1	1.331125
12.366667	1	1.371125
12.383333	1	1.419750
12.400000	1	1.480500
12.416667	1	1.555625
12.433333	1	1.650375
12.450000	1	1.767875
12.466667	1	1.911250
12.483333	1	2.085375
12.500000	1	2.291375
12.516667	1	2.532125
12.533333	1	2.807125
12.550000	1	3.117625
12.566667	1	3.461250
12.583333	1	3.837375
12.600000	1	4.243250
12.616667	1	4.677375
12.633333	1	5.137125
12.650000	1	5.621500
12.666667	1	6.127625
12.683333	1	6.654750
12.700000	1	7.199250
12.716667	1	7.761000
12.733333	1	8.338250
12.750000	1	8.928250
12.766667	1	9.532125
12.783333	1	10.149125
12.800000	1	10.777750
12.816667	1	11.414750
12.833333	1	12.052750
12.850000	1	12.667000
12.866667	1	13.207375
12.883333	1	13.583875
12.900000	1	13.689000
12.916667	1	13.432750
12.933333	1	12.786875
12.950000	1	11.804000
12.966667	1	10.600000
12.983333	1	9.309750
13.000000	1	8.052125
13.016667	1	6.901250
13.033333	1	5.891375
13.050000	1	5.030500
13.066667	1	4.312125
13.083333	1	3.722250
13.100000	1	3.244750
13.116667	1	2.861875
13.133333	1	2.557125
13.150000	1	2.316500
13.166667	1	2.125375
13.183333	1	1.974625
13.200000	1	1.853875
13.216667	1	1.757125
13.233333	1	1.678125
13.250000	1	1.613000
13.266667	1	1.556875
13.283333	1	1.508750
13.300000	1	1.466250
13.316667	1	1.428875
13.333333	1	1.394625
13.350000	1	1.364375
13.366667	1	1.336625
13.383333	1	1.311625
13.400000	1	1.289375
13.416667	1	1.270500
13.433333	1	1.252875
13.450000	1	1.238375
13.466667	1	1.226625
13.483333	1	1.217250
13.500000	1	1.209750
13.516667	1	1.205250
13.533333	1	1.201625
13.550000	1	1.199125
13.566667	1	1.197125
13.583333	1	1.195000
13.600000	1	1.192500
13.616667	1	1.188625
13.633333	1	1.182500
13.650000	1	1.174000
13.666667	1	1.163875
13.683333	1	1.151500
13.700000	1	1.137500
13.716667	1	1.121500
13.733333	1	1.105625
13.750000	1	1.087750
13.766667	1	1.071000
13.783333	1	1.053500
13.800000	1	1.036250
13.816667	1	1.020625
13.833333	1	1.005125
13.850000	1	0.991000
13.866667	1	0.976875
13.883333	1	0.963375
13.900000	1	0.950875
13.916667	1	0.938750
13.933333	1	0.927875
13.950000	1	0.917375
13.966667	1	0.907375
13.983333	1	0.899250
14.000000	1	0.890250
14.016667	1	0.882000
14.033333	1	0.874250
14.050000	1	0.868250
14.066667	1	0.862125
14.083333	1	0.855500
14.100000	1	0.849000
14.116667	1	0.843875
14.133333	1	0.838500
14.150000	1	0.833500
14.166667	1	0.829250
14.183333	1	0.825625
14.200000	1	0.822625
14.216667	1	0.820250
14.233333	1	0.817375
14.250000	1	0.815875
14.266667	1	0.815875
14.283333	1	0.816000
14.300000	1	0.817625
14.316667	1	0.819500
14.333333	1	0.823500
14.350000	1	0.827750
14.366667	1	0.833500
14.383333	1	0.841625
14.400000	1	0.851875
14.416667	1	0.865000
14.433333	1	0.883000
14.450000	1	0.909625
14.466667	1	0.950250
14.483333	1	1.012875
14.500000	1	1.111500
14.516667	1	1.266500
14.533333	1	1.505500
14.550000	1	1.866500
14.566667	1	2.399125
14.583333	1	3.161750
14.600000	1	4.226375
14.616667	1	5.673375
14.633333	1	7.585375
14.650000	1	10.038125
14.666667	1	13.089500
14.683333	1	16.769875
14.700000	1	21.066375
14.716667	1	25.916750
14.733333	1	31.206500
14.750000	1	36.773125
14.766667	1	42.401250
14.783333	1	47.842375
14.800000	1	52.843000
14.816667	1	57.161750
14.833333	1	60.585000
14.850000	1	62.948500
14.866667	1	64.157000
14.883333	1	64.190000
14.900000	1	63.100625
14.916667	1	61.009125
14.933333	1	58.083750
14.950000	1	54.519250
14.966667	1	50.521625
14.983333	1	46.287875
15.000000	1	41.986750
15.016667	1	37.756625
15.033333	1	33.702375
15.050000	1	29.897500
15.066667	1	26.388250
15.083333	1	23.198000
15.100000	1	20.330750
15.116667	1	17.776875
15.133333	1	15.517500
15.150000	1	13.529375
15.166667	1	11.786125
15.183333	1	10.263500
15.200000	1	8.936000
15.216667	1	7.781375
15.233333	1	6.780250
15.250000	1	5.916000
15.266667	1	5.172625
15.283333	1	4.538875
15.300000	1	4.001375
15.316667	1	3.551000
15.333333	1	3.176750
15.350000	1	2.869625
15.366667	1	2.620875
15.383333	1	2.422875
15.400000	1	2.266500
15.416667	1	2.145375
15.433333	1	2.051750
15.450000	1	1.978375
15.466667	1	1.919500
15.483333	1	1.869625
15.500000	1	1.825000
15.516667	1	1.783000
15.533333	1	1.740500
15.550000	1	1.697000
15.566667	1	1.652125
15.583333	1	1.606250
15.600000	1	1.560375
15.616667	1	1.514250
15.633333	1	1.468625
15.650000	1	1.425750
15.666667	1	1.384875
15.683333	1	1.346250
15.700000	1	1.310875
15.716667	1	1.278000
15.733333	1	1.247125
15.750000	1	1.217750
15.766667	1	1.190250
15.783333	1	1.163875
15.800000	1	1.138875
15.816667	1	1.115875
15.833333	1	1.093625
15.850000	1	1.073125
15.866667	1	1.052375
15.883333	1	1.034000
15.900000	1	1.017625
15.916667	1	1.002750
15.933333	1	0.990250
15.950000	1	0.979500
15.966667	1	0.970875
15.983333	1	0.964875
16.000000	1	0.959750
16.016667	1	0.957500
16.033333	1	0.956125
16.050000	1	0.956000
16.066667	1	0.956625
16.083333	1	0.958750
16.100000	1	0.961125
16.116667	1	0.963750
16.133333	1	0.966500
16.150000	1	0.968750
16.166667	1	0.969875
16.183333	1	0.971375
16.200000	1	0.971625
16.216667	1	0.970750
16.233333	1	0.969000
16.250000	1	0.966750
16.266667	1	0.963125
16.283333	1	0.958750
16.300000	1	0.953500
16.316667	1	0.948625
16.333333	1	0.944625
16.350000	1	0.940250
16.366667	1	0.937375
16.383333	1	0.935750
16.400000	1	0.934500
16.416667	1	0.935625
16.433333	1	0.937625
16.450000	1	0.940625
16.466667	1	0.944625
16.483333	1	0.949375
16.500000	1	0.954000
16.516667	1	0.958000
16.533333	1	0.961625
16.550000	1	0.963750
16.566667	1	0.964500
16.583333	1	0.963500
16.600000	1	0.960750
16.616667	1	0.957625
16.633333	1	0.952500
16.650000	1	0.946875
16.666667	1	0.941750
16.683333	1	0.936875
16.700000	1	0.933375
16.716667	1	0.931000
16.733333	1	0.930500
16.750000	1	0.932125
16.766667	1	0.935875
16.783333	1	0.940875
16.800000	1	0.947125
16.816667	1	0.954375
16.833333	1	0.962000
16.850000	1	0.969875
16.866667	1	0.977000
16.883333	1	0.982000
16.900000	1	0.985375
16.916667	1	0.987875
16.933333	1	0.989000
16.950000	1	0.988125
16.966667	1	0.985500
16.983333	1	0.981750
17.000000	1	0.977625
17.016667	1	0.972625
17.033333	1	0.967375
17.050000	1	0.962125
17.066667	1	0.957625
17.083333	1	0.953625
17.100000	1	0.951625
17.116667	1	0.948500
17.133333	1	0.947750
17.150000	1	0.948000
17.166667	1	0.949000
17.183333	1	0.950125
17.200000	1	0.952375
17.216667	1	0.955250
17.233333	1	0.958750
17.250000	1	0.962375
17.266667	1	0.967250
17.283333	1	0.972500
17.300000	1	0.977875
17.316667	1	0.984125
17.333333	1	0.989750
17.350000	1	0.996250
17.366667	1	1.002750
17.383333	1	1.008625
17.400000	1	1.013875
17.416667	1	1.019375
17.433333	1	1.023625
17.450000	1	1.026625
17.466667	1	1.027750
17.483333	1	1.026875
17.500000	1	1.025125
17.516667	1	1.021625
17.533333	1	1.016250
17.550000	1	1.009750
17.566667	1	1.001875
17.583333	1	0.992000
17.600000	1	0.981125
17.616667	1	0.970000
17.633333	1	0.956875
17.650000	1	0.943875
17.666667	1	0.930000
17.683333	1	0.915625
17.700000	1	0.901625
17.716667	1	0.887500
17.733333	1	0.873625
17.750000	1	0.860125
17.766667	1	0.847500
17.783333	1	0.835125
17.800000	1	0.825000
17.816667	1	0.815750
17.833333	1	0.807375
17.850000	1	0.799500
17.866667	1	0.793000
17.883333	1	0.786875
17.900000	1	0.782000
17.916667	1	0.778000
17.933333	1	0.773250
17.950000	1	0.769000
17.966667	1	0.765375
17.983333	1	0.761500
18.000000	1	0.757250
18.016667	1	0.753125
18.033333	1	0.749000
18.050000	1	0.744375
18.066667	1	0.740250
18.083333	1	0.736625
18.100000	1	0.733750
18.116667	1	0.731000
18.133333	1	0.728250
18.150000	1	0.726125
18.166667	1	0.724625
18.183333	1	0.723000
18.200000	1	0.722000
18.216667	1	0.721500
18.233333	1	0.720750
18.250000	1	0.720125
18.266667	1	0.719625
18.283333	1	0.719125
18.300000	1	0.718750
18.316667	1	0.718250
18.333333	1	0.717500
18.350000	1	0.717250
18.366667	1	0.717875
18.383333	1	0.718375
18.400000	1	0.719875
18.416667	1	0.723500
18.433333	1	0.728625
18.450000	1	0.734875
18.466667	1	0.742875
18.483333	1	0.752375
18.500000	1	0.764375
18.516667	1	0.778500
18.533333	1	0.794750
18.550000	1	0.813000
18.566667	1	0.833750
18.583333	1	0.856375
18.600000	1	0.880875
18.616667	1	0.907375
18.633333	1	0.935875
18.650000	1	0.966250
18.666667	1	0.997625
18.683333	1	1.030125
18.700000	1	1.064250
18.716667	1	1.098750
18.733333	1	1.134250
18.750000	1	1.169750
18.766667	1	1.205250
18.783333	1	1.239875
18.800000	1	1.272625
18.816667	1	1.303375
18.833333	1	1.331625
18.850000	1	1.356375
18.866667	1	1.377125
18.883333	1	1.392375
18.900000	1	1.401500
18.916667	1	1.405500
18.933333	1	1.402875
18.950000	1	1.393625
18.966667	1	1.377625
18.983333	1	1.355500
19.000000	1	1.328250
19.016667	1	1.296000
19.033333	1	1.258375
19.050000	1	1.217250
19.066667	1	1.173750
19.083333	1	1.128000
19.100000	1	1.081625
19.116667	1	1.035375
19.133333	1	0.990000
19.150000	1	0.947500
19.166667	1	0.907000
19.183333	1	0.869500
19.200000	1	0.835875
19.216667	1	0.806125
19.233333	1	0.781500
19.250000	1	0.761875
19.266667	1	0.748250
19.283333	1	0.740125
19.300000	1	0.738125
19.316667	1	0.742000
19.333333	1	0.751125
19.350000	1	0.765875
19.366667	1	0.786375
19.383333	1	0.811500
19.400000	1	0.839625
19.416667	1	0.870125
19.433333	1	0.903125
19.450000	1	0.936125
19.466667	1	0.969500
19.483333	1	1.002250
19.500000	1	1.032250
19.516667	1	1.059250
19.533333	1	1.084125
19.550000	1	1.104750
19.566667	1	1.120500
19.583333	1	1.131875
19.600000	1	1.138625
19.616667	1	1.140375
19.633333	1	1.137625
19.650000	1	1.130250
19.666667	1	1.119500
19.683333	1	1.104750
19.700000	1	1.086875
19.716667	1	1.065125
19.733333	1	1.041375
19.750000	1	1.015500
19.766667	1	0.987250
19.783333	1	0.957500
19.800000	1	0.926375
19.816667	1	0.894375
19.833333	1	0.862375
19.850000	1	0.829625
19.866667	1	0.797500
19.883333	1	0.766375
19.900000	1	0.736875
19.916667	1	0.708500
19.933333	1	0.683375
19.950000	1	0.660875
19.966667	1	0.641500
19.983333	1	0.626625
20.000000	1	0.616375
20.016667	1	0.611000
20.033333	1	0.611875
20.050000	1	0.618625
20.066667	1	0.632000
20.083333	1	0.652875
20.100000	1	0.681125
20.116667	1	0.716250
20.133333	1	0.758125
20.150000	1	0.804625
20.166667	1	0.855625
20.183333	1	0.910500
20.200000	1	0.966000
20.216667	1	1.021250
20.233333	1	1.073250
20.250000	1	1.120750
20.266667	1	1.162000
20.283333	1	1.196125
20.300000	1	1.221125
20.316667	1	1.236375
20.333333	1	1.240750
20.350000	1	1.235125
20.366667	1	1.220250
20.383333	1	1.196750
20.400000	1	1.165875
20.416667	1	1.127875
20.433333	1	1.085375
20.450000	1	1.041500
20.466667	1	0.995500
20.483333	1	0.949125
20.500000	1	0.906000
20.516667	1	0.865375
20.533333	1	0.829250
20.550000	1	0.798500
20.566667	1	0.774625
20.583333	1	0.759125
20.600000	1	0.750875
20.616667	1	0.751750
20.633333	1	0.762625
20.650000	1	0.782750
20.666667	1	0.812875
20.683333	1	0.853125
20.700000	1	0.902750
20.716667	1	0.960875
20.733333	1	1.027750
20.750000	1	1.100000
20.766667	1	1.176375
20.783333	1	1.254000
20.800000	1	1.330625
20.816667	1	1.403375
20.833333	1	1.469125
20.850000	1	1.526375
20.866667	1	1.571875
20.883333	1	1.606000
20.900000	1	1.626250
20.916667	1	1.633750
20.933333	1	1.626875
20.950000	1	1.607625
20.966667	1	1.576000
20.983333	1	1.533125
21.000000	1	1.482375
21.016667	1	1.424375
21.033333	1	1.361875
21.050000	1	1.296000
21.066667	1	1.229500
21.083333	1	1.163250
21.100000	1	1.098625
21.116667	1	1.036000
21.133333	1	0.977125
21.150000	1	0.921500
21.166667	1	0.869750
21.183333	1	0.821750
21.200000	1	0.777750
21.216667	1	0.737625
21.233333	1	0.700500
21.250000	1	0.666750
21.266667	1	0.636875
21.283333	1	0.609625
21.300000	1	0.585875
21.316667	1	0.563875
21.333333	1	0.544625
21.350000	1	0.527125
21.366667	1	0.510625
21.383333	1	0.495750
21.400000	1	0.482625
21.416667	1	0.470875
21.433333	1	0.460875
21.450000	1	0.450750
21.466667	1	0.441625
21.483333	1	0.433875
21.500000	1	0.426625
21.516667	1	0.420500
21.533333	1	0.414375
21.550000	1	0.408875
21.566667	1	0.404125
21.583333	1	0.400375
21.600000	1	0.397375
21.616667	1	0.395125
21.633333	1	0.392250
21.650000	1	0.391250
21.666667	1	0.390375
21.683333	1	0.390250
21.700000	1	0.390750
21.716667	1	0.391125
21.733333	1	0.392875
21.750000	1	0.394875
21.766667	1	0.396625
21.783333	1	0.398750
21.800000	1	0.400625
21.816667	1	0.403500
21.833333	1	0.407000
21.850000	1	0.409625
21.866667	1	0.413750
21.883333	1	0.417125
21.900000	1	0.421125
21.916667	1	0.425875
21.933333	1	0.430750
21.950000	1	0.435875
21.966667	1	0.441875
21.983333	1	0.448125
22.000000	1	0.454500
22.016667	1	0.461875
22.033333	1	0.469500
22.050000	1	0.476500
22.066667	1	0.483500
22.083333	1	0.491625
22.100000	1	0.498875
22.116667	1	0.506000
22.133333	1	0.511750
22.150000	1	0.517375
22.166667	1	0.522250
22.183333	1	0.526000
22.200000	1	0.528125
22.216667	1	0.528625
22.233333	1	0.527625
22.250000	1	0.525250
22.266667	1	0.521250
22.283333	1	0.516000
22.300000	1	0.509750
22.316667	1	0.502250
22.333333	1	0.493875
22.350000	1	0.484500
22.366667	1	0.474875
22.383333	1	0.464750
22.400000	1	0.453625
22.416667	1	0.443000
22.433333	1	0.432125
22.450000	1	0.421250
22.466667	1	0.410750
22.483333	1	0.401000
22.500000	1	0.391625
22.516667	1	0.382875
22.533333	1	0.374125
22.550000	1	0.365500
22.566667	1	0.358000
22.583333	1	0.350375
22.600000	1	0.343875
22.616667	1	0.337375
22.633333	1	0.331375
22.650000	1	0.325750
22.666667	1	0.320250
22.683333	1	0.314625
22.700000	1	0.309250
22.716667	1	0.304375
22.733333	1	0.299875
22.750000	1	0.296000
22.766667	1	0.291250
22.783333	1	0.288000
22.800000	1	0.284250
22.816667	1	0.280125
22.833333	1	0.276125
22.850000	1	0.272375
22.866667	1	0.269000
22.883333	1	0.266000
22.900000	1	0.263125
22.916667	1	0.261000
22.933333	1	0.258250
22.950000	1	0.256125
22.966667	1	0.253625
22.983333	1	0.252375
23.000000	1	0.251000
23.016667	1	0.249375
23.033333	1	0.248625
23.050000	1	0.248375
23.066667	1	0.248000
23.083333	1	0.248500
23.100000	1	0.248750
23.116667	1	0.249250
23.133333	1	0.250250
23.150000	1	0.251000
23.166667	1	0.251375
23.183333	1	0.252000
23.200000	1	0.252375
23.216667	1	0.253375
23.233333	1	0.254625
23.250000	1	0.255750
23.266667	1	0.257500
23.283333	1	0.260000
23.300000	1	0.263875
23.316667	1	0.269500
23.333333	1	0.277125
23.350000	1	0.287875
23.366667	1	0.302375
23.383333	1	0.322375
23.400000	1	0.349750
23.416667	1	0.385750
23.433333	1	0.432625
23.450000	1	0.491750
23.466667	1	0.566375
23.483333	1	0.661250
23.500000	1	0.777375
23.516667	1	0.918250
23.533333	1	1.086625
23.550000	1	1.285125
23.566667	1	1.515250
23.583333	1	1.778625
23.600000	1	2.075500
23.616667	1	2.405000
23.633333	1	2.764125
23.650000	1	3.148625
23.666667	1	3.555125
23.683333	1	3.976125
23.700000	1	4.405000
23.716667	1	4.833500
23.733333	1	5.252875
23.750000	1	5.653125
23.766667	1	6.024375
23.783333	1	6.358000
23.800000	1	6.646250
23.816667	1	6.882625
23.833333	1	7.062000
23.850000	1	7.183000
23.866667	1	7.243125
23.883333	1	7.242750
23.900000	1	7.184250
23.916667	1	7.071375
23.933333	1	6.909500
23.950000	1	6.704500
23.966667	1	6.462750
23.983333	1	6.191375
24.000000	1	5.898000
24.016667	1	5.588875
24.033333	1	5.271625
24.050000	1	4.950625
24.066667	1	4.631750
24.083333	1	4.318125
24.100000	1	4.013500
24.116667	1	3.720625
24.133333	1	3.440875
24.150000	1	3.175625
24.166667	1	2.926250
24.183333	1	2.692500
24.200000	1	2.475125
24.216667	1	2.273375
24.233333	1	2.086875
24.250000	1	1.915125
24.266667	1	1.758000
24.283333	1	1.614125
24.300000	1	1.482375
24.316667	1	1.361750
24.333333	1	1.251750
24.350000	1	1.152500
24.366667	1	1.062500
24.383333	1	0.982500
24.400000	1	0.910250
24.416667	1	0.846500
24.433333	1	0.789750
24.450000	1	0.740250
24.466667	1	0.696625
24.483333	1	0.658625
24.500000	1	0.625375
24.516667	1	0.596125
24.533333	1	0.570875
24.550000	1	0.549375
24.566667	1	0.530750
24.583333	1	0.513500
24.600000	1	0.498500
24.616667	1	0.485250
24.633333	1	0.473250
24.650000	1	0.461125
24.666667	1	0.451250
24.683333	1	0.441625
24.700000	1	0.432875
24.716667	1	0.424625
24.733333	1	0.416000
24.750000	1	0.407125
24.766667	1	0.399000
24.783333	1	0.391125
24.800000	1	0.383875
24.816667	1	0.376250
24.833333	1	0.369000
24.850000	1	0.362000
24.866667	1	0.356000
24.883333	1	0.350625
24.900000	1	0.344875
24.916667	1	0.339875
24.933333	1	0.335125
24.950000	1	0.331000
24.966667	1	0.326625
24.983333	1	0.322875
25.000000	1	0.320000
25.016667	1	0.316875
25.033333	1	0.313875
25.050000	1	0.312250
25.066667	1	0.310125
25.083333	1	0.309125
25.100000	1	0.307750
25.116667	1	0.306250
25.133333	1	0.304625
25.150000	1	0.302875
25.166667	1	0.301375
25.183333	1	0.300375
25.200000	1	0.299125
25.216667	1	0.297625
25.233333	1	0.296000
25.250000	1	0.294500
25.266667	1	0.293250
25.283333	1	0.292375
25.300000	1	0.290375
25.316667	1	0.288625
25.333333	1	0.286875
25.350000	1	0.285000
25.366667	1	0.283875
25.383333	1	0.282375
25.400000	1	0.280875
25.416667	1	0.279500
25.433333	1	0.278250
25.450000	1	0.276875
25.466667	1	0.276125
25.483333	1	0.275125
25.500000	1	0.274500
25.516667	1	0.273500
25.533333	1	0.273125
25.550000	1	0.273250
25.566667	1	0.273250
25.583333	1	0.273000
25.600000	1	0.272375
25.616667	1	0.272500
25.633333	1	0.273125
25.650000	1	0.273250
25.666667	1	0.273625
25.683333	1	0.273750
25.700000	1	0.273375
25.716667	1	0.273625
25.733333	1	0.273750
25.750000	1	0.273375
25.766667	1	0.273750
25.783333	1	0.273500
25.800000	1	0.273125
25.816667	1	0.273000
25.833333	1	0.273250
25.850000	1	0.273750
25.866667	1	0.273875
25.883333	1	0.275000
25.900000	1	0.275250
25.916667	1	0.276750
25.933333	1	0.278125
25.950000	1	0.280625
25.966667	1	0.282375
25.983333	1	0.283875
26.000000	1	0.286375
26.016667	1	0.289625
26.033333	1	0.293375
26.050000	1	0.297375
26.066667	1	0.301500
26.083333	1	0.306125
26.100000	1	0.311125
26.116667	1	0.315875
26.133333	1	0.322125
26.150000	1	0.327625
26.166667	1	0.332625
26.183333	1	0.338000
26.200000	1	0.343625
26.216667	1	0.349500
26.233333	1	0.355125
26.250000	1	0.360250
26.266667	1	0.365375
26.283333	1	0.369750
26.300000	1	0.373750
26.316667	1	0.377750
26.333333	1	0.380375
26.350000	1	0.382750
26.366667	1	0.383875
26.383333	1	0.384875
26.400000	1	0.385125
26.416667	1	0.384375
26.433333	1	0.382125
26.450000	1	0.379875
26.466667	1	0.377125
26.483333	1	0.373375
26.500000	1	0.369125
26.516667	1	0.363875
26.533333	1	0.357875
26.550000	1	0.351875
26.566667	1	0.345500
26.583333	1	0.339250
26.600000	1	0.332125
26.616667	1	0.325000
26.633333	1	0.317625
26.650000	1	0.310000
26.666667	1	0.302875
26.683333	1	0.295375
26.700000	1	0.288750
26.716667	1	0.282000
26.733333	1	0.276875
26.750000	1	0.270625
26.766667	1	0.265250
26.783333	1	0.259750
26.800000	1	0.254625
26.816667	1	0.250250
26.833333	1	0.246750
26.850000	1	0.243750
26.866667	1	0.240250
26.883333	1	0.237250
26.900000	1	0.234750
26.916667	1	0.232625
26.933333	1	0.231750
26.950000	1	0.230875
26.966667	1	0.229625
26.983333	1	0.229375
27.000000	1	0.230250
27.016667	1	0.230875
27.033333	1	0.231625
27.050000	1	0.232125
27.066667	1	0.233875
27.083333	1	0.236125
27.100000	1	0.238250
27.116667	1	0.241250
27.133333	1	0.244500
27.150000	1	0.248375
27.166667	1	0.252750
27.183333	1	0.257625
27.200000	1	0.263250
27.216667	1	0.269875
27.233333	1	0.277000
27.250000	1	0.286625
27.266667	1	0.297625
27.283333	1	0.311250
27.300000	1	0.326125
27.316667	1	0.343625
27.333333	1	0.365375
27.350000	1	0.390750
27.366667	1	0.419500
27.383333	1	0.454750
27.400000	1	0.496000
27.416667	1	0.543875
27.433333	1	0.599500
27.450000	1	0.663500
27.466667	1	0.737625
27.483333	1	0.821875
27.500000	1	0.917625
27.516667	1	1.024250
27.533333	1	1.143000
27.550000	1	1.274250
27.566667	1	1.417000
27.583333	1	1.571250
27.600000	1	1.737750
27.616667	1	1.913375
27.633333	1	2.098125
27.650000	1	2.289625
27.666667	1	2.487250
27.683333	1	2.688250
27.700000	1	2.888625
27.716667	1	3.086625
27.733333	1	3.278500
27.750000	1	3.461750
27.766667	1	3.633875
27.783333	1	3.791125
27.800000	1	3.930375
27.816667	1	4.050125
27.833333	1	4.147625
27.850000	1	4.221250
27.866667	1	4.270250
27.883333	1	4.293750
27.900000	1	4.290625
27.916667	1	4.260625
27.933333	1	4.206250
27.950000	1	4.128750
27.966667	1	4.030250
27.983333	1	3.912125
28.000000	1	3.778250
28.016667	1	3.630875
28.033333	1	3.472375
28.050000	1	3.305375
28.066667	1	3.132625
28.083333	1	2.957125
28.100000	1	2.781250
28.116667	1	2.607125
28.133333	1	2.437875
28.150000	1	2.272750
28.166667	1	2.114375
28.183333	1	1.962500
28.200000	1	1.820000
28.216667	1	1.684750
28.233333	1	1.557625
28.250000	1	1.438500
28.266667	1	1.328500
28.283333	1	1.227000
28.300000	1	1.133250
28.316667	1	1.048375
28.333333	1	0.970375
28.350000	1	0.899875
28.366667	1	0.835750
28.383333	1	0.778625
28.400000	1	0.726625
28.416667	1	0.680375
28.433333	1	0.639500
28.450000	1	0.602875
28.466667	1	0.570625
28.483333	1	0.542625
28.500000	1	0.518875
28.516667	1	0.498000
28.533333	1	0.481500
28.550000	1	0.467500
28.566667	1	0.456875
28.583333	1	0.448750
28.600000	1	0.443625
28.616667	1	0.440750
28.633333	1	0.440000
28.650000	1	0.441000
28.666667	1	0.443875
28.683333	1	0.448250
28.700000	1	0.453750
28.716667	1	0.460125
28.733333	1	0.466875
28.750000	1	0.474250
28.766667	1	0.482000
28.783333	1	0.490375
28.800000	1	0.499000
28.816667	1	0.507875
28.833333	1	0.516625
28.850000	1	0.524500
28.866667	1	0.532250
28.883333	1	0.538250
28.900000	1	0.543750
28.916667	1	0.548875
28.933333	1	0.552625
28.950000	1	0.554750
28.966667	1	0.555750
28.983333	1	0.555250
29.000000	1	0.553375
29.016667	1	0.550250
29.033333	1	0.546500
29.050000	1	0.540125
29.066667	1	0.532625
29.083333	1	0.523250
29.100000	1	0.512750
29.116667	1	0.499000
29.133333	1	0.483500
29.150000	1	0.466625
29.166667	1	0.447125
29.183333	1	0.426000
29.200000	1	0.402500
29.216667	1	0.376875
29.233333	1	0.349125
29.250000	1	0.318750
29.266667	1	0.285875
29.283333	1	0.251000
29.300000	1	0.213000
29.316667	1	0.173250
29.333333	1	0.131375
29.350000	1	0.086250
29.366667	1	0.039625
29.383333	1	-0.009000
29.400000	1	-0.060375
29.416667	1	-0.113625
29.433333	1	-0.168500
29.450000	1	-0.224000
29.466667	1	-0.280875
29.483333	1	-0.339125
29.500000	1	-0.397375
29.516667	1	-0.455375
29.533333	1	-0.513000
29.550000	1	-0.570000
29.566667	1	-0.624750
29.583333	1	-0.678375
29.600000	1	-0.728125
29.616667	1	-0.775625
29.633333	1	-0.819875
29.650000	1	-0.860375
29.666667	1	-0.896250
29.683333	1	-0.927750
29.700000	1	-0.954750
29.716667	1	-0.977000
29.733333	1	-0.994125
29.750000	1	-1.005750
29.766667	1	-1.012875
29.783333	1	-1.014625
29.800000	1	-1.011375
29.816667	1	-1.003000
29.833333	1	-0.991000
29.850000	1	-0.975250
29.866667	1	-0.954500
29.883333	1	-0.930625
29.900000	1	-0.903250
29.916667	1	-0.873375
29.933333	1	-0.840250
29.950000	1	-0.805625
29.966667	1	-0.770000
29.983333	1	-0.733000
30.000000	1	-0.695000
30.016667	1	-0.656625
30.033333	1	-0.618250
30.050000	1	-0.580125
30.066667	1	-0.542000
30.083333	1	-0.504125
30.100000	1	-0.467500
30.116667	1	-0.431500
30.133333	1	-0.397750
30.150000	1	-0.364500
30.166667	1	-0.332875
30.183333	1	-0.302500
30.200000	1	-0.273750
30.216667	1	-0.246375
30.233333	1	-0.219875
30.250000	1	-0.195625
30.266667	1	-0.172625
30.283333	1	-0.151625
30.300000	1	-0.131625
30.316667	1	-0.113000
30.333333	1	-0.094875
30.350000	1	-0.078500
30.366667	1	-0.063000
30.383333	1	-0.049000
30.400000	1	-0.034875
30.416667	1	-0.021750
30.433333	1	-0.009875
30.450000	1	0.001375
30.466667	1	0.012625
30.483333	1	0.022750
30.500000	1	0.032750
30.516667	1	0.042250
30.533333	1	0.051625
30.550000	1	0.060625
30.566667	1	0.069625
30.583333	1	0.078750
30.600000	1	0.087625
30.616667	1	0.096125
30.633333	1	0.104625
30.650000	1	0.113750
30.666667	1	0.122625
30.683333	1	0.131875
30.700000	1	0.141250
30.716667	1	0.150000
30.733333	1	0.159750
30.750000	1	0.168750
30.766667	1	0.178500
30.783333	1	0.189000
30.800000	1	0.199250
30.816667	1	0.210375
30.833333	1	0.221250
30.850000	1	0.232125
30.866667	1	0.243750
30.883333	1	0.256000
30.900000	1	0.269250
30.916667	1	0.282750
30.933333	1	0.298000
30.950000	1	0.314500
30.966667	1	0.332875
30.983333	1	0.353875
31.000000	1	0.377000
31.016667	1	0.403750
31.033333	1	0.434125
31.050000	1	0.469500
31.066667	1	0.510250
31.083333	1	0.557250
31.100000	1	0.611125
31.116667	1	0.673750
31.133333	1	0.744500
31.150000	1	0.825875
31.166667	1	0.918750
31.183333	1	1.023875
31.200000	1	1.141875
31.216667	1	1.273750
31.233333	1	1.419875
31.250000	1	1.581625
31.266667	1	1.758500
31.283333	1	1.949750
31.300000	1	2.156750
31.316667	1	2.376375
31.333333	1	2.609375
31.350000	1	2.853375
31.366667	1	3.106625
31.383333	1	3.367625
31.400000	1	3.634500
31.416667	1	3.903500
31.433333	1	4.171750
31.450000	1	4.436000
31.466667	1	4.693125
31.483333	1	4.938750
31.500000	1	5.170125
31.516667	1	5.385250
31.533333	1	5.580375
31.550000	1	5.752625
31.566667	1	5.901250
31.583333	1	6.023875
31.600000	1	6.118875
31.616667	1	6.185375
31.633333	1	6.223375
31.650000	1	6.231250
31.666667	1	6.211625
31.683333	1	6.163500
31.700000	1	6.089625
31.716667	1	5.990750
31.733333	1	5.870125
31.750000	1	5.729375
31.766667	1	5.570750
31.783333	1	5.396875
31.800000	1	5.208625
31.816667	1	5.009625
31.833333	1	4.803250
31.850000	1	4.589875
31.866667	1	4.373125
31.883333	1	4.155000
31.900000	1	3.936500
31.916667	1	3.721125
31.933333	1	3.509125
31.950000	1	3.302000
31.966667	1	3.100125
31.983333	1	2.905375
32.000000	1	2.716750
32.016667	1	2.536250
32.033333	1	2.363000
32.050000	1	2.197500
32.066667	1	2.041625
32.083333	1	1.893625
32.100000	1	1.754000
32.116667	1	1.623125
32.133333	1	1.499375
32.150000	1	1.384375
32.166667	1	1.275750
32.183333	1	1.174500
32.200000	1	1.079375
32.216667	1	0.989875
32.233333	1	0.906750
32.250000	1	0.829500
32.266667	1	0.758625
32.283333	1	0.692000
32.300000	1	0.630375
32.316667	1	0.573125
32.333333	1	0.520625
32.350000	1	0.472125
32.366667	1	0.427375
32.383333	1	0.386250
32.400000	1	0.348125
32.416667	1	0.313250
32.433333	1	0.281875
32.450000	1	0.252250
32.466667	1	0.225500
32.483333	1	0.201000
32.500000	1	0.179000
32.516667	1	0.158500
32.533333	1	0.139875
32.550000	1	0.123500
32.566667	1	0.108125
32.583333	1	0.093625
32.600000	1	0.081125
32.616667	1	0.069875
32.633333	1	0.059875
32.650000	1	0.050750
32.666667	1	0.042000
32.683333	1	0.034500
32.700000	1	0.028250
32.716667	1	0.023375
32.733333	1	0.018875
32.750000	1	0.014750
32.766667	1	0.011000
32.783333	1	0.008750
32.800000	1	0.005875
32.816667	1	0.003750
32.833333	1	0.002125
32.850000	1	0.000500
32.866667	1	0.000000
32.883333	1	-0.000625
32.900000	1	-0.001000
32.916667	1	-0.000875
32.933333	1	-0.000500
32.950000	1	-0.000500
32.966667	1	0.000000
32.983333	1	0.000375
33.000000	1	0.001125
33.016667	1	0.001125
33.033333	1	0.001250
33.050000	1	0.001250
33.066667	1	0.002750
33.083333	1	0.002875
33.100000	1	0.003500
33.116667	1	0.003750
33.133333	1	0.004625
33.150000	1	0.005125
33.166667	1	0.005250
33.183333	1	0.005750
33.200000	1	0.006125
33.216667	1	0.007125
33.233333	1	0.007250
33.250000	1	0.007125
33.266667	1	0.006875
33.283333	1	0.006375
33.300000	1	0.006125
33.316667	1	0.006000
33.333333	1	0.005500
33.350000	1	0.005250
33.366667	1	0.004750
33.383333	1	0.004625
33.400000	1	0.005000
33.416667	1	0.004875
33.433333	1	0.004875
33.450000	1	0.005250
33.466667	1	0.005125
33.483333	1	0.005750
33.500000	1	0.006625
33.516667	1	0.007500
33.533333	1	0.008750
33.550000	1	0.009625
33.566667	1	0.011000
33.583333	1	0.012625
33.600000	1	0.015375
33.616667	1	0.017250
33.633333	1	0.020375
33.650000	1	0.023375
33.666667	1	0.026375
33.683333	1	0.029250
33.700000	1	0.032750
33.716667	1	0.036500
33.733333	1	0.040250
33.750000	1	0.044500
33.766667	1	0.049000
33.783333	1	0.053375
33.800000	1	0.057375
33.816667	1	0.061250
33.833333	1	0.065125
33.850000	1	0.069250
33.866667	1	0.073125
33.883333	1	0.077125
33.900000	1	0.080750
33.916667	1	0.084000
33.933333	1	0.086875
33.950000	1	0.089750
33.966667	1	0.092625
33.983333	1	0.094250
34.000000	1	0.095625
34.016667	1	0.097625
34.033333	1	0.099375
34.050000	1	0.100250
34.066667	1	0.100625
34.083333	1	0.100875
34.100000	1	0.101250
34.116667	1	0.101750
34.133333	1	0.101125
34.150000	1	0.102000
34.166667	1	0.101500
34.183333	1	0.100500
34.200000	1	0.100500
34.216667	1	0.099375
34.233333	1	0.098375
34.250000	1	0.098000
34.266667	1	0.096875
34.283333	1	0.095875
34.300000	1	0.095250
34.316667	1	0.094250
34.333333	1	0.093875
34.350000	1	0.093500
34.366667	1	0.093125
34.383333	1	0.092750
34.400000	1	0.091750
34.416667	1	0.091375
34.433333	1	0.090500
34.450000	1	0.089750
34.466667	1	0.089375
34.483333	1	0.088750
34.500000	1	0.088625
34.516667	1	0.088250
34.533333	1	0.089125
34.550000	1	0.088375
34.566667	1	0.087875
34.583333	1	0.088375
34.600000	1	0.088250
34.616667	1	0.087750
34.633333	1	0.087000
34.650000	1	0.087625
34.666667	1	0.087250
34.683333	1	0.087000
34.700000	1	0.086875
34.716667	1	0.087375
34.733333	1	0.087125
34.750000	1	0.087250
34.766667	1	0.087500
34.783333	1	0.087875
34.800000	1	0.087750
34.816667	1	0.087500
34.833333	1	0.086625
34.850000	1	0.086625
34.866667	1	0.086750
34.883333	1	0.087250
34.900000	1	0.087375
34.916667	1	0.087500
34.933333	1	0.087625
34.950000	1	0.087500
34.966667	1	0.087000
34.983333	1	0.086500
35.000000	1	0.086125
35.016667	1	0.086125
35.033333	1	0.085250
35.050000	1	0.084375
35.066667	1	0.084250
35.083333	1	0.082875
35.100000	1	0.081750
35.116667	1	0.080875
35.133333	1	0.079625
35.150000	1	0.078625
35.166667	1	0.077875
35.183333	1	0.076250
35.200000	1	0.075375
35.216667	1	0.073875
35.233333	1	0.073000
35.250000	1	0.071125
35.266667	1	0.070250
35.283333	1	0.068500
35.300000	1	0.067875
35.316667	1	0.067500
35.333333	1	0.066625
35.350000	1	0.065625
35.366667	1	0.064625
35.383333	1	0.064000
35.400000	1	0.063750
35.416667	1	0.063625
35.433333	1	0.063250
35.450000	1	0.063125
35.466667	1	0.063000
35.483333	1	0.063375
35.500000	1	0.063875
35.516667	1	0.065125
35.533333	1	0.065500
35.550000	1	0.066750
35.566667	1	0.068500
35.583333	1	0.070000
35.600000	1	0.071000
35.616667	1	0.072625
35.633333	1	0.073625
35.650000	1	0.075250
35.666667	1	0.077250
35.683333	1	0.079375
35.700000	1	0.081875
35.716667	1	0.083625
35.733333	1	0.085750
35.750000	1	0.088500
35.766667	1	0.090500
35.783333	1	0.092125
35.800000	1	0.094250
35.816667	1	0.096125
35.833333	1	0.097750
35.850000	1	0.098875
35.866667	1	0.100375
35.883333	1	0.101500
35.900000	1	0.103250
35.916667	1	0.103750
35.933333	1	0.105000
35.950000	1	0.105125
35.966667	1	0.106000
35.983333	1	0.106125
36.000000	1	0.106125
36.016667	1	0.106125
36.033333	1	0.106250
36.050000	1	0.105875
36.066667	1	0.105250
36.083333	1	0.104875
36.100000	1	0.104625
36.116667	1	0.103750
36.133333	1	0.102375
36.150000	1	0.101000
36.166667	1	0.099750
36.183333	1	0.098750
36.200000	1	0.097250
36.216667	1	0.096000
36.233333	1	0.094750
36.250000	1	0.093375
36.266667	1	0.092250
36.283333	1	0.090875
36.300000	1	0.089250
36.316667	1	0.088250
36.333333	1	0.087250
36.350000	1	0.086500
36.366667	1	0.085250
36.383333	1	0.084500
36.400000	1	0.083000
36.416667	1	0.081500
36.433333	1	0.080750
36.450000	1	0.080000
36.466667	1	0.079625
36.483333	1	0.079250
36.500000	1	0.079250
36.516667	1	0.078875
36.533333	1	0.079375
36.550000	1	0.078750
36.566667	1	0.078250
36.583333	1	0.077250
36.600000	1	0.077375
36.616667	1	0.077250
36.633333	1	0.076625
36.650000	1	0.076125
36.666667	1	0.075500
36.683333	1	0.074250
36.700000	1	0.072875
36.716667	1	0.071875
36.733333	1	0.070750
36.750000	1	0.069375
36.766667	1	0.068500
36.783333	1	0.067625
36.800000	1	0.066375
36.816667	1	0.065250
36.833333	1	0.064125
36.850000	1	0.062875
36.866667	1	0.061875
36.883333	1	0.061375
36.900000	1	0.060125
36.916667	1	0.059125
36.933333	1	0.058875
36.950000	1	0.058625
36.966667	1	0.057625
36.983333	1	0.057500
37.000000	1	0.057250
37.016667	1	0.057125
37.033333	1	0.057000
37.050000	1	0.057250
37.066667	1	0.057500
37.083333	1	0.058125
37.100000	1	0.058500
37.116667	1	0.058875
37.133333	1	0.059875
37.150000	1	0.061250
37.166667	1	0.062250
37.183333	1	0.063500
37.200000	1	0.065000
37.216667	1	0.066875
37.233333	1	0.068125
37.250000	1	0.069625
37.266667	1	0.071250
37.283333	1	0.073250
37.300000	1	0.075750
37.316667	1	0.077875
37.333333	1	0.080000
37.350000	1	0.082375
37.366667	1	0.084250
37.383333	1	0.086000
37.400000	1	0.087875
37.416667	1	0.090000
37.433333	1	0.092375
37.450000	1	0.094000
37.466667	1	0.096500
37.483333	1	0.098625
37.500000	1	0.101125
37.516667	1	0.103500
37.533333	1	0.105875
37.550000	1	0.108750
37.566667	1	0.111000
37.583333	1	0.113375
37.600000	1	0.115875
37.616667	1	0.118250
37.633333	1	0.120375
37.650000	1	0.123250
37.666667	1	0.126375
37.683333	1	0.129375
37.700000	1	0.132375
37.716667	1	0.135750
37.733333	1	0.138750
37.750000	1	0.141500
37.766667	1	0.144875
37.783333	1	0.147750
37.800000	1	0.151250
37.816667	1	0.155500
37.833333	1	0.159750
37.850000	1	0.163125
37.866667	1	0.166750
37.883333	1	0.171250
37.900000	1	0.175125
37.916667	1	0.179125
37.933333	1	0.183125
37.950000	1	0.187750
37.966667	1	0.192125
37.983333	1	0.197125
38.000000	1	0.201750
38.016667	1	0.207125
38.033333	1	0.212000
38.050000	1	0.217000
38.066667	1	0.222125
38.083333	1	0.227125
38.100000	1	0.232250
38.116667	1	0.237500
38.133333	1	0.242750
38.150000	1	0.247750
38.166667	1	0.253000
38.183333	1	0.258000
38.200000	1	0.263250
38.216667	1	0.267625
38.233333	1	0.271375
38.250000	1	0.276250
38.266667	1	0.279875
38.283333	1	0.283375
38.300000	1	0.287250
38.316667	1	0.291875
38.333333	1	0.295750
38.350000	1	0.299625
38.366667	1	0.303000
38.383333	1	0.306250
38.400000	1	0.309375
38.416667	1	0.312375
38.433333	1	0.315125
38.450000	1	0.317750
38.466667	1	0.320750
38.483333	1	0.323375
38.500000	1	0.325875
38.516667	1	0.328750
38.533333	1	0.330875
38.550000	1	0.332750
38.566667	1	0.334500
38.583333	1	0.336375
38.600000	1	0.338500
38.616667	1	0.339625
38.633333	1	0.341375
38.650000	1	0.342250
38.666667	1	0.343875
38.683333	1	0.345375
38.700000	1	0.346375
38.716667	1	0.346875
38.733333	1	0.347125
38.750000	1	0.347125
38.766667	1	0.347375
38.783333	1	0.347250
38.800000	1	0.346875
38.816667	1	0.346500
38.833333	1	0.345875
38.850000	1	0.345125
38.866667	1	0.343625
38.883333	1	0.342625
38.900000	1	0.341500
38.916667	1	0.339750
38.933333	1	0.337625
38.950000	1	0.336125
38.966667	1	0.332875
38.983333	1	0.329875
39.000000	1	0.326750
39.016667	1	0.323375
39.033333	1	0.319875
39.050000	1	0.315500
39.066667	1	0.311625
39.083333	1	0.307000
39.100000	1	0.302500
39.116667	1	0.298000
39.133333	1	0.293500
39.150000	1	0.288750
39.166667	1	0.284125
39.183333	1	0.279000
39.200000	1	0.273625
39.216667	1	0.267750
39.233333	1	0.262500
39.250000	1	0.257875
39.266667	1	0.252875
39.283333	1	0.247750
39.300000	1	0.241875
39.316667	1	0.236000
39.333333	1	0.230500
39.350000	1	0.225000
39.366667	1	0.219750
39.383333	1	0.214625
39.400000	1	0.209750
39.416667	1	0.203875
39.433333	1	0.198125
39.450000	1	0.193000
39.466667	1	0.188375
39.483333	1	0.182375
39.500000	1	0.177000
39.516667	1	0.171750
39.533333	1	0.166125
39.550000	1	0.161250
39.566667	1	0.156250
39.583333	1	0.151625
39.600000	1	0.146125
39.616667	1	0.141375
39.633333	1	0.136000
39.650000	1	0.130875
39.666667	1	0.126250
39.683333	1	0.121625
39.700000	1	0.116750
39.716667	1	0.112500
39.733333	1	0.108125
39.750000	1	0.104000
39.766667	1	0.099125
39.783333	1	0.094750
39.800000	1	0.090750
39.816667	1	0.086500
39.833333	1	0.083500
39.850000	1	0.080250
39.866667	1	0.076250
39.883333	1	0.073125
39.900000	1	0.070625
39.916667	1	0.067625
39.933333	1	0.064000
39.950000	1	0.061250
39.966667	1	0.058750
39.983333	1	0.055500
40.000000	1	0.053250
