URL	chrom://7040-86g6c92/XVault/Ultimate_3000/20/20240517_CMO_FP23_FP25_MarkusDeplate.seq/659.smp/RI_1.channel/RI_1.chm
Channel	RI_1

Injection Information:
Data Vault	XVault
Sequence	20240517_CMO_FP23_FP25_MarkusDeplate
Name	FP25_25.1_s5
Number	45
Position	BD9
Comment	
Processing Method	
Instrument Method	run_25B_method
Type	Unknown
Status	Finished
Inject Time	29.05.2024 00:05:06 +02:00
Volume (µl)	20.0000
Dilution Factor	1.0000
Weight	1.0000

Chromatogram Data Information:
Time Min. (min)	0.000000
Time Max. (min)	40.000000
Data Points	2401
Detector	RI
Generating Data System	Chromeleon 7.3.2.11814
Exporting Data System	Chromeleon 7.3.2.0
Operator	Instrument Controller
Signal Quantity	Refractive 
Signal Unit	µRIU
Signal Min.	-1.018250
Signal Max.	62.708125
Channel	RI_1
Driver Name	RID520Driver.dll
Channel Type	Evaluation
Min. Step (s)	1
Max. Step (s)	1
Average Step (s)	1

Signal Parameter Information:
Signal Info	

Chromatogram Data:
Time (min)	Step (s)	Value (µRIU)
0.000000	n.a.	-0.063500
0.016667	1	-0.063875
0.033333	1	-0.064375
0.050000	1	-0.064500
0.066667	1	-0.064125
0.083333	1	-0.064375
0.100000	1	-0.064625
0.116667	1	-0.064125
0.133333	1	-0.064000
0.150000	1	-0.064125
0.166667	1	-0.064000
0.183333	1	-0.063375
0.200000	1	-0.063250
0.216667	1	-0.062875
0.233333	1	-0.062625
0.250000	1	-0.062250
0.266667	1	-0.062125
0.283333	1	-0.061750
0.300000	1	-0.061000
0.316667	1	-0.061125
0.333333	1	-0.060750
0.350000	1	-0.060250
0.366667	1	-0.060375
0.383333	1	-0.060875
0.400000	1	-0.061125
0.416667	1	-0.060500
0.433333	1	-0.058875
0.450000	1	-0.056875
0.466667	1	-0.054750
0.483333	1	-0.052875
0.500000	1	-0.051250
0.516667	1	-0.050375
0.533333	1	-0.050375
0.550000	1	-0.051125
0.566667	1	-0.052250
0.583333	1	-0.053500
0.600000	1	-0.055750
0.616667	1	-0.057500
0.633333	1	-0.058375
0.650000	1	-0.059875
0.666667	1	-0.060250
0.683333	1	-0.060500
0.700000	1	-0.060375
0.716667	1	-0.060500
0.733333	1	-0.060375
0.750000	1	-0.060625
0.766667	1	-0.060625
0.783333	1	-0.060000
0.800000	1	-0.059250
0.816667	1	-0.058750
0.833333	1	-0.058000
0.850000	1	-0.057875
0.866667	1	-0.057000
0.883333	1	-0.057375
0.900000	1	-0.057125
0.916667	1	-0.056875
0.933333	1	-0.056750
0.950000	1	-0.056250
0.966667	1	-0.056375
0.983333	1	-0.056500
1.000000	1	-0.056375
1.016667	1	-0.056500
1.033333	1	-0.056125
1.050000	1	-0.055625
1.066667	1	-0.055625
1.083333	1	-0.054625
1.100000	1	-0.054875
1.116667	1	-0.055125
1.133333	1	-0.055500
1.150000	1	-0.055375
1.166667	1	-0.055875
1.183333	1	-0.055750
1.200000	1	-0.055625
1.216667	1	-0.055875
1.233333	1	-0.056625
1.250000	1	-0.056125
1.266667	1	-0.056500
1.283333	1	-0.056625
1.300000	1	-0.057000
1.316667	1	-0.056500
1.333333	1	-0.056625
1.350000	1	-0.056750
1.366667	1	-0.056750
1.383333	1	-0.056750
1.400000	1	-0.057625
1.416667	1	-0.057875
1.433333	1	-0.058250
1.450000	1	-0.058125
1.466667	1	-0.058125
1.483333	1	-0.058500
1.500000	1	-0.058750
1.516667	1	-0.059375
1.533333	1	-0.059250
1.550000	1	-0.060125
1.566667	1	-0.060750
1.583333	1	-0.061500
1.600000	1	-0.061750
1.616667	1	-0.062250
1.633333	1	-0.061625
1.650000	1	-0.061750
1.666667	1	-0.062250
1.683333	1	-0.062750
1.700000	1	-0.062875
1.716667	1	-0.063000
1.733333	1	-0.063750
1.750000	1	-0.063750
1.766667	1	-0.064625
1.783333	1	-0.064750
1.800000	1	-0.064750
1.816667	1	-0.063750
1.833333	1	-0.063500
1.850000	1	-0.063625
1.866667	1	-0.063375
1.883333	1	-0.063500
1.900000	1	-0.063500
1.916667	1	-0.062500
1.933333	1	-0.063500
1.950000	1	-0.064250
1.966667	1	-0.063750
1.983333	1	-0.063375
2.000000	1	-0.063375
2.016667	1	-0.062375
2.033333	1	-0.061500
2.050000	1	-0.060875
2.066667	1	-0.060875
2.083333	1	-0.061125
2.100000	1	-0.060875
2.116667	1	-0.061125
2.133333	1	-0.061000
2.150000	1	-0.061250
2.166667	1	-0.060500
2.183333	1	-0.060500
2.200000	1	-0.060875
2.216667	1	-0.060500
2.233333	1	-0.060125
2.250000	1	-0.060250
2.266667	1	-0.060125
2.283333	1	-0.059500
2.300000	1	-0.058375
2.316667	1	-0.058375
2.333333	1	-0.057500
2.350000	1	-0.057250
2.366667	1	-0.056625
2.383333	1	-0.056250
2.400000	1	-0.055750
2.416667	1	-0.055125
2.433333	1	-0.054750
2.450000	1	-0.053625
2.466667	1	-0.052750
2.483333	1	-0.052000
2.500000	1	-0.051125
2.516667	1	-0.050125
2.533333	1	-0.049625
2.550000	1	-0.049125
2.566667	1	-0.048625
2.583333	1	-0.047750
2.600000	1	-0.047500
2.616667	1	-0.047125
2.633333	1	-0.046750
2.650000	1	-0.047000
2.666667	1	-0.047125
2.683333	1	-0.047375
2.700000	1	-0.047750
2.716667	1	-0.047500
2.733333	1	-0.048000
2.750000	1	-0.047750
2.766667	1	-0.048625
2.783333	1	-0.049375
2.800000	1	-0.050000
2.816667	1	-0.050000
2.833333	1	-0.050750
2.850000	1	-0.051875
2.866667	1	-0.052750
2.883333	1	-0.054000
2.900000	1	-0.055000
2.916667	1	-0.056250
2.933333	1	-0.057125
2.950000	1	-0.058375
2.966667	1	-0.059125
2.983333	1	-0.060000
3.000000	1	-0.060750
3.016667	1	-0.062000
3.033333	1	-0.063125
3.050000	1	-0.064000
3.066667	1	-0.065125
3.083333	1	-0.066000
3.100000	1	-0.066875
3.116667	1	-0.068000
3.133333	1	-0.068625
3.150000	1	-0.068625
3.166667	1	-0.069750
3.183333	1	-0.071125
3.200000	1	-0.072375
3.216667	1	-0.072875
3.233333	1	-0.074250
3.250000	1	-0.075000
3.266667	1	-0.076375
3.283333	1	-0.077375
3.300000	1	-0.078750
3.316667	1	-0.080125
3.333333	1	-0.081250
3.350000	1	-0.082375
3.366667	1	-0.083250
3.383333	1	-0.084625
3.400000	1	-0.085000
3.416667	1	-0.086000
3.433333	1	-0.086500
3.450000	1	-0.086500
3.466667	1	-0.087000
3.483333	1	-0.086625
3.500000	1	-0.087125
3.516667	1	-0.087500
3.533333	1	-0.087625
3.550000	1	-0.087250
3.566667	1	-0.087000
3.583333	1	-0.086250
3.600000	1	-0.084500
3.616667	1	-0.083750
3.633333	1	-0.082250
3.650000	1	-0.082250
3.666667	1	-0.079875
3.683333	1	-0.077750
3.700000	1	-0.075250
3.716667	1	-0.073625
3.733333	1	-0.070750
3.750000	1	-0.068625
3.766667	1	-0.066750
3.783333	1	-0.064875
3.800000	1	-0.062000
3.816667	1	-0.059750
3.833333	1	-0.057750
3.850000	1	-0.055125
3.866667	1	-0.052875
3.883333	1	-0.051000
3.900000	1	-0.049375
3.916667	1	-0.047500
3.933333	1	-0.045375
3.950000	1	-0.044000
3.966667	1	-0.042750
3.983333	1	-0.040375
4.000000	1	-0.039250
4.016667	1	-0.038000
4.033333	1	-0.037500
4.050000	1	-0.036500
4.066667	1	-0.035750
4.083333	1	-0.034750
4.100000	1	-0.034250
4.116667	1	-0.033375
4.133333	1	-0.033250
4.150000	1	-0.032875
4.166667	1	-0.032500
4.183333	1	-0.032000
4.200000	1	-0.032250
4.216667	1	-0.033125
4.233333	1	-0.032875
4.250000	1	-0.033500
4.266667	1	-0.033500
4.283333	1	-0.034125
4.300000	1	-0.034625
4.316667	1	-0.034750
4.333333	1	-0.034875
4.350000	1	-0.034875
4.366667	1	-0.035500
4.383333	1	-0.036375
4.400000	1	-0.035500
4.416667	1	-0.035875
4.433333	1	-0.035750
4.450000	1	-0.035625
4.466667	1	-0.035500
4.483333	1	-0.035625
4.500000	1	-0.035250
4.516667	1	-0.035125
4.533333	1	-0.034875
4.550000	1	-0.034125
4.566667	1	-0.033250
4.583333	1	-0.031750
4.600000	1	-0.030625
4.616667	1	-0.030125
4.633333	1	-0.028875
4.650000	1	-0.027750
4.666667	1	-0.026500
4.683333	1	-0.025250
4.700000	1	-0.024625
4.716667	1	-0.023000
4.733333	1	-0.021875
4.750000	1	-0.020625
4.766667	1	-0.019500
4.783333	1	-0.017875
4.800000	1	-0.016250
4.816667	1	-0.015375
4.833333	1	-0.014000
4.850000	1	-0.013000
4.866667	1	-0.012250
4.883333	1	-0.011125
4.900000	1	-0.009375
4.916667	1	-0.007875
4.933333	1	-0.006125
4.950000	1	-0.005250
4.966667	1	-0.003875
4.983333	1	-0.002000
5.000000	1	0.000250
5.016667	1	0.001125
5.033333	1	0.003250
5.050000	1	0.004750
5.066667	1	0.007625
5.083333	1	0.009000
5.100000	1	0.011500
5.116667	1	0.013375
5.133333	1	0.015375
5.150000	1	0.017875
5.166667	1	0.020375
5.183333	1	0.023375
5.200000	1	0.025875
5.216667	1	0.029625
5.233333	1	0.032625
5.250000	1	0.035750
5.266667	1	0.039000
5.283333	1	0.042750
5.300000	1	0.046625
5.316667	1	0.050875
5.333333	1	0.054875
5.350000	1	0.059500
5.366667	1	0.063750
5.383333	1	0.068625
5.400000	1	0.073500
5.416667	1	0.079125
5.433333	1	0.084000
5.450000	1	0.088875
5.466667	1	0.094000
5.483333	1	0.098875
5.500000	1	0.103375
5.516667	1	0.108125
5.533333	1	0.112625
5.550000	1	0.117125
5.566667	1	0.122500
5.583333	1	0.127500
5.600000	1	0.132375
5.616667	1	0.136500
5.633333	1	0.140500
5.650000	1	0.143750
5.666667	1	0.147000
5.683333	1	0.150125
5.700000	1	0.153000
5.716667	1	0.155750
5.733333	1	0.158500
5.750000	1	0.160375
5.766667	1	0.162250
5.783333	1	0.163750
5.800000	1	0.165250
5.816667	1	0.166000
5.833333	1	0.167125
5.850000	1	0.167250
5.866667	1	0.167500
5.883333	1	0.167500
5.900000	1	0.167250
5.916667	1	0.167000
5.933333	1	0.166125
5.950000	1	0.165250
5.966667	1	0.164250
5.983333	1	0.163125
6.000000	1	0.161250
6.016667	1	0.159625
6.033333	1	0.157125
6.050000	1	0.154750
6.066667	1	0.152875
6.083333	1	0.150750
6.100000	1	0.148250
6.116667	1	0.146000
6.133333	1	0.143750
6.150000	1	0.141125
6.166667	1	0.139000
6.183333	1	0.136250
6.200000	1	0.132750
6.216667	1	0.130125
6.233333	1	0.127625
6.250000	1	0.124375
6.266667	1	0.121750
6.283333	1	0.118250
6.300000	1	0.114875
6.316667	1	0.111000
6.333333	1	0.108000
6.350000	1	0.105375
6.366667	1	0.102750
6.383333	1	0.099500
6.400000	1	0.097000
6.416667	1	0.094000
6.433333	1	0.090625
6.450000	1	0.087500
6.466667	1	0.084125
6.483333	1	0.081375
6.500000	1	0.078375
6.516667	1	0.075125
6.533333	1	0.072375
6.550000	1	0.069625
6.566667	1	0.067125
6.583333	1	0.064500
6.600000	1	0.062375
6.616667	1	0.060250
6.633333	1	0.058500
6.650000	1	0.056000
6.666667	1	0.053750
6.683333	1	0.051625
6.700000	1	0.049875
6.716667	1	0.048375
6.733333	1	0.047125
6.750000	1	0.045875
6.766667	1	0.045000
6.783333	1	0.044375
6.800000	1	0.043250
6.816667	1	0.042750
6.833333	1	0.042250
6.850000	1	0.041625
6.866667	1	0.041500
6.883333	1	0.041375
6.900000	1	0.041125
6.916667	1	0.040875
6.933333	1	0.040875
6.950000	1	0.040750
6.966667	1	0.041625
6.983333	1	0.042875
7.000000	1	0.043125
7.016667	1	0.042875
7.033333	1	0.043375
7.050000	1	0.043250
7.066667	1	0.043625
7.083333	1	0.044000
7.100000	1	0.044875
7.116667	1	0.045750
7.133333	1	0.046750
7.150000	1	0.047500
7.166667	1	0.048125
7.183333	1	0.049375
7.200000	1	0.050000
7.216667	1	0.050875
7.233333	1	0.051250
7.250000	1	0.052125
7.266667	1	0.053500
7.283333	1	0.054625
7.300000	1	0.056250
7.316667	1	0.057625
7.333333	1	0.058750
7.350000	1	0.060875
7.366667	1	0.062875
7.383333	1	0.064750
7.400000	1	0.066625
7.416667	1	0.068625
7.433333	1	0.071125
7.450000	1	0.073500
7.466667	1	0.075250
7.483333	1	0.077125
7.500000	1	0.079500
7.516667	1	0.082375
7.533333	1	0.084625
7.550000	1	0.087000
7.566667	1	0.088750
7.583333	1	0.090500
7.600000	1	0.092500
7.616667	1	0.094125
7.633333	1	0.095000
7.650000	1	0.097125
7.666667	1	0.098000
7.683333	1	0.099625
7.700000	1	0.100625
7.716667	1	0.101250
7.733333	1	0.101750
7.750000	1	0.102375
7.766667	1	0.102250
7.783333	1	0.101875
7.800000	1	0.101125
7.816667	1	0.100250
7.833333	1	0.098500
7.850000	1	0.096750
7.866667	1	0.095000
7.883333	1	0.093375
7.900000	1	0.091250
7.916667	1	0.088875
7.933333	1	0.086250
7.950000	1	0.082625
7.966667	1	0.078875
7.983333	1	0.075625
8.000000	1	0.071500
8.016667	1	0.067250
8.033333	1	0.063375
8.050000	1	0.059000
8.066667	1	0.055250
8.083333	1	0.050625
8.100000	1	0.046875
8.116667	1	0.042750
8.133333	1	0.038625
8.150000	1	0.034750
8.166667	1	0.030625
8.183333	1	0.027125
8.200000	1	0.024000
8.216667	1	0.020125
8.233333	1	0.016625
8.250000	1	0.012750
8.266667	1	0.009500
8.283333	1	0.007375
8.300000	1	0.004750
8.316667	1	0.001500
8.333333	1	-0.001000
8.350000	1	-0.003125
8.366667	1	-0.004875
8.383333	1	-0.007000
8.400000	1	-0.009000
8.416667	1	-0.010500
8.433333	1	-0.013000
8.450000	1	-0.014500
8.466667	1	-0.016125
8.483333	1	-0.017625
8.500000	1	-0.019125
8.516667	1	-0.020875
8.533333	1	-0.022250
8.550000	1	-0.023250
8.566667	1	-0.024000
8.583333	1	-0.025250
8.600000	1	-0.026375
8.616667	1	-0.026625
8.633333	1	-0.027500
8.650000	1	-0.028875
8.666667	1	-0.029000
8.683333	1	-0.030625
8.700000	1	-0.030750
8.716667	1	-0.031125
8.733333	1	-0.031375
8.750000	1	-0.032125
8.766667	1	-0.032375
8.783333	1	-0.032375
8.800000	1	-0.032750
8.816667	1	-0.033250
8.833333	1	-0.033625
8.850000	1	-0.033750
8.866667	1	-0.033875
8.883333	1	-0.033750
8.900000	1	-0.033250
8.916667	1	-0.033250
8.933333	1	-0.032875
8.950000	1	-0.031875
8.966667	1	-0.031375
8.983333	1	-0.030375
9.000000	1	-0.030000
9.016667	1	-0.029375
9.033333	1	-0.028750
9.050000	1	-0.027625
9.066667	1	-0.027000
9.083333	1	-0.026125
9.100000	1	-0.024625
9.116667	1	-0.023250
9.133333	1	-0.021875
9.150000	1	-0.021000
9.166667	1	-0.020000
9.183333	1	-0.019500
9.200000	1	-0.018125
9.216667	1	-0.017625
9.233333	1	-0.016750
9.250000	1	-0.015750
9.266667	1	-0.014750
9.283333	1	-0.014000
9.300000	1	-0.012875
9.316667	1	-0.012375
9.333333	1	-0.012375
9.350000	1	-0.012125
9.366667	1	-0.012625
9.383333	1	-0.012000
9.400000	1	-0.011875
9.416667	1	-0.012750
9.433333	1	-0.012875
9.450000	1	-0.012875
9.466667	1	-0.013250
9.483333	1	-0.014375
9.500000	1	-0.015250
9.516667	1	-0.015500
9.533333	1	-0.016000
9.550000	1	-0.017500
9.566667	1	-0.018250
9.583333	1	-0.020000
9.600000	1	-0.020875
9.616667	1	-0.021500
9.633333	1	-0.021750
9.650000	1	-0.023125
9.666667	1	-0.023875
9.683333	1	-0.024750
9.700000	1	-0.025875
9.716667	1	-0.026000
9.733333	1	-0.026625
9.750000	1	-0.027625
9.766667	1	-0.028000
9.783333	1	-0.028875
9.800000	1	-0.029500
9.816667	1	-0.030375
9.833333	1	-0.031250
9.850000	1	-0.031000
9.866667	1	-0.031750
9.883333	1	-0.032375
9.900000	1	-0.032500
9.916667	1	-0.032375
9.933333	1	-0.032250
9.950000	1	-0.032875
9.966667	1	-0.033000
9.983333	1	-0.032625
10.000000	1	-0.031875
10.016667	1	-0.030750
10.033333	1	-0.029875
10.050000	1	-0.028250
10.066667	1	-0.025875
10.083333	1	-0.023000
10.100000	1	-0.018750
10.116667	1	-0.014250
10.133333	1	-0.008875
10.150000	1	-0.003000
10.166667	1	0.004375
10.183333	1	0.012875
10.200000	1	0.022250
10.216667	1	0.033750
10.233333	1	0.046625
10.250000	1	0.061500
10.266667	1	0.078875
10.283333	1	0.099125
10.300000	1	0.121625
10.316667	1	0.146750
10.333333	1	0.175500
10.350000	1	0.207750
10.366667	1	0.244125
10.383333	1	0.284750
10.400000	1	0.328000
10.416667	1	0.371250
10.433333	1	0.405875
10.450000	1	0.422875
10.466667	1	0.409125
10.483333	1	0.358625
10.500000	1	0.282125
10.516667	1	0.208500
10.533333	1	0.197625
10.550000	1	0.332250
10.566667	1	0.707875
10.583333	1	1.425875
10.600000	1	2.574500
10.616667	1	4.227250
10.633333	1	6.432375
10.650000	1	9.217125
10.666667	1	12.589625
10.683333	1	16.531500
10.700000	1	20.999750
10.716667	1	25.906000
10.733333	1	31.112500
10.750000	1	36.407375
10.766667	1	41.491875
10.783333	1	45.982125
10.800000	1	49.436750
10.816667	1	51.434500
10.833333	1	51.695625
10.850000	1	50.178125
10.866667	1	47.103125
10.883333	1	42.892375
10.900000	1	38.047625
10.916667	1	33.031375
10.933333	1	28.193000
10.950000	1	23.753500
10.966667	1	19.826750
10.983333	1	16.449000
11.000000	1	13.605500
11.016667	1	11.253750
11.033333	1	9.337125
11.050000	1	7.791125
11.066667	1	6.550875
11.083333	1	5.560375
11.100000	1	4.768875
11.116667	1	4.134375
11.133333	1	3.624500
11.150000	1	3.211250
11.166667	1	2.874625
11.183333	1	2.597375
11.200000	1	2.366875
11.216667	1	2.173375
11.233333	1	2.009500
11.250000	1	1.870875
11.266667	1	1.751125
11.283333	1	1.648500
11.300000	1	1.559375
11.316667	1	1.481625
11.333333	1	1.413750
11.350000	1	1.354125
11.366667	1	1.302250
11.383333	1	1.256000
11.400000	1	1.215375
11.416667	1	1.178750
11.433333	1	1.146250
11.450000	1	1.116375
11.466667	1	1.090125
11.483333	1	1.066375
11.500000	1	1.044125
11.516667	1	1.024625
11.533333	1	1.006375
11.550000	1	0.989500
11.566667	1	0.975125
11.583333	1	0.962750
11.600000	1	0.951250
11.616667	1	0.941125
11.633333	1	0.932625
11.650000	1	0.926125
11.666667	1	0.921125
11.683333	1	0.917750
11.700000	1	0.916000
11.716667	1	0.915750
11.733333	1	0.918000
11.750000	1	0.921000
11.766667	1	0.924500
11.783333	1	0.929125
11.800000	1	0.933875
11.816667	1	0.938625
11.833333	1	0.943750
11.850000	1	0.948375
11.866667	1	0.952375
11.883333	1	0.956000
11.900000	1	0.959625
11.916667	1	0.963125
11.933333	1	0.965500
11.950000	1	0.968000
11.966667	1	0.971250
11.983333	1	0.974250
12.000000	1	0.978000
12.016667	1	0.981875
12.033333	1	0.987125
12.050000	1	0.991750
12.066667	1	0.997000
12.083333	1	1.002750
12.100000	1	1.009500
12.116667	1	1.015875
12.133333	1	1.022750
12.150000	1	1.030875
12.166667	1	1.039250
12.183333	1	1.048250
12.200000	1	1.059750
12.216667	1	1.072000
12.233333	1	1.085250
12.250000	1	1.101125
12.266667	1	1.118250
12.283333	1	1.138000
12.300000	1	1.159875
12.316667	1	1.186000
12.333333	1	1.214625
12.350000	1	1.247875
12.366667	1	1.288500
12.383333	1	1.339125
12.400000	1	1.401375
12.416667	1	1.480250
12.433333	1	1.578000
12.450000	1	1.701375
12.466667	1	1.851500
12.483333	1	2.033500
12.500000	1	2.248375
12.516667	1	2.498125
12.533333	1	2.783250
12.550000	1	3.102625
12.566667	1	3.455500
12.583333	1	3.840625
12.600000	1	4.256000
12.616667	1	4.698625
12.633333	1	5.167500
12.650000	1	5.659375
12.666667	1	6.174000
12.683333	1	6.707250
12.700000	1	7.259125
12.716667	1	7.827500
12.733333	1	8.411000
12.750000	1	9.007250
12.766667	1	9.616625
12.783333	1	10.238250
12.800000	1	10.870625
12.816667	1	11.509500
12.833333	1	12.142000
12.850000	1	12.734750
12.866667	1	13.223875
12.883333	1	13.509625
12.900000	1	13.487250
12.916667	1	13.090000
12.933333	1	12.318500
12.950000	1	11.254000
12.966667	1	10.021125
12.983333	1	8.750250
13.000000	1	7.542500
13.016667	1	6.455375
13.033333	1	5.511875
13.050000	1	4.713875
13.066667	1	4.050125
13.083333	1	3.506750
13.100000	1	3.066625
13.116667	1	2.714750
13.133333	1	2.434375
13.150000	1	2.211875
13.166667	1	2.034875
13.183333	1	1.893875
13.200000	1	1.780875
13.216667	1	1.688875
13.233333	1	1.612500
13.250000	1	1.548750
13.266667	1	1.493625
13.283333	1	1.446125
13.300000	1	1.404250
13.316667	1	1.366750
13.333333	1	1.332875
13.350000	1	1.302125
13.366667	1	1.273875
13.383333	1	1.248250
13.400000	1	1.225750
13.416667	1	1.205000
13.433333	1	1.188750
13.450000	1	1.174125
13.466667	1	1.162750
13.483333	1	1.152875
13.500000	1	1.146375
13.516667	1	1.142000
13.533333	1	1.139125
13.550000	1	1.136375
13.566667	1	1.134750
13.583333	1	1.132375
13.600000	1	1.129125
13.616667	1	1.125500
13.633333	1	1.119125
13.650000	1	1.111250
13.666667	1	1.101000
13.683333	1	1.088625
13.700000	1	1.074375
13.716667	1	1.059000
13.733333	1	1.042375
13.750000	1	1.025125
13.766667	1	1.008125
13.783333	1	0.991625
13.800000	1	0.975500
13.816667	1	0.959750
13.833333	1	0.944375
13.850000	1	0.930125
13.866667	1	0.916250
13.883333	1	0.902875
13.900000	1	0.890625
13.916667	1	0.878625
13.933333	1	0.866500
13.950000	1	0.855750
13.966667	1	0.844750
13.983333	1	0.834375
14.000000	1	0.824375
14.016667	1	0.814375
14.033333	1	0.805625
14.050000	1	0.797500
14.066667	1	0.789625
14.083333	1	0.781625
14.100000	1	0.774125
14.116667	1	0.766000
14.133333	1	0.758875
14.150000	1	0.752375
14.166667	1	0.747000
14.183333	1	0.741750
14.200000	1	0.737750
14.216667	1	0.733875
14.233333	1	0.731875
14.250000	1	0.730625
14.266667	1	0.729375
14.283333	1	0.729625
14.300000	1	0.730875
14.316667	1	0.734000
14.333333	1	0.737750
14.350000	1	0.744000
14.366667	1	0.751750
14.383333	1	0.761750
14.400000	1	0.773375
14.416667	1	0.789750
14.433333	1	0.811000
14.450000	1	0.841750
14.466667	1	0.888250
14.483333	1	0.960125
14.500000	1	1.070750
14.516667	1	1.241375
14.533333	1	1.502875
14.550000	1	1.895500
14.566667	1	2.468375
14.583333	1	3.281875
14.600000	1	4.408500
14.616667	1	5.927875
14.633333	1	7.919125
14.650000	1	10.454125
14.666667	1	13.583250
14.683333	1	17.327000
14.700000	1	21.662125
14.716667	1	26.514500
14.733333	1	31.762125
14.750000	1	37.231000
14.766667	1	42.701250
14.783333	1	47.928000
14.800000	1	52.667000
14.816667	1	56.683125
14.833333	1	59.780750
14.850000	1	61.814625
14.866667	1	62.708125
14.883333	1	62.460875
14.900000	1	61.142750
14.916667	1	58.883375
14.933333	1	55.855875
14.950000	1	52.254750
14.966667	1	48.279375
14.983333	1	44.117375
15.000000	1	39.922750
15.016667	1	35.824500
15.033333	1	31.917875
15.050000	1	28.269250
15.066667	1	24.917750
15.083333	1	21.881625
15.100000	1	19.161500
15.116667	1	16.744500
15.133333	1	14.608875
15.150000	1	12.730500
15.166667	1	11.085375
15.183333	1	9.648625
15.200000	1	8.396750
15.216667	1	7.309000
15.233333	1	6.366000
15.250000	1	5.553125
15.266667	1	4.855625
15.283333	1	4.261125
15.300000	1	3.759375
15.316667	1	3.339250
15.333333	1	2.991625
15.350000	1	2.708000
15.366667	1	2.479625
15.383333	1	2.299125
15.400000	1	2.158125
15.416667	1	2.047750
15.433333	1	1.963000
15.450000	1	1.897000
15.466667	1	1.843625
15.483333	1	1.798250
15.500000	1	1.755875
15.516667	1	1.715500
15.533333	1	1.674625
15.550000	1	1.631250
15.566667	1	1.587250
15.583333	1	1.541750
15.600000	1	1.496000
15.616667	1	1.450625
15.633333	1	1.407125
15.650000	1	1.364625
15.666667	1	1.325375
15.683333	1	1.289250
15.700000	1	1.255125
15.716667	1	1.223250
15.733333	1	1.193125
15.750000	1	1.165875
15.766667	1	1.140125
15.783333	1	1.114750
15.800000	1	1.091875
15.816667	1	1.070125
15.833333	1	1.048875
15.850000	1	1.029000
15.866667	1	1.011250
15.883333	1	0.994250
15.900000	1	0.979375
15.916667	1	0.966250
15.933333	1	0.955000
15.950000	1	0.946250
15.966667	1	0.939000
15.983333	1	0.933875
16.000000	1	0.930625
16.016667	1	0.928625
16.033333	1	0.929000
16.050000	1	0.930000
16.066667	1	0.932625
16.083333	1	0.934875
16.100000	1	0.937625
16.116667	1	0.940500
16.133333	1	0.943625
16.150000	1	0.945750
16.166667	1	0.947250
16.183333	1	0.948625
16.200000	1	0.948500
16.216667	1	0.947875
16.233333	1	0.945750
16.250000	1	0.943250
16.266667	1	0.939250
16.283333	1	0.934625
16.300000	1	0.929625
16.316667	1	0.924500
16.333333	1	0.919625
16.350000	1	0.915625
16.366667	1	0.911750
16.383333	1	0.909750
16.400000	1	0.908625
16.416667	1	0.909125
16.433333	1	0.910625
16.450000	1	0.913250
16.466667	1	0.916375
16.483333	1	0.920250
16.500000	1	0.924250
16.516667	1	0.926500
16.533333	1	0.927500
16.550000	1	0.928125
16.566667	1	0.926875
16.583333	1	0.924000
16.600000	1	0.919125
16.616667	1	0.913500
16.633333	1	0.906500
16.650000	1	0.899750
16.666667	1	0.892750
16.683333	1	0.886125
16.700000	1	0.881000
16.716667	1	0.877750
16.733333	1	0.876125
16.750000	1	0.876375
16.766667	1	0.879375
16.783333	1	0.883500
16.800000	1	0.889125
16.816667	1	0.895250
16.833333	1	0.902250
16.850000	1	0.908250
16.866667	1	0.914125
16.883333	1	0.918875
16.900000	1	0.922375
16.916667	1	0.923625
16.933333	1	0.923375
16.950000	1	0.921250
16.966667	1	0.918250
16.983333	1	0.914375
17.000000	1	0.909250
17.016667	1	0.903750
17.033333	1	0.898500
17.050000	1	0.893500
17.066667	1	0.888875
17.083333	1	0.885375
17.100000	1	0.882500
17.116667	1	0.879875
17.133333	1	0.878500
17.150000	1	0.878375
17.166667	1	0.878875
17.183333	1	0.880500
17.200000	1	0.882625
17.216667	1	0.886000
17.233333	1	0.888625
17.250000	1	0.892875
17.266667	1	0.896125
17.283333	1	0.900875
17.300000	1	0.905875
17.316667	1	0.911625
17.333333	1	0.917250
17.350000	1	0.923250
17.366667	1	0.928250
17.383333	1	0.934375
17.400000	1	0.940250
17.416667	1	0.944500
17.433333	1	0.948875
17.450000	1	0.951125
17.466667	1	0.952750
17.483333	1	0.951875
17.500000	1	0.949625
17.516667	1	0.946125
17.533333	1	0.941500
17.550000	1	0.934500
17.566667	1	0.925750
17.583333	1	0.916625
17.600000	1	0.906500
17.616667	1	0.895000
17.633333	1	0.882375
17.650000	1	0.868750
17.666667	1	0.855250
17.683333	1	0.841375
17.700000	1	0.827500
17.716667	1	0.813500
17.733333	1	0.799875
17.750000	1	0.786250
17.766667	1	0.773750
17.783333	1	0.762125
17.800000	1	0.750625
17.816667	1	0.741250
17.833333	1	0.731625
17.850000	1	0.723500
17.866667	1	0.715375
17.883333	1	0.708750
17.900000	1	0.702375
17.916667	1	0.696500
17.933333	1	0.691125
17.950000	1	0.685500
17.966667	1	0.680500
17.983333	1	0.675500
18.000000	1	0.670375
18.016667	1	0.665375
18.033333	1	0.660375
18.050000	1	0.655375
18.066667	1	0.650375
18.083333	1	0.646125
18.100000	1	0.642000
18.116667	1	0.638625
18.133333	1	0.635750
18.150000	1	0.633375
18.166667	1	0.631500
18.183333	1	0.630500
18.200000	1	0.630000
18.216667	1	0.629375
18.233333	1	0.629250
18.250000	1	0.629375
18.266667	1	0.629750
18.283333	1	0.630375
18.300000	1	0.631125
18.316667	1	0.631125
18.333333	1	0.631125
18.350000	1	0.632125
18.366667	1	0.633750
18.383333	1	0.636250
18.400000	1	0.640000
18.416667	1	0.644750
18.433333	1	0.650500
18.450000	1	0.658375
18.466667	1	0.668125
18.483333	1	0.679500
18.500000	1	0.692875
18.516667	1	0.708500
18.533333	1	0.726125
18.550000	1	0.746625
18.566667	1	0.768250
18.583333	1	0.792375
18.600000	1	0.818250
18.616667	1	0.846000
18.633333	1	0.875625
18.650000	1	0.906375
18.666667	1	0.938625
18.683333	1	0.971625
18.700000	1	1.006250
18.716667	1	1.041125
18.733333	1	1.076625
18.750000	1	1.112750
18.766667	1	1.147500
18.783333	1	1.181750
18.800000	1	1.214125
18.816667	1	1.244875
18.833333	1	1.272625
18.850000	1	1.295375
18.866667	1	1.313750
18.883333	1	1.327125
18.900000	1	1.335250
18.916667	1	1.336750
18.933333	1	1.331875
18.950000	1	1.320875
18.966667	1	1.303375
18.983333	1	1.280125
19.000000	1	1.250875
19.016667	1	1.216125
19.033333	1	1.177875
19.050000	1	1.135875
19.066667	1	1.091000
19.083333	1	1.045250
19.100000	1	0.998750
19.116667	1	0.952750
19.133333	1	0.907875
19.150000	1	0.865000
19.166667	1	0.825250
19.183333	1	0.789500
19.200000	1	0.756750
19.216667	1	0.729375
19.233333	1	0.706500
19.250000	1	0.689375
19.266667	1	0.677125
19.283333	1	0.671125
19.300000	1	0.671375
19.316667	1	0.678000
19.333333	1	0.690250
19.350000	1	0.707750
19.366667	1	0.730125
19.383333	1	0.757000
19.400000	1	0.787250
19.416667	1	0.821250
19.433333	1	0.856625
19.450000	1	0.892875
19.466667	1	0.928375
19.483333	1	0.962250
19.500000	1	0.994125
19.516667	1	1.023000
19.533333	1	1.048875
19.550000	1	1.069625
19.566667	1	1.086625
19.583333	1	1.098375
19.600000	1	1.105875
19.616667	1	1.107875
19.633333	1	1.105875
19.650000	1	1.099375
19.666667	1	1.089500
19.683333	1	1.075375
19.700000	1	1.057750
19.716667	1	1.037250
19.733333	1	1.013375
19.750000	1	0.987000
19.766667	1	0.958750
19.783333	1	0.929250
19.800000	1	0.898500
19.816667	1	0.866375
19.833333	1	0.834000
19.850000	1	0.801750
19.866667	1	0.770000
19.883333	1	0.739375
19.900000	1	0.710625
19.916667	1	0.684250
19.933333	1	0.659875
19.950000	1	0.638750
19.966667	1	0.621125
19.983333	1	0.607875
20.000000	1	0.599375
20.016667	1	0.596375
20.033333	1	0.600000
20.050000	1	0.611125
20.066667	1	0.628625
20.083333	1	0.654625
20.100000	1	0.687625
20.116667	1	0.728000
20.133333	1	0.775250
20.150000	1	0.827500
20.166667	1	0.884125
20.183333	1	0.944000
20.200000	1	1.004125
20.216667	1	1.062750
20.233333	1	1.118500
20.250000	1	1.169125
20.266667	1	1.211125
20.283333	1	1.244250
20.300000	1	1.267750
20.316667	1	1.280375
20.333333	1	1.281625
20.350000	1	1.271875
20.366667	1	1.252000
20.383333	1	1.221375
20.400000	1	1.182875
20.416667	1	1.138625
20.433333	1	1.090250
20.450000	1	1.038625
20.466667	1	0.986500
20.483333	1	0.934125
20.500000	1	0.884375
20.516667	1	0.838875
20.533333	1	0.797875
20.550000	1	0.763250
20.566667	1	0.735250
20.583333	1	0.715500
20.600000	1	0.704500
20.616667	1	0.703375
20.633333	1	0.711125
20.650000	1	0.729500
20.666667	1	0.758375
20.683333	1	0.797750
20.700000	1	0.846375
20.716667	1	0.903750
20.733333	1	0.968875
20.750000	1	1.039750
20.766667	1	1.114500
20.783333	1	1.189625
20.800000	1	1.263750
20.816667	1	1.333000
20.833333	1	1.395750
20.850000	1	1.449375
20.866667	1	1.492625
20.883333	1	1.523250
20.900000	1	1.540125
20.916667	1	1.544000
20.933333	1	1.535250
20.950000	1	1.512875
20.966667	1	1.478875
20.983333	1	1.435125
21.000000	1	1.383500
21.016667	1	1.325750
21.033333	1	1.264125
21.050000	1	1.200000
21.066667	1	1.134375
21.083333	1	1.070000
21.100000	1	1.007500
21.116667	1	0.948000
21.133333	1	0.890875
21.150000	1	0.838000
21.166667	1	0.788250
21.183333	1	0.743375
21.200000	1	0.702000
21.216667	1	0.664875
21.233333	1	0.630375
21.250000	1	0.600000
21.266667	1	0.571875
21.283333	1	0.547000
21.300000	1	0.524750
21.316667	1	0.505500
21.333333	1	0.488000
21.350000	1	0.471750
21.366667	1	0.457125
21.383333	1	0.443875
21.400000	1	0.431625
21.416667	1	0.420250
21.433333	1	0.410375
21.450000	1	0.400875
21.466667	1	0.392000
21.483333	1	0.384000
21.500000	1	0.376750
21.516667	1	0.370125
21.533333	1	0.363875
21.550000	1	0.357875
21.566667	1	0.352375
21.583333	1	0.347875
21.600000	1	0.343375
21.616667	1	0.339375
21.633333	1	0.337000
21.650000	1	0.334375
21.666667	1	0.332000
21.683333	1	0.329500
21.700000	1	0.328250
21.716667	1	0.327625
21.733333	1	0.327375
21.750000	1	0.327875
21.766667	1	0.328375
21.783333	1	0.329125
21.800000	1	0.330500
21.816667	1	0.332500
21.833333	1	0.334500
21.850000	1	0.336375
21.866667	1	0.338750
21.883333	1	0.341000
21.900000	1	0.344625
21.916667	1	0.348125
21.933333	1	0.352375
21.950000	1	0.357625
21.966667	1	0.362375
21.983333	1	0.368250
22.000000	1	0.374500
22.016667	1	0.380875
22.033333	1	0.387375
22.050000	1	0.394500
22.066667	1	0.402000
22.083333	1	0.409500
22.100000	1	0.416125
22.116667	1	0.423000
22.133333	1	0.429125
22.150000	1	0.434250
22.166667	1	0.439375
22.183333	1	0.442750
22.200000	1	0.444000
22.216667	1	0.444375
22.233333	1	0.443375
22.250000	1	0.441125
22.266667	1	0.437000
22.283333	1	0.432000
22.300000	1	0.426000
22.316667	1	0.418125
22.333333	1	0.410500
22.350000	1	0.401625
22.366667	1	0.392250
22.383333	1	0.382750
22.400000	1	0.372875
22.416667	1	0.362500
22.433333	1	0.352500
22.450000	1	0.341875
22.466667	1	0.331750
22.483333	1	0.322750
22.500000	1	0.314375
22.516667	1	0.305750
22.533333	1	0.297375
22.550000	1	0.289125
22.566667	1	0.281625
22.583333	1	0.274375
22.600000	1	0.267750
22.616667	1	0.261250
22.633333	1	0.254875
22.650000	1	0.249625
22.666667	1	0.244125
22.683333	1	0.239000
22.700000	1	0.234000
22.716667	1	0.228625
22.733333	1	0.223750
22.750000	1	0.219250
22.766667	1	0.215000
22.783333	1	0.210750
22.800000	1	0.206125
22.816667	1	0.202375
22.833333	1	0.198375
22.850000	1	0.194250
22.866667	1	0.190375
22.883333	1	0.187250
22.900000	1	0.184125
22.916667	1	0.181000
22.933333	1	0.178875
22.950000	1	0.176250
22.966667	1	0.174500
22.983333	1	0.173125
23.000000	1	0.171500
23.016667	1	0.170625
23.033333	1	0.169875
23.050000	1	0.169250
23.066667	1	0.169875
23.083333	1	0.169750
23.100000	1	0.171125
23.116667	1	0.172125
23.133333	1	0.174250
23.150000	1	0.175875
23.166667	1	0.178250
23.183333	1	0.180250
23.200000	1	0.182250
23.216667	1	0.184750
23.233333	1	0.188000
23.250000	1	0.191625
23.266667	1	0.196250
23.283333	1	0.201750
23.300000	1	0.209250
23.316667	1	0.218250
23.333333	1	0.230000
23.350000	1	0.245125
23.366667	1	0.264375
23.383333	1	0.290000
23.400000	1	0.323250
23.416667	1	0.366250
23.433333	1	0.420750
23.450000	1	0.490000
23.466667	1	0.576125
23.483333	1	0.682250
23.500000	1	0.812125
23.516667	1	0.968625
23.533333	1	1.154250
23.550000	1	1.371500
23.566667	1	1.623875
23.583333	1	1.910250
23.600000	1	2.231000
23.616667	1	2.584625
23.633333	1	2.968750
23.650000	1	3.378625
23.666667	1	3.809750
23.683333	1	4.254125
23.700000	1	4.704875
23.716667	1	5.152625
23.733333	1	5.587375
23.750000	1	5.999625
23.766667	1	6.379000
23.783333	1	6.716875
23.800000	1	7.004875
23.816667	1	7.236000
23.833333	1	7.407000
23.850000	1	7.515500
23.866667	1	7.560375
23.883333	1	7.542625
23.900000	1	7.464750
23.916667	1	7.331250
23.933333	1	7.147250
23.950000	1	6.919875
23.966667	1	6.655500
23.983333	1	6.362125
24.000000	1	6.046750
24.016667	1	5.717750
24.033333	1	5.381250
24.050000	1	5.042375
24.066667	1	4.706500
24.083333	1	4.378125
24.100000	1	4.059125
24.116667	1	3.753125
24.133333	1	3.460750
24.150000	1	3.183750
24.166667	1	2.923750
24.183333	1	2.681250
24.200000	1	2.456000
24.216667	1	2.246750
24.233333	1	2.053750
24.250000	1	1.875875
24.266667	1	1.712375
24.283333	1	1.562250
24.300000	1	1.425750
24.316667	1	1.301000
24.333333	1	1.187875
24.350000	1	1.085500
24.366667	1	0.992500
24.383333	1	0.909750
24.400000	1	0.836375
24.416667	1	0.770375
24.433333	1	0.712500
24.450000	1	0.662500
24.466667	1	0.618000
24.483333	1	0.578500
24.500000	1	0.545000
24.516667	1	0.515625
24.533333	1	0.490000
24.550000	1	0.467500
24.566667	1	0.448125
24.583333	1	0.431750
24.600000	1	0.416500
24.616667	1	0.403250
24.633333	1	0.391000
24.650000	1	0.380500
24.666667	1	0.371250
24.683333	1	0.362125
24.700000	1	0.352875
24.716667	1	0.344750
24.733333	1	0.336875
24.750000	1	0.329125
24.766667	1	0.321375
24.783333	1	0.314500
24.800000	1	0.306875
24.816667	1	0.299875
24.833333	1	0.293750
24.850000	1	0.287875
24.866667	1	0.282250
24.883333	1	0.276625
24.900000	1	0.271250
24.916667	1	0.267000
24.933333	1	0.263000
24.950000	1	0.258875
24.966667	1	0.255375
24.983333	1	0.252250
25.000000	1	0.249875
25.016667	1	0.246125
25.033333	1	0.243500
25.050000	1	0.241875
25.066667	1	0.240000
25.083333	1	0.237875
25.100000	1	0.236250
25.116667	1	0.234375
25.133333	1	0.232500
25.150000	1	0.230125
25.166667	1	0.228125
25.183333	1	0.226250
25.200000	1	0.224625
25.216667	1	0.222375
25.233333	1	0.220500
25.250000	1	0.218125
25.266667	1	0.217000
25.283333	1	0.214500
25.300000	1	0.211875
25.316667	1	0.209375
25.333333	1	0.206625
25.350000	1	0.203875
25.366667	1	0.201625
25.383333	1	0.199750
25.400000	1	0.197750
25.416667	1	0.196625
25.433333	1	0.194750
25.450000	1	0.193375
25.466667	1	0.192375
25.483333	1	0.191625
25.500000	1	0.190125
25.516667	1	0.189500
25.533333	1	0.188750
25.550000	1	0.188000
25.566667	1	0.187500
25.583333	1	0.187500
25.600000	1	0.187250
25.616667	1	0.187000
25.633333	1	0.187000
25.650000	1	0.187125
25.666667	1	0.187625
25.683333	1	0.187750
25.700000	1	0.188000
25.716667	1	0.187750
25.733333	1	0.188250
25.750000	1	0.188250
25.766667	1	0.188750
25.783333	1	0.189000
25.800000	1	0.189500
25.816667	1	0.189875
25.833333	1	0.190750
25.850000	1	0.190625
25.866667	1	0.191500
25.883333	1	0.193125
25.900000	1	0.194625
25.916667	1	0.196375
25.933333	1	0.198125
25.950000	1	0.200750
25.966667	1	0.203750
25.983333	1	0.206500
26.000000	1	0.210250
26.016667	1	0.214500
26.033333	1	0.218625
26.050000	1	0.224125
26.066667	1	0.229250
26.083333	1	0.235125
26.100000	1	0.241250
26.116667	1	0.248375
26.133333	1	0.255750
26.150000	1	0.263125
26.166667	1	0.270000
26.183333	1	0.277375
26.200000	1	0.285000
26.216667	1	0.292625
26.233333	1	0.299250
26.250000	1	0.306250
26.266667	1	0.312500
26.283333	1	0.318875
26.300000	1	0.324500
26.316667	1	0.329250
26.333333	1	0.334250
26.350000	1	0.337625
26.366667	1	0.340500
26.383333	1	0.342875
26.400000	1	0.344875
26.416667	1	0.345250
26.433333	1	0.345000
26.450000	1	0.344625
26.466667	1	0.342875
26.483333	1	0.341000
26.500000	1	0.338000
26.516667	1	0.334000
26.533333	1	0.330250
26.550000	1	0.325625
26.566667	1	0.320375
26.583333	1	0.314750
26.600000	1	0.309500
26.616667	1	0.303250
26.633333	1	0.297000
26.650000	1	0.290875
26.666667	1	0.284625
26.683333	1	0.278875
26.700000	1	0.272500
26.716667	1	0.266750
26.733333	1	0.261125
26.750000	1	0.255000
26.766667	1	0.248375
26.783333	1	0.242500
26.800000	1	0.237250
26.816667	1	0.232375
26.833333	1	0.227000
26.850000	1	0.222375
26.866667	1	0.217875
26.883333	1	0.213500
26.900000	1	0.209375
26.916667	1	0.205750
26.933333	1	0.202125
26.950000	1	0.199125
26.966667	1	0.196250
26.983333	1	0.194000
27.000000	1	0.191750
27.016667	1	0.189500
27.033333	1	0.187875
27.050000	1	0.186875
27.066667	1	0.185875
27.083333	1	0.185875
27.100000	1	0.185125
27.116667	1	0.184875
27.133333	1	0.186500
27.150000	1	0.187375
27.166667	1	0.189625
27.183333	1	0.192625
27.200000	1	0.197125
27.216667	1	0.202125
27.233333	1	0.208750
27.250000	1	0.216625
27.266667	1	0.226250
27.283333	1	0.238375
27.300000	1	0.252750
27.316667	1	0.270250
27.333333	1	0.291375
27.350000	1	0.316375
27.366667	1	0.347000
27.383333	1	0.383250
27.400000	1	0.425500
27.416667	1	0.474500
27.433333	1	0.531875
27.450000	1	0.598625
27.466667	1	0.674750
27.483333	1	0.762125
27.500000	1	0.860375
27.516667	1	0.970000
27.533333	1	1.091375
27.550000	1	1.226125
27.566667	1	1.372125
27.583333	1	1.529500
27.600000	1	1.697500
27.616667	1	1.875250
27.633333	1	2.060875
27.650000	1	2.254000
27.666667	1	2.452625
27.683333	1	2.653500
27.700000	1	2.853375
27.716667	1	3.049625
27.733333	1	3.239625
27.750000	1	3.421125
27.766667	1	3.590375
27.783333	1	3.743750
27.800000	1	3.878625
27.816667	1	3.993250
27.833333	1	4.085875
27.850000	1	4.154250
27.866667	1	4.198000
27.883333	1	4.216000
27.900000	1	4.207250
27.916667	1	4.172250
27.933333	1	4.114000
27.950000	1	4.031875
27.966667	1	3.929750
27.983333	1	3.808250
28.000000	1	3.672375
28.016667	1	3.523000
28.033333	1	3.362625
28.050000	1	3.195375
28.066667	1	3.023000
28.083333	1	2.848250
28.100000	1	2.673000
28.116667	1	2.500250
28.133333	1	2.331000
28.150000	1	2.167500
28.166667	1	2.010375
28.183333	1	1.861250
28.200000	1	1.721000
28.216667	1	1.588125
28.233333	1	1.463500
28.250000	1	1.348000
28.266667	1	1.240375
28.283333	1	1.141250
28.300000	1	1.050500
28.316667	1	0.967125
28.333333	1	0.890500
28.350000	1	0.821625
28.366667	1	0.759250
28.383333	1	0.703500
28.400000	1	0.653000
28.416667	1	0.608500
28.433333	1	0.568625
28.450000	1	0.533750
28.466667	1	0.502500
28.483333	1	0.476000
28.500000	1	0.453500
28.516667	1	0.434125
28.533333	1	0.418500
28.550000	1	0.405875
28.566667	1	0.396500
28.583333	1	0.389250
28.600000	1	0.384750
28.616667	1	0.382375
28.633333	1	0.381875
28.650000	1	0.383500
28.666667	1	0.386625
28.683333	1	0.390625
28.700000	1	0.395375
28.716667	1	0.401250
28.733333	1	0.408125
28.750000	1	0.415125
28.766667	1	0.421750
28.783333	1	0.429500
28.800000	1	0.436875
28.816667	1	0.445375
28.833333	1	0.452625
28.850000	1	0.459000
28.866667	1	0.465375
28.883333	1	0.471125
28.900000	1	0.475500
28.916667	1	0.479250
28.933333	1	0.482000
28.950000	1	0.483500
28.966667	1	0.484000
28.983333	1	0.483250
29.000000	1	0.481375
29.016667	1	0.478500
29.033333	1	0.473750
29.050000	1	0.468000
29.066667	1	0.459875
29.083333	1	0.450625
29.100000	1	0.438625
29.116667	1	0.425625
29.133333	1	0.410625
29.150000	1	0.393875
29.166667	1	0.376250
29.183333	1	0.355250
29.200000	1	0.332875
29.216667	1	0.308250
29.233333	1	0.281125
29.250000	1	0.250875
29.266667	1	0.219375
29.283333	1	0.185500
29.300000	1	0.148750
29.316667	1	0.110500
29.333333	1	0.068875
29.350000	1	0.025375
29.366667	1	-0.019875
29.383333	1	-0.067375
29.400000	1	-0.117125
29.416667	1	-0.169125
29.433333	1	-0.222375
29.450000	1	-0.277500
29.466667	1	-0.333500
29.483333	1	-0.390000
29.500000	1	-0.446500
29.516667	1	-0.502500
29.533333	1	-0.557625
29.550000	1	-0.612125
29.566667	1	-0.664750
29.583333	1	-0.715250
29.600000	1	-0.762750
29.616667	1	-0.807375
29.633333	1	-0.848375
29.650000	1	-0.885750
29.666667	1	-0.919000
29.683333	1	-0.947750
29.700000	1	-0.971500
29.716667	1	-0.990875
29.733333	1	-1.005000
29.750000	1	-1.014250
29.766667	1	-1.018250
29.783333	1	-1.017250
29.800000	1	-1.011375
29.816667	1	-1.000375
29.833333	1	-0.985625
29.850000	1	-0.967250
29.866667	1	-0.944750
29.883333	1	-0.919000
29.900000	1	-0.890500
29.916667	1	-0.859375
29.933333	1	-0.825750
29.950000	1	-0.790500
29.966667	1	-0.753750
29.983333	1	-0.716625
30.000000	1	-0.677500
30.016667	1	-0.638750
30.033333	1	-0.599625
30.050000	1	-0.561000
30.066667	1	-0.523125
30.083333	1	-0.485625
30.100000	1	-0.449750
30.116667	1	-0.414500
30.133333	1	-0.380625
30.150000	1	-0.348125
30.166667	1	-0.317375
30.183333	1	-0.287625
30.200000	1	-0.260250
30.216667	1	-0.234125
30.233333	1	-0.209000
30.250000	1	-0.185500
30.266667	1	-0.163875
30.283333	1	-0.143250
30.300000	1	-0.124750
30.316667	1	-0.108000
30.333333	1	-0.093000
30.350000	1	-0.078000
30.366667	1	-0.064125
30.383333	1	-0.051000
30.400000	1	-0.039250
30.416667	1	-0.028250
30.433333	1	-0.018125
30.450000	1	-0.009125
30.466667	1	-0.000250
30.483333	1	0.007750
30.500000	1	0.016250
30.516667	1	0.023625
30.533333	1	0.030125
30.550000	1	0.036250
30.566667	1	0.043250
30.583333	1	0.049250
30.600000	1	0.056375
30.616667	1	0.062875
30.633333	1	0.069500
30.650000	1	0.075250
30.666667	1	0.082125
30.683333	1	0.088750
30.700000	1	0.095000
30.716667	1	0.102000
30.733333	1	0.109375
30.750000	1	0.116625
30.766667	1	0.124125
30.783333	1	0.132375
30.800000	1	0.140500
30.816667	1	0.148750
30.833333	1	0.157875
30.850000	1	0.167875
30.866667	1	0.178250
30.883333	1	0.189125
30.900000	1	0.200875
30.916667	1	0.213375
30.933333	1	0.227750
30.950000	1	0.243000
30.966667	1	0.260875
30.983333	1	0.281875
31.000000	1	0.305250
31.016667	1	0.332625
31.033333	1	0.364250
31.050000	1	0.400250
31.066667	1	0.441875
31.083333	1	0.490000
31.100000	1	0.546500
31.116667	1	0.611125
31.133333	1	0.685000
31.150000	1	0.769375
31.166667	1	0.865125
31.183333	1	0.972375
31.200000	1	1.094500
31.216667	1	1.230000
31.233333	1	1.380500
31.250000	1	1.545625
31.266667	1	1.726000
31.283333	1	1.920500
31.300000	1	2.128625
31.316667	1	2.350500
31.333333	1	2.583750
31.350000	1	2.827500
31.366667	1	3.080750
31.383333	1	3.341000
31.400000	1	3.605750
31.416667	1	3.871875
31.433333	1	4.136625
31.450000	1	4.395875
31.466667	1	4.646750
31.483333	1	4.886375
31.500000	1	5.111500
31.516667	1	5.318125
31.533333	1	5.504000
31.550000	1	5.668125
31.566667	1	5.807625
31.583333	1	5.920750
31.600000	1	6.005375
31.616667	1	6.062250
31.633333	1	6.090250
31.650000	1	6.089750
31.666667	1	6.061375
31.683333	1	6.006250
31.700000	1	5.925000
31.716667	1	5.820500
31.733333	1	5.694625
31.750000	1	5.550125
31.766667	1	5.387375
31.783333	1	5.209750
31.800000	1	5.020500
31.816667	1	4.820375
31.833333	1	4.613250
31.850000	1	4.400625
31.866667	1	4.185375
31.883333	1	3.968750
31.900000	1	3.753500
31.916667	1	3.541125
31.933333	1	3.332625
31.950000	1	3.129250
31.966667	1	2.931500
31.983333	1	2.739125
32.000000	1	2.555250
32.016667	1	2.378375
32.033333	1	2.209375
32.050000	1	2.048625
32.066667	1	1.896750
32.083333	1	1.752125
32.100000	1	1.616250
32.116667	1	1.489000
32.133333	1	1.369250
32.150000	1	1.257375
32.166667	1	1.151750
32.183333	1	1.053250
32.200000	1	0.961000
32.216667	1	0.875875
32.233333	1	0.796000
32.250000	1	0.722000
32.266667	1	0.653375
32.283333	1	0.589625
32.300000	1	0.530750
32.316667	1	0.476625
32.333333	1	0.426375
32.350000	1	0.380500
32.366667	1	0.337875
32.383333	1	0.299000
32.400000	1	0.263625
32.416667	1	0.231000
32.433333	1	0.201625
32.450000	1	0.174500
32.466667	1	0.149875
32.483333	1	0.127500
32.500000	1	0.106875
32.516667	1	0.088750
32.533333	1	0.071625
32.550000	1	0.056625
32.566667	1	0.042750
32.583333	1	0.029875
32.600000	1	0.019250
32.616667	1	0.008875
32.633333	1	0.000000
32.650000	1	-0.007500
32.666667	1	-0.014375
32.683333	1	-0.020375
32.700000	1	-0.026125
32.716667	1	-0.030875
32.733333	1	-0.034500
32.750000	1	-0.038125
32.766667	1	-0.041125
32.783333	1	-0.043625
32.800000	1	-0.045375
32.816667	1	-0.047000
32.833333	1	-0.048000
32.850000	1	-0.049500
32.866667	1	-0.050250
32.883333	1	-0.050625
32.900000	1	-0.050625
32.916667	1	-0.050375
32.933333	1	-0.050625
32.950000	1	-0.050875
32.966667	1	-0.050375
32.983333	1	-0.049750
33.000000	1	-0.049000
33.016667	1	-0.047750
33.033333	1	-0.047625
33.050000	1	-0.047125
33.066667	1	-0.046750
33.083333	1	-0.046500
33.100000	1	-0.046125
33.116667	1	-0.045250
33.133333	1	-0.045125
33.150000	1	-0.044625
33.166667	1	-0.043625
33.183333	1	-0.042625
33.200000	1	-0.041750
33.216667	1	-0.041000
33.233333	1	-0.040250
33.250000	1	-0.039000
33.266667	1	-0.038375
33.283333	1	-0.038000
33.300000	1	-0.036625
33.316667	1	-0.036125
33.333333	1	-0.035625
33.350000	1	-0.035000
33.366667	1	-0.034250
33.383333	1	-0.033375
33.400000	1	-0.032000
33.416667	1	-0.031375
33.433333	1	-0.030250
33.450000	1	-0.030000
33.466667	1	-0.029625
33.483333	1	-0.028125
33.500000	1	-0.027125
33.516667	1	-0.026500
33.533333	1	-0.025375
33.550000	1	-0.023500
33.566667	1	-0.022125
33.583333	1	-0.021125
33.600000	1	-0.019375
33.616667	1	-0.016875
33.633333	1	-0.014750
33.650000	1	-0.012875
33.666667	1	-0.010750
33.683333	1	-0.008375
33.700000	1	-0.005750
33.716667	1	-0.002500
33.733333	1	0.000625
33.750000	1	0.004000
33.766667	1	0.007625
33.783333	1	0.011500
33.800000	1	0.015625
33.816667	1	0.018750
33.833333	1	0.022000
33.850000	1	0.025375
33.866667	1	0.029750
33.883333	1	0.033250
33.900000	1	0.036625
33.916667	1	0.039750
33.933333	1	0.043125
33.950000	1	0.046125
33.966667	1	0.048250
33.983333	1	0.050375
34.000000	1	0.051375
34.016667	1	0.052500
34.033333	1	0.053750
34.050000	1	0.054500
34.066667	1	0.055250
34.083333	1	0.055500
34.100000	1	0.055250
34.116667	1	0.054500
34.133333	1	0.054625
34.150000	1	0.054125
34.166667	1	0.052750
34.183333	1	0.051625
34.200000	1	0.050500
34.216667	1	0.048750
34.233333	1	0.046750
34.250000	1	0.045625
34.266667	1	0.044250
34.283333	1	0.041625
34.300000	1	0.040000
34.316667	1	0.038000
34.333333	1	0.036375
34.350000	1	0.035625
34.366667	1	0.034875
34.383333	1	0.033625
34.400000	1	0.032875
34.416667	1	0.032500
34.433333	1	0.032250
34.450000	1	0.031500
34.466667	1	0.031000
34.483333	1	0.031750
34.500000	1	0.032125
34.516667	1	0.032375
34.533333	1	0.033000
34.550000	1	0.033625
34.566667	1	0.034500
34.583333	1	0.035875
34.600000	1	0.036875
34.616667	1	0.037875
34.633333	1	0.038750
34.650000	1	0.040250
34.666667	1	0.040875
34.683333	1	0.041125
34.700000	1	0.042125
34.716667	1	0.043500
34.733333	1	0.044750
34.750000	1	0.045125
34.766667	1	0.046625
34.783333	1	0.047500
34.800000	1	0.047625
34.816667	1	0.047375
34.833333	1	0.047000
34.850000	1	0.046500
34.866667	1	0.045750
34.883333	1	0.045000
34.900000	1	0.044500
34.916667	1	0.043375
34.933333	1	0.042250
34.950000	1	0.041000
34.966667	1	0.039750
34.983333	1	0.038625
35.000000	1	0.036625
35.016667	1	0.035000
35.033333	1	0.032875
35.050000	1	0.031125
35.066667	1	0.029000
35.083333	1	0.027000
35.100000	1	0.025250
35.116667	1	0.024000
35.133333	1	0.021875
35.150000	1	0.020250
35.166667	1	0.018625
35.183333	1	0.017750
35.200000	1	0.016125
35.216667	1	0.015125
35.233333	1	0.014375
35.250000	1	0.013500
35.266667	1	0.013000
35.283333	1	0.012625
35.300000	1	0.012375
35.316667	1	0.012125
35.333333	1	0.011875
35.350000	1	0.011625
35.366667	1	0.012250
35.383333	1	0.013000
35.400000	1	0.013625
35.416667	1	0.014750
35.433333	1	0.015875
35.450000	1	0.017250
35.466667	1	0.018750
35.483333	1	0.019875
35.500000	1	0.022125
35.516667	1	0.023625
35.533333	1	0.025750
35.550000	1	0.027625
35.566667	1	0.029875
35.583333	1	0.031875
35.600000	1	0.033625
35.616667	1	0.035000
35.633333	1	0.037375
35.650000	1	0.039000
35.666667	1	0.040000
35.683333	1	0.041750
35.700000	1	0.043500
35.716667	1	0.045125
35.733333	1	0.046250
35.750000	1	0.047000
35.766667	1	0.047625
35.783333	1	0.048000
35.800000	1	0.048000
35.816667	1	0.047000
35.833333	1	0.046625
35.850000	1	0.046250
35.866667	1	0.045750
35.883333	1	0.045125
35.900000	1	0.044125
35.916667	1	0.042875
35.933333	1	0.041375
35.950000	1	0.039625
35.966667	1	0.038375
35.983333	1	0.036875
36.000000	1	0.035125
36.016667	1	0.033000
36.033333	1	0.031375
36.050000	1	0.029875
36.066667	1	0.028375
36.083333	1	0.027000
36.100000	1	0.026000
36.116667	1	0.025750
36.133333	1	0.024500
36.150000	1	0.022875
36.166667	1	0.022750
36.183333	1	0.022625
36.200000	1	0.022750
36.216667	1	0.023125
36.233333	1	0.023875
36.250000	1	0.024750
36.266667	1	0.025625
36.283333	1	0.026125
36.300000	1	0.027875
36.316667	1	0.029750
36.333333	1	0.032125
36.350000	1	0.034250
36.366667	1	0.035750
36.383333	1	0.037500
36.400000	1	0.039750
36.416667	1	0.042125
36.433333	1	0.043750
36.450000	1	0.045375
36.466667	1	0.046625
36.483333	1	0.048875
36.500000	1	0.050250
36.516667	1	0.051500
36.533333	1	0.052500
36.550000	1	0.054000
36.566667	1	0.054250
36.583333	1	0.055125
36.600000	1	0.055000
36.616667	1	0.054750
36.633333	1	0.054250
36.650000	1	0.053625
36.666667	1	0.052750
36.683333	1	0.051000
36.700000	1	0.049750
36.716667	1	0.048250
36.733333	1	0.046500
36.750000	1	0.045250
36.766667	1	0.043750
36.783333	1	0.042250
36.800000	1	0.040625
36.816667	1	0.038875
36.833333	1	0.037500
36.850000	1	0.036125
36.866667	1	0.034500
36.883333	1	0.033000
36.900000	1	0.032250
36.916667	1	0.031125
36.933333	1	0.030250
36.950000	1	0.029500
36.966667	1	0.029500
36.983333	1	0.028750
37.000000	1	0.028250
37.016667	1	0.028000
37.033333	1	0.028250
37.050000	1	0.027750
37.066667	1	0.027625
37.083333	1	0.028250
37.100000	1	0.029250
37.116667	1	0.030500
37.133333	1	0.031375
37.150000	1	0.032500
37.166667	1	0.033375
37.183333	1	0.034500
37.200000	1	0.035750
37.216667	1	0.037250
37.233333	1	0.038375
37.250000	1	0.040000
37.266667	1	0.042625
37.283333	1	0.044625
37.300000	1	0.046375
37.316667	1	0.048875
37.333333	1	0.051250
37.350000	1	0.054500
37.366667	1	0.056500
37.383333	1	0.059625
37.400000	1	0.062375
37.416667	1	0.065750
37.433333	1	0.068625
37.450000	1	0.071250
37.466667	1	0.074875
37.483333	1	0.078625
37.500000	1	0.082625
37.516667	1	0.086625
37.533333	1	0.090875
37.550000	1	0.095250
37.566667	1	0.099250
37.583333	1	0.103875
37.600000	1	0.108000
37.616667	1	0.112625
37.633333	1	0.117625
37.650000	1	0.122500
37.666667	1	0.127875
37.683333	1	0.133250
37.700000	1	0.138625
37.716667	1	0.144000
37.733333	1	0.149875
37.750000	1	0.155500
37.766667	1	0.161000
37.783333	1	0.167250
37.800000	1	0.173875
37.816667	1	0.180625
37.833333	1	0.187000
37.850000	1	0.193125
37.866667	1	0.200125
37.883333	1	0.206875
37.900000	1	0.213500
37.916667	1	0.220500
37.933333	1	0.227625
37.950000	1	0.234500
37.966667	1	0.241500
37.983333	1	0.249375
38.000000	1	0.256000
38.016667	1	0.263125
38.033333	1	0.270250
38.050000	1	0.277875
38.066667	1	0.285375
38.083333	1	0.292750
38.100000	1	0.300125
38.116667	1	0.307375
38.133333	1	0.314750
38.150000	1	0.321750
38.166667	1	0.328750
38.183333	1	0.335375
38.200000	1	0.341625
38.216667	1	0.348250
38.233333	1	0.354125
38.250000	1	0.360125
38.266667	1	0.366000
38.283333	1	0.371625
38.300000	1	0.376500
38.316667	1	0.381750
38.333333	1	0.386750
38.350000	1	0.391250
38.366667	1	0.394500
38.383333	1	0.398750
38.400000	1	0.402250
38.416667	1	0.405750
38.433333	1	0.408875
38.450000	1	0.411625
38.466667	1	0.414750
38.483333	1	0.416500
38.500000	1	0.418375
38.516667	1	0.419625
38.533333	1	0.420125
38.550000	1	0.421625
38.566667	1	0.421750
38.583333	1	0.422000
38.600000	1	0.421500
38.616667	1	0.421375
38.633333	1	0.420750
38.650000	1	0.420625
38.666667	1	0.419250
38.683333	1	0.417875
38.700000	1	0.416000
38.716667	1	0.414500
38.733333	1	0.411875
38.750000	1	0.409750
38.766667	1	0.407375
38.783333	1	0.404750
38.800000	1	0.401625
38.816667	1	0.399000
38.833333	1	0.395625
38.850000	1	0.392000
38.866667	1	0.388125
38.883333	1	0.384750
38.900000	1	0.381500
38.916667	1	0.377000
38.933333	1	0.372625
38.950000	1	0.368125
38.966667	1	0.363750
38.983333	1	0.359250
39.000000	1	0.354875
39.016667	1	0.350000
39.033333	1	0.344750
39.050000	1	0.340250
39.066667	1	0.335750
39.083333	1	0.331375
39.100000	1	0.325750
39.116667	1	0.320125
39.133333	1	0.314750
39.150000	1	0.310125
39.166667	1	0.304625
39.183333	1	0.299500
39.200000	1	0.295000
39.216667	1	0.289875
39.233333	1	0.284875
39.250000	1	0.279375
39.266667	1	0.274125
39.283333	1	0.268875
39.300000	1	0.263625
39.316667	1	0.258000
39.333333	1	0.252500
39.350000	1	0.247000
39.366667	1	0.241625
39.383333	1	0.236375
39.400000	1	0.230125
39.416667	1	0.224125
39.433333	1	0.218375
39.450000	1	0.212625
39.466667	1	0.206375
39.483333	1	0.199875
39.500000	1	0.194000
39.516667	1	0.188875
39.533333	1	0.182375
39.550000	1	0.175375
39.566667	1	0.168875
39.583333	1	0.162625
39.600000	1	0.155875
39.616667	1	0.149000
39.633333	1	0.142125
39.650000	1	0.136125
39.666667	1	0.129500
39.683333	1	0.122500
39.700000	1	0.116625
39.716667	1	0.110500
39.733333	1	0.104875
39.750000	1	0.099000
39.766667	1	0.092750
39.783333	1	0.087375
39.800000	1	0.081625
39.816667	1	0.076500
39.833333	1	0.071250
39.850000	1	0.066250
39.866667	1	0.062000
39.883333	1	0.057375
39.900000	1	0.052750
39.916667	1	0.048250
39.933333	1	0.044000
39.950000	1	0.039375
39.966667	1	0.035375
39.983333	1	0.032000
40.000000	1	0.028625
