URL	chrom://7040-86g6c92/XVault/Ultimate_3000/20/20240517_CMO_FP23_FP25_MarkusDeplate.seq/123.smp/RI_1.channel/RI_1.chm
Channel	RI_1

Injection Information:
Data Vault	XVault
Sequence	20240517_CMO_FP23_FP25_MarkusDeplate
Name	FP26_22.2_s4
Number	116
Position	BD4
Comment	
Processing Method	
Instrument Method	run_25B_method
Type	Unknown
Status	Finished
Inject Time	31.05.2024 01:52:43 +02:00
Volume (µl)	20.0000
Dilution Factor	1.0000
Weight	1.0000

Chromatogram Data Information:
Time Min. (min)	0.000000
Time Max. (min)	40.000000
Data Points	2401
Detector	RI
Generating Data System	Chromeleon 7.3.2.11814
Exporting Data System	Chromeleon 7.3.2.0
Operator	Instrument Controller
Signal Quantity	Refractive 
Signal Unit	µRIU
Signal Min.	-0.771125
Signal Max.	57.093625
Channel	RI_1
Driver Name	RID520Driver.dll
Channel Type	Evaluation
Min. Step (s)	1
Max. Step (s)	1
Average Step (s)	1

Signal Parameter Information:
Signal Info	

Chromatogram Data:
Time (min)	Step (s)	Value (µRIU)
0.000000	n.a.	-0.008500
0.016667	1	-0.009625
0.033333	1	-0.010125
0.050000	1	-0.009875
0.066667	1	-0.010500
0.083333	1	-0.010625
0.100000	1	-0.010875
0.116667	1	-0.010750
0.133333	1	-0.010875
0.150000	1	-0.010875
0.166667	1	-0.011500
0.183333	1	-0.011125
0.200000	1	-0.011625
0.216667	1	-0.011250
0.233333	1	-0.011000
0.250000	1	-0.010250
0.266667	1	-0.008750
0.283333	1	-0.008875
0.300000	1	-0.008250
0.316667	1	-0.008000
0.333333	1	-0.007250
0.350000	1	-0.007375
0.366667	1	-0.008000
0.383333	1	-0.009250
0.400000	1	-0.009625
0.416667	1	-0.008875
0.433333	1	-0.007375
0.450000	1	-0.005500
0.466667	1	-0.003125
0.483333	1	-0.001625
0.500000	1	0.000000
0.516667	1	0.001375
0.533333	1	0.001625
0.550000	1	0.002000
0.566667	1	0.000875
0.583333	1	0.000000
0.600000	1	-0.002125
0.616667	1	-0.003875
0.633333	1	-0.005125
0.650000	1	-0.005625
0.666667	1	-0.006125
0.683333	1	-0.005125
0.700000	1	-0.005125
0.716667	1	-0.004750
0.733333	1	-0.003875
0.750000	1	-0.003250
0.766667	1	-0.002750
0.783333	1	-0.002125
0.800000	1	-0.001875
0.816667	1	-0.000375
0.833333	1	0.000125
0.850000	1	0.001250
0.866667	1	0.001875
0.883333	1	0.003125
0.900000	1	0.004125
0.916667	1	0.005625
0.933333	1	0.006000
0.950000	1	0.007625
0.966667	1	0.008375
0.983333	1	0.010000
1.000000	1	0.011625
1.016667	1	0.012625
1.033333	1	0.013625
1.050000	1	0.014375
1.066667	1	0.015375
1.083333	1	0.016000
1.100000	1	0.016875
1.116667	1	0.017375
1.133333	1	0.017250
1.150000	1	0.017250
1.166667	1	0.017125
1.183333	1	0.017500
1.200000	1	0.016875
1.216667	1	0.016375
1.233333	1	0.016750
1.250000	1	0.016500
1.266667	1	0.016375
1.283333	1	0.015375
1.300000	1	0.014750
1.316667	1	0.014000
1.333333	1	0.013375
1.350000	1	0.012375
1.366667	1	0.011500
1.383333	1	0.010375
1.400000	1	0.009000
1.416667	1	0.007250
1.433333	1	0.005500
1.450000	1	0.004375
1.466667	1	0.003250
1.483333	1	0.002500
1.500000	1	0.000875
1.516667	1	0.000250
1.533333	1	-0.000625
1.550000	1	-0.001375
1.566667	1	-0.002250
1.583333	1	-0.002875
1.600000	1	-0.003625
1.616667	1	-0.003375
1.633333	1	-0.004125
1.650000	1	-0.004000
1.666667	1	-0.004000
1.683333	1	-0.003750
1.700000	1	-0.004250
1.716667	1	-0.004000
1.733333	1	-0.003875
1.750000	1	-0.004000
1.766667	1	-0.004125
1.783333	1	-0.003875
1.800000	1	-0.003125
1.816667	1	-0.002375
1.833333	1	-0.001375
1.850000	1	-0.001000
1.866667	1	-0.000375
1.883333	1	-0.000375
1.900000	1	0.000500
1.916667	1	0.000625
1.933333	1	0.000875
1.950000	1	0.001250
1.966667	1	0.001500
1.983333	1	0.002125
2.000000	1	0.002250
2.016667	1	0.002375
2.033333	1	0.002750
2.050000	1	0.003625
2.066667	1	0.004250
2.083333	1	0.004500
2.100000	1	0.004250
2.116667	1	0.004125
2.133333	1	0.003375
2.150000	1	0.003000
2.166667	1	0.002625
2.183333	1	0.001875
2.200000	1	0.001250
2.216667	1	0.000375
2.233333	1	-0.000250
2.250000	1	-0.000625
2.266667	1	-0.001375
2.283333	1	-0.001750
2.300000	1	-0.003125
2.316667	1	-0.004000
2.333333	1	-0.005125
2.350000	1	-0.006250
2.366667	1	-0.007000
2.383333	1	-0.007250
2.400000	1	-0.007500
2.416667	1	-0.009125
2.433333	1	-0.010125
2.450000	1	-0.010500
2.466667	1	-0.010625
2.483333	1	-0.011000
2.500000	1	-0.011000
2.516667	1	-0.011500
2.533333	1	-0.011875
2.550000	1	-0.011500
2.566667	1	-0.011250
2.583333	1	-0.010875
2.600000	1	-0.010375
2.616667	1	-0.009625
2.633333	1	-0.008750
2.650000	1	-0.007375
2.666667	1	-0.006250
2.683333	1	-0.005250
2.700000	1	-0.004500
2.716667	1	-0.003125
2.733333	1	-0.001375
2.750000	1	-0.000125
2.766667	1	0.001250
2.783333	1	0.002625
2.800000	1	0.004250
2.816667	1	0.005375
2.833333	1	0.007250
2.850000	1	0.009250
2.866667	1	0.010250
2.883333	1	0.011500
2.900000	1	0.012500
2.916667	1	0.013750
2.933333	1	0.015125
2.950000	1	0.015500
2.966667	1	0.016125
2.983333	1	0.016250
3.000000	1	0.016875
3.016667	1	0.017000
3.033333	1	0.017375
3.050000	1	0.017625
3.066667	1	0.017750
3.083333	1	0.017500
3.100000	1	0.016875
3.116667	1	0.017000
3.133333	1	0.016250
3.150000	1	0.015500
3.166667	1	0.015000
3.183333	1	0.014500
3.200000	1	0.013000
3.216667	1	0.012250
3.233333	1	0.012125
3.250000	1	0.012125
3.266667	1	0.012000
3.283333	1	0.012000
3.300000	1	0.011875
3.316667	1	0.012000
3.333333	1	0.012125
3.350000	1	0.012625
3.366667	1	0.013375
3.383333	1	0.015000
3.400000	1	0.015750
3.416667	1	0.016625
3.433333	1	0.018000
3.450000	1	0.020250
3.466667	1	0.022750
3.483333	1	0.024375
3.500000	1	0.026500
3.516667	1	0.028875
3.533333	1	0.031125
3.550000	1	0.034000
3.566667	1	0.036250
3.583333	1	0.038875
3.600000	1	0.041750
3.616667	1	0.044000
3.633333	1	0.045875
3.650000	1	0.048750
3.666667	1	0.050000
3.683333	1	0.052250
3.700000	1	0.054125
3.716667	1	0.055625
3.733333	1	0.056625
3.750000	1	0.058125
3.766667	1	0.059000
3.783333	1	0.060500
3.800000	1	0.060625
3.816667	1	0.061875
3.833333	1	0.062125
3.850000	1	0.062375
3.866667	1	0.062125
3.883333	1	0.062000
3.900000	1	0.061875
3.916667	1	0.061750
3.933333	1	0.061250
3.950000	1	0.061000
3.966667	1	0.060375
3.983333	1	0.060125
4.000000	1	0.059875
4.016667	1	0.059625
4.033333	1	0.059125
4.050000	1	0.059250
4.066667	1	0.058250
4.083333	1	0.057750
4.100000	1	0.057250
4.116667	1	0.057375
4.133333	1	0.057750
4.150000	1	0.057125
4.166667	1	0.057000
4.183333	1	0.057750
4.200000	1	0.057500
4.216667	1	0.058125
4.233333	1	0.058750
4.250000	1	0.059375
4.266667	1	0.060375
4.283333	1	0.061125
4.300000	1	0.062250
4.316667	1	0.062375
4.333333	1	0.063125
4.350000	1	0.064500
4.366667	1	0.065250
4.383333	1	0.066875
4.400000	1	0.067750
4.416667	1	0.069875
4.433333	1	0.071125
4.450000	1	0.072250
4.466667	1	0.073250
4.483333	1	0.074625
4.500000	1	0.076125
4.516667	1	0.077375
4.533333	1	0.078625
4.550000	1	0.080125
4.566667	1	0.080750
4.583333	1	0.082125
4.600000	1	0.083750
4.616667	1	0.084750
4.633333	1	0.085375
4.650000	1	0.085875
4.666667	1	0.087250
4.683333	1	0.087875
4.700000	1	0.088875
4.716667	1	0.089500
4.733333	1	0.090250
4.750000	1	0.091000
4.766667	1	0.092000
4.783333	1	0.093000
4.800000	1	0.094500
4.816667	1	0.095875
4.833333	1	0.096500
4.850000	1	0.097625
4.866667	1	0.098875
4.883333	1	0.100375
4.900000	1	0.102000
4.916667	1	0.103000
4.933333	1	0.104625
4.950000	1	0.106375
4.966667	1	0.108375
4.983333	1	0.110875
5.000000	1	0.113875
5.016667	1	0.116250
5.033333	1	0.118500
5.050000	1	0.121750
5.066667	1	0.124500
5.083333	1	0.128250
5.100000	1	0.131250
5.116667	1	0.134750
5.133333	1	0.138125
5.150000	1	0.142625
5.166667	1	0.146250
5.183333	1	0.150750
5.200000	1	0.154875
5.216667	1	0.159500
5.233333	1	0.163875
5.250000	1	0.168375
5.266667	1	0.172625
5.283333	1	0.176875
5.300000	1	0.181000
5.316667	1	0.185750
5.333333	1	0.190125
5.350000	1	0.194000
5.366667	1	0.198750
5.383333	1	0.203625
5.400000	1	0.208250
5.416667	1	0.213375
5.433333	1	0.218125
5.450000	1	0.223000
5.466667	1	0.227625
5.483333	1	0.232125
5.500000	1	0.236625
5.516667	1	0.240750
5.533333	1	0.244875
5.550000	1	0.249125
5.566667	1	0.254125
5.583333	1	0.258625
5.600000	1	0.263125
5.616667	1	0.267125
5.633333	1	0.271250
5.650000	1	0.275250
5.666667	1	0.279000
5.683333	1	0.282500
5.700000	1	0.284750
5.716667	1	0.287375
5.733333	1	0.289625
5.750000	1	0.291375
5.766667	1	0.293500
5.783333	1	0.295000
5.800000	1	0.296250
5.816667	1	0.296750
5.833333	1	0.296500
5.850000	1	0.296375
5.866667	1	0.296125
5.883333	1	0.295125
5.900000	1	0.293625
5.916667	1	0.292125
5.933333	1	0.289875
5.950000	1	0.287250
5.966667	1	0.285000
5.983333	1	0.282000
6.000000	1	0.278750
6.016667	1	0.274875
6.033333	1	0.271250
6.050000	1	0.266875
6.066667	1	0.262750
6.083333	1	0.258125
6.100000	1	0.253750
6.116667	1	0.249250
6.133333	1	0.244000
6.150000	1	0.238625
6.166667	1	0.233625
6.183333	1	0.228250
6.200000	1	0.223250
6.216667	1	0.218000
6.233333	1	0.213375
6.250000	1	0.208375
6.266667	1	0.203125
6.283333	1	0.197500
6.300000	1	0.192500
6.316667	1	0.187500
6.333333	1	0.181875
6.350000	1	0.177625
6.366667	1	0.173125
6.383333	1	0.169125
6.400000	1	0.164125
6.416667	1	0.159750
6.433333	1	0.156125
6.450000	1	0.152250
6.466667	1	0.148375
6.483333	1	0.145000
6.500000	1	0.141750
6.516667	1	0.138125
6.533333	1	0.135625
6.550000	1	0.133375
6.566667	1	0.130500
6.583333	1	0.128375
6.600000	1	0.125875
6.616667	1	0.123750
6.633333	1	0.121000
6.650000	1	0.119250
6.666667	1	0.117125
6.683333	1	0.115125
6.700000	1	0.113375
6.716667	1	0.112000
6.733333	1	0.110500
6.750000	1	0.108750
6.766667	1	0.107125
6.783333	1	0.105750
6.800000	1	0.104125
6.816667	1	0.102750
6.833333	1	0.101250
6.850000	1	0.099125
6.866667	1	0.098125
6.883333	1	0.096625
6.900000	1	0.095125
6.916667	1	0.093500
6.933333	1	0.092375
6.950000	1	0.091000
6.966667	1	0.090125
6.983333	1	0.088750
7.000000	1	0.088000
7.016667	1	0.087250
7.033333	1	0.087000
7.050000	1	0.086750
7.066667	1	0.086625
7.083333	1	0.086750
7.100000	1	0.087125
7.116667	1	0.087875
7.133333	1	0.088875
7.150000	1	0.089750
7.166667	1	0.091250
7.183333	1	0.093250
7.200000	1	0.095000
7.216667	1	0.097000
7.233333	1	0.099125
7.250000	1	0.101875
7.266667	1	0.105250
7.283333	1	0.109000
7.300000	1	0.111875
7.316667	1	0.115875
7.333333	1	0.119875
7.350000	1	0.123750
7.366667	1	0.128375
7.383333	1	0.133250
7.400000	1	0.138000
7.416667	1	0.142750
7.433333	1	0.147500
7.450000	1	0.151500
7.466667	1	0.155875
7.483333	1	0.160125
7.500000	1	0.164125
7.516667	1	0.168625
7.533333	1	0.172625
7.550000	1	0.176000
7.566667	1	0.179375
7.583333	1	0.182625
7.600000	1	0.186000
7.616667	1	0.188250
7.633333	1	0.190000
7.650000	1	0.191500
7.666667	1	0.192250
7.683333	1	0.192750
7.700000	1	0.193250
7.716667	1	0.193125
7.733333	1	0.192875
7.750000	1	0.192125
7.766667	1	0.191125
7.783333	1	0.189625
7.800000	1	0.187750
7.816667	1	0.185625
7.833333	1	0.183250
7.850000	1	0.180375
7.866667	1	0.176875
7.883333	1	0.173500
7.900000	1	0.169750
7.916667	1	0.165500
7.933333	1	0.161375
7.950000	1	0.156625
7.966667	1	0.152125
7.983333	1	0.147500
8.000000	1	0.142375
8.016667	1	0.137125
8.033333	1	0.131875
8.050000	1	0.127250
8.066667	1	0.122000
8.083333	1	0.116875
8.100000	1	0.111875
8.116667	1	0.106875
8.133333	1	0.102375
8.150000	1	0.098000
8.166667	1	0.092750
8.183333	1	0.087750
8.200000	1	0.082875
8.216667	1	0.078250
8.233333	1	0.074375
8.250000	1	0.070250
8.266667	1	0.066500
8.283333	1	0.063000
8.300000	1	0.059500
8.316667	1	0.056375
8.333333	1	0.053500
8.350000	1	0.050875
8.366667	1	0.048500
8.383333	1	0.046375
8.400000	1	0.044500
8.416667	1	0.041625
8.433333	1	0.040000
8.450000	1	0.037875
8.466667	1	0.036500
8.483333	1	0.035250
8.500000	1	0.033250
8.516667	1	0.031750
8.533333	1	0.031125
8.550000	1	0.030000
8.566667	1	0.029125
8.583333	1	0.028750
8.600000	1	0.028625
8.616667	1	0.028500
8.633333	1	0.027625
8.650000	1	0.027500
8.666667	1	0.027375
8.683333	1	0.028000
8.700000	1	0.028125
8.716667	1	0.028750
8.733333	1	0.029250
8.750000	1	0.029125
8.766667	1	0.029250
8.783333	1	0.030375
8.800000	1	0.031625
8.816667	1	0.032625
8.833333	1	0.033125
8.850000	1	0.034750
8.866667	1	0.035625
8.883333	1	0.036750
8.900000	1	0.037750
8.916667	1	0.039375
8.933333	1	0.040375
8.950000	1	0.041500
8.966667	1	0.043750
8.983333	1	0.045125
9.000000	1	0.046750
9.016667	1	0.047625
9.033333	1	0.049500
9.050000	1	0.050625
9.066667	1	0.051625
9.083333	1	0.052750
9.100000	1	0.054375
9.116667	1	0.054625
9.133333	1	0.056000
9.150000	1	0.057375
9.166667	1	0.059125
9.183333	1	0.060375
9.200000	1	0.061375
9.216667	1	0.062625
9.233333	1	0.063750
9.250000	1	0.064750
9.266667	1	0.065750
9.283333	1	0.067125
9.300000	1	0.067375
9.316667	1	0.068375
9.333333	1	0.069250
9.350000	1	0.070625
9.366667	1	0.071125
9.383333	1	0.071875
9.400000	1	0.072125
9.416667	1	0.072500
9.433333	1	0.072750
9.450000	1	0.073750
9.466667	1	0.073625
9.483333	1	0.073875
9.500000	1	0.074125
9.516667	1	0.075125
9.533333	1	0.075125
9.550000	1	0.075125
9.566667	1	0.075250
9.583333	1	0.075500
9.600000	1	0.075750
9.616667	1	0.075875
9.633333	1	0.075750
9.650000	1	0.075500
9.666667	1	0.075750
9.683333	1	0.076250
9.700000	1	0.076000
9.716667	1	0.075750
9.733333	1	0.076000
9.750000	1	0.075500
9.766667	1	0.075125
9.783333	1	0.074750
9.800000	1	0.074125
9.816667	1	0.073125
9.833333	1	0.073375
9.850000	1	0.072875
9.866667	1	0.072000
9.883333	1	0.071875
9.900000	1	0.071500
9.916667	1	0.070875
9.933333	1	0.069875
9.950000	1	0.069500
9.966667	1	0.068500
9.983333	1	0.067875
10.000000	1	0.067000
10.016667	1	0.066625
10.033333	1	0.067250
10.050000	1	0.067250
10.066667	1	0.067875
10.083333	1	0.069375
10.100000	1	0.072000
10.116667	1	0.075625
10.133333	1	0.079875
10.150000	1	0.085000
10.166667	1	0.091875
10.183333	1	0.100500
10.200000	1	0.110750
10.216667	1	0.123375
10.233333	1	0.137000
10.250000	1	0.152875
10.266667	1	0.171625
10.283333	1	0.192500
10.300000	1	0.215750
10.316667	1	0.242750
10.333333	1	0.272250
10.350000	1	0.304250
10.366667	1	0.338875
10.383333	1	0.373750
10.400000	1	0.406125
10.416667	1	0.430375
10.433333	1	0.439750
10.450000	1	0.426625
10.466667	1	0.386000
10.483333	1	0.323625
10.500000	1	0.260875
10.516667	1	0.238625
10.533333	1	0.320000
10.550000	1	0.585750
10.566667	1	1.122750
10.583333	1	2.017875
10.600000	1	3.347500
10.616667	1	5.172250
10.633333	1	7.530375
10.650000	1	10.441625
10.666667	1	13.909875
10.683333	1	17.919375
10.700000	1	22.434625
10.716667	1	27.387375
10.733333	1	32.671625
10.750000	1	38.127125
10.766667	1	43.514125
10.783333	1	48.519500
10.800000	1	52.740000
10.816667	1	55.730250
10.833333	1	57.093625
10.850000	1	56.601125
10.866667	1	54.273375
10.883333	1	50.398500
10.900000	1	45.450375
10.916667	1	39.964750
10.933333	1	34.416125
10.950000	1	29.155625
10.966667	1	24.397875
10.983333	1	20.242750
11.000000	1	16.712500
11.016667	1	13.778875
11.033333	1	11.386000
11.050000	1	9.460750
11.066667	1	7.928375
11.083333	1	6.716250
11.100000	1	5.758875
11.116667	1	5.001000
11.133333	1	4.398500
11.150000	1	3.915375
11.166667	1	3.525250
11.183333	1	3.205250
11.200000	1	2.938625
11.216667	1	2.714500
11.233333	1	2.523875
11.250000	1	2.358250
11.266667	1	2.213375
11.283333	1	2.085375
11.300000	1	1.972375
11.316667	1	1.873000
11.333333	1	1.785125
11.350000	1	1.707250
11.366667	1	1.638250
11.383333	1	1.577625
11.400000	1	1.524750
11.416667	1	1.479375
11.433333	1	1.439125
11.450000	1	1.405250
11.466667	1	1.375375
11.483333	1	1.351375
11.500000	1	1.331875
11.516667	1	1.317250
11.533333	1	1.306125
11.550000	1	1.299625
11.566667	1	1.294750
11.583333	1	1.292250
11.600000	1	1.290250
11.616667	1	1.290000
11.633333	1	1.289500
11.650000	1	1.288125
11.666667	1	1.285625
11.683333	1	1.281125
11.700000	1	1.275750
11.716667	1	1.269750
11.733333	1	1.263000
11.750000	1	1.256250
11.766667	1	1.249500
11.783333	1	1.243375
11.800000	1	1.238625
11.816667	1	1.234000
11.833333	1	1.231125
11.850000	1	1.228625
11.866667	1	1.227750
11.883333	1	1.227125
11.900000	1	1.227875
11.916667	1	1.228875
11.933333	1	1.230500
11.950000	1	1.232875
11.966667	1	1.234875
11.983333	1	1.237625
12.000000	1	1.240750
12.016667	1	1.243875
12.033333	1	1.247125
12.050000	1	1.251500
12.066667	1	1.255750
12.083333	1	1.261000
12.100000	1	1.266000
12.116667	1	1.272125
12.133333	1	1.278500
12.150000	1	1.285500
12.166667	1	1.293375
12.183333	1	1.302250
12.200000	1	1.313000
12.216667	1	1.324875
12.233333	1	1.338375
12.250000	1	1.354250
12.266667	1	1.371750
12.283333	1	1.392000
12.300000	1	1.414500
12.316667	1	1.439750
12.333333	1	1.469000
12.350000	1	1.502625
12.366667	1	1.543250
12.383333	1	1.592750
12.400000	1	1.657375
12.416667	1	1.741375
12.433333	1	1.850750
12.450000	1	1.993625
12.466667	1	2.177625
12.483333	1	2.410125
12.500000	1	2.696625
12.516667	1	3.038500
12.533333	1	3.436625
12.550000	1	3.885500
12.566667	1	4.376125
12.583333	1	4.895750
12.600000	1	5.429250
12.616667	1	5.957000
12.633333	1	6.462875
12.650000	1	6.930250
12.666667	1	7.344625
12.683333	1	7.692125
12.700000	1	7.964125
12.716667	1	8.153625
12.733333	1	8.259750
12.750000	1	8.282125
12.766667	1	8.224875
12.783333	1	8.096375
12.800000	1	7.907000
12.816667	1	7.670625
12.833333	1	7.398125
12.850000	1	7.101625
12.866667	1	6.790625
12.883333	1	6.472125
12.900000	1	6.152750
12.916667	1	5.837250
12.933333	1	5.529625
12.950000	1	5.232625
12.966667	1	4.949750
12.983333	1	4.684250
13.000000	1	4.438500
13.016667	1	4.214125
13.033333	1	4.010750
13.050000	1	3.826625
13.066667	1	3.662500
13.083333	1	3.514875
13.100000	1	3.382750
13.116667	1	3.264375
13.133333	1	3.158000
13.150000	1	3.061625
13.166667	1	2.973625
13.183333	1	2.892625
13.200000	1	2.819500
13.216667	1	2.751000
13.233333	1	2.687250
13.250000	1	2.627625
13.266667	1	2.571625
13.283333	1	2.518125
13.300000	1	2.468250
13.316667	1	2.421125
13.333333	1	2.376375
13.350000	1	2.334500
13.366667	1	2.295875
13.383333	1	2.260000
13.400000	1	2.226250
13.416667	1	2.196000
13.433333	1	2.169125
13.450000	1	2.146250
13.466667	1	2.126750
13.483333	1	2.112125
13.500000	1	2.101125
13.516667	1	2.094000
13.533333	1	2.089875
13.550000	1	2.087750
13.566667	1	2.087375
13.583333	1	2.085875
13.600000	1	2.082375
13.616667	1	2.076000
13.633333	1	2.065875
13.650000	1	2.051125
13.666667	1	2.031250
13.683333	1	2.007625
13.700000	1	1.980500
13.716667	1	1.949875
13.733333	1	1.916500
13.750000	1	1.881375
13.766667	1	1.846500
13.783333	1	1.812125
13.800000	1	1.778125
13.816667	1	1.745875
13.833333	1	1.715000
13.850000	1	1.686875
13.866667	1	1.659750
13.883333	1	1.634250
13.900000	1	1.611000
13.916667	1	1.589625
13.933333	1	1.569250
13.950000	1	1.551000
13.966667	1	1.534250
13.983333	1	1.517875
14.000000	1	1.502750
14.016667	1	1.487625
14.033333	1	1.473750
14.050000	1	1.460875
14.066667	1	1.448500
14.083333	1	1.437375
14.100000	1	1.426375
14.116667	1	1.415875
14.133333	1	1.406125
14.150000	1	1.397125
14.166667	1	1.388250
14.183333	1	1.380625
14.200000	1	1.374750
14.216667	1	1.370125
14.233333	1	1.366250
14.250000	1	1.364875
14.266667	1	1.364625
14.283333	1	1.367000
14.300000	1	1.371625
14.316667	1	1.378875
14.333333	1	1.389125
14.350000	1	1.401750
14.366667	1	1.417000
14.383333	1	1.434500
14.400000	1	1.456875
14.416667	1	1.483875
14.433333	1	1.518000
14.450000	1	1.565000
14.466667	1	1.632000
14.483333	1	1.729000
14.500000	1	1.873875
14.516667	1	2.088625
14.533333	1	2.403250
14.550000	1	2.855500
14.566667	1	3.493875
14.583333	1	4.370750
14.600000	1	5.547375
14.616667	1	7.087500
14.633333	1	9.053875
14.650000	1	11.496250
14.666667	1	14.444750
14.683333	1	17.902875
14.700000	1	21.834750
14.716667	1	26.166875
14.733333	1	30.784250
14.750000	1	35.536750
14.766667	1	40.238375
14.783333	1	44.685625
14.800000	1	48.677500
14.816667	1	52.027125
14.833333	1	54.572250
14.850000	1	56.198000
14.866667	1	56.842875
14.883333	1	56.506875
14.900000	1	55.244625
14.916667	1	53.163750
14.933333	1	50.406500
14.950000	1	47.135125
14.966667	1	43.521375
14.983333	1	39.728875
15.000000	1	35.897000
15.016667	1	32.141750
15.033333	1	28.552250
15.050000	1	25.194625
15.066667	1	22.109250
15.083333	1	19.316625
15.100000	1	16.822000
15.116667	1	14.616250
15.133333	1	12.682500
15.150000	1	10.998375
15.166667	1	9.540750
15.183333	1	8.286500
15.200000	1	7.211000
15.216667	1	6.291125
15.233333	1	5.509750
15.250000	1	4.847875
15.266667	1	4.291500
15.283333	1	3.827750
15.300000	1	3.446125
15.316667	1	3.134750
15.333333	1	2.885250
15.350000	1	2.688000
15.366667	1	2.535750
15.383333	1	2.421625
15.400000	1	2.336000
15.416667	1	2.274375
15.433333	1	2.229625
15.450000	1	2.196750
15.466667	1	2.170375
15.483333	1	2.147500
15.500000	1	2.123875
15.516667	1	2.098375
15.533333	1	2.068375
15.550000	1	2.035250
15.566667	1	1.998750
15.583333	1	1.960250
15.600000	1	1.920000
15.616667	1	1.879625
15.633333	1	1.839375
15.650000	1	1.801375
15.666667	1	1.765500
15.683333	1	1.732000
15.700000	1	1.701625
15.716667	1	1.673750
15.733333	1	1.646750
15.750000	1	1.621250
15.766667	1	1.597625
15.783333	1	1.573750
15.800000	1	1.550625
15.816667	1	1.526875
15.833333	1	1.504250
15.850000	1	1.481625
15.866667	1	1.459500
15.883333	1	1.438500
15.900000	1	1.417375
15.916667	1	1.398000
15.933333	1	1.380125
15.950000	1	1.364250
15.966667	1	1.350375
15.983333	1	1.338125
16.000000	1	1.327875
16.016667	1	1.319875
16.033333	1	1.313625
16.050000	1	1.308375
16.066667	1	1.304375
16.083333	1	1.301500
16.100000	1	1.299625
16.116667	1	1.298625
16.133333	1	1.297250
16.150000	1	1.296750
16.166667	1	1.295875
16.183333	1	1.295125
16.200000	1	1.293250
16.216667	1	1.291000
16.233333	1	1.287875
16.250000	1	1.284875
16.266667	1	1.281375
16.283333	1	1.276750
16.300000	1	1.272125
16.316667	1	1.267625
16.333333	1	1.263875
16.350000	1	1.261125
16.366667	1	1.259000
16.383333	1	1.257625
16.400000	1	1.258500
16.416667	1	1.260250
16.433333	1	1.263750
16.450000	1	1.268625
16.466667	1	1.274000
16.483333	1	1.279875
16.500000	1	1.286625
16.516667	1	1.292750
16.533333	1	1.298250
16.550000	1	1.302375
16.566667	1	1.305375
16.583333	1	1.307125
16.600000	1	1.307500
16.616667	1	1.306125
16.633333	1	1.303375
16.650000	1	1.300500
16.666667	1	1.297375
16.683333	1	1.294375
16.700000	1	1.291875
16.716667	1	1.290500
16.733333	1	1.290375
16.750000	1	1.291375
16.766667	1	1.294375
16.783333	1	1.298500
16.800000	1	1.303875
16.816667	1	1.311875
16.833333	1	1.318750
16.850000	1	1.326375
16.866667	1	1.333125
16.883333	1	1.339625
16.900000	1	1.345250
16.916667	1	1.349750
16.933333	1	1.353250
16.950000	1	1.355625
16.966667	1	1.356250
16.983333	1	1.356000
17.000000	1	1.354125
17.016667	1	1.351625
17.033333	1	1.347875
17.050000	1	1.344000
17.066667	1	1.339000
17.083333	1	1.333750
17.100000	1	1.328500
17.116667	1	1.322750
17.133333	1	1.317875
17.150000	1	1.313500
17.166667	1	1.310000
17.183333	1	1.306875
17.200000	1	1.305000
17.216667	1	1.303250
17.233333	1	1.302375
17.250000	1	1.301625
17.266667	1	1.302750
17.283333	1	1.304000
17.300000	1	1.306000
17.316667	1	1.308250
17.333333	1	1.310625
17.350000	1	1.313875
17.366667	1	1.316875
17.383333	1	1.319125
17.400000	1	1.320125
17.416667	1	1.320625
17.433333	1	1.320375
17.450000	1	1.318750
17.466667	1	1.315000
17.483333	1	1.310875
17.500000	1	1.303750
17.516667	1	1.295375
17.533333	1	1.284625
17.550000	1	1.273125
17.566667	1	1.260000
17.583333	1	1.245875
17.600000	1	1.230000
17.616667	1	1.214125
17.633333	1	1.196875
17.650000	1	1.179500
17.666667	1	1.162375
17.683333	1	1.145500
17.700000	1	1.129000
17.716667	1	1.113875
17.733333	1	1.099375
17.750000	1	1.085500
17.766667	1	1.073000
17.783333	1	1.062125
17.800000	1	1.052125
17.816667	1	1.043250
17.833333	1	1.035875
17.850000	1	1.029125
17.866667	1	1.022625
17.883333	1	1.017125
17.900000	1	1.012875
17.916667	1	1.008375
17.933333	1	1.004125
17.950000	1	1.000250
17.966667	1	0.996125
17.983333	1	0.992250
18.000000	1	0.987875
18.016667	1	0.983625
18.033333	1	0.978750
18.050000	1	0.974250
18.066667	1	0.970000
18.083333	1	0.966750
18.100000	1	0.962625
18.116667	1	0.959875
18.133333	1	0.957625
18.150000	1	0.955375
18.166667	1	0.953875
18.183333	1	0.952875
18.200000	1	0.952125
18.216667	1	0.951000
18.233333	1	0.950750
18.250000	1	0.950250
18.266667	1	0.950500
18.283333	1	0.949875
18.300000	1	0.949500
18.316667	1	0.949500
18.333333	1	0.949375
18.350000	1	0.950125
18.366667	1	0.950875
18.383333	1	0.952750
18.400000	1	0.955125
18.416667	1	0.959375
18.433333	1	0.964875
18.450000	1	0.971625
18.466667	1	0.979875
18.483333	1	0.990125
18.500000	1	1.002875
18.516667	1	1.017250
18.533333	1	1.033375
18.550000	1	1.052250
18.566667	1	1.072750
18.583333	1	1.094875
18.600000	1	1.118875
18.616667	1	1.144125
18.633333	1	1.172125
18.650000	1	1.200625
18.666667	1	1.231125
18.683333	1	1.262375
18.700000	1	1.294875
18.716667	1	1.328000
18.733333	1	1.361875
18.750000	1	1.395750
18.766667	1	1.429500
18.783333	1	1.462250
18.800000	1	1.493375
18.816667	1	1.522750
18.833333	1	1.549375
18.850000	1	1.571875
18.866667	1	1.590625
18.883333	1	1.603875
18.900000	1	1.611875
18.916667	1	1.613750
18.933333	1	1.610000
18.950000	1	1.599750
18.966667	1	1.583000
18.983333	1	1.560250
19.000000	1	1.531625
19.016667	1	1.498000
19.033333	1	1.459125
19.050000	1	1.417125
19.066667	1	1.372625
19.083333	1	1.327125
19.100000	1	1.281125
19.116667	1	1.235250
19.133333	1	1.191375
19.150000	1	1.149625
19.166667	1	1.110750
19.183333	1	1.074625
19.200000	1	1.043125
19.216667	1	1.015875
19.233333	1	0.994250
19.250000	1	0.978125
19.266667	1	0.967875
19.283333	1	0.963875
19.300000	1	0.966375
19.316667	1	0.974375
19.333333	1	0.987750
19.350000	1	1.006125
19.366667	1	1.029625
19.383333	1	1.056875
19.400000	1	1.088375
19.416667	1	1.122125
19.433333	1	1.157625
19.450000	1	1.193375
19.466667	1	1.228250
19.483333	1	1.262250
19.500000	1	1.294125
19.516667	1	1.322750
19.533333	1	1.347750
19.550000	1	1.368625
19.566667	1	1.385000
19.583333	1	1.396875
19.600000	1	1.403500
19.616667	1	1.405375
19.633333	1	1.402000
19.650000	1	1.394375
19.666667	1	1.382125
19.683333	1	1.366500
19.700000	1	1.345875
19.716667	1	1.322875
19.733333	1	1.296625
19.750000	1	1.267875
19.766667	1	1.237125
19.783333	1	1.204625
19.800000	1	1.171000
19.816667	1	1.136625
19.833333	1	1.101375
19.850000	1	1.067625
19.866667	1	1.033625
19.883333	1	1.001125
19.900000	1	0.970000
19.916667	1	0.941750
19.933333	1	0.915500
19.950000	1	0.893125
19.966667	1	0.875125
19.983333	1	0.861875
20.000000	1	0.852750
20.016667	1	0.849000
20.033333	1	0.851625
20.050000	1	0.861375
20.066667	1	0.878125
20.083333	1	0.900625
20.100000	1	0.930125
20.116667	1	0.965750
20.133333	1	1.007250
20.150000	1	1.052250
20.166667	1	1.100875
20.183333	1	1.151875
20.200000	1	1.202875
20.216667	1	1.252625
20.233333	1	1.298625
20.250000	1	1.339375
20.266667	1	1.373875
20.283333	1	1.400750
20.300000	1	1.418375
20.316667	1	1.427625
20.333333	1	1.426750
20.350000	1	1.416625
20.366667	1	1.398000
20.383333	1	1.372125
20.400000	1	1.340125
20.416667	1	1.303750
20.433333	1	1.265750
20.450000	1	1.227875
20.466667	1	1.192000
20.483333	1	1.161125
20.500000	1	1.137625
20.516667	1	1.124500
20.533333	1	1.124000
20.550000	1	1.139125
20.566667	1	1.172750
20.583333	1	1.227750
20.600000	1	1.306500
20.616667	1	1.410000
20.633333	1	1.540625
20.650000	1	1.699000
20.666667	1	1.885250
20.683333	1	2.098000
20.700000	1	2.335125
20.716667	1	2.592500
20.733333	1	2.866000
20.750000	1	3.149250
20.766667	1	3.436125
20.783333	1	3.717500
20.800000	1	3.985250
20.816667	1	4.229500
20.833333	1	4.443875
20.850000	1	4.621000
20.866667	1	4.756125
20.883333	1	4.843875
20.900000	1	4.884500
20.916667	1	4.876625
20.933333	1	4.822125
20.950000	1	4.724250
20.966667	1	4.587125
20.983333	1	4.417625
21.000000	1	4.220625
21.016667	1	4.005000
21.033333	1	3.775375
21.050000	1	3.539000
21.066667	1	3.301000
21.083333	1	3.066625
21.100000	1	2.839250
21.116667	1	2.621875
21.133333	1	2.416375
21.150000	1	2.224375
21.166667	1	2.046375
21.183333	1	1.883125
21.200000	1	1.733875
21.216667	1	1.599875
21.233333	1	1.478250
21.250000	1	1.369000
21.266667	1	1.270500
21.283333	1	1.182875
21.300000	1	1.105125
21.316667	1	1.036375
21.333333	1	0.975500
21.350000	1	0.921500
21.366667	1	0.873625
21.383333	1	0.831500
21.400000	1	0.794750
21.416667	1	0.762375
21.433333	1	0.734125
21.450000	1	0.709500
21.466667	1	0.688750
21.483333	1	0.670500
21.500000	1	0.655875
21.516667	1	0.644625
21.533333	1	0.635500
21.550000	1	0.629000
21.566667	1	0.625000
21.583333	1	0.623125
21.600000	1	0.624000
21.616667	1	0.627500
21.633333	1	0.633250
21.650000	1	0.642625
21.666667	1	0.654875
21.683333	1	0.669500
21.700000	1	0.686500
21.716667	1	0.706500
21.733333	1	0.729375
21.750000	1	0.754250
21.766667	1	0.780125
21.783333	1	0.808625
21.800000	1	0.837500
21.816667	1	0.867250
21.833333	1	0.896750
21.850000	1	0.925125
21.866667	1	0.952250
21.883333	1	0.977625
21.900000	1	1.000125
21.916667	1	1.020625
21.933333	1	1.036750
21.950000	1	1.050375
21.966667	1	1.059875
21.983333	1	1.065500
22.000000	1	1.067875
22.016667	1	1.066000
22.033333	1	1.061125
22.050000	1	1.052875
22.066667	1	1.042625
22.083333	1	1.029500
22.100000	1	1.015000
22.116667	1	0.998250
22.133333	1	0.980750
22.150000	1	0.961500
22.166667	1	0.941250
22.183333	1	0.921125
22.200000	1	0.901000
22.216667	1	0.879375
22.233333	1	0.857375
22.250000	1	0.835375
22.266667	1	0.813500
22.283333	1	0.792375
22.300000	1	0.771625
22.316667	1	0.750625
22.333333	1	0.729875
22.350000	1	0.710625
22.366667	1	0.691375
22.383333	1	0.673000
22.400000	1	0.655375
22.416667	1	0.639000
22.433333	1	0.623250
22.450000	1	0.608500
22.466667	1	0.594250
22.483333	1	0.582125
22.500000	1	0.570750
22.516667	1	0.560875
22.533333	1	0.551000
22.550000	1	0.542125
22.566667	1	0.533750
22.583333	1	0.526000
22.600000	1	0.519125
22.616667	1	0.512375
22.633333	1	0.505250
22.650000	1	0.498625
22.666667	1	0.492250
22.683333	1	0.485750
22.700000	1	0.480000
22.716667	1	0.473875
22.733333	1	0.468000
22.750000	1	0.462125
22.766667	1	0.456375
22.783333	1	0.450500
22.800000	1	0.444250
22.816667	1	0.438875
22.833333	1	0.433750
22.850000	1	0.427750
22.866667	1	0.423250
22.883333	1	0.419000
22.900000	1	0.414875
22.916667	1	0.410750
22.933333	1	0.407125
22.950000	1	0.404125
22.966667	1	0.401250
22.983333	1	0.398750
23.000000	1	0.396500
23.016667	1	0.395000
23.033333	1	0.393750
23.050000	1	0.392375
23.066667	1	0.392250
23.083333	1	0.391750
23.100000	1	0.391375
23.116667	1	0.392250
23.133333	1	0.393000
23.150000	1	0.393500
23.166667	1	0.393875
23.183333	1	0.394375
23.200000	1	0.394875
23.216667	1	0.396500
23.233333	1	0.397750
23.250000	1	0.399375
23.266667	1	0.402125
23.283333	1	0.405875
23.300000	1	0.410375
23.316667	1	0.417500
23.333333	1	0.426875
23.350000	1	0.439875
23.366667	1	0.456625
23.383333	1	0.478375
23.400000	1	0.507000
23.416667	1	0.543000
23.433333	1	0.588000
23.450000	1	0.644375
23.466667	1	0.713250
23.483333	1	0.797250
23.500000	1	0.896875
23.516667	1	1.015250
23.533333	1	1.152750
23.550000	1	1.310250
23.566667	1	1.489000
23.583333	1	1.688250
23.600000	1	1.907500
23.616667	1	2.145500
23.633333	1	2.399000
23.650000	1	2.666125
23.666667	1	2.941625
23.683333	1	3.222125
23.700000	1	3.502750
23.716667	1	3.777625
23.733333	1	4.040250
23.750000	1	4.286500
23.766667	1	4.508875
23.783333	1	4.703625
23.800000	1	4.865875
23.816667	1	4.993000
23.833333	1	5.083125
23.850000	1	5.133875
23.866667	1	5.145375
23.883333	1	5.119125
23.900000	1	5.056750
23.916667	1	4.960750
23.933333	1	4.834625
23.950000	1	4.682500
23.966667	1	4.508625
23.983333	1	4.317625
24.000000	1	4.113750
24.016667	1	3.901375
24.033333	1	3.684625
24.050000	1	3.466750
24.066667	1	3.252000
24.083333	1	3.041375
24.100000	1	2.836875
24.116667	1	2.641000
24.133333	1	2.453875
24.150000	1	2.277125
24.166667	1	2.112000
24.183333	1	1.956125
24.200000	1	1.813000
24.216667	1	1.679875
24.233333	1	1.557500
24.250000	1	1.444500
24.266667	1	1.341625
24.283333	1	1.247750
24.300000	1	1.162375
24.316667	1	1.084500
24.333333	1	1.014375
24.350000	1	0.951750
24.366667	1	0.895625
24.383333	1	0.846000
24.400000	1	0.801500
24.416667	1	0.762500
24.433333	1	0.728625
24.450000	1	0.699250
24.466667	1	0.673500
24.483333	1	0.651375
24.500000	1	0.633000
24.516667	1	0.616250
24.533333	1	0.602375
24.550000	1	0.589875
24.566667	1	0.578375
24.583333	1	0.569000
24.600000	1	0.560000
24.616667	1	0.551750
24.633333	1	0.544250
24.650000	1	0.536875
24.666667	1	0.529375
24.683333	1	0.522125
24.700000	1	0.515750
24.716667	1	0.508875
24.733333	1	0.501375
24.750000	1	0.493875
24.766667	1	0.486250
24.783333	1	0.479375
24.800000	1	0.472500
24.816667	1	0.465500
24.833333	1	0.459250
24.850000	1	0.452500
24.866667	1	0.446500
24.883333	1	0.440875
24.900000	1	0.434875
24.916667	1	0.429500
24.933333	1	0.424750
24.950000	1	0.420000
24.966667	1	0.415500
24.983333	1	0.411000
25.000000	1	0.407375
25.016667	1	0.403500
25.033333	1	0.399375
25.050000	1	0.396125
25.066667	1	0.393000
25.083333	1	0.389750
25.100000	1	0.386875
25.116667	1	0.383750
25.133333	1	0.380750
25.150000	1	0.378500
25.166667	1	0.375000
25.183333	1	0.372625
25.200000	1	0.369500
25.216667	1	0.366625
25.233333	1	0.363000
25.250000	1	0.360500
25.266667	1	0.358625
25.283333	1	0.355375
25.300000	1	0.352625
25.316667	1	0.350625
25.333333	1	0.347875
25.350000	1	0.345250
25.366667	1	0.343375
25.383333	1	0.341500
25.400000	1	0.339125
25.416667	1	0.337625
25.433333	1	0.336250
25.450000	1	0.335625
25.466667	1	0.334625
25.483333	1	0.334250
25.500000	1	0.333750
25.516667	1	0.333375
25.533333	1	0.333250
25.550000	1	0.333875
25.566667	1	0.334250
25.583333	1	0.334250
25.600000	1	0.334375
25.616667	1	0.334750
25.633333	1	0.335375
25.650000	1	0.335500
25.666667	1	0.337000
25.683333	1	0.338000
25.700000	1	0.339125
25.716667	1	0.340000
25.733333	1	0.340625
25.750000	1	0.341500
25.766667	1	0.342750
25.783333	1	0.344000
25.800000	1	0.344750
25.816667	1	0.345875
25.833333	1	0.347375
25.850000	1	0.349125
25.866667	1	0.351125
25.883333	1	0.353375
25.900000	1	0.355625
25.916667	1	0.358375
25.933333	1	0.360750
25.950000	1	0.363750
25.966667	1	0.367625
25.983333	1	0.371125
26.000000	1	0.375875
26.016667	1	0.380000
26.033333	1	0.384500
26.050000	1	0.388875
26.066667	1	0.395125
26.083333	1	0.401000
26.100000	1	0.407000
26.116667	1	0.414125
26.133333	1	0.421000
26.150000	1	0.427500
26.166667	1	0.434250
26.183333	1	0.441250
26.200000	1	0.447875
26.216667	1	0.454375
26.233333	1	0.461000
26.250000	1	0.467250
26.266667	1	0.472750
26.283333	1	0.477750
26.300000	1	0.483250
26.316667	1	0.487125
26.333333	1	0.490250
26.350000	1	0.492875
26.366667	1	0.494250
26.383333	1	0.495375
26.400000	1	0.495000
26.416667	1	0.494000
26.433333	1	0.492500
26.450000	1	0.490375
26.466667	1	0.486875
26.483333	1	0.482875
26.500000	1	0.477625
26.516667	1	0.471750
26.533333	1	0.465625
26.550000	1	0.458750
26.566667	1	0.451375
26.583333	1	0.443875
26.600000	1	0.436000
26.616667	1	0.427875
26.633333	1	0.419125
26.650000	1	0.410250
26.666667	1	0.401500
26.683333	1	0.392875
26.700000	1	0.384625
26.716667	1	0.376625
26.733333	1	0.369000
26.750000	1	0.361125
26.766667	1	0.354500
26.783333	1	0.348625
26.800000	1	0.342375
26.816667	1	0.336750
26.833333	1	0.332125
26.850000	1	0.327000
26.866667	1	0.322875
26.883333	1	0.319125
26.900000	1	0.315875
26.916667	1	0.312875
26.933333	1	0.310875
26.950000	1	0.308875
26.966667	1	0.307625
26.983333	1	0.306125
27.000000	1	0.306250
27.016667	1	0.306125
27.033333	1	0.305875
27.050000	1	0.307125
27.066667	1	0.309375
27.083333	1	0.311500
27.100000	1	0.314500
27.116667	1	0.317250
27.133333	1	0.321125
27.150000	1	0.326125
27.166667	1	0.331000
27.183333	1	0.336500
27.200000	1	0.343750
27.216667	1	0.352250
27.233333	1	0.361750
27.250000	1	0.373500
27.266667	1	0.387125
27.283333	1	0.403125
27.300000	1	0.422375
27.316667	1	0.445250
27.333333	1	0.471750
27.350000	1	0.502875
27.366667	1	0.539000
27.383333	1	0.581250
27.400000	1	0.631125
27.416667	1	0.688375
27.433333	1	0.753250
27.450000	1	0.827875
27.466667	1	0.912625
27.483333	1	1.008250
27.500000	1	1.114000
27.516667	1	1.231250
27.533333	1	1.359875
27.550000	1	1.499500
27.566667	1	1.650625
27.583333	1	1.811750
27.600000	1	1.982125
27.616667	1	2.160250
27.633333	1	2.345750
27.650000	1	2.536250
27.666667	1	2.730625
27.683333	1	2.925000
27.700000	1	3.117625
27.716667	1	3.304750
27.733333	1	3.484750
27.750000	1	3.654375
27.766667	1	3.810875
27.783333	1	3.951500
27.800000	1	4.073125
27.816667	1	4.175000
27.833333	1	4.254500
27.850000	1	4.311000
27.866667	1	4.343000
27.883333	1	4.350250
27.900000	1	4.332125
27.916667	1	4.289875
27.933333	1	4.224625
27.950000	1	4.137625
27.966667	1	4.030625
27.983333	1	3.906375
28.000000	1	3.767625
28.016667	1	3.616250
28.033333	1	3.455125
28.050000	1	3.286125
28.066667	1	3.112875
28.083333	1	2.937500
28.100000	1	2.762500
28.116667	1	2.589000
28.133333	1	2.419500
28.150000	1	2.255875
28.166667	1	2.099000
28.183333	1	1.949000
28.200000	1	1.807750
28.216667	1	1.674125
28.233333	1	1.549625
28.250000	1	1.433750
28.266667	1	1.326750
28.283333	1	1.228125
28.300000	1	1.138625
28.316667	1	1.056000
28.333333	1	0.982250
28.350000	1	0.915250
28.366667	1	0.855250
28.383333	1	0.801875
28.400000	1	0.754750
28.416667	1	0.713250
28.433333	1	0.676375
28.450000	1	0.645250
28.466667	1	0.617250
28.483333	1	0.593750
28.500000	1	0.573750
28.516667	1	0.558000
28.533333	1	0.546125
28.550000	1	0.537000
28.566667	1	0.530125
28.583333	1	0.526625
28.600000	1	0.524625
28.616667	1	0.525250
28.633333	1	0.527875
28.650000	1	0.531500
28.666667	1	0.536000
28.683333	1	0.543000
28.700000	1	0.550250
28.716667	1	0.558375
28.733333	1	0.566500
28.750000	1	0.575125
28.766667	1	0.584000
28.783333	1	0.593250
28.800000	1	0.602000
28.816667	1	0.610250
28.833333	1	0.618375
28.850000	1	0.626000
28.866667	1	0.633125
28.883333	1	0.638000
28.900000	1	0.642500
28.916667	1	0.646000
28.933333	1	0.648250
28.950000	1	0.648750
28.966667	1	0.648500
28.983333	1	0.646625
29.000000	1	0.644125
29.016667	1	0.639625
29.033333	1	0.633000
29.050000	1	0.624750
29.066667	1	0.615375
29.083333	1	0.604625
29.100000	1	0.591375
29.116667	1	0.576250
29.133333	1	0.560000
29.150000	1	0.541750
29.166667	1	0.521250
29.183333	1	0.499250
29.200000	1	0.475500
29.216667	1	0.449875
29.233333	1	0.421125
29.250000	1	0.390750
29.266667	1	0.359000
29.283333	1	0.324625
29.300000	1	0.287750
29.316667	1	0.249125
29.333333	1	0.208875
29.350000	1	0.167000
29.366667	1	0.123000
29.383333	1	0.078125
29.400000	1	0.030375
29.416667	1	-0.017750
29.433333	1	-0.067375
29.450000	1	-0.117875
29.466667	1	-0.169125
29.483333	1	-0.220000
29.500000	1	-0.270625
29.516667	1	-0.320750
29.533333	1	-0.370375
29.550000	1	-0.418250
29.566667	1	-0.465125
29.583333	1	-0.510000
29.600000	1	-0.551750
29.616667	1	-0.590500
29.633333	1	-0.625625
29.650000	1	-0.658125
29.666667	1	-0.686875
29.683333	1	-0.711750
29.700000	1	-0.732125
29.716667	1	-0.748500
29.733333	1	-0.760500
29.750000	1	-0.768125
29.766667	1	-0.771125
29.783333	1	-0.770250
29.800000	1	-0.765250
29.816667	1	-0.756750
29.833333	1	-0.744000
29.850000	1	-0.728000
29.866667	1	-0.709500
29.883333	1	-0.687125
29.900000	1	-0.662500
29.916667	1	-0.635250
29.933333	1	-0.606250
29.950000	1	-0.576250
29.966667	1	-0.544500
29.983333	1	-0.511500
30.000000	1	-0.478000
30.016667	1	-0.444750
30.033333	1	-0.411125
30.050000	1	-0.377500
30.066667	1	-0.344625
30.083333	1	-0.312625
30.100000	1	-0.280375
30.116667	1	-0.249125
30.133333	1	-0.219125
30.150000	1	-0.190625
30.166667	1	-0.163500
30.183333	1	-0.137625
30.200000	1	-0.113250
30.216667	1	-0.090000
30.233333	1	-0.067500
30.250000	1	-0.047000
30.266667	1	-0.027125
30.283333	1	-0.008875
30.300000	1	0.008000
30.316667	1	0.023750
30.333333	1	0.038500
30.350000	1	0.052375
30.366667	1	0.064875
30.383333	1	0.076500
30.400000	1	0.087375
30.416667	1	0.097625
30.433333	1	0.107375
30.450000	1	0.115625
30.466667	1	0.123750
30.483333	1	0.131125
30.500000	1	0.138375
30.516667	1	0.145375
30.533333	1	0.152250
30.550000	1	0.159000
30.566667	1	0.165875
30.583333	1	0.172625
30.600000	1	0.179125
30.616667	1	0.186375
30.633333	1	0.193500
30.650000	1	0.200625
30.666667	1	0.207875
30.683333	1	0.215375
30.700000	1	0.223375
30.716667	1	0.231500
30.733333	1	0.239250
30.750000	1	0.248375
30.766667	1	0.257000
30.783333	1	0.266875
30.800000	1	0.277000
30.816667	1	0.287750
30.833333	1	0.298250
30.850000	1	0.309375
30.866667	1	0.320875
30.883333	1	0.332375
30.900000	1	0.345250
30.916667	1	0.358875
30.933333	1	0.373000
30.950000	1	0.388500
30.966667	1	0.405375
30.983333	1	0.423875
31.000000	1	0.444250
31.016667	1	0.467375
31.033333	1	0.493000
31.050000	1	0.521625
31.066667	1	0.554000
31.083333	1	0.590875
31.100000	1	0.632125
31.116667	1	0.678125
31.133333	1	0.730625
31.150000	1	0.787750
31.166667	1	0.852625
31.183333	1	0.923375
31.200000	1	1.001375
31.216667	1	1.086750
31.233333	1	1.180625
31.250000	1	1.281375
31.266667	1	1.389125
31.283333	1	1.504625
31.300000	1	1.626125
31.316667	1	1.754875
31.333333	1	1.886625
31.350000	1	2.023000
31.366667	1	2.162625
31.383333	1	2.303375
31.400000	1	2.445000
31.416667	1	2.584375
31.433333	1	2.720250
31.450000	1	2.852750
31.466667	1	2.979250
31.483333	1	3.096750
31.500000	1	3.204000
31.516667	1	3.300375
31.533333	1	3.384750
31.550000	1	3.456375
31.566667	1	3.513375
31.583333	1	3.555875
31.600000	1	3.583125
31.616667	1	3.594875
31.633333	1	3.591000
31.650000	1	3.572125
31.666667	1	3.538875
31.683333	1	3.491500
31.700000	1	3.431250
31.716667	1	3.358625
31.733333	1	3.275875
31.750000	1	3.183375
31.766667	1	3.082625
31.783333	1	2.974875
31.800000	1	2.861625
31.816667	1	2.744250
31.833333	1	2.623500
31.850000	1	2.501250
31.866667	1	2.378250
31.883333	1	2.254875
31.900000	1	2.133875
31.916667	1	2.015000
31.933333	1	1.898500
31.950000	1	1.785250
31.966667	1	1.674875
31.983333	1	1.568750
32.000000	1	1.466625
32.016667	1	1.369500
32.033333	1	1.276750
32.050000	1	1.189125
32.066667	1	1.106375
32.083333	1	1.028625
32.100000	1	0.955750
32.116667	1	0.886375
32.133333	1	0.821500
32.150000	1	0.761000
32.166667	1	0.704875
32.183333	1	0.651875
32.200000	1	0.602125
32.216667	1	0.555500
32.233333	1	0.512250
32.250000	1	0.472125
32.266667	1	0.435000
32.283333	1	0.400625
32.300000	1	0.368750
32.316667	1	0.338750
32.333333	1	0.311375
32.350000	1	0.286625
32.366667	1	0.263750
32.383333	1	0.242500
32.400000	1	0.223250
32.416667	1	0.205625
32.433333	1	0.190125
32.450000	1	0.174625
32.466667	1	0.161125
32.483333	1	0.148750
32.500000	1	0.138000
32.516667	1	0.127375
32.533333	1	0.118000
32.550000	1	0.110000
32.566667	1	0.103375
32.583333	1	0.097500
32.600000	1	0.092000
32.616667	1	0.087375
32.633333	1	0.083000
32.650000	1	0.079250
32.666667	1	0.075625
32.683333	1	0.072875
32.700000	1	0.071000
32.716667	1	0.068750
32.733333	1	0.067500
32.750000	1	0.066625
32.766667	1	0.065750
32.783333	1	0.064750
32.800000	1	0.064625
32.816667	1	0.064500
32.833333	1	0.064750
32.850000	1	0.064250
32.866667	1	0.064000
32.883333	1	0.064000
32.900000	1	0.063750
32.916667	1	0.064625
32.933333	1	0.065125
32.950000	1	0.065625
32.966667	1	0.065625
32.983333	1	0.066500
33.000000	1	0.066500
33.016667	1	0.067375
33.033333	1	0.068125
33.050000	1	0.067875
33.066667	1	0.068000
33.083333	1	0.068500
33.100000	1	0.068625
33.116667	1	0.068625
33.133333	1	0.069125
33.150000	1	0.070000
33.166667	1	0.070875
33.183333	1	0.071250
33.200000	1	0.072125
33.216667	1	0.073750
33.233333	1	0.074375
33.250000	1	0.074875
33.266667	1	0.075250
33.283333	1	0.076375
33.300000	1	0.076500
33.316667	1	0.076250
33.333333	1	0.077125
33.350000	1	0.078250
33.366667	1	0.079250
33.383333	1	0.080375
33.400000	1	0.081250
33.416667	1	0.082500
33.433333	1	0.083875
33.450000	1	0.084250
33.466667	1	0.085375
33.483333	1	0.087125
33.500000	1	0.088500
33.516667	1	0.090000
33.533333	1	0.091625
33.550000	1	0.092875
33.566667	1	0.094125
33.583333	1	0.095500
33.600000	1	0.096875
33.616667	1	0.098125
33.633333	1	0.099250
33.650000	1	0.099875
33.666667	1	0.101250
33.683333	1	0.102625
33.700000	1	0.104125
33.716667	1	0.105375
33.733333	1	0.106750
33.750000	1	0.107500
33.766667	1	0.109125
33.783333	1	0.110500
33.800000	1	0.111625
33.816667	1	0.112250
33.833333	1	0.112750
33.850000	1	0.113125
33.866667	1	0.114000
33.883333	1	0.114375
33.900000	1	0.115250
33.916667	1	0.115750
33.933333	1	0.116625
33.950000	1	0.116625
33.966667	1	0.117375
33.983333	1	0.118125
34.000000	1	0.119000
34.016667	1	0.119500
34.033333	1	0.119875
34.050000	1	0.120125
34.066667	1	0.121000
34.083333	1	0.121750
34.100000	1	0.122125
34.116667	1	0.123000
34.133333	1	0.123375
34.150000	1	0.123625
34.166667	1	0.124125
34.183333	1	0.124750
34.200000	1	0.124750
34.216667	1	0.124875
34.233333	1	0.125375
34.250000	1	0.125875
34.266667	1	0.126125
34.283333	1	0.126750
34.300000	1	0.127375
34.316667	1	0.128250
34.333333	1	0.129875
34.350000	1	0.130875
34.366667	1	0.131500
34.383333	1	0.131500
34.400000	1	0.132250
34.416667	1	0.132875
34.433333	1	0.133625
34.450000	1	0.134750
34.466667	1	0.135250
34.483333	1	0.135875
34.500000	1	0.136500
34.516667	1	0.137750
34.533333	1	0.138500
34.550000	1	0.139375
34.566667	1	0.139625
34.583333	1	0.139750
34.600000	1	0.140750
34.616667	1	0.141125
34.633333	1	0.141250
34.650000	1	0.141625
34.666667	1	0.141250
34.683333	1	0.141500
34.700000	1	0.141875
34.716667	1	0.142250
34.733333	1	0.142250
34.750000	1	0.141500
34.766667	1	0.141250
34.783333	1	0.141000
34.800000	1	0.140125
34.816667	1	0.140125
34.833333	1	0.138875
34.850000	1	0.138875
34.866667	1	0.138875
34.883333	1	0.138250
34.900000	1	0.137750
34.916667	1	0.137250
34.933333	1	0.136875
34.950000	1	0.135875
34.966667	1	0.134625
34.983333	1	0.134250
35.000000	1	0.133875
35.016667	1	0.133250
35.033333	1	0.132000
35.050000	1	0.131125
35.066667	1	0.130250
35.083333	1	0.129500
35.100000	1	0.128375
35.116667	1	0.127250
35.133333	1	0.126500
35.150000	1	0.125250
35.166667	1	0.124625
35.183333	1	0.123875
35.200000	1	0.123250
35.216667	1	0.122250
35.233333	1	0.121375
35.250000	1	0.121000
35.266667	1	0.121500
35.283333	1	0.121000
35.300000	1	0.121125
35.316667	1	0.120875
35.333333	1	0.121625
35.350000	1	0.121500
35.366667	1	0.121750
35.383333	1	0.122250
35.400000	1	0.122125
35.416667	1	0.122500
35.433333	1	0.123250
35.450000	1	0.124125
35.466667	1	0.125000
35.483333	1	0.125750
35.500000	1	0.127125
35.516667	1	0.128375
35.533333	1	0.129500
35.550000	1	0.130875
35.566667	1	0.132250
35.583333	1	0.133750
35.600000	1	0.135750
35.616667	1	0.137625
35.633333	1	0.139500
35.650000	1	0.142250
35.666667	1	0.144750
35.683333	1	0.146500
35.700000	1	0.149125
35.716667	1	0.151125
35.733333	1	0.153625
35.750000	1	0.156250
35.766667	1	0.158375
35.783333	1	0.161000
35.800000	1	0.163000
35.816667	1	0.164750
35.833333	1	0.166500
35.850000	1	0.168375
35.866667	1	0.170625
35.883333	1	0.172125
35.900000	1	0.174000
35.916667	1	0.175375
35.933333	1	0.176625
35.950000	1	0.177875
35.966667	1	0.178875
35.983333	1	0.179125
36.000000	1	0.180000
36.016667	1	0.180500
36.033333	1	0.180875
36.050000	1	0.180750
36.066667	1	0.181125
36.083333	1	0.180875
36.100000	1	0.180125
36.116667	1	0.180000
36.133333	1	0.179625
36.150000	1	0.178500
36.166667	1	0.177500
36.183333	1	0.176375
36.200000	1	0.174750
36.216667	1	0.173875
36.233333	1	0.172750
36.250000	1	0.172000
36.266667	1	0.170750
36.283333	1	0.169375
36.300000	1	0.168125
36.316667	1	0.167250
36.333333	1	0.165875
36.350000	1	0.164250
36.366667	1	0.163250
36.383333	1	0.162125
36.400000	1	0.160750
36.416667	1	0.158875
36.433333	1	0.158125
36.450000	1	0.157500
36.466667	1	0.157000
36.483333	1	0.155625
36.500000	1	0.155000
36.516667	1	0.154000
36.533333	1	0.153000
36.550000	1	0.151875
36.566667	1	0.151000
36.583333	1	0.150250
36.600000	1	0.149000
36.616667	1	0.147125
36.633333	1	0.145750
36.650000	1	0.143750
36.666667	1	0.142500
36.683333	1	0.141375
36.700000	1	0.139875
36.716667	1	0.138375
36.733333	1	0.136625
36.750000	1	0.134250
36.766667	1	0.131625
36.783333	1	0.128250
36.800000	1	0.126375
36.816667	1	0.124375
36.833333	1	0.121875
36.850000	1	0.118625
36.866667	1	0.116000
36.883333	1	0.113375
36.900000	1	0.110500
36.916667	1	0.108125
36.933333	1	0.105000
36.950000	1	0.102125
36.966667	1	0.099375
36.983333	1	0.096125
37.000000	1	0.093125
37.016667	1	0.090625
37.033333	1	0.087250
37.050000	1	0.084375
37.066667	1	0.081750
37.083333	1	0.080125
37.100000	1	0.078500
37.116667	1	0.076875
37.133333	1	0.073875
37.150000	1	0.071875
37.166667	1	0.070375
37.183333	1	0.068375
37.200000	1	0.067000
37.216667	1	0.065625
37.233333	1	0.064750
37.250000	1	0.063500
37.266667	1	0.062875
37.283333	1	0.062125
37.300000	1	0.062125
37.316667	1	0.061875
37.333333	1	0.062000
37.350000	1	0.061625
37.366667	1	0.062375
37.383333	1	0.062500
37.400000	1	0.063625
37.416667	1	0.064000
37.433333	1	0.064875
37.450000	1	0.066000
37.466667	1	0.066750
37.483333	1	0.067625
37.500000	1	0.068625
37.516667	1	0.069750
37.533333	1	0.070750
37.550000	1	0.071375
37.566667	1	0.071750
37.583333	1	0.072875
37.600000	1	0.073875
37.616667	1	0.074375
37.633333	1	0.075000
37.650000	1	0.075500
37.666667	1	0.075250
37.683333	1	0.075500
37.700000	1	0.075625
37.716667	1	0.075125
37.733333	1	0.074875
37.750000	1	0.074750
37.766667	1	0.074000
37.783333	1	0.073000
37.800000	1	0.072250
37.816667	1	0.071250
37.833333	1	0.070375
37.850000	1	0.069125
37.866667	1	0.068000
37.883333	1	0.066750
37.900000	1	0.065625
37.916667	1	0.064500
37.933333	1	0.063250
37.950000	1	0.061625
37.966667	1	0.060625
37.983333	1	0.059125
38.000000	1	0.057250
38.016667	1	0.055750
38.033333	1	0.054250
38.050000	1	0.053125
38.066667	1	0.052125
38.083333	1	0.050625
38.100000	1	0.050000
38.116667	1	0.049000
38.133333	1	0.047625
38.150000	1	0.046375
38.166667	1	0.044625
38.183333	1	0.043375
38.200000	1	0.041875
38.216667	1	0.040875
38.233333	1	0.040250
38.250000	1	0.038875
38.266667	1	0.038375
38.283333	1	0.037375
38.300000	1	0.036125
38.316667	1	0.036000
38.333333	1	0.035000
38.350000	1	0.034375
38.366667	1	0.033375
38.383333	1	0.031875
38.400000	1	0.030875
38.416667	1	0.030000
38.433333	1	0.029125
38.450000	1	0.027500
38.466667	1	0.027000
38.483333	1	0.027000
38.500000	1	0.027000
38.516667	1	0.026625
38.533333	1	0.025875
38.550000	1	0.025125
38.566667	1	0.025875
38.583333	1	0.025500
38.600000	1	0.025750
38.616667	1	0.025750
38.633333	1	0.026000
38.650000	1	0.026375
38.666667	1	0.026000
38.683333	1	0.025625
38.700000	1	0.026250
38.716667	1	0.026625
38.733333	1	0.027375
38.750000	1	0.028375
38.766667	1	0.028750
38.783333	1	0.029375
38.800000	1	0.030125
38.816667	1	0.031250
38.833333	1	0.032000
38.850000	1	0.032750
38.866667	1	0.033875
38.883333	1	0.034500
38.900000	1	0.034875
38.916667	1	0.035375
38.933333	1	0.035750
38.950000	1	0.035875
38.966667	1	0.037125
38.983333	1	0.038500
39.000000	1	0.038875
39.016667	1	0.039375
39.033333	1	0.040125
39.050000	1	0.040750
39.066667	1	0.041000
39.083333	1	0.041625
39.100000	1	0.042500
39.116667	1	0.042625
39.133333	1	0.042750
39.150000	1	0.042750
39.166667	1	0.042250
39.183333	1	0.042125
39.200000	1	0.042500
39.216667	1	0.042500
39.233333	1	0.042250
39.250000	1	0.042125
39.266667	1	0.042250
39.283333	1	0.042000
39.300000	1	0.042125
39.316667	1	0.042250
39.333333	1	0.041750
39.350000	1	0.041250
39.366667	1	0.041375
39.383333	1	0.041250
39.400000	1	0.040375
39.416667	1	0.039625
39.433333	1	0.039000
39.450000	1	0.038250
39.466667	1	0.037750
39.483333	1	0.037500
39.500000	1	0.037250
39.516667	1	0.036375
39.533333	1	0.036250
39.550000	1	0.036375
39.566667	1	0.036000
39.583333	1	0.035500
39.600000	1	0.034875
39.616667	1	0.034125
39.633333	1	0.033500
39.650000	1	0.033125
39.666667	1	0.032625
39.683333	1	0.032500
39.700000	1	0.031500
39.716667	1	0.031375
39.733333	1	0.030750
39.750000	1	0.030250
39.766667	1	0.030125
39.783333	1	0.029125
39.800000	1	0.028500
39.816667	1	0.028250
39.833333	1	0.027875
39.850000	1	0.027000
39.866667	1	0.026250
39.883333	1	0.025375
39.900000	1	0.024500
39.916667	1	0.023375
39.933333	1	0.022375
39.950000	1	0.021000
39.966667	1	0.019750
39.983333	1	0.018375
40.000000	1	0.016750
