URL	chrom://7040-86g6c92/XVault/Ultimate_3000/20/20240517_CMO_FP23_FP25_MarkusDeplate.seq/263.smp/RI_1.channel/RI_1.chm
Channel	RI_1

Injection Information:
Data Vault	XVault
Sequence	20240517_CMO_FP23_FP25_MarkusDeplate
Name	FP26_24_s5
Number	100
Position	BB5
Comment	
Processing Method	
Instrument Method	run_25B_method
Type	Unknown
Status	Finished
Inject Time	30.05.2024 14:36:50 +02:00
Volume (µl)	20.0000
Dilution Factor	1.0000
Weight	1.0000

Chromatogram Data Information:
Time Min. (min)	0.000000
Time Max. (min)	40.000000
Data Points	2401
Detector	RI
Generating Data System	Chromeleon 7.3.2.11814
Exporting Data System	Chromeleon 7.3.2.0
Operator	Instrument Controller
Signal Quantity	Refractive 
Signal Unit	µRIU
Signal Min.	-0.715125
Signal Max.	56.731125
Channel	RI_1
Driver Name	RID520Driver.dll
Channel Type	Evaluation
Min. Step (s)	1
Max. Step (s)	1
Average Step (s)	1

Signal Parameter Information:
Signal Info	

Chromatogram Data:
Time (min)	Step (s)	Value (µRIU)
0.000000	n.a.	0.023250
0.016667	1	0.023625
0.033333	1	0.024625
0.050000	1	0.025250
0.066667	1	0.025625
0.083333	1	0.026750
0.100000	1	0.027750
0.116667	1	0.028125
0.133333	1	0.029375
0.150000	1	0.029750
0.166667	1	0.030125
0.183333	1	0.030875
0.200000	1	0.031125
0.216667	1	0.031750
0.233333	1	0.032625
0.250000	1	0.033125
0.266667	1	0.033250
0.283333	1	0.034375
0.300000	1	0.035125
0.316667	1	0.035500
0.333333	1	0.035000
0.350000	1	0.035000
0.366667	1	0.034375
0.383333	1	0.033375
0.400000	1	0.032750
0.416667	1	0.032750
0.433333	1	0.033875
0.450000	1	0.036125
0.466667	1	0.037500
0.483333	1	0.038750
0.500000	1	0.039750
0.516667	1	0.040375
0.533333	1	0.040875
0.550000	1	0.039625
0.566667	1	0.037750
0.583333	1	0.035375
0.600000	1	0.033250
0.616667	1	0.030250
0.633333	1	0.028375
0.650000	1	0.027250
0.666667	1	0.026375
0.683333	1	0.025875
0.700000	1	0.025125
0.716667	1	0.024250
0.733333	1	0.023750
0.750000	1	0.023375
0.766667	1	0.022750
0.783333	1	0.022125
0.800000	1	0.021875
0.816667	1	0.021250
0.833333	1	0.021125
0.850000	1	0.020625
0.866667	1	0.020375
0.883333	1	0.020250
0.900000	1	0.019750
0.916667	1	0.019125
0.933333	1	0.018250
0.950000	1	0.018000
0.966667	1	0.017875
0.983333	1	0.018000
1.000000	1	0.018375
1.016667	1	0.018375
1.033333	1	0.018125
1.050000	1	0.017875
1.066667	1	0.017000
1.083333	1	0.017375
1.100000	1	0.017125
1.116667	1	0.016500
1.133333	1	0.016000
1.150000	1	0.015250
1.166667	1	0.014875
1.183333	1	0.014500
1.200000	1	0.014250
1.216667	1	0.013625
1.233333	1	0.012625
1.250000	1	0.012125
1.266667	1	0.011375
1.283333	1	0.010750
1.300000	1	0.011125
1.316667	1	0.010125
1.333333	1	0.009500
1.350000	1	0.008500
1.366667	1	0.008375
1.383333	1	0.007250
1.400000	1	0.007625
1.416667	1	0.007125
1.433333	1	0.006375
1.450000	1	0.005750
1.466667	1	0.005875
1.483333	1	0.005125
1.500000	1	0.004750
1.516667	1	0.005000
1.533333	1	0.005000
1.550000	1	0.005500
1.566667	1	0.005125
1.583333	1	0.005500
1.600000	1	0.006250
1.616667	1	0.006500
1.633333	1	0.007000
1.650000	1	0.007375
1.666667	1	0.007625
1.683333	1	0.008250
1.700000	1	0.008375
1.716667	1	0.009125
1.733333	1	0.009250
1.750000	1	0.009750
1.766667	1	0.010500
1.783333	1	0.010750
1.800000	1	0.011000
1.816667	1	0.011375
1.833333	1	0.012500
1.850000	1	0.012750
1.866667	1	0.013125
1.883333	1	0.013500
1.900000	1	0.013875
1.916667	1	0.013875
1.933333	1	0.014000
1.950000	1	0.014125
1.966667	1	0.013625
1.983333	1	0.014000
2.000000	1	0.013250
2.016667	1	0.013125
2.033333	1	0.012500
2.050000	1	0.011750
2.066667	1	0.011750
2.083333	1	0.010750
2.100000	1	0.009625
2.116667	1	0.009125
2.133333	1	0.008500
2.150000	1	0.007125
2.166667	1	0.006250
2.183333	1	0.005000
2.200000	1	0.004500
2.216667	1	0.002875
2.233333	1	0.002125
2.250000	1	0.001875
2.266667	1	0.001000
2.283333	1	-0.000375
2.300000	1	-0.000875
2.316667	1	-0.002000
2.333333	1	-0.003375
2.350000	1	-0.003500
2.366667	1	-0.004125
2.383333	1	-0.004500
2.400000	1	-0.004750
2.416667	1	-0.004250
2.433333	1	-0.004500
2.450000	1	-0.005375
2.466667	1	-0.005125
2.483333	1	-0.005000
2.500000	1	-0.005125
2.516667	1	-0.004625
2.533333	1	-0.004375
2.550000	1	-0.004250
2.566667	1	-0.004000
2.583333	1	-0.003625
2.600000	1	-0.003625
2.616667	1	-0.003375
2.633333	1	-0.003000
2.650000	1	-0.002875
2.666667	1	-0.002375
2.683333	1	-0.002125
2.700000	1	-0.002375
2.716667	1	-0.001625
2.733333	1	-0.002375
2.750000	1	-0.002250
2.766667	1	-0.002375
2.783333	1	-0.002375
2.800000	1	-0.002625
2.816667	1	-0.002250
2.833333	1	-0.002125
2.850000	1	-0.002500
2.866667	1	-0.002500
2.883333	1	-0.002875
2.900000	1	-0.003875
2.916667	1	-0.004375
2.933333	1	-0.004250
2.950000	1	-0.004625
2.966667	1	-0.004750
2.983333	1	-0.004375
3.000000	1	-0.004250
3.016667	1	-0.003750
3.033333	1	-0.004250
3.050000	1	-0.003500
3.066667	1	-0.003125
3.083333	1	-0.002625
3.100000	1	-0.001875
3.116667	1	-0.000875
3.133333	1	-0.000625
3.150000	1	0.000000
3.166667	1	0.000625
3.183333	1	0.002375
3.200000	1	0.003375
3.216667	1	0.004750
3.233333	1	0.005375
3.250000	1	0.006250
3.266667	1	0.006250
3.283333	1	0.007875
3.300000	1	0.008875
3.316667	1	0.009875
3.333333	1	0.011625
3.350000	1	0.012250
3.366667	1	0.012375
3.383333	1	0.013625
3.400000	1	0.014625
3.416667	1	0.015125
3.433333	1	0.016375
3.450000	1	0.017125
3.466667	1	0.018250
3.483333	1	0.018625
3.500000	1	0.020375
3.516667	1	0.020750
3.533333	1	0.021125
3.550000	1	0.021250
3.566667	1	0.021500
3.583333	1	0.022625
3.600000	1	0.023000
3.616667	1	0.024500
3.633333	1	0.024625
3.650000	1	0.024750
3.666667	1	0.025000
3.683333	1	0.024750
3.700000	1	0.024125
3.716667	1	0.023875
3.733333	1	0.023500
3.750000	1	0.023375
3.766667	1	0.022750
3.783333	1	0.022375
3.800000	1	0.022250
3.816667	1	0.021750
3.833333	1	0.021375
3.850000	1	0.020500
3.866667	1	0.019750
3.883333	1	0.018875
3.900000	1	0.018125
3.916667	1	0.018000
3.933333	1	0.017250
3.950000	1	0.016125
3.966667	1	0.014750
3.983333	1	0.013375
4.000000	1	0.012750
4.016667	1	0.011750
4.033333	1	0.011625
4.050000	1	0.010500
4.066667	1	0.009250
4.083333	1	0.008750
4.100000	1	0.008125
4.116667	1	0.007500
4.133333	1	0.007750
4.150000	1	0.006250
4.166667	1	0.005875
4.183333	1	0.005125
4.200000	1	0.005625
4.216667	1	0.004875
4.233333	1	0.004375
4.250000	1	0.004375
4.266667	1	0.003875
4.283333	1	0.003625
4.300000	1	0.003250
4.316667	1	0.002750
4.333333	1	0.003125
4.350000	1	0.003750
4.366667	1	0.003875
4.383333	1	0.003875
4.400000	1	0.004000
4.416667	1	0.005000
4.433333	1	0.005250
4.450000	1	0.006125
4.466667	1	0.006250
4.483333	1	0.006625
4.500000	1	0.007250
4.516667	1	0.008000
4.533333	1	0.008875
4.550000	1	0.009625
4.566667	1	0.010875
4.583333	1	0.012250
4.600000	1	0.013000
4.616667	1	0.014875
4.633333	1	0.015750
4.650000	1	0.017375
4.666667	1	0.018750
4.683333	1	0.020375
4.700000	1	0.022375
4.716667	1	0.024250
4.733333	1	0.025875
4.750000	1	0.027875
4.766667	1	0.030000
4.783333	1	0.033125
4.800000	1	0.035000
4.816667	1	0.037250
4.833333	1	0.040500
4.850000	1	0.043500
4.866667	1	0.046750
4.883333	1	0.050000
4.900000	1	0.052625
4.916667	1	0.054875
4.933333	1	0.058000
4.950000	1	0.062000
4.966667	1	0.065250
4.983333	1	0.068750
5.000000	1	0.072125
5.016667	1	0.074875
5.033333	1	0.078250
5.050000	1	0.081500
5.066667	1	0.085750
5.083333	1	0.089500
5.100000	1	0.093625
5.116667	1	0.097625
5.133333	1	0.101625
5.150000	1	0.105125
5.166667	1	0.109000
5.183333	1	0.112750
5.200000	1	0.117000
5.216667	1	0.120875
5.233333	1	0.125000
5.250000	1	0.129750
5.266667	1	0.134750
5.283333	1	0.139000
5.300000	1	0.143500
5.316667	1	0.148125
5.333333	1	0.152500
5.350000	1	0.157000
5.366667	1	0.161875
5.383333	1	0.166250
5.400000	1	0.170875
5.416667	1	0.175250
5.433333	1	0.180125
5.450000	1	0.184375
5.466667	1	0.189000
5.483333	1	0.193500
5.500000	1	0.198125
5.516667	1	0.202250
5.533333	1	0.206125
5.550000	1	0.210000
5.566667	1	0.213875
5.583333	1	0.217500
5.600000	1	0.221750
5.616667	1	0.225250
5.633333	1	0.228625
5.650000	1	0.231500
5.666667	1	0.234250
5.683333	1	0.236625
5.700000	1	0.238500
5.716667	1	0.240375
5.733333	1	0.242500
5.750000	1	0.243750
5.766667	1	0.245125
5.783333	1	0.245750
5.800000	1	0.245625
5.816667	1	0.246250
5.833333	1	0.246000
5.850000	1	0.245500
5.866667	1	0.244750
5.883333	1	0.242750
5.900000	1	0.241000
5.916667	1	0.239875
5.933333	1	0.237875
5.950000	1	0.235750
5.966667	1	0.233250
5.983333	1	0.230125
6.000000	1	0.226750
6.016667	1	0.223000
6.033333	1	0.218875
6.050000	1	0.215375
6.066667	1	0.211000
6.083333	1	0.205875
6.100000	1	0.201375
6.116667	1	0.197875
6.133333	1	0.193375
6.150000	1	0.188125
6.166667	1	0.182625
6.183333	1	0.178250
6.200000	1	0.173000
6.216667	1	0.168000
6.233333	1	0.163000
6.250000	1	0.157375
6.266667	1	0.152125
6.283333	1	0.147125
6.300000	1	0.142125
6.316667	1	0.137125
6.333333	1	0.132750
6.350000	1	0.128500
6.366667	1	0.123500
6.383333	1	0.119625
6.400000	1	0.115375
6.416667	1	0.111500
6.433333	1	0.108000
6.450000	1	0.104625
6.466667	1	0.100500
6.483333	1	0.096750
6.500000	1	0.093000
6.516667	1	0.090250
6.533333	1	0.087375
6.550000	1	0.084750
6.566667	1	0.081500
6.583333	1	0.079000
6.600000	1	0.076375
6.616667	1	0.073875
6.633333	1	0.071500
6.650000	1	0.069625
6.666667	1	0.068000
6.683333	1	0.066000
6.700000	1	0.064000
6.716667	1	0.061625
6.733333	1	0.060250
6.750000	1	0.058750
6.766667	1	0.057375
6.783333	1	0.055500
6.800000	1	0.054500
6.816667	1	0.053500
6.833333	1	0.052000
6.850000	1	0.051000
6.866667	1	0.050250
6.883333	1	0.049500
6.900000	1	0.049000
6.916667	1	0.048750
6.933333	1	0.048500
6.950000	1	0.048750
6.966667	1	0.049125
6.983333	1	0.049500
7.000000	1	0.050625
7.016667	1	0.050750
7.033333	1	0.051375
7.050000	1	0.051875
7.066667	1	0.053375
7.083333	1	0.054750
7.100000	1	0.056750
7.116667	1	0.058250
7.133333	1	0.060375
7.150000	1	0.062125
7.166667	1	0.064625
7.183333	1	0.066375
7.200000	1	0.068625
7.216667	1	0.071250
7.233333	1	0.074375
7.250000	1	0.077500
7.266667	1	0.080000
7.283333	1	0.082875
7.300000	1	0.086125
7.316667	1	0.089500
7.333333	1	0.093000
7.350000	1	0.096750
7.366667	1	0.099875
7.383333	1	0.103000
7.400000	1	0.106000
7.416667	1	0.109375
7.433333	1	0.111875
7.450000	1	0.114875
7.466667	1	0.117125
7.483333	1	0.119500
7.500000	1	0.121500
7.516667	1	0.123375
7.533333	1	0.125750
7.550000	1	0.127250
7.566667	1	0.128875
7.583333	1	0.130500
7.600000	1	0.131125
7.616667	1	0.132000
7.633333	1	0.132875
7.650000	1	0.132750
7.666667	1	0.132500
7.683333	1	0.131500
7.700000	1	0.130875
7.716667	1	0.129625
7.733333	1	0.128875
7.750000	1	0.127500
7.766667	1	0.126000
7.783333	1	0.123750
7.800000	1	0.121125
7.816667	1	0.118375
7.833333	1	0.114875
7.850000	1	0.111625
7.866667	1	0.108125
7.883333	1	0.105250
7.900000	1	0.101250
7.916667	1	0.097500
7.933333	1	0.093750
7.950000	1	0.089625
7.966667	1	0.086125
7.983333	1	0.082250
8.000000	1	0.077875
8.016667	1	0.073750
8.033333	1	0.069500
8.050000	1	0.065250
8.066667	1	0.060375
8.083333	1	0.056375
8.100000	1	0.052000
8.116667	1	0.048125
8.133333	1	0.044750
8.150000	1	0.040875
8.166667	1	0.037000
8.183333	1	0.033625
8.200000	1	0.029875
8.216667	1	0.026125
8.233333	1	0.022750
8.250000	1	0.019875
8.266667	1	0.016875
8.283333	1	0.014000
8.300000	1	0.011125
8.316667	1	0.008250
8.333333	1	0.005875
8.350000	1	0.003750
8.366667	1	0.002375
8.383333	1	0.000750
8.400000	1	-0.000750
8.416667	1	-0.002500
8.433333	1	-0.004375
8.450000	1	-0.006000
8.466667	1	-0.007125
8.483333	1	-0.008625
8.500000	1	-0.010125
8.516667	1	-0.011750
8.533333	1	-0.013250
8.550000	1	-0.014375
8.566667	1	-0.015375
8.583333	1	-0.016500
8.600000	1	-0.017875
8.616667	1	-0.019125
8.633333	1	-0.020500
8.650000	1	-0.021250
8.666667	1	-0.022125
8.683333	1	-0.022375
8.700000	1	-0.022875
8.716667	1	-0.022875
8.733333	1	-0.023625
8.750000	1	-0.023500
8.766667	1	-0.023875
8.783333	1	-0.023625
8.800000	1	-0.023000
8.816667	1	-0.022500
8.833333	1	-0.021625
8.850000	1	-0.020500
8.866667	1	-0.020500
8.883333	1	-0.019750
8.900000	1	-0.018500
8.916667	1	-0.017250
8.933333	1	-0.016250
8.950000	1	-0.015125
8.966667	1	-0.013875
8.983333	1	-0.012625
9.000000	1	-0.011250
9.016667	1	-0.009250
9.033333	1	-0.007875
9.050000	1	-0.006125
9.066667	1	-0.005375
9.083333	1	-0.004375
9.100000	1	-0.003000
9.116667	1	-0.002625
9.133333	1	-0.002000
9.150000	1	-0.001125
9.166667	1	0.000000
9.183333	1	0.000625
9.200000	1	0.001875
9.216667	1	0.002500
9.233333	1	0.002375
9.250000	1	0.002250
9.266667	1	0.002500
9.283333	1	0.002500
9.300000	1	0.002625
9.316667	1	0.002375
9.333333	1	0.002000
9.350000	1	0.001500
9.366667	1	0.000375
9.383333	1	0.000625
9.400000	1	-0.000250
9.416667	1	-0.001250
9.433333	1	-0.002500
9.450000	1	-0.003000
9.466667	1	-0.004125
9.483333	1	-0.005250
9.500000	1	-0.006625
9.516667	1	-0.007750
9.533333	1	-0.009375
9.550000	1	-0.010625
9.566667	1	-0.011625
9.583333	1	-0.012875
9.600000	1	-0.014250
9.616667	1	-0.016000
9.633333	1	-0.017500
9.650000	1	-0.019000
9.666667	1	-0.020000
9.683333	1	-0.020625
9.700000	1	-0.021500
9.716667	1	-0.022875
9.733333	1	-0.024000
9.750000	1	-0.025000
9.766667	1	-0.025625
9.783333	1	-0.027125
9.800000	1	-0.028250
9.816667	1	-0.029625
9.833333	1	-0.030125
9.850000	1	-0.031000
9.866667	1	-0.031500
9.883333	1	-0.032875
9.900000	1	-0.032625
9.916667	1	-0.032750
9.933333	1	-0.032125
9.950000	1	-0.033000
9.966667	1	-0.032875
9.983333	1	-0.032250
10.000000	1	-0.031250
10.016667	1	-0.030125
10.033333	1	-0.028875
10.050000	1	-0.026625
10.066667	1	-0.023250
10.083333	1	-0.019875
10.100000	1	-0.015500
10.116667	1	-0.009750
10.133333	1	-0.003500
10.150000	1	0.003375
10.166667	1	0.011625
10.183333	1	0.021625
10.200000	1	0.033000
10.216667	1	0.045625
10.233333	1	0.059750
10.250000	1	0.076500
10.266667	1	0.095250
10.283333	1	0.116375
10.300000	1	0.140125
10.316667	1	0.166875
10.333333	1	0.196125
10.350000	1	0.228625
10.366667	1	0.263125
10.383333	1	0.299500
10.400000	1	0.333750
10.416667	1	0.361625
10.433333	1	0.374750
10.450000	1	0.363250
10.466667	1	0.323500
10.483333	1	0.258250
10.500000	1	0.186125
10.516667	1	0.148250
10.533333	1	0.207125
10.550000	1	0.443750
10.566667	1	0.945875
10.583333	1	1.801625
10.600000	1	3.089625
10.616667	1	4.872500
10.633333	1	7.189875
10.650000	1	10.063875
10.666667	1	13.500625
10.683333	1	17.487125
10.700000	1	21.989000
10.716667	1	26.938375
10.733333	1	32.228625
10.750000	1	37.698125
10.766667	1	43.109750
10.783333	1	48.139125
10.800000	1	52.377000
10.816667	1	55.373250
10.833333	1	56.731125
10.850000	1	56.228125
10.866667	1	53.894375
10.883333	1	50.025375
10.900000	1	45.099125
10.916667	1	39.648375
10.933333	1	34.142125
10.950000	1	28.924000
10.966667	1	24.203000
10.983333	1	20.077125
11.000000	1	16.567125
11.016667	1	13.647000
11.033333	1	11.261875
11.050000	1	9.340375
11.066667	1	7.807000
11.083333	1	6.590125
11.100000	1	5.625000
11.116667	1	4.857875
11.133333	1	4.244000
11.150000	1	3.748750
11.166667	1	3.346500
11.183333	1	3.015375
11.200000	1	2.740375
11.216667	1	2.509250
11.233333	1	2.312875
11.250000	1	2.144875
11.266667	1	2.000125
11.283333	1	1.874500
11.300000	1	1.764625
11.316667	1	1.668875
11.333333	1	1.584375
11.350000	1	1.510625
11.366667	1	1.445125
11.383333	1	1.387875
11.400000	1	1.336375
11.416667	1	1.291625
11.433333	1	1.251500
11.450000	1	1.214875
11.466667	1	1.182375
11.483333	1	1.153625
11.500000	1	1.127000
11.516667	1	1.102875
11.533333	1	1.081250
11.550000	1	1.061750
11.566667	1	1.043875
11.583333	1	1.028000
11.600000	1	1.013875
11.616667	1	1.001750
11.633333	1	0.991000
11.650000	1	0.982375
11.666667	1	0.975875
11.683333	1	0.971625
11.700000	1	0.969625
11.716667	1	0.969250
11.733333	1	0.970125
11.750000	1	0.973000
11.766667	1	0.977000
11.783333	1	0.982250
11.800000	1	0.988250
11.816667	1	0.995000
11.833333	1	1.002125
11.850000	1	1.009000
11.866667	1	1.016625
11.883333	1	1.024000
11.900000	1	1.030750
11.916667	1	1.037750
11.933333	1	1.044875
11.950000	1	1.051125
11.966667	1	1.057750
11.983333	1	1.063250
12.000000	1	1.068000
12.016667	1	1.074000
12.033333	1	1.079875
12.050000	1	1.085250
12.066667	1	1.090375
12.083333	1	1.096125
12.100000	1	1.102250
12.116667	1	1.109125
12.133333	1	1.115500
12.150000	1	1.122625
12.166667	1	1.129875
12.183333	1	1.138375
12.200000	1	1.148000
12.216667	1	1.158375
12.233333	1	1.169625
12.250000	1	1.183375
12.266667	1	1.197750
12.283333	1	1.214250
12.300000	1	1.232000
12.316667	1	1.252875
12.333333	1	1.275875
12.350000	1	1.304500
12.366667	1	1.339625
12.383333	1	1.386250
12.400000	1	1.448000
12.416667	1	1.531250
12.433333	1	1.642250
12.450000	1	1.788750
12.466667	1	1.978375
12.483333	1	2.218250
12.500000	1	2.512625
12.516667	1	2.864000
12.533333	1	3.272125
12.550000	1	3.731125
12.566667	1	4.233250
12.583333	1	4.766750
12.600000	1	5.317625
12.616667	1	5.870000
12.633333	1	6.408875
12.650000	1	6.922250
12.666667	1	7.397375
12.683333	1	7.824750
12.700000	1	8.197250
12.716667	1	8.507375
12.733333	1	8.747625
12.750000	1	8.909625
12.766667	1	8.984125
12.783333	1	8.962500
12.800000	1	8.842000
12.816667	1	8.626000
12.833333	1	8.327375
12.850000	1	7.966125
12.866667	1	7.563625
12.883333	1	7.140875
12.900000	1	6.713250
12.916667	1	6.292000
12.933333	1	5.883125
12.950000	1	5.492125
12.966667	1	5.122250
12.983333	1	4.777875
13.000000	1	4.461250
13.016667	1	4.172625
13.033333	1	3.914000
13.050000	1	3.683375
13.066667	1	3.479625
13.083333	1	3.300125
13.100000	1	3.141875
13.116667	1	3.001750
13.133333	1	2.876625
13.150000	1	2.764625
13.166667	1	2.663875
13.183333	1	2.572625
13.200000	1	2.489500
13.216667	1	2.412875
13.233333	1	2.342250
13.250000	1	2.275375
13.266667	1	2.213750
13.283333	1	2.155500
13.300000	1	2.100500
13.316667	1	2.048500
13.333333	1	2.000375
13.350000	1	1.956125
13.366667	1	1.915375
13.383333	1	1.878000
13.400000	1	1.844250
13.416667	1	1.814125
13.433333	1	1.789625
13.450000	1	1.770000
13.466667	1	1.754625
13.483333	1	1.744625
13.500000	1	1.739250
13.516667	1	1.737125
13.533333	1	1.738250
13.550000	1	1.742000
13.566667	1	1.746500
13.583333	1	1.749375
13.600000	1	1.750750
13.616667	1	1.749500
13.633333	1	1.742750
13.650000	1	1.732125
13.666667	1	1.716000
13.683333	1	1.695125
13.700000	1	1.670125
13.716667	1	1.641750
13.733333	1	1.611500
13.750000	1	1.579625
13.766667	1	1.547125
13.783333	1	1.515500
13.800000	1	1.484625
13.816667	1	1.454625
13.833333	1	1.426750
13.850000	1	1.399625
13.866667	1	1.374500
13.883333	1	1.351125
13.900000	1	1.329875
13.916667	1	1.309500
13.933333	1	1.289875
13.950000	1	1.272125
13.966667	1	1.255625
13.983333	1	1.239625
14.000000	1	1.225000
14.016667	1	1.210750
14.033333	1	1.197500
14.050000	1	1.185375
14.066667	1	1.173500
14.083333	1	1.162500
14.100000	1	1.151125
14.116667	1	1.140625
14.133333	1	1.130375
14.150000	1	1.121000
14.166667	1	1.112500
14.183333	1	1.104750
14.200000	1	1.098375
14.216667	1	1.092750
14.233333	1	1.087750
14.250000	1	1.085000
14.266667	1	1.083750
14.283333	1	1.083625
14.300000	1	1.085000
14.316667	1	1.089000
14.333333	1	1.094375
14.350000	1	1.101875
14.366667	1	1.111125
14.383333	1	1.121750
14.400000	1	1.136125
14.416667	1	1.155375
14.433333	1	1.182125
14.450000	1	1.220500
14.466667	1	1.276750
14.483333	1	1.360500
14.500000	1	1.488875
14.516667	1	1.680875
14.533333	1	1.966375
14.550000	1	2.381000
14.566667	1	2.972000
14.583333	1	3.790125
14.600000	1	4.896875
14.616667	1	6.354875
14.633333	1	8.227500
14.650000	1	10.566750
14.666667	1	13.406875
14.683333	1	16.754750
14.700000	1	20.582375
14.716667	1	24.819500
14.733333	1	29.354500
14.750000	1	34.036875
14.766667	1	38.686000
14.783333	1	43.097625
14.800000	1	47.074500
14.816667	1	50.427125
14.833333	1	52.998000
14.850000	1	54.670875
14.866667	1	55.384375
14.883333	1	55.134125
14.900000	1	53.974875
14.916667	1	52.010875
14.933333	1	49.378500
14.950000	1	46.235250
14.966667	1	42.749000
14.983333	1	39.079500
15.000000	1	35.361125
15.016667	1	31.708625
15.033333	1	28.210250
15.050000	1	24.929875
15.066667	1	21.907375
15.083333	1	19.165375
15.100000	1	16.710125
15.116667	1	14.533750
15.133333	1	12.619250
15.150000	1	10.947250
15.166667	1	9.494625
15.183333	1	8.239000
15.200000	1	7.157500
15.216667	1	6.229000
15.233333	1	5.435500
15.250000	1	4.760000
15.266667	1	4.189125
15.283333	1	3.711000
15.300000	1	3.314000
15.316667	1	2.989000
15.333333	1	2.725250
15.350000	1	2.516000
15.366667	1	2.352125
15.383333	1	2.227000
15.400000	1	2.134000
15.416667	1	2.064375
15.433333	1	2.012875
15.450000	1	1.974125
15.466667	1	1.943250
15.483333	1	1.915125
15.500000	1	1.886875
15.516667	1	1.856875
15.533333	1	1.822375
15.550000	1	1.784375
15.566667	1	1.741875
15.583333	1	1.697000
15.600000	1	1.650000
15.616667	1	1.602375
15.633333	1	1.555000
15.650000	1	1.508125
15.666667	1	1.464250
15.683333	1	1.422875
15.700000	1	1.383875
15.716667	1	1.348125
15.733333	1	1.315000
15.750000	1	1.284000
15.766667	1	1.256250
15.783333	1	1.230375
15.800000	1	1.205750
15.816667	1	1.183500
15.833333	1	1.163625
15.850000	1	1.145125
15.866667	1	1.129000
15.883333	1	1.114500
15.900000	1	1.101625
15.916667	1	1.090375
15.933333	1	1.081250
15.950000	1	1.073750
15.966667	1	1.068500
15.983333	1	1.064375
16.000000	1	1.060750
16.016667	1	1.058625
16.033333	1	1.057625
16.050000	1	1.057250
16.066667	1	1.057875
16.083333	1	1.058750
16.100000	1	1.059250
16.116667	1	1.060375
16.133333	1	1.060625
16.150000	1	1.060375
16.166667	1	1.060000
16.183333	1	1.058750
16.200000	1	1.056125
16.216667	1	1.053375
16.233333	1	1.050125
16.250000	1	1.046500
16.266667	1	1.041500
16.283333	1	1.036500
16.300000	1	1.030625
16.316667	1	1.025125
16.333333	1	1.020375
16.350000	1	1.016875
16.366667	1	1.013500
16.383333	1	1.011875
16.400000	1	1.011625
16.416667	1	1.013750
16.433333	1	1.016750
16.450000	1	1.020750
16.466667	1	1.025125
16.483333	1	1.031125
16.500000	1	1.037125
16.516667	1	1.042250
16.533333	1	1.047375
16.550000	1	1.051500
16.566667	1	1.053625
16.583333	1	1.054250
16.600000	1	1.053625
16.616667	1	1.051375
16.633333	1	1.048250
16.650000	1	1.044500
16.666667	1	1.040375
16.683333	1	1.036750
16.700000	1	1.034125
16.716667	1	1.032625
16.733333	1	1.032125
16.750000	1	1.032875
16.766667	1	1.035500
16.783333	1	1.040375
16.800000	1	1.046375
16.816667	1	1.053000
16.833333	1	1.059750
16.850000	1	1.066875
16.866667	1	1.072750
16.883333	1	1.077875
16.900000	1	1.081625
16.916667	1	1.084250
16.933333	1	1.085750
16.950000	1	1.085000
16.966667	1	1.083000
16.983333	1	1.079625
17.000000	1	1.076375
17.016667	1	1.072125
17.033333	1	1.067875
17.050000	1	1.063750
17.066667	1	1.059875
17.083333	1	1.055750
17.100000	1	1.052625
17.116667	1	1.050250
17.133333	1	1.048500
17.150000	1	1.047375
17.166667	1	1.047875
17.183333	1	1.049500
17.200000	1	1.051375
17.216667	1	1.054375
17.233333	1	1.058000
17.250000	1	1.062125
17.266667	1	1.066500
17.283333	1	1.071875
17.300000	1	1.077000
17.316667	1	1.082125
17.333333	1	1.087750
17.350000	1	1.093500
17.366667	1	1.099125
17.383333	1	1.103875
17.400000	1	1.107875
17.416667	1	1.110875
17.433333	1	1.112625
17.450000	1	1.113625
17.466667	1	1.113250
17.483333	1	1.110500
17.500000	1	1.105625
17.516667	1	1.099000
17.533333	1	1.091375
17.550000	1	1.082875
17.566667	1	1.072125
17.583333	1	1.059875
17.600000	1	1.046375
17.616667	1	1.032500
17.633333	1	1.017375
17.650000	1	1.002875
17.666667	1	0.987000
17.683333	1	0.971750
17.700000	1	0.956000
17.716667	1	0.940750
17.733333	1	0.925625
17.750000	1	0.910875
17.766667	1	0.897375
17.783333	1	0.884000
17.800000	1	0.872125
17.816667	1	0.860125
17.833333	1	0.848250
17.850000	1	0.838000
17.866667	1	0.828625
17.883333	1	0.819625
17.900000	1	0.811000
17.916667	1	0.802250
17.933333	1	0.794500
17.950000	1	0.785875
17.966667	1	0.777750
17.983333	1	0.770125
18.000000	1	0.762375
18.016667	1	0.754250
18.033333	1	0.746250
18.050000	1	0.738875
18.066667	1	0.732125
18.083333	1	0.725125
18.100000	1	0.719750
18.116667	1	0.715250
18.133333	1	0.711125
18.150000	1	0.708000
18.166667	1	0.705250
18.183333	1	0.703500
18.200000	1	0.702125
18.216667	1	0.700750
18.233333	1	0.700875
18.250000	1	0.700750
18.266667	1	0.700375
18.283333	1	0.700375
18.300000	1	0.700750
18.316667	1	0.701625
18.333333	1	0.702125
18.350000	1	0.703500
18.366667	1	0.705500
18.383333	1	0.708375
18.400000	1	0.712500
18.416667	1	0.717875
18.433333	1	0.724125
18.450000	1	0.731625
18.466667	1	0.741375
18.483333	1	0.752625
18.500000	1	0.766000
18.516667	1	0.781250
18.533333	1	0.798375
18.550000	1	0.817500
18.566667	1	0.838875
18.583333	1	0.863250
18.600000	1	0.888750
18.616667	1	0.915625
18.633333	1	0.944375
18.650000	1	0.973375
18.666667	1	1.005125
18.683333	1	1.037000
18.700000	1	1.070875
18.716667	1	1.104750
18.733333	1	1.139250
18.750000	1	1.173750
18.766667	1	1.207625
18.783333	1	1.240750
18.800000	1	1.271500
18.816667	1	1.300500
18.833333	1	1.326125
18.850000	1	1.347625
18.866667	1	1.365125
18.883333	1	1.377750
18.900000	1	1.384375
18.916667	1	1.384625
18.933333	1	1.379125
18.950000	1	1.368125
18.966667	1	1.351375
18.983333	1	1.327125
19.000000	1	1.297500
19.016667	1	1.263875
19.033333	1	1.226250
19.050000	1	1.186375
19.066667	1	1.144875
19.083333	1	1.103000
19.100000	1	1.062625
19.116667	1	1.025125
19.133333	1	0.991500
19.150000	1	0.964375
19.166667	1	0.943250
19.183333	1	0.932125
19.200000	1	0.932000
19.216667	1	0.943750
19.233333	1	0.969125
19.250000	1	1.009000
19.266667	1	1.065250
19.283333	1	1.137875
19.300000	1	1.226875
19.316667	1	1.331500
19.333333	1	1.450750
19.350000	1	1.582375
19.366667	1	1.724750
19.383333	1	1.872625
19.400000	1	2.023125
19.416667	1	2.171375
19.433333	1	2.313875
19.450000	1	2.445750
19.466667	1	2.561750
19.483333	1	2.659625
19.500000	1	2.736500
19.516667	1	2.789750
19.533333	1	2.818500
19.550000	1	2.823000
19.566667	1	2.804375
19.583333	1	2.764500
19.600000	1	2.704500
19.616667	1	2.627375
19.633333	1	2.536125
19.650000	1	2.434250
19.666667	1	2.324500
19.683333	1	2.209875
19.700000	1	2.092750
19.716667	1	1.975500
19.733333	1	1.859125
19.750000	1	1.745750
19.766667	1	1.636875
19.783333	1	1.530875
19.800000	1	1.431000
19.816667	1	1.337000
19.833333	1	1.248250
19.850000	1	1.165250
19.866667	1	1.088125
19.883333	1	1.016375
19.900000	1	0.951375
19.916667	1	0.892625
19.933333	1	0.839250
19.950000	1	0.792750
19.966667	1	0.752875
19.983333	1	0.719750
20.000000	1	0.692875
20.016667	1	0.673250
20.033333	1	0.660750
20.050000	1	0.655500
20.066667	1	0.657250
20.083333	1	0.666875
20.100000	1	0.683000
20.116667	1	0.706125
20.133333	1	0.734500
20.150000	1	0.768000
20.166667	1	0.805125
20.183333	1	0.844250
20.200000	1	0.884750
20.216667	1	0.923625
20.233333	1	0.960250
20.250000	1	0.993250
20.266667	1	1.020625
20.283333	1	1.042000
20.300000	1	1.056500
20.316667	1	1.062250
20.333333	1	1.060625
20.350000	1	1.051875
20.366667	1	1.035625
20.383333	1	1.013000
20.400000	1	0.984625
20.416667	1	0.953000
20.433333	1	0.918250
20.450000	1	0.883000
20.466667	1	0.848000
20.483333	1	0.816625
20.500000	1	0.788500
20.516667	1	0.766375
20.533333	1	0.751375
20.550000	1	0.745625
20.566667	1	0.750500
20.583333	1	0.767750
20.600000	1	0.798250
20.616667	1	0.844625
20.633333	1	0.906750
20.650000	1	0.985500
20.666667	1	1.080375
20.683333	1	1.190750
20.700000	1	1.316125
20.716667	1	1.454125
20.733333	1	1.602500
20.750000	1	1.757000
20.766667	1	1.915000
20.783333	1	2.070125
20.800000	1	2.219750
20.816667	1	2.357125
20.833333	1	2.478875
20.850000	1	2.580000
20.866667	1	2.658875
20.883333	1	2.711750
20.900000	1	2.738125
20.916667	1	2.737250
20.933333	1	2.710000
20.950000	1	2.658250
20.966667	1	2.584875
20.983333	1	2.493250
21.000000	1	2.385625
21.016667	1	2.266375
21.033333	1	2.138625
21.050000	1	2.007875
21.066667	1	1.875000
21.083333	1	1.743875
21.100000	1	1.616250
21.116667	1	1.494750
21.133333	1	1.379000
21.150000	1	1.270375
21.166667	1	1.170625
21.183333	1	1.079250
21.200000	1	0.995750
21.216667	1	0.919500
21.233333	1	0.851250
21.250000	1	0.790250
21.266667	1	0.734875
21.283333	1	0.685625
21.300000	1	0.641750
21.316667	1	0.602750
21.333333	1	0.567500
21.350000	1	0.536750
21.366667	1	0.509000
21.383333	1	0.484875
21.400000	1	0.463375
21.416667	1	0.443250
21.433333	1	0.425375
21.450000	1	0.409125
21.466667	1	0.395250
21.483333	1	0.382750
21.500000	1	0.371500
21.516667	1	0.362000
21.533333	1	0.353250
21.550000	1	0.345875
21.566667	1	0.340000
21.583333	1	0.335125
21.600000	1	0.331375
21.616667	1	0.329500
21.633333	1	0.328500
21.650000	1	0.328750
21.666667	1	0.329500
21.683333	1	0.332625
21.700000	1	0.336000
21.716667	1	0.341750
21.733333	1	0.347625
21.750000	1	0.355125
21.766667	1	0.363125
21.783333	1	0.371625
21.800000	1	0.380875
21.816667	1	0.391125
21.833333	1	0.401375
21.850000	1	0.411500
21.866667	1	0.421375
21.883333	1	0.430875
21.900000	1	0.440375
21.916667	1	0.449000
21.933333	1	0.457000
21.950000	1	0.465250
21.966667	1	0.472875
21.983333	1	0.478750
22.000000	1	0.484375
22.016667	1	0.489250
22.033333	1	0.493500
22.050000	1	0.497125
22.066667	1	0.499875
22.083333	1	0.501750
22.100000	1	0.503250
22.116667	1	0.503750
22.133333	1	0.503500
22.150000	1	0.501875
22.166667	1	0.499375
22.183333	1	0.495625
22.200000	1	0.490875
22.216667	1	0.485500
22.233333	1	0.478375
22.250000	1	0.470500
22.266667	1	0.462125
22.283333	1	0.452875
22.300000	1	0.442875
22.316667	1	0.431625
22.333333	1	0.420125
22.350000	1	0.408125
22.366667	1	0.396000
22.383333	1	0.383875
22.400000	1	0.372375
22.416667	1	0.360750
22.433333	1	0.349625
22.450000	1	0.338625
22.466667	1	0.328000
22.483333	1	0.317500
22.500000	1	0.308000
22.516667	1	0.299000
22.533333	1	0.290500
22.550000	1	0.282875
22.566667	1	0.274500
22.583333	1	0.268375
22.600000	1	0.261875
22.616667	1	0.255375
22.633333	1	0.248625
22.650000	1	0.243250
22.666667	1	0.237875
22.683333	1	0.233375
22.700000	1	0.229250
22.716667	1	0.224625
22.733333	1	0.221000
22.750000	1	0.217125
22.766667	1	0.213500
22.783333	1	0.209750
22.800000	1	0.205750
22.816667	1	0.202125
22.833333	1	0.199375
22.850000	1	0.196250
22.866667	1	0.193750
22.883333	1	0.191375
22.900000	1	0.189250
22.916667	1	0.187250
22.933333	1	0.186000
22.950000	1	0.184625
22.966667	1	0.183750
22.983333	1	0.183125
23.000000	1	0.182500
23.016667	1	0.182375
23.033333	1	0.182625
23.050000	1	0.183125
23.066667	1	0.184000
23.083333	1	0.184875
23.100000	1	0.186625
23.116667	1	0.187375
23.133333	1	0.188125
23.150000	1	0.188875
23.166667	1	0.189500
23.183333	1	0.190500
23.200000	1	0.191625
23.216667	1	0.193500
23.233333	1	0.195000
23.250000	1	0.197375
23.266667	1	0.200125
23.283333	1	0.205250
23.300000	1	0.211750
23.316667	1	0.221250
23.333333	1	0.234125
23.350000	1	0.251625
23.366667	1	0.275375
23.383333	1	0.305750
23.400000	1	0.346375
23.416667	1	0.398375
23.433333	1	0.464125
23.450000	1	0.545375
23.466667	1	0.645625
23.483333	1	0.768375
23.500000	1	0.915750
23.516667	1	1.089750
23.533333	1	1.293375
23.550000	1	1.528125
23.566667	1	1.794875
23.583333	1	2.093250
23.600000	1	2.423125
23.616667	1	2.781750
23.633333	1	3.166125
23.650000	1	3.570125
23.666667	1	3.989000
23.683333	1	4.415625
23.700000	1	4.842875
23.716667	1	5.262500
23.733333	1	5.665875
23.750000	1	6.042750
23.766667	1	6.384875
23.783333	1	6.684375
23.800000	1	6.934000
23.816667	1	7.129750
23.833333	1	7.267250
23.850000	1	7.345625
23.866667	1	7.364250
23.883333	1	7.325250
23.900000	1	7.230500
23.916667	1	7.084500
23.933333	1	6.892500
23.950000	1	6.661000
23.966667	1	6.396625
23.983333	1	6.106125
24.000000	1	5.796750
24.016667	1	5.474500
24.033333	1	5.145625
24.050000	1	4.815500
24.066667	1	4.488625
24.083333	1	4.168750
24.100000	1	3.858875
24.116667	1	3.561375
24.133333	1	3.277875
24.150000	1	3.010000
24.166667	1	2.758875
24.183333	1	2.523875
24.200000	1	2.305875
24.216667	1	2.103875
24.233333	1	1.918375
24.250000	1	1.747875
24.266667	1	1.591875
24.283333	1	1.449375
24.300000	1	1.320125
24.316667	1	1.202750
24.333333	1	1.096375
24.350000	1	1.000625
24.366667	1	0.915625
24.383333	1	0.839500
24.400000	1	0.771875
24.416667	1	0.712250
24.433333	1	0.659500
24.450000	1	0.612875
24.466667	1	0.573000
24.483333	1	0.538500
24.500000	1	0.507750
24.516667	1	0.482250
24.533333	1	0.459375
24.550000	1	0.439875
24.566667	1	0.423125
24.583333	1	0.409250
24.600000	1	0.397125
24.616667	1	0.386375
24.633333	1	0.376125
24.650000	1	0.367375
24.666667	1	0.358250
24.683333	1	0.351125
24.700000	1	0.344000
24.716667	1	0.337500
24.733333	1	0.331500
24.750000	1	0.325250
24.766667	1	0.319500
24.783333	1	0.313500
24.800000	1	0.307750
24.816667	1	0.302125
24.833333	1	0.296875
24.850000	1	0.291625
24.866667	1	0.287000
24.883333	1	0.282375
24.900000	1	0.277875
24.916667	1	0.273750
24.933333	1	0.269500
24.950000	1	0.265625
24.966667	1	0.262000
24.983333	1	0.258625
25.000000	1	0.255875
25.016667	1	0.252500
25.033333	1	0.249750
25.050000	1	0.246500
25.066667	1	0.244125
25.083333	1	0.241500
25.100000	1	0.239125
25.116667	1	0.236375
25.133333	1	0.233375
25.150000	1	0.230250
25.166667	1	0.227750
25.183333	1	0.225500
25.200000	1	0.222875
25.216667	1	0.220250
25.233333	1	0.218375
25.250000	1	0.215750
25.266667	1	0.213500
25.283333	1	0.211250
25.300000	1	0.209625
25.316667	1	0.208625
25.333333	1	0.207000
25.350000	1	0.206125
25.366667	1	0.204125
25.383333	1	0.202875
25.400000	1	0.202000
25.416667	1	0.201500
25.433333	1	0.201000
25.450000	1	0.201250
25.466667	1	0.201250
25.483333	1	0.201500
25.500000	1	0.202250
25.516667	1	0.202750
25.533333	1	0.203750
25.550000	1	0.203875
25.566667	1	0.204375
25.583333	1	0.204375
25.600000	1	0.204875
25.616667	1	0.205750
25.633333	1	0.206375
25.650000	1	0.206500
25.666667	1	0.206875
25.683333	1	0.207125
25.700000	1	0.207125
25.716667	1	0.206875
25.733333	1	0.206625
25.750000	1	0.206125
25.766667	1	0.205625
25.783333	1	0.204375
25.800000	1	0.203250
25.816667	1	0.202250
25.833333	1	0.201750
25.850000	1	0.201375
25.866667	1	0.201625
25.883333	1	0.201375
25.900000	1	0.201500
25.916667	1	0.202250
25.933333	1	0.202875
25.950000	1	0.203625
25.966667	1	0.204875
25.983333	1	0.206750
26.000000	1	0.209500
26.016667	1	0.212250
26.033333	1	0.215875
26.050000	1	0.219750
26.066667	1	0.224375
26.083333	1	0.229500
26.100000	1	0.235375
26.116667	1	0.241500
26.133333	1	0.247750
26.150000	1	0.254000
26.166667	1	0.260125
26.183333	1	0.266375
26.200000	1	0.273000
26.216667	1	0.280000
26.233333	1	0.286125
26.250000	1	0.293125
26.266667	1	0.299000
26.283333	1	0.304250
26.300000	1	0.309750
26.316667	1	0.314125
26.333333	1	0.318375
26.350000	1	0.321500
26.366667	1	0.323875
26.383333	1	0.325000
26.400000	1	0.326625
26.416667	1	0.326750
26.433333	1	0.327000
26.450000	1	0.325625
26.466667	1	0.323500
26.483333	1	0.321125
26.500000	1	0.318750
26.516667	1	0.314500
26.533333	1	0.310250
26.550000	1	0.305375
26.566667	1	0.300375
26.583333	1	0.294750
26.600000	1	0.289250
26.616667	1	0.283750
26.633333	1	0.278375
26.650000	1	0.272625
26.666667	1	0.266250
26.683333	1	0.260375
26.700000	1	0.254125
26.716667	1	0.249000
26.733333	1	0.243625
26.750000	1	0.238750
26.766667	1	0.233125
26.783333	1	0.228000
26.800000	1	0.223375
26.816667	1	0.219625
26.833333	1	0.216000
26.850000	1	0.212625
26.866667	1	0.209625
26.883333	1	0.207125
26.900000	1	0.205000
26.916667	1	0.202125
26.933333	1	0.200625
26.950000	1	0.198500
26.966667	1	0.197000
26.983333	1	0.195625
27.000000	1	0.195375
27.016667	1	0.195125
27.033333	1	0.195375
27.050000	1	0.195875
27.066667	1	0.197000
27.083333	1	0.198000
27.100000	1	0.199625
27.116667	1	0.201000
27.133333	1	0.204000
27.150000	1	0.207125
27.166667	1	0.210375
27.183333	1	0.215625
27.200000	1	0.220875
27.216667	1	0.228625
27.233333	1	0.237625
27.250000	1	0.248500
27.266667	1	0.261375
27.283333	1	0.277375
27.300000	1	0.296500
27.316667	1	0.319125
27.333333	1	0.346250
27.350000	1	0.378500
27.366667	1	0.416125
27.383333	1	0.459750
27.400000	1	0.510375
27.416667	1	0.569500
27.433333	1	0.637250
27.450000	1	0.714375
27.466667	1	0.802125
27.483333	1	0.900250
27.500000	1	1.009125
27.516667	1	1.129125
27.533333	1	1.260750
27.550000	1	1.403375
27.566667	1	1.556875
27.583333	1	1.720000
27.600000	1	1.891250
27.616667	1	2.070250
27.633333	1	2.255000
27.650000	1	2.443625
27.666667	1	2.633875
27.683333	1	2.823625
27.700000	1	3.010375
27.716667	1	3.190500
27.733333	1	3.361625
27.750000	1	3.520000
27.766667	1	3.664125
27.783333	1	3.791500
27.800000	1	3.900000
27.816667	1	3.987375
27.833333	1	4.050625
27.850000	1	4.091125
27.866667	1	4.107875
27.883333	1	4.099625
27.900000	1	4.067000
27.916667	1	4.011625
27.933333	1	3.933750
27.950000	1	3.836875
27.966667	1	3.721000
27.983333	1	3.590625
28.000000	1	3.446750
28.016667	1	3.292875
28.033333	1	3.130875
28.050000	1	2.963250
28.066667	1	2.792125
28.083333	1	2.621000
28.100000	1	2.450875
28.116667	1	2.283125
28.133333	1	2.121000
28.150000	1	1.964375
28.166667	1	1.814750
28.183333	1	1.673250
28.200000	1	1.540750
28.216667	1	1.416250
28.233333	1	1.300625
28.250000	1	1.193125
28.266667	1	1.094375
28.283333	1	1.003750
28.300000	1	0.921125
28.316667	1	0.845875
28.333333	1	0.777750
28.350000	1	0.716500
28.366667	1	0.661750
28.383333	1	0.613375
28.400000	1	0.570375
28.416667	1	0.531875
28.433333	1	0.498500
28.450000	1	0.469500
28.466667	1	0.446125
28.483333	1	0.426375
28.500000	1	0.409500
28.516667	1	0.396625
28.533333	1	0.386625
28.550000	1	0.379250
28.566667	1	0.374375
28.583333	1	0.372125
28.600000	1	0.372625
28.616667	1	0.375000
28.633333	1	0.379125
28.650000	1	0.385000
28.666667	1	0.391375
28.683333	1	0.399125
28.700000	1	0.408500
28.716667	1	0.417375
28.733333	1	0.426625
28.750000	1	0.437000
28.766667	1	0.446375
28.783333	1	0.456000
28.800000	1	0.465750
28.816667	1	0.475500
28.833333	1	0.483750
28.850000	1	0.491875
28.866667	1	0.499375
28.883333	1	0.505375
28.900000	1	0.510625
28.916667	1	0.514000
28.933333	1	0.516875
28.950000	1	0.518750
28.966667	1	0.519250
28.983333	1	0.518125
29.000000	1	0.515875
29.016667	1	0.512500
29.033333	1	0.507125
29.050000	1	0.501000
29.066667	1	0.493250
29.083333	1	0.483250
29.100000	1	0.472375
29.116667	1	0.459250
29.133333	1	0.444875
29.150000	1	0.428625
29.166667	1	0.411250
29.183333	1	0.391750
29.200000	1	0.370750
29.216667	1	0.348125
29.233333	1	0.324000
29.250000	1	0.297875
29.266667	1	0.270250
29.283333	1	0.240375
29.300000	1	0.208125
29.316667	1	0.175125
29.333333	1	0.140375
29.350000	1	0.104000
29.366667	1	0.066250
29.383333	1	0.027500
29.400000	1	-0.012625
29.416667	1	-0.054500
29.433333	1	-0.096875
29.450000	1	-0.140000
29.466667	1	-0.183875
29.483333	1	-0.227250
29.500000	1	-0.272000
29.516667	1	-0.315250
29.533333	1	-0.358500
29.550000	1	-0.399750
29.566667	1	-0.440000
29.583333	1	-0.478750
29.600000	1	-0.515125
29.616667	1	-0.548750
29.633333	1	-0.579500
29.650000	1	-0.608250
29.666667	1	-0.633750
29.683333	1	-0.656625
29.700000	1	-0.675375
29.716667	1	-0.690500
29.733333	1	-0.702125
29.750000	1	-0.710375
29.766667	1	-0.714625
29.783333	1	-0.715125
29.800000	1	-0.712000
29.816667	1	-0.706000
29.833333	1	-0.696250
29.850000	1	-0.684125
29.866667	1	-0.668625
29.883333	1	-0.651250
29.900000	1	-0.631000
29.916667	1	-0.608875
29.933333	1	-0.585000
29.950000	1	-0.560375
29.966667	1	-0.534375
29.983333	1	-0.507750
30.000000	1	-0.479625
30.016667	1	-0.451125
30.033333	1	-0.422500
30.050000	1	-0.393625
30.066667	1	-0.365500
30.083333	1	-0.337875
30.100000	1	-0.311375
30.116667	1	-0.285625
30.133333	1	-0.260750
30.150000	1	-0.236000
30.166667	1	-0.211750
30.183333	1	-0.189250
30.200000	1	-0.168000
30.216667	1	-0.147625
30.233333	1	-0.128625
30.250000	1	-0.110875
30.266667	1	-0.094875
30.283333	1	-0.079125
30.300000	1	-0.065000
30.316667	1	-0.051125
30.333333	1	-0.039000
30.350000	1	-0.027000
30.366667	1	-0.016250
30.383333	1	-0.006250
30.400000	1	0.003125
30.416667	1	0.012000
30.433333	1	0.020875
30.450000	1	0.027750
30.466667	1	0.035500
30.483333	1	0.042250
30.500000	1	0.048500
30.516667	1	0.054375
30.533333	1	0.060250
30.550000	1	0.066500
30.566667	1	0.072625
30.583333	1	0.078875
30.600000	1	0.085375
30.616667	1	0.091625
30.633333	1	0.097750
30.650000	1	0.104500
30.666667	1	0.111375
30.683333	1	0.118125
30.700000	1	0.125625
30.716667	1	0.132625
30.733333	1	0.140375
30.750000	1	0.148625
30.766667	1	0.156500
30.783333	1	0.165125
30.800000	1	0.174375
30.816667	1	0.184250
30.833333	1	0.193375
30.850000	1	0.203500
30.866667	1	0.214000
30.883333	1	0.225000
30.900000	1	0.236875
30.916667	1	0.249625
30.933333	1	0.263000
30.950000	1	0.277750
30.966667	1	0.294750
30.983333	1	0.312875
31.000000	1	0.332125
31.016667	1	0.354500
31.033333	1	0.379875
31.050000	1	0.408000
31.066667	1	0.440000
31.083333	1	0.476000
31.100000	1	0.517125
31.116667	1	0.563250
31.133333	1	0.614000
31.150000	1	0.671875
31.166667	1	0.737250
31.183333	1	0.808875
31.200000	1	0.888625
31.216667	1	0.976750
31.233333	1	1.073500
31.250000	1	1.177875
31.266667	1	1.290500
31.283333	1	1.410500
31.300000	1	1.539125
31.316667	1	1.674000
31.333333	1	1.813625
31.350000	1	1.958875
31.366667	1	2.108500
31.383333	1	2.260875
31.400000	1	2.414625
31.416667	1	2.567375
31.433333	1	2.717125
31.450000	1	2.863250
31.466667	1	3.002875
31.483333	1	3.135500
31.500000	1	3.257875
31.516667	1	3.369625
31.533333	1	3.469375
31.550000	1	3.554750
31.566667	1	3.625250
31.583333	1	3.681250
31.600000	1	3.720375
31.616667	1	3.743375
31.633333	1	3.750250
31.650000	1	3.739875
31.666667	1	3.713250
31.683333	1	3.672500
31.700000	1	3.616875
31.716667	1	3.547875
31.733333	1	3.467125
31.750000	1	3.375000
31.766667	1	3.274000
31.783333	1	3.164750
31.800000	1	3.049000
31.816667	1	2.927750
31.833333	1	2.802375
31.850000	1	2.673750
31.866667	1	2.543875
31.883333	1	2.415250
31.900000	1	2.286375
31.916667	1	2.159125
31.933333	1	2.034750
31.950000	1	1.913625
31.966667	1	1.796500
31.983333	1	1.682125
32.000000	1	1.571375
32.016667	1	1.465625
32.033333	1	1.364875
32.050000	1	1.268750
32.066667	1	1.176875
32.083333	1	1.090875
32.100000	1	1.009375
32.116667	1	0.932750
32.133333	1	0.860125
32.150000	1	0.792375
32.166667	1	0.728750
32.183333	1	0.669000
32.200000	1	0.613000
32.216667	1	0.561625
32.233333	1	0.511750
32.250000	1	0.466250
32.266667	1	0.423000
32.283333	1	0.383375
32.300000	1	0.346125
32.316667	1	0.312250
32.333333	1	0.281000
32.350000	1	0.251125
32.366667	1	0.223625
32.383333	1	0.198750
32.400000	1	0.175875
32.416667	1	0.154375
32.433333	1	0.135250
32.450000	1	0.117125
32.466667	1	0.101625
32.483333	1	0.086750
32.500000	1	0.072875
32.516667	1	0.060250
32.533333	1	0.049375
32.550000	1	0.038875
32.566667	1	0.030500
32.583333	1	0.022375
32.600000	1	0.014625
32.616667	1	0.008375
32.633333	1	0.002000
32.650000	1	-0.004125
32.666667	1	-0.008500
32.683333	1	-0.012375
32.700000	1	-0.016125
32.716667	1	-0.018750
32.733333	1	-0.021375
32.750000	1	-0.024375
32.766667	1	-0.025875
32.783333	1	-0.027750
32.800000	1	-0.029375
32.816667	1	-0.030375
32.833333	1	-0.031125
32.850000	1	-0.032000
32.866667	1	-0.032750
32.883333	1	-0.032875
32.900000	1	-0.032875
32.916667	1	-0.033375
32.933333	1	-0.033625
32.950000	1	-0.033500
32.966667	1	-0.033125
32.983333	1	-0.032625
33.000000	1	-0.032375
33.016667	1	-0.031750
33.033333	1	-0.031875
33.050000	1	-0.031375
33.066667	1	-0.030750
33.083333	1	-0.030625
33.100000	1	-0.029125
33.116667	1	-0.028250
33.133333	1	-0.027375
33.150000	1	-0.026625
33.166667	1	-0.025375
33.183333	1	-0.024500
33.200000	1	-0.023125
33.216667	1	-0.022625
33.233333	1	-0.021250
33.250000	1	-0.020125
33.266667	1	-0.019125
33.283333	1	-0.016875
33.300000	1	-0.015500
33.316667	1	-0.014750
33.333333	1	-0.013750
33.350000	1	-0.012125
33.366667	1	-0.010125
33.383333	1	-0.008875
33.400000	1	-0.007125
33.416667	1	-0.005250
33.433333	1	-0.003750
33.450000	1	-0.002000
33.466667	1	-0.000750
33.483333	1	0.001625
33.500000	1	0.002750
33.516667	1	0.005000
33.533333	1	0.006500
33.550000	1	0.008750
33.566667	1	0.009875
33.583333	1	0.012375
33.600000	1	0.014500
33.616667	1	0.017500
33.633333	1	0.019375
33.650000	1	0.020750
33.666667	1	0.023500
33.683333	1	0.025875
33.700000	1	0.027625
33.716667	1	0.030375
33.733333	1	0.032625
33.750000	1	0.035500
33.766667	1	0.038625
33.783333	1	0.041000
33.800000	1	0.043875
33.816667	1	0.046875
33.833333	1	0.050000
33.850000	1	0.052750
33.866667	1	0.055375
33.883333	1	0.058000
33.900000	1	0.061000
33.916667	1	0.064250
33.933333	1	0.067375
33.950000	1	0.070000
33.966667	1	0.073250
33.983333	1	0.075750
34.000000	1	0.078000
34.016667	1	0.080250
34.033333	1	0.082375
34.050000	1	0.084375
34.066667	1	0.086750
34.083333	1	0.088000
34.100000	1	0.089125
34.116667	1	0.090125
34.133333	1	0.090750
34.150000	1	0.091625
34.166667	1	0.091875
34.183333	1	0.091750
34.200000	1	0.092000
34.216667	1	0.092625
34.233333	1	0.092375
34.250000	1	0.091625
34.266667	1	0.090625
34.283333	1	0.089375
34.300000	1	0.088375
34.316667	1	0.086625
34.333333	1	0.085750
34.350000	1	0.085000
34.366667	1	0.083500
34.383333	1	0.081375
34.400000	1	0.080375
34.416667	1	0.078625
34.433333	1	0.077375
34.450000	1	0.076125
34.466667	1	0.075125
34.483333	1	0.074125
34.500000	1	0.073875
34.516667	1	0.073375
34.533333	1	0.073125
34.550000	1	0.072000
34.566667	1	0.072500
34.583333	1	0.073000
34.600000	1	0.073625
34.616667	1	0.073625
34.633333	1	0.074250
34.650000	1	0.075125
34.666667	1	0.075500
34.683333	1	0.076125
34.700000	1	0.076875
34.716667	1	0.077625
34.733333	1	0.078500
34.750000	1	0.079625
34.766667	1	0.081000
34.783333	1	0.081625
34.800000	1	0.082250
34.816667	1	0.083375
34.833333	1	0.085000
34.850000	1	0.085875
34.866667	1	0.086250
34.883333	1	0.086625
34.900000	1	0.086875
34.916667	1	0.087125
34.933333	1	0.088000
34.950000	1	0.088375
34.966667	1	0.088750
34.983333	1	0.089375
35.000000	1	0.090000
35.016667	1	0.089875
35.033333	1	0.089500
35.050000	1	0.089000
35.066667	1	0.088500
35.083333	1	0.088125
35.100000	1	0.088250
35.116667	1	0.088000
35.133333	1	0.087750
35.150000	1	0.087375
35.166667	1	0.086875
35.183333	1	0.086250
35.200000	1	0.086375
35.216667	1	0.086375
35.233333	1	0.086625
35.250000	1	0.086625
35.266667	1	0.086375
35.283333	1	0.086750
35.300000	1	0.086625
35.316667	1	0.086625
35.333333	1	0.086500
35.350000	1	0.086625
35.366667	1	0.087125
35.383333	1	0.087000
35.400000	1	0.087250
35.416667	1	0.087875
35.433333	1	0.088625
35.450000	1	0.089500
35.466667	1	0.090375
35.483333	1	0.090625
35.500000	1	0.091875
35.516667	1	0.092625
35.533333	1	0.094000
35.550000	1	0.094625
35.566667	1	0.095375
35.583333	1	0.097125
35.600000	1	0.098500
35.616667	1	0.099625
35.633333	1	0.100750
35.650000	1	0.102250
35.666667	1	0.102875
35.683333	1	0.104625
35.700000	1	0.106500
35.716667	1	0.107875
35.733333	1	0.109500
35.750000	1	0.111375
35.766667	1	0.112750
35.783333	1	0.113625
35.800000	1	0.115000
35.816667	1	0.117375
35.833333	1	0.119000
35.850000	1	0.120750
35.866667	1	0.122000
35.883333	1	0.123500
35.900000	1	0.124875
35.916667	1	0.126250
35.933333	1	0.127125
35.950000	1	0.127875
35.966667	1	0.129125
35.983333	1	0.130500
36.000000	1	0.130750
36.016667	1	0.131000
36.033333	1	0.131500
36.050000	1	0.132125
36.066667	1	0.132875
36.083333	1	0.133000
36.100000	1	0.132625
36.116667	1	0.132125
36.133333	1	0.131375
36.150000	1	0.130875
36.166667	1	0.130375
36.183333	1	0.129875
36.200000	1	0.129625
36.216667	1	0.129250
36.233333	1	0.128250
36.250000	1	0.127500
36.266667	1	0.127125
36.283333	1	0.126125
36.300000	1	0.125500
36.316667	1	0.124625
36.333333	1	0.124125
36.350000	1	0.123625
36.366667	1	0.122875
36.383333	1	0.122125
36.400000	1	0.121000
36.416667	1	0.120375
36.433333	1	0.120000
36.450000	1	0.118750
36.466667	1	0.118375
36.483333	1	0.117125
36.500000	1	0.116750
36.516667	1	0.116000
36.533333	1	0.115250
36.550000	1	0.114125
36.566667	1	0.113125
36.583333	1	0.112125
36.600000	1	0.111375
36.616667	1	0.109625
36.633333	1	0.108500
36.650000	1	0.107125
36.666667	1	0.106375
36.683333	1	0.105125
36.700000	1	0.104250
36.716667	1	0.103000
36.733333	1	0.101250
36.750000	1	0.099125
36.766667	1	0.097625
36.783333	1	0.095375
36.800000	1	0.093625
36.816667	1	0.091875
36.833333	1	0.090000
36.850000	1	0.087875
36.866667	1	0.085500
36.883333	1	0.083625
36.900000	1	0.082375
36.916667	1	0.080125
36.933333	1	0.077875
36.950000	1	0.075875
36.966667	1	0.073750
36.983333	1	0.071875
37.000000	1	0.069375
37.016667	1	0.067625
37.033333	1	0.066625
37.050000	1	0.065250
37.066667	1	0.063875
37.083333	1	0.063000
37.100000	1	0.061250
37.116667	1	0.059875
37.133333	1	0.058750
37.150000	1	0.058375
37.166667	1	0.057000
37.183333	1	0.056750
37.200000	1	0.056250
37.216667	1	0.056125
37.233333	1	0.056125
37.250000	1	0.055375
37.266667	1	0.054625
37.283333	1	0.054375
37.300000	1	0.054375
37.316667	1	0.054375
37.333333	1	0.054250
37.350000	1	0.054000
37.366667	1	0.053875
37.383333	1	0.052750
37.400000	1	0.051125
37.416667	1	0.049875
37.433333	1	0.049250
37.450000	1	0.047750
37.466667	1	0.047125
37.483333	1	0.046500
37.500000	1	0.044875
37.516667	1	0.043250
37.533333	1	0.042500
37.550000	1	0.041250
37.566667	1	0.039625
37.583333	1	0.037875
37.600000	1	0.035500
37.616667	1	0.034250
37.633333	1	0.033000
37.650000	1	0.031250
37.666667	1	0.029125
37.683333	1	0.027875
37.700000	1	0.026250
37.716667	1	0.024625
37.733333	1	0.023000
37.750000	1	0.021625
37.766667	1	0.020250
37.783333	1	0.018625
37.800000	1	0.017500
37.816667	1	0.016125
37.833333	1	0.015250
37.850000	1	0.014125
37.866667	1	0.013250
37.883333	1	0.012250
37.900000	1	0.011875
37.916667	1	0.011375
37.933333	1	0.010375
37.950000	1	0.009500
37.966667	1	0.008875
37.983333	1	0.008625
38.000000	1	0.008000
38.016667	1	0.007875
38.033333	1	0.007125
38.050000	1	0.006750
38.066667	1	0.006125
38.083333	1	0.005625
38.100000	1	0.005875
38.116667	1	0.006125
38.133333	1	0.006250
38.150000	1	0.005875
38.166667	1	0.006000
38.183333	1	0.006125
38.200000	1	0.005875
38.216667	1	0.006250
38.233333	1	0.005625
38.250000	1	0.006000
38.266667	1	0.005625
38.283333	1	0.005625
38.300000	1	0.006500
38.316667	1	0.007000
38.333333	1	0.007625
38.350000	1	0.007625
38.366667	1	0.007500
38.383333	1	0.007625
38.400000	1	0.007500
38.416667	1	0.007875
38.433333	1	0.008125
38.450000	1	0.008125
38.466667	1	0.008250
38.483333	1	0.008125
38.500000	1	0.007750
38.516667	1	0.007875
38.533333	1	0.006875
38.550000	1	0.006500
38.566667	1	0.006875
38.583333	1	0.006875
38.600000	1	0.007250
38.616667	1	0.008125
38.633333	1	0.008250
38.650000	1	0.008250
38.666667	1	0.008250
38.683333	1	0.009125
38.700000	1	0.009750
38.716667	1	0.009875
38.733333	1	0.010500
38.750000	1	0.010500
38.766667	1	0.011250
38.783333	1	0.011125
38.800000	1	0.011875
38.816667	1	0.011625
38.833333	1	0.012125
38.850000	1	0.012125
38.866667	1	0.012250
38.883333	1	0.012125
38.900000	1	0.012125
38.916667	1	0.012125
38.933333	1	0.012250
38.950000	1	0.011625
38.966667	1	0.010750
38.983333	1	0.010125
39.000000	1	0.009125
39.016667	1	0.008500
39.033333	1	0.007375
39.050000	1	0.005625
39.066667	1	0.004625
39.083333	1	0.003750
39.100000	1	0.002125
39.116667	1	0.001000
39.133333	1	0.000125
39.150000	1	-0.001375
39.166667	1	-0.002625
39.183333	1	-0.004250
39.200000	1	-0.006750
39.216667	1	-0.007625
39.233333	1	-0.009250
39.250000	1	-0.010375
39.266667	1	-0.011625
39.283333	1	-0.012500
39.300000	1	-0.013375
39.316667	1	-0.014750
39.333333	1	-0.016375
39.350000	1	-0.018625
39.366667	1	-0.020000
39.383333	1	-0.020875
39.400000	1	-0.021875
39.416667	1	-0.023125
39.433333	1	-0.023875
39.450000	1	-0.024875
39.466667	1	-0.025625
39.483333	1	-0.026125
39.500000	1	-0.027125
39.516667	1	-0.027750
39.533333	1	-0.027875
39.550000	1	-0.028375
39.566667	1	-0.029000
39.583333	1	-0.029500
39.600000	1	-0.029250
39.616667	1	-0.029000
39.633333	1	-0.029250
39.650000	1	-0.029125
39.666667	1	-0.029125
39.683333	1	-0.028125
39.700000	1	-0.027500
39.716667	1	-0.026250
39.733333	1	-0.025500
39.750000	1	-0.025750
39.766667	1	-0.025125
39.783333	1	-0.024750
39.800000	1	-0.025250
39.816667	1	-0.024625
39.833333	1	-0.023500
39.850000	1	-0.022750
39.866667	1	-0.022000
39.883333	1	-0.021375
39.900000	1	-0.020625
39.916667	1	-0.020000
39.933333	1	-0.020375
39.950000	1	-0.019875
39.966667	1	-0.019375
39.983333	1	-0.018625
40.000000	1	-0.017500
