URL	chrom://7040-86g6c92/XVault/Ultimate_3000/20/20240517_CMO_FP23_FP25_MarkusDeplate.seq/213.smp/RI_1.channel/RI_1.chm
Channel	RI_1

Injection Information:
Data Vault	XVault
Sequence	20240517_CMO_FP23_FP25_MarkusDeplate
Name	FP26_21.2_s6
Number	111
Position	BC11
Comment	
Processing Method	
Instrument Method	run_25B_method
Type	Unknown
Status	Finished
Inject Time	30.05.2024 22:27:50 +02:00
Volume (µl)	20.0000
Dilution Factor	1.0000
Weight	1.0000

Chromatogram Data Information:
Time Min. (min)	0.000000
Time Max. (min)	40.000000
Data Points	2401
Detector	RI
Generating Data System	Chromeleon 7.3.2.11814
Exporting Data System	Chromeleon 7.3.2.0
Operator	Instrument Controller
Signal Quantity	Refractive 
Signal Unit	µRIU
Signal Min.	-0.635500
Signal Max.	56.457875
Channel	RI_1
Driver Name	RID520Driver.dll
Channel Type	Evaluation
Min. Step (s)	1
Max. Step (s)	1
Average Step (s)	1

Signal Parameter Information:
Signal Info	

Chromatogram Data:
Time (min)	Step (s)	Value (µRIU)
0.000000	n.a.	0.032375
0.016667	1	0.032500
0.033333	1	0.032500
0.050000	1	0.033125
0.066667	1	0.033750
0.083333	1	0.034000
0.100000	1	0.033875
0.116667	1	0.034375
0.133333	1	0.034375
0.150000	1	0.034625
0.166667	1	0.035250
0.183333	1	0.035250
0.200000	1	0.034875
0.216667	1	0.035000
0.233333	1	0.035625
0.250000	1	0.035625
0.266667	1	0.035875
0.283333	1	0.036125
0.300000	1	0.036625
0.316667	1	0.036625
0.333333	1	0.037375
0.350000	1	0.037250
0.366667	1	0.037000
0.383333	1	0.035875
0.400000	1	0.034750
0.416667	1	0.034500
0.433333	1	0.035750
0.450000	1	0.038375
0.466667	1	0.040500
0.483333	1	0.042125
0.500000	1	0.043625
0.516667	1	0.044250
0.533333	1	0.044875
0.550000	1	0.045125
0.566667	1	0.045250
0.583333	1	0.043625
0.600000	1	0.042000
0.616667	1	0.040125
0.633333	1	0.038375
0.650000	1	0.037000
0.666667	1	0.036375
0.683333	1	0.036875
0.700000	1	0.036500
0.716667	1	0.037000
0.733333	1	0.036875
0.750000	1	0.037125
0.766667	1	0.036375
0.783333	1	0.036500
0.800000	1	0.036625
0.816667	1	0.037250
0.833333	1	0.037375
0.850000	1	0.037500
0.866667	1	0.037125
0.883333	1	0.037625
0.900000	1	0.038875
0.916667	1	0.039125
0.933333	1	0.039375
0.950000	1	0.040000
0.966667	1	0.039750
0.983333	1	0.040125
1.000000	1	0.041375
1.016667	1	0.041500
1.033333	1	0.042375
1.050000	1	0.042875
1.066667	1	0.043500
1.083333	1	0.043750
1.100000	1	0.044625
1.116667	1	0.045000
1.133333	1	0.046125
1.150000	1	0.046750
1.166667	1	0.047625
1.183333	1	0.048000
1.200000	1	0.049000
1.216667	1	0.050000
1.233333	1	0.051125
1.250000	1	0.051500
1.266667	1	0.051875
1.283333	1	0.052375
1.300000	1	0.053375
1.316667	1	0.053500
1.333333	1	0.053750
1.350000	1	0.053625
1.366667	1	0.053875
1.383333	1	0.054250
1.400000	1	0.053875
1.416667	1	0.053625
1.433333	1	0.053500
1.450000	1	0.053250
1.466667	1	0.052750
1.483333	1	0.052625
1.500000	1	0.052875
1.516667	1	0.052750
1.533333	1	0.051750
1.550000	1	0.051375
1.566667	1	0.050750
1.583333	1	0.050375
1.600000	1	0.048875
1.616667	1	0.048375
1.633333	1	0.048750
1.650000	1	0.048250
1.666667	1	0.048000
1.683333	1	0.047250
1.700000	1	0.046375
1.716667	1	0.045000
1.733333	1	0.043750
1.750000	1	0.043000
1.766667	1	0.042375
1.783333	1	0.041625
1.800000	1	0.041125
1.816667	1	0.040500
1.833333	1	0.040375
1.850000	1	0.040125
1.866667	1	0.039500
1.883333	1	0.039000
1.900000	1	0.038375
1.916667	1	0.036875
1.933333	1	0.036375
1.950000	1	0.036125
1.966667	1	0.035625
1.983333	1	0.035000
2.000000	1	0.034500
2.016667	1	0.034125
2.033333	1	0.033875
2.050000	1	0.033000
2.066667	1	0.032750
2.083333	1	0.032375
2.100000	1	0.032000
2.116667	1	0.031750
2.133333	1	0.031000
2.150000	1	0.030375
2.166667	1	0.029750
2.183333	1	0.029000
2.200000	1	0.028625
2.216667	1	0.029000
2.233333	1	0.028375
2.250000	1	0.028000
2.266667	1	0.027500
2.283333	1	0.027000
2.300000	1	0.026125
2.316667	1	0.026375
2.333333	1	0.025625
2.350000	1	0.024625
2.366667	1	0.024500
2.383333	1	0.024000
2.400000	1	0.024125
2.416667	1	0.024000
2.433333	1	0.024125
2.450000	1	0.023500
2.466667	1	0.023250
2.483333	1	0.023125
2.500000	1	0.023250
2.516667	1	0.022250
2.533333	1	0.022125
2.550000	1	0.022250
2.566667	1	0.021625
2.583333	1	0.021250
2.600000	1	0.021375
2.616667	1	0.021000
2.633333	1	0.021250
2.650000	1	0.020375
2.666667	1	0.019500
2.683333	1	0.018750
2.700000	1	0.018750
2.716667	1	0.018625
2.733333	1	0.017625
2.750000	1	0.017250
2.766667	1	0.016625
2.783333	1	0.015625
2.800000	1	0.015375
2.816667	1	0.014875
2.833333	1	0.013875
2.850000	1	0.012625
2.866667	1	0.011500
2.883333	1	0.010875
2.900000	1	0.010125
2.916667	1	0.009375
2.933333	1	0.009000
2.950000	1	0.008250
2.966667	1	0.008000
2.983333	1	0.006375
3.000000	1	0.006250
3.016667	1	0.006500
3.033333	1	0.006375
3.050000	1	0.006625
3.066667	1	0.007875
3.083333	1	0.008375
3.100000	1	0.008750
3.116667	1	0.009000
3.133333	1	0.009500
3.150000	1	0.010250
3.166667	1	0.012125
3.183333	1	0.014375
3.200000	1	0.016000
3.216667	1	0.018125
3.233333	1	0.020000
3.250000	1	0.022000
3.266667	1	0.024500
3.283333	1	0.027375
3.300000	1	0.029875
3.316667	1	0.032500
3.333333	1	0.035500
3.350000	1	0.038125
3.366667	1	0.040875
3.383333	1	0.043875
3.400000	1	0.046500
3.416667	1	0.049625
3.433333	1	0.052875
3.450000	1	0.056000
3.466667	1	0.058875
3.483333	1	0.061625
3.500000	1	0.064000
3.516667	1	0.066250
3.533333	1	0.068875
3.550000	1	0.070875
3.566667	1	0.073625
3.583333	1	0.075500
3.600000	1	0.077750
3.616667	1	0.079875
3.633333	1	0.081875
3.650000	1	0.083875
3.666667	1	0.085000
3.683333	1	0.086500
3.700000	1	0.088000
3.716667	1	0.089250
3.733333	1	0.090625
3.750000	1	0.091500
3.766667	1	0.091875
3.783333	1	0.092375
3.800000	1	0.093375
3.816667	1	0.093875
3.833333	1	0.094250
3.850000	1	0.094875
3.866667	1	0.094750
3.883333	1	0.095375
3.900000	1	0.095375
3.916667	1	0.095375
3.933333	1	0.095500
3.950000	1	0.095625
3.966667	1	0.095625
3.983333	1	0.095000
4.000000	1	0.094625
4.016667	1	0.094750
4.033333	1	0.095375
4.050000	1	0.095375
4.066667	1	0.094500
4.083333	1	0.093375
4.100000	1	0.093000
4.116667	1	0.092500
4.133333	1	0.092000
4.150000	1	0.091500
4.166667	1	0.090625
4.183333	1	0.090375
4.200000	1	0.090000
4.216667	1	0.089625
4.233333	1	0.088750
4.250000	1	0.088625
4.266667	1	0.088375
4.283333	1	0.088625
4.300000	1	0.088250
4.316667	1	0.087625
4.333333	1	0.087000
4.350000	1	0.087500
4.366667	1	0.087750
4.383333	1	0.088375
4.400000	1	0.088125
4.416667	1	0.089000
4.433333	1	0.089875
4.450000	1	0.090750
4.466667	1	0.090625
4.483333	1	0.090625
4.500000	1	0.091125
4.516667	1	0.091875
4.533333	1	0.092375
4.550000	1	0.092875
4.566667	1	0.093500
4.583333	1	0.094125
4.600000	1	0.094500
4.616667	1	0.094875
4.633333	1	0.095500
4.650000	1	0.095625
4.666667	1	0.096375
4.683333	1	0.096375
4.700000	1	0.096750
4.716667	1	0.097375
4.733333	1	0.097750
4.750000	1	0.097500
4.766667	1	0.097250
4.783333	1	0.097750
4.800000	1	0.098625
4.816667	1	0.099250
4.833333	1	0.100000
4.850000	1	0.100250
4.866667	1	0.100875
4.883333	1	0.101750
4.900000	1	0.102750
4.916667	1	0.103250
4.933333	1	0.104500
4.950000	1	0.105875
4.966667	1	0.106625
4.983333	1	0.108500
5.000000	1	0.110250
5.016667	1	0.111875
5.033333	1	0.113125
5.050000	1	0.115250
5.066667	1	0.116875
5.083333	1	0.119500
5.100000	1	0.122000
5.116667	1	0.124250
5.133333	1	0.126750
5.150000	1	0.129625
5.166667	1	0.131625
5.183333	1	0.133875
5.200000	1	0.136500
5.216667	1	0.139875
5.233333	1	0.143000
5.250000	1	0.146125
5.266667	1	0.149625
5.283333	1	0.153250
5.300000	1	0.157375
5.316667	1	0.160500
5.333333	1	0.164625
5.350000	1	0.167625
5.366667	1	0.171125
5.383333	1	0.175125
5.400000	1	0.179500
5.416667	1	0.183375
5.433333	1	0.187250
5.450000	1	0.191625
5.466667	1	0.196000
5.483333	1	0.199375
5.500000	1	0.203125
5.516667	1	0.207250
5.533333	1	0.211000
5.550000	1	0.214875
5.566667	1	0.218750
5.583333	1	0.222375
5.600000	1	0.225250
5.616667	1	0.228875
5.633333	1	0.232000
5.650000	1	0.234625
5.666667	1	0.237500
5.683333	1	0.239500
5.700000	1	0.241125
5.716667	1	0.242875
5.733333	1	0.244875
5.750000	1	0.246625
5.766667	1	0.249500
5.783333	1	0.251000
5.800000	1	0.252500
5.816667	1	0.254375
5.833333	1	0.254250
5.850000	1	0.254500
5.866667	1	0.255625
5.883333	1	0.255750
5.900000	1	0.255750
5.916667	1	0.255500
5.933333	1	0.255000
5.950000	1	0.254250
5.966667	1	0.253125
5.983333	1	0.251750
6.000000	1	0.250250
6.016667	1	0.248750
6.033333	1	0.247750
6.050000	1	0.245750
6.066667	1	0.243875
6.083333	1	0.241875
6.100000	1	0.239250
6.116667	1	0.236500
6.133333	1	0.234125
6.150000	1	0.232125
6.166667	1	0.230125
6.183333	1	0.227375
6.200000	1	0.224625
6.216667	1	0.221750
6.233333	1	0.218750
6.250000	1	0.215625
6.266667	1	0.212500
6.283333	1	0.210000
6.300000	1	0.208250
6.316667	1	0.205500
6.333333	1	0.202000
6.350000	1	0.199875
6.366667	1	0.197625
6.383333	1	0.195375
6.400000	1	0.193750
6.416667	1	0.191625
6.433333	1	0.189500
6.450000	1	0.187250
6.466667	1	0.185250
6.483333	1	0.183625
6.500000	1	0.181125
6.516667	1	0.179250
6.533333	1	0.177375
6.550000	1	0.176750
6.566667	1	0.175500
6.583333	1	0.173500
6.600000	1	0.172000
6.616667	1	0.171250
6.633333	1	0.169875
6.650000	1	0.168375
6.666667	1	0.166625
6.683333	1	0.165375
6.700000	1	0.163625
6.716667	1	0.162250
6.733333	1	0.161375
6.750000	1	0.159750
6.766667	1	0.158625
6.783333	1	0.156625
6.800000	1	0.155000
6.816667	1	0.154000
6.833333	1	0.152125
6.850000	1	0.150875
6.866667	1	0.149500
6.883333	1	0.148375
6.900000	1	0.147875
6.916667	1	0.146625
6.933333	1	0.145750
6.950000	1	0.145125
6.966667	1	0.143875
6.983333	1	0.143250
7.000000	1	0.142875
7.016667	1	0.143250
7.033333	1	0.143000
7.050000	1	0.142625
7.066667	1	0.142500
7.083333	1	0.142625
7.100000	1	0.143000
7.116667	1	0.143625
7.133333	1	0.144625
7.150000	1	0.145500
7.166667	1	0.146625
7.183333	1	0.147750
7.200000	1	0.149500
7.216667	1	0.151500
7.233333	1	0.152875
7.250000	1	0.154750
7.266667	1	0.156625
7.283333	1	0.158375
7.300000	1	0.160375
7.316667	1	0.163000
7.333333	1	0.165250
7.350000	1	0.167250
7.366667	1	0.169375
7.383333	1	0.171625
7.400000	1	0.173500
7.416667	1	0.175375
7.433333	1	0.177250
7.450000	1	0.178750
7.466667	1	0.180500
7.483333	1	0.182250
7.500000	1	0.183875
7.516667	1	0.185500
7.533333	1	0.187125
7.550000	1	0.188250
7.566667	1	0.189500
7.583333	1	0.190250
7.600000	1	0.191125
7.616667	1	0.191750
7.633333	1	0.192000
7.650000	1	0.192250
7.666667	1	0.191750
7.683333	1	0.191250
7.700000	1	0.190625
7.716667	1	0.190125
7.733333	1	0.189500
7.750000	1	0.188000
7.766667	1	0.187000
7.783333	1	0.185250
7.800000	1	0.183750
7.816667	1	0.181250
7.833333	1	0.178875
7.850000	1	0.176375
7.866667	1	0.173500
7.883333	1	0.170500
7.900000	1	0.167375
7.916667	1	0.164375
7.933333	1	0.160000
7.950000	1	0.155875
7.966667	1	0.152000
7.983333	1	0.148000
8.000000	1	0.143625
8.016667	1	0.139875
8.033333	1	0.136250
8.050000	1	0.132250
8.066667	1	0.128500
8.083333	1	0.125125
8.100000	1	0.121250
8.116667	1	0.117375
8.133333	1	0.113750
8.150000	1	0.110500
8.166667	1	0.107000
8.183333	1	0.103625
8.200000	1	0.100375
8.216667	1	0.097375
8.233333	1	0.094875
8.250000	1	0.091750
8.266667	1	0.089500
8.283333	1	0.087125
8.300000	1	0.085250
8.316667	1	0.082875
8.333333	1	0.081000
8.350000	1	0.079375
8.366667	1	0.077625
8.383333	1	0.075125
8.400000	1	0.074000
8.416667	1	0.072250
8.433333	1	0.070875
8.450000	1	0.070250
8.466667	1	0.068750
8.483333	1	0.067125
8.500000	1	0.066125
8.516667	1	0.064250
8.533333	1	0.062875
8.550000	1	0.062375
8.566667	1	0.061625
8.583333	1	0.060500
8.600000	1	0.060125
8.616667	1	0.059625
8.633333	1	0.058875
8.650000	1	0.058125
8.666667	1	0.057000
8.683333	1	0.057000
8.700000	1	0.056250
8.716667	1	0.055875
8.733333	1	0.055250
8.750000	1	0.054875
8.766667	1	0.054875
8.783333	1	0.054500
8.800000	1	0.054625
8.816667	1	0.054750
8.833333	1	0.055000
8.850000	1	0.055750
8.866667	1	0.056250
8.883333	1	0.056750
8.900000	1	0.057375
8.916667	1	0.058125
8.933333	1	0.058750
8.950000	1	0.059625
8.966667	1	0.060625
8.983333	1	0.061875
9.000000	1	0.062375
9.016667	1	0.063375
9.033333	1	0.064625
9.050000	1	0.066375
9.066667	1	0.067500
9.083333	1	0.068625
9.100000	1	0.069375
9.116667	1	0.069875
9.133333	1	0.071125
9.150000	1	0.072375
9.166667	1	0.073125
9.183333	1	0.073875
9.200000	1	0.074875
9.216667	1	0.075875
9.233333	1	0.076750
9.250000	1	0.077125
9.266667	1	0.077500
9.283333	1	0.078250
9.300000	1	0.078375
9.316667	1	0.079375
9.333333	1	0.079250
9.350000	1	0.080625
9.366667	1	0.081500
9.383333	1	0.082250
9.400000	1	0.082750
9.416667	1	0.082500
9.433333	1	0.082750
9.450000	1	0.083000
9.466667	1	0.082750
9.483333	1	0.082750
9.500000	1	0.082250
9.516667	1	0.082375
9.533333	1	0.081625
9.550000	1	0.081250
9.566667	1	0.081375
9.583333	1	0.081000
9.600000	1	0.080750
9.616667	1	0.080125
9.633333	1	0.079500
9.650000	1	0.079125
9.666667	1	0.078625
9.683333	1	0.078000
9.700000	1	0.077750
9.716667	1	0.077375
9.733333	1	0.077125
9.750000	1	0.076375
9.766667	1	0.075875
9.783333	1	0.075625
9.800000	1	0.075875
9.816667	1	0.075125
9.833333	1	0.074625
9.850000	1	0.073750
9.866667	1	0.073625
9.883333	1	0.074125
9.900000	1	0.073375
9.916667	1	0.072500
9.933333	1	0.072750
9.950000	1	0.072750
9.966667	1	0.072625
9.983333	1	0.072625
10.000000	1	0.072250
10.016667	1	0.072875
10.033333	1	0.073625
10.050000	1	0.075000
10.066667	1	0.076625
10.083333	1	0.079750
10.100000	1	0.082875
10.116667	1	0.086125
10.133333	1	0.090750
10.150000	1	0.096750
10.166667	1	0.103625
10.183333	1	0.111875
10.200000	1	0.121125
10.216667	1	0.132500
10.233333	1	0.145500
10.250000	1	0.160000
10.266667	1	0.177500
10.283333	1	0.197125
10.300000	1	0.219125
10.316667	1	0.244250
10.333333	1	0.272375
10.350000	1	0.303000
10.366667	1	0.336375
10.383333	1	0.371000
10.400000	1	0.404375
10.416667	1	0.433250
10.433333	1	0.450750
10.450000	1	0.448000
10.466667	1	0.419000
10.483333	1	0.362625
10.500000	1	0.292625
10.516667	1	0.240250
10.533333	1	0.256375
10.550000	1	0.415250
10.566667	1	0.802750
10.583333	1	1.506125
10.600000	1	2.608125
10.616667	1	4.175625
10.633333	1	6.257125
10.650000	1	8.880250
10.666667	1	12.056750
10.683333	1	15.779500
10.700000	1	20.021125
10.716667	1	24.726375
10.733333	1	29.801500
10.750000	1	35.107125
10.766667	1	40.433750
10.783333	1	45.493500
10.800000	1	49.916375
10.816667	1	53.273375
10.833333	1	55.150625
10.850000	1	55.267000
10.866667	1	53.564625
10.883333	1	50.247875
10.900000	1	45.732000
10.916667	1	40.528875
10.933333	1	35.128125
10.950000	1	29.908875
10.966667	1	25.122000
10.983333	1	20.898500
11.000000	1	17.281875
11.016667	1	14.256125
11.033333	1	11.774750
11.050000	1	9.771625
11.066667	1	8.172500
11.083333	1	6.904625
11.100000	1	5.902375
11.116667	1	5.109250
11.133333	1	4.478500
11.150000	1	3.971750
11.166667	1	3.560875
11.183333	1	3.224250
11.200000	1	2.945000
11.216667	1	2.709750
11.233333	1	2.510250
11.250000	1	2.338000
11.266667	1	2.187875
11.283333	1	2.057250
11.300000	1	1.942250
11.316667	1	1.841500
11.333333	1	1.751500
11.350000	1	1.672375
11.366667	1	1.602000
11.383333	1	1.540875
11.400000	1	1.487125
11.416667	1	1.439250
11.433333	1	1.397250
11.450000	1	1.360750
11.466667	1	1.329250
11.483333	1	1.301625
11.500000	1	1.277875
11.516667	1	1.258375
11.533333	1	1.242375
11.550000	1	1.229000
11.566667	1	1.218000
11.583333	1	1.209875
11.600000	1	1.203250
11.616667	1	1.197625
11.633333	1	1.192375
11.650000	1	1.187000
11.666667	1	1.181750
11.683333	1	1.176125
11.700000	1	1.170125
11.716667	1	1.164125
11.733333	1	1.157750
11.750000	1	1.151750
11.766667	1	1.146375
11.783333	1	1.141250
11.800000	1	1.136875
11.816667	1	1.133500
11.833333	1	1.131250
11.850000	1	1.130250
11.866667	1	1.130250
11.883333	1	1.130875
11.900000	1	1.132500
11.916667	1	1.134000
11.933333	1	1.137375
11.950000	1	1.140750
11.966667	1	1.144375
11.983333	1	1.148875
12.000000	1	1.153000
12.016667	1	1.157500
12.033333	1	1.162250
12.050000	1	1.167750
12.066667	1	1.173750
12.083333	1	1.180000
12.100000	1	1.185750
12.116667	1	1.191500
12.133333	1	1.197125
12.150000	1	1.203125
12.166667	1	1.209500
12.183333	1	1.215875
12.200000	1	1.222750
12.216667	1	1.231000
12.233333	1	1.240250
12.250000	1	1.249625
12.266667	1	1.261625
12.283333	1	1.274375
12.300000	1	1.289375
12.316667	1	1.307250
12.333333	1	1.327500
12.350000	1	1.351250
12.366667	1	1.381750
12.383333	1	1.420500
12.400000	1	1.471875
12.416667	1	1.540500
12.433333	1	1.633625
12.450000	1	1.756375
12.466667	1	1.918875
12.483333	1	2.126750
12.500000	1	2.388750
12.516667	1	2.706375
12.533333	1	3.081625
12.550000	1	3.511125
12.566667	1	3.988125
12.583333	1	4.500375
12.600000	1	5.033625
12.616667	1	5.571250
12.633333	1	6.095125
12.650000	1	6.590375
12.666667	1	7.040750
12.683333	1	7.433875
12.700000	1	7.759375
12.716667	1	8.009125
12.733333	1	8.177375
12.750000	1	8.263875
12.766667	1	8.266875
12.783333	1	8.190750
12.800000	1	8.041125
12.816667	1	7.829875
12.833333	1	7.569875
12.850000	1	7.273375
12.866667	1	6.954250
12.883333	1	6.622000
12.900000	1	6.285625
12.916667	1	5.949875
12.933333	1	5.621375
12.950000	1	5.302500
12.966667	1	4.997625
12.983333	1	4.710375
13.000000	1	4.443250
13.016667	1	4.198500
13.033333	1	3.976250
13.050000	1	3.776625
13.066667	1	3.598375
13.083333	1	3.439125
13.100000	1	3.296875
13.116667	1	3.169625
13.133333	1	3.055250
13.150000	1	2.953125
13.166667	1	2.859750
13.183333	1	2.775375
13.200000	1	2.697875
13.216667	1	2.626000
13.233333	1	2.559875
13.250000	1	2.498625
13.266667	1	2.441125
13.283333	1	2.386125
13.300000	1	2.334875
13.316667	1	2.287000
13.333333	1	2.241375
13.350000	1	2.198750
13.366667	1	2.158375
13.383333	1	2.121625
13.400000	1	2.086875
13.416667	1	2.055125
13.433333	1	2.025875
13.450000	1	2.001250
13.466667	1	1.980250
13.483333	1	1.962375
13.500000	1	1.947500
13.516667	1	1.936125
13.533333	1	1.928125
13.550000	1	1.922500
13.566667	1	1.918250
13.583333	1	1.914250
13.600000	1	1.909250
13.616667	1	1.902000
13.633333	1	1.893250
13.650000	1	1.880875
13.666667	1	1.864625
13.683333	1	1.844500
13.700000	1	1.820500
13.716667	1	1.794250
13.733333	1	1.765875
13.750000	1	1.735500
13.766667	1	1.705000
13.783333	1	1.674750
13.800000	1	1.645125
13.816667	1	1.616000
13.833333	1	1.587875
13.850000	1	1.561875
13.866667	1	1.537875
13.883333	1	1.514625
13.900000	1	1.493125
13.916667	1	1.472125
13.933333	1	1.453500
13.950000	1	1.435250
13.966667	1	1.418000
13.983333	1	1.401500
14.000000	1	1.386250
14.016667	1	1.372250
14.033333	1	1.358125
14.050000	1	1.345500
14.066667	1	1.332875
14.083333	1	1.320750
14.100000	1	1.308625
14.116667	1	1.298000
14.133333	1	1.286000
14.150000	1	1.275750
14.166667	1	1.266125
14.183333	1	1.256875
14.200000	1	1.248625
14.216667	1	1.242000
14.233333	1	1.236000
14.250000	1	1.231875
14.266667	1	1.228625
14.283333	1	1.227375
14.300000	1	1.228000
14.316667	1	1.231000
14.333333	1	1.235875
14.350000	1	1.242375
14.366667	1	1.251750
14.383333	1	1.263375
14.400000	1	1.277750
14.416667	1	1.296375
14.433333	1	1.322250
14.450000	1	1.358750
14.466667	1	1.411250
14.483333	1	1.489000
14.500000	1	1.606250
14.516667	1	1.781875
14.533333	1	2.042000
14.550000	1	2.421750
14.566667	1	2.964250
14.583333	1	3.719375
14.600000	1	4.745000
14.616667	1	6.104125
14.633333	1	7.860625
14.650000	1	10.071625
14.666667	1	12.778875
14.683333	1	15.998500
14.700000	1	19.714875
14.716667	1	23.870500
14.733333	1	28.371125
14.750000	1	33.082125
14.766667	1	37.831375
14.783333	1	42.418125
14.800000	1	46.637875
14.816667	1	50.295750
14.833333	1	53.215875
14.850000	1	55.263125
14.866667	1	56.352375
14.883333	1	56.457875
14.900000	1	55.610000
14.916667	1	53.894500
14.933333	1	51.438250
14.950000	1	48.396125
14.966667	1	44.935750
14.983333	1	41.225750
15.000000	1	37.415500
15.016667	1	33.632250
15.033333	1	29.976500
15.050000	1	26.524125
15.066667	1	23.327500
15.083333	1	20.415500
15.100000	1	17.799875
15.116667	1	15.477125
15.133333	1	13.432375
15.150000	1	11.645625
15.166667	1	10.093375
15.183333	1	8.752625
15.200000	1	7.599250
15.216667	1	6.610000
15.233333	1	5.765375
15.250000	1	5.046750
15.266667	1	4.439625
15.283333	1	3.930250
15.300000	1	3.507500
15.316667	1	3.159125
15.333333	1	2.876875
15.350000	1	2.651000
15.366667	1	2.474375
15.383333	1	2.338250
15.400000	1	2.235125
15.416667	1	2.158625
15.433333	1	2.101500
15.450000	1	2.060250
15.466667	1	2.027250
15.483333	1	1.999750
15.500000	1	1.973375
15.516667	1	1.945875
15.533333	1	1.914875
15.550000	1	1.880375
15.566667	1	1.843000
15.583333	1	1.802625
15.600000	1	1.760125
15.616667	1	1.716500
15.633333	1	1.673000
15.650000	1	1.629875
15.666667	1	1.588750
15.683333	1	1.549875
15.700000	1	1.513750
15.716667	1	1.480500
15.733333	1	1.449500
15.750000	1	1.420250
15.766667	1	1.394500
15.783333	1	1.370750
15.800000	1	1.349875
15.816667	1	1.330000
15.833333	1	1.312500
15.850000	1	1.296875
15.866667	1	1.282625
15.883333	1	1.269375
15.900000	1	1.257875
15.916667	1	1.249375
15.933333	1	1.241500
15.950000	1	1.234875
15.966667	1	1.230000
15.983333	1	1.225625
16.000000	1	1.221750
16.016667	1	1.219875
16.033333	1	1.218000
16.050000	1	1.216000
16.066667	1	1.214000
16.083333	1	1.212125
16.100000	1	1.209625
16.116667	1	1.207500
16.133333	1	1.205375
16.150000	1	1.203250
16.166667	1	1.200375
16.183333	1	1.197375
16.200000	1	1.193000
16.216667	1	1.188750
16.233333	1	1.183250
16.250000	1	1.177750
16.266667	1	1.171375
16.283333	1	1.165875
16.300000	1	1.158125
16.316667	1	1.150625
16.333333	1	1.143750
16.350000	1	1.137500
16.366667	1	1.131750
16.383333	1	1.126875
16.400000	1	1.123875
16.416667	1	1.121750
16.433333	1	1.120625
16.450000	1	1.120750
16.466667	1	1.122625
16.483333	1	1.123750
16.500000	1	1.126250
16.516667	1	1.129250
16.533333	1	1.131625
16.550000	1	1.133375
16.566667	1	1.135125
16.583333	1	1.136875
16.600000	1	1.136500
16.616667	1	1.134625
16.633333	1	1.132875
16.650000	1	1.130625
16.666667	1	1.128125
16.683333	1	1.126375
16.700000	1	1.125875
16.716667	1	1.126125
16.733333	1	1.128125
16.750000	1	1.131250
16.766667	1	1.135250
16.783333	1	1.140875
16.800000	1	1.147250
16.816667	1	1.153750
16.833333	1	1.161375
16.850000	1	1.168375
16.866667	1	1.174250
16.883333	1	1.178375
16.900000	1	1.181125
16.916667	1	1.181375
16.933333	1	1.181375
16.950000	1	1.179250
16.966667	1	1.175500
16.983333	1	1.169750
17.000000	1	1.163500
17.016667	1	1.155000
17.033333	1	1.146625
17.050000	1	1.138000
17.066667	1	1.129375
17.083333	1	1.120375
17.100000	1	1.111875
17.116667	1	1.103625
17.133333	1	1.096625
17.150000	1	1.090125
17.166667	1	1.084625
17.183333	1	1.080375
17.200000	1	1.076000
17.216667	1	1.072375
17.233333	1	1.070000
17.250000	1	1.068250
17.266667	1	1.066875
17.283333	1	1.066750
17.300000	1	1.067000
17.316667	1	1.069000
17.333333	1	1.071500
17.350000	1	1.074750
17.366667	1	1.077500
17.383333	1	1.081375
17.400000	1	1.085375
17.416667	1	1.088750
17.433333	1	1.091250
17.450000	1	1.094125
17.466667	1	1.095750
17.483333	1	1.095875
17.500000	1	1.094625
17.516667	1	1.092500
17.533333	1	1.089875
17.550000	1	1.085000
17.566667	1	1.079875
17.583333	1	1.074125
17.600000	1	1.066375
17.616667	1	1.058500
17.633333	1	1.049875
17.650000	1	1.040625
17.666667	1	1.031500
17.683333	1	1.022125
17.700000	1	1.012375
17.716667	1	1.003250
17.733333	1	0.994250
17.750000	1	0.985875
17.766667	1	0.978125
17.783333	1	0.970875
17.800000	1	0.963750
17.816667	1	0.957625
17.833333	1	0.951000
17.850000	1	0.945750
17.866667	1	0.941125
17.883333	1	0.936000
17.900000	1	0.931750
17.916667	1	0.926875
17.933333	1	0.921875
17.950000	1	0.916875
17.966667	1	0.912125
17.983333	1	0.906750
18.000000	1	0.901500
18.016667	1	0.895500
18.033333	1	0.889625
18.050000	1	0.884625
18.066667	1	0.879125
18.083333	1	0.873750
18.100000	1	0.868125
18.116667	1	0.863375
18.133333	1	0.859250
18.150000	1	0.855375
18.166667	1	0.852500
18.183333	1	0.850375
18.200000	1	0.848375
18.216667	1	0.847125
18.233333	1	0.845250
18.250000	1	0.844000
18.266667	1	0.842625
18.283333	1	0.841625
18.300000	1	0.840875
18.316667	1	0.839250
18.333333	1	0.837500
18.350000	1	0.836125
18.366667	1	0.834250
18.383333	1	0.833750
18.400000	1	0.834125
18.416667	1	0.834625
18.433333	1	0.835500
18.450000	1	0.837625
18.466667	1	0.839750
18.483333	1	0.843625
18.500000	1	0.847625
18.516667	1	0.852500
18.533333	1	0.858250
18.550000	1	0.864625
18.566667	1	0.872125
18.583333	1	0.879875
18.600000	1	0.887375
18.616667	1	0.895250
18.633333	1	0.903000
18.650000	1	0.909750
18.666667	1	0.916875
18.683333	1	0.923125
18.700000	1	0.928875
18.716667	1	0.934000
18.733333	1	0.937625
18.750000	1	0.940375
18.766667	1	0.941750
18.783333	1	0.942125
18.800000	1	0.941250
18.816667	1	0.938875
18.833333	1	0.935125
18.850000	1	0.930000
18.866667	1	0.922375
18.883333	1	0.913750
18.900000	1	0.904125
18.916667	1	0.893750
18.933333	1	0.881500
18.950000	1	0.868375
18.966667	1	0.854625
18.983333	1	0.840375
19.000000	1	0.824750
19.016667	1	0.809250
19.033333	1	0.793875
19.050000	1	0.779500
19.066667	1	0.765125
19.083333	1	0.752875
19.100000	1	0.743250
19.116667	1	0.736500
19.133333	1	0.734000
19.150000	1	0.735750
19.166667	1	0.743125
19.183333	1	0.758000
19.200000	1	0.781750
19.216667	1	0.816250
19.233333	1	0.862250
19.250000	1	0.920375
19.266667	1	0.992250
19.283333	1	1.078750
19.300000	1	1.180000
19.316667	1	1.295000
19.333333	1	1.424750
19.350000	1	1.565500
19.366667	1	1.716500
19.383333	1	1.874375
19.400000	1	2.035250
19.416667	1	2.195000
19.433333	1	2.348875
19.450000	1	2.492625
19.466667	1	2.622000
19.483333	1	2.732500
19.500000	1	2.821375
19.516667	1	2.886750
19.533333	1	2.927625
19.550000	1	2.942750
19.566667	1	2.932500
19.583333	1	2.898875
19.600000	1	2.843375
19.616667	1	2.768500
19.633333	1	2.678125
19.650000	1	2.575000
19.666667	1	2.463375
19.683333	1	2.345750
19.700000	1	2.224875
19.716667	1	2.104000
19.733333	1	1.984250
19.750000	1	1.867375
19.766667	1	1.754875
19.783333	1	1.647500
19.800000	1	1.546750
19.816667	1	1.451625
19.833333	1	1.364875
19.850000	1	1.284875
19.866667	1	1.211875
19.883333	1	1.147750
19.900000	1	1.091875
19.916667	1	1.044125
19.933333	1	1.006250
19.950000	1	0.979250
19.966667	1	0.962875
19.983333	1	0.959875
20.000000	1	0.970750
20.016667	1	0.997125
20.033333	1	1.039875
20.050000	1	1.100375
20.066667	1	1.179500
20.083333	1	1.279000
20.100000	1	1.397125
20.116667	1	1.533500
20.133333	1	1.686000
20.150000	1	1.853250
20.166667	1	2.031250
20.183333	1	2.216250
20.200000	1	2.401625
20.216667	1	2.584750
20.233333	1	2.757750
20.250000	1	2.916000
20.266667	1	3.054250
20.283333	1	3.166875
20.300000	1	3.250750
20.316667	1	3.304000
20.333333	1	3.325000
20.350000	1	3.313250
20.366667	1	3.270375
20.383333	1	3.199500
20.400000	1	3.103250
20.416667	1	2.986625
20.433333	1	2.853875
20.450000	1	2.710500
20.466667	1	2.562500
20.483333	1	2.413375
20.500000	1	2.269125
20.516667	1	2.133250
20.533333	1	2.010250
20.550000	1	1.903375
20.566667	1	1.815500
20.583333	1	1.748875
20.600000	1	1.706375
20.616667	1	1.689625
20.633333	1	1.700000
20.650000	1	1.737375
20.666667	1	1.803125
20.683333	1	1.894625
20.700000	1	2.011500
20.716667	1	2.149875
20.733333	1	2.306750
20.750000	1	2.477500
20.766667	1	2.656875
20.783333	1	2.838750
20.800000	1	3.017000
20.816667	1	3.184125
20.833333	1	3.334375
20.850000	1	3.462750
20.866667	1	3.564375
20.883333	1	3.635250
20.900000	1	3.671875
20.916667	1	3.675750
20.933333	1	3.645750
20.950000	1	3.584500
20.966667	1	3.493625
20.983333	1	3.377000
21.000000	1	3.239375
21.016667	1	3.084750
21.033333	1	2.918750
21.050000	1	2.746250
21.066667	1	2.570625
21.083333	1	2.395875
21.100000	1	2.225500
21.116667	1	2.061250
21.133333	1	1.905375
21.150000	1	1.759625
21.166667	1	1.623625
21.183333	1	1.498375
21.200000	1	1.384250
21.216667	1	1.279625
21.233333	1	1.186000
21.250000	1	1.102000
21.266667	1	1.026625
21.283333	1	0.959000
21.300000	1	0.898625
21.316667	1	0.845000
21.333333	1	0.797125
21.350000	1	0.754500
21.366667	1	0.717375
21.383333	1	0.683875
21.400000	1	0.654625
21.416667	1	0.628750
21.433333	1	0.606625
21.450000	1	0.587500
21.466667	1	0.571375
21.483333	1	0.557500
21.500000	1	0.546375
21.516667	1	0.537375
21.533333	1	0.531125
21.550000	1	0.527875
21.566667	1	0.527500
21.583333	1	0.530625
21.600000	1	0.536000
21.616667	1	0.545500
21.633333	1	0.558750
21.650000	1	0.575375
21.666667	1	0.596625
21.683333	1	0.623250
21.700000	1	0.654250
21.716667	1	0.689750
21.733333	1	0.729125
21.750000	1	0.772375
21.766667	1	0.819750
21.783333	1	0.869125
21.800000	1	0.920750
21.816667	1	0.973750
21.833333	1	1.026875
21.850000	1	1.079375
21.866667	1	1.129250
21.883333	1	1.175500
21.900000	1	1.218125
21.916667	1	1.255125
21.933333	1	1.285750
21.950000	1	1.310125
21.966667	1	1.327250
21.983333	1	1.338125
22.000000	1	1.340875
22.016667	1	1.336625
22.033333	1	1.326125
22.050000	1	1.308750
22.066667	1	1.286375
22.083333	1	1.259000
22.100000	1	1.228375
22.116667	1	1.193875
22.133333	1	1.157375
22.150000	1	1.119625
22.166667	1	1.081250
22.183333	1	1.041000
22.200000	1	1.001500
22.216667	1	0.961625
22.233333	1	0.922625
22.250000	1	0.884750
22.266667	1	0.847500
22.283333	1	0.812250
22.300000	1	0.778250
22.316667	1	0.745125
22.333333	1	0.714000
22.350000	1	0.684875
22.366667	1	0.656500
22.383333	1	0.629000
22.400000	1	0.603875
22.416667	1	0.580875
22.433333	1	0.559125
22.450000	1	0.538375
22.466667	1	0.519875
22.483333	1	0.503250
22.500000	1	0.487750
22.516667	1	0.473875
22.533333	1	0.461125
22.550000	1	0.449625
22.566667	1	0.438875
22.583333	1	0.429875
22.600000	1	0.421250
22.616667	1	0.413500
22.633333	1	0.406000
22.650000	1	0.399750
22.666667	1	0.393750
22.683333	1	0.388125
22.700000	1	0.383500
22.716667	1	0.378750
22.733333	1	0.374000
22.750000	1	0.370125
22.766667	1	0.367375
22.783333	1	0.363500
22.800000	1	0.359750
22.816667	1	0.357625
22.833333	1	0.355375
22.850000	1	0.352875
22.866667	1	0.351125
22.883333	1	0.349625
22.900000	1	0.348250
22.916667	1	0.347625
22.933333	1	0.346875
22.950000	1	0.346250
22.966667	1	0.346500
22.983333	1	0.347250
23.000000	1	0.347750
23.016667	1	0.349375
23.033333	1	0.350875
23.050000	1	0.352500
23.066667	1	0.354500
23.083333	1	0.356500
23.100000	1	0.359000
23.116667	1	0.362000
23.133333	1	0.364375
23.150000	1	0.367500
23.166667	1	0.369875
23.183333	1	0.372125
23.200000	1	0.374750
23.216667	1	0.377375
23.233333	1	0.380500
23.250000	1	0.383500
23.266667	1	0.387000
23.283333	1	0.391750
23.300000	1	0.397375
23.316667	1	0.405000
23.333333	1	0.414875
23.350000	1	0.428000
23.366667	1	0.445375
23.383333	1	0.467875
23.400000	1	0.497500
23.416667	1	0.535000
23.433333	1	0.582250
23.450000	1	0.641500
23.466667	1	0.714875
23.483333	1	0.803875
23.500000	1	0.911000
23.516667	1	1.038250
23.533333	1	1.187250
23.550000	1	1.359875
23.566667	1	1.556000
23.583333	1	1.776875
23.600000	1	2.021375
23.616667	1	2.288500
23.633333	1	2.576125
23.650000	1	2.879875
23.666667	1	3.196125
23.683333	1	3.520750
23.700000	1	3.846875
23.716667	1	4.169000
23.733333	1	4.480000
23.750000	1	4.773125
23.766667	1	5.040875
23.783333	1	5.278750
23.800000	1	5.479750
23.816667	1	5.639250
23.833333	1	5.755000
23.850000	1	5.825000
23.866667	1	5.848625
23.883333	1	5.825750
23.900000	1	5.758875
23.916667	1	5.650125
23.933333	1	5.503875
23.950000	1	5.324875
23.966667	1	5.117500
23.983333	1	4.887875
24.000000	1	4.641375
24.016667	1	4.383500
24.033333	1	4.118875
24.050000	1	3.852250
24.066667	1	3.588125
24.083333	1	3.329750
24.100000	1	3.079500
24.116667	1	2.838750
24.133333	1	2.609625
24.150000	1	2.394250
24.166667	1	2.192625
24.183333	1	2.005875
24.200000	1	1.833500
24.216667	1	1.675125
24.233333	1	1.530875
24.250000	1	1.398875
24.266667	1	1.279750
24.283333	1	1.172875
24.300000	1	1.076250
24.316667	1	0.990125
24.333333	1	0.913625
24.350000	1	0.845750
24.366667	1	0.786500
24.383333	1	0.734375
24.400000	1	0.689125
24.416667	1	0.649875
24.433333	1	0.616750
24.450000	1	0.588500
24.466667	1	0.564500
24.483333	1	0.544625
24.500000	1	0.527625
24.516667	1	0.513625
24.533333	1	0.502500
24.550000	1	0.493375
24.566667	1	0.485250
24.583333	1	0.478750
24.600000	1	0.474000
24.616667	1	0.469250
24.633333	1	0.465375
24.650000	1	0.461625
24.666667	1	0.458375
24.683333	1	0.455250
24.700000	1	0.452375
24.716667	1	0.448250
24.733333	1	0.444750
24.750000	1	0.441000
24.766667	1	0.437250
24.783333	1	0.433500
24.800000	1	0.429750
24.816667	1	0.425875
24.833333	1	0.422375
24.850000	1	0.418875
24.866667	1	0.415250
24.883333	1	0.412250
24.900000	1	0.409375
24.916667	1	0.406375
24.933333	1	0.403500
24.950000	1	0.401125
24.966667	1	0.398625
24.983333	1	0.396500
25.000000	1	0.394000
25.016667	1	0.392250
25.033333	1	0.389500
25.050000	1	0.387250
25.066667	1	0.384875
25.083333	1	0.383000
25.100000	1	0.381000
25.116667	1	0.379250
25.133333	1	0.377375
25.150000	1	0.375250
25.166667	1	0.372500
25.183333	1	0.370500
25.200000	1	0.368250
25.216667	1	0.365375
25.233333	1	0.363000
25.250000	1	0.360625
25.266667	1	0.358500
25.283333	1	0.355875
25.300000	1	0.353375
25.316667	1	0.350500
25.333333	1	0.348375
25.350000	1	0.346125
25.366667	1	0.344250
25.383333	1	0.342250
25.400000	1	0.340000
25.416667	1	0.337750
25.433333	1	0.336875
25.450000	1	0.335375
25.466667	1	0.334625
25.483333	1	0.334375
25.500000	1	0.334375
25.516667	1	0.334125
25.533333	1	0.334625
25.550000	1	0.335250
25.566667	1	0.336125
25.583333	1	0.336500
25.600000	1	0.337500
25.616667	1	0.338625
25.633333	1	0.340000
25.650000	1	0.341250
25.666667	1	0.341875
25.683333	1	0.343250
25.700000	1	0.344625
25.716667	1	0.345750
25.733333	1	0.346375
25.750000	1	0.347250
25.766667	1	0.347750
25.783333	1	0.348125
25.800000	1	0.348875
25.816667	1	0.348500
25.833333	1	0.347625
25.850000	1	0.347500
25.866667	1	0.347000
25.883333	1	0.346375
25.900000	1	0.345750
25.916667	1	0.344875
25.933333	1	0.344125
25.950000	1	0.343625
25.966667	1	0.343125
25.983333	1	0.341250
26.000000	1	0.340625
26.016667	1	0.340000
26.033333	1	0.339125
26.050000	1	0.338375
26.066667	1	0.338000
26.083333	1	0.337125
26.100000	1	0.336750
26.116667	1	0.335625
26.133333	1	0.335125
26.150000	1	0.334875
26.166667	1	0.334625
26.183333	1	0.334250
26.200000	1	0.334125
26.216667	1	0.333875
26.233333	1	0.333500
26.250000	1	0.334250
26.266667	1	0.334000
26.283333	1	0.333250
26.300000	1	0.333000
26.316667	1	0.333500
26.333333	1	0.333125
26.350000	1	0.332250
26.366667	1	0.331250
26.383333	1	0.330375
26.400000	1	0.328750
26.416667	1	0.327500
26.433333	1	0.326000
26.450000	1	0.324500
26.466667	1	0.322500
26.483333	1	0.320125
26.500000	1	0.318000
26.516667	1	0.316000
26.533333	1	0.314000
26.550000	1	0.311250
26.566667	1	0.308500
26.583333	1	0.305875
26.600000	1	0.304000
26.616667	1	0.301250
26.633333	1	0.298375
26.650000	1	0.295500
26.666667	1	0.293375
26.683333	1	0.291250
26.700000	1	0.289125
26.716667	1	0.286875
26.733333	1	0.285125
26.750000	1	0.283750
26.766667	1	0.282125
26.783333	1	0.280250
26.800000	1	0.278375
26.816667	1	0.277250
26.833333	1	0.276875
26.850000	1	0.276625
26.866667	1	0.276875
26.883333	1	0.277000
26.900000	1	0.277375
26.916667	1	0.277000
26.933333	1	0.277875
26.950000	1	0.278875
26.966667	1	0.279500
26.983333	1	0.280625
27.000000	1	0.281875
27.016667	1	0.283750
27.033333	1	0.285500
27.050000	1	0.287875
27.066667	1	0.289750
27.083333	1	0.293000
27.100000	1	0.296375
27.116667	1	0.300000
27.133333	1	0.303375
27.150000	1	0.308625
27.166667	1	0.313625
27.183333	1	0.320625
27.200000	1	0.328125
27.216667	1	0.337500
27.233333	1	0.348875
27.250000	1	0.361875
27.266667	1	0.377500
27.283333	1	0.396500
27.300000	1	0.418500
27.316667	1	0.444500
27.333333	1	0.474625
27.350000	1	0.511500
27.366667	1	0.555000
27.383333	1	0.605375
27.400000	1	0.664000
27.416667	1	0.731875
27.433333	1	0.810125
27.450000	1	0.900625
27.466667	1	1.002750
27.483333	1	1.117875
27.500000	1	1.247375
27.516667	1	1.391750
27.533333	1	1.550750
27.550000	1	1.724375
27.566667	1	1.912000
27.583333	1	2.114000
27.600000	1	2.329500
27.616667	1	2.557000
27.633333	1	2.795000
27.650000	1	3.042000
27.666667	1	3.294750
27.683333	1	3.551375
27.700000	1	3.808250
27.716667	1	4.061000
27.733333	1	4.307125
27.750000	1	4.543125
27.766667	1	4.764500
27.783333	1	4.968000
27.800000	1	5.150500
27.816667	1	5.307750
27.833333	1	5.438500
27.850000	1	5.539375
27.866667	1	5.609125
27.883333	1	5.646000
27.900000	1	5.650250
27.916667	1	5.621625
27.933333	1	5.560375
27.950000	1	5.468875
27.966667	1	5.349375
27.983333	1	5.204250
28.000000	1	5.037250
28.016667	1	4.850500
28.033333	1	4.647500
28.050000	1	4.431750
28.066667	1	4.207625
28.083333	1	3.977250
28.100000	1	3.744500
28.116667	1	3.513000
28.133333	1	3.285125
28.150000	1	3.062750
28.166667	1	2.847750
28.183333	1	2.640500
28.200000	1	2.444375
28.216667	1	2.259000
28.233333	1	2.084750
28.250000	1	1.921000
28.266667	1	1.769250
28.283333	1	1.627750
28.300000	1	1.497250
28.316667	1	1.378000
28.333333	1	1.268750
28.350000	1	1.169250
28.366667	1	1.078750
28.383333	1	0.996375
28.400000	1	0.922500
28.416667	1	0.855125
28.433333	1	0.793750
28.450000	1	0.739250
28.466667	1	0.690250
28.483333	1	0.646500
28.500000	1	0.608000
28.516667	1	0.573875
28.533333	1	0.543375
28.550000	1	0.517125
28.566667	1	0.494250
28.583333	1	0.474250
28.600000	1	0.457500
28.616667	1	0.443625
28.633333	1	0.431625
28.650000	1	0.421750
28.666667	1	0.413250
28.683333	1	0.407500
28.700000	1	0.403000
28.716667	1	0.398250
28.733333	1	0.395625
28.750000	1	0.393875
28.766667	1	0.393750
28.783333	1	0.393750
28.800000	1	0.394875
28.816667	1	0.395500
28.833333	1	0.397000
28.850000	1	0.398500
28.866667	1	0.400625
28.883333	1	0.402000
28.900000	1	0.403500
28.916667	1	0.404250
28.933333	1	0.405375
28.950000	1	0.406000
28.966667	1	0.406250
28.983333	1	0.405750
29.000000	1	0.404625
29.016667	1	0.403250
29.033333	1	0.400750
29.050000	1	0.397125
29.066667	1	0.393125
29.083333	1	0.387500
29.100000	1	0.381125
29.116667	1	0.374625
29.133333	1	0.365000
29.150000	1	0.354375
29.166667	1	0.342625
29.183333	1	0.329250
29.200000	1	0.314000
29.216667	1	0.297875
29.233333	1	0.279375
29.250000	1	0.259750
29.266667	1	0.237250
29.283333	1	0.214000
29.300000	1	0.188250
29.316667	1	0.160875
29.333333	1	0.131625
29.350000	1	0.100250
29.366667	1	0.067250
29.383333	1	0.032625
29.400000	1	-0.002500
29.416667	1	-0.039250
29.433333	1	-0.076875
29.450000	1	-0.116125
29.466667	1	-0.155750
29.483333	1	-0.195500
29.500000	1	-0.235750
29.516667	1	-0.275750
29.533333	1	-0.314750
29.550000	1	-0.353250
29.566667	1	-0.390375
29.583333	1	-0.425500
29.600000	1	-0.459625
29.616667	1	-0.490500
29.633333	1	-0.518750
29.650000	1	-0.544875
29.666667	1	-0.567375
29.683333	1	-0.587000
29.700000	1	-0.603750
29.716667	1	-0.617000
29.733333	1	-0.627250
29.750000	1	-0.633375
29.766667	1	-0.635500
29.783333	1	-0.634500
29.800000	1	-0.630500
29.816667	1	-0.622500
29.833333	1	-0.611250
29.850000	1	-0.597125
29.866667	1	-0.581250
29.883333	1	-0.561875
29.900000	1	-0.541000
29.916667	1	-0.517375
29.933333	1	-0.492875
29.950000	1	-0.466875
29.966667	1	-0.440000
29.983333	1	-0.412625
30.000000	1	-0.384250
30.016667	1	-0.355250
30.033333	1	-0.326625
30.050000	1	-0.298875
30.066667	1	-0.270375
30.083333	1	-0.242375
30.100000	1	-0.215125
30.116667	1	-0.188250
30.133333	1	-0.163000
30.150000	1	-0.138625
30.166667	1	-0.114500
30.183333	1	-0.092500
30.200000	1	-0.071000
30.216667	1	-0.050625
30.233333	1	-0.031750
30.250000	1	-0.014125
30.266667	1	0.002500
30.283333	1	0.018500
30.300000	1	0.033375
30.316667	1	0.047625
30.333333	1	0.060500
30.350000	1	0.072875
30.366667	1	0.084250
30.383333	1	0.093750
30.400000	1	0.104000
30.416667	1	0.113375
30.433333	1	0.122250
30.450000	1	0.129875
30.466667	1	0.137000
30.483333	1	0.144125
30.500000	1	0.150125
30.516667	1	0.156500
30.533333	1	0.162750
30.550000	1	0.169125
30.566667	1	0.174750
30.583333	1	0.181000
30.600000	1	0.187000
30.616667	1	0.193625
30.633333	1	0.199250
30.650000	1	0.206125
30.666667	1	0.212750
30.683333	1	0.219125
30.700000	1	0.226500
30.716667	1	0.233875
30.733333	1	0.241875
30.750000	1	0.249500
30.766667	1	0.258125
30.783333	1	0.266750
30.800000	1	0.276375
30.816667	1	0.286125
30.833333	1	0.296250
30.850000	1	0.306500
30.866667	1	0.318250
30.883333	1	0.329625
30.900000	1	0.342750
30.916667	1	0.356625
30.933333	1	0.371000
30.950000	1	0.386375
30.966667	1	0.403875
30.983333	1	0.422500
31.000000	1	0.443125
31.016667	1	0.465625
31.033333	1	0.492000
31.050000	1	0.520875
31.066667	1	0.553375
31.083333	1	0.590250
31.100000	1	0.631375
31.116667	1	0.678000
31.133333	1	0.730125
31.150000	1	0.788000
31.166667	1	0.852875
31.183333	1	0.925625
31.200000	1	1.006125
31.216667	1	1.095000
31.233333	1	1.191250
31.250000	1	1.295750
31.266667	1	1.408250
31.283333	1	1.529750
31.300000	1	1.658125
31.316667	1	1.793875
31.333333	1	1.935375
31.350000	1	2.082375
31.366667	1	2.232375
31.383333	1	2.385750
31.400000	1	2.540875
31.416667	1	2.695250
31.433333	1	2.846875
31.450000	1	2.995875
31.466667	1	3.138500
31.483333	1	3.273250
31.500000	1	3.399500
31.516667	1	3.514000
31.533333	1	3.616375
31.550000	1	3.705375
31.566667	1	3.779375
31.583333	1	3.837375
31.600000	1	3.880000
31.616667	1	3.905125
31.633333	1	3.913750
31.650000	1	3.905375
31.666667	1	3.881000
31.683333	1	3.840750
31.700000	1	3.785875
31.716667	1	3.717500
31.733333	1	3.636000
31.750000	1	3.544625
31.766667	1	3.442750
31.783333	1	3.331625
31.800000	1	3.214125
31.816667	1	3.090625
31.833333	1	2.963000
31.850000	1	2.832125
31.866667	1	2.700000
31.883333	1	2.567375
31.900000	1	2.435250
31.916667	1	2.305125
31.933333	1	2.176750
31.950000	1	2.051875
31.966667	1	1.930750
31.983333	1	1.813500
32.000000	1	1.700000
32.016667	1	1.592000
32.033333	1	1.488000
32.050000	1	1.390000
32.066667	1	1.296375
32.083333	1	1.206750
32.100000	1	1.122875
32.116667	1	1.044125
32.133333	1	0.969625
32.150000	1	0.899125
32.166667	1	0.833125
32.183333	1	0.771750
32.200000	1	0.713750
32.216667	1	0.659750
32.233333	1	0.608750
32.250000	1	0.561125
32.266667	1	0.517500
32.283333	1	0.476000
32.300000	1	0.438125
32.316667	1	0.402250
32.333333	1	0.369375
32.350000	1	0.339250
32.366667	1	0.311625
32.383333	1	0.285125
32.400000	1	0.261250
32.416667	1	0.238625
32.433333	1	0.217625
32.450000	1	0.198625
32.466667	1	0.181375
32.483333	1	0.166000
32.500000	1	0.151375
32.516667	1	0.138125
32.533333	1	0.126625
32.550000	1	0.115875
32.566667	1	0.106000
32.583333	1	0.097875
32.600000	1	0.089750
32.616667	1	0.082625
32.633333	1	0.076375
32.650000	1	0.070750
32.666667	1	0.065625
32.683333	1	0.061000
32.700000	1	0.056250
32.716667	1	0.052625
32.733333	1	0.049625
32.750000	1	0.047125
32.766667	1	0.044875
32.783333	1	0.043125
32.800000	1	0.041625
32.816667	1	0.040125
32.833333	1	0.039000
32.850000	1	0.037750
32.866667	1	0.037375
32.883333	1	0.036625
32.900000	1	0.037000
32.916667	1	0.036750
32.933333	1	0.036625
32.950000	1	0.036625
32.966667	1	0.037125
32.983333	1	0.037125
33.000000	1	0.038125
33.016667	1	0.039125
33.033333	1	0.039500
33.050000	1	0.040125
33.066667	1	0.040250
33.083333	1	0.041125
33.100000	1	0.041250
33.116667	1	0.041875
33.133333	1	0.042375
33.150000	1	0.043875
33.166667	1	0.044250
33.183333	1	0.045625
33.200000	1	0.046500
33.216667	1	0.047500
33.233333	1	0.047625
33.250000	1	0.049125
33.266667	1	0.050000
33.283333	1	0.051625
33.300000	1	0.051750
33.316667	1	0.053375
33.333333	1	0.054250
33.350000	1	0.055750
33.366667	1	0.057125
33.383333	1	0.058750
33.400000	1	0.060375
33.416667	1	0.062500
33.433333	1	0.064000
33.450000	1	0.066125
33.466667	1	0.068625
33.483333	1	0.070250
33.500000	1	0.072625
33.516667	1	0.074625
33.533333	1	0.077500
33.550000	1	0.080375
33.566667	1	0.083500
33.583333	1	0.086125
33.600000	1	0.089375
33.616667	1	0.091500
33.633333	1	0.094750
33.650000	1	0.097875
33.666667	1	0.101250
33.683333	1	0.104000
33.700000	1	0.108125
33.716667	1	0.110750
33.733333	1	0.114000
33.750000	1	0.117500
33.766667	1	0.121000
33.783333	1	0.123625
33.800000	1	0.126500
33.816667	1	0.129250
33.833333	1	0.131375
33.850000	1	0.134375
33.866667	1	0.136750
33.883333	1	0.138875
33.900000	1	0.141500
33.916667	1	0.144125
33.933333	1	0.146250
33.950000	1	0.148375
33.966667	1	0.150125
33.983333	1	0.151875
34.000000	1	0.153000
34.016667	1	0.154625
34.033333	1	0.155500
34.050000	1	0.156375
34.066667	1	0.156750
34.083333	1	0.157500
34.100000	1	0.157500
34.116667	1	0.158000
34.133333	1	0.158625
34.150000	1	0.158000
34.166667	1	0.157500
34.183333	1	0.157375
34.200000	1	0.156000
34.216667	1	0.155375
34.233333	1	0.154625
34.250000	1	0.153875
34.266667	1	0.153875
34.283333	1	0.153125
34.300000	1	0.152125
34.316667	1	0.150750
34.333333	1	0.150125
34.350000	1	0.149750
34.366667	1	0.149500
34.383333	1	0.148875
34.400000	1	0.148875
34.416667	1	0.148625
34.433333	1	0.147875
34.450000	1	0.147625
34.466667	1	0.147375
34.483333	1	0.147125
34.500000	1	0.147375
34.516667	1	0.146875
34.533333	1	0.146750
34.550000	1	0.146750
34.566667	1	0.146875
34.583333	1	0.147000
34.600000	1	0.147000
34.616667	1	0.147625
34.633333	1	0.147625
34.650000	1	0.147375
34.666667	1	0.146750
34.683333	1	0.147125
34.700000	1	0.147000
34.716667	1	0.147750
34.733333	1	0.147875
34.750000	1	0.148500
34.766667	1	0.148875
34.783333	1	0.149000
34.800000	1	0.149000
34.816667	1	0.148625
34.833333	1	0.148500
34.850000	1	0.148625
34.866667	1	0.148500
34.883333	1	0.148625
34.900000	1	0.148000
34.916667	1	0.148000
34.933333	1	0.147875
34.950000	1	0.147000
34.966667	1	0.146875
34.983333	1	0.146500
35.000000	1	0.145875
35.016667	1	0.145875
35.033333	1	0.145250
35.050000	1	0.144375
35.066667	1	0.143625
35.083333	1	0.142500
35.100000	1	0.141750
35.116667	1	0.140000
35.133333	1	0.138875
35.150000	1	0.138375
35.166667	1	0.137500
35.183333	1	0.136000
35.200000	1	0.134875
35.216667	1	0.133625
35.233333	1	0.131625
35.250000	1	0.130625
35.266667	1	0.129250
35.283333	1	0.127000
35.300000	1	0.125875
35.316667	1	0.124375
35.333333	1	0.123250
35.350000	1	0.122250
35.366667	1	0.121125
35.383333	1	0.120375
35.400000	1	0.118875
35.416667	1	0.118000
35.433333	1	0.116750
35.450000	1	0.116375
35.466667	1	0.115750
35.483333	1	0.115625
35.500000	1	0.115125
35.516667	1	0.115625
35.533333	1	0.116125
35.550000	1	0.117000
35.566667	1	0.118250
35.583333	1	0.119250
35.600000	1	0.120250
35.616667	1	0.121500
35.633333	1	0.122875
35.650000	1	0.124500
35.666667	1	0.126375
35.683333	1	0.127875
35.700000	1	0.129625
35.716667	1	0.132125
35.733333	1	0.134750
35.750000	1	0.136625
35.766667	1	0.139125
35.783333	1	0.141375
35.800000	1	0.144125
35.816667	1	0.145875
35.833333	1	0.148500
35.850000	1	0.150125
35.866667	1	0.151625
35.883333	1	0.153000
35.900000	1	0.154375
35.916667	1	0.155000
35.933333	1	0.156250
35.950000	1	0.157250
35.966667	1	0.157750
35.983333	1	0.157875
36.000000	1	0.158625
36.016667	1	0.159375
36.033333	1	0.159375
36.050000	1	0.159125
36.066667	1	0.159375
36.083333	1	0.159625
36.100000	1	0.159375
36.116667	1	0.159375
36.133333	1	0.159125
36.150000	1	0.159125
36.166667	1	0.158750
36.183333	1	0.159250
36.200000	1	0.159375
36.216667	1	0.159500
36.233333	1	0.159250
36.250000	1	0.159750
36.266667	1	0.160375
36.283333	1	0.161250
36.300000	1	0.162750
36.316667	1	0.163125
36.333333	1	0.163500
36.350000	1	0.164750
36.366667	1	0.165625
36.383333	1	0.167250
36.400000	1	0.169000
36.416667	1	0.170500
36.433333	1	0.171750
36.450000	1	0.173375
36.466667	1	0.174750
36.483333	1	0.175875
36.500000	1	0.177375
36.516667	1	0.178375
36.533333	1	0.179375
36.550000	1	0.180125
36.566667	1	0.181250
36.583333	1	0.182125
36.600000	1	0.182750
36.616667	1	0.183250
36.633333	1	0.183500
36.650000	1	0.183250
36.666667	1	0.183125
36.683333	1	0.182375
36.700000	1	0.182125
36.716667	1	0.181250
36.733333	1	0.180250
36.750000	1	0.178750
36.766667	1	0.177125
36.783333	1	0.175250
36.800000	1	0.172875
36.816667	1	0.170250
36.833333	1	0.167500
36.850000	1	0.164500
36.866667	1	0.161250
36.883333	1	0.158250
36.900000	1	0.155250
36.916667	1	0.151875
36.933333	1	0.148750
36.950000	1	0.145500
36.966667	1	0.142000
36.983333	1	0.138625
37.000000	1	0.135500
37.016667	1	0.132375
37.033333	1	0.129375
37.050000	1	0.126250
37.066667	1	0.123625
37.083333	1	0.120750
37.100000	1	0.118250
37.116667	1	0.116000
37.133333	1	0.113625
37.150000	1	0.111125
37.166667	1	0.109750
37.183333	1	0.107625
37.200000	1	0.106625
37.216667	1	0.105375
37.233333	1	0.104625
37.250000	1	0.104250
37.266667	1	0.103625
37.283333	1	0.103500
37.300000	1	0.103250
37.316667	1	0.102875
37.333333	1	0.103000
37.350000	1	0.103250
37.366667	1	0.102750
37.383333	1	0.102500
37.400000	1	0.102875
37.416667	1	0.102625
37.433333	1	0.102625
37.450000	1	0.102750
37.466667	1	0.102500
37.483333	1	0.101750
37.500000	1	0.101000
37.516667	1	0.100625
37.533333	1	0.100750
37.550000	1	0.100250
37.566667	1	0.099250
37.583333	1	0.099625
37.600000	1	0.098250
37.616667	1	0.097375
37.633333	1	0.097250
37.650000	1	0.096625
37.666667	1	0.095125
37.683333	1	0.094500
37.700000	1	0.093500
37.716667	1	0.092000
37.733333	1	0.091125
37.750000	1	0.089875
37.766667	1	0.089250
37.783333	1	0.089000
37.800000	1	0.088125
37.816667	1	0.087125
37.833333	1	0.085500
37.850000	1	0.084375
37.866667	1	0.083375
37.883333	1	0.082250
37.900000	1	0.081125
37.916667	1	0.080375
37.933333	1	0.079500
37.950000	1	0.078125
37.966667	1	0.077250
37.983333	1	0.076000
38.000000	1	0.075250
38.016667	1	0.074750
38.033333	1	0.074125
38.050000	1	0.073375
38.066667	1	0.073000
38.083333	1	0.072375
38.100000	1	0.070875
38.116667	1	0.070750
38.133333	1	0.071125
38.150000	1	0.070125
38.166667	1	0.070500
38.183333	1	0.069625
38.200000	1	0.068500
38.216667	1	0.068500
38.233333	1	0.068500
38.250000	1	0.068375
38.266667	1	0.067625
38.283333	1	0.067875
38.300000	1	0.067375
38.316667	1	0.066875
38.333333	1	0.067125
38.350000	1	0.067750
38.366667	1	0.068375
38.383333	1	0.068500
38.400000	1	0.068375
38.416667	1	0.068250
38.433333	1	0.068125
38.450000	1	0.068125
38.466667	1	0.068500
38.483333	1	0.068125
38.500000	1	0.067875
38.516667	1	0.068000
38.533333	1	0.068250
38.550000	1	0.067875
38.566667	1	0.067375
38.583333	1	0.067000
38.600000	1	0.066625
38.616667	1	0.066250
38.633333	1	0.065875
38.650000	1	0.065125
38.666667	1	0.064875
38.683333	1	0.064125
38.700000	1	0.064125
38.716667	1	0.063125
38.733333	1	0.062750
38.750000	1	0.062125
38.766667	1	0.062000
38.783333	1	0.061250
38.800000	1	0.060875
38.816667	1	0.060000
38.833333	1	0.059375
38.850000	1	0.059625
38.866667	1	0.059625
38.883333	1	0.059250
38.900000	1	0.058375
38.916667	1	0.058250
38.933333	1	0.057500
38.950000	1	0.057875
38.966667	1	0.056500
38.983333	1	0.056500
39.000000	1	0.055500
39.016667	1	0.055125
39.033333	1	0.054000
39.050000	1	0.053750
39.066667	1	0.053375
39.083333	1	0.053000
39.100000	1	0.052375
39.116667	1	0.051625
39.133333	1	0.050625
39.150000	1	0.049875
39.166667	1	0.049250
39.183333	1	0.048750
39.200000	1	0.047875
39.216667	1	0.047125
39.233333	1	0.046500
39.250000	1	0.045500
39.266667	1	0.044250
39.283333	1	0.043250
39.300000	1	0.041875
39.316667	1	0.041000
39.333333	1	0.039625
39.350000	1	0.039125
39.366667	1	0.037625
39.383333	1	0.035750
39.400000	1	0.034500
39.416667	1	0.033375
39.433333	1	0.031875
39.450000	1	0.029625
39.466667	1	0.028375
39.483333	1	0.026875
39.500000	1	0.025375
39.516667	1	0.024125
39.533333	1	0.022625
39.550000	1	0.022125
39.566667	1	0.021125
39.583333	1	0.020250
39.600000	1	0.019375
39.616667	1	0.018500
39.633333	1	0.017500
39.650000	1	0.016875
39.666667	1	0.016000
39.683333	1	0.016375
39.700000	1	0.016000
39.716667	1	0.015875
39.733333	1	0.015875
39.750000	1	0.016500
39.766667	1	0.017000
39.783333	1	0.017500
39.800000	1	0.017875
39.816667	1	0.018625
39.833333	1	0.019250
39.850000	1	0.020375
39.866667	1	0.021875
39.883333	1	0.022500
39.900000	1	0.024000
39.916667	1	0.025625
39.933333	1	0.026875
39.950000	1	0.029000
39.966667	1	0.030125
39.983333	1	0.030750
40.000000	1	0.031375
