URL	chrom://7040-86g6c92/XVault/Ultimate_3000/20/20240517_CMO_FP23_FP25_MarkusDeplate.seq/530.smp/RI_1.channel/RI_1.chm
Channel	RI_1

Injection Information:
Data Vault	XVault
Sequence	20240517_CMO_FP23_FP25_MarkusDeplate
Name	FP26_24_s4
Number	99
Position	BB4
Comment	
Processing Method	
Instrument Method	run_25B_method
Type	Unknown
Status	Finished
Inject Time	30.05.2024 13:55:51 +02:00
Volume (µl)	20.0000
Dilution Factor	1.0000
Weight	1.0000

Chromatogram Data Information:
Time Min. (min)	0.000000
Time Max. (min)	40.000000
Data Points	2401
Detector	RI
Generating Data System	Chromeleon 7.3.2.11814
Exporting Data System	Chromeleon 7.3.2.0
Operator	Instrument Controller
Signal Quantity	Refractive 
Signal Unit	µRIU
Signal Min.	-0.820750
Signal Max.	59.681500
Channel	RI_1
Driver Name	RID520Driver.dll
Channel Type	Evaluation
Min. Step (s)	1
Max. Step (s)	1
Average Step (s)	1

Signal Parameter Information:
Signal Info	

Chromatogram Data:
Time (min)	Step (s)	Value (µRIU)
0.000000	n.a.	0.018500
0.016667	1	0.017500
0.033333	1	0.017000
0.050000	1	0.016250
0.066667	1	0.015625
0.083333	1	0.015750
0.100000	1	0.015500
0.116667	1	0.014875
0.133333	1	0.014250
0.150000	1	0.013500
0.166667	1	0.012500
0.183333	1	0.011500
0.200000	1	0.010500
0.216667	1	0.009375
0.233333	1	0.008375
0.250000	1	0.008000
0.266667	1	0.007000
0.283333	1	0.005250
0.300000	1	0.004000
0.316667	1	0.003500
0.333333	1	0.002625
0.350000	1	0.000875
0.366667	1	-0.001250
0.383333	1	-0.003125
0.400000	1	-0.004750
0.416667	1	-0.006375
0.433333	1	-0.006375
0.450000	1	-0.005875
0.466667	1	-0.005375
0.483333	1	-0.004375
0.500000	1	-0.004250
0.516667	1	-0.004375
0.533333	1	-0.005375
0.550000	1	-0.006500
0.566667	1	-0.007875
0.583333	1	-0.009875
0.600000	1	-0.012750
0.616667	1	-0.015125
0.633333	1	-0.017125
0.650000	1	-0.018250
0.666667	1	-0.018500
0.683333	1	-0.018125
0.700000	1	-0.017875
0.716667	1	-0.017125
0.733333	1	-0.017000
0.750000	1	-0.016750
0.766667	1	-0.015750
0.783333	1	-0.014875
0.800000	1	-0.013625
0.816667	1	-0.012750
0.833333	1	-0.011125
0.850000	1	-0.009500
0.866667	1	-0.008500
0.883333	1	-0.007375
0.900000	1	-0.006000
0.916667	1	-0.004375
0.933333	1	-0.003000
0.950000	1	-0.002000
0.966667	1	-0.000500
0.983333	1	0.000250
1.000000	1	0.001250
1.016667	1	0.002750
1.033333	1	0.004125
1.050000	1	0.005625
1.066667	1	0.006500
1.083333	1	0.007500
1.100000	1	0.009000
1.116667	1	0.009250
1.133333	1	0.010500
1.150000	1	0.011500
1.166667	1	0.012375
1.183333	1	0.012875
1.200000	1	0.013125
1.216667	1	0.014125
1.233333	1	0.014625
1.250000	1	0.015125
1.266667	1	0.015750
1.283333	1	0.016125
1.300000	1	0.015250
1.316667	1	0.015250
1.333333	1	0.014125
1.350000	1	0.013250
1.366667	1	0.012375
1.383333	1	0.011000
1.400000	1	0.010000
1.416667	1	0.009125
1.433333	1	0.007875
1.450000	1	0.006625
1.466667	1	0.005750
1.483333	1	0.004375
1.500000	1	0.002750
1.516667	1	0.001250
1.533333	1	-0.000750
1.550000	1	-0.002250
1.566667	1	-0.003375
1.583333	1	-0.005125
1.600000	1	-0.006750
1.616667	1	-0.008250
1.633333	1	-0.009125
1.650000	1	-0.009750
1.666667	1	-0.010250
1.683333	1	-0.011250
1.700000	1	-0.010875
1.716667	1	-0.010750
1.733333	1	-0.011125
1.750000	1	-0.011125
1.766667	1	-0.011500
1.783333	1	-0.011375
1.800000	1	-0.010875
1.816667	1	-0.010250
1.833333	1	-0.009625
1.850000	1	-0.009250
1.866667	1	-0.008500
1.883333	1	-0.008125
1.900000	1	-0.007750
1.916667	1	-0.006750
1.933333	1	-0.006250
1.950000	1	-0.005000
1.966667	1	-0.004375
1.983333	1	-0.003375
2.000000	1	-0.004000
2.016667	1	-0.002750
2.033333	1	-0.001500
2.050000	1	-0.000375
2.066667	1	0.000125
2.083333	1	0.001250
2.100000	1	0.001625
2.116667	1	0.001750
2.133333	1	0.002875
2.150000	1	0.003250
2.166667	1	0.004125
2.183333	1	0.004625
2.200000	1	0.004750
2.216667	1	0.005750
2.233333	1	0.006500
2.250000	1	0.006625
2.266667	1	0.007750
2.283333	1	0.008125
2.300000	1	0.008375
2.316667	1	0.009375
2.333333	1	0.010375
2.350000	1	0.011125
2.366667	1	0.011750
2.383333	1	0.012625
2.400000	1	0.013250
2.416667	1	0.013500
2.433333	1	0.014500
2.450000	1	0.015000
2.466667	1	0.016125
2.483333	1	0.017250
2.500000	1	0.017750
2.516667	1	0.018250
2.533333	1	0.018875
2.550000	1	0.018875
2.566667	1	0.019000
2.583333	1	0.019500
2.600000	1	0.019875
2.616667	1	0.020625
2.633333	1	0.019875
2.650000	1	0.020625
2.666667	1	0.020750
2.683333	1	0.020875
2.700000	1	0.020250
2.716667	1	0.020125
2.733333	1	0.020000
2.750000	1	0.019000
2.766667	1	0.018250
2.783333	1	0.016875
2.800000	1	0.016250
2.816667	1	0.015375
2.833333	1	0.015375
2.850000	1	0.014500
2.866667	1	0.013000
2.883333	1	0.012875
2.900000	1	0.012375
2.916667	1	0.011625
2.933333	1	0.011250
2.950000	1	0.010750
2.966667	1	0.010625
2.983333	1	0.010375
3.000000	1	0.010250
3.016667	1	0.010500
3.033333	1	0.010875
3.050000	1	0.010500
3.066667	1	0.010250
3.083333	1	0.010500
3.100000	1	0.012000
3.116667	1	0.012500
3.133333	1	0.013125
3.150000	1	0.013375
3.166667	1	0.013375
3.183333	1	0.014250
3.200000	1	0.015250
3.216667	1	0.015875
3.233333	1	0.016625
3.250000	1	0.016750
3.266667	1	0.017125
3.283333	1	0.017875
3.300000	1	0.018375
3.316667	1	0.018875
3.333333	1	0.019000
3.350000	1	0.019250
3.366667	1	0.019375
3.383333	1	0.019500
3.400000	1	0.019250
3.416667	1	0.019375
3.433333	1	0.018625
3.450000	1	0.019125
3.466667	1	0.019250
3.483333	1	0.019250
3.500000	1	0.019375
3.516667	1	0.019500
3.533333	1	0.019625
3.550000	1	0.019250
3.566667	1	0.019000
3.583333	1	0.019125
3.600000	1	0.019375
3.616667	1	0.019500
3.633333	1	0.020750
3.650000	1	0.020750
3.666667	1	0.020750
3.683333	1	0.020750
3.700000	1	0.021125
3.716667	1	0.021250
3.733333	1	0.021250
3.750000	1	0.021875
3.766667	1	0.022125
3.783333	1	0.022625
3.800000	1	0.023625
3.816667	1	0.024625
3.833333	1	0.025250
3.850000	1	0.025250
3.866667	1	0.026250
3.883333	1	0.026250
3.900000	1	0.026500
3.916667	1	0.026750
3.933333	1	0.027500
3.950000	1	0.027500
3.966667	1	0.028375
3.983333	1	0.029375
4.000000	1	0.029625
4.016667	1	0.030625
4.033333	1	0.032000
4.050000	1	0.032750
4.066667	1	0.033250
4.083333	1	0.033625
4.100000	1	0.035125
4.116667	1	0.035875
4.133333	1	0.036625
4.150000	1	0.037875
4.166667	1	0.038375
4.183333	1	0.039875
4.200000	1	0.041000
4.216667	1	0.043250
4.233333	1	0.045000
4.250000	1	0.045750
4.266667	1	0.047000
4.283333	1	0.048250
4.300000	1	0.049875
4.316667	1	0.050750
4.333333	1	0.052125
4.350000	1	0.053000
4.366667	1	0.054625
4.383333	1	0.055625
4.400000	1	0.056750
4.416667	1	0.057875
4.433333	1	0.058875
4.450000	1	0.059875
4.466667	1	0.060500
4.483333	1	0.061375
4.500000	1	0.062875
4.516667	1	0.064250
4.533333	1	0.065125
4.550000	1	0.066250
4.566667	1	0.067375
4.583333	1	0.068875
4.600000	1	0.069625
4.616667	1	0.070750
4.633333	1	0.072000
4.650000	1	0.073750
4.666667	1	0.075750
4.683333	1	0.076750
4.700000	1	0.078000
4.716667	1	0.079125
4.733333	1	0.080750
4.750000	1	0.082375
4.766667	1	0.084500
4.783333	1	0.086250
4.800000	1	0.087750
4.816667	1	0.089375
4.833333	1	0.091500
4.850000	1	0.093125
4.866667	1	0.094250
4.883333	1	0.095750
4.900000	1	0.097750
4.916667	1	0.099750
4.933333	1	0.100875
4.950000	1	0.102375
4.966667	1	0.103750
4.983333	1	0.105000
5.000000	1	0.106625
5.016667	1	0.108125
5.033333	1	0.109500
5.050000	1	0.111125
5.066667	1	0.112875
5.083333	1	0.114250
5.100000	1	0.115875
5.116667	1	0.117125
5.133333	1	0.118250
5.150000	1	0.119125
5.166667	1	0.121500
5.183333	1	0.123375
5.200000	1	0.124875
5.216667	1	0.126875
5.233333	1	0.128875
5.250000	1	0.130750
5.266667	1	0.132750
5.283333	1	0.134375
5.300000	1	0.137250
5.316667	1	0.139375
5.333333	1	0.141375
5.350000	1	0.143250
5.366667	1	0.146000
5.383333	1	0.148500
5.400000	1	0.151375
5.416667	1	0.153750
5.433333	1	0.156750
5.450000	1	0.159875
5.466667	1	0.163000
5.483333	1	0.166500
5.500000	1	0.169375
5.516667	1	0.172250
5.533333	1	0.174875
5.550000	1	0.178000
5.566667	1	0.180875
5.583333	1	0.184500
5.600000	1	0.187500
5.616667	1	0.190875
5.633333	1	0.194000
5.650000	1	0.197500
5.666667	1	0.200125
5.683333	1	0.203000
5.700000	1	0.205125
5.716667	1	0.207625
5.733333	1	0.210625
5.750000	1	0.212500
5.766667	1	0.214125
5.783333	1	0.215625
5.800000	1	0.217750
5.816667	1	0.219000
5.833333	1	0.220125
5.850000	1	0.221000
5.866667	1	0.221250
5.883333	1	0.221250
5.900000	1	0.222500
5.916667	1	0.223000
5.933333	1	0.223500
5.950000	1	0.223500
5.966667	1	0.223000
5.983333	1	0.223000
6.000000	1	0.222250
6.016667	1	0.221625
6.033333	1	0.220500
6.050000	1	0.219125
6.066667	1	0.217500
6.083333	1	0.216125
6.100000	1	0.214750
6.116667	1	0.212250
6.133333	1	0.210125
6.150000	1	0.208250
6.166667	1	0.205500
6.183333	1	0.203750
6.200000	1	0.201250
6.216667	1	0.197875
6.233333	1	0.195250
6.250000	1	0.192125
6.266667	1	0.188500
6.283333	1	0.185375
6.300000	1	0.182125
6.316667	1	0.179375
6.333333	1	0.176000
6.350000	1	0.172875
6.366667	1	0.169375
6.383333	1	0.166375
6.400000	1	0.163250
6.416667	1	0.159375
6.433333	1	0.155875
6.450000	1	0.152625
6.466667	1	0.149875
6.483333	1	0.146000
6.500000	1	0.143000
6.516667	1	0.139875
6.533333	1	0.136625
6.550000	1	0.134000
6.566667	1	0.130625
6.583333	1	0.127625
6.600000	1	0.123875
6.616667	1	0.119875
6.633333	1	0.116625
6.650000	1	0.112500
6.666667	1	0.109625
6.683333	1	0.105875
6.700000	1	0.102625
6.716667	1	0.099125
6.733333	1	0.096000
6.750000	1	0.092500
6.766667	1	0.089000
6.783333	1	0.086375
6.800000	1	0.083000
6.816667	1	0.079875
6.833333	1	0.077375
6.850000	1	0.074625
6.866667	1	0.071000
6.883333	1	0.068625
6.900000	1	0.066500
6.916667	1	0.064375
6.933333	1	0.062375
6.950000	1	0.060375
6.966667	1	0.058000
6.983333	1	0.057000
7.000000	1	0.055625
7.016667	1	0.054625
7.033333	1	0.053125
7.050000	1	0.052625
7.066667	1	0.052125
7.083333	1	0.052000
7.100000	1	0.052125
7.116667	1	0.053000
7.133333	1	0.053250
7.150000	1	0.053625
7.166667	1	0.054625
7.183333	1	0.056125
7.200000	1	0.057625
7.216667	1	0.059250
7.233333	1	0.061500
7.250000	1	0.063125
7.266667	1	0.065000
7.283333	1	0.067500
7.300000	1	0.070500
7.316667	1	0.074125
7.333333	1	0.077125
7.350000	1	0.080500
7.366667	1	0.084000
7.383333	1	0.087000
7.400000	1	0.090625
7.416667	1	0.094250
7.433333	1	0.097625
7.450000	1	0.100875
7.466667	1	0.103625
7.483333	1	0.106875
7.500000	1	0.109875
7.516667	1	0.113250
7.533333	1	0.116375
7.550000	1	0.118000
7.566667	1	0.119750
7.583333	1	0.121125
7.600000	1	0.122000
7.616667	1	0.123500
7.633333	1	0.124250
7.650000	1	0.123875
7.666667	1	0.124125
7.683333	1	0.123125
7.700000	1	0.122500
7.716667	1	0.122125
7.733333	1	0.120500
7.750000	1	0.119500
7.766667	1	0.117750
7.783333	1	0.115625
7.800000	1	0.113500
7.816667	1	0.110375
7.833333	1	0.108375
7.850000	1	0.104625
7.866667	1	0.100875
7.883333	1	0.098125
7.900000	1	0.094375
7.916667	1	0.090375
7.933333	1	0.086500
7.950000	1	0.082500
7.966667	1	0.077750
7.983333	1	0.073125
8.000000	1	0.068875
8.016667	1	0.063625
8.033333	1	0.059500
8.050000	1	0.054500
8.066667	1	0.049750
8.083333	1	0.044750
8.100000	1	0.040750
8.116667	1	0.036125
8.133333	1	0.031125
8.150000	1	0.027000
8.166667	1	0.022500
8.183333	1	0.017750
8.200000	1	0.013125
8.216667	1	0.009250
8.233333	1	0.005500
8.250000	1	0.001250
8.266667	1	-0.002375
8.283333	1	-0.006875
8.300000	1	-0.009625
8.316667	1	-0.013375
8.333333	1	-0.016625
8.350000	1	-0.019625
8.366667	1	-0.022375
8.383333	1	-0.025500
8.400000	1	-0.028250
8.416667	1	-0.031250
8.433333	1	-0.034375
8.450000	1	-0.036750
8.466667	1	-0.039250
8.483333	1	-0.041625
8.500000	1	-0.043375
8.516667	1	-0.045000
8.533333	1	-0.046000
8.550000	1	-0.047250
8.566667	1	-0.049000
8.583333	1	-0.050625
8.600000	1	-0.052125
8.616667	1	-0.052750
8.633333	1	-0.053500
8.650000	1	-0.054125
8.666667	1	-0.055250
8.683333	1	-0.056125
8.700000	1	-0.056500
8.716667	1	-0.057125
8.733333	1	-0.057500
8.750000	1	-0.057125
8.766667	1	-0.057250
8.783333	1	-0.057875
8.800000	1	-0.058250
8.816667	1	-0.058000
8.833333	1	-0.058125
8.850000	1	-0.058500
8.866667	1	-0.058375
8.883333	1	-0.058250
8.900000	1	-0.058000
8.916667	1	-0.058000
8.933333	1	-0.057375
8.950000	1	-0.056375
8.966667	1	-0.055750
8.983333	1	-0.054375
9.000000	1	-0.053875
9.016667	1	-0.053000
9.033333	1	-0.052375
9.050000	1	-0.051125
9.066667	1	-0.050375
9.083333	1	-0.049125
9.100000	1	-0.048375
9.116667	1	-0.047250
9.133333	1	-0.046625
9.150000	1	-0.045125
9.166667	1	-0.043000
9.183333	1	-0.041625
9.200000	1	-0.040500
9.216667	1	-0.039000
9.233333	1	-0.037250
9.250000	1	-0.035375
9.266667	1	-0.034000
9.283333	1	-0.032500
9.300000	1	-0.030750
9.316667	1	-0.028750
9.333333	1	-0.027375
9.350000	1	-0.025500
9.366667	1	-0.024125
9.383333	1	-0.023000
9.400000	1	-0.021625
9.416667	1	-0.020875
9.433333	1	-0.019250
9.450000	1	-0.017750
9.466667	1	-0.016500
9.483333	1	-0.015375
9.500000	1	-0.014250
9.516667	1	-0.013250
9.533333	1	-0.012125
9.550000	1	-0.011375
9.566667	1	-0.010250
9.583333	1	-0.009250
9.600000	1	-0.008500
9.616667	1	-0.008750
9.633333	1	-0.008125
9.650000	1	-0.008250
9.666667	1	-0.007875
9.683333	1	-0.007875
9.700000	1	-0.008000
9.716667	1	-0.008375
9.733333	1	-0.008375
9.750000	1	-0.008375
9.766667	1	-0.009750
9.783333	1	-0.010500
9.800000	1	-0.011750
9.816667	1	-0.012750
9.833333	1	-0.015375
9.850000	1	-0.016625
9.866667	1	-0.018500
9.883333	1	-0.020250
9.900000	1	-0.022250
9.916667	1	-0.024000
9.933333	1	-0.026125
9.950000	1	-0.027750
9.966667	1	-0.030125
9.983333	1	-0.032000
10.000000	1	-0.034000
10.016667	1	-0.035375
10.033333	1	-0.036125
10.050000	1	-0.036375
10.066667	1	-0.036000
10.083333	1	-0.035000
10.100000	1	-0.032500
10.116667	1	-0.030125
10.133333	1	-0.025500
10.150000	1	-0.020250
10.166667	1	-0.013250
10.183333	1	-0.004625
10.200000	1	0.005625
10.216667	1	0.016875
10.233333	1	0.031875
10.250000	1	0.047750
10.266667	1	0.066125
10.283333	1	0.087750
10.300000	1	0.112000
10.316667	1	0.139500
10.333333	1	0.169875
10.350000	1	0.203250
10.366667	1	0.239000
10.383333	1	0.276000
10.400000	1	0.311500
10.416667	1	0.340250
10.433333	1	0.354000
10.450000	1	0.344125
10.466667	1	0.304750
10.483333	1	0.239375
10.500000	1	0.167125
10.516667	1	0.128875
10.533333	1	0.187750
10.550000	1	0.425375
10.566667	1	0.928750
10.583333	1	1.787625
10.600000	1	3.078750
10.616667	1	4.866625
10.633333	1	7.190750
10.650000	1	10.072625
10.666667	1	13.520875
10.683333	1	17.521875
10.700000	1	22.040375
10.716667	1	27.010000
10.733333	1	32.323750
10.750000	1	37.817250
10.766667	1	43.253125
10.783333	1	48.303000
10.800000	1	52.553375
10.816667	1	55.548625
10.833333	1	56.891875
10.850000	1	56.361000
10.866667	1	53.992375
10.883333	1	50.085875
10.900000	1	45.126000
10.916667	1	39.649125
10.933333	1	34.124000
10.950000	1	28.893500
10.966667	1	24.168125
10.983333	1	20.042375
11.000000	1	16.535875
11.016667	1	13.620750
11.033333	1	11.241625
11.050000	1	9.327125
11.066667	1	7.801000
11.083333	1	6.590250
11.100000	1	5.630125
11.116667	1	4.866875
11.133333	1	4.257250
11.150000	1	3.765875
11.166667	1	3.365875
11.183333	1	3.037125
11.200000	1	2.763500
11.216667	1	2.533875
11.233333	1	2.338750
11.250000	1	2.171000
11.266667	1	2.025750
11.283333	1	1.899875
11.300000	1	1.790125
11.316667	1	1.693875
11.333333	1	1.608625
11.350000	1	1.533250
11.366667	1	1.467500
11.383333	1	1.409375
11.400000	1	1.357250
11.416667	1	1.310625
11.433333	1	1.269375
11.450000	1	1.232125
11.466667	1	1.198625
11.483333	1	1.168500
11.500000	1	1.140625
11.516667	1	1.115250
11.533333	1	1.092750
11.550000	1	1.071750
11.566667	1	1.053250
11.583333	1	1.036625
11.600000	1	1.022125
11.616667	1	1.008500
11.633333	1	0.997375
11.650000	1	0.988000
11.666667	1	0.980750
11.683333	1	0.975375
11.700000	1	0.972375
11.716667	1	0.971500
11.733333	1	0.971500
11.750000	1	0.973750
11.766667	1	0.976375
11.783333	1	0.981125
11.800000	1	0.986125
11.816667	1	0.992250
11.833333	1	0.999000
11.850000	1	1.005625
11.866667	1	1.011875
11.883333	1	1.018125
11.900000	1	1.024250
11.916667	1	1.030000
11.933333	1	1.036000
11.950000	1	1.041250
11.966667	1	1.045875
11.983333	1	1.051375
12.000000	1	1.056125
12.016667	1	1.060125
12.033333	1	1.064375
12.050000	1	1.069750
12.066667	1	1.074875
12.083333	1	1.080500
12.100000	1	1.085750
12.116667	1	1.091875
12.133333	1	1.099000
12.150000	1	1.105875
12.166667	1	1.113000
12.183333	1	1.122000
12.200000	1	1.131750
12.216667	1	1.142625
12.233333	1	1.155000
12.250000	1	1.168625
12.266667	1	1.184250
12.283333	1	1.201250
12.300000	1	1.219875
12.316667	1	1.241750
12.333333	1	1.266750
12.350000	1	1.296500
12.366667	1	1.332375
12.383333	1	1.379750
12.400000	1	1.443125
12.416667	1	1.528000
12.433333	1	1.640750
12.450000	1	1.791125
12.466667	1	1.985125
12.483333	1	2.229750
12.500000	1	2.530125
12.516667	1	2.888875
12.533333	1	3.303375
12.550000	1	3.770375
12.566667	1	4.280000
12.583333	1	4.821000
12.600000	1	5.378750
12.616667	1	5.938125
12.633333	1	6.484125
12.650000	1	7.005250
12.666667	1	7.487875
12.683333	1	7.923250
12.700000	1	8.304500
12.716667	1	8.624125
12.733333	1	8.874875
12.750000	1	9.048125
12.766667	1	9.134750
12.783333	1	9.125625
12.800000	1	9.014250
12.816667	1	8.803000
12.833333	1	8.504125
12.850000	1	8.137125
12.866667	1	7.724625
12.883333	1	7.289000
12.900000	1	6.848625
12.916667	1	6.415000
12.933333	1	5.995250
12.950000	1	5.593750
12.966667	1	5.215750
12.983333	1	4.861625
13.000000	1	4.534875
13.016667	1	4.238125
13.033333	1	3.971750
13.050000	1	3.734375
13.066667	1	3.525625
13.083333	1	3.340875
13.100000	1	3.178250
13.116667	1	3.034250
13.133333	1	2.907375
13.150000	1	2.793125
13.166667	1	2.691500
13.183333	1	2.599250
13.200000	1	2.514375
13.216667	1	2.436500
13.233333	1	2.364250
13.250000	1	2.297125
13.266667	1	2.233750
13.283333	1	2.174375
13.300000	1	2.118000
13.316667	1	2.065000
13.333333	1	2.015875
13.350000	1	1.970000
13.366667	1	1.928375
13.383333	1	1.889750
13.400000	1	1.855375
13.416667	1	1.824875
13.433333	1	1.799375
13.450000	1	1.777875
13.466667	1	1.761625
13.483333	1	1.749375
13.500000	1	1.743375
13.516667	1	1.740125
13.533333	1	1.740375
13.550000	1	1.742375
13.566667	1	1.745125
13.583333	1	1.747500
13.600000	1	1.747625
13.616667	1	1.744125
13.633333	1	1.736750
13.650000	1	1.724375
13.666667	1	1.707250
13.683333	1	1.685500
13.700000	1	1.659875
13.716667	1	1.630375
13.733333	1	1.598625
13.750000	1	1.566250
13.766667	1	1.533500
13.783333	1	1.500750
13.800000	1	1.469125
13.816667	1	1.439125
13.833333	1	1.409875
13.850000	1	1.383000
13.866667	1	1.357500
13.883333	1	1.333500
13.900000	1	1.311625
13.916667	1	1.291625
13.933333	1	1.273000
13.950000	1	1.255250
13.966667	1	1.238250
13.983333	1	1.222625
14.000000	1	1.207875
14.016667	1	1.194625
14.033333	1	1.181125
14.050000	1	1.169375
14.066667	1	1.158000
14.083333	1	1.147000
14.100000	1	1.136500
14.116667	1	1.126250
14.133333	1	1.116875
14.150000	1	1.108000
14.166667	1	1.099875
14.183333	1	1.092750
14.200000	1	1.086875
14.216667	1	1.081875
14.233333	1	1.077875
14.250000	1	1.075500
14.266667	1	1.075250
14.283333	1	1.075750
14.300000	1	1.078000
14.316667	1	1.082000
14.333333	1	1.088250
14.350000	1	1.096125
14.366667	1	1.106375
14.383333	1	1.118500
14.400000	1	1.134750
14.416667	1	1.156375
14.433333	1	1.185125
14.450000	1	1.226250
14.466667	1	1.286250
14.483333	1	1.377000
14.500000	1	1.514750
14.516667	1	1.722125
14.533333	1	2.029875
14.550000	1	2.478250
14.566667	1	3.115000
14.583333	1	3.998500
14.600000	1	5.192875
14.616667	1	6.766625
14.633333	1	8.788125
14.650000	1	11.314750
14.666667	1	14.383250
14.683333	1	18.001250
14.700000	1	22.136625
14.716667	1	26.713875
14.733333	1	31.612750
14.750000	1	36.671875
14.766667	1	41.692750
14.783333	1	46.458125
14.800000	1	50.751375
14.816667	1	54.367875
14.833333	1	57.136625
14.850000	1	58.929250
14.866667	1	59.681500
14.883333	1	59.389375
14.900000	1	58.113125
14.916667	1	55.968250
14.933333	1	53.103500
14.950000	1	49.692375
14.966667	1	45.914500
14.983333	1	41.943875
15.000000	1	37.928000
15.016667	1	33.988250
15.033333	1	30.219375
15.050000	1	26.688375
15.066667	1	23.440750
15.083333	1	20.497500
15.100000	1	17.863000
15.116667	1	15.527625
15.133333	1	13.474875
15.150000	1	11.683000
15.166667	1	10.126500
15.183333	1	8.781625
15.200000	1	7.621250
15.216667	1	6.625125
15.233333	1	5.772625
15.250000	1	5.047000
15.266667	1	4.432500
15.283333	1	3.917250
15.300000	1	3.488750
15.316667	1	3.136875
15.333333	1	2.850500
15.350000	1	2.622250
15.366667	1	2.442750
15.383333	1	2.304625
15.400000	1	2.199250
15.416667	1	2.120375
15.433333	1	2.061500
15.450000	1	2.015375
15.466667	1	1.977500
15.483333	1	1.943750
15.500000	1	1.911500
15.516667	1	1.876500
15.533333	1	1.839000
15.550000	1	1.796625
15.566667	1	1.751750
15.583333	1	1.703875
15.600000	1	1.654375
15.616667	1	1.604375
15.633333	1	1.554625
15.650000	1	1.506000
15.666667	1	1.460125
15.683333	1	1.416375
15.700000	1	1.376000
15.716667	1	1.338625
15.733333	1	1.303875
15.750000	1	1.272375
15.766667	1	1.243250
15.783333	1	1.216125
15.800000	1	1.191125
15.816667	1	1.168625
15.833333	1	1.147375
15.850000	1	1.127750
15.866667	1	1.110625
15.883333	1	1.096250
15.900000	1	1.082375
15.916667	1	1.071125
15.933333	1	1.061375
15.950000	1	1.053750
15.966667	1	1.047875
15.983333	1	1.044125
16.000000	1	1.041750
16.016667	1	1.040750
16.033333	1	1.040500
16.050000	1	1.040625
16.066667	1	1.041500
16.083333	1	1.042875
16.100000	1	1.044375
16.116667	1	1.045500
16.133333	1	1.047375
16.150000	1	1.048750
16.166667	1	1.048375
16.183333	1	1.047625
16.200000	1	1.046750
16.216667	1	1.044375
16.233333	1	1.041250
16.250000	1	1.037375
16.266667	1	1.032625
16.283333	1	1.027750
16.300000	1	1.022625
16.316667	1	1.017000
16.333333	1	1.011500
16.350000	1	1.007500
16.366667	1	1.004250
16.383333	1	1.002125
16.400000	1	1.001125
16.416667	1	1.002125
16.433333	1	1.005250
16.450000	1	1.008875
16.466667	1	1.013625
16.483333	1	1.018500
16.500000	1	1.023500
16.516667	1	1.028125
16.533333	1	1.031250
16.550000	1	1.034000
16.566667	1	1.034875
16.583333	1	1.034875
16.600000	1	1.033125
16.616667	1	1.029750
16.633333	1	1.026500
16.650000	1	1.021875
16.666667	1	1.017125
16.683333	1	1.013000
16.700000	1	1.008750
16.716667	1	1.006250
16.733333	1	1.005500
16.750000	1	1.006375
16.766667	1	1.008625
16.783333	1	1.011875
16.800000	1	1.016875
16.816667	1	1.022875
16.833333	1	1.028375
16.850000	1	1.033875
16.866667	1	1.039375
16.883333	1	1.043250
16.900000	1	1.046500
16.916667	1	1.048250
16.933333	1	1.049375
16.950000	1	1.048125
16.966667	1	1.045625
16.983333	1	1.041750
17.000000	1	1.037375
17.016667	1	1.033000
17.033333	1	1.027625
17.050000	1	1.022250
17.066667	1	1.017375
17.083333	1	1.013375
17.100000	1	1.009750
17.116667	1	1.008000
17.133333	1	1.005500
17.150000	1	1.004375
17.166667	1	1.005125
17.183333	1	1.006125
17.200000	1	1.007125
17.216667	1	1.009750
17.233333	1	1.013250
17.250000	1	1.017375
17.266667	1	1.022500
17.283333	1	1.027125
17.300000	1	1.032750
17.316667	1	1.039125
17.333333	1	1.045125
17.350000	1	1.050625
17.366667	1	1.056500
17.383333	1	1.061500
17.400000	1	1.066125
17.416667	1	1.070125
17.433333	1	1.073250
17.450000	1	1.075125
17.466667	1	1.075125
17.483333	1	1.073500
17.500000	1	1.069625
17.516667	1	1.064750
17.533333	1	1.057750
17.550000	1	1.049125
17.566667	1	1.039625
17.583333	1	1.028250
17.600000	1	1.016625
17.616667	1	1.003500
17.633333	1	0.989500
17.650000	1	0.975000
17.666667	1	0.960875
17.683333	1	0.946125
17.700000	1	0.931750
17.716667	1	0.916875
17.733333	1	0.902000
17.750000	1	0.888125
17.766667	1	0.874875
17.783333	1	0.862250
17.800000	1	0.849750
17.816667	1	0.838000
17.833333	1	0.827375
17.850000	1	0.816875
17.866667	1	0.807500
17.883333	1	0.798375
17.900000	1	0.789750
17.916667	1	0.780750
17.933333	1	0.771500
17.950000	1	0.763625
17.966667	1	0.755000
17.983333	1	0.746750
18.000000	1	0.738750
18.016667	1	0.732125
18.033333	1	0.725125
18.050000	1	0.718125
18.066667	1	0.711500
18.083333	1	0.705625
18.100000	1	0.700625
18.116667	1	0.696250
18.133333	1	0.692250
18.150000	1	0.689750
18.166667	1	0.688000
18.183333	1	0.687250
18.200000	1	0.687125
18.216667	1	0.686750
18.233333	1	0.687375
18.250000	1	0.688375
18.266667	1	0.689750
18.283333	1	0.690500
18.300000	1	0.691750
18.316667	1	0.693500
18.333333	1	0.695750
18.350000	1	0.697875
18.366667	1	0.700875
18.383333	1	0.703125
18.400000	1	0.708000
18.416667	1	0.713625
18.433333	1	0.721000
18.450000	1	0.729250
18.466667	1	0.739000
18.483333	1	0.751125
18.500000	1	0.765000
18.516667	1	0.780375
18.533333	1	0.798375
18.550000	1	0.818500
18.566667	1	0.839375
18.583333	1	0.862625
18.600000	1	0.887500
18.616667	1	0.913500
18.633333	1	0.942375
18.650000	1	0.972375
18.666667	1	1.002750
18.683333	1	1.035250
18.700000	1	1.067625
18.716667	1	1.101750
18.733333	1	1.135375
18.750000	1	1.168250
18.766667	1	1.201375
18.783333	1	1.233375
18.800000	1	1.264375
18.816667	1	1.292500
18.833333	1	1.317000
18.850000	1	1.337250
18.866667	1	1.353625
18.883333	1	1.364750
18.900000	1	1.369875
18.916667	1	1.369000
18.933333	1	1.361250
18.950000	1	1.347750
18.966667	1	1.328000
18.983333	1	1.302750
19.000000	1	1.271625
19.016667	1	1.235375
19.033333	1	1.195625
19.050000	1	1.153125
19.066667	1	1.109875
19.083333	1	1.065375
19.100000	1	1.022375
19.116667	1	0.981500
19.133333	1	0.944000
19.150000	1	0.911625
19.166667	1	0.885875
19.183333	1	0.868125
19.200000	1	0.859500
19.216667	1	0.861125
19.233333	1	0.874500
19.250000	1	0.899500
19.266667	1	0.937375
19.283333	1	0.989375
19.300000	1	1.055500
19.316667	1	1.135375
19.333333	1	1.226625
19.350000	1	1.329250
19.366667	1	1.440750
19.383333	1	1.557500
19.400000	1	1.677500
19.416667	1	1.796750
19.433333	1	1.911375
19.450000	1	2.018625
19.466667	1	2.114750
19.483333	1	2.196625
19.500000	1	2.262000
19.516667	1	2.309625
19.533333	1	2.338750
19.550000	1	2.349250
19.566667	1	2.340750
19.583333	1	2.315250
19.600000	1	2.273250
19.616667	1	2.217750
19.633333	1	2.150750
19.650000	1	2.074375
19.666667	1	1.991625
19.683333	1	1.903375
19.700000	1	1.813125
19.716667	1	1.721000
19.733333	1	1.629625
19.750000	1	1.539125
19.766667	1	1.451000
19.783333	1	1.365750
19.800000	1	1.284875
19.816667	1	1.207000
19.833333	1	1.132375
19.850000	1	1.061875
19.866667	1	0.996000
19.883333	1	0.935000
19.900000	1	0.879000
19.916667	1	0.828000
19.933333	1	0.781375
19.950000	1	0.740500
19.966667	1	0.704625
19.983333	1	0.675250
20.000000	1	0.651500
20.016667	1	0.633750
20.033333	1	0.622000
20.050000	1	0.617000
20.066667	1	0.618750
20.083333	1	0.626625
20.100000	1	0.641375
20.116667	1	0.661125
20.133333	1	0.686375
20.150000	1	0.716000
20.166667	1	0.748250
20.183333	1	0.783250
20.200000	1	0.818125
20.216667	1	0.852500
20.233333	1	0.884250
20.250000	1	0.912750
20.266667	1	0.936125
20.283333	1	0.954625
20.300000	1	0.966125
20.316667	1	0.970875
20.333333	1	0.968500
20.350000	1	0.958750
20.366667	1	0.942125
20.383333	1	0.920500
20.400000	1	0.894250
20.416667	1	0.863875
20.433333	1	0.832500
20.450000	1	0.800750
20.466667	1	0.768750
20.483333	1	0.740375
20.500000	1	0.715750
20.516667	1	0.697000
20.533333	1	0.685625
20.550000	1	0.684250
20.566667	1	0.693750
20.583333	1	0.715125
20.600000	1	0.749750
20.616667	1	0.800375
20.633333	1	0.866125
20.650000	1	0.948750
20.666667	1	1.048000
20.683333	1	1.163375
20.700000	1	1.292875
20.716667	1	1.435125
20.733333	1	1.587500
20.750000	1	1.746625
20.766667	1	1.907875
20.783333	1	2.067125
20.800000	1	2.219750
20.816667	1	2.361375
20.833333	1	2.485250
20.850000	1	2.588875
20.866667	1	2.669625
20.883333	1	2.724000
20.900000	1	2.750875
20.916667	1	2.751250
20.933333	1	2.725000
20.950000	1	2.674375
20.966667	1	2.600125
20.983333	1	2.507250
21.000000	1	2.399250
21.016667	1	2.279125
21.033333	1	2.150375
21.050000	1	2.017750
21.066667	1	1.883625
21.083333	1	1.751250
21.100000	1	1.622500
21.116667	1	1.499625
21.133333	1	1.383375
21.150000	1	1.274500
21.166667	1	1.173500
21.183333	1	1.080500
21.200000	1	0.995500
21.216667	1	0.918375
21.233333	1	0.848750
21.250000	1	0.785750
21.266667	1	0.728875
21.283333	1	0.678625
21.300000	1	0.633875
21.316667	1	0.594250
21.333333	1	0.558625
21.350000	1	0.526000
21.366667	1	0.497250
21.383333	1	0.471625
21.400000	1	0.448875
21.416667	1	0.429250
21.433333	1	0.410875
21.450000	1	0.395375
21.466667	1	0.380625
21.483333	1	0.367250
21.500000	1	0.356000
21.516667	1	0.346000
21.533333	1	0.337500
21.550000	1	0.329875
21.566667	1	0.323500
21.583333	1	0.318875
21.600000	1	0.314750
21.616667	1	0.311500
21.633333	1	0.310000
21.650000	1	0.308875
21.666667	1	0.308875
21.683333	1	0.311125
21.700000	1	0.313750
21.716667	1	0.317750
21.733333	1	0.322125
21.750000	1	0.328000
21.766667	1	0.335250
21.783333	1	0.342375
21.800000	1	0.350125
21.816667	1	0.358500
21.833333	1	0.366750
21.850000	1	0.375375
21.866667	1	0.384625
21.883333	1	0.393375
21.900000	1	0.402000
21.916667	1	0.409750
21.933333	1	0.417000
21.950000	1	0.424625
21.966667	1	0.431375
21.983333	1	0.437750
22.000000	1	0.443375
22.016667	1	0.449250
22.033333	1	0.453625
22.050000	1	0.457625
22.066667	1	0.460875
22.083333	1	0.464125
22.100000	1	0.466500
22.116667	1	0.468125
22.133333	1	0.468250
22.150000	1	0.468500
22.166667	1	0.466625
22.183333	1	0.464000
22.200000	1	0.460875
22.216667	1	0.456625
22.233333	1	0.450625
22.250000	1	0.443625
22.266667	1	0.435125
22.283333	1	0.426375
22.300000	1	0.416625
22.316667	1	0.406000
22.333333	1	0.394250
22.350000	1	0.382750
22.366667	1	0.370750
22.383333	1	0.358125
22.400000	1	0.345875
22.416667	1	0.334375
22.433333	1	0.322250
22.450000	1	0.310500
22.466667	1	0.299500
22.483333	1	0.289250
22.500000	1	0.280000
22.516667	1	0.270875
22.533333	1	0.262250
22.550000	1	0.254375
22.566667	1	0.246750
22.583333	1	0.240000
22.600000	1	0.233625
22.616667	1	0.228000
22.633333	1	0.222000
22.650000	1	0.216250
22.666667	1	0.210500
22.683333	1	0.205750
22.700000	1	0.201625
22.716667	1	0.198000
22.733333	1	0.194125
22.750000	1	0.190375
22.766667	1	0.187000
22.783333	1	0.183750
22.800000	1	0.179750
22.816667	1	0.176875
22.833333	1	0.174125
22.850000	1	0.172000
22.866667	1	0.169375
22.883333	1	0.166625
22.900000	1	0.164500
22.916667	1	0.162875
22.933333	1	0.161125
22.950000	1	0.159750
22.966667	1	0.158250
22.983333	1	0.157875
23.000000	1	0.157500
23.016667	1	0.157125
23.033333	1	0.156875
23.050000	1	0.156375
23.066667	1	0.156750
23.083333	1	0.157125
23.100000	1	0.158125
23.116667	1	0.159125
23.133333	1	0.159500
23.150000	1	0.160250
23.166667	1	0.161375
23.183333	1	0.162625
23.200000	1	0.163125
23.216667	1	0.164250
23.233333	1	0.166500
23.250000	1	0.168750
23.266667	1	0.171750
23.283333	1	0.176625
23.300000	1	0.183000
23.316667	1	0.192125
23.333333	1	0.203875
23.350000	1	0.219625
23.366667	1	0.241250
23.383333	1	0.268875
23.400000	1	0.305375
23.416667	1	0.351500
23.433333	1	0.409500
23.450000	1	0.481750
23.466667	1	0.571125
23.483333	1	0.679875
23.500000	1	0.810375
23.516667	1	0.964500
23.533333	1	1.143250
23.550000	1	1.350250
23.566667	1	1.585000
23.583333	1	1.848625
23.600000	1	2.139250
23.616667	1	2.455250
23.633333	1	2.793750
23.650000	1	3.149000
23.666667	1	3.517750
23.683333	1	3.893750
23.700000	1	4.271250
23.716667	1	4.642125
23.733333	1	4.997625
23.750000	1	5.329000
23.766667	1	5.630250
23.783333	1	5.894125
23.800000	1	6.115375
23.816667	1	6.287625
23.833333	1	6.409500
23.850000	1	6.478250
23.866667	1	6.494750
23.883333	1	6.459875
23.900000	1	6.376375
23.916667	1	6.247000
23.933333	1	6.077750
23.950000	1	5.872500
23.966667	1	5.639000
23.983333	1	5.382500
24.000000	1	5.108375
24.016667	1	4.824375
24.033333	1	4.533625
24.050000	1	4.242250
24.066667	1	3.953625
24.083333	1	3.671250
24.100000	1	3.397625
24.116667	1	3.135125
24.133333	1	2.884625
24.150000	1	2.648375
24.166667	1	2.426500
24.183333	1	2.219750
24.200000	1	2.027625
24.216667	1	1.850500
24.233333	1	1.687125
24.250000	1	1.537375
24.266667	1	1.399750
24.283333	1	1.274875
24.300000	1	1.161000
24.316667	1	1.057625
24.333333	1	0.964875
24.350000	1	0.881000
24.366667	1	0.805875
24.383333	1	0.739875
24.400000	1	0.681125
24.416667	1	0.630125
24.433333	1	0.584500
24.450000	1	0.544875
24.466667	1	0.511125
24.483333	1	0.481500
24.500000	1	0.457375
24.516667	1	0.436125
24.533333	1	0.417625
24.550000	1	0.402125
24.566667	1	0.388125
24.583333	1	0.376375
24.600000	1	0.366625
24.616667	1	0.356875
24.633333	1	0.348875
24.650000	1	0.341125
24.666667	1	0.333250
24.683333	1	0.326625
24.700000	1	0.319500
24.716667	1	0.312500
24.733333	1	0.305500
24.750000	1	0.299750
24.766667	1	0.293500
24.783333	1	0.287375
24.800000	1	0.281375
24.816667	1	0.275625
24.833333	1	0.269500
24.850000	1	0.263250
24.866667	1	0.257500
24.883333	1	0.252625
24.900000	1	0.247000
24.916667	1	0.241375
24.933333	1	0.236500
24.950000	1	0.231625
24.966667	1	0.227125
24.983333	1	0.223125
25.000000	1	0.218875
25.016667	1	0.215125
25.033333	1	0.211500
25.050000	1	0.208125
25.066667	1	0.204875
25.083333	1	0.202000
25.100000	1	0.199375
25.116667	1	0.196250
25.133333	1	0.193250
25.150000	1	0.190375
25.166667	1	0.187750
25.183333	1	0.185375
25.200000	1	0.182875
25.216667	1	0.179750
25.233333	1	0.177375
25.250000	1	0.174625
25.266667	1	0.172250
25.283333	1	0.170375
25.300000	1	0.168750
25.316667	1	0.167250
25.333333	1	0.165375
25.350000	1	0.163375
25.366667	1	0.161750
25.383333	1	0.160875
25.400000	1	0.160125
25.416667	1	0.159500
25.433333	1	0.158875
25.450000	1	0.158875
25.466667	1	0.158375
25.483333	1	0.158375
25.500000	1	0.159375
25.516667	1	0.160125
25.533333	1	0.160625
25.550000	1	0.161750
25.566667	1	0.161875
25.583333	1	0.163125
25.600000	1	0.163750
25.616667	1	0.164875
25.633333	1	0.165500
25.650000	1	0.167000
25.666667	1	0.168000
25.683333	1	0.168750
25.700000	1	0.169625
25.716667	1	0.170375
25.733333	1	0.171000
25.750000	1	0.171000
25.766667	1	0.171625
25.783333	1	0.171875
25.800000	1	0.172500
25.816667	1	0.172500
25.833333	1	0.173125
25.850000	1	0.173875
25.866667	1	0.175000
25.883333	1	0.177000
25.900000	1	0.178625
25.916667	1	0.180625
25.933333	1	0.183250
25.950000	1	0.185500
25.966667	1	0.188375
25.983333	1	0.192125
26.000000	1	0.195875
26.016667	1	0.200000
26.033333	1	0.204500
26.050000	1	0.210000
26.066667	1	0.215875
26.083333	1	0.221250
26.100000	1	0.227625
26.116667	1	0.234375
26.133333	1	0.240125
26.150000	1	0.247375
26.166667	1	0.254250
26.183333	1	0.260750
26.200000	1	0.267125
26.216667	1	0.273875
26.233333	1	0.280000
26.250000	1	0.286250
26.266667	1	0.292875
26.283333	1	0.297500
26.300000	1	0.301750
26.316667	1	0.305625
26.333333	1	0.308375
26.350000	1	0.310625
26.366667	1	0.311875
26.383333	1	0.312250
26.400000	1	0.311375
26.416667	1	0.309875
26.433333	1	0.307375
26.450000	1	0.304625
26.466667	1	0.301000
26.483333	1	0.297125
26.500000	1	0.292500
26.516667	1	0.287375
26.533333	1	0.280625
26.550000	1	0.274125
26.566667	1	0.266750
26.583333	1	0.259500
26.600000	1	0.251875
26.616667	1	0.244500
26.633333	1	0.236875
26.650000	1	0.228750
26.666667	1	0.220625
26.683333	1	0.213125
26.700000	1	0.206375
26.716667	1	0.199250
26.733333	1	0.192375
26.750000	1	0.186750
26.766667	1	0.181250
26.783333	1	0.175500
26.800000	1	0.170625
26.816667	1	0.166500
26.833333	1	0.162625
26.850000	1	0.159500
26.866667	1	0.157375
26.883333	1	0.156000
26.900000	1	0.154250
26.916667	1	0.152750
26.933333	1	0.152500
26.950000	1	0.152375
26.966667	1	0.152625
26.983333	1	0.153375
27.000000	1	0.154750
27.016667	1	0.156875
27.033333	1	0.158750
27.050000	1	0.161375
27.066667	1	0.163875
27.083333	1	0.167000
27.100000	1	0.170625
27.116667	1	0.175125
27.133333	1	0.179250
27.150000	1	0.184000
27.166667	1	0.190500
27.183333	1	0.197250
27.200000	1	0.204500
27.216667	1	0.214500
27.233333	1	0.225625
27.250000	1	0.238500
27.266667	1	0.253500
27.283333	1	0.270750
27.300000	1	0.291500
27.316667	1	0.315250
27.333333	1	0.343375
27.350000	1	0.375875
27.366667	1	0.413875
27.383333	1	0.458500
27.400000	1	0.510625
27.416667	1	0.570000
27.433333	1	0.637875
27.450000	1	0.714500
27.466667	1	0.802750
27.483333	1	0.901375
27.500000	1	1.010750
27.516667	1	1.131000
27.533333	1	1.263375
27.550000	1	1.406875
27.566667	1	1.561250
27.583333	1	1.724125
27.600000	1	1.895750
27.616667	1	2.075500
27.633333	1	2.261625
27.650000	1	2.452000
27.666667	1	2.643500
27.683333	1	2.835000
27.700000	1	3.023375
27.716667	1	3.206250
27.733333	1	3.379375
27.750000	1	3.540750
27.766667	1	3.686875
27.783333	1	3.815875
27.800000	1	3.926250
27.816667	1	4.015125
27.833333	1	4.081375
27.850000	1	4.123250
27.866667	1	4.140625
27.883333	1	4.133125
27.900000	1	4.102000
27.916667	1	4.046875
27.933333	1	3.969125
27.950000	1	3.871375
27.966667	1	3.756000
27.983333	1	3.623250
28.000000	1	3.478750
28.016667	1	3.323000
28.033333	1	3.158500
28.050000	1	2.988875
28.066667	1	2.815125
28.083333	1	2.641125
28.100000	1	2.468875
28.116667	1	2.300375
28.133333	1	2.136125
28.150000	1	1.977250
28.166667	1	1.826375
28.183333	1	1.683000
28.200000	1	1.547750
28.216667	1	1.421500
28.233333	1	1.303875
28.250000	1	1.194750
28.266667	1	1.094000
28.283333	1	1.002500
28.300000	1	0.917750
28.316667	1	0.841750
28.333333	1	0.773250
28.350000	1	0.711500
28.366667	1	0.656500
28.383333	1	0.607750
28.400000	1	0.564250
28.416667	1	0.526500
28.433333	1	0.494000
28.450000	1	0.465125
28.466667	1	0.441500
28.483333	1	0.421250
28.500000	1	0.404625
28.516667	1	0.391625
28.533333	1	0.382000
28.550000	1	0.375250
28.566667	1	0.371250
28.583333	1	0.369125
28.600000	1	0.369500
28.616667	1	0.370875
28.633333	1	0.374500
28.650000	1	0.379750
28.666667	1	0.386375
28.683333	1	0.393500
28.700000	1	0.401375
28.716667	1	0.410125
28.733333	1	0.418500
28.750000	1	0.427250
28.766667	1	0.436250
28.783333	1	0.444250
28.800000	1	0.453500
28.816667	1	0.461875
28.833333	1	0.469875
28.850000	1	0.476250
28.866667	1	0.482000
28.883333	1	0.486750
28.900000	1	0.490625
28.916667	1	0.493250
28.933333	1	0.495000
28.950000	1	0.495375
28.966667	1	0.494625
28.983333	1	0.492000
29.000000	1	0.488500
29.016667	1	0.483750
29.033333	1	0.477000
29.050000	1	0.469750
29.066667	1	0.460250
29.083333	1	0.449000
29.100000	1	0.436500
29.116667	1	0.422250
29.133333	1	0.406125
29.150000	1	0.388750
29.166667	1	0.369250
29.183333	1	0.347625
29.200000	1	0.324625
29.216667	1	0.299625
29.233333	1	0.272250
29.250000	1	0.243500
29.266667	1	0.213250
29.283333	1	0.180875
29.300000	1	0.146250
29.316667	1	0.110250
29.333333	1	0.072375
29.350000	1	0.032625
29.366667	1	-0.008250
29.383333	1	-0.050625
29.400000	1	-0.094250
29.416667	1	-0.138625
29.433333	1	-0.183125
29.450000	1	-0.229375
29.466667	1	-0.276500
29.483333	1	-0.323000
29.500000	1	-0.369750
29.516667	1	-0.415625
29.533333	1	-0.460375
29.550000	1	-0.504250
29.566667	1	-0.546000
29.583333	1	-0.586250
29.600000	1	-0.623875
29.616667	1	-0.658625
29.633333	1	-0.691000
29.650000	1	-0.719875
29.666667	1	-0.746000
29.683333	1	-0.769000
29.700000	1	-0.787250
29.716667	1	-0.802125
29.733333	1	-0.812125
29.750000	1	-0.818500
29.766667	1	-0.820750
29.783333	1	-0.819750
29.800000	1	-0.814750
29.816667	1	-0.806625
29.833333	1	-0.795000
29.850000	1	-0.779250
29.866667	1	-0.761000
29.883333	1	-0.740375
29.900000	1	-0.716625
29.916667	1	-0.691625
29.933333	1	-0.664625
29.950000	1	-0.636375
29.966667	1	-0.606750
29.983333	1	-0.575750
30.000000	1	-0.544625
30.016667	1	-0.512625
30.033333	1	-0.481000
30.050000	1	-0.449125
30.066667	1	-0.417500
30.083333	1	-0.387250
30.100000	1	-0.357375
30.116667	1	-0.328875
30.133333	1	-0.300125
30.150000	1	-0.272875
30.166667	1	-0.247125
30.183333	1	-0.221875
30.200000	1	-0.198000
30.216667	1	-0.175375
30.233333	1	-0.153625
30.250000	1	-0.134250
30.266667	1	-0.115750
30.283333	1	-0.098125
30.300000	1	-0.081500
30.316667	1	-0.065125
30.333333	1	-0.051625
30.350000	1	-0.037750
30.366667	1	-0.025125
30.383333	1	-0.013375
30.400000	1	-0.002875
30.416667	1	0.007375
30.433333	1	0.017625
30.450000	1	0.026750
30.466667	1	0.035000
30.483333	1	0.042625
30.500000	1	0.049375
30.516667	1	0.057375
30.533333	1	0.064500
30.550000	1	0.071625
30.566667	1	0.078500
30.583333	1	0.085375
30.600000	1	0.092750
30.616667	1	0.099375
30.633333	1	0.106500
30.650000	1	0.113625
30.666667	1	0.120750
30.683333	1	0.127625
30.700000	1	0.135500
30.716667	1	0.143000
30.733333	1	0.152000
30.750000	1	0.159875
30.766667	1	0.169250
30.783333	1	0.178625
30.800000	1	0.188625
30.816667	1	0.198625
30.833333	1	0.208750
30.850000	1	0.219000
30.866667	1	0.230500
30.883333	1	0.242000
30.900000	1	0.253625
30.916667	1	0.266250
30.933333	1	0.281000
30.950000	1	0.295875
30.966667	1	0.312750
30.983333	1	0.331250
31.000000	1	0.351000
31.016667	1	0.373250
31.033333	1	0.397750
31.050000	1	0.426125
31.066667	1	0.458000
31.083333	1	0.494625
31.100000	1	0.535625
31.116667	1	0.581750
31.133333	1	0.633375
31.150000	1	0.691750
31.166667	1	0.756375
31.183333	1	0.829125
31.200000	1	0.909750
31.216667	1	0.997875
31.233333	1	1.094875
31.250000	1	1.200125
31.266667	1	1.313875
31.283333	1	1.434750
31.300000	1	1.564125
31.316667	1	1.700375
31.333333	1	1.841625
31.350000	1	1.988000
31.366667	1	2.138875
31.383333	1	2.291875
31.400000	1	2.445875
31.416667	1	2.599500
31.433333	1	2.751375
31.450000	1	2.898250
31.466667	1	3.039500
31.483333	1	3.172125
31.500000	1	3.295875
31.516667	1	3.407875
31.533333	1	3.507000
31.550000	1	3.592875
31.566667	1	3.664125
31.583333	1	3.718750
31.600000	1	3.758125
31.616667	1	3.779250
31.633333	1	3.787625
31.650000	1	3.776250
31.666667	1	3.748625
31.683333	1	3.705750
31.700000	1	3.649000
31.716667	1	3.579125
31.733333	1	3.496250
31.750000	1	3.402875
31.766667	1	3.300125
31.783333	1	3.189500
31.800000	1	3.071625
31.816667	1	2.948750
31.833333	1	2.821875
31.850000	1	2.692875
31.866667	1	2.561875
31.883333	1	2.430875
31.900000	1	2.300875
31.916667	1	2.173125
31.933333	1	2.047875
31.950000	1	1.925500
31.966667	1	1.807500
31.983333	1	1.693375
32.000000	1	1.583250
32.016667	1	1.477250
32.033333	1	1.376375
32.050000	1	1.280250
32.066667	1	1.189750
32.083333	1	1.103375
32.100000	1	1.021750
32.116667	1	0.944750
32.133333	1	0.873375
32.150000	1	0.805000
32.166667	1	0.742125
32.183333	1	0.682375
32.200000	1	0.626875
32.216667	1	0.575125
32.233333	1	0.526875
32.250000	1	0.481750
32.266667	1	0.440250
32.283333	1	0.401375
32.300000	1	0.365875
32.316667	1	0.332750
32.333333	1	0.301750
32.350000	1	0.273875
32.366667	1	0.248125
32.383333	1	0.224750
32.400000	1	0.202625
32.416667	1	0.183250
32.433333	1	0.165250
32.450000	1	0.149250
32.466667	1	0.134125
32.483333	1	0.120500
32.500000	1	0.108500
32.516667	1	0.097500
32.533333	1	0.087500
32.550000	1	0.078250
32.566667	1	0.071000
32.583333	1	0.064250
32.600000	1	0.058375
32.616667	1	0.053125
32.633333	1	0.048625
32.650000	1	0.044750
32.666667	1	0.041750
32.683333	1	0.038625
32.700000	1	0.036625
32.716667	1	0.034375
32.733333	1	0.033250
32.750000	1	0.031500
32.766667	1	0.031000
32.783333	1	0.030250
32.800000	1	0.030250
32.816667	1	0.030250
32.833333	1	0.030000
32.850000	1	0.030375
32.866667	1	0.031000
32.883333	1	0.031250
32.900000	1	0.031875
32.916667	1	0.032000
32.933333	1	0.032625
32.950000	1	0.033000
32.966667	1	0.033500
32.983333	1	0.034125
33.000000	1	0.034625
33.016667	1	0.035750
33.033333	1	0.036250
33.050000	1	0.037000
33.066667	1	0.037250
33.083333	1	0.037875
33.100000	1	0.038000
33.116667	1	0.038375
33.133333	1	0.039125
33.150000	1	0.040375
33.166667	1	0.041625
33.183333	1	0.042250
33.200000	1	0.042750
33.216667	1	0.044375
33.233333	1	0.045750
33.250000	1	0.047250
33.266667	1	0.047875
33.283333	1	0.048875
33.300000	1	0.049500
33.316667	1	0.050250
33.333333	1	0.051125
33.350000	1	0.052125
33.366667	1	0.053375
33.383333	1	0.054375
33.400000	1	0.056000
33.416667	1	0.057750
33.433333	1	0.058375
33.450000	1	0.058875
33.466667	1	0.060000
33.483333	1	0.061375
33.500000	1	0.062375
33.516667	1	0.063125
33.533333	1	0.064625
33.550000	1	0.065625
33.566667	1	0.066875
33.583333	1	0.067875
33.600000	1	0.068625
33.616667	1	0.070500
33.633333	1	0.071875
33.650000	1	0.073125
33.666667	1	0.074250
33.683333	1	0.075125
33.700000	1	0.076625
33.716667	1	0.077875
33.733333	1	0.079500
33.750000	1	0.081500
33.766667	1	0.083000
33.783333	1	0.085125
33.800000	1	0.087500
33.816667	1	0.089875
33.833333	1	0.091750
33.850000	1	0.093375
33.866667	1	0.095125
33.883333	1	0.096750
33.900000	1	0.098000
33.916667	1	0.099500
33.933333	1	0.101125
33.950000	1	0.102875
33.966667	1	0.103750
33.983333	1	0.105375
34.000000	1	0.106625
34.016667	1	0.108000
34.033333	1	0.109500
34.050000	1	0.110125
34.066667	1	0.110625
34.083333	1	0.111625
34.100000	1	0.112500
34.116667	1	0.112625
34.133333	1	0.113375
34.150000	1	0.113750
34.166667	1	0.114000
34.183333	1	0.114000
34.200000	1	0.113750
34.216667	1	0.114000
34.233333	1	0.113750
34.250000	1	0.113625
34.266667	1	0.113125
34.283333	1	0.112625
34.300000	1	0.112875
34.316667	1	0.112625
34.333333	1	0.112125
34.350000	1	0.112125
34.366667	1	0.111875
34.383333	1	0.111875
34.400000	1	0.111875
34.416667	1	0.112000
34.433333	1	0.112250
34.450000	1	0.112750
34.466667	1	0.112875
34.483333	1	0.113625
34.500000	1	0.114375
34.516667	1	0.115250
34.533333	1	0.115375
34.550000	1	0.116000
34.566667	1	0.116875
34.583333	1	0.118000
34.600000	1	0.119125
34.616667	1	0.120375
34.633333	1	0.121625
34.650000	1	0.122625
34.666667	1	0.123750
34.683333	1	0.124500
34.700000	1	0.124625
34.716667	1	0.125000
34.733333	1	0.125500
34.750000	1	0.125500
34.766667	1	0.125750
34.783333	1	0.125750
34.800000	1	0.125750
34.816667	1	0.125750
34.833333	1	0.125500
34.850000	1	0.125125
34.866667	1	0.124500
34.883333	1	0.123500
34.900000	1	0.123000
34.916667	1	0.122000
34.933333	1	0.121500
34.950000	1	0.120500
34.966667	1	0.118875
34.983333	1	0.117125
35.000000	1	0.116125
35.016667	1	0.114000
35.033333	1	0.112500
35.050000	1	0.110625
35.066667	1	0.108250
35.083333	1	0.106125
35.100000	1	0.104375
35.116667	1	0.101750
35.133333	1	0.099750
35.150000	1	0.098000
35.166667	1	0.095750
35.183333	1	0.093875
35.200000	1	0.091250
35.216667	1	0.090000
35.233333	1	0.088250
35.250000	1	0.086000
35.266667	1	0.084250
35.283333	1	0.082875
35.300000	1	0.081375
35.316667	1	0.080500
35.333333	1	0.079375
35.350000	1	0.078250
35.366667	1	0.077750
35.383333	1	0.078000
35.400000	1	0.077375
35.416667	1	0.077125
35.433333	1	0.076625
35.450000	1	0.076625
35.466667	1	0.076125
35.483333	1	0.076500
35.500000	1	0.077125
35.516667	1	0.077875
35.533333	1	0.078500
35.550000	1	0.079625
35.566667	1	0.080875
35.583333	1	0.081625
35.600000	1	0.082750
35.616667	1	0.083750
35.633333	1	0.085000
35.650000	1	0.086000
35.666667	1	0.087375
35.683333	1	0.088625
35.700000	1	0.089875
35.716667	1	0.091375
35.733333	1	0.093125
35.750000	1	0.094750
35.766667	1	0.096875
35.783333	1	0.098750
35.800000	1	0.100125
35.816667	1	0.102125
35.833333	1	0.104375
35.850000	1	0.105625
35.866667	1	0.107500
35.883333	1	0.109000
35.900000	1	0.111375
35.916667	1	0.113250
35.933333	1	0.114875
35.950000	1	0.116375
35.966667	1	0.118000
35.983333	1	0.119750
36.000000	1	0.121000
36.016667	1	0.122000
36.033333	1	0.122875
36.050000	1	0.124750
36.066667	1	0.125625
36.083333	1	0.127125
36.100000	1	0.128375
36.116667	1	0.129250
36.133333	1	0.130625
36.150000	1	0.132000
36.166667	1	0.133250
36.183333	1	0.134000
36.200000	1	0.135125
36.216667	1	0.136125
36.233333	1	0.137250
36.250000	1	0.139125
36.266667	1	0.140750
36.283333	1	0.141875
36.300000	1	0.142875
36.316667	1	0.144375
36.333333	1	0.146250
36.350000	1	0.147750
36.366667	1	0.149875
36.383333	1	0.150500
36.400000	1	0.151875
36.416667	1	0.153875
36.433333	1	0.155250
36.450000	1	0.156125
36.466667	1	0.157250
36.483333	1	0.158500
36.500000	1	0.160125
36.516667	1	0.161125
36.533333	1	0.162000
36.550000	1	0.162750
36.566667	1	0.163500
36.583333	1	0.164375
36.600000	1	0.165125
36.616667	1	0.165125
36.633333	1	0.165250
36.650000	1	0.164875
36.666667	1	0.164125
36.683333	1	0.163500
36.700000	1	0.162000
36.716667	1	0.161750
36.733333	1	0.160000
36.750000	1	0.158625
36.766667	1	0.156250
36.783333	1	0.154125
36.800000	1	0.151750
36.816667	1	0.149125
36.833333	1	0.146500
36.850000	1	0.143625
36.866667	1	0.140375
36.883333	1	0.137875
36.900000	1	0.134125
36.916667	1	0.130750
36.933333	1	0.127500
36.950000	1	0.124250
36.966667	1	0.121250
36.983333	1	0.118125
37.000000	1	0.114750
37.016667	1	0.111750
37.033333	1	0.108750
37.050000	1	0.106250
37.066667	1	0.103750
37.083333	1	0.100625
37.100000	1	0.098500
37.116667	1	0.096375
37.133333	1	0.094875
37.150000	1	0.093375
37.166667	1	0.092000
37.183333	1	0.090875
37.200000	1	0.089875
37.216667	1	0.088875
37.233333	1	0.088375
37.250000	1	0.088125
37.266667	1	0.087875
37.283333	1	0.087750
37.300000	1	0.087625
37.316667	1	0.088000
37.333333	1	0.088750
37.350000	1	0.089500
37.366667	1	0.089250
37.383333	1	0.089500
37.400000	1	0.090000
37.416667	1	0.090625
37.433333	1	0.090500
37.450000	1	0.091375
37.466667	1	0.091125
37.483333	1	0.091375
37.500000	1	0.091875
37.516667	1	0.092250
37.533333	1	0.092750
37.550000	1	0.092750
37.566667	1	0.092875
37.583333	1	0.092625
37.600000	1	0.092375
37.616667	1	0.091750
37.633333	1	0.091250
37.650000	1	0.091250
37.666667	1	0.090750
37.683333	1	0.090000
37.700000	1	0.089250
37.716667	1	0.088625
37.733333	1	0.087875
37.750000	1	0.086500
37.766667	1	0.085375
37.783333	1	0.084250
37.800000	1	0.083125
37.816667	1	0.081625
37.833333	1	0.080500
37.850000	1	0.078250
37.866667	1	0.076000
37.883333	1	0.074375
37.900000	1	0.072875
37.916667	1	0.071250
37.933333	1	0.069625
37.950000	1	0.067500
37.966667	1	0.066000
37.983333	1	0.064500
38.000000	1	0.063500
38.016667	1	0.061000
38.033333	1	0.059625
38.050000	1	0.058000
38.066667	1	0.055750
38.083333	1	0.054750
38.100000	1	0.053750
38.116667	1	0.052375
38.133333	1	0.051125
38.150000	1	0.050000
38.166667	1	0.049000
38.183333	1	0.048500
38.200000	1	0.047375
38.216667	1	0.046125
38.233333	1	0.045625
38.250000	1	0.045125
38.266667	1	0.045125
38.283333	1	0.044125
38.300000	1	0.043750
38.316667	1	0.043625
38.333333	1	0.043625
38.350000	1	0.043250
38.366667	1	0.042750
38.383333	1	0.043000
38.400000	1	0.042500
38.416667	1	0.041750
38.433333	1	0.041500
38.450000	1	0.041375
38.466667	1	0.041375
38.483333	1	0.040875
38.500000	1	0.040875
38.516667	1	0.041000
38.533333	1	0.040125
38.550000	1	0.040000
38.566667	1	0.039750
38.583333	1	0.039250
38.600000	1	0.038875
38.616667	1	0.038250
38.633333	1	0.038125
38.650000	1	0.037625
38.666667	1	0.037125
38.683333	1	0.036250
38.700000	1	0.035875
38.716667	1	0.035000
38.733333	1	0.034375
38.750000	1	0.033875
38.766667	1	0.033125
38.783333	1	0.032125
38.800000	1	0.030875
38.816667	1	0.030375
38.833333	1	0.029750
38.850000	1	0.029125
38.866667	1	0.028375
38.883333	1	0.027625
38.900000	1	0.026375
38.916667	1	0.025375
38.933333	1	0.024000
38.950000	1	0.023250
38.966667	1	0.022250
38.983333	1	0.021000
39.000000	1	0.019500
39.016667	1	0.018000
39.033333	1	0.016375
39.050000	1	0.015000
39.066667	1	0.013500
39.083333	1	0.011875
39.100000	1	0.010875
39.116667	1	0.008500
39.133333	1	0.006875
39.150000	1	0.005125
39.166667	1	0.003750
39.183333	1	0.001875
39.200000	1	0.000250
39.216667	1	-0.001125
39.233333	1	-0.003250
39.250000	1	-0.004875
39.266667	1	-0.005875
39.283333	1	-0.007750
39.300000	1	-0.009000
39.316667	1	-0.010500
39.333333	1	-0.012250
39.350000	1	-0.014000
39.366667	1	-0.014625
39.383333	1	-0.015500
39.400000	1	-0.016500
39.416667	1	-0.017875
39.433333	1	-0.019375
39.450000	1	-0.020250
39.466667	1	-0.021125
39.483333	1	-0.022000
39.500000	1	-0.023125
39.516667	1	-0.023875
39.533333	1	-0.024375
39.550000	1	-0.024500
39.566667	1	-0.025125
39.583333	1	-0.024875
39.600000	1	-0.025500
39.616667	1	-0.026000
39.633333	1	-0.026375
39.650000	1	-0.027000
39.666667	1	-0.026875
39.683333	1	-0.026375
39.700000	1	-0.026375
39.716667	1	-0.026375
39.733333	1	-0.026125
39.750000	1	-0.026000
39.766667	1	-0.026500
39.783333	1	-0.026125
39.800000	1	-0.025625
39.816667	1	-0.025625
39.833333	1	-0.025000
39.850000	1	-0.024875
39.866667	1	-0.024125
39.883333	1	-0.024000
39.900000	1	-0.022875
39.916667	1	-0.022625
39.933333	1	-0.022250
39.950000	1	-0.022375
39.966667	1	-0.022250
39.983333	1	-0.021625
40.000000	1	-0.020875
