URL	chrom://7040-86g6c92/XVault/Ultimate_3000/20/20240517_CMO_FP23_FP25_MarkusDeplate.seq/434.smp/RI_1.channel/RI_1.chm
Channel	RI_1

Injection Information:
Data Vault	XVault
Sequence	20240517_CMO_FP23_FP25_MarkusDeplate
Name	FP26_21.2_s1
Number	106
Position	BC6
Comment	
Processing Method	
Instrument Method	run_25B_method
Type	Unknown
Status	Finished
Inject Time	30.05.2024 19:02:58 +02:00
Volume (µl)	20.0000
Dilution Factor	1.0000
Weight	1.0000

Chromatogram Data Information:
Time Min. (min)	0.000000
Time Max. (min)	40.000000
Data Points	2401
Detector	RI
Generating Data System	Chromeleon 7.3.2.11814
Exporting Data System	Chromeleon 7.3.2.0
Operator	Instrument Controller
Signal Quantity	Refractive 
Signal Unit	µRIU
Signal Min.	-1.199125
Signal Max.	66.018750
Channel	RI_1
Driver Name	RID520Driver.dll
Channel Type	Evaluation
Min. Step (s)	1
Max. Step (s)	1
Average Step (s)	1

Signal Parameter Information:
Signal Info	

Chromatogram Data:
Time (min)	Step (s)	Value (µRIU)
0.000000	n.a.	-0.023875
0.016667	1	-0.023875
0.033333	1	-0.024625
0.050000	1	-0.024750
0.066667	1	-0.025625
0.083333	1	-0.025500
0.100000	1	-0.025750
0.116667	1	-0.025375
0.133333	1	-0.026000
0.150000	1	-0.026250
0.166667	1	-0.026500
0.183333	1	-0.026750
0.200000	1	-0.027000
0.216667	1	-0.027500
0.233333	1	-0.028000
0.250000	1	-0.028375
0.266667	1	-0.028375
0.283333	1	-0.028500
0.300000	1	-0.028125
0.316667	1	-0.028250
0.333333	1	-0.028500
0.350000	1	-0.028625
0.366667	1	-0.030250
0.383333	1	-0.031250
0.400000	1	-0.032000
0.416667	1	-0.032500
0.433333	1	-0.031875
0.450000	1	-0.030250
0.466667	1	-0.028625
0.483333	1	-0.027375
0.500000	1	-0.026000
0.516667	1	-0.025250
0.533333	1	-0.025625
0.550000	1	-0.026000
0.566667	1	-0.026500
0.583333	1	-0.028000
0.600000	1	-0.030500
0.616667	1	-0.032375
0.633333	1	-0.035000
0.650000	1	-0.036625
0.666667	1	-0.037625
0.683333	1	-0.038250
0.700000	1	-0.038750
0.716667	1	-0.039000
0.733333	1	-0.039625
0.750000	1	-0.039875
0.766667	1	-0.039500
0.783333	1	-0.039500
0.800000	1	-0.039750
0.816667	1	-0.039875
0.833333	1	-0.039875
0.850000	1	-0.039750
0.866667	1	-0.039750
0.883333	1	-0.039500
0.900000	1	-0.039500
0.916667	1	-0.039500
0.933333	1	-0.039500
0.950000	1	-0.039125
0.966667	1	-0.038750
0.983333	1	-0.038375
1.000000	1	-0.038125
1.016667	1	-0.038000
1.033333	1	-0.037500
1.050000	1	-0.037375
1.066667	1	-0.037000
1.083333	1	-0.036875
1.100000	1	-0.037250
1.116667	1	-0.037125
1.133333	1	-0.037750
1.150000	1	-0.037250
1.166667	1	-0.037375
1.183333	1	-0.037500
1.200000	1	-0.037625
1.216667	1	-0.037625
1.233333	1	-0.038250
1.250000	1	-0.039125
1.266667	1	-0.039625
1.283333	1	-0.039500
1.300000	1	-0.039875
1.316667	1	-0.039875
1.333333	1	-0.040250
1.350000	1	-0.040625
1.366667	1	-0.041000
1.383333	1	-0.041750
1.400000	1	-0.042250
1.416667	1	-0.042125
1.433333	1	-0.042375
1.450000	1	-0.042250
1.466667	1	-0.041875
1.483333	1	-0.041375
1.500000	1	-0.041500
1.516667	1	-0.041500
1.533333	1	-0.041750
1.550000	1	-0.041500
1.566667	1	-0.041750
1.583333	1	-0.041250
1.600000	1	-0.040875
1.616667	1	-0.040250
1.633333	1	-0.039875
1.650000	1	-0.039625
1.666667	1	-0.039875
1.683333	1	-0.039375
1.700000	1	-0.039000
1.716667	1	-0.038625
1.733333	1	-0.038000
1.750000	1	-0.037500
1.766667	1	-0.037500
1.783333	1	-0.037375
1.800000	1	-0.037000
1.816667	1	-0.036625
1.833333	1	-0.036625
1.850000	1	-0.036750
1.866667	1	-0.036125
1.883333	1	-0.036625
1.900000	1	-0.037000
1.916667	1	-0.037875
1.933333	1	-0.038250
1.950000	1	-0.039250
1.966667	1	-0.040000
1.983333	1	-0.041625
2.000000	1	-0.042625
2.016667	1	-0.044125
2.033333	1	-0.045375
2.050000	1	-0.046625
2.066667	1	-0.048625
2.083333	1	-0.050000
2.100000	1	-0.052250
2.116667	1	-0.053750
2.133333	1	-0.056125
2.150000	1	-0.058000
2.166667	1	-0.060000
2.183333	1	-0.062250
2.200000	1	-0.064625
2.216667	1	-0.066000
2.233333	1	-0.067875
2.250000	1	-0.068250
2.266667	1	-0.070000
2.283333	1	-0.071125
2.300000	1	-0.072875
2.316667	1	-0.073500
2.333333	1	-0.074250
2.350000	1	-0.074625
2.366667	1	-0.075750
2.383333	1	-0.076375
2.400000	1	-0.076750
2.416667	1	-0.077125
2.433333	1	-0.076375
2.450000	1	-0.076125
2.466667	1	-0.075500
2.483333	1	-0.075750
2.500000	1	-0.075500
2.516667	1	-0.075125
2.533333	1	-0.074500
2.550000	1	-0.073500
2.566667	1	-0.072375
2.583333	1	-0.071875
2.600000	1	-0.071375
2.616667	1	-0.071000
2.633333	1	-0.070750
2.650000	1	-0.070500
2.666667	1	-0.069500
2.683333	1	-0.069375
2.700000	1	-0.068875
2.716667	1	-0.068750
2.733333	1	-0.068875
2.750000	1	-0.068125
2.766667	1	-0.067875
2.783333	1	-0.068000
2.800000	1	-0.067875
2.816667	1	-0.067500
2.833333	1	-0.067750
2.850000	1	-0.067500
2.866667	1	-0.067375
2.883333	1	-0.067125
2.900000	1	-0.066750
2.916667	1	-0.066375
2.933333	1	-0.066375
2.950000	1	-0.066125
2.966667	1	-0.065875
2.983333	1	-0.065500
3.000000	1	-0.064375
3.016667	1	-0.064000
3.033333	1	-0.063250
3.050000	1	-0.062000
3.066667	1	-0.061250
3.083333	1	-0.060125
3.100000	1	-0.058000
3.116667	1	-0.056750
3.133333	1	-0.055125
3.150000	1	-0.053875
3.166667	1	-0.052750
3.183333	1	-0.051750
3.200000	1	-0.050250
3.216667	1	-0.048625
3.233333	1	-0.047000
3.250000	1	-0.045500
3.266667	1	-0.043625
3.283333	1	-0.042000
3.300000	1	-0.041500
3.316667	1	-0.040125
3.333333	1	-0.038500
3.350000	1	-0.038000
3.366667	1	-0.036250
3.383333	1	-0.035000
3.400000	1	-0.033375
3.416667	1	-0.032250
3.433333	1	-0.031375
3.450000	1	-0.030250
3.466667	1	-0.028625
3.483333	1	-0.027250
3.500000	1	-0.026250
3.516667	1	-0.025750
3.533333	1	-0.025125
3.550000	1	-0.024500
3.566667	1	-0.023625
3.583333	1	-0.022750
3.600000	1	-0.021500
3.616667	1	-0.020750
3.633333	1	-0.020375
3.650000	1	-0.020250
3.666667	1	-0.020125
3.683333	1	-0.019875
3.700000	1	-0.019500
3.716667	1	-0.020000
3.733333	1	-0.020250
3.750000	1	-0.020125
3.766667	1	-0.019875
3.783333	1	-0.020125
3.800000	1	-0.019750
3.816667	1	-0.020125
3.833333	1	-0.020000
3.850000	1	-0.020750
3.866667	1	-0.021125
3.883333	1	-0.021125
3.900000	1	-0.021500
3.916667	1	-0.021875
3.933333	1	-0.021375
3.950000	1	-0.022250
3.966667	1	-0.022125
3.983333	1	-0.022625
4.000000	1	-0.022125
4.016667	1	-0.022125
4.033333	1	-0.022000
4.050000	1	-0.021500
4.066667	1	-0.020875
4.083333	1	-0.021250
4.100000	1	-0.021375
4.116667	1	-0.021125
4.133333	1	-0.021500
4.150000	1	-0.021750
4.166667	1	-0.020500
4.183333	1	-0.020500
4.200000	1	-0.020125
4.216667	1	-0.020500
4.233333	1	-0.020625
4.250000	1	-0.020750
4.266667	1	-0.020875
4.283333	1	-0.021625
4.300000	1	-0.022125
4.316667	1	-0.022375
4.333333	1	-0.022375
4.350000	1	-0.022000
4.366667	1	-0.022875
4.383333	1	-0.023250
4.400000	1	-0.023375
4.416667	1	-0.023375
4.433333	1	-0.023750
4.450000	1	-0.024000
4.466667	1	-0.024125
4.483333	1	-0.024500
4.500000	1	-0.024250
4.516667	1	-0.023750
4.533333	1	-0.023875
4.550000	1	-0.024625
4.566667	1	-0.024125
4.583333	1	-0.024125
4.600000	1	-0.023875
4.616667	1	-0.023375
4.633333	1	-0.022500
4.650000	1	-0.021750
4.666667	1	-0.021250
4.683333	1	-0.020375
4.700000	1	-0.019375
4.716667	1	-0.018500
4.733333	1	-0.017875
4.750000	1	-0.016250
4.766667	1	-0.015375
4.783333	1	-0.014125
4.800000	1	-0.012500
4.816667	1	-0.011000
4.833333	1	-0.008500
4.850000	1	-0.006125
4.866667	1	-0.004375
4.883333	1	-0.002750
4.900000	1	-0.000375
4.916667	1	0.001750
4.933333	1	0.004750
4.950000	1	0.007625
4.966667	1	0.009625
4.983333	1	0.012500
5.000000	1	0.015625
5.016667	1	0.018250
5.033333	1	0.021750
5.050000	1	0.025000
5.066667	1	0.028125
5.083333	1	0.032000
5.100000	1	0.036000
5.116667	1	0.039500
5.133333	1	0.043625
5.150000	1	0.047875
5.166667	1	0.052250
5.183333	1	0.056750
5.200000	1	0.061375
5.216667	1	0.066125
5.233333	1	0.071000
5.250000	1	0.075750
5.266667	1	0.080500
5.283333	1	0.084875
5.300000	1	0.088875
5.316667	1	0.093375
5.333333	1	0.098250
5.350000	1	0.102500
5.366667	1	0.106875
5.383333	1	0.111125
5.400000	1	0.115375
5.416667	1	0.119000
5.433333	1	0.122625
5.450000	1	0.126125
5.466667	1	0.129500
5.483333	1	0.132250
5.500000	1	0.135250
5.516667	1	0.137625
5.533333	1	0.140750
5.550000	1	0.143375
5.566667	1	0.146000
5.583333	1	0.148125
5.600000	1	0.149875
5.616667	1	0.151250
5.633333	1	0.153250
5.650000	1	0.154250
5.666667	1	0.155125
5.683333	1	0.156875
5.700000	1	0.158250
5.716667	1	0.159625
5.733333	1	0.160125
5.750000	1	0.161125
5.766667	1	0.162000
5.783333	1	0.163000
5.800000	1	0.163125
5.816667	1	0.163625
5.833333	1	0.163375
5.850000	1	0.163750
5.866667	1	0.164000
5.883333	1	0.164000
5.900000	1	0.163750
5.916667	1	0.163250
5.933333	1	0.162500
5.950000	1	0.161375
5.966667	1	0.160750
5.983333	1	0.159750
6.000000	1	0.158625
6.016667	1	0.156875
6.033333	1	0.155750
6.050000	1	0.153875
6.066667	1	0.152125
6.083333	1	0.149375
6.100000	1	0.147125
6.116667	1	0.144000
6.133333	1	0.141625
6.150000	1	0.139250
6.166667	1	0.135875
6.183333	1	0.132750
6.200000	1	0.129125
6.216667	1	0.126625
6.233333	1	0.123000
6.250000	1	0.120000
6.266667	1	0.116250
6.283333	1	0.112500
6.300000	1	0.108500
6.316667	1	0.104625
6.333333	1	0.101500
6.350000	1	0.098375
6.366667	1	0.094500
6.383333	1	0.091750
6.400000	1	0.087750
6.416667	1	0.084250
6.433333	1	0.081000
6.450000	1	0.078375
6.466667	1	0.075000
6.483333	1	0.072000
6.500000	1	0.069500
6.516667	1	0.067125
6.533333	1	0.064250
6.550000	1	0.062000
6.566667	1	0.059875
6.583333	1	0.057625
6.600000	1	0.055375
6.616667	1	0.052750
6.633333	1	0.050500
6.650000	1	0.048750
6.666667	1	0.046625
6.683333	1	0.044250
6.700000	1	0.042250
6.716667	1	0.040000
6.733333	1	0.038375
6.750000	1	0.036875
6.766667	1	0.035625
6.783333	1	0.033875
6.800000	1	0.032375
6.816667	1	0.031125
6.833333	1	0.029250
6.850000	1	0.028000
6.866667	1	0.027125
6.883333	1	0.025875
6.900000	1	0.023750
6.916667	1	0.023500
6.933333	1	0.022625
6.950000	1	0.022375
6.966667	1	0.023000
6.983333	1	0.022375
7.000000	1	0.022750
7.016667	1	0.023000
7.033333	1	0.023500
7.050000	1	0.024125
7.066667	1	0.024125
7.083333	1	0.024875
7.100000	1	0.025250
7.116667	1	0.026625
7.133333	1	0.028125
7.150000	1	0.030000
7.166667	1	0.031625
7.183333	1	0.033250
7.200000	1	0.035125
7.216667	1	0.036750
7.233333	1	0.038000
7.250000	1	0.039875
7.266667	1	0.042125
7.283333	1	0.044625
7.300000	1	0.046625
7.316667	1	0.049250
7.333333	1	0.052000
7.350000	1	0.054250
7.366667	1	0.056625
7.383333	1	0.059125
7.400000	1	0.061500
7.416667	1	0.063875
7.433333	1	0.066500
7.450000	1	0.067875
7.466667	1	0.071000
7.483333	1	0.073000
7.500000	1	0.075125
7.516667	1	0.076875
7.533333	1	0.079500
7.550000	1	0.081500
7.566667	1	0.082875
7.583333	1	0.084500
7.600000	1	0.085625
7.616667	1	0.087000
7.633333	1	0.088250
7.650000	1	0.088875
7.666667	1	0.089625
7.683333	1	0.089875
7.700000	1	0.090500
7.716667	1	0.090625
7.733333	1	0.090500
7.750000	1	0.089625
7.766667	1	0.088125
7.783333	1	0.087250
7.800000	1	0.085750
7.816667	1	0.084000
7.833333	1	0.081875
7.850000	1	0.079375
7.866667	1	0.076625
7.883333	1	0.074000
7.900000	1	0.071250
7.916667	1	0.068375
7.933333	1	0.065375
7.950000	1	0.062125
7.966667	1	0.059125
7.983333	1	0.055750
8.000000	1	0.052250
8.016667	1	0.048875
8.033333	1	0.045375
8.050000	1	0.042000
8.066667	1	0.038250
8.083333	1	0.034750
8.100000	1	0.031375
8.116667	1	0.027750
8.133333	1	0.024375
8.150000	1	0.021000
8.166667	1	0.018000
8.183333	1	0.014625
8.200000	1	0.012250
8.216667	1	0.008875
8.233333	1	0.005875
8.250000	1	0.002500
8.266667	1	0.000000
8.283333	1	-0.003125
8.300000	1	-0.006000
8.316667	1	-0.009000
8.333333	1	-0.011500
8.350000	1	-0.014000
8.366667	1	-0.016500
8.383333	1	-0.019750
8.400000	1	-0.022250
8.416667	1	-0.024875
8.433333	1	-0.026875
8.450000	1	-0.029875
8.466667	1	-0.032375
8.483333	1	-0.034750
8.500000	1	-0.037000
8.516667	1	-0.039000
8.533333	1	-0.041000
8.550000	1	-0.043000
8.566667	1	-0.045250
8.583333	1	-0.047125
8.600000	1	-0.048750
8.616667	1	-0.050000
8.633333	1	-0.051625
8.650000	1	-0.053250
8.666667	1	-0.054750
8.683333	1	-0.056250
8.700000	1	-0.057625
8.716667	1	-0.057875
8.733333	1	-0.057625
8.750000	1	-0.058000
8.766667	1	-0.058125
8.783333	1	-0.058500
8.800000	1	-0.058000
8.816667	1	-0.057375
8.833333	1	-0.056750
8.850000	1	-0.056500
8.866667	1	-0.055750
8.883333	1	-0.055125
8.900000	1	-0.054000
8.916667	1	-0.053125
8.933333	1	-0.052000
8.950000	1	-0.051125
8.966667	1	-0.049875
8.983333	1	-0.048625
9.000000	1	-0.047750
9.016667	1	-0.047125
9.033333	1	-0.045875
9.050000	1	-0.045500
9.066667	1	-0.044875
9.083333	1	-0.044375
9.100000	1	-0.044125
9.116667	1	-0.043500
9.133333	1	-0.043000
9.150000	1	-0.042375
9.166667	1	-0.043000
9.183333	1	-0.043000
9.200000	1	-0.044125
9.216667	1	-0.044375
9.233333	1	-0.045125
9.250000	1	-0.045500
9.266667	1	-0.046250
9.283333	1	-0.046750
9.300000	1	-0.047750
9.316667	1	-0.049000
9.333333	1	-0.049875
9.350000	1	-0.051000
9.366667	1	-0.052625
9.383333	1	-0.053875
9.400000	1	-0.055875
9.416667	1	-0.056875
9.433333	1	-0.057625
9.450000	1	-0.059125
9.466667	1	-0.060125
9.483333	1	-0.060250
9.500000	1	-0.061625
9.516667	1	-0.063375
9.533333	1	-0.064250
9.550000	1	-0.065250
9.566667	1	-0.065625
9.583333	1	-0.066750
9.600000	1	-0.066875
9.616667	1	-0.067750
9.633333	1	-0.068250
9.650000	1	-0.068375
9.666667	1	-0.069000
9.683333	1	-0.069125
9.700000	1	-0.069500
9.716667	1	-0.070125
9.733333	1	-0.069750
9.750000	1	-0.070125
9.766667	1	-0.069875
9.783333	1	-0.070250
9.800000	1	-0.070375
9.816667	1	-0.071000
9.833333	1	-0.071250
9.850000	1	-0.071625
9.866667	1	-0.072375
9.883333	1	-0.071875
9.900000	1	-0.071750
9.916667	1	-0.071375
9.933333	1	-0.071250
9.950000	1	-0.070875
9.966667	1	-0.070500
9.983333	1	-0.070000
10.000000	1	-0.068375
10.016667	1	-0.067375
10.033333	1	-0.065625
10.050000	1	-0.063625
10.066667	1	-0.060250
10.083333	1	-0.057000
10.100000	1	-0.052500
10.116667	1	-0.047375
10.133333	1	-0.040750
10.150000	1	-0.033875
10.166667	1	-0.025875
10.183333	1	-0.017125
10.200000	1	-0.006500
10.216667	1	0.005000
10.233333	1	0.019375
10.250000	1	0.034250
10.266667	1	0.051625
10.283333	1	0.071250
10.300000	1	0.093375
10.316667	1	0.118625
10.333333	1	0.146250
10.350000	1	0.176750
10.366667	1	0.209125
10.383333	1	0.242875
10.400000	1	0.275125
10.416667	1	0.300875
10.433333	1	0.311875
10.450000	1	0.301375
10.466667	1	0.262375
10.483333	1	0.196875
10.500000	1	0.123000
10.516667	1	0.076375
10.533333	1	0.117875
10.550000	1	0.324625
10.566667	1	0.784375
10.583333	1	1.586375
10.600000	1	2.807875
10.616667	1	4.512250
10.633333	1	6.741625
10.650000	1	9.516875
10.666667	1	12.846375
10.683333	1	16.715625
10.700000	1	21.087750
10.716667	1	25.894875
10.733333	1	31.029500
10.750000	1	36.328500
10.766667	1	41.549125
10.783333	1	46.377750
10.800000	1	50.417250
10.816667	1	53.238125
10.833333	1	54.468000
10.850000	1	53.905500
10.866667	1	51.596625
10.883333	1	47.834000
10.900000	1	43.080000
10.916667	1	37.840500
10.933333	1	32.561375
10.950000	1	27.566625
10.966667	1	23.052625
10.983333	1	19.113000
11.000000	1	15.765500
11.016667	1	12.982625
11.033333	1	10.710500
11.050000	1	8.880500
11.066667	1	7.420000
11.083333	1	6.260750
11.100000	1	5.344125
11.116667	1	4.618375
11.133333	1	4.040000
11.150000	1	3.576250
11.166667	1	3.200625
11.183333	1	2.893250
11.200000	1	2.638125
11.216667	1	2.423750
11.233333	1	2.241250
11.250000	1	2.084750
11.266667	1	1.948875
11.283333	1	1.829000
11.300000	1	1.724000
11.316667	1	1.631750
11.333333	1	1.549500
11.350000	1	1.477375
11.366667	1	1.413000
11.383333	1	1.356000
11.400000	1	1.305375
11.416667	1	1.260125
11.433333	1	1.220750
11.450000	1	1.186625
11.466667	1	1.157000
11.483333	1	1.131375
11.500000	1	1.109875
11.516667	1	1.092000
11.533333	1	1.076625
11.550000	1	1.065250
11.566667	1	1.055750
11.583333	1	1.048125
11.600000	1	1.042000
11.616667	1	1.037125
11.633333	1	1.032875
11.650000	1	1.029250
11.666667	1	1.025250
11.683333	1	1.021625
11.700000	1	1.017750
11.716667	1	1.014000
11.733333	1	1.009875
11.750000	1	1.006750
11.766667	1	1.003250
11.783333	1	1.001375
11.800000	1	1.000375
11.816667	1	0.999875
11.833333	1	0.999875
11.850000	1	1.001625
11.866667	1	1.003000
11.883333	1	1.004625
11.900000	1	1.007000
11.916667	1	1.010125
11.933333	1	1.013750
11.950000	1	1.016875
11.966667	1	1.020375
11.983333	1	1.024250
12.000000	1	1.028375
12.016667	1	1.032750
12.033333	1	1.037250
12.050000	1	1.042375
12.066667	1	1.048125
12.083333	1	1.054875
12.100000	1	1.061125
12.116667	1	1.068250
12.133333	1	1.075250
12.150000	1	1.083125
12.166667	1	1.091500
12.183333	1	1.101000
12.200000	1	1.111375
12.216667	1	1.123750
12.233333	1	1.137875
12.250000	1	1.153875
12.266667	1	1.171625
12.283333	1	1.191625
12.300000	1	1.212750
12.316667	1	1.237375
12.333333	1	1.266125
12.350000	1	1.298375
12.366667	1	1.336750
12.383333	1	1.384875
12.400000	1	1.446250
12.416667	1	1.526875
12.433333	1	1.633625
12.450000	1	1.773875
12.466667	1	1.955875
12.483333	1	2.185875
12.500000	1	2.472250
12.516667	1	2.815000
12.533333	1	3.215375
12.550000	1	3.669375
12.566667	1	4.167250
12.583333	1	4.697875
12.600000	1	5.246750
12.616667	1	5.796875
12.633333	1	6.332750
12.650000	1	6.839500
12.666667	1	7.303875
12.683333	1	7.714375
12.700000	1	8.061875
12.716667	1	8.340625
12.733333	1	8.543000
12.750000	1	8.665250
12.766667	1	8.703500
12.783333	1	8.655125
12.800000	1	8.522875
12.816667	1	8.314250
12.833333	1	8.042625
12.850000	1	7.722625
12.866667	1	7.370750
12.883333	1	7.000750
12.900000	1	6.623875
12.916667	1	6.249000
12.933333	1	5.882000
12.950000	1	5.526000
12.966667	1	5.186000
12.983333	1	4.865000
13.000000	1	4.567000
13.016667	1	4.294000
13.033333	1	4.045375
13.050000	1	3.822125
13.066667	1	3.622625
13.083333	1	3.444625
13.100000	1	3.286125
13.116667	1	3.145375
13.133333	1	3.020375
13.150000	1	2.907500
13.166667	1	2.805875
13.183333	1	2.714125
13.200000	1	2.629125
13.216667	1	2.552125
13.233333	1	2.480750
13.250000	1	2.414000
13.266667	1	2.352250
13.283333	1	2.294250
13.300000	1	2.239500
13.316667	1	2.188250
13.333333	1	2.140000
13.350000	1	2.094625
13.366667	1	2.052000
13.383333	1	2.013500
13.400000	1	1.977875
13.416667	1	1.945000
13.433333	1	1.915625
13.450000	1	1.889625
13.466667	1	1.867125
13.483333	1	1.848375
13.500000	1	1.832625
13.516667	1	1.820750
13.533333	1	1.811125
13.550000	1	1.804125
13.566667	1	1.798500
13.583333	1	1.792250
13.600000	1	1.785375
13.616667	1	1.776875
13.633333	1	1.764875
13.650000	1	1.749125
13.666667	1	1.730375
13.683333	1	1.707875
13.700000	1	1.682375
13.716667	1	1.654750
13.733333	1	1.625375
13.750000	1	1.594625
13.766667	1	1.563125
13.783333	1	1.532500
13.800000	1	1.502875
13.816667	1	1.473875
13.833333	1	1.447125
13.850000	1	1.422125
13.866667	1	1.398250
13.883333	1	1.375500
13.900000	1	1.355000
13.916667	1	1.335750
13.933333	1	1.317125
13.950000	1	1.300750
13.966667	1	1.285625
13.983333	1	1.271250
14.000000	1	1.257500
14.016667	1	1.244875
14.033333	1	1.231750
14.050000	1	1.219375
14.066667	1	1.208375
14.083333	1	1.198375
14.100000	1	1.187750
14.116667	1	1.177625
14.133333	1	1.167875
14.150000	1	1.159875
14.166667	1	1.151625
14.183333	1	1.144250
14.200000	1	1.137875
14.216667	1	1.132000
14.233333	1	1.128000
14.250000	1	1.125375
14.266667	1	1.123000
14.283333	1	1.123000
14.300000	1	1.125125
14.316667	1	1.127875
14.333333	1	1.133250
14.350000	1	1.141125
14.366667	1	1.151500
14.383333	1	1.164875
14.400000	1	1.182000
14.416667	1	1.205250
14.433333	1	1.237000
14.450000	1	1.281750
14.466667	1	1.348500
14.483333	1	1.448000
14.500000	1	1.598625
14.516667	1	1.826125
14.533333	1	2.161625
14.550000	1	2.647375
14.566667	1	3.339250
14.583333	1	4.296000
14.600000	1	5.588750
14.616667	1	7.292375
14.633333	1	9.480000
14.650000	1	12.216500
14.666667	1	15.542750
14.683333	1	19.471250
14.700000	1	23.971750
14.716667	1	28.965625
14.733333	1	34.331750
14.750000	1	39.901875
14.766667	1	45.462000
14.783333	1	50.770875
14.800000	1	55.591000
14.816667	1	59.695125
14.833333	1	62.887875
14.850000	1	65.023375
14.866667	1	66.018750
14.883333	1	65.860500
14.900000	1	64.604625
14.916667	1	62.366000
14.933333	1	59.307375
14.950000	1	55.615875
14.966667	1	51.489750
14.983333	1	47.121500
15.000000	1	42.677500
15.016667	1	38.295875
15.033333	1	34.087375
15.050000	1	30.131875
15.066667	1	26.482375
15.083333	1	23.165500
15.100000	1	20.191125
15.116667	1	17.551375
15.133333	1	15.227125
15.150000	1	13.194250
15.166667	1	11.427625
15.183333	1	9.900125
15.200000	1	8.584125
15.216667	1	7.453625
15.233333	1	6.486250
15.250000	1	5.662875
15.266667	1	4.965500
15.283333	1	4.379750
15.300000	1	3.892125
15.316667	1	3.489875
15.333333	1	3.162250
15.350000	1	2.897875
15.366667	1	2.688250
15.383333	1	2.524625
15.400000	1	2.398250
15.416667	1	2.301875
15.433333	1	2.228000
15.450000	1	2.170500
15.466667	1	2.123625
15.483333	1	2.083250
15.500000	1	2.045500
15.516667	1	2.007375
15.533333	1	1.968125
15.550000	1	1.925875
15.566667	1	1.880875
15.583333	1	1.833625
15.600000	1	1.785125
15.616667	1	1.736750
15.633333	1	1.688625
15.650000	1	1.641750
15.666667	1	1.596750
15.683333	1	1.554250
15.700000	1	1.514750
15.716667	1	1.478000
15.733333	1	1.444500
15.750000	1	1.411750
15.766667	1	1.382125
15.783333	1	1.354750
15.800000	1	1.330500
15.816667	1	1.308625
15.833333	1	1.288625
15.850000	1	1.271875
15.866667	1	1.259625
15.883333	1	1.250875
15.900000	1	1.245625
15.916667	1	1.244125
15.933333	1	1.247250
15.950000	1	1.253750
15.966667	1	1.262875
15.983333	1	1.275750
16.000000	1	1.289375
16.016667	1	1.303625
16.033333	1	1.317875
16.050000	1	1.331000
16.066667	1	1.342250
16.083333	1	1.349750
16.100000	1	1.354125
16.116667	1	1.355125
16.133333	1	1.352250
16.150000	1	1.345375
16.166667	1	1.335625
16.183333	1	1.323125
16.200000	1	1.307875
16.216667	1	1.290375
16.233333	1	1.271375
16.250000	1	1.251250
16.266667	1	1.231500
16.283333	1	1.211375
16.300000	1	1.192000
16.316667	1	1.173750
16.333333	1	1.157125
16.350000	1	1.142125
16.366667	1	1.129000
16.383333	1	1.117625
16.400000	1	1.108750
16.416667	1	1.102375
16.433333	1	1.098000
16.450000	1	1.095000
16.466667	1	1.094375
16.483333	1	1.094625
16.500000	1	1.095000
16.516667	1	1.095875
16.533333	1	1.096875
16.550000	1	1.097125
16.566667	1	1.096500
16.583333	1	1.095125
16.600000	1	1.092875
16.616667	1	1.089125
16.633333	1	1.085125
16.650000	1	1.080375
16.666667	1	1.076500
16.683333	1	1.072375
16.700000	1	1.068875
16.716667	1	1.066375
16.733333	1	1.065375
16.750000	1	1.066750
16.766667	1	1.069000
16.783333	1	1.071875
16.800000	1	1.076125
16.816667	1	1.081000
16.833333	1	1.086750
16.850000	1	1.092250
16.866667	1	1.096875
16.883333	1	1.101500
16.900000	1	1.104000
16.916667	1	1.105000
16.933333	1	1.105125
16.950000	1	1.103500
16.966667	1	1.100625
16.983333	1	1.097000
17.000000	1	1.091875
17.016667	1	1.087375
17.033333	1	1.082250
17.050000	1	1.077125
17.066667	1	1.072625
17.083333	1	1.067500
17.100000	1	1.063750
17.116667	1	1.060625
17.133333	1	1.057750
17.150000	1	1.055375
17.166667	1	1.053875
17.183333	1	1.053375
17.200000	1	1.054000
17.216667	1	1.054375
17.233333	1	1.055500
17.250000	1	1.057500
17.266667	1	1.059500
17.283333	1	1.062375
17.300000	1	1.065250
17.316667	1	1.068625
17.333333	1	1.072250
17.350000	1	1.076250
17.366667	1	1.079375
17.383333	1	1.083250
17.400000	1	1.086000
17.416667	1	1.088000
17.433333	1	1.089125
17.450000	1	1.089375
17.466667	1	1.087625
17.483333	1	1.084500
17.500000	1	1.081000
17.516667	1	1.075625
17.533333	1	1.068750
17.550000	1	1.061000
17.566667	1	1.051625
17.583333	1	1.041125
17.600000	1	1.029750
17.616667	1	1.016750
17.633333	1	1.003500
17.650000	1	0.989750
17.666667	1	0.976250
17.683333	1	0.961500
17.700000	1	0.947500
17.716667	1	0.933875
17.733333	1	0.920250
17.750000	1	0.907250
17.766667	1	0.894875
17.783333	1	0.883250
17.800000	1	0.872750
17.816667	1	0.862125
17.833333	1	0.853000
17.850000	1	0.844375
17.866667	1	0.836625
17.883333	1	0.828750
17.900000	1	0.821875
17.916667	1	0.814375
17.933333	1	0.807875
17.950000	1	0.802375
17.966667	1	0.796375
17.983333	1	0.790750
18.000000	1	0.783875
18.016667	1	0.778250
18.033333	1	0.772250
18.050000	1	0.766000
18.066667	1	0.759000
18.083333	1	0.753875
18.100000	1	0.748750
18.116667	1	0.744625
18.133333	1	0.741750
18.150000	1	0.738375
18.166667	1	0.735375
18.183333	1	0.733625
18.200000	1	0.732375
18.216667	1	0.731250
18.233333	1	0.730375
18.250000	1	0.729625
18.266667	1	0.729625
18.283333	1	0.729875
18.300000	1	0.729625
18.316667	1	0.730125
18.333333	1	0.731250
18.350000	1	0.732750
18.366667	1	0.735125
18.383333	1	0.737875
18.400000	1	0.742000
18.416667	1	0.746625
18.433333	1	0.753000
18.450000	1	0.760750
18.466667	1	0.770375
18.483333	1	0.781875
18.500000	1	0.795000
18.516667	1	0.810625
18.533333	1	0.828250
18.550000	1	0.847000
18.566667	1	0.868375
18.583333	1	0.890500
18.600000	1	0.914125
18.616667	1	0.940000
18.633333	1	0.967250
18.650000	1	0.995750
18.666667	1	1.024375
18.683333	1	1.054875
18.700000	1	1.086000
18.716667	1	1.117125
18.733333	1	1.149625
18.750000	1	1.181375
18.766667	1	1.213250
18.783333	1	1.243500
18.800000	1	1.273125
18.816667	1	1.300375
18.833333	1	1.325125
18.850000	1	1.346125
18.866667	1	1.363000
18.883333	1	1.375625
18.900000	1	1.382000
18.916667	1	1.383375
18.933333	1	1.379125
18.950000	1	1.369000
18.966667	1	1.352375
18.983333	1	1.329875
19.000000	1	1.301750
19.016667	1	1.269125
19.033333	1	1.232500
19.050000	1	1.192625
19.066667	1	1.151125
19.083333	1	1.107625
19.100000	1	1.064000
19.116667	1	1.020875
19.133333	1	0.979750
19.150000	1	0.940750
19.166667	1	0.905000
19.183333	1	0.873375
19.200000	1	0.847250
19.216667	1	0.826125
19.233333	1	0.811375
19.250000	1	0.803125
19.266667	1	0.802625
19.283333	1	0.809125
19.300000	1	0.822250
19.316667	1	0.843375
19.333333	1	0.870625
19.350000	1	0.904875
19.366667	1	0.944250
19.383333	1	0.988000
19.400000	1	1.035625
19.416667	1	1.085250
19.433333	1	1.134625
19.450000	1	1.183125
19.466667	1	1.228875
19.483333	1	1.270875
19.500000	1	1.308875
19.516667	1	1.341750
19.533333	1	1.367500
19.550000	1	1.385500
19.566667	1	1.396375
19.583333	1	1.401125
19.600000	1	1.398250
19.616667	1	1.389125
19.633333	1	1.373625
19.650000	1	1.351875
19.666667	1	1.325875
19.683333	1	1.295625
19.700000	1	1.262000
19.716667	1	1.225125
19.733333	1	1.185375
19.750000	1	1.145000
19.766667	1	1.103000
19.783333	1	1.059625
19.800000	1	1.017375
19.816667	1	0.974375
19.833333	1	0.932250
19.850000	1	0.890125
19.866667	1	0.850375
19.883333	1	0.812000
19.900000	1	0.776375
19.916667	1	0.743125
19.933333	1	0.713125
19.950000	1	0.687375
19.966667	1	0.666125
19.983333	1	0.649000
20.000000	1	0.637000
20.016667	1	0.630625
20.033333	1	0.630375
20.050000	1	0.637250
20.066667	1	0.651125
20.083333	1	0.671250
20.100000	1	0.697125
20.116667	1	0.730500
20.133333	1	0.769000
20.150000	1	0.812125
20.166667	1	0.859125
20.183333	1	0.908500
20.200000	1	0.958375
20.216667	1	1.007125
20.233333	1	1.051750
20.250000	1	1.093500
20.266667	1	1.127750
20.283333	1	1.155375
20.300000	1	1.174750
20.316667	1	1.184875
20.333333	1	1.186250
20.350000	1	1.179000
20.366667	1	1.162375
20.383333	1	1.138750
20.400000	1	1.108750
20.416667	1	1.073875
20.433333	1	1.036000
20.450000	1	0.996750
20.466667	1	0.958375
20.483333	1	0.922750
20.500000	1	0.892625
20.516667	1	0.868500
20.533333	1	0.854625
20.550000	1	0.851625
20.566667	1	0.862375
20.583333	1	0.888250
20.600000	1	0.930875
20.616667	1	0.993000
20.633333	1	1.076000
20.650000	1	1.179500
20.666667	1	1.303625
20.683333	1	1.447625
20.700000	1	1.610625
20.716667	1	1.790000
20.733333	1	1.982375
20.750000	1	2.183625
20.766667	1	2.388750
20.783333	1	2.592000
20.800000	1	2.786750
20.816667	1	2.967375
20.833333	1	3.127750
20.850000	1	3.262250
20.866667	1	3.367125
20.883333	1	3.438625
20.900000	1	3.476125
20.916667	1	3.478375
20.933333	1	3.447375
20.950000	1	3.384000
20.966667	1	3.291750
20.983333	1	3.174875
21.000000	1	3.037750
21.016667	1	2.885375
21.033333	1	2.721500
21.050000	1	2.552125
21.066667	1	2.380125
21.083333	1	2.210250
21.100000	1	2.044625
21.116667	1	1.886125
21.133333	1	1.736375
21.150000	1	1.595375
21.166667	1	1.464625
21.183333	1	1.343750
21.200000	1	1.234750
21.216667	1	1.135250
21.233333	1	1.044875
21.250000	1	0.962875
21.266667	1	0.889750
21.283333	1	0.824625
21.300000	1	0.766500
21.316667	1	0.714750
21.333333	1	0.669125
21.350000	1	0.628500
21.366667	1	0.592625
21.383333	1	0.560875
21.400000	1	0.533125
21.416667	1	0.509000
21.433333	1	0.487375
21.450000	1	0.467875
21.466667	1	0.451000
21.483333	1	0.436875
21.500000	1	0.424750
21.516667	1	0.413625
21.533333	1	0.404750
21.550000	1	0.397625
21.566667	1	0.391875
21.583333	1	0.387625
21.600000	1	0.385125
21.616667	1	0.384875
21.633333	1	0.385625
21.650000	1	0.387875
21.666667	1	0.390875
21.683333	1	0.396500
21.700000	1	0.403000
21.716667	1	0.410500
21.733333	1	0.420000
21.750000	1	0.430625
21.766667	1	0.442750
21.783333	1	0.455875
21.800000	1	0.469250
21.816667	1	0.482375
21.833333	1	0.495625
21.850000	1	0.509125
21.866667	1	0.522125
21.883333	1	0.534750
21.900000	1	0.547375
21.916667	1	0.557750
21.933333	1	0.567875
21.950000	1	0.576500
21.966667	1	0.583750
21.983333	1	0.590500
22.000000	1	0.595500
22.016667	1	0.599125
22.033333	1	0.601125
22.050000	1	0.602125
22.066667	1	0.602500
22.083333	1	0.601875
22.100000	1	0.599750
22.116667	1	0.596875
22.133333	1	0.592875
22.150000	1	0.588375
22.166667	1	0.583125
22.183333	1	0.576750
22.200000	1	0.568375
22.216667	1	0.559500
22.233333	1	0.550000
22.250000	1	0.539625
22.266667	1	0.528750
22.283333	1	0.516375
22.300000	1	0.503500
22.316667	1	0.490625
22.333333	1	0.476875
22.350000	1	0.463000
22.366667	1	0.449250
22.383333	1	0.435250
22.400000	1	0.422000
22.416667	1	0.408000
22.433333	1	0.395500
22.450000	1	0.382500
22.466667	1	0.369750
22.483333	1	0.357375
22.500000	1	0.346500
22.516667	1	0.336000
22.533333	1	0.325875
22.550000	1	0.317125
22.566667	1	0.308500
22.583333	1	0.300375
22.600000	1	0.292500
22.616667	1	0.284375
22.633333	1	0.276625
22.650000	1	0.269250
22.666667	1	0.262875
22.683333	1	0.256375
22.700000	1	0.250250
22.716667	1	0.244250
22.733333	1	0.238250
22.750000	1	0.232625
22.766667	1	0.227375
22.783333	1	0.222000
22.800000	1	0.216625
22.816667	1	0.211375
22.833333	1	0.206375
22.850000	1	0.202250
22.866667	1	0.198125
22.883333	1	0.194125
22.900000	1	0.190125
22.916667	1	0.187375
22.933333	1	0.184250
22.950000	1	0.182625
22.966667	1	0.181000
22.983333	1	0.179750
23.000000	1	0.178625
23.016667	1	0.177625
23.033333	1	0.177875
23.050000	1	0.178250
23.066667	1	0.179125
23.083333	1	0.180500
23.100000	1	0.181750
23.116667	1	0.184250
23.133333	1	0.187125
23.150000	1	0.189250
23.166667	1	0.191875
23.183333	1	0.194250
23.200000	1	0.197125
23.216667	1	0.199625
23.233333	1	0.203500
23.250000	1	0.206250
23.266667	1	0.209875
23.283333	1	0.214375
23.300000	1	0.220125
23.316667	1	0.226875
23.333333	1	0.237000
23.350000	1	0.249000
23.366667	1	0.265375
23.383333	1	0.285125
23.400000	1	0.312125
23.416667	1	0.345625
23.433333	1	0.388000
23.450000	1	0.440500
23.466667	1	0.504250
23.483333	1	0.582250
23.500000	1	0.675875
23.516667	1	0.787000
23.533333	1	0.916500
23.550000	1	1.065250
23.566667	1	1.235250
23.583333	1	1.426000
23.600000	1	1.636875
23.616667	1	1.867000
23.633333	1	2.113125
23.650000	1	2.373125
23.666667	1	2.642125
23.683333	1	2.918500
23.700000	1	3.195000
23.716667	1	3.467750
23.733333	1	3.730750
23.750000	1	3.977625
23.766667	1	4.203625
23.783333	1	4.402250
23.800000	1	4.570500
23.816667	1	4.704375
23.833333	1	4.801375
23.850000	1	4.859750
23.866667	1	4.879500
23.883333	1	4.861750
23.900000	1	4.809000
23.916667	1	4.721750
23.933333	1	4.604125
23.950000	1	4.459750
23.966667	1	4.293000
23.983333	1	4.108250
24.000000	1	3.909500
24.016667	1	3.702750
24.033333	1	3.490875
24.050000	1	3.277500
24.066667	1	3.066000
24.083333	1	2.857625
24.100000	1	2.655625
24.116667	1	2.461500
24.133333	1	2.276125
24.150000	1	2.100625
24.166667	1	1.936125
24.183333	1	1.782375
24.200000	1	1.639000
24.216667	1	1.505750
24.233333	1	1.383250
24.250000	1	1.271000
24.266667	1	1.167625
24.283333	1	1.073750
24.300000	1	0.988000
24.316667	1	0.910375
24.333333	1	0.839875
24.350000	1	0.777250
24.366667	1	0.720250
24.383333	1	0.670250
24.400000	1	0.625500
24.416667	1	0.586375
24.433333	1	0.552000
24.450000	1	0.522125
24.466667	1	0.496125
24.483333	1	0.473625
24.500000	1	0.454750
24.516667	1	0.438250
24.533333	1	0.423875
24.550000	1	0.411625
24.566667	1	0.401375
24.583333	1	0.392000
24.600000	1	0.384250
24.616667	1	0.376625
24.633333	1	0.370625
24.650000	1	0.364250
24.666667	1	0.358500
24.683333	1	0.353000
24.700000	1	0.347750
24.716667	1	0.341875
24.733333	1	0.336500
24.750000	1	0.331750
24.766667	1	0.326375
24.783333	1	0.321000
24.800000	1	0.316125
24.816667	1	0.310750
24.833333	1	0.306250
24.850000	1	0.302000
24.866667	1	0.298000
24.883333	1	0.294250
24.900000	1	0.290000
24.916667	1	0.286750
24.933333	1	0.283625
24.950000	1	0.280250
24.966667	1	0.276750
24.983333	1	0.274125
25.000000	1	0.271125
25.016667	1	0.268500
25.033333	1	0.265750
25.050000	1	0.263500
25.066667	1	0.261500
25.083333	1	0.259625
25.100000	1	0.257250
25.116667	1	0.254625
25.133333	1	0.252125
25.150000	1	0.249875
25.166667	1	0.247750
25.183333	1	0.244500
25.200000	1	0.242000
25.216667	1	0.238375
25.233333	1	0.235500
25.250000	1	0.232375
25.266667	1	0.230125
25.283333	1	0.227000
25.300000	1	0.224375
25.316667	1	0.221500
25.333333	1	0.219250
25.350000	1	0.216875
25.366667	1	0.214375
25.383333	1	0.211750
25.400000	1	0.209750
25.416667	1	0.207875
25.433333	1	0.207000
25.450000	1	0.205000
25.466667	1	0.204125
25.483333	1	0.202750
25.500000	1	0.202875
25.516667	1	0.202750
25.533333	1	0.202750
25.550000	1	0.202125
25.566667	1	0.201750
25.583333	1	0.201750
25.600000	1	0.201625
25.616667	1	0.202000
25.633333	1	0.202375
25.650000	1	0.202625
25.666667	1	0.203125
25.683333	1	0.203750
25.700000	1	0.204125
25.716667	1	0.204875
25.733333	1	0.205375
25.750000	1	0.206125
25.766667	1	0.206000
25.783333	1	0.206500
25.800000	1	0.206750
25.816667	1	0.207375
25.833333	1	0.208250
25.850000	1	0.209625
25.866667	1	0.210375
25.883333	1	0.211625
25.900000	1	0.213000
25.916667	1	0.214000
25.933333	1	0.215750
25.950000	1	0.217875
25.966667	1	0.220375
25.983333	1	0.223125
26.000000	1	0.226250
26.016667	1	0.229375
26.033333	1	0.233125
26.050000	1	0.237000
26.066667	1	0.241500
26.083333	1	0.246250
26.100000	1	0.251500
26.116667	1	0.256750
26.133333	1	0.262625
26.150000	1	0.268125
26.166667	1	0.274000
26.183333	1	0.279500
26.200000	1	0.285500
26.216667	1	0.291000
26.233333	1	0.296500
26.250000	1	0.302375
26.266667	1	0.307000
26.283333	1	0.311625
26.300000	1	0.315375
26.316667	1	0.319250
26.333333	1	0.322125
26.350000	1	0.324375
26.366667	1	0.326125
26.383333	1	0.327250
26.400000	1	0.328000
26.416667	1	0.327750
26.433333	1	0.326375
26.450000	1	0.324375
26.466667	1	0.321375
26.483333	1	0.318125
26.500000	1	0.313750
26.516667	1	0.309000
26.533333	1	0.303500
26.550000	1	0.297375
26.566667	1	0.291375
26.583333	1	0.284625
26.600000	1	0.277625
26.616667	1	0.270000
26.633333	1	0.263250
26.650000	1	0.255750
26.666667	1	0.248375
26.683333	1	0.240375
26.700000	1	0.233250
26.716667	1	0.226375
26.733333	1	0.219625
26.750000	1	0.212750
26.766667	1	0.206250
26.783333	1	0.199875
26.800000	1	0.194250
26.816667	1	0.189250
26.833333	1	0.184750
26.850000	1	0.180250
26.866667	1	0.176750
26.883333	1	0.173250
26.900000	1	0.170250
26.916667	1	0.168125
26.933333	1	0.166750
26.950000	1	0.164500
26.966667	1	0.163750
26.983333	1	0.163375
27.000000	1	0.163500
27.016667	1	0.163875
27.033333	1	0.164750
27.050000	1	0.165500
27.066667	1	0.167250
27.083333	1	0.169375
27.100000	1	0.171750
27.116667	1	0.174875
27.133333	1	0.178750
27.150000	1	0.183375
27.166667	1	0.188500
27.183333	1	0.194750
27.200000	1	0.202000
27.216667	1	0.210000
27.233333	1	0.220125
27.250000	1	0.231125
27.266667	1	0.244750
27.283333	1	0.260125
27.300000	1	0.279125
27.316667	1	0.301500
27.333333	1	0.327875
27.350000	1	0.358875
27.366667	1	0.395500
27.383333	1	0.438375
27.400000	1	0.487750
27.416667	1	0.544750
27.433333	1	0.610000
27.450000	1	0.684625
27.466667	1	0.770375
27.483333	1	0.866375
27.500000	1	0.974000
27.516667	1	1.093500
27.533333	1	1.224875
27.550000	1	1.367000
27.566667	1	1.521125
27.583333	1	1.686375
27.600000	1	1.861875
27.616667	1	2.046125
27.633333	1	2.238375
27.650000	1	2.435375
27.666667	1	2.636625
27.683333	1	2.839625
27.700000	1	3.041000
27.716667	1	3.237875
27.733333	1	3.426625
27.750000	1	3.605500
27.766667	1	3.771000
27.783333	1	3.921125
27.800000	1	4.052625
27.816667	1	4.163000
27.833333	1	4.250750
27.850000	1	4.314750
27.866667	1	4.353250
27.883333	1	4.366250
27.900000	1	4.353875
27.916667	1	4.315875
27.933333	1	4.254000
27.950000	1	4.169750
27.966667	1	4.064125
27.983333	1	3.939375
28.000000	1	3.798500
28.016667	1	3.644875
28.033333	1	3.480375
28.050000	1	3.308000
28.066667	1	3.129875
28.083333	1	2.949000
28.100000	1	2.768375
28.116667	1	2.589250
28.133333	1	2.413875
28.150000	1	2.243625
28.166667	1	2.080250
28.183333	1	1.923500
28.200000	1	1.775250
28.216667	1	1.635875
28.233333	1	1.505750
28.250000	1	1.384750
28.266667	1	1.272250
28.283333	1	1.169000
28.300000	1	1.073875
28.316667	1	0.987375
28.333333	1	0.909000
28.350000	1	0.837375
28.366667	1	0.772125
28.383333	1	0.714750
28.400000	1	0.662875
28.416667	1	0.617875
28.433333	1	0.577250
28.450000	1	0.542125
28.466667	1	0.511125
28.483333	1	0.484500
28.500000	1	0.462750
28.516667	1	0.443375
28.533333	1	0.427500
28.550000	1	0.415500
28.566667	1	0.406125
28.583333	1	0.399000
28.600000	1	0.394000
28.616667	1	0.392000
28.633333	1	0.391500
28.650000	1	0.392750
28.666667	1	0.395500
28.683333	1	0.399500
28.700000	1	0.403875
28.716667	1	0.409375
28.733333	1	0.415750
28.750000	1	0.422000
28.766667	1	0.429250
28.783333	1	0.436000
28.800000	1	0.442750
28.816667	1	0.450125
28.833333	1	0.456500
28.850000	1	0.462750
28.866667	1	0.468000
28.883333	1	0.472750
28.900000	1	0.477000
28.916667	1	0.480250
28.933333	1	0.482375
28.950000	1	0.482750
28.966667	1	0.483000
28.983333	1	0.481375
29.000000	1	0.478500
29.016667	1	0.474375
29.033333	1	0.468000
29.050000	1	0.460125
29.066667	1	0.451000
29.083333	1	0.440125
29.100000	1	0.427250
29.116667	1	0.412625
29.133333	1	0.395625
29.150000	1	0.376750
29.166667	1	0.355625
29.183333	1	0.332750
29.200000	1	0.307250
29.216667	1	0.279000
29.233333	1	0.248750
29.250000	1	0.215250
29.266667	1	0.179750
29.283333	1	0.141500
29.300000	1	0.100500
29.316667	1	0.056500
29.333333	1	0.010000
29.350000	1	-0.038875
29.366667	1	-0.090750
29.383333	1	-0.145000
29.400000	1	-0.200625
29.416667	1	-0.258375
29.433333	1	-0.318000
29.450000	1	-0.379500
29.466667	1	-0.441250
29.483333	1	-0.504250
29.500000	1	-0.567000
29.516667	1	-0.629625
29.533333	1	-0.690750
29.550000	1	-0.750625
29.566667	1	-0.808750
29.583333	1	-0.864750
29.600000	1	-0.917625
29.616667	1	-0.966500
29.633333	1	-1.012000
29.650000	1	-1.053625
29.666667	1	-1.090250
29.683333	1	-1.122000
29.700000	1	-1.148250
29.716667	1	-1.169000
29.733333	1	-1.184625
29.750000	1	-1.194875
29.766667	1	-1.199125
29.783333	1	-1.198000
29.800000	1	-1.191750
29.816667	1	-1.180000
29.833333	1	-1.163750
29.850000	1	-1.142750
29.866667	1	-1.118250
29.883333	1	-1.088500
29.900000	1	-1.056500
29.916667	1	-1.020125
29.933333	1	-0.981500
29.950000	1	-0.941625
29.966667	1	-0.899750
29.983333	1	-0.855750
30.000000	1	-0.811500
30.016667	1	-0.766750
30.033333	1	-0.721750
30.050000	1	-0.677500
30.066667	1	-0.633500
30.083333	1	-0.590625
30.100000	1	-0.548750
30.116667	1	-0.507750
30.133333	1	-0.468125
30.150000	1	-0.430500
30.166667	1	-0.394000
30.183333	1	-0.359875
30.200000	1	-0.327000
30.216667	1	-0.296125
30.233333	1	-0.267625
30.250000	1	-0.241375
30.266667	1	-0.215875
30.283333	1	-0.192375
30.300000	1	-0.170750
30.316667	1	-0.151000
30.333333	1	-0.132250
30.350000	1	-0.114750
30.366667	1	-0.099625
30.383333	1	-0.085500
30.400000	1	-0.072625
30.416667	1	-0.060625
30.433333	1	-0.048875
30.450000	1	-0.038750
30.466667	1	-0.028500
30.483333	1	-0.019750
30.500000	1	-0.011500
30.516667	1	-0.004500
30.533333	1	0.002750
30.550000	1	0.010125
30.566667	1	0.016625
30.583333	1	0.023750
30.600000	1	0.031250
30.616667	1	0.038875
30.633333	1	0.046000
30.650000	1	0.053875
30.666667	1	0.061500
30.683333	1	0.069125
30.700000	1	0.077375
30.716667	1	0.086375
30.733333	1	0.095375
30.750000	1	0.104125
30.766667	1	0.113625
30.783333	1	0.123375
30.800000	1	0.134000
30.816667	1	0.145250
30.833333	1	0.156500
30.850000	1	0.168250
30.866667	1	0.181000
30.883333	1	0.193625
30.900000	1	0.207500
30.916667	1	0.222875
30.933333	1	0.238375
30.950000	1	0.256125
30.966667	1	0.275625
30.983333	1	0.297125
31.000000	1	0.321500
31.016667	1	0.348500
31.033333	1	0.378875
31.050000	1	0.413000
31.066667	1	0.451500
31.083333	1	0.495250
31.100000	1	0.544750
31.116667	1	0.600000
31.133333	1	0.663250
31.150000	1	0.734000
31.166667	1	0.812500
31.183333	1	0.899750
31.200000	1	0.995375
31.216667	1	1.101500
31.233333	1	1.217500
31.250000	1	1.343500
31.266667	1	1.478375
31.283333	1	1.623250
31.300000	1	1.776625
31.316667	1	1.937875
31.333333	1	2.105875
31.350000	1	2.280125
31.366667	1	2.458000
31.383333	1	2.638875
31.400000	1	2.821000
31.416667	1	3.002375
31.433333	1	3.181125
31.450000	1	3.354500
31.466667	1	3.520625
31.483333	1	3.676750
31.500000	1	3.822375
31.516667	1	3.953625
31.533333	1	4.070000
31.550000	1	4.170125
31.566667	1	4.253125
31.583333	1	4.317250
31.600000	1	4.362250
31.616667	1	4.387250
31.633333	1	4.392375
31.650000	1	4.378750
31.666667	1	4.346000
31.683333	1	4.295750
31.700000	1	4.227875
31.716667	1	4.144250
31.733333	1	4.047250
31.750000	1	3.937875
31.766667	1	3.816125
31.783333	1	3.685125
31.800000	1	3.546625
31.816667	1	3.402250
31.833333	1	3.253000
31.850000	1	3.100750
31.866667	1	2.947250
31.883333	1	2.793625
31.900000	1	2.640750
31.916667	1	2.490500
31.933333	1	2.342875
31.950000	1	2.199000
31.966667	1	2.059875
31.983333	1	1.926000
32.000000	1	1.796250
32.016667	1	1.672000
32.033333	1	1.554250
32.050000	1	1.441250
32.066667	1	1.334625
32.083333	1	1.233750
32.100000	1	1.138750
32.116667	1	1.049375
32.133333	1	0.965250
32.150000	1	0.886000
32.166667	1	0.812250
32.183333	1	0.742750
32.200000	1	0.677625
32.216667	1	0.616875
32.233333	1	0.559500
32.250000	1	0.506750
32.266667	1	0.457500
32.283333	1	0.412000
32.300000	1	0.369125
32.316667	1	0.330375
32.333333	1	0.294125
32.350000	1	0.261000
32.366667	1	0.229750
32.383333	1	0.201000
32.400000	1	0.174000
32.416667	1	0.150250
32.433333	1	0.127750
32.450000	1	0.107125
32.466667	1	0.088750
32.483333	1	0.072125
32.500000	1	0.056250
32.516667	1	0.042250
32.533333	1	0.028750
32.550000	1	0.017250
32.566667	1	0.006500
32.583333	1	-0.002625
32.600000	1	-0.011250
32.616667	1	-0.019125
32.633333	1	-0.025125
32.650000	1	-0.031000
32.666667	1	-0.036125
32.683333	1	-0.040500
32.700000	1	-0.044750
32.716667	1	-0.048875
32.733333	1	-0.052250
32.750000	1	-0.055125
32.766667	1	-0.057250
32.783333	1	-0.059375
32.800000	1	-0.060125
32.816667	1	-0.061875
32.833333	1	-0.063625
32.850000	1	-0.064625
32.866667	1	-0.064875
32.883333	1	-0.065875
32.900000	1	-0.066750
32.916667	1	-0.067000
32.933333	1	-0.067250
32.950000	1	-0.067750
32.966667	1	-0.067500
32.983333	1	-0.069000
33.000000	1	-0.069125
33.016667	1	-0.070375
33.033333	1	-0.071500
33.050000	1	-0.071625
33.066667	1	-0.071875
33.083333	1	-0.072625
33.100000	1	-0.073500
33.116667	1	-0.074500
33.133333	1	-0.074625
33.150000	1	-0.075125
33.166667	1	-0.076125
33.183333	1	-0.076375
33.200000	1	-0.076625
33.216667	1	-0.077000
33.233333	1	-0.077250
33.250000	1	-0.076625
33.266667	1	-0.076375
33.283333	1	-0.076250
33.300000	1	-0.075750
33.316667	1	-0.075250
33.333333	1	-0.074750
33.350000	1	-0.073625
33.366667	1	-0.072125
33.383333	1	-0.070875
33.400000	1	-0.069750
33.416667	1	-0.068000
33.433333	1	-0.065875
33.450000	1	-0.063750
33.466667	1	-0.062125
33.483333	1	-0.059625
33.500000	1	-0.057250
33.516667	1	-0.054000
33.533333	1	-0.051125
33.550000	1	-0.048000
33.566667	1	-0.045375
33.583333	1	-0.042500
33.600000	1	-0.038875
33.616667	1	-0.035375
33.633333	1	-0.032000
33.650000	1	-0.028500
33.666667	1	-0.026125
33.683333	1	-0.022375
33.700000	1	-0.018500
33.716667	1	-0.015250
33.733333	1	-0.012375
33.750000	1	-0.008375
33.766667	1	-0.005250
33.783333	1	-0.002000
33.800000	1	0.001250
33.816667	1	0.004125
33.833333	1	0.006875
33.850000	1	0.009625
33.866667	1	0.011750
33.883333	1	0.014500
33.900000	1	0.017375
33.916667	1	0.020000
33.933333	1	0.022375
33.950000	1	0.025125
33.966667	1	0.027000
33.983333	1	0.029625
34.000000	1	0.031125
34.016667	1	0.033000
34.033333	1	0.033750
34.050000	1	0.035375
34.066667	1	0.036875
34.083333	1	0.037875
34.100000	1	0.038500
34.116667	1	0.039625
34.133333	1	0.040750
34.150000	1	0.040750
34.166667	1	0.041875
34.183333	1	0.042125
34.200000	1	0.042500
34.216667	1	0.042500
34.233333	1	0.043125
34.250000	1	0.043125
34.266667	1	0.043125
34.283333	1	0.043250
34.300000	1	0.043500
34.316667	1	0.043000
34.333333	1	0.043250
34.350000	1	0.043000
34.366667	1	0.043375
34.383333	1	0.043875
34.400000	1	0.045125
34.416667	1	0.045750
34.433333	1	0.045250
34.450000	1	0.046500
34.466667	1	0.047500
34.483333	1	0.047500
34.500000	1	0.047375
34.516667	1	0.047875
34.533333	1	0.048625
34.550000	1	0.050000
34.566667	1	0.050750
34.583333	1	0.051750
34.600000	1	0.052625
34.616667	1	0.053000
34.633333	1	0.052875
34.650000	1	0.053750
34.666667	1	0.053500
34.683333	1	0.053625
34.700000	1	0.054000
34.716667	1	0.054000
34.733333	1	0.054500
34.750000	1	0.055000
34.766667	1	0.054625
34.783333	1	0.054625
34.800000	1	0.054250
34.816667	1	0.053500
34.833333	1	0.052125
34.850000	1	0.051000
34.866667	1	0.049625
34.883333	1	0.048875
34.900000	1	0.048250
34.916667	1	0.046375
34.933333	1	0.045375
34.950000	1	0.043625
34.966667	1	0.043125
34.983333	1	0.041625
35.000000	1	0.040250
35.016667	1	0.038000
35.033333	1	0.036500
35.050000	1	0.034750
35.066667	1	0.033375
35.083333	1	0.032125
35.100000	1	0.031250
35.116667	1	0.030125
35.133333	1	0.029250
35.150000	1	0.028625
35.166667	1	0.028375
35.183333	1	0.027500
35.200000	1	0.026875
35.216667	1	0.026875
35.233333	1	0.026750
35.250000	1	0.026750
35.266667	1	0.026625
35.283333	1	0.027250
35.300000	1	0.028375
35.316667	1	0.029125
35.333333	1	0.029875
35.350000	1	0.031250
35.366667	1	0.032125
35.383333	1	0.032875
35.400000	1	0.033625
35.416667	1	0.034875
35.433333	1	0.035750
35.450000	1	0.036500
35.466667	1	0.037500
35.483333	1	0.038625
35.500000	1	0.039375
35.516667	1	0.040375
35.533333	1	0.042125
35.550000	1	0.043125
35.566667	1	0.043875
35.583333	1	0.045125
35.600000	1	0.045250
35.616667	1	0.046625
35.633333	1	0.047625
35.650000	1	0.048625
35.666667	1	0.049500
35.683333	1	0.050375
35.700000	1	0.050875
35.716667	1	0.051750
35.733333	1	0.052250
35.750000	1	0.053875
35.766667	1	0.054625
35.783333	1	0.054875
35.800000	1	0.055250
35.816667	1	0.055125
35.833333	1	0.055250
35.850000	1	0.054875
35.866667	1	0.054875
35.883333	1	0.054375
35.900000	1	0.054375
35.916667	1	0.053875
35.933333	1	0.052625
35.950000	1	0.052375
35.966667	1	0.051375
35.983333	1	0.050125
36.000000	1	0.048375
36.016667	1	0.046625
36.033333	1	0.045750
36.050000	1	0.044000
36.066667	1	0.042125
36.083333	1	0.040250
36.100000	1	0.039250
36.116667	1	0.038000
36.133333	1	0.035625
36.150000	1	0.034500
36.166667	1	0.032500
36.183333	1	0.031500
36.200000	1	0.030250
36.216667	1	0.028750
36.233333	1	0.027375
36.250000	1	0.026125
36.266667	1	0.025125
36.283333	1	0.024375
36.300000	1	0.023250
36.316667	1	0.021750
36.333333	1	0.020875
36.350000	1	0.020500
36.366667	1	0.019750
36.383333	1	0.018750
36.400000	1	0.018375
36.416667	1	0.018125
36.433333	1	0.018375
36.450000	1	0.017625
36.466667	1	0.017875
36.483333	1	0.018625
36.500000	1	0.019000
36.516667	1	0.018250
36.533333	1	0.019000
36.550000	1	0.020000
36.566667	1	0.020625
36.583333	1	0.021125
36.600000	1	0.021750
36.616667	1	0.022250
36.633333	1	0.023125
36.650000	1	0.023000
36.666667	1	0.023625
36.683333	1	0.024000
36.700000	1	0.023875
36.716667	1	0.024375
36.733333	1	0.024125
36.750000	1	0.025000
36.766667	1	0.025375
36.783333	1	0.026125
36.800000	1	0.026000
36.816667	1	0.025875
36.833333	1	0.026250
36.850000	1	0.026000
36.866667	1	0.026250
36.883333	1	0.026250
36.900000	1	0.026625
36.916667	1	0.027375
36.933333	1	0.027750
36.950000	1	0.028250
36.966667	1	0.029000
36.983333	1	0.030000
37.000000	1	0.030625
37.016667	1	0.031625
37.033333	1	0.033125
37.050000	1	0.035000
37.066667	1	0.036125
37.083333	1	0.037375
37.100000	1	0.039125
37.116667	1	0.040625
37.133333	1	0.043125
37.150000	1	0.045500
37.166667	1	0.047500
37.183333	1	0.049375
37.200000	1	0.051875
37.216667	1	0.054125
37.233333	1	0.056375
37.250000	1	0.059875
37.266667	1	0.063125
37.283333	1	0.066375
37.300000	1	0.069625
37.316667	1	0.073000
37.333333	1	0.076750
37.350000	1	0.080625
37.366667	1	0.084125
37.383333	1	0.087250
37.400000	1	0.090750
37.416667	1	0.094750
37.433333	1	0.098375
37.450000	1	0.101750
37.466667	1	0.105250
37.483333	1	0.109250
37.500000	1	0.112500
37.516667	1	0.115250
37.533333	1	0.118500
37.550000	1	0.122500
37.566667	1	0.125625
37.583333	1	0.128375
37.600000	1	0.131875
37.616667	1	0.135750
37.633333	1	0.139500
37.650000	1	0.143375
37.666667	1	0.146875
37.683333	1	0.150125
37.700000	1	0.153375
37.716667	1	0.156625
37.733333	1	0.160000
37.750000	1	0.163500
37.766667	1	0.166750
37.783333	1	0.169625
37.800000	1	0.173125
37.816667	1	0.176875
37.833333	1	0.180250
37.850000	1	0.182875
37.866667	1	0.187000
37.883333	1	0.190500
37.900000	1	0.193500
37.916667	1	0.197000
37.933333	1	0.200375
37.950000	1	0.203750
37.966667	1	0.206625
37.983333	1	0.210125
38.000000	1	0.213875
38.016667	1	0.217500
38.033333	1	0.220750
38.050000	1	0.224250
38.066667	1	0.228125
38.083333	1	0.231000
38.100000	1	0.234750
38.116667	1	0.238625
38.133333	1	0.241875
38.150000	1	0.245500
38.166667	1	0.248500
38.183333	1	0.252125
38.200000	1	0.255375
38.216667	1	0.259125
38.233333	1	0.262500
38.250000	1	0.266000
38.266667	1	0.269000
38.283333	1	0.272750
38.300000	1	0.276000
38.316667	1	0.278875
38.333333	1	0.282500
38.350000	1	0.285875
38.366667	1	0.289000
38.383333	1	0.292625
38.400000	1	0.295250
38.416667	1	0.297625
38.433333	1	0.300125
38.450000	1	0.303000
38.466667	1	0.305750
38.483333	1	0.308000
38.500000	1	0.310125
38.516667	1	0.311750
38.533333	1	0.313125
38.550000	1	0.315000
38.566667	1	0.315750
38.583333	1	0.316625
38.600000	1	0.316750
38.616667	1	0.316375
38.633333	1	0.315625
38.650000	1	0.316000
38.666667	1	0.315000
38.683333	1	0.314250
38.700000	1	0.312875
38.716667	1	0.311125
38.733333	1	0.309250
38.750000	1	0.307875
38.766667	1	0.305750
38.783333	1	0.302625
38.800000	1	0.300250
38.816667	1	0.297375
38.833333	1	0.294375
38.850000	1	0.291250
38.866667	1	0.288500
38.883333	1	0.286125
38.900000	1	0.282250
38.916667	1	0.278500
38.933333	1	0.274625
38.950000	1	0.271125
38.966667	1	0.267250
38.983333	1	0.263375
39.000000	1	0.259500
39.016667	1	0.255500
39.033333	1	0.251500
39.050000	1	0.247125
39.066667	1	0.243000
39.083333	1	0.239250
39.100000	1	0.235375
39.116667	1	0.230750
39.133333	1	0.225875
39.150000	1	0.221500
39.166667	1	0.217375
39.183333	1	0.212125
39.200000	1	0.207625
39.216667	1	0.203250
39.233333	1	0.198875
39.250000	1	0.193750
39.266667	1	0.189000
39.283333	1	0.184625
39.300000	1	0.180375
39.316667	1	0.175625
39.333333	1	0.170375
39.350000	1	0.165000
39.366667	1	0.160250
39.383333	1	0.155125
39.400000	1	0.150125
39.416667	1	0.145625
39.433333	1	0.140500
39.450000	1	0.135875
39.466667	1	0.131000
39.483333	1	0.125875
39.500000	1	0.120875
39.516667	1	0.115875
39.533333	1	0.111000
39.550000	1	0.106750
39.566667	1	0.102500
39.583333	1	0.098125
39.600000	1	0.094500
39.616667	1	0.090375
39.633333	1	0.086250
39.650000	1	0.082375
39.666667	1	0.078375
39.683333	1	0.075250
39.700000	1	0.071000
39.716667	1	0.067250
39.733333	1	0.063250
39.750000	1	0.060000
39.766667	1	0.056750
39.783333	1	0.053250
39.800000	1	0.050000
39.816667	1	0.047000
39.833333	1	0.043875
39.850000	1	0.041750
39.866667	1	0.039375
39.883333	1	0.036375
39.900000	1	0.033750
39.916667	1	0.031000
39.933333	1	0.028375
39.950000	1	0.025750
39.966667	1	0.023875
39.983333	1	0.021500
40.000000	1	0.019500
