URL	chrom://7040-86g6c92/XVault/Ultimate_3000/20/20240517_CMO_FP23_FP25_MarkusDeplate.seq/405.smp/RI_1.channel/RI_1.chm
Channel	RI_1

Injection Information:
Data Vault	XVault
Sequence	20240517_CMO_FP23_FP25_MarkusDeplate
Name	FP26_21_s6
Number	94
Position	BA11
Comment	
Processing Method	
Instrument Method	run_25B_method
Type	Unknown
Status	Finished
Inject Time	30.05.2024 10:13:27 +02:00
Volume (µl)	20.0000
Dilution Factor	1.0000
Weight	1.0000

Chromatogram Data Information:
Time Min. (min)	0.000000
Time Max. (min)	40.000000
Data Points	2401
Detector	RI
Generating Data System	Chromeleon 7.3.2.11814
Exporting Data System	Chromeleon 7.3.2.0
Operator	Instrument Controller
Signal Quantity	Refractive 
Signal Unit	µRIU
Signal Min.	-0.516875
Signal Max.	55.247500
Channel	RI_1
Driver Name	RID520Driver.dll
Channel Type	Evaluation
Min. Step (s)	1
Max. Step (s)	1
Average Step (s)	1

Signal Parameter Information:
Signal Info	

Chromatogram Data:
Time (min)	Step (s)	Value (µRIU)
0.000000	n.a.	-0.029125
0.016667	1	-0.030750
0.033333	1	-0.031875
0.050000	1	-0.032250
0.066667	1	-0.033125
0.083333	1	-0.032875
0.100000	1	-0.034125
0.116667	1	-0.034625
0.133333	1	-0.034375
0.150000	1	-0.034625
0.166667	1	-0.035500
0.183333	1	-0.035250
0.200000	1	-0.035500
0.216667	1	-0.035500
0.233333	1	-0.035000
0.250000	1	-0.034375
0.266667	1	-0.033625
0.283333	1	-0.032625
0.300000	1	-0.032000
0.316667	1	-0.031375
0.333333	1	-0.030125
0.350000	1	-0.029125
0.366667	1	-0.028875
0.383333	1	-0.028750
0.400000	1	-0.028625
0.416667	1	-0.027500
0.433333	1	-0.026875
0.450000	1	-0.024625
0.466667	1	-0.022250
0.483333	1	-0.019750
0.500000	1	-0.017500
0.516667	1	-0.015875
0.533333	1	-0.014500
0.550000	1	-0.014375
0.566667	1	-0.015125
0.583333	1	-0.016375
0.600000	1	-0.018500
0.616667	1	-0.021000
0.633333	1	-0.022875
0.650000	1	-0.023500
0.666667	1	-0.024000
0.683333	1	-0.024000
0.700000	1	-0.024625
0.716667	1	-0.024125
0.733333	1	-0.024500
0.750000	1	-0.024125
0.766667	1	-0.024375
0.783333	1	-0.023500
0.800000	1	-0.023125
0.816667	1	-0.022250
0.833333	1	-0.021875
0.850000	1	-0.020125
0.866667	1	-0.019375
0.883333	1	-0.018125
0.900000	1	-0.017500
0.916667	1	-0.015875
0.933333	1	-0.014750
0.950000	1	-0.013250
0.966667	1	-0.012250
0.983333	1	-0.011500
1.000000	1	-0.010125
1.016667	1	-0.008750
1.033333	1	-0.007250
1.050000	1	-0.006625
1.066667	1	-0.004625
1.083333	1	-0.004125
1.100000	1	-0.003375
1.116667	1	-0.003000
1.133333	1	-0.002375
1.150000	1	-0.002375
1.166667	1	-0.001875
1.183333	1	-0.001875
1.200000	1	-0.002000
1.216667	1	-0.001750
1.233333	1	-0.002000
1.250000	1	-0.002375
1.266667	1	-0.002750
1.283333	1	-0.003625
1.300000	1	-0.004375
1.316667	1	-0.005750
1.333333	1	-0.006625
1.350000	1	-0.007500
1.366667	1	-0.008625
1.383333	1	-0.009875
1.400000	1	-0.011125
1.416667	1	-0.011750
1.433333	1	-0.013125
1.450000	1	-0.014375
1.466667	1	-0.015500
1.483333	1	-0.016125
1.500000	1	-0.017250
1.516667	1	-0.017750
1.533333	1	-0.018625
1.550000	1	-0.018875
1.566667	1	-0.019625
1.583333	1	-0.019750
1.600000	1	-0.020500
1.616667	1	-0.020875
1.633333	1	-0.021875
1.650000	1	-0.021500
1.666667	1	-0.021750
1.683333	1	-0.020625
1.700000	1	-0.020750
1.716667	1	-0.020750
1.733333	1	-0.021000
1.750000	1	-0.020750
1.766667	1	-0.019875
1.783333	1	-0.020125
1.800000	1	-0.020000
1.816667	1	-0.019625
1.833333	1	-0.019000
1.850000	1	-0.018250
1.866667	1	-0.017750
1.883333	1	-0.017375
1.900000	1	-0.017125
1.916667	1	-0.016375
1.933333	1	-0.016000
1.950000	1	-0.015875
1.966667	1	-0.016375
1.983333	1	-0.015750
2.000000	1	-0.015250
2.016667	1	-0.013875
2.033333	1	-0.013500
2.050000	1	-0.013250
2.066667	1	-0.013500
2.083333	1	-0.013375
2.100000	1	-0.013250
2.116667	1	-0.013125
2.133333	1	-0.013500
2.150000	1	-0.013625
2.166667	1	-0.014375
2.183333	1	-0.014625
2.200000	1	-0.014750
2.216667	1	-0.015250
2.233333	1	-0.015750
2.250000	1	-0.016125
2.266667	1	-0.016750
2.283333	1	-0.017125
2.300000	1	-0.018000
2.316667	1	-0.019250
2.333333	1	-0.020250
2.350000	1	-0.021250
2.366667	1	-0.023000
2.383333	1	-0.024625
2.400000	1	-0.025875
2.416667	1	-0.026875
2.433333	1	-0.028125
2.450000	1	-0.029250
2.466667	1	-0.030625
2.483333	1	-0.032750
2.500000	1	-0.034250
2.516667	1	-0.035625
2.533333	1	-0.036500
2.550000	1	-0.037750
2.566667	1	-0.038250
2.583333	1	-0.039125
2.600000	1	-0.040000
2.616667	1	-0.040750
2.633333	1	-0.041125
2.650000	1	-0.042375
2.666667	1	-0.042375
2.683333	1	-0.042125
2.700000	1	-0.042500
2.716667	1	-0.042500
2.733333	1	-0.042375
2.750000	1	-0.042250
2.766667	1	-0.042625
2.783333	1	-0.042500
2.800000	1	-0.043125
2.816667	1	-0.042250
2.833333	1	-0.041000
2.850000	1	-0.041125
2.866667	1	-0.040750
2.883333	1	-0.040375
2.900000	1	-0.040125
2.916667	1	-0.039250
2.933333	1	-0.039250
2.950000	1	-0.038500
2.966667	1	-0.038375
2.983333	1	-0.037875
3.000000	1	-0.037375
3.016667	1	-0.036875
3.033333	1	-0.036625
3.050000	1	-0.036500
3.066667	1	-0.035875
3.083333	1	-0.035250
3.100000	1	-0.034750
3.116667	1	-0.035125
3.133333	1	-0.034750
3.150000	1	-0.034625
3.166667	1	-0.034625
3.183333	1	-0.034750
3.200000	1	-0.034250
3.216667	1	-0.034375
3.233333	1	-0.033750
3.250000	1	-0.033500
3.266667	1	-0.033250
3.283333	1	-0.034000
3.300000	1	-0.033875
3.316667	1	-0.033875
3.333333	1	-0.033375
3.350000	1	-0.032875
3.366667	1	-0.032625
3.383333	1	-0.032000
3.400000	1	-0.031250
3.416667	1	-0.030375
3.433333	1	-0.029500
3.450000	1	-0.028500
3.466667	1	-0.027625
3.483333	1	-0.026125
3.500000	1	-0.025125
3.516667	1	-0.023125
3.533333	1	-0.022250
3.550000	1	-0.021375
3.566667	1	-0.020125
3.583333	1	-0.018750
3.600000	1	-0.018000
3.616667	1	-0.017000
3.633333	1	-0.015625
3.650000	1	-0.014375
3.666667	1	-0.013750
3.683333	1	-0.012500
3.700000	1	-0.011875
3.716667	1	-0.011250
3.733333	1	-0.010375
3.750000	1	-0.010000
3.766667	1	-0.008875
3.783333	1	-0.008125
3.800000	1	-0.007375
3.816667	1	-0.006750
3.833333	1	-0.005375
3.850000	1	-0.004625
3.866667	1	-0.004125
3.883333	1	-0.003875
3.900000	1	-0.003625
3.916667	1	-0.003500
3.933333	1	-0.003625
3.950000	1	-0.003500
3.966667	1	-0.003000
3.983333	1	-0.003375
4.000000	1	-0.003250
4.016667	1	-0.003750
4.033333	1	-0.003750
4.050000	1	-0.003875
4.066667	1	-0.004125
4.083333	1	-0.004375
4.100000	1	-0.004250
4.116667	1	-0.004625
4.133333	1	-0.004750
4.150000	1	-0.004375
4.166667	1	-0.005125
4.183333	1	-0.004625
4.200000	1	-0.005125
4.216667	1	-0.005125
4.233333	1	-0.004875
4.250000	1	-0.005375
4.266667	1	-0.005375
4.283333	1	-0.006375
4.300000	1	-0.006375
4.316667	1	-0.006500
4.333333	1	-0.006375
4.350000	1	-0.006750
4.366667	1	-0.007375
4.383333	1	-0.007125
4.400000	1	-0.007375
4.416667	1	-0.007750
4.433333	1	-0.007875
4.450000	1	-0.007375
4.466667	1	-0.007500
4.483333	1	-0.007375
4.500000	1	-0.006000
4.516667	1	-0.005875
4.533333	1	-0.005750
4.550000	1	-0.005000
4.566667	1	-0.004375
4.583333	1	-0.004000
4.600000	1	-0.002875
4.616667	1	-0.002125
4.633333	1	-0.002000
4.650000	1	-0.000125
4.666667	1	0.001500
4.683333	1	0.002750
4.700000	1	0.003875
4.716667	1	0.005375
4.733333	1	0.007375
4.750000	1	0.009500
4.766667	1	0.011500
4.783333	1	0.013500
4.800000	1	0.015375
4.816667	1	0.017750
4.833333	1	0.020750
4.850000	1	0.023250
4.866667	1	0.025625
4.883333	1	0.027750
4.900000	1	0.030000
4.916667	1	0.032875
4.933333	1	0.036250
4.950000	1	0.039125
4.966667	1	0.042000
4.983333	1	0.045125
5.000000	1	0.048625
5.016667	1	0.052500
5.033333	1	0.056375
5.050000	1	0.061125
5.066667	1	0.064500
5.083333	1	0.068500
5.100000	1	0.072750
5.116667	1	0.076125
5.133333	1	0.080125
5.150000	1	0.084750
5.166667	1	0.089875
5.183333	1	0.094125
5.200000	1	0.098625
5.216667	1	0.103125
5.233333	1	0.108000
5.250000	1	0.112625
5.266667	1	0.118375
5.283333	1	0.123250
5.300000	1	0.128750
5.316667	1	0.134375
5.333333	1	0.139875
5.350000	1	0.144750
5.366667	1	0.149750
5.383333	1	0.154000
5.400000	1	0.159625
5.416667	1	0.164250
5.433333	1	0.168625
5.450000	1	0.173000
5.466667	1	0.177750
5.483333	1	0.181750
5.500000	1	0.185625
5.516667	1	0.189250
5.533333	1	0.192500
5.550000	1	0.195625
5.566667	1	0.198875
5.583333	1	0.201875
5.600000	1	0.204750
5.616667	1	0.207500
5.633333	1	0.209000
5.650000	1	0.211000
5.666667	1	0.212750
5.683333	1	0.214250
5.700000	1	0.215500
5.716667	1	0.216000
5.733333	1	0.216500
5.750000	1	0.217375
5.766667	1	0.217750
5.783333	1	0.217875
5.800000	1	0.218125
5.816667	1	0.218125
5.833333	1	0.217875
5.850000	1	0.217125
5.866667	1	0.215250
5.883333	1	0.213875
5.900000	1	0.212250
5.916667	1	0.210375
5.933333	1	0.208500
5.950000	1	0.206000
5.966667	1	0.203125
5.983333	1	0.200375
6.000000	1	0.198125
6.016667	1	0.195625
6.033333	1	0.192750
6.050000	1	0.189750
6.066667	1	0.187000
6.083333	1	0.184000
6.100000	1	0.181125
6.116667	1	0.177125
6.133333	1	0.173625
6.150000	1	0.170750
6.166667	1	0.167000
6.183333	1	0.163125
6.200000	1	0.159250
6.216667	1	0.156125
6.233333	1	0.152875
6.250000	1	0.149750
6.266667	1	0.146250
6.283333	1	0.143125
6.300000	1	0.139375
6.316667	1	0.136000
6.333333	1	0.133000
6.350000	1	0.129500
6.366667	1	0.126375
6.383333	1	0.123750
6.400000	1	0.120750
6.416667	1	0.118375
6.433333	1	0.116250
6.450000	1	0.113625
6.466667	1	0.110500
6.483333	1	0.108000
6.500000	1	0.106000
6.516667	1	0.103625
6.533333	1	0.101250
6.550000	1	0.099000
6.566667	1	0.097250
6.583333	1	0.095375
6.600000	1	0.093625
6.616667	1	0.092375
6.633333	1	0.090750
6.650000	1	0.089375
6.666667	1	0.088625
6.683333	1	0.086750
6.700000	1	0.085250
6.716667	1	0.083625
6.733333	1	0.082625
6.750000	1	0.081875
6.766667	1	0.081125
6.783333	1	0.080250
6.800000	1	0.079125
6.816667	1	0.077750
6.833333	1	0.076625
6.850000	1	0.075750
6.866667	1	0.074500
6.883333	1	0.073250
6.900000	1	0.072375
6.916667	1	0.071000
6.933333	1	0.070000
6.950000	1	0.069000
6.966667	1	0.067875
6.983333	1	0.067250
7.000000	1	0.065750
7.016667	1	0.064125
7.033333	1	0.062625
7.050000	1	0.061875
7.066667	1	0.060625
7.083333	1	0.060375
7.100000	1	0.059250
7.116667	1	0.058375
7.133333	1	0.057750
7.150000	1	0.057250
7.166667	1	0.057375
7.183333	1	0.057750
7.200000	1	0.057750
7.216667	1	0.058125
7.233333	1	0.058375
7.250000	1	0.059375
7.266667	1	0.060000
7.283333	1	0.061125
7.300000	1	0.063250
7.316667	1	0.064750
7.333333	1	0.066375
7.350000	1	0.069000
7.366667	1	0.072000
7.383333	1	0.075000
7.400000	1	0.077250
7.416667	1	0.079500
7.433333	1	0.082375
7.450000	1	0.084375
7.466667	1	0.087250
7.483333	1	0.089250
7.500000	1	0.091875
7.516667	1	0.094250
7.533333	1	0.096750
7.550000	1	0.097875
7.566667	1	0.099000
7.583333	1	0.100500
7.600000	1	0.101750
7.616667	1	0.102500
7.633333	1	0.102625
7.650000	1	0.102000
7.666667	1	0.102125
7.683333	1	0.102250
7.700000	1	0.101750
7.716667	1	0.101375
7.733333	1	0.100250
7.750000	1	0.098625
7.766667	1	0.096750
7.783333	1	0.094875
7.800000	1	0.092500
7.816667	1	0.090125
7.833333	1	0.088000
7.850000	1	0.085250
7.866667	1	0.081875
7.883333	1	0.078500
7.900000	1	0.075750
7.916667	1	0.073125
7.933333	1	0.070250
7.950000	1	0.067750
7.966667	1	0.064500
7.983333	1	0.060875
8.000000	1	0.057625
8.016667	1	0.054500
8.033333	1	0.051500
8.050000	1	0.048750
8.066667	1	0.045250
8.083333	1	0.042250
8.100000	1	0.039250
8.116667	1	0.036375
8.133333	1	0.033875
8.150000	1	0.031250
8.166667	1	0.029125
8.183333	1	0.026125
8.200000	1	0.024125
8.216667	1	0.021375
8.233333	1	0.018625
8.250000	1	0.016500
8.266667	1	0.014125
8.283333	1	0.011500
8.300000	1	0.010125
8.316667	1	0.008375
8.333333	1	0.006375
8.350000	1	0.003750
8.366667	1	0.001625
8.383333	1	-0.000125
8.400000	1	-0.001875
8.416667	1	-0.004125
8.433333	1	-0.006125
8.450000	1	-0.008625
8.466667	1	-0.010250
8.483333	1	-0.012500
8.500000	1	-0.015000
8.516667	1	-0.017125
8.533333	1	-0.018875
8.550000	1	-0.020875
8.566667	1	-0.022875
8.583333	1	-0.025500
8.600000	1	-0.027875
8.616667	1	-0.030000
8.633333	1	-0.032000
8.650000	1	-0.034000
8.666667	1	-0.035125
8.683333	1	-0.036750
8.700000	1	-0.038125
8.716667	1	-0.039125
8.733333	1	-0.040625
8.750000	1	-0.042625
8.766667	1	-0.043375
8.783333	1	-0.043750
8.800000	1	-0.044250
8.816667	1	-0.045000
8.833333	1	-0.045375
8.850000	1	-0.046000
8.866667	1	-0.046000
8.883333	1	-0.045875
8.900000	1	-0.045375
8.916667	1	-0.044875
8.933333	1	-0.044250
8.950000	1	-0.044125
8.966667	1	-0.042750
8.983333	1	-0.041375
9.000000	1	-0.040500
9.016667	1	-0.039750
9.033333	1	-0.039625
9.050000	1	-0.038875
9.066667	1	-0.037500
9.083333	1	-0.037375
9.100000	1	-0.036125
9.116667	1	-0.034375
9.133333	1	-0.033125
9.150000	1	-0.032375
9.166667	1	-0.031125
9.183333	1	-0.030375
9.200000	1	-0.029750
9.216667	1	-0.029625
9.233333	1	-0.028375
9.250000	1	-0.027750
9.266667	1	-0.027125
9.283333	1	-0.025875
9.300000	1	-0.025375
9.316667	1	-0.025625
9.333333	1	-0.025000
9.350000	1	-0.024750
9.366667	1	-0.024625
9.383333	1	-0.024375
9.400000	1	-0.023250
9.416667	1	-0.023000
9.433333	1	-0.023125
9.450000	1	-0.022625
9.466667	1	-0.022875
9.483333	1	-0.022125
9.500000	1	-0.021625
9.516667	1	-0.021375
9.533333	1	-0.021000
9.550000	1	-0.021250
9.566667	1	-0.021375
9.583333	1	-0.021625
9.600000	1	-0.021750
9.616667	1	-0.021625
9.633333	1	-0.022000
9.650000	1	-0.021625
9.666667	1	-0.022125
9.683333	1	-0.021250
9.700000	1	-0.021500
9.716667	1	-0.021125
9.733333	1	-0.021375
9.750000	1	-0.021250
9.766667	1	-0.022125
9.783333	1	-0.022125
9.800000	1	-0.022750
9.816667	1	-0.023125
9.833333	1	-0.023500
9.850000	1	-0.023375
9.866667	1	-0.023375
9.883333	1	-0.024125
9.900000	1	-0.024750
9.916667	1	-0.024750
9.933333	1	-0.025625
9.950000	1	-0.026250
9.966667	1	-0.027000
9.983333	1	-0.027375
10.000000	1	-0.027375
10.016667	1	-0.027625
10.033333	1	-0.027000
10.050000	1	-0.026125
10.066667	1	-0.025125
10.083333	1	-0.024000
10.100000	1	-0.021750
10.116667	1	-0.017375
10.133333	1	-0.012750
10.150000	1	-0.007750
10.166667	1	0.000000
10.183333	1	0.008625
10.200000	1	0.019375
10.216667	1	0.031000
10.233333	1	0.044875
10.250000	1	0.060625
10.266667	1	0.078500
10.283333	1	0.099250
10.300000	1	0.122250
10.316667	1	0.148375
10.333333	1	0.177875
10.350000	1	0.209625
10.366667	1	0.244500
10.383333	1	0.280500
10.400000	1	0.317250
10.416667	1	0.349750
10.433333	1	0.370250
10.450000	1	0.369750
10.466667	1	0.341500
10.483333	1	0.285250
10.500000	1	0.212875
10.516667	1	0.157500
10.533333	1	0.174625
10.550000	1	0.339625
10.566667	1	0.739875
10.583333	1	1.465250
10.600000	1	2.597125
10.616667	1	4.203250
10.633333	1	6.331375
10.650000	1	9.007375
10.666667	1	12.241500
10.683333	1	16.025000
10.700000	1	20.329375
10.716667	1	25.097750
10.733333	1	30.232625
10.750000	1	35.587750
10.766667	1	40.938125
10.783333	1	45.983250
10.800000	1	50.336625
10.816667	1	53.560500
10.833333	1	55.247500
10.850000	1	55.139500
10.866667	1	53.217750
10.883333	1	49.724000
10.900000	1	45.097000
10.916667	1	39.855125
10.933333	1	34.473125
10.950000	1	29.311875
10.966667	1	24.600500
10.983333	1	20.456625
11.000000	1	16.913500
11.016667	1	13.951625
11.033333	1	11.523625
11.050000	1	9.563375
11.066667	1	7.996750
11.083333	1	6.751250
11.100000	1	5.763500
11.116667	1	4.979000
11.133333	1	4.352375
11.150000	1	3.846750
11.166667	1	3.436750
11.183333	1	3.099500
11.200000	1	2.818125
11.216667	1	2.581625
11.233333	1	2.380375
11.250000	1	2.208500
11.266667	1	2.059625
11.283333	1	1.930125
11.300000	1	1.816875
11.316667	1	1.717125
11.333333	1	1.629125
11.350000	1	1.551500
11.366667	1	1.483250
11.383333	1	1.423375
11.400000	1	1.370000
11.416667	1	1.323500
11.433333	1	1.281625
11.450000	1	1.245125
11.466667	1	1.212125
11.483333	1	1.184000
11.500000	1	1.159125
11.516667	1	1.138125
11.533333	1	1.120250
11.550000	1	1.104250
11.566667	1	1.090875
11.583333	1	1.079500
11.600000	1	1.070625
11.616667	1	1.062000
11.633333	1	1.053500
11.650000	1	1.046125
11.666667	1	1.038750
11.683333	1	1.032000
11.700000	1	1.025500
11.716667	1	1.019500
11.733333	1	1.013625
11.750000	1	1.008250
11.766667	1	1.003250
11.783333	1	0.999250
11.800000	1	0.996125
11.816667	1	0.993750
11.833333	1	0.992875
11.850000	1	0.992250
11.866667	1	0.991750
11.883333	1	0.991375
11.900000	1	0.992500
11.916667	1	0.994125
11.933333	1	0.995875
11.950000	1	0.998250
11.966667	1	1.001000
11.983333	1	1.005250
12.000000	1	1.009500
12.016667	1	1.014625
12.033333	1	1.019875
12.050000	1	1.026250
12.066667	1	1.031375
12.083333	1	1.037125
12.100000	1	1.043375
12.116667	1	1.049625
12.133333	1	1.057250
12.150000	1	1.063875
12.166667	1	1.070750
12.183333	1	1.078625
12.200000	1	1.086750
12.216667	1	1.095375
12.233333	1	1.105125
12.250000	1	1.115875
12.266667	1	1.128375
12.283333	1	1.142500
12.300000	1	1.158625
12.316667	1	1.177625
12.333333	1	1.200625
12.350000	1	1.228250
12.366667	1	1.263750
12.383333	1	1.310500
12.400000	1	1.372250
12.416667	1	1.456250
12.433333	1	1.568125
12.450000	1	1.715250
12.466667	1	1.908000
12.483333	1	2.151125
12.500000	1	2.452250
12.516667	1	2.813875
12.533333	1	3.236375
12.550000	1	3.716625
12.566667	1	4.244875
12.583333	1	4.810875
12.600000	1	5.400125
12.616667	1	5.996375
12.633333	1	6.584125
12.650000	1	7.149750
12.666667	1	7.679750
12.683333	1	8.166500
12.700000	1	8.602625
12.716667	1	8.983250
12.733333	1	9.302750
12.750000	1	9.556750
12.766667	1	9.734125
12.783333	1	9.821875
12.800000	1	9.803625
12.816667	1	9.668125
12.833333	1	9.413375
12.850000	1	9.048875
12.866667	1	8.600125
12.883333	1	8.097375
12.900000	1	7.571750
12.916667	1	7.046125
12.933333	1	6.536500
12.950000	1	6.051000
12.966667	1	5.595375
12.983333	1	5.171125
13.000000	1	4.782375
13.016667	1	4.430750
13.033333	1	4.115500
13.050000	1	3.836750
13.066667	1	3.592875
13.083333	1	3.380125
13.100000	1	3.194375
13.116667	1	3.033000
13.133333	1	2.891625
13.150000	1	2.768000
13.166667	1	2.658000
13.183333	1	2.560500
13.200000	1	2.472875
13.216667	1	2.393000
13.233333	1	2.320125
13.250000	1	2.253625
13.266667	1	2.191250
13.283333	1	2.133375
13.300000	1	2.079500
13.316667	1	2.027500
13.333333	1	1.979875
13.350000	1	1.935375
13.366667	1	1.893750
13.383333	1	1.855125
13.400000	1	1.819125
13.416667	1	1.787125
13.433333	1	1.757750
13.450000	1	1.732625
13.466667	1	1.710625
13.483333	1	1.692625
13.500000	1	1.677875
13.516667	1	1.666250
13.533333	1	1.657625
13.550000	1	1.651375
13.566667	1	1.646250
13.583333	1	1.641500
13.600000	1	1.635250
13.616667	1	1.627625
13.633333	1	1.618500
13.650000	1	1.606125
13.666667	1	1.590375
13.683333	1	1.571625
13.700000	1	1.549875
13.716667	1	1.525750
13.733333	1	1.500875
13.750000	1	1.474500
13.766667	1	1.448250
13.783333	1	1.422250
13.800000	1	1.396750
13.816667	1	1.371875
13.833333	1	1.349625
13.850000	1	1.328000
13.866667	1	1.307375
13.883333	1	1.288250
13.900000	1	1.270250
13.916667	1	1.253500
13.933333	1	1.237875
13.950000	1	1.222875
13.966667	1	1.209250
13.983333	1	1.196375
14.000000	1	1.183750
14.016667	1	1.172250
14.033333	1	1.161125
14.050000	1	1.151000
14.066667	1	1.140500
14.083333	1	1.131250
14.100000	1	1.122000
14.116667	1	1.112625
14.133333	1	1.104250
14.150000	1	1.096125
14.166667	1	1.089125
14.183333	1	1.082500
14.200000	1	1.076375
14.216667	1	1.071250
14.233333	1	1.067625
14.250000	1	1.065375
14.266667	1	1.064750
14.283333	1	1.064625
14.300000	1	1.065375
14.316667	1	1.067625
14.333333	1	1.072250
14.350000	1	1.078000
14.366667	1	1.086500
14.383333	1	1.096875
14.400000	1	1.109625
14.416667	1	1.125500
14.433333	1	1.148125
14.450000	1	1.179500
14.466667	1	1.226500
14.483333	1	1.295875
14.500000	1	1.401750
14.516667	1	1.563375
14.533333	1	1.805125
14.550000	1	2.159125
14.566667	1	2.668375
14.583333	1	3.381375
14.600000	1	4.352625
14.616667	1	5.642625
14.633333	1	7.314125
14.650000	1	9.420375
14.666667	1	11.999750
14.683333	1	15.068875
14.700000	1	18.609875
14.716667	1	22.566250
14.733333	1	26.845375
14.750000	1	31.314625
14.766667	1	35.808250
14.783333	1	40.134375
14.800000	1	44.098250
14.816667	1	47.514625
14.833333	1	50.223250
14.850000	1	52.097625
14.866667	1	53.063875
14.883333	1	53.099625
14.900000	1	52.242375
14.916667	1	50.576000
14.933333	1	48.227125
14.950000	1	45.343250
14.966667	1	42.082375
14.983333	1	38.601375
15.000000	1	35.038750
15.016667	1	31.507625
15.033333	1	28.101125
15.050000	1	24.886750
15.066667	1	21.910875
15.083333	1	19.199125
15.100000	1	16.759375
15.116667	1	14.589250
15.133333	1	12.675500
15.150000	1	10.999125
15.166667	1	9.538250
15.183333	1	8.272375
15.200000	1	7.179125
15.216667	1	6.237875
15.233333	1	5.430500
15.250000	1	4.741125
15.266667	1	4.155875
15.283333	1	3.663375
15.300000	1	3.252000
15.316667	1	2.912625
15.333333	1	2.636375
15.350000	1	2.414625
15.366667	1	2.239500
15.383333	1	2.104000
15.400000	1	2.000500
15.416667	1	1.924125
15.433333	1	1.867500
15.450000	1	1.825500
15.466667	1	1.791875
15.483333	1	1.763375
15.500000	1	1.735375
15.516667	1	1.706875
15.533333	1	1.675375
15.550000	1	1.639875
15.566667	1	1.601250
15.583333	1	1.560625
15.600000	1	1.517000
15.616667	1	1.473250
15.633333	1	1.428500
15.650000	1	1.385000
15.666667	1	1.344500
15.683333	1	1.306500
15.700000	1	1.271625
15.716667	1	1.238750
15.733333	1	1.208500
15.750000	1	1.180375
15.766667	1	1.155500
15.783333	1	1.132250
15.800000	1	1.111125
15.816667	1	1.092125
15.833333	1	1.075500
15.850000	1	1.060125
15.866667	1	1.045750
15.883333	1	1.033625
15.900000	1	1.023250
15.916667	1	1.014875
15.933333	1	1.007000
15.950000	1	1.000625
15.966667	1	0.996000
15.983333	1	0.991875
16.000000	1	0.988000
16.016667	1	0.985500
16.033333	1	0.982375
16.050000	1	0.980250
16.066667	1	0.977750
16.083333	1	0.975500
16.100000	1	0.973250
16.116667	1	0.970375
16.133333	1	0.967500
16.150000	1	0.964500
16.166667	1	0.960750
16.183333	1	0.956625
16.200000	1	0.951875
16.216667	1	0.947000
16.233333	1	0.940625
16.250000	1	0.933500
16.266667	1	0.926875
16.283333	1	0.919125
16.300000	1	0.912125
16.316667	1	0.904250
16.333333	1	0.897500
16.350000	1	0.890500
16.366667	1	0.884750
16.383333	1	0.879875
16.400000	1	0.876375
16.416667	1	0.874125
16.433333	1	0.873500
16.450000	1	0.874125
16.466667	1	0.875500
16.483333	1	0.878500
16.500000	1	0.881250
16.516667	1	0.884375
16.533333	1	0.887500
16.550000	1	0.890250
16.566667	1	0.891625
16.583333	1	0.893375
16.600000	1	0.893375
16.616667	1	0.893250
16.633333	1	0.892000
16.650000	1	0.890250
16.666667	1	0.889375
16.683333	1	0.888625
16.700000	1	0.889750
16.716667	1	0.891750
16.733333	1	0.896125
16.750000	1	0.902250
16.766667	1	0.908625
16.783333	1	0.916375
16.800000	1	0.925625
16.816667	1	0.935250
16.833333	1	0.945000
16.850000	1	0.953875
16.866667	1	0.961375
16.883333	1	0.968250
16.900000	1	0.973625
16.916667	1	0.977000
16.933333	1	0.978000
16.950000	1	0.977125
16.966667	1	0.975000
16.983333	1	0.970750
17.000000	1	0.965125
17.016667	1	0.958750
17.033333	1	0.950500
17.050000	1	0.941875
17.066667	1	0.933875
17.083333	1	0.925500
17.100000	1	0.917625
17.116667	1	0.910375
17.133333	1	0.903750
17.150000	1	0.897500
17.166667	1	0.892250
17.183333	1	0.888125
17.200000	1	0.884750
17.216667	1	0.882125
17.233333	1	0.880500
17.250000	1	0.880125
17.266667	1	0.880375
17.283333	1	0.880750
17.300000	1	0.882750
17.316667	1	0.885375
17.333333	1	0.889000
17.350000	1	0.893000
17.366667	1	0.897500
17.383333	1	0.903000
17.400000	1	0.908375
17.416667	1	0.913375
17.433333	1	0.917750
17.450000	1	0.920875
17.466667	1	0.923625
17.483333	1	0.925250
17.500000	1	0.925750
17.516667	1	0.925875
17.533333	1	0.923875
17.550000	1	0.920250
17.566667	1	0.916500
17.583333	1	0.911500
17.600000	1	0.904750
17.616667	1	0.897625
17.633333	1	0.889500
17.650000	1	0.881750
17.666667	1	0.872750
17.683333	1	0.863500
17.700000	1	0.853625
17.716667	1	0.843875
17.733333	1	0.835250
17.750000	1	0.826125
17.766667	1	0.817500
17.783333	1	0.808500
17.800000	1	0.801000
17.816667	1	0.793875
17.833333	1	0.787375
17.850000	1	0.781125
17.866667	1	0.775625
17.883333	1	0.769500
17.900000	1	0.764000
17.916667	1	0.758000
17.933333	1	0.752125
17.950000	1	0.746000
17.966667	1	0.739750
17.983333	1	0.733750
18.000000	1	0.727875
18.016667	1	0.721250
18.033333	1	0.714375
18.050000	1	0.707875
18.066667	1	0.701250
18.083333	1	0.694125
18.100000	1	0.688500
18.116667	1	0.683125
18.133333	1	0.677875
18.150000	1	0.673875
18.166667	1	0.670625
18.183333	1	0.667500
18.200000	1	0.664125
18.216667	1	0.661750
18.233333	1	0.659250
18.250000	1	0.656875
18.266667	1	0.654250
18.283333	1	0.652750
18.300000	1	0.650875
18.316667	1	0.649625
18.333333	1	0.647625
18.350000	1	0.645625
18.366667	1	0.643875
18.383333	1	0.642625
18.400000	1	0.641750
18.416667	1	0.641500
18.433333	1	0.642375
18.450000	1	0.643250
18.466667	1	0.646125
18.483333	1	0.649250
18.500000	1	0.653750
18.516667	1	0.658625
18.533333	1	0.663875
18.550000	1	0.669750
18.566667	1	0.677375
18.583333	1	0.685375
18.600000	1	0.693375
18.616667	1	0.700750
18.633333	1	0.708125
18.650000	1	0.715250
18.666667	1	0.721750
18.683333	1	0.727625
18.700000	1	0.732375
18.716667	1	0.736000
18.733333	1	0.739000
18.750000	1	0.740250
18.766667	1	0.740375
18.783333	1	0.739750
18.800000	1	0.737125
18.816667	1	0.733375
18.833333	1	0.728125
18.850000	1	0.721125
18.866667	1	0.712625
18.883333	1	0.702500
18.900000	1	0.691500
18.916667	1	0.679375
18.933333	1	0.666750
18.950000	1	0.653250
18.966667	1	0.639625
18.983333	1	0.625750
19.000000	1	0.612125
19.016667	1	0.598000
19.033333	1	0.585250
19.050000	1	0.573000
19.066667	1	0.562750
19.083333	1	0.554250
19.100000	1	0.549500
19.116667	1	0.547625
19.133333	1	0.549375
19.150000	1	0.557625
19.166667	1	0.572750
19.183333	1	0.595375
19.200000	1	0.628750
19.216667	1	0.674000
19.233333	1	0.731250
19.250000	1	0.803875
19.266667	1	0.892625
19.283333	1	0.998250
19.300000	1	1.120875
19.316667	1	1.259500
19.333333	1	1.415000
19.350000	1	1.583250
19.366667	1	1.762125
19.383333	1	1.948375
19.400000	1	2.136750
19.416667	1	2.323250
19.433333	1	2.501375
19.450000	1	2.666375
19.466667	1	2.813125
19.483333	1	2.937375
19.500000	1	3.035750
19.516667	1	3.104750
19.533333	1	3.143625
19.550000	1	3.153000
19.566667	1	3.132500
19.583333	1	3.084125
19.600000	1	3.011375
19.616667	1	2.917750
19.633333	1	2.805750
19.650000	1	2.680625
19.666667	1	2.545875
19.683333	1	2.405000
19.700000	1	2.261500
19.716667	1	2.118875
19.733333	1	1.979250
19.750000	1	1.844125
19.766667	1	1.715625
19.783333	1	1.593875
19.800000	1	1.479250
19.816667	1	1.373750
19.833333	1	1.276750
19.850000	1	1.189125
19.866667	1	1.110250
19.883333	1	1.041125
19.900000	1	0.981875
19.916667	1	0.934750
19.933333	1	0.899875
19.950000	1	0.878125
19.966667	1	0.871625
19.983333	1	0.882125
20.000000	1	0.911625
20.016667	1	0.961875
20.033333	1	1.034875
20.050000	1	1.133500
20.066667	1	1.258250
20.083333	1	1.410000
20.100000	1	1.588125
20.116667	1	1.792125
20.133333	1	2.019875
20.150000	1	2.266500
20.166667	1	2.527500
20.183333	1	2.797875
20.200000	1	3.069875
20.216667	1	3.335625
20.233333	1	3.586250
20.250000	1	3.812750
20.266667	1	4.009375
20.283333	1	4.168500
20.300000	1	4.285000
20.316667	1	4.356750
20.333333	1	4.380875
20.350000	1	4.359375
20.366667	1	4.292125
20.383333	1	4.184750
20.400000	1	4.042000
20.416667	1	3.869875
20.433333	1	3.674875
20.450000	1	3.464875
20.466667	1	3.246625
20.483333	1	3.027000
20.500000	1	2.812125
20.516667	1	2.607000
20.533333	1	2.415375
20.550000	1	2.242750
20.566667	1	2.091625
20.583333	1	1.964125
20.600000	1	1.862750
20.616667	1	1.789250
20.633333	1	1.743500
20.650000	1	1.726625
20.666667	1	1.737625
20.683333	1	1.776000
20.700000	1	1.839000
20.716667	1	1.924625
20.733333	1	2.029625
20.750000	1	2.150375
20.766667	1	2.281000
20.783333	1	2.416375
20.800000	1	2.550625
20.816667	1	2.678375
20.833333	1	2.792875
20.850000	1	2.890750
20.866667	1	2.967500
20.883333	1	3.018875
20.900000	1	3.043375
20.916667	1	3.041250
20.933333	1	3.011250
20.950000	1	2.955625
20.966667	1	2.875750
20.983333	1	2.774375
21.000000	1	2.657000
21.016667	1	2.525625
21.033333	1	2.385375
21.050000	1	2.239500
21.066667	1	2.092625
21.083333	1	1.945750
21.100000	1	1.803375
21.116667	1	1.666500
21.133333	1	1.536625
21.150000	1	1.414500
21.166667	1	1.301375
21.183333	1	1.196875
21.200000	1	1.101125
21.216667	1	1.013375
21.233333	1	0.935500
21.250000	1	0.864500
21.266667	1	0.801250
21.283333	1	0.744250
21.300000	1	0.693375
21.316667	1	0.647875
21.333333	1	0.608250
21.350000	1	0.572500
21.366667	1	0.541250
21.383333	1	0.513125
21.400000	1	0.489250
21.416667	1	0.467500
21.433333	1	0.449000
21.450000	1	0.433250
21.466667	1	0.419750
21.483333	1	0.409875
21.500000	1	0.402000
21.516667	1	0.396750
21.533333	1	0.393125
21.550000	1	0.393500
21.566667	1	0.396375
21.583333	1	0.403000
21.600000	1	0.413000
21.616667	1	0.426500
21.633333	1	0.444625
21.650000	1	0.467875
21.666667	1	0.495250
21.683333	1	0.528250
21.700000	1	0.566375
21.716667	1	0.609625
21.733333	1	0.657250
21.750000	1	0.710125
21.766667	1	0.765625
21.783333	1	0.824625
21.800000	1	0.886375
21.816667	1	0.948000
21.833333	1	1.010500
21.850000	1	1.070125
21.866667	1	1.127875
21.883333	1	1.181125
21.900000	1	1.228500
21.916667	1	1.269500
21.933333	1	1.303625
21.950000	1	1.329750
21.966667	1	1.347500
21.983333	1	1.357250
22.000000	1	1.357750
22.016667	1	1.350500
22.033333	1	1.335375
22.050000	1	1.313375
22.066667	1	1.285500
22.083333	1	1.252875
22.100000	1	1.216500
22.116667	1	1.176875
22.133333	1	1.135375
22.150000	1	1.092000
22.166667	1	1.048000
22.183333	1	1.003625
22.200000	1	0.959375
22.216667	1	0.916500
22.233333	1	0.874125
22.250000	1	0.832500
22.266667	1	0.792375
22.283333	1	0.754125
22.300000	1	0.717000
22.316667	1	0.681375
22.333333	1	0.648125
22.350000	1	0.616125
22.366667	1	0.585750
22.383333	1	0.557500
22.400000	1	0.530500
22.416667	1	0.505625
22.433333	1	0.482000
22.450000	1	0.460125
22.466667	1	0.440250
22.483333	1	0.420875
22.500000	1	0.403625
22.516667	1	0.387750
22.533333	1	0.373875
22.550000	1	0.360125
22.566667	1	0.347750
22.583333	1	0.336375
22.600000	1	0.326250
22.616667	1	0.316750
22.633333	1	0.308250
22.650000	1	0.299875
22.666667	1	0.292000
22.683333	1	0.284375
22.700000	1	0.277500
22.716667	1	0.271625
22.733333	1	0.265750
22.750000	1	0.259875
22.766667	1	0.254125
22.783333	1	0.248750
22.800000	1	0.243125
22.816667	1	0.238125
22.833333	1	0.233375
22.850000	1	0.229000
22.866667	1	0.224750
22.883333	1	0.221125
22.900000	1	0.217625
22.916667	1	0.214500
22.933333	1	0.212375
22.950000	1	0.210125
22.966667	1	0.208250
22.983333	1	0.206500
23.000000	1	0.205125
23.016667	1	0.204625
23.033333	1	0.204750
23.050000	1	0.204750
23.066667	1	0.205125
23.083333	1	0.206250
23.100000	1	0.207000
23.116667	1	0.208250
23.133333	1	0.209750
23.150000	1	0.210750
23.166667	1	0.211750
23.183333	1	0.213375
23.200000	1	0.215500
23.216667	1	0.216125
23.233333	1	0.218125
23.250000	1	0.220250
23.266667	1	0.224125
23.283333	1	0.228000
23.300000	1	0.233625
23.316667	1	0.240250
23.333333	1	0.250375
23.350000	1	0.263375
23.366667	1	0.281250
23.383333	1	0.303625
23.400000	1	0.333000
23.416667	1	0.370125
23.433333	1	0.418750
23.450000	1	0.479750
23.466667	1	0.555500
23.483333	1	0.647750
23.500000	1	0.759250
23.516667	1	0.891750
23.533333	1	1.047375
23.550000	1	1.227625
23.566667	1	1.434000
23.583333	1	1.665750
23.600000	1	1.924000
23.616667	1	2.205625
23.633333	1	2.508750
23.650000	1	2.829500
23.666667	1	3.163125
23.683333	1	3.505375
23.700000	1	3.849750
23.716667	1	4.190000
23.733333	1	4.518500
23.750000	1	4.827750
23.766667	1	5.111375
23.783333	1	5.360750
23.800000	1	5.571500
23.816667	1	5.739375
23.833333	1	5.860875
23.850000	1	5.933875
23.866667	1	5.957250
23.883333	1	5.933125
23.900000	1	5.862875
23.916667	1	5.749125
23.933333	1	5.596250
23.950000	1	5.408750
23.966667	1	5.193875
23.983333	1	4.955250
24.000000	1	4.699625
24.016667	1	4.432000
24.033333	1	4.158125
24.050000	1	3.882500
24.066667	1	3.609375
24.083333	1	3.341875
24.100000	1	3.084125
24.116667	1	2.836625
24.133333	1	2.601000
24.150000	1	2.380000
24.166667	1	2.172625
24.183333	1	1.980250
24.200000	1	1.802500
24.216667	1	1.640500
24.233333	1	1.491250
24.250000	1	1.355375
24.266667	1	1.232375
24.283333	1	1.121125
24.300000	1	1.021250
24.316667	1	0.932875
24.333333	1	0.852875
24.350000	1	0.781875
24.366667	1	0.719625
24.383333	1	0.665250
24.400000	1	0.617500
24.416667	1	0.575750
24.433333	1	0.540250
24.450000	1	0.509500
24.466667	1	0.483375
24.483333	1	0.462125
24.500000	1	0.444250
24.516667	1	0.428750
24.533333	1	0.416000
24.550000	1	0.404750
24.566667	1	0.395000
24.583333	1	0.387250
24.600000	1	0.380375
24.616667	1	0.373750
24.633333	1	0.368625
24.650000	1	0.363375
24.666667	1	0.358375
24.683333	1	0.353375
24.700000	1	0.348000
24.716667	1	0.342875
24.733333	1	0.337875
24.750000	1	0.332750
24.766667	1	0.327375
24.783333	1	0.322125
24.800000	1	0.316000
24.816667	1	0.310375
24.833333	1	0.304250
24.850000	1	0.299000
24.866667	1	0.293625
24.883333	1	0.288250
24.900000	1	0.282875
24.916667	1	0.277625
24.933333	1	0.272750
24.950000	1	0.267875
24.966667	1	0.263375
24.983333	1	0.258625
25.000000	1	0.254500
25.016667	1	0.251000
25.033333	1	0.246875
25.050000	1	0.243500
25.066667	1	0.240375
25.083333	1	0.236875
25.100000	1	0.233750
25.116667	1	0.230625
25.133333	1	0.227750
25.150000	1	0.224250
25.166667	1	0.221125
25.183333	1	0.218250
25.200000	1	0.215125
25.216667	1	0.212625
25.233333	1	0.209750
25.250000	1	0.206625
25.266667	1	0.203750
25.283333	1	0.201000
25.300000	1	0.198875
25.316667	1	0.197500
25.333333	1	0.195875
25.350000	1	0.194250
25.366667	1	0.193125
25.383333	1	0.192125
25.400000	1	0.191500
25.416667	1	0.191750
25.433333	1	0.192125
25.450000	1	0.192750
25.466667	1	0.193875
25.483333	1	0.195250
25.500000	1	0.197000
25.516667	1	0.198750
25.533333	1	0.201000
25.550000	1	0.203250
25.566667	1	0.205250
25.583333	1	0.207875
25.600000	1	0.210375
25.616667	1	0.213375
25.633333	1	0.215875
25.650000	1	0.219000
25.666667	1	0.221250
25.683333	1	0.224375
25.700000	1	0.226125
25.716667	1	0.228250
25.733333	1	0.230500
25.750000	1	0.232250
25.766667	1	0.234000
25.783333	1	0.235125
25.800000	1	0.236375
25.816667	1	0.237875
25.833333	1	0.238750
25.850000	1	0.239875
25.866667	1	0.241125
25.883333	1	0.241875
25.900000	1	0.242750
25.916667	1	0.243500
25.933333	1	0.244125
25.950000	1	0.245250
25.966667	1	0.246625
25.983333	1	0.247500
26.000000	1	0.248625
26.016667	1	0.250000
26.033333	1	0.251625
26.050000	1	0.252875
26.066667	1	0.254875
26.083333	1	0.256500
26.100000	1	0.258000
26.116667	1	0.259375
26.133333	1	0.261125
26.150000	1	0.263250
26.166667	1	0.265625
26.183333	1	0.268750
26.200000	1	0.271750
26.216667	1	0.274000
26.233333	1	0.276000
26.250000	1	0.279500
26.266667	1	0.281875
26.283333	1	0.285250
26.300000	1	0.287125
26.316667	1	0.289625
26.333333	1	0.291875
26.350000	1	0.294375
26.366667	1	0.296000
26.383333	1	0.297375
26.400000	1	0.298500
26.416667	1	0.299625
26.433333	1	0.300750
26.450000	1	0.301125
26.466667	1	0.300250
26.483333	1	0.299875
26.500000	1	0.299375
26.516667	1	0.297875
26.533333	1	0.296000
26.550000	1	0.293625
26.566667	1	0.291250
26.583333	1	0.288875
26.600000	1	0.286125
26.616667	1	0.282125
26.633333	1	0.278625
26.650000	1	0.274125
26.666667	1	0.270125
26.683333	1	0.265500
26.700000	1	0.261500
26.716667	1	0.256625
26.733333	1	0.252000
26.750000	1	0.247750
26.766667	1	0.243125
26.783333	1	0.238500
26.800000	1	0.234500
26.816667	1	0.230375
26.833333	1	0.226625
26.850000	1	0.223500
26.866667	1	0.221125
26.883333	1	0.218500
26.900000	1	0.216000
26.916667	1	0.213375
26.933333	1	0.211375
26.950000	1	0.209250
26.966667	1	0.207500
26.983333	1	0.206875
27.000000	1	0.206500
27.016667	1	0.207250
27.033333	1	0.207250
27.050000	1	0.208250
27.066667	1	0.209875
27.083333	1	0.212000
27.100000	1	0.214500
27.116667	1	0.217000
27.133333	1	0.221250
27.150000	1	0.225625
27.166667	1	0.231625
27.183333	1	0.238875
27.200000	1	0.246625
27.216667	1	0.257250
27.233333	1	0.269500
27.250000	1	0.284500
27.266667	1	0.302125
27.283333	1	0.323375
27.300000	1	0.348625
27.316667	1	0.378875
27.333333	1	0.413250
27.350000	1	0.454500
27.366667	1	0.503500
27.383333	1	0.561375
27.400000	1	0.628125
27.416667	1	0.704750
27.433333	1	0.793625
27.450000	1	0.894625
27.466667	1	1.009375
27.483333	1	1.137375
27.500000	1	1.281375
27.516667	1	1.440250
27.533333	1	1.615500
27.550000	1	1.805750
27.566667	1	2.010875
27.583333	1	2.230625
27.600000	1	2.464375
27.616667	1	2.709625
27.633333	1	2.964125
27.650000	1	3.227125
27.666667	1	3.494875
27.683333	1	3.764750
27.700000	1	4.032875
27.716667	1	4.295625
27.733333	1	4.549000
27.750000	1	4.788625
27.766667	1	5.011000
27.783333	1	5.212750
27.800000	1	5.389750
27.816667	1	5.540125
27.833333	1	5.660375
27.850000	1	5.748625
27.866667	1	5.803125
27.883333	1	5.823000
27.900000	1	5.808250
27.916667	1	5.758875
27.933333	1	5.677125
27.950000	1	5.564375
27.966667	1	5.423625
27.983333	1	5.258625
28.000000	1	5.072125
28.016667	1	4.866750
28.033333	1	4.647000
28.050000	1	4.415625
28.066667	1	4.176750
28.083333	1	3.934875
28.100000	1	3.692000
28.116667	1	3.451500
28.133333	1	3.216000
28.150000	1	2.986875
28.166667	1	2.767500
28.183333	1	2.558125
28.200000	1	2.360000
28.216667	1	2.172875
28.233333	1	1.997375
28.250000	1	1.833625
28.266667	1	1.681125
28.283333	1	1.540750
28.300000	1	1.411000
28.316667	1	1.291375
28.333333	1	1.182500
28.350000	1	1.082875
28.366667	1	0.992125
28.383333	1	0.909375
28.400000	1	0.834750
28.416667	1	0.767125
28.433333	1	0.706375
28.450000	1	0.651375
28.466667	1	0.602000
28.483333	1	0.558000
28.500000	1	0.518500
28.516667	1	0.482875
28.533333	1	0.451625
28.550000	1	0.424375
28.566667	1	0.400375
28.583333	1	0.379500
28.600000	1	0.361125
28.616667	1	0.345375
28.633333	1	0.332625
28.650000	1	0.321750
28.666667	1	0.313375
28.683333	1	0.305875
28.700000	1	0.300500
28.716667	1	0.296125
28.733333	1	0.293625
28.750000	1	0.292000
28.766667	1	0.291000
28.783333	1	0.291125
28.800000	1	0.291375
28.816667	1	0.293375
28.833333	1	0.295500
28.850000	1	0.298500
28.866667	1	0.302000
28.883333	1	0.305375
28.900000	1	0.308500
28.916667	1	0.312375
28.933333	1	0.316125
28.950000	1	0.319625
28.966667	1	0.322250
28.983333	1	0.324375
29.000000	1	0.326500
29.016667	1	0.328750
29.033333	1	0.330125
29.050000	1	0.330125
29.066667	1	0.329750
29.083333	1	0.327625
29.100000	1	0.325500
29.116667	1	0.321625
29.133333	1	0.316750
29.150000	1	0.310750
29.166667	1	0.303250
29.183333	1	0.294375
29.200000	1	0.283875
29.216667	1	0.271750
29.233333	1	0.258250
29.250000	1	0.243500
29.266667	1	0.226625
29.283333	1	0.207875
29.300000	1	0.187000
29.316667	1	0.165125
29.333333	1	0.141875
29.350000	1	0.116250
29.366667	1	0.089750
29.383333	1	0.061250
29.400000	1	0.032500
29.416667	1	0.002000
29.433333	1	-0.029500
29.450000	1	-0.062250
29.466667	1	-0.095375
29.483333	1	-0.129125
29.500000	1	-0.163375
29.516667	1	-0.197375
29.533333	1	-0.230250
29.550000	1	-0.262250
29.566667	1	-0.293500
29.583333	1	-0.323375
29.600000	1	-0.352125
29.616667	1	-0.379125
29.633333	1	-0.404250
29.650000	1	-0.427875
29.666667	1	-0.448250
29.683333	1	-0.466500
29.700000	1	-0.482375
29.716667	1	-0.495125
29.733333	1	-0.505500
29.750000	1	-0.512625
29.766667	1	-0.516250
29.783333	1	-0.516875
29.800000	1	-0.514750
29.816667	1	-0.510625
29.833333	1	-0.503875
29.850000	1	-0.494125
29.866667	1	-0.482750
29.883333	1	-0.469250
29.900000	1	-0.453625
29.916667	1	-0.436750
29.933333	1	-0.418750
29.950000	1	-0.398750
29.966667	1	-0.378750
29.983333	1	-0.357500
30.000000	1	-0.335625
30.016667	1	-0.313875
30.033333	1	-0.290625
30.050000	1	-0.268375
30.066667	1	-0.245875
30.083333	1	-0.224500
30.100000	1	-0.203000
30.116667	1	-0.182125
30.133333	1	-0.162125
30.150000	1	-0.142750
30.166667	1	-0.124625
30.183333	1	-0.106750
30.200000	1	-0.089375
30.216667	1	-0.073125
30.233333	1	-0.057375
30.250000	1	-0.042250
30.266667	1	-0.027750
30.283333	1	-0.014375
30.300000	1	-0.002500
30.316667	1	0.008875
30.333333	1	0.020000
30.350000	1	0.029875
30.366667	1	0.040000
30.383333	1	0.049500
30.400000	1	0.058875
30.416667	1	0.066750
30.433333	1	0.074500
30.450000	1	0.081875
30.466667	1	0.089750
30.483333	1	0.096625
30.500000	1	0.103250
30.516667	1	0.110375
30.533333	1	0.117125
30.550000	1	0.123750
30.566667	1	0.130125
30.583333	1	0.136750
30.600000	1	0.143125
30.616667	1	0.150125
30.633333	1	0.157000
30.650000	1	0.164250
30.666667	1	0.171625
30.683333	1	0.178875
30.700000	1	0.186875
30.716667	1	0.194875
30.733333	1	0.202875
30.750000	1	0.210875
30.766667	1	0.219500
30.783333	1	0.228000
30.800000	1	0.237250
30.816667	1	0.246625
30.833333	1	0.256375
30.850000	1	0.266625
30.866667	1	0.276625
30.883333	1	0.287125
30.900000	1	0.297375
30.916667	1	0.308375
30.933333	1	0.319625
30.950000	1	0.332875
30.966667	1	0.346375
30.983333	1	0.361500
31.000000	1	0.376500
31.016667	1	0.393500
31.033333	1	0.411375
31.050000	1	0.431250
31.066667	1	0.453750
31.083333	1	0.479000
31.100000	1	0.507000
31.116667	1	0.539125
31.133333	1	0.573875
31.150000	1	0.612500
31.166667	1	0.655750
31.183333	1	0.703625
31.200000	1	0.755750
31.216667	1	0.813625
31.233333	1	0.876500
31.250000	1	0.945125
31.266667	1	1.018625
31.283333	1	1.097000
31.300000	1	1.180000
31.316667	1	1.267500
31.333333	1	1.359375
31.350000	1	1.454375
31.366667	1	1.552250
31.383333	1	1.651625
31.400000	1	1.752375
31.416667	1	1.852875
31.433333	1	1.952250
31.450000	1	2.049875
31.466667	1	2.142500
31.483333	1	2.231000
31.500000	1	2.313875
31.516667	1	2.388750
31.533333	1	2.456250
31.550000	1	2.514500
31.566667	1	2.563125
31.583333	1	2.601375
31.600000	1	2.629500
31.616667	1	2.646625
31.633333	1	2.652750
31.650000	1	2.647875
31.666667	1	2.632125
31.683333	1	2.605750
31.700000	1	2.569125
31.716667	1	2.525125
31.733333	1	2.472125
31.750000	1	2.411625
31.766667	1	2.344625
31.783333	1	2.273125
31.800000	1	2.196000
31.816667	1	2.115500
31.833333	1	2.031500
31.850000	1	1.945250
31.866667	1	1.859125
31.883333	1	1.772125
31.900000	1	1.685625
31.916667	1	1.600000
31.933333	1	1.515875
31.950000	1	1.434000
31.966667	1	1.354625
31.983333	1	1.278250
32.000000	1	1.203625
32.016667	1	1.132250
32.033333	1	1.063000
32.050000	1	0.998125
32.066667	1	0.936125
32.083333	1	0.877250
32.100000	1	0.821625
32.116667	1	0.768500
32.133333	1	0.718750
32.150000	1	0.671750
32.166667	1	0.627625
32.183333	1	0.585500
32.200000	1	0.546000
32.216667	1	0.508750
32.233333	1	0.473750
32.250000	1	0.441000
32.266667	1	0.410000
32.283333	1	0.380875
32.300000	1	0.353250
32.316667	1	0.327625
32.333333	1	0.303750
32.350000	1	0.281500
32.366667	1	0.260125
32.383333	1	0.240625
32.400000	1	0.222375
32.416667	1	0.205750
32.433333	1	0.190000
32.450000	1	0.176125
32.466667	1	0.163125
32.483333	1	0.151125
32.500000	1	0.139500
32.516667	1	0.129125
32.533333	1	0.119500
32.550000	1	0.110375
32.566667	1	0.102500
32.583333	1	0.095500
32.600000	1	0.089375
32.616667	1	0.083500
32.633333	1	0.078500
32.650000	1	0.073375
32.666667	1	0.068625
32.683333	1	0.064125
32.700000	1	0.060250
32.716667	1	0.057375
32.733333	1	0.055000
32.750000	1	0.052625
32.766667	1	0.050500
32.783333	1	0.048625
32.800000	1	0.047625
32.816667	1	0.046250
32.833333	1	0.045250
32.850000	1	0.044125
32.866667	1	0.043125
32.883333	1	0.042000
32.900000	1	0.041500
32.916667	1	0.041125
32.933333	1	0.040500
32.950000	1	0.040375
32.966667	1	0.040500
32.983333	1	0.039375
33.000000	1	0.039875
33.016667	1	0.040125
33.033333	1	0.040125
33.050000	1	0.039875
33.066667	1	0.039500
33.083333	1	0.039375
33.100000	1	0.039500
33.116667	1	0.040000
33.133333	1	0.040250
33.150000	1	0.041250
33.166667	1	0.041625
33.183333	1	0.042375
33.200000	1	0.042875
33.216667	1	0.042625
33.233333	1	0.043125
33.250000	1	0.044000
33.266667	1	0.044625
33.283333	1	0.045250
33.300000	1	0.045625
33.316667	1	0.046000
33.333333	1	0.045750
33.350000	1	0.046500
33.366667	1	0.046625
33.383333	1	0.046750
33.400000	1	0.047125
33.416667	1	0.048125
33.433333	1	0.048125
33.450000	1	0.047750
33.466667	1	0.048875
33.483333	1	0.049625
33.500000	1	0.050375
33.516667	1	0.050875
33.533333	1	0.051375
33.550000	1	0.052500
33.566667	1	0.053500
33.583333	1	0.054875
33.600000	1	0.056625
33.616667	1	0.058375
33.633333	1	0.059750
33.650000	1	0.061375
33.666667	1	0.063125
33.683333	1	0.065500
33.700000	1	0.067375
33.716667	1	0.070250
33.733333	1	0.072750
33.750000	1	0.075625
33.766667	1	0.078500
33.783333	1	0.081750
33.800000	1	0.085250
33.816667	1	0.088750
33.833333	1	0.091500
33.850000	1	0.095125
33.866667	1	0.098250
33.883333	1	0.101875
33.900000	1	0.104625
33.916667	1	0.107625
33.933333	1	0.110250
33.950000	1	0.113250
33.966667	1	0.117000
33.983333	1	0.119375
34.000000	1	0.122250
34.016667	1	0.124750
34.033333	1	0.127375
34.050000	1	0.129250
34.066667	1	0.131125
34.083333	1	0.133000
34.100000	1	0.134500
34.116667	1	0.136250
34.133333	1	0.137250
34.150000	1	0.138250
34.166667	1	0.139500
34.183333	1	0.140125
34.200000	1	0.140750
34.216667	1	0.141500
34.233333	1	0.142750
34.250000	1	0.142750
34.266667	1	0.142625
34.283333	1	0.142750
34.300000	1	0.142250
34.316667	1	0.142250
34.333333	1	0.142875
34.350000	1	0.143625
34.366667	1	0.143250
34.383333	1	0.143375
34.400000	1	0.143625
34.416667	1	0.143000
34.433333	1	0.143250
34.450000	1	0.143625
34.466667	1	0.144000
34.483333	1	0.144500
34.500000	1	0.145500
34.516667	1	0.146125
34.533333	1	0.146625
34.550000	1	0.147500
34.566667	1	0.147750
34.583333	1	0.148500
34.600000	1	0.149500
34.616667	1	0.150750
34.633333	1	0.151375
34.650000	1	0.152250
34.666667	1	0.152500
34.683333	1	0.153625
34.700000	1	0.154625
34.716667	1	0.155375
34.733333	1	0.155750
34.750000	1	0.156375
34.766667	1	0.156875
34.783333	1	0.156625
34.800000	1	0.156875
34.816667	1	0.157500
34.833333	1	0.157625
34.850000	1	0.157125
34.866667	1	0.157125
34.883333	1	0.156625
34.900000	1	0.156250
34.916667	1	0.155500
34.933333	1	0.155250
34.950000	1	0.154625
34.966667	1	0.154375
34.983333	1	0.153875
35.000000	1	0.154125
35.016667	1	0.153500
35.033333	1	0.152625
35.050000	1	0.152000
35.066667	1	0.151000
35.083333	1	0.149750
35.100000	1	0.149125
35.116667	1	0.148375
35.133333	1	0.147250
35.150000	1	0.146500
35.166667	1	0.144750
35.183333	1	0.143875
35.200000	1	0.143000
35.216667	1	0.141625
35.233333	1	0.141375
35.250000	1	0.140500
35.266667	1	0.138875
35.283333	1	0.137750
35.300000	1	0.136875
35.316667	1	0.136875
35.333333	1	0.136125
35.350000	1	0.135625
35.366667	1	0.135250
35.383333	1	0.134875
35.400000	1	0.134875
35.416667	1	0.135125
35.433333	1	0.135125
35.450000	1	0.135875
35.466667	1	0.136000
35.483333	1	0.137375
35.500000	1	0.138375
35.516667	1	0.140250
35.533333	1	0.141750
35.550000	1	0.143625
35.566667	1	0.145625
35.583333	1	0.148125
35.600000	1	0.149875
35.616667	1	0.152750
35.633333	1	0.155125
35.650000	1	0.158000
35.666667	1	0.160375
35.683333	1	0.163625
35.700000	1	0.166875
35.716667	1	0.170250
35.733333	1	0.173500
35.750000	1	0.176375
35.766667	1	0.179625
35.783333	1	0.182375
35.800000	1	0.185375
35.816667	1	0.187875
35.833333	1	0.190000
35.850000	1	0.193000
35.866667	1	0.195500
35.883333	1	0.197875
35.900000	1	0.200000
35.916667	1	0.201250
35.933333	1	0.202500
35.950000	1	0.203375
35.966667	1	0.204375
35.983333	1	0.205250
36.000000	1	0.205875
36.016667	1	0.206625
36.033333	1	0.206000
36.050000	1	0.206000
36.066667	1	0.205750
36.083333	1	0.205625
36.100000	1	0.205375
36.116667	1	0.205125
36.133333	1	0.204625
36.150000	1	0.203750
36.166667	1	0.203750
36.183333	1	0.203125
36.200000	1	0.202250
36.216667	1	0.201125
36.233333	1	0.199875
36.250000	1	0.198625
36.266667	1	0.198125
36.283333	1	0.197250
36.300000	1	0.196750
36.316667	1	0.195625
36.333333	1	0.194375
36.350000	1	0.193750
36.366667	1	0.192125
36.383333	1	0.191250
36.400000	1	0.191125
36.416667	1	0.189500
36.433333	1	0.189125
36.450000	1	0.189125
36.466667	1	0.188250
36.483333	1	0.187125
36.500000	1	0.186500
36.516667	1	0.185875
36.533333	1	0.184250
36.550000	1	0.183000
36.566667	1	0.182375
36.583333	1	0.181500
36.600000	1	0.179875
36.616667	1	0.179125
36.633333	1	0.177750
36.650000	1	0.176500
36.666667	1	0.175250
36.683333	1	0.174250
36.700000	1	0.172375
36.716667	1	0.171250
36.733333	1	0.168625
36.750000	1	0.167500
36.766667	1	0.165625
36.783333	1	0.164125
36.800000	1	0.162000
36.816667	1	0.160375
36.833333	1	0.158500
36.850000	1	0.156875
36.866667	1	0.155625
36.883333	1	0.153375
36.900000	1	0.152000
36.916667	1	0.150750
36.933333	1	0.149500
36.950000	1	0.147875
36.966667	1	0.146625
36.983333	1	0.145250
37.000000	1	0.143625
37.016667	1	0.141500
37.033333	1	0.140250
37.050000	1	0.140125
37.066667	1	0.139125
37.083333	1	0.138625
37.100000	1	0.137500
37.116667	1	0.137000
37.133333	1	0.136375
37.150000	1	0.136125
37.166667	1	0.136375
37.183333	1	0.135750
37.200000	1	0.135750
37.216667	1	0.135750
37.233333	1	0.135625
37.250000	1	0.135250
37.266667	1	0.136500
37.283333	1	0.136875
37.300000	1	0.136875
37.316667	1	0.137000
37.333333	1	0.136875
37.350000	1	0.136875
37.366667	1	0.137000
37.383333	1	0.137500
37.400000	1	0.137625
37.416667	1	0.137875
37.433333	1	0.138625
37.450000	1	0.138250
37.466667	1	0.138000
37.483333	1	0.138250
37.500000	1	0.138500
37.516667	1	0.139125
37.533333	1	0.138875
37.550000	1	0.138875
37.566667	1	0.138500
37.583333	1	0.138125
37.600000	1	0.137250
37.616667	1	0.136875
37.633333	1	0.136250
37.650000	1	0.135375
37.666667	1	0.134625
37.683333	1	0.133875
37.700000	1	0.133375
37.716667	1	0.131500
37.733333	1	0.130750
37.750000	1	0.129625
37.766667	1	0.128750
37.783333	1	0.127125
37.800000	1	0.125750
37.816667	1	0.124125
37.833333	1	0.122375
37.850000	1	0.120750
37.866667	1	0.118625
37.883333	1	0.117500
37.900000	1	0.115500
37.916667	1	0.113875
37.933333	1	0.112625
37.950000	1	0.110750
37.966667	1	0.109125
37.983333	1	0.107750
38.000000	1	0.106375
38.016667	1	0.105125
38.033333	1	0.103500
38.050000	1	0.101375
38.066667	1	0.100375
38.083333	1	0.099250
38.100000	1	0.098250
38.116667	1	0.096750
38.133333	1	0.095750
38.150000	1	0.095250
38.166667	1	0.094625
38.183333	1	0.093375
38.200000	1	0.092250
38.216667	1	0.091875
38.233333	1	0.090625
38.250000	1	0.089500
38.266667	1	0.088750
38.283333	1	0.088625
38.300000	1	0.088375
38.316667	1	0.088500
38.333333	1	0.087875
38.350000	1	0.087750
38.366667	1	0.087125
38.383333	1	0.086250
38.400000	1	0.085375
38.416667	1	0.085250
38.433333	1	0.084625
38.450000	1	0.083750
38.466667	1	0.083500
38.483333	1	0.082875
38.500000	1	0.081875
38.516667	1	0.081750
38.533333	1	0.081500
38.550000	1	0.080875
38.566667	1	0.080250
38.583333	1	0.079875
38.600000	1	0.079375
38.616667	1	0.078750
38.633333	1	0.078250
38.650000	1	0.078000
38.666667	1	0.077875
38.683333	1	0.077500
38.700000	1	0.077375
38.716667	1	0.077375
38.733333	1	0.077875
38.750000	1	0.077625
38.766667	1	0.078125
38.783333	1	0.078625
38.800000	1	0.079000
38.816667	1	0.079250
38.833333	1	0.080125
38.850000	1	0.080500
38.866667	1	0.080625
38.883333	1	0.081750
38.900000	1	0.082250
38.916667	1	0.083500
38.933333	1	0.084250
38.950000	1	0.085125
38.966667	1	0.085375
38.983333	1	0.086125
39.000000	1	0.086875
39.016667	1	0.087500
39.033333	1	0.087625
39.050000	1	0.087375
39.066667	1	0.087625
39.083333	1	0.087500
39.100000	1	0.088125
39.116667	1	0.088000
39.133333	1	0.087625
39.150000	1	0.087500
39.166667	1	0.086625
39.183333	1	0.084875
39.200000	1	0.084250
39.216667	1	0.082875
39.233333	1	0.082500
39.250000	1	0.080875
39.266667	1	0.079500
39.283333	1	0.077875
39.300000	1	0.076500
39.316667	1	0.074500
39.333333	1	0.073000
39.350000	1	0.071125
39.366667	1	0.069250
39.383333	1	0.067625
39.400000	1	0.066125
39.416667	1	0.064000
39.433333	1	0.062250
39.450000	1	0.060750
39.466667	1	0.059625
39.483333	1	0.058250
39.500000	1	0.057125
39.516667	1	0.055500
39.533333	1	0.054375
39.550000	1	0.053250
39.566667	1	0.051875
39.583333	1	0.051125
39.600000	1	0.050250
39.616667	1	0.049500
39.633333	1	0.048625
39.650000	1	0.048000
39.666667	1	0.047250
39.683333	1	0.047000
39.700000	1	0.046375
39.716667	1	0.045875
39.733333	1	0.045875
39.750000	1	0.046375
39.766667	1	0.045125
39.783333	1	0.044375
39.800000	1	0.043500
39.816667	1	0.042875
39.833333	1	0.042625
39.850000	1	0.042000
39.866667	1	0.041500
39.883333	1	0.040875
39.900000	1	0.041000
39.916667	1	0.040875
39.933333	1	0.040500
39.950000	1	0.040000
39.966667	1	0.039500
39.983333	1	0.039000
40.000000	1	0.039000
