URL	chrom://7040-86g6c92/XVault/Ultimate_3000/20/20240517_CMO_FP23_FP25_MarkusDeplate.seq/400.smp/RI_1.channel/RI_1.chm
Channel	RI_1

Injection Information:
Data Vault	XVault
Sequence	20240517_CMO_FP23_FP25_MarkusDeplate
Name	FP26_25_s6
Number	117
Position	BD5
Comment	
Processing Method	
Instrument Method	run_25B_method
Type	Unknown
Status	Finished
Inject Time	31.05.2024 02:33:41 +02:00
Volume (µl)	20.0000
Dilution Factor	1.0000
Weight	1.0000

Chromatogram Data Information:
Time Min. (min)	0.000000
Time Max. (min)	40.000000
Data Points	2401
Detector	RI
Generating Data System	Chromeleon 7.3.2.11814
Exporting Data System	Chromeleon 7.3.2.0
Operator	Instrument Controller
Signal Quantity	Refractive 
Signal Unit	µRIU
Signal Min.	-0.686875
Signal Max.	64.750875
Channel	RI_1
Driver Name	RID520Driver.dll
Channel Type	Evaluation
Min. Step (s)	1
Max. Step (s)	1
Average Step (s)	1

Signal Parameter Information:
Signal Info	

Chromatogram Data:
Time (min)	Step (s)	Value (µRIU)
0.000000	n.a.	0.017625
0.016667	1	0.017250
0.033333	1	0.016750
0.050000	1	0.017125
0.066667	1	0.017000
0.083333	1	0.017375
0.100000	1	0.018000
0.116667	1	0.017875
0.133333	1	0.018000
0.150000	1	0.017375
0.166667	1	0.017875
0.183333	1	0.017625
0.200000	1	0.017125
0.216667	1	0.017000
0.233333	1	0.017500
0.250000	1	0.017375
0.266667	1	0.016500
0.283333	1	0.016000
0.300000	1	0.015625
0.316667	1	0.014500
0.333333	1	0.013750
0.350000	1	0.012000
0.366667	1	0.009625
0.383333	1	0.008000
0.400000	1	0.006125
0.416667	1	0.005375
0.433333	1	0.005000
0.450000	1	0.005500
0.466667	1	0.005625
0.483333	1	0.006000
0.500000	1	0.005875
0.516667	1	0.004875
0.533333	1	0.003875
0.550000	1	0.002375
0.566667	1	-0.000125
0.583333	1	-0.003000
0.600000	1	-0.006500
0.616667	1	-0.010250
0.633333	1	-0.014000
0.650000	1	-0.016375
0.666667	1	-0.018500
0.683333	1	-0.020125
0.700000	1	-0.021750
0.716667	1	-0.023875
0.733333	1	-0.025875
0.750000	1	-0.027000
0.766667	1	-0.028250
0.783333	1	-0.029500
0.800000	1	-0.030875
0.816667	1	-0.032250
0.833333	1	-0.033750
0.850000	1	-0.034250
0.866667	1	-0.035000
0.883333	1	-0.036625
0.900000	1	-0.037750
0.916667	1	-0.039250
0.933333	1	-0.040000
0.950000	1	-0.040500
0.966667	1	-0.040500
0.983333	1	-0.040500
1.000000	1	-0.040750
1.016667	1	-0.040750
1.033333	1	-0.040500
1.050000	1	-0.039625
1.066667	1	-0.039500
1.083333	1	-0.038625
1.100000	1	-0.037750
1.116667	1	-0.037250
1.133333	1	-0.036750
1.150000	1	-0.036375
1.166667	1	-0.035000
1.183333	1	-0.034000
1.200000	1	-0.032750
1.216667	1	-0.031625
1.233333	1	-0.029750
1.250000	1	-0.028125
1.266667	1	-0.026500
1.283333	1	-0.025000
1.300000	1	-0.023500
1.316667	1	-0.021750
1.333333	1	-0.019625
1.350000	1	-0.018125
1.366667	1	-0.016250
1.383333	1	-0.014625
1.400000	1	-0.012500
1.416667	1	-0.011000
1.433333	1	-0.009625
1.450000	1	-0.007375
1.466667	1	-0.005125
1.483333	1	-0.003000
1.500000	1	-0.001000
1.516667	1	0.000500
1.533333	1	0.002125
1.550000	1	0.004250
1.566667	1	0.006250
1.583333	1	0.007000
1.600000	1	0.008375
1.616667	1	0.010000
1.633333	1	0.011625
1.650000	1	0.013375
1.666667	1	0.015000
1.683333	1	0.016625
1.700000	1	0.018375
1.716667	1	0.019875
1.733333	1	0.020625
1.750000	1	0.021625
1.766667	1	0.022250
1.783333	1	0.023375
1.800000	1	0.023875
1.816667	1	0.024000
1.833333	1	0.024375
1.850000	1	0.025375
1.866667	1	0.025375
1.883333	1	0.025500
1.900000	1	0.026750
1.916667	1	0.027500
1.933333	1	0.027500
1.950000	1	0.027875
1.966667	1	0.027750
1.983333	1	0.027625
2.000000	1	0.027125
2.016667	1	0.027250
2.033333	1	0.026750
2.050000	1	0.026500
2.066667	1	0.025875
2.083333	1	0.025500
2.100000	1	0.025000
2.116667	1	0.023750
2.133333	1	0.022875
2.150000	1	0.022750
2.166667	1	0.022000
2.183333	1	0.020625
2.200000	1	0.019875
2.216667	1	0.017750
2.233333	1	0.016875
2.250000	1	0.015625
2.266667	1	0.014125
2.283333	1	0.012750
2.300000	1	0.011500
2.316667	1	0.009500
2.333333	1	0.007500
2.350000	1	0.005250
2.366667	1	0.003125
2.383333	1	0.001750
2.400000	1	0.000125
2.416667	1	-0.002000
2.433333	1	-0.003750
2.450000	1	-0.005125
2.466667	1	-0.007000
2.483333	1	-0.008875
2.500000	1	-0.011625
2.516667	1	-0.013625
2.533333	1	-0.014625
2.550000	1	-0.016125
2.566667	1	-0.017250
2.583333	1	-0.018625
2.600000	1	-0.020375
2.616667	1	-0.021000
2.633333	1	-0.021500
2.650000	1	-0.022250
2.666667	1	-0.023000
2.683333	1	-0.024375
2.700000	1	-0.025375
2.716667	1	-0.025875
2.733333	1	-0.025875
2.750000	1	-0.026875
2.766667	1	-0.027000
2.783333	1	-0.026875
2.800000	1	-0.026625
2.816667	1	-0.026250
2.833333	1	-0.025000
2.850000	1	-0.024250
2.866667	1	-0.023250
2.883333	1	-0.022250
2.900000	1	-0.021000
2.916667	1	-0.020250
2.933333	1	-0.018875
2.950000	1	-0.017625
2.966667	1	-0.016125
2.983333	1	-0.015125
3.000000	1	-0.013375
3.016667	1	-0.011125
3.033333	1	-0.008750
3.050000	1	-0.006500
3.066667	1	-0.003875
3.083333	1	-0.001500
3.100000	1	0.000000
3.116667	1	0.001875
3.133333	1	0.003750
3.150000	1	0.005750
3.166667	1	0.008125
3.183333	1	0.010875
3.200000	1	0.012750
3.216667	1	0.015500
3.233333	1	0.017375
3.250000	1	0.019625
3.266667	1	0.021625
3.283333	1	0.024000
3.300000	1	0.025750
3.316667	1	0.027875
3.333333	1	0.029750
3.350000	1	0.031750
3.366667	1	0.033250
3.383333	1	0.035125
3.400000	1	0.037125
3.416667	1	0.039000
3.433333	1	0.041000
3.450000	1	0.042875
3.466667	1	0.044875
3.483333	1	0.046875
3.500000	1	0.048000
3.516667	1	0.049875
3.533333	1	0.050750
3.550000	1	0.051875
3.566667	1	0.053875
3.583333	1	0.055250
3.600000	1	0.056750
3.616667	1	0.057625
3.633333	1	0.059000
3.650000	1	0.059875
3.666667	1	0.061375
3.683333	1	0.063000
3.700000	1	0.064125
3.716667	1	0.064750
3.733333	1	0.065125
3.750000	1	0.065875
3.766667	1	0.067375
3.783333	1	0.067875
3.800000	1	0.069250
3.816667	1	0.070125
3.833333	1	0.070500
3.850000	1	0.070750
3.866667	1	0.071125
3.883333	1	0.071750
3.900000	1	0.072125
3.916667	1	0.072375
3.933333	1	0.072625
3.950000	1	0.073250
3.966667	1	0.073125
3.983333	1	0.073375
4.000000	1	0.074500
4.016667	1	0.074125
4.033333	1	0.074250
4.050000	1	0.074625
4.066667	1	0.074500
4.083333	1	0.074375
4.100000	1	0.074375
4.116667	1	0.074500
4.133333	1	0.074875
4.150000	1	0.075000
4.166667	1	0.075125
4.183333	1	0.075250
4.200000	1	0.075625
4.216667	1	0.074625
4.233333	1	0.074125
4.250000	1	0.074375
4.266667	1	0.074625
4.283333	1	0.073625
4.300000	1	0.073250
4.316667	1	0.072750
4.333333	1	0.072875
4.350000	1	0.073250
4.366667	1	0.072250
4.383333	1	0.071000
4.400000	1	0.070125
4.416667	1	0.069375
4.433333	1	0.068375
4.450000	1	0.068000
4.466667	1	0.066875
4.483333	1	0.065875
4.500000	1	0.065000
4.516667	1	0.064125
4.533333	1	0.063000
4.550000	1	0.061750
4.566667	1	0.060500
4.583333	1	0.060125
4.600000	1	0.059625
4.616667	1	0.058500
4.633333	1	0.058375
4.650000	1	0.057625
4.666667	1	0.057250
4.683333	1	0.057000
4.700000	1	0.056750
4.716667	1	0.057250
4.733333	1	0.057250
4.750000	1	0.058000
4.766667	1	0.058250
4.783333	1	0.058875
4.800000	1	0.059875
4.816667	1	0.061125
4.833333	1	0.062750
4.850000	1	0.064250
4.866667	1	0.066125
4.883333	1	0.068375
4.900000	1	0.070000
4.916667	1	0.072750
4.933333	1	0.075750
4.950000	1	0.079125
4.966667	1	0.082250
4.983333	1	0.085625
5.000000	1	0.089000
5.016667	1	0.092750
5.033333	1	0.096750
5.050000	1	0.101375
5.066667	1	0.105250
5.083333	1	0.109500
5.100000	1	0.114000
5.116667	1	0.118500
5.133333	1	0.124125
5.150000	1	0.129125
5.166667	1	0.134250
5.183333	1	0.139000
5.200000	1	0.143875
5.216667	1	0.149000
5.233333	1	0.153625
5.250000	1	0.158125
5.266667	1	0.162750
5.283333	1	0.167625
5.300000	1	0.172625
5.316667	1	0.177625
5.333333	1	0.183125
5.350000	1	0.187875
5.366667	1	0.192750
5.383333	1	0.197500
5.400000	1	0.202625
5.416667	1	0.208375
5.433333	1	0.213000
5.450000	1	0.218000
5.466667	1	0.222500
5.483333	1	0.227125
5.500000	1	0.232125
5.516667	1	0.236375
5.533333	1	0.240750
5.550000	1	0.245875
5.566667	1	0.250500
5.583333	1	0.254625
5.600000	1	0.258250
5.616667	1	0.262500
5.633333	1	0.266500
5.650000	1	0.269875
5.666667	1	0.272375
5.683333	1	0.275125
5.700000	1	0.277625
5.716667	1	0.279625
5.733333	1	0.282125
5.750000	1	0.283875
5.766667	1	0.285625
5.783333	1	0.287000
5.800000	1	0.288625
5.816667	1	0.289250
5.833333	1	0.289375
5.850000	1	0.289125
5.866667	1	0.288375
5.883333	1	0.286875
5.900000	1	0.285500
5.916667	1	0.284000
5.933333	1	0.282500
5.950000	1	0.280625
5.966667	1	0.277750
5.983333	1	0.275750
6.000000	1	0.274125
6.016667	1	0.271000
6.033333	1	0.267875
6.050000	1	0.264625
6.066667	1	0.261250
6.083333	1	0.257875
6.100000	1	0.254250
6.116667	1	0.250375
6.133333	1	0.246000
6.150000	1	0.242250
6.166667	1	0.239125
6.183333	1	0.235000
6.200000	1	0.230875
6.216667	1	0.226250
6.233333	1	0.222250
6.250000	1	0.218500
6.266667	1	0.214250
6.283333	1	0.210375
6.300000	1	0.205875
6.316667	1	0.202250
6.333333	1	0.198375
6.350000	1	0.194375
6.366667	1	0.190625
6.383333	1	0.187125
6.400000	1	0.183250
6.416667	1	0.179625
6.433333	1	0.177000
6.450000	1	0.174000
6.466667	1	0.170375
6.483333	1	0.167000
6.500000	1	0.163375
6.516667	1	0.160375
6.533333	1	0.158125
6.550000	1	0.155625
6.566667	1	0.154250
6.583333	1	0.151500
6.600000	1	0.149750
6.616667	1	0.147750
6.633333	1	0.146000
6.650000	1	0.144625
6.666667	1	0.143125
6.683333	1	0.141250
6.700000	1	0.139750
6.716667	1	0.138750
6.733333	1	0.137500
6.750000	1	0.136375
6.766667	1	0.135250
6.783333	1	0.135250
6.800000	1	0.134500
6.816667	1	0.134000
6.833333	1	0.133875
6.850000	1	0.133500
6.866667	1	0.132125
6.883333	1	0.132125
6.900000	1	0.131750
6.916667	1	0.132125
6.933333	1	0.132375
6.950000	1	0.132125
6.966667	1	0.131875
6.983333	1	0.132000
7.000000	1	0.132750
7.016667	1	0.133000
7.033333	1	0.132875
7.050000	1	0.133375
7.066667	1	0.133375
7.083333	1	0.134375
7.100000	1	0.134750
7.116667	1	0.135500
7.133333	1	0.136875
7.150000	1	0.137625
7.166667	1	0.138750
7.183333	1	0.139500
7.200000	1	0.141000
7.216667	1	0.142375
7.233333	1	0.143000
7.250000	1	0.144625
7.266667	1	0.146125
7.283333	1	0.147750
7.300000	1	0.149875
7.316667	1	0.151875
7.333333	1	0.154125
7.350000	1	0.155875
7.366667	1	0.158375
7.383333	1	0.160625
7.400000	1	0.162375
7.416667	1	0.164500
7.433333	1	0.166125
7.450000	1	0.168000
7.466667	1	0.170000
7.483333	1	0.171250
7.500000	1	0.172625
7.516667	1	0.173750
7.533333	1	0.174750
7.550000	1	0.175875
7.566667	1	0.176625
7.583333	1	0.177125
7.600000	1	0.177625
7.616667	1	0.178000
7.633333	1	0.177875
7.650000	1	0.177500
7.666667	1	0.176500
7.683333	1	0.176750
7.700000	1	0.175625
7.716667	1	0.175125
7.733333	1	0.174125
7.750000	1	0.172875
7.766667	1	0.171625
7.783333	1	0.170000
7.800000	1	0.168875
7.816667	1	0.167250
7.833333	1	0.165125
7.850000	1	0.162125
7.866667	1	0.160000
7.883333	1	0.157500
7.900000	1	0.155125
7.916667	1	0.152375
7.933333	1	0.149625
7.950000	1	0.146625
7.966667	1	0.143750
7.983333	1	0.140125
8.000000	1	0.136875
8.016667	1	0.134125
8.033333	1	0.130000
8.050000	1	0.127000
8.066667	1	0.122750
8.083333	1	0.119000
8.100000	1	0.116000
8.116667	1	0.112500
8.133333	1	0.109500
8.150000	1	0.106125
8.166667	1	0.102875
8.183333	1	0.100250
8.200000	1	0.096875
8.216667	1	0.093750
8.233333	1	0.090375
8.250000	1	0.087375
8.266667	1	0.084875
8.283333	1	0.082125
8.300000	1	0.079625
8.316667	1	0.078875
8.333333	1	0.076750
8.350000	1	0.074875
8.366667	1	0.072750
8.383333	1	0.070750
8.400000	1	0.068500
8.416667	1	0.067375
8.433333	1	0.065875
8.450000	1	0.064625
8.466667	1	0.063125
8.483333	1	0.061375
8.500000	1	0.060250
8.516667	1	0.059875
8.533333	1	0.059125
8.550000	1	0.058250
8.566667	1	0.057500
8.583333	1	0.057000
8.600000	1	0.056250
8.616667	1	0.055500
8.633333	1	0.055125
8.650000	1	0.055875
8.666667	1	0.056000
8.683333	1	0.056125
8.700000	1	0.056000
8.716667	1	0.056625
8.733333	1	0.057500
8.750000	1	0.058500
8.766667	1	0.059125
8.783333	1	0.060250
8.800000	1	0.061500
8.816667	1	0.062250
8.833333	1	0.064000
8.850000	1	0.065125
8.866667	1	0.066125
8.883333	1	0.067500
8.900000	1	0.068875
8.916667	1	0.070125
8.933333	1	0.072000
8.950000	1	0.074375
8.966667	1	0.076125
8.983333	1	0.078250
9.000000	1	0.080000
9.016667	1	0.081250
9.033333	1	0.082875
9.050000	1	0.084375
9.066667	1	0.086000
9.083333	1	0.087125
9.100000	1	0.088125
9.116667	1	0.089250
9.133333	1	0.090250
9.150000	1	0.091500
9.166667	1	0.092875
9.183333	1	0.093875
9.200000	1	0.094000
9.216667	1	0.094250
9.233333	1	0.094375
9.250000	1	0.094125
9.266667	1	0.094125
9.283333	1	0.094125
9.300000	1	0.093750
9.316667	1	0.093125
9.333333	1	0.092500
9.350000	1	0.091875
9.366667	1	0.091625
9.383333	1	0.090625
9.400000	1	0.089625
9.416667	1	0.088500
9.433333	1	0.087375
9.450000	1	0.085750
9.466667	1	0.084625
9.483333	1	0.083125
9.500000	1	0.082125
9.516667	1	0.080375
9.533333	1	0.079125
9.550000	1	0.077750
9.566667	1	0.076875
9.583333	1	0.075500
9.600000	1	0.074500
9.616667	1	0.074000
9.633333	1	0.073500
9.650000	1	0.072500
9.666667	1	0.072875
9.683333	1	0.072375
9.700000	1	0.071750
9.716667	1	0.071875
9.733333	1	0.072000
9.750000	1	0.071750
9.766667	1	0.071125
9.783333	1	0.071625
9.800000	1	0.071500
9.816667	1	0.071875
9.833333	1	0.071875
9.850000	1	0.072000
9.866667	1	0.071875
9.883333	1	0.071625
9.900000	1	0.071125
9.916667	1	0.071375
9.933333	1	0.071375
9.950000	1	0.071125
9.966667	1	0.070875
9.983333	1	0.070750
10.000000	1	0.071125
10.016667	1	0.071375
10.033333	1	0.071875
10.050000	1	0.073375
10.066667	1	0.075375
10.083333	1	0.078500
10.100000	1	0.081875
10.116667	1	0.085875
10.133333	1	0.091875
10.150000	1	0.098250
10.166667	1	0.106125
10.183333	1	0.115625
10.200000	1	0.126375
10.216667	1	0.138500
10.233333	1	0.153375
10.250000	1	0.170125
10.266667	1	0.189125
10.283333	1	0.210625
10.300000	1	0.235000
10.316667	1	0.262000
10.333333	1	0.291750
10.350000	1	0.324875
10.366667	1	0.359375
10.383333	1	0.395125
10.400000	1	0.429125
10.416667	1	0.458000
10.433333	1	0.472500
10.450000	1	0.466375
10.466667	1	0.434500
10.483333	1	0.378875
10.500000	1	0.318125
10.516667	1	0.288125
10.533333	1	0.348125
10.550000	1	0.574375
10.566667	1	1.055625
10.583333	1	1.877500
10.600000	1	3.120500
10.616667	1	4.847875
10.633333	1	7.102125
10.650000	1	9.906250
10.666667	1	13.268500
10.683333	1	17.178500
10.700000	1	21.603625
10.716667	1	26.483500
10.733333	1	31.721875
10.750000	1	37.169375
10.766667	1	42.604625
10.783333	1	47.728125
10.800000	1	52.155750
10.816667	1	55.442000
10.833333	1	57.170750
10.850000	1	57.067125
10.866667	1	55.095000
10.883333	1	51.488500
10.900000	1	46.695500
10.916667	1	41.249375
10.933333	1	35.650125
10.950000	1	30.279000
10.966667	1	25.379500
10.983333	1	21.076375
11.000000	1	17.405250
11.016667	1	14.344000
11.033333	1	11.841000
11.050000	1	9.823375
11.066667	1	8.214750
11.083333	1	6.940625
11.100000	1	5.934750
11.116667	1	5.140625
11.133333	1	4.510000
11.150000	1	4.005500
11.166667	1	3.598000
11.183333	1	3.265125
11.200000	1	2.989375
11.216667	1	2.757500
11.233333	1	2.560500
11.250000	1	2.390250
11.266667	1	2.241250
11.283333	1	2.109875
11.300000	1	1.994375
11.316667	1	1.891625
11.333333	1	1.800625
11.350000	1	1.719625
11.366667	1	1.648250
11.383333	1	1.585000
11.400000	1	1.528875
11.416667	1	1.479500
11.433333	1	1.437125
11.450000	1	1.400375
11.466667	1	1.368875
11.483333	1	1.342750
11.500000	1	1.321000
11.516667	1	1.303500
11.533333	1	1.290875
11.550000	1	1.281375
11.566667	1	1.275000
11.583333	1	1.271375
11.600000	1	1.269375
11.616667	1	1.268375
11.633333	1	1.267750
11.650000	1	1.266375
11.666667	1	1.264000
11.683333	1	1.261250
11.700000	1	1.257500
11.716667	1	1.253375
11.733333	1	1.248125
11.750000	1	1.242625
11.766667	1	1.237875
11.783333	1	1.234625
11.800000	1	1.231625
11.816667	1	1.228875
11.833333	1	1.227500
11.850000	1	1.226375
11.866667	1	1.226375
11.883333	1	1.227625
11.900000	1	1.228375
11.916667	1	1.230750
11.933333	1	1.233000
11.950000	1	1.235250
11.966667	1	1.238125
11.983333	1	1.241500
12.000000	1	1.244625
12.016667	1	1.248000
12.033333	1	1.251750
12.050000	1	1.255875
12.066667	1	1.260625
12.083333	1	1.265375
12.100000	1	1.271125
12.116667	1	1.276750
12.133333	1	1.283625
12.150000	1	1.290375
12.166667	1	1.298625
12.183333	1	1.307500
12.200000	1	1.317500
12.216667	1	1.328500
12.233333	1	1.341750
12.250000	1	1.356375
12.266667	1	1.373125
12.283333	1	1.391250
12.300000	1	1.412000
12.316667	1	1.434500
12.333333	1	1.460125
12.350000	1	1.488750
12.366667	1	1.520625
12.383333	1	1.557875
12.400000	1	1.601250
12.416667	1	1.653625
12.433333	1	1.717125
12.450000	1	1.796375
12.466667	1	1.893625
12.483333	1	2.013625
12.500000	1	2.159000
12.516667	1	2.331000
12.533333	1	2.531125
12.550000	1	2.760250
12.566667	1	3.015250
12.583333	1	3.295375
12.600000	1	3.597625
12.616667	1	3.917125
12.633333	1	4.249000
12.650000	1	4.585625
12.666667	1	4.921000
12.683333	1	5.244875
12.700000	1	5.549625
12.716667	1	5.823250
12.733333	1	6.056750
12.750000	1	6.241500
12.766667	1	6.371750
12.783333	1	6.445375
12.800000	1	6.465000
12.816667	1	6.434750
12.833333	1	6.359875
12.850000	1	6.247750
12.866667	1	6.105875
12.883333	1	5.938875
12.900000	1	5.752875
12.916667	1	5.552375
12.933333	1	5.339500
12.950000	1	5.121250
12.966667	1	4.902000
12.983333	1	4.686000
13.000000	1	4.476625
13.016667	1	4.277375
13.033333	1	4.090375
13.050000	1	3.917000
13.066667	1	3.756250
13.083333	1	3.609250
13.100000	1	3.475500
13.116667	1	3.352750
13.133333	1	3.241000
13.150000	1	3.139875
13.166667	1	3.046500
13.183333	1	2.960750
13.200000	1	2.882000
13.216667	1	2.809625
13.233333	1	2.742625
13.250000	1	2.680625
13.266667	1	2.622875
13.283333	1	2.568250
13.300000	1	2.516875
13.316667	1	2.469250
13.333333	1	2.424625
13.350000	1	2.383375
13.366667	1	2.344125
13.383333	1	2.308250
13.400000	1	2.275750
13.416667	1	2.245000
13.433333	1	2.218625
13.450000	1	2.195250
13.466667	1	2.176500
13.483333	1	2.161375
13.500000	1	2.149500
13.516667	1	2.141375
13.533333	1	2.136750
13.550000	1	2.133875
13.566667	1	2.132750
13.583333	1	2.131500
13.600000	1	2.128500
13.616667	1	2.122375
13.633333	1	2.113250
13.650000	1	2.099125
13.666667	1	2.080500
13.683333	1	2.057625
13.700000	1	2.030500
13.716667	1	2.000125
13.733333	1	1.966750
13.750000	1	1.932125
13.766667	1	1.896500
13.783333	1	1.861500
13.800000	1	1.826750
13.816667	1	1.793625
13.833333	1	1.761625
13.850000	1	1.731250
13.866667	1	1.703375
13.883333	1	1.677750
13.900000	1	1.653500
13.916667	1	1.630500
13.933333	1	1.609000
13.950000	1	1.589375
13.966667	1	1.570375
13.983333	1	1.552875
14.000000	1	1.536375
14.016667	1	1.521000
14.033333	1	1.506000
14.050000	1	1.491875
14.066667	1	1.478250
14.083333	1	1.465500
14.100000	1	1.453375
14.116667	1	1.441875
14.133333	1	1.430750
14.150000	1	1.419125
14.166667	1	1.408625
14.183333	1	1.399125
14.200000	1	1.390875
14.216667	1	1.383375
14.233333	1	1.378125
14.250000	1	1.374125
14.266667	1	1.372125
14.283333	1	1.371375
14.300000	1	1.372250
14.316667	1	1.375875
14.333333	1	1.381750
14.350000	1	1.390375
14.366667	1	1.401875
14.383333	1	1.416875
14.400000	1	1.436000
14.416667	1	1.461625
14.433333	1	1.495375
14.450000	1	1.543625
14.466667	1	1.613500
14.483333	1	1.716750
14.500000	1	1.871375
14.516667	1	2.100875
14.533333	1	2.438875
14.550000	1	2.926875
14.566667	1	3.616000
14.583333	1	4.566000
14.600000	1	5.844250
14.616667	1	7.523750
14.633333	1	9.674750
14.650000	1	12.359375
14.666667	1	15.617750
14.683333	1	19.462375
14.700000	1	23.862375
14.716667	1	28.738375
14.733333	1	33.970250
14.750000	1	39.392500
14.766667	1	44.799375
14.783333	1	49.956875
14.800000	1	54.637250
14.816667	1	58.621125
14.833333	1	61.720125
14.850000	1	63.790125
14.866667	1	64.750875
14.883333	1	64.585250
14.900000	1	63.344875
14.916667	1	61.141500
14.933333	1	58.130125
14.950000	1	54.493625
14.966667	1	50.426250
14.983333	1	46.117750
15.000000	1	41.733500
15.016667	1	37.412500
15.033333	1	33.264250
15.050000	1	29.368750
15.066667	1	25.778875
15.083333	1	22.522250
15.100000	1	19.604875
15.116667	1	17.022000
15.133333	1	14.755250
15.150000	1	12.780625
15.166667	1	11.071125
15.183333	1	9.599000
15.200000	1	8.335000
15.216667	1	7.254500
15.233333	1	6.334875
15.250000	1	5.555625
15.266667	1	4.899375
15.283333	1	4.351125
15.300000	1	3.896250
15.316667	1	3.523750
15.333333	1	3.222375
15.350000	1	2.982250
15.366667	1	2.793125
15.383333	1	2.647750
15.400000	1	2.537000
15.416667	1	2.454875
15.433333	1	2.393500
15.450000	1	2.347375
15.466667	1	2.310250
15.483333	1	2.277500
15.500000	1	2.247000
15.516667	1	2.216000
15.533333	1	2.181375
15.550000	1	2.143625
15.566667	1	2.103250
15.583333	1	2.061000
15.600000	1	2.016750
15.616667	1	1.973000
15.633333	1	1.930375
15.650000	1	1.889375
15.666667	1	1.850375
15.683333	1	1.814000
15.700000	1	1.780125
15.716667	1	1.748750
15.733333	1	1.719750
15.750000	1	1.692875
15.766667	1	1.666500
15.783333	1	1.641500
15.800000	1	1.616625
15.816667	1	1.592375
15.833333	1	1.567500
15.850000	1	1.543375
15.866667	1	1.520250
15.883333	1	1.497500
15.900000	1	1.475375
15.916667	1	1.454500
15.933333	1	1.435875
15.950000	1	1.419375
15.966667	1	1.405250
15.983333	1	1.392875
16.000000	1	1.382000
16.016667	1	1.373125
16.033333	1	1.366000
16.050000	1	1.360250
16.066667	1	1.356375
16.083333	1	1.353000
16.100000	1	1.350750
16.116667	1	1.348750
16.133333	1	1.347375
16.150000	1	1.345250
16.166667	1	1.343375
16.183333	1	1.340625
16.200000	1	1.337875
16.216667	1	1.335000
16.233333	1	1.330875
16.250000	1	1.325875
16.266667	1	1.320875
16.283333	1	1.315375
16.300000	1	1.309500
16.316667	1	1.302750
16.333333	1	1.296875
16.350000	1	1.291875
16.366667	1	1.287625
16.383333	1	1.284250
16.400000	1	1.282750
16.416667	1	1.283250
16.433333	1	1.284375
16.450000	1	1.287250
16.466667	1	1.291250
16.483333	1	1.295750
16.500000	1	1.299625
16.516667	1	1.304375
16.533333	1	1.308125
16.550000	1	1.311750
16.566667	1	1.314000
16.583333	1	1.315125
16.600000	1	1.314250
16.616667	1	1.311375
16.633333	1	1.308250
16.650000	1	1.304375
16.666667	1	1.300125
16.683333	1	1.295500
16.700000	1	1.291500
16.716667	1	1.288250
16.733333	1	1.286875
16.750000	1	1.287000
16.766667	1	1.288500
16.783333	1	1.291750
16.800000	1	1.295875
16.816667	1	1.301250
16.833333	1	1.307250
16.850000	1	1.313125
16.866667	1	1.319000
16.883333	1	1.324125
16.900000	1	1.327500
16.916667	1	1.329500
16.933333	1	1.330750
16.950000	1	1.331000
16.966667	1	1.329375
16.983333	1	1.326500
17.000000	1	1.322875
17.016667	1	1.318875
17.033333	1	1.315250
17.050000	1	1.311000
17.066667	1	1.307000
17.083333	1	1.302750
17.100000	1	1.299625
17.116667	1	1.296750
17.133333	1	1.294500
17.150000	1	1.294250
17.166667	1	1.294500
17.183333	1	1.295500
17.200000	1	1.297125
17.216667	1	1.300250
17.233333	1	1.303250
17.250000	1	1.307000
17.266667	1	1.311875
17.283333	1	1.317000
17.300000	1	1.322000
17.316667	1	1.328000
17.333333	1	1.332875
17.350000	1	1.338375
17.366667	1	1.343875
17.383333	1	1.349250
17.400000	1	1.353875
17.416667	1	1.357000
17.433333	1	1.359625
17.450000	1	1.360625
17.466667	1	1.360250
17.483333	1	1.358125
17.500000	1	1.354750
17.516667	1	1.349000
17.533333	1	1.342125
17.550000	1	1.333375
17.566667	1	1.323000
17.583333	1	1.312000
17.600000	1	1.299250
17.616667	1	1.285625
17.633333	1	1.271125
17.650000	1	1.256000
17.666667	1	1.240375
17.683333	1	1.224125
17.700000	1	1.207500
17.716667	1	1.192250
17.733333	1	1.176625
17.750000	1	1.161750
17.766667	1	1.147375
17.783333	1	1.133875
17.800000	1	1.121125
17.816667	1	1.109000
17.833333	1	1.097375
17.850000	1	1.087875
17.866667	1	1.078250
17.883333	1	1.069750
17.900000	1	1.061875
17.916667	1	1.054250
17.933333	1	1.047250
17.950000	1	1.040125
17.966667	1	1.033250
17.983333	1	1.026625
18.000000	1	1.019375
18.016667	1	1.012625
18.033333	1	1.006000
18.050000	1	0.999500
18.066667	1	0.992875
18.083333	1	0.987000
18.100000	1	0.981125
18.116667	1	0.975500
18.133333	1	0.970875
18.150000	1	0.966125
18.166667	1	0.962875
18.183333	1	0.960125
18.200000	1	0.957500
18.216667	1	0.955250
18.233333	1	0.953750
18.250000	1	0.952750
18.266667	1	0.952000
18.283333	1	0.951250
18.300000	1	0.950625
18.316667	1	0.949750
18.333333	1	0.949875
18.350000	1	0.950875
18.366667	1	0.952375
18.383333	1	0.954500
18.400000	1	0.958125
18.416667	1	0.963250
18.433333	1	0.969875
18.450000	1	0.978000
18.466667	1	0.987625
18.483333	1	0.998750
18.500000	1	1.012875
18.516667	1	1.029375
18.533333	1	1.047250
18.550000	1	1.067375
18.566667	1	1.089375
18.583333	1	1.113375
18.600000	1	1.138625
18.616667	1	1.166000
18.633333	1	1.195125
18.650000	1	1.225250
18.666667	1	1.256500
18.683333	1	1.289250
18.700000	1	1.322750
18.716667	1	1.356875
18.733333	1	1.390875
18.750000	1	1.425500
18.766667	1	1.459875
18.783333	1	1.492750
18.800000	1	1.524750
18.816667	1	1.554250
18.833333	1	1.580750
18.850000	1	1.603625
18.866667	1	1.621875
18.883333	1	1.634625
18.900000	1	1.642000
18.916667	1	1.643125
18.933333	1	1.638750
18.950000	1	1.627250
18.966667	1	1.610000
18.983333	1	1.585625
19.000000	1	1.556375
19.016667	1	1.520500
19.033333	1	1.481500
19.050000	1	1.438000
19.066667	1	1.391875
19.083333	1	1.344000
19.100000	1	1.295625
19.116667	1	1.247125
19.133333	1	1.199875
19.150000	1	1.155125
19.166667	1	1.113125
19.183333	1	1.075250
19.200000	1	1.040875
19.216667	1	1.011750
19.233333	1	0.987500
19.250000	1	0.968750
19.266667	1	0.956375
19.283333	1	0.950125
19.300000	1	0.949500
19.316667	1	0.955875
19.333333	1	0.967500
19.350000	1	0.984000
19.366667	1	1.006125
19.383333	1	1.034125
19.400000	1	1.064125
19.416667	1	1.096375
19.433333	1	1.130750
19.450000	1	1.165875
19.466667	1	1.201625
19.483333	1	1.235625
19.500000	1	1.267875
19.516667	1	1.297000
19.533333	1	1.322500
19.550000	1	1.344000
19.566667	1	1.361375
19.583333	1	1.373625
19.600000	1	1.381250
19.616667	1	1.384250
19.633333	1	1.381875
19.650000	1	1.374625
19.666667	1	1.363875
19.683333	1	1.349375
19.700000	1	1.330250
19.716667	1	1.307250
19.733333	1	1.282250
19.750000	1	1.254250
19.766667	1	1.224750
19.783333	1	1.192500
19.800000	1	1.159750
19.816667	1	1.125750
19.833333	1	1.091125
19.850000	1	1.056500
19.866667	1	1.023000
19.883333	1	0.990625
19.900000	1	0.959375
19.916667	1	0.930625
19.933333	1	0.905000
19.950000	1	0.882750
19.966667	1	0.863625
19.983333	1	0.848125
20.000000	1	0.838125
20.016667	1	0.832625
20.033333	1	0.832625
20.050000	1	0.839000
20.066667	1	0.850500
20.083333	1	0.868250
20.100000	1	0.892250
20.116667	1	0.921750
20.133333	1	0.956375
20.150000	1	0.994875
20.166667	1	1.037250
20.183333	1	1.081125
20.200000	1	1.125625
20.216667	1	1.169125
20.233333	1	1.208875
20.250000	1	1.245375
20.266667	1	1.275500
20.283333	1	1.298750
20.300000	1	1.315625
20.316667	1	1.323500
20.333333	1	1.323500
20.350000	1	1.315250
20.366667	1	1.299000
20.383333	1	1.275000
20.400000	1	1.246125
20.416667	1	1.212375
20.433333	1	1.176375
20.450000	1	1.138375
20.466667	1	1.102000
20.483333	1	1.068125
20.500000	1	1.037750
20.516667	1	1.014250
20.533333	1	0.999000
20.550000	1	0.993625
20.566667	1	0.999875
20.583333	1	1.019375
20.600000	1	1.053750
20.616667	1	1.103875
20.633333	1	1.170500
20.650000	1	1.254750
20.666667	1	1.356875
20.683333	1	1.475625
20.700000	1	1.608750
20.716667	1	1.755625
20.733333	1	1.913125
20.750000	1	2.077375
20.766667	1	2.244875
20.783333	1	2.410000
20.800000	1	2.567875
20.816667	1	2.713250
20.833333	1	2.841375
20.850000	1	2.948250
20.866667	1	3.030750
20.883333	1	3.085625
20.900000	1	3.113000
20.916667	1	3.112125
20.933333	1	3.082875
20.950000	1	3.027500
20.966667	1	2.948125
20.983333	1	2.849125
21.000000	1	2.734375
21.016667	1	2.607625
21.033333	1	2.471750
21.050000	1	2.330750
21.066667	1	2.188875
21.083333	1	2.047125
21.100000	1	1.910875
21.116667	1	1.780500
21.133333	1	1.656250
21.150000	1	1.540250
21.166667	1	1.433000
21.183333	1	1.333625
21.200000	1	1.243875
21.216667	1	1.161750
21.233333	1	1.088000
21.250000	1	1.021375
21.266667	1	0.961625
21.283333	1	0.908875
21.300000	1	0.861625
21.316667	1	0.819500
21.333333	1	0.782250
21.350000	1	0.749125
21.366667	1	0.720125
21.383333	1	0.694875
21.400000	1	0.672375
21.416667	1	0.652250
21.433333	1	0.635500
21.450000	1	0.620500
21.466667	1	0.606000
21.483333	1	0.594875
21.500000	1	0.585125
21.516667	1	0.576125
21.533333	1	0.568500
21.550000	1	0.562625
21.566667	1	0.557125
21.583333	1	0.553625
21.600000	1	0.550250
21.616667	1	0.548250
21.633333	1	0.546500
21.650000	1	0.545000
21.666667	1	0.545250
21.683333	1	0.546125
21.700000	1	0.547625
21.716667	1	0.549500
21.733333	1	0.551375
21.750000	1	0.553375
21.766667	1	0.556250
21.783333	1	0.559125
21.800000	1	0.562375
21.816667	1	0.566250
21.833333	1	0.569875
21.850000	1	0.574125
21.866667	1	0.578375
21.883333	1	0.582375
21.900000	1	0.586875
21.916667	1	0.591875
21.933333	1	0.597250
21.950000	1	0.603250
21.966667	1	0.609125
21.983333	1	0.615250
22.000000	1	0.621625
22.016667	1	0.628500
22.033333	1	0.635375
22.050000	1	0.641875
22.066667	1	0.648125
22.083333	1	0.654875
22.100000	1	0.660625
22.116667	1	0.667250
22.133333	1	0.672375
22.150000	1	0.676000
22.166667	1	0.678250
22.183333	1	0.679875
22.200000	1	0.679625
22.216667	1	0.678625
22.233333	1	0.675625
22.250000	1	0.671875
22.266667	1	0.666375
22.283333	1	0.659375
22.300000	1	0.651125
22.316667	1	0.642500
22.333333	1	0.633000
22.350000	1	0.622000
22.366667	1	0.611125
22.383333	1	0.599875
22.400000	1	0.588250
22.416667	1	0.576125
22.433333	1	0.564000
22.450000	1	0.552500
22.466667	1	0.541375
22.483333	1	0.530750
22.500000	1	0.520500
22.516667	1	0.510000
22.533333	1	0.500500
22.550000	1	0.491750
22.566667	1	0.483750
22.583333	1	0.476125
22.600000	1	0.468875
22.616667	1	0.461250
22.633333	1	0.454750
22.650000	1	0.448625
22.666667	1	0.442875
22.683333	1	0.437375
22.700000	1	0.432125
22.716667	1	0.427375
22.733333	1	0.422375
22.750000	1	0.418125
22.766667	1	0.413625
22.783333	1	0.409750
22.800000	1	0.406000
22.816667	1	0.401750
22.833333	1	0.399000
22.850000	1	0.395875
22.866667	1	0.392750
22.883333	1	0.390500
22.900000	1	0.388125
22.916667	1	0.386250
22.933333	1	0.384625
22.950000	1	0.383250
22.966667	1	0.382000
22.983333	1	0.381125
23.000000	1	0.380500
23.016667	1	0.380250
23.033333	1	0.380375
23.050000	1	0.380625
23.066667	1	0.381625
23.083333	1	0.382375
23.100000	1	0.383250
23.116667	1	0.383750
23.133333	1	0.385125
23.150000	1	0.387250
23.166667	1	0.389125
23.183333	1	0.391625
23.200000	1	0.393625
23.216667	1	0.396250
23.233333	1	0.399875
23.250000	1	0.403625
23.266667	1	0.408750
23.283333	1	0.415250
23.300000	1	0.423375
23.316667	1	0.434500
23.333333	1	0.448500
23.350000	1	0.466875
23.366667	1	0.491125
23.383333	1	0.521875
23.400000	1	0.561500
23.416667	1	0.611500
23.433333	1	0.674375
23.450000	1	0.750375
23.466667	1	0.844375
23.483333	1	0.958875
23.500000	1	1.093500
23.516667	1	1.253125
23.533333	1	1.438500
23.550000	1	1.651375
23.566667	1	1.892250
23.583333	1	2.162125
23.600000	1	2.459250
23.616667	1	2.781125
23.633333	1	3.124375
23.650000	1	3.485875
23.666667	1	3.860000
23.683333	1	4.241250
23.700000	1	4.622625
23.716667	1	4.996625
23.733333	1	5.355625
23.750000	1	5.691250
23.766667	1	5.996000
23.783333	1	6.262750
23.800000	1	6.486375
23.816667	1	6.662125
23.833333	1	6.786125
23.850000	1	6.857125
23.866667	1	6.875375
23.883333	1	6.841750
23.900000	1	6.758375
23.916667	1	6.628500
23.933333	1	6.457750
23.950000	1	6.250750
23.966667	1	6.013500
23.983333	1	5.751750
24.000000	1	5.472125
24.016667	1	5.181250
24.033333	1	4.883250
24.050000	1	4.585000
24.066667	1	4.289500
24.083333	1	4.000625
24.100000	1	3.719875
24.116667	1	3.450000
24.133333	1	3.193750
24.150000	1	2.951000
24.166667	1	2.723000
24.183333	1	2.510875
24.200000	1	2.312875
24.216667	1	2.129625
24.233333	1	1.960875
24.250000	1	1.806500
24.266667	1	1.665250
24.283333	1	1.535500
24.300000	1	1.418000
24.316667	1	1.311750
24.333333	1	1.216125
24.350000	1	1.129500
24.366667	1	1.052750
24.383333	1	0.983375
24.400000	1	0.922375
24.416667	1	0.868500
24.433333	1	0.821750
24.450000	1	0.780500
24.466667	1	0.745125
24.483333	1	0.713750
24.500000	1	0.686250
24.516667	1	0.663250
24.533333	1	0.643375
24.550000	1	0.626500
24.566667	1	0.611125
24.583333	1	0.598000
24.600000	1	0.586375
24.616667	1	0.576000
24.633333	1	0.566375
24.650000	1	0.558500
24.666667	1	0.550750
24.683333	1	0.543750
24.700000	1	0.537125
24.716667	1	0.530000
24.733333	1	0.523375
24.750000	1	0.517375
24.766667	1	0.511625
24.783333	1	0.505875
24.800000	1	0.499750
24.816667	1	0.493750
24.833333	1	0.488500
24.850000	1	0.483125
24.866667	1	0.477875
24.883333	1	0.473250
24.900000	1	0.469250
24.916667	1	0.464375
24.933333	1	0.459375
24.950000	1	0.454875
24.966667	1	0.451625
24.983333	1	0.448500
25.000000	1	0.445375
25.016667	1	0.442375
25.033333	1	0.439625
25.050000	1	0.436625
25.066667	1	0.433750
25.083333	1	0.431000
25.100000	1	0.428375
25.116667	1	0.426000
25.133333	1	0.423875
25.150000	1	0.421750
25.166667	1	0.419000
25.183333	1	0.416250
25.200000	1	0.414250
25.216667	1	0.411875
25.233333	1	0.409375
25.250000	1	0.407625
25.266667	1	0.405625
25.283333	1	0.403750
25.300000	1	0.401750
25.316667	1	0.400125
25.333333	1	0.399125
25.350000	1	0.397875
25.366667	1	0.396750
25.383333	1	0.395875
25.400000	1	0.395625
25.416667	1	0.394875
25.433333	1	0.394250
25.450000	1	0.394500
25.466667	1	0.395250
25.483333	1	0.395250
25.500000	1	0.395000
25.516667	1	0.396000
25.533333	1	0.397125
25.550000	1	0.397500
25.566667	1	0.398000
25.583333	1	0.398750
25.600000	1	0.399125
25.616667	1	0.399500
25.633333	1	0.399625
25.650000	1	0.399500
25.666667	1	0.399500
25.683333	1	0.399625
25.700000	1	0.399000
25.716667	1	0.398250
25.733333	1	0.398125
25.750000	1	0.397125
25.766667	1	0.395875
25.783333	1	0.394125
25.800000	1	0.393625
25.816667	1	0.392250
25.833333	1	0.390875
25.850000	1	0.389250
25.866667	1	0.389000
25.883333	1	0.386875
25.900000	1	0.386125
25.916667	1	0.386375
25.933333	1	0.386625
25.950000	1	0.386625
25.966667	1	0.387625
25.983333	1	0.388750
26.000000	1	0.390250
26.016667	1	0.392500
26.033333	1	0.395375
26.050000	1	0.398625
26.066667	1	0.402125
26.083333	1	0.406875
26.100000	1	0.412250
26.116667	1	0.417375
26.133333	1	0.423000
26.150000	1	0.428625
26.166667	1	0.434500
26.183333	1	0.440250
26.200000	1	0.446000
26.216667	1	0.452875
26.233333	1	0.459500
26.250000	1	0.465125
26.266667	1	0.470500
26.283333	1	0.476375
26.300000	1	0.481250
26.316667	1	0.485375
26.333333	1	0.489250
26.350000	1	0.492500
26.366667	1	0.494625
26.383333	1	0.497125
26.400000	1	0.497500
26.416667	1	0.497750
26.433333	1	0.496750
26.450000	1	0.495375
26.466667	1	0.492375
26.483333	1	0.489375
26.500000	1	0.486250
26.516667	1	0.481625
26.533333	1	0.476625
26.550000	1	0.471375
26.566667	1	0.465875
26.583333	1	0.459000
26.600000	1	0.453000
26.616667	1	0.445875
26.633333	1	0.438500
26.650000	1	0.431875
26.666667	1	0.424500
26.683333	1	0.417375
26.700000	1	0.410125
26.716667	1	0.403750
26.733333	1	0.397250
26.750000	1	0.391125
26.766667	1	0.385625
26.783333	1	0.379625
26.800000	1	0.374500
26.816667	1	0.369500
26.833333	1	0.365375
26.850000	1	0.361250
26.866667	1	0.357500
26.883333	1	0.354875
26.900000	1	0.352625
26.916667	1	0.350125
26.933333	1	0.348250
26.950000	1	0.346500
26.966667	1	0.345000
26.983333	1	0.344500
27.000000	1	0.344000
27.016667	1	0.343875
27.033333	1	0.344875
27.050000	1	0.345500
27.066667	1	0.347125
27.083333	1	0.348500
27.100000	1	0.350500
27.116667	1	0.353375
27.133333	1	0.356500
27.150000	1	0.360250
27.166667	1	0.364500
27.183333	1	0.369625
27.200000	1	0.375875
27.216667	1	0.383250
27.233333	1	0.391875
27.250000	1	0.401750
27.266667	1	0.414125
27.283333	1	0.429250
27.300000	1	0.447625
27.316667	1	0.469000
27.333333	1	0.494500
27.350000	1	0.523875
27.366667	1	0.559000
27.383333	1	0.599500
27.400000	1	0.646875
27.416667	1	0.702000
27.433333	1	0.765625
27.450000	1	0.838375
27.466667	1	0.921000
27.483333	1	1.014375
27.500000	1	1.118375
27.516667	1	1.233375
27.533333	1	1.360625
27.550000	1	1.499750
27.566667	1	1.648375
27.583333	1	1.808750
27.600000	1	1.977875
27.616667	1	2.156875
27.633333	1	2.342375
27.650000	1	2.533000
27.666667	1	2.728000
27.683333	1	2.923750
27.700000	1	3.117000
27.716667	1	3.306750
27.733333	1	3.488875
27.750000	1	3.661000
27.766667	1	3.819750
27.783333	1	3.962875
27.800000	1	4.088875
27.816667	1	4.194625
27.833333	1	4.277500
27.850000	1	4.336750
27.866667	1	4.372125
27.883333	1	4.382250
27.900000	1	4.367375
27.916667	1	4.327625
27.933333	1	4.264500
27.950000	1	4.178625
27.966667	1	4.072625
27.983333	1	3.948875
28.000000	1	3.809875
28.016667	1	3.657375
28.033333	1	3.495500
28.050000	1	3.326000
28.066667	1	3.150375
28.083333	1	2.972125
28.100000	1	2.793875
28.116667	1	2.617625
28.133333	1	2.446000
28.150000	1	2.278875
28.166667	1	2.117500
28.183333	1	1.964375
28.200000	1	1.819250
28.216667	1	1.683000
28.233333	1	1.555875
28.250000	1	1.437750
28.266667	1	1.328625
28.283333	1	1.228625
28.300000	1	1.136875
28.316667	1	1.053375
28.333333	1	0.977500
28.350000	1	0.909750
28.366667	1	0.848375
28.383333	1	0.794500
28.400000	1	0.746000
28.416667	1	0.703625
28.433333	1	0.666625
28.450000	1	0.635375
28.466667	1	0.608500
28.483333	1	0.586125
28.500000	1	0.566875
28.516667	1	0.551500
28.533333	1	0.539125
28.550000	1	0.530250
28.566667	1	0.524875
28.583333	1	0.521125
28.600000	1	0.519750
28.616667	1	0.520250
28.633333	1	0.522625
28.650000	1	0.526875
28.666667	1	0.532625
28.683333	1	0.539625
28.700000	1	0.546875
28.716667	1	0.553750
28.733333	1	0.561625
28.750000	1	0.569625
28.766667	1	0.578250
28.783333	1	0.586625
28.800000	1	0.594750
28.816667	1	0.602750
28.833333	1	0.610250
28.850000	1	0.616375
28.866667	1	0.622125
28.883333	1	0.627125
28.900000	1	0.629875
28.916667	1	0.632500
28.933333	1	0.634375
28.950000	1	0.635375
28.966667	1	0.634375
28.983333	1	0.632000
29.000000	1	0.627875
29.016667	1	0.623375
29.033333	1	0.617375
29.050000	1	0.609375
29.066667	1	0.599875
29.083333	1	0.589500
29.100000	1	0.576750
29.116667	1	0.561375
29.133333	1	0.545625
29.150000	1	0.527625
29.166667	1	0.507375
29.183333	1	0.486375
29.200000	1	0.463125
29.216667	1	0.438625
29.233333	1	0.411875
29.250000	1	0.383250
29.266667	1	0.353125
29.283333	1	0.320750
29.300000	1	0.286500
29.316667	1	0.249375
29.333333	1	0.211625
29.350000	1	0.172375
29.366667	1	0.132125
29.383333	1	0.089750
29.400000	1	0.045500
29.416667	1	0.000750
29.433333	1	-0.044875
29.450000	1	-0.090750
29.466667	1	-0.137625
29.483333	1	-0.184625
29.500000	1	-0.231375
29.516667	1	-0.277750
29.533333	1	-0.322750
29.550000	1	-0.366875
29.566667	1	-0.409000
29.583333	1	-0.449750
29.600000	1	-0.488250
29.616667	1	-0.523250
29.633333	1	-0.556250
29.650000	1	-0.585375
29.666667	1	-0.611125
29.683333	1	-0.632875
29.700000	1	-0.652500
29.716667	1	-0.667125
29.733333	1	-0.677375
29.750000	1	-0.684250
29.766667	1	-0.686875
29.783333	1	-0.685375
29.800000	1	-0.680375
29.816667	1	-0.672375
29.833333	1	-0.660125
29.850000	1	-0.644625
29.866667	1	-0.626250
29.883333	1	-0.605625
29.900000	1	-0.581875
29.916667	1	-0.557125
29.933333	1	-0.529875
29.950000	1	-0.501750
29.966667	1	-0.472125
29.983333	1	-0.441875
30.000000	1	-0.411125
30.016667	1	-0.380625
30.033333	1	-0.349875
30.050000	1	-0.319125
30.066667	1	-0.289000
30.083333	1	-0.259625
30.100000	1	-0.230875
30.116667	1	-0.202875
30.133333	1	-0.176625
30.150000	1	-0.151250
30.166667	1	-0.126750
30.183333	1	-0.103250
30.200000	1	-0.080625
30.216667	1	-0.059125
30.233333	1	-0.039500
30.250000	1	-0.020875
30.266667	1	-0.003750
30.283333	1	0.012500
30.300000	1	0.027750
30.316667	1	0.042125
30.333333	1	0.054750
30.350000	1	0.067750
30.366667	1	0.078750
30.383333	1	0.090000
30.400000	1	0.100125
30.416667	1	0.109250
30.433333	1	0.118125
30.450000	1	0.126625
30.466667	1	0.134125
30.483333	1	0.142250
30.500000	1	0.149375
30.516667	1	0.156000
30.533333	1	0.162125
30.550000	1	0.168750
30.566667	1	0.175250
30.583333	1	0.181000
30.600000	1	0.187625
30.616667	1	0.194250
30.633333	1	0.200875
30.650000	1	0.208125
30.666667	1	0.215000
30.683333	1	0.221625
30.700000	1	0.228375
30.716667	1	0.235250
30.733333	1	0.242875
30.750000	1	0.250500
30.766667	1	0.258500
30.783333	1	0.267000
30.800000	1	0.274750
30.816667	1	0.284250
30.833333	1	0.292750
30.850000	1	0.302125
30.866667	1	0.312000
30.883333	1	0.322125
30.900000	1	0.333375
30.916667	1	0.344875
30.933333	1	0.357125
30.950000	1	0.370625
30.966667	1	0.385000
30.983333	1	0.400750
31.000000	1	0.418500
31.016667	1	0.437625
31.033333	1	0.458375
31.050000	1	0.481375
31.066667	1	0.507875
31.083333	1	0.537500
31.100000	1	0.570375
31.116667	1	0.606750
31.133333	1	0.646875
31.150000	1	0.692250
31.166667	1	0.742375
31.183333	1	0.797500
31.200000	1	0.858250
31.216667	1	0.924625
31.233333	1	0.996750
31.250000	1	1.074125
31.266667	1	1.157625
31.283333	1	1.245625
31.300000	1	1.338875
31.316667	1	1.436500
31.333333	1	1.537625
31.350000	1	1.642750
31.366667	1	1.749625
31.383333	1	1.857375
31.400000	1	1.966625
31.416667	1	2.073375
31.433333	1	2.178375
31.450000	1	2.280125
31.466667	1	2.377125
31.483333	1	2.467750
31.500000	1	2.551000
31.516667	1	2.626500
31.533333	1	2.691875
31.550000	1	2.746875
31.566667	1	2.791625
31.583333	1	2.825000
31.600000	1	2.846500
31.616667	1	2.856250
31.633333	1	2.853500
31.650000	1	2.838750
31.666667	1	2.813250
31.683333	1	2.776500
31.700000	1	2.729875
31.716667	1	2.673625
31.733333	1	2.609250
31.750000	1	2.537875
31.766667	1	2.459000
31.783333	1	2.375250
31.800000	1	2.286500
31.816667	1	2.193750
31.833333	1	2.099000
31.850000	1	2.002500
31.866667	1	1.904875
31.883333	1	1.808000
31.900000	1	1.711625
31.916667	1	1.616750
31.933333	1	1.524625
31.950000	1	1.435000
31.966667	1	1.348250
31.983333	1	1.264625
32.000000	1	1.184750
32.016667	1	1.108250
32.033333	1	1.035750
32.050000	1	0.966375
32.066667	1	0.900625
32.083333	1	0.839250
32.100000	1	0.780875
32.116667	1	0.725500
32.133333	1	0.674125
32.150000	1	0.626500
32.166667	1	0.581375
32.183333	1	0.539125
32.200000	1	0.499750
32.216667	1	0.463125
32.233333	1	0.429000
32.250000	1	0.397625
32.266667	1	0.367750
32.283333	1	0.340125
32.300000	1	0.314750
32.316667	1	0.291500
32.333333	1	0.269625
32.350000	1	0.249125
32.366667	1	0.230750
32.383333	1	0.213875
32.400000	1	0.197625
32.416667	1	0.183625
32.433333	1	0.171125
32.450000	1	0.158875
32.466667	1	0.148375
32.483333	1	0.138125
32.500000	1	0.128875
32.516667	1	0.121125
32.533333	1	0.113875
32.550000	1	0.108125
32.566667	1	0.103625
32.583333	1	0.099125
32.600000	1	0.095000
32.616667	1	0.091625
32.633333	1	0.089000
32.650000	1	0.087000
32.666667	1	0.085125
32.683333	1	0.083625
32.700000	1	0.082875
32.716667	1	0.081875
32.733333	1	0.082375
32.750000	1	0.082375
32.766667	1	0.083125
32.783333	1	0.082875
32.800000	1	0.082750
32.816667	1	0.083625
32.833333	1	0.084000
32.850000	1	0.085000
32.866667	1	0.085250
32.883333	1	0.085625
32.900000	1	0.086000
32.916667	1	0.086250
32.933333	1	0.086250
32.950000	1	0.085750
32.966667	1	0.085500
32.983333	1	0.085625
33.000000	1	0.085875
33.016667	1	0.084750
33.033333	1	0.083750
33.050000	1	0.081875
33.066667	1	0.081375
33.083333	1	0.080375
33.100000	1	0.079375
33.116667	1	0.078500
33.133333	1	0.077375
33.150000	1	0.075750
33.166667	1	0.074500
33.183333	1	0.073750
33.200000	1	0.072625
33.216667	1	0.071375
33.233333	1	0.069750
33.250000	1	0.068875
33.266667	1	0.068500
33.283333	1	0.068125
33.300000	1	0.067500
33.316667	1	0.067375
33.333333	1	0.066625
33.350000	1	0.066125
33.366667	1	0.066125
33.383333	1	0.066125
33.400000	1	0.066750
33.416667	1	0.066375
33.433333	1	0.067125
33.450000	1	0.067500
33.466667	1	0.068250
33.483333	1	0.069375
33.500000	1	0.070250
33.516667	1	0.071250
33.533333	1	0.072750
33.550000	1	0.074875
33.566667	1	0.076875
33.583333	1	0.078625
33.600000	1	0.080000
33.616667	1	0.082125
33.633333	1	0.084250
33.650000	1	0.086750
33.666667	1	0.089250
33.683333	1	0.091125
33.700000	1	0.094000
33.716667	1	0.097000
33.733333	1	0.099625
33.750000	1	0.101875
33.766667	1	0.104875
33.783333	1	0.107625
33.800000	1	0.110000
33.816667	1	0.112125
33.833333	1	0.114250
33.850000	1	0.116250
33.866667	1	0.117875
33.883333	1	0.119750
33.900000	1	0.120625
33.916667	1	0.122125
33.933333	1	0.123375
33.950000	1	0.124250
33.966667	1	0.125000
33.983333	1	0.126000
34.000000	1	0.126000
34.016667	1	0.125750
34.033333	1	0.124875
34.050000	1	0.123875
34.066667	1	0.123500
34.083333	1	0.122250
34.100000	1	0.121125
34.116667	1	0.120375
34.133333	1	0.119000
34.150000	1	0.117375
34.166667	1	0.116000
34.183333	1	0.114250
34.200000	1	0.112875
34.216667	1	0.110875
34.233333	1	0.109125
34.250000	1	0.107625
34.266667	1	0.106000
34.283333	1	0.104625
34.300000	1	0.102875
34.316667	1	0.101625
34.333333	1	0.100250
34.350000	1	0.098625
34.366667	1	0.097750
34.383333	1	0.096875
34.400000	1	0.095250
34.416667	1	0.094375
34.433333	1	0.093500
34.450000	1	0.092875
34.466667	1	0.092375
34.483333	1	0.091500
34.500000	1	0.091375
34.516667	1	0.091875
34.533333	1	0.092500
34.550000	1	0.092250
34.566667	1	0.092375
34.583333	1	0.092875
34.600000	1	0.093750
34.616667	1	0.093875
34.633333	1	0.094125
34.650000	1	0.094500
34.666667	1	0.094875
34.683333	1	0.096250
34.700000	1	0.097375
34.716667	1	0.098375
34.733333	1	0.099125
34.750000	1	0.100000
34.766667	1	0.101125
34.783333	1	0.101750
34.800000	1	0.103125
34.816667	1	0.104500
34.833333	1	0.105500
34.850000	1	0.105875
34.866667	1	0.107000
34.883333	1	0.107625
34.900000	1	0.108500
34.916667	1	0.109750
34.933333	1	0.110500
34.950000	1	0.110625
34.966667	1	0.111375
34.983333	1	0.111875
35.000000	1	0.112250
35.016667	1	0.112875
35.033333	1	0.112750
35.050000	1	0.113375
35.066667	1	0.113125
35.083333	1	0.112875
35.100000	1	0.113250
35.116667	1	0.113000
35.133333	1	0.112750
35.150000	1	0.112500
35.166667	1	0.112250
35.183333	1	0.112250
35.200000	1	0.112000
35.216667	1	0.112500
35.233333	1	0.111875
35.250000	1	0.111125
35.266667	1	0.110625
35.283333	1	0.111125
35.300000	1	0.111125
35.316667	1	0.111500
35.333333	1	0.111875
35.350000	1	0.112375
35.366667	1	0.113000
35.383333	1	0.114000
35.400000	1	0.114625
35.416667	1	0.116000
35.433333	1	0.116625
35.450000	1	0.117375
35.466667	1	0.118375
35.483333	1	0.119875
35.500000	1	0.121125
35.516667	1	0.122750
35.533333	1	0.124750
35.550000	1	0.126375
35.566667	1	0.128250
35.583333	1	0.130500
35.600000	1	0.132625
35.616667	1	0.135375
35.633333	1	0.138375
35.650000	1	0.141000
35.666667	1	0.143625
35.683333	1	0.146625
35.700000	1	0.149625
35.716667	1	0.152875
35.733333	1	0.155250
35.750000	1	0.158000
35.766667	1	0.161000
35.783333	1	0.163625
35.800000	1	0.165625
35.816667	1	0.168375
35.833333	1	0.170500
35.850000	1	0.172500
35.866667	1	0.173750
35.883333	1	0.176125
35.900000	1	0.178000
35.916667	1	0.179875
35.933333	1	0.180875
35.950000	1	0.181875
35.966667	1	0.183125
35.983333	1	0.184375
36.000000	1	0.184625
36.016667	1	0.185125
36.033333	1	0.184750
36.050000	1	0.184625
36.066667	1	0.184000
36.083333	1	0.184500
36.100000	1	0.184250
36.116667	1	0.183875
36.133333	1	0.183625
36.150000	1	0.183625
36.166667	1	0.182250
36.183333	1	0.181000
36.200000	1	0.180125
36.216667	1	0.178875
36.233333	1	0.178125
36.250000	1	0.176875
36.266667	1	0.175875
36.283333	1	0.175000
36.300000	1	0.174250
36.316667	1	0.173125
36.333333	1	0.172250
36.350000	1	0.170625
36.366667	1	0.169750
36.383333	1	0.167875
36.400000	1	0.166250
36.416667	1	0.165250
36.433333	1	0.164000
36.450000	1	0.162750
36.466667	1	0.161625
36.483333	1	0.161125
36.500000	1	0.160250
36.516667	1	0.158750
36.533333	1	0.158125
36.550000	1	0.156250
36.566667	1	0.154625
36.583333	1	0.153625
36.600000	1	0.151625
36.616667	1	0.151000
36.633333	1	0.149125
36.650000	1	0.148000
36.666667	1	0.146500
36.683333	1	0.144375
36.700000	1	0.142250
36.716667	1	0.140750
36.733333	1	0.138500
36.750000	1	0.136875
36.766667	1	0.134375
36.783333	1	0.132500
36.800000	1	0.130000
36.816667	1	0.127875
36.833333	1	0.125750
36.850000	1	0.123750
36.866667	1	0.121875
36.883333	1	0.119750
36.900000	1	0.116625
36.916667	1	0.114750
36.933333	1	0.112750
36.950000	1	0.110375
36.966667	1	0.109000
36.983333	1	0.106500
37.000000	1	0.104125
37.016667	1	0.102500
37.033333	1	0.100750
37.050000	1	0.099750
37.066667	1	0.098250
37.083333	1	0.096750
37.100000	1	0.095250
37.116667	1	0.094125
37.133333	1	0.093375
37.150000	1	0.092500
37.166667	1	0.091000
37.183333	1	0.090000
37.200000	1	0.089125
37.216667	1	0.088375
37.233333	1	0.088000
37.250000	1	0.087000
37.266667	1	0.086375
37.283333	1	0.085875
37.300000	1	0.085500
37.316667	1	0.085250
37.333333	1	0.085000
37.350000	1	0.084375
37.366667	1	0.083625
37.383333	1	0.082875
37.400000	1	0.082250
37.416667	1	0.081375
37.433333	1	0.080375
37.450000	1	0.080250
37.466667	1	0.080125
37.483333	1	0.079625
37.500000	1	0.078625
37.516667	1	0.077750
37.533333	1	0.077500
37.550000	1	0.076500
37.566667	1	0.076500
37.583333	1	0.076000
37.600000	1	0.074875
37.616667	1	0.073250
37.633333	1	0.071875
37.650000	1	0.071125
37.666667	1	0.069625
37.683333	1	0.068250
37.700000	1	0.066625
37.716667	1	0.065750
37.733333	1	0.063875
37.750000	1	0.062125
37.766667	1	0.060625
37.783333	1	0.058125
37.800000	1	0.055875
37.816667	1	0.054125
37.833333	1	0.052000
37.850000	1	0.050000
37.866667	1	0.048750
37.883333	1	0.047625
37.900000	1	0.046750
37.916667	1	0.044625
37.933333	1	0.042750
37.950000	1	0.041250
37.966667	1	0.039875
37.983333	1	0.038625
38.000000	1	0.037250
38.016667	1	0.036250
38.033333	1	0.035250
38.050000	1	0.034375
38.066667	1	0.033500
38.083333	1	0.033125
38.100000	1	0.032375
38.116667	1	0.031875
38.133333	1	0.031125
38.150000	1	0.030750
38.166667	1	0.030625
38.183333	1	0.030375
38.200000	1	0.030250
38.216667	1	0.030375
38.233333	1	0.030625
38.250000	1	0.030250
38.266667	1	0.030750
38.283333	1	0.031125
38.300000	1	0.031250
38.316667	1	0.031750
38.333333	1	0.031875
38.350000	1	0.032000
38.366667	1	0.032500
38.383333	1	0.033250
38.400000	1	0.033500
38.416667	1	0.033625
38.433333	1	0.033875
38.450000	1	0.034625
38.466667	1	0.034875
38.483333	1	0.035875
38.500000	1	0.036375
38.516667	1	0.037250
38.533333	1	0.038625
38.550000	1	0.039625
38.566667	1	0.040625
38.583333	1	0.041250
38.600000	1	0.042000
38.616667	1	0.043125
38.633333	1	0.044000
38.650000	1	0.044625
38.666667	1	0.045500
38.683333	1	0.046500
38.700000	1	0.048125
38.716667	1	0.049000
38.733333	1	0.051000
38.750000	1	0.052250
38.766667	1	0.053250
38.783333	1	0.054375
38.800000	1	0.055375
38.816667	1	0.056375
38.833333	1	0.057250
38.850000	1	0.058000
38.866667	1	0.059375
38.883333	1	0.060750
38.900000	1	0.061375
38.916667	1	0.062125
38.933333	1	0.063375
38.950000	1	0.064125
38.966667	1	0.064500
38.983333	1	0.065250
39.000000	1	0.065625
39.016667	1	0.065750
39.033333	1	0.065625
39.050000	1	0.065250
39.066667	1	0.065250
39.083333	1	0.064625
39.100000	1	0.064125
39.116667	1	0.063375
39.133333	1	0.062000
39.150000	1	0.059625
39.166667	1	0.058000
39.183333	1	0.056250
39.200000	1	0.054375
39.216667	1	0.052000
39.233333	1	0.049625
39.250000	1	0.047500
39.266667	1	0.044875
39.283333	1	0.042500
39.300000	1	0.040500
39.316667	1	0.038125
39.333333	1	0.035125
39.350000	1	0.031875
39.366667	1	0.028500
39.383333	1	0.025500
39.400000	1	0.022375
39.416667	1	0.019250
39.433333	1	0.016000
39.450000	1	0.013750
39.466667	1	0.010625
39.483333	1	0.008000
39.500000	1	0.005375
39.516667	1	0.003000
39.533333	1	0.001000
39.550000	1	-0.001000
39.566667	1	-0.002750
39.583333	1	-0.004625
39.600000	1	-0.005875
39.616667	1	-0.007375
39.633333	1	-0.008750
39.650000	1	-0.009375
39.666667	1	-0.010125
39.683333	1	-0.010375
39.700000	1	-0.010125
39.716667	1	-0.009375
39.733333	1	-0.010000
39.750000	1	-0.010250
39.766667	1	-0.009375
39.783333	1	-0.009125
39.800000	1	-0.008375
39.816667	1	-0.008250
39.833333	1	-0.007000
39.850000	1	-0.006125
39.866667	1	-0.005375
39.883333	1	-0.004750
39.900000	1	-0.004250
39.916667	1	-0.003375
39.933333	1	-0.001875
39.950000	1	-0.001625
39.966667	1	-0.001375
39.983333	1	-0.000500
40.000000	1	-0.000250
