URL	chrom://7040-86g6c92/XVault/Ultimate_3000/20/20240517_CMO_FP23_FP25_MarkusDeplate.seq/467.smp/RI_1.channel/RI_1.chm
Channel	RI_1

Injection Information:
Data Vault	XVault
Sequence	20240517_CMO_FP23_FP25_MarkusDeplate
Name	FP26_22.2_s2
Number	114
Position	BD2
Comment	
Processing Method	
Instrument Method	run_25B_method
Type	Unknown
Status	Finished
Inject Time	31.05.2024 00:30:46 +02:00
Volume (µl)	20.0000
Dilution Factor	1.0000
Weight	1.0000

Chromatogram Data Information:
Time Min. (min)	0.000000
Time Max. (min)	40.000000
Data Points	2401
Detector	RI
Generating Data System	Chromeleon 7.3.2.11814
Exporting Data System	Chromeleon 7.3.2.0
Operator	Instrument Controller
Signal Quantity	Refractive 
Signal Unit	µRIU
Signal Min.	-0.849000
Signal Max.	63.322500
Channel	RI_1
Driver Name	RID520Driver.dll
Channel Type	Evaluation
Min. Step (s)	1
Max. Step (s)	1
Average Step (s)	1

Signal Parameter Information:
Signal Info	

Chromatogram Data:
Time (min)	Step (s)	Value (µRIU)
0.000000	n.a.	-0.005875
0.016667	1	-0.006500
0.033333	1	-0.007000
0.050000	1	-0.006750
0.066667	1	-0.007250
0.083333	1	-0.007250
0.100000	1	-0.007625
0.116667	1	-0.007375
0.133333	1	-0.007625
0.150000	1	-0.007875
0.166667	1	-0.008125
0.183333	1	-0.009000
0.200000	1	-0.008500
0.216667	1	-0.008500
0.233333	1	-0.008250
0.250000	1	-0.007500
0.266667	1	-0.007000
0.283333	1	-0.006875
0.300000	1	-0.006625
0.316667	1	-0.005750
0.333333	1	-0.005000
0.350000	1	-0.004625
0.366667	1	-0.003875
0.383333	1	-0.003500
0.400000	1	-0.002750
0.416667	1	-0.001000
0.433333	1	0.001750
0.450000	1	0.004875
0.466667	1	0.008500
0.483333	1	0.012000
0.500000	1	0.015000
0.516667	1	0.017000
0.533333	1	0.018250
0.550000	1	0.020375
0.566667	1	0.021000
0.583333	1	0.021250
0.600000	1	0.020500
0.616667	1	0.019750
0.633333	1	0.019250
0.650000	1	0.019500
0.666667	1	0.020875
0.683333	1	0.021375
0.700000	1	0.023250
0.716667	1	0.024875
0.733333	1	0.026125
0.750000	1	0.026875
0.766667	1	0.027375
0.783333	1	0.027875
0.800000	1	0.028875
0.816667	1	0.030125
0.833333	1	0.030125
0.850000	1	0.030000
0.866667	1	0.030125
0.883333	1	0.030500
0.900000	1	0.030750
0.916667	1	0.031000
0.933333	1	0.031500
0.950000	1	0.031750
0.966667	1	0.031625
0.983333	1	0.031250
1.000000	1	0.031500
1.016667	1	0.032375
1.033333	1	0.033125
1.050000	1	0.032625
1.066667	1	0.033000
1.083333	1	0.033500
1.100000	1	0.034375
1.116667	1	0.035000
1.133333	1	0.035375
1.150000	1	0.036375
1.166667	1	0.037000
1.183333	1	0.036750
1.200000	1	0.037000
1.216667	1	0.037750
1.233333	1	0.037500
1.250000	1	0.038375
1.266667	1	0.038750
1.283333	1	0.038875
1.300000	1	0.039875
1.316667	1	0.040000
1.333333	1	0.039875
1.350000	1	0.040250
1.366667	1	0.040125
1.383333	1	0.040875
1.400000	1	0.040500
1.416667	1	0.040750
1.433333	1	0.041000
1.450000	1	0.041000
1.466667	1	0.040625
1.483333	1	0.040625
1.500000	1	0.039875
1.516667	1	0.039125
1.533333	1	0.038625
1.550000	1	0.037500
1.566667	1	0.036625
1.583333	1	0.035875
1.600000	1	0.035125
1.616667	1	0.033375
1.633333	1	0.032375
1.650000	1	0.029750
1.666667	1	0.028375
1.683333	1	0.027125
1.700000	1	0.025250
1.716667	1	0.023250
1.733333	1	0.021500
1.750000	1	0.020125
1.766667	1	0.018750
1.783333	1	0.017750
1.800000	1	0.015750
1.816667	1	0.014125
1.833333	1	0.012500
1.850000	1	0.011625
1.866667	1	0.010125
1.883333	1	0.009375
1.900000	1	0.007875
1.916667	1	0.006875
1.933333	1	0.005875
1.950000	1	0.005125
1.966667	1	0.004500
1.983333	1	0.004625
2.000000	1	0.004125
2.016667	1	0.004000
2.033333	1	0.003500
2.050000	1	0.004500
2.066667	1	0.004875
2.083333	1	0.005250
2.100000	1	0.005500
2.116667	1	0.005125
2.133333	1	0.004875
2.150000	1	0.004625
2.166667	1	0.004375
2.183333	1	0.003750
2.200000	1	0.003750
2.216667	1	0.004250
2.233333	1	0.003875
2.250000	1	0.003625
2.266667	1	0.003750
2.283333	1	0.004250
2.300000	1	0.005000
2.316667	1	0.005000
2.333333	1	0.004375
2.350000	1	0.004125
2.366667	1	0.003750
2.383333	1	0.004375
2.400000	1	0.004750
2.416667	1	0.004750
2.433333	1	0.005375
2.450000	1	0.005125
2.466667	1	0.005750
2.483333	1	0.006625
2.500000	1	0.006750
2.516667	1	0.007125
2.533333	1	0.007250
2.550000	1	0.007500
2.566667	1	0.007625
2.583333	1	0.007500
2.600000	1	0.007875
2.616667	1	0.008125
2.633333	1	0.007750
2.650000	1	0.007250
2.666667	1	0.006750
2.683333	1	0.005875
2.700000	1	0.005125
2.716667	1	0.004250
2.733333	1	0.003125
2.750000	1	0.002500
2.766667	1	0.001125
2.783333	1	0.000875
2.800000	1	0.000000
2.816667	1	-0.000625
2.833333	1	-0.001500
2.850000	1	-0.001875
2.866667	1	-0.002750
2.883333	1	-0.003750
2.900000	1	-0.005125
2.916667	1	-0.005875
2.933333	1	-0.005750
2.950000	1	-0.006000
2.966667	1	-0.006500
2.983333	1	-0.006875
3.000000	1	-0.007000
3.016667	1	-0.006875
3.033333	1	-0.006500
3.050000	1	-0.006250
3.066667	1	-0.005250
3.083333	1	-0.005000
3.100000	1	-0.004500
3.116667	1	-0.003250
3.133333	1	-0.002250
3.150000	1	-0.001500
3.166667	1	0.000000
3.183333	1	0.001750
3.200000	1	0.003750
3.216667	1	0.005750
3.233333	1	0.008000
3.250000	1	0.010500
3.266667	1	0.013125
3.283333	1	0.015375
3.300000	1	0.018375
3.316667	1	0.021000
3.333333	1	0.023125
3.350000	1	0.025375
3.366667	1	0.028000
3.383333	1	0.031250
3.400000	1	0.033375
3.416667	1	0.035750
3.433333	1	0.037375
3.450000	1	0.039250
3.466667	1	0.040750
3.483333	1	0.041625
3.500000	1	0.042875
3.516667	1	0.044000
3.533333	1	0.044875
3.550000	1	0.045875
3.566667	1	0.045750
3.583333	1	0.045875
3.600000	1	0.046375
3.616667	1	0.046500
3.633333	1	0.045875
3.650000	1	0.046125
3.666667	1	0.046250
3.683333	1	0.045750
3.700000	1	0.045500
3.716667	1	0.044500
3.733333	1	0.044625
3.750000	1	0.043875
3.766667	1	0.044250
3.783333	1	0.044250
3.800000	1	0.044375
3.816667	1	0.044500
3.833333	1	0.045750
3.850000	1	0.045875
3.866667	1	0.046000
3.883333	1	0.046625
3.900000	1	0.047500
3.916667	1	0.047500
3.933333	1	0.049125
3.950000	1	0.050000
3.966667	1	0.050875
3.983333	1	0.051875
4.000000	1	0.052875
4.016667	1	0.054500
4.033333	1	0.056000
4.050000	1	0.057750
4.066667	1	0.059625
4.083333	1	0.061125
4.100000	1	0.063250
4.116667	1	0.065875
4.133333	1	0.067000
4.150000	1	0.068625
4.166667	1	0.070000
4.183333	1	0.072375
4.200000	1	0.074000
4.216667	1	0.076125
4.233333	1	0.077625
4.250000	1	0.079250
4.266667	1	0.081125
4.283333	1	0.082750
4.300000	1	0.083750
4.316667	1	0.085375
4.333333	1	0.087375
4.350000	1	0.088125
4.366667	1	0.089375
4.383333	1	0.090500
4.400000	1	0.091625
4.416667	1	0.092750
4.433333	1	0.093750
4.450000	1	0.094250
4.466667	1	0.094750
4.483333	1	0.094875
4.500000	1	0.095250
4.516667	1	0.096000
4.533333	1	0.096375
4.550000	1	0.096750
4.566667	1	0.097250
4.583333	1	0.098125
4.600000	1	0.098625
4.616667	1	0.099125
4.633333	1	0.100500
4.650000	1	0.101250
4.666667	1	0.102375
4.683333	1	0.103875
4.700000	1	0.104750
4.716667	1	0.105500
4.733333	1	0.106750
4.750000	1	0.107750
4.766667	1	0.109000
4.783333	1	0.109750
4.800000	1	0.111000
4.816667	1	0.112750
4.833333	1	0.113375
4.850000	1	0.115250
4.866667	1	0.116750
4.883333	1	0.118875
4.900000	1	0.120375
4.916667	1	0.122250
4.933333	1	0.124125
4.950000	1	0.125750
4.966667	1	0.127750
4.983333	1	0.130375
5.000000	1	0.132875
5.016667	1	0.135500
5.033333	1	0.137750
5.050000	1	0.140000
5.066667	1	0.141875
5.083333	1	0.144875
5.100000	1	0.146875
5.116667	1	0.149375
5.133333	1	0.152125
5.150000	1	0.155125
5.166667	1	0.159000
5.183333	1	0.161875
5.200000	1	0.165125
5.216667	1	0.168750
5.233333	1	0.172000
5.250000	1	0.175750
5.266667	1	0.179250
5.283333	1	0.183750
5.300000	1	0.188000
5.316667	1	0.191500
5.333333	1	0.195875
5.350000	1	0.199500
5.366667	1	0.203750
5.383333	1	0.208125
5.400000	1	0.212625
5.416667	1	0.217000
5.433333	1	0.221250
5.450000	1	0.225625
5.466667	1	0.230125
5.483333	1	0.233750
5.500000	1	0.237750
5.516667	1	0.241000
5.533333	1	0.244500
5.550000	1	0.247875
5.566667	1	0.251375
5.583333	1	0.254250
5.600000	1	0.257125
5.616667	1	0.260000
5.633333	1	0.262125
5.650000	1	0.264375
5.666667	1	0.266125
5.683333	1	0.267750
5.700000	1	0.267875
5.716667	1	0.268750
5.733333	1	0.269250
5.750000	1	0.269125
5.766667	1	0.269125
5.783333	1	0.268250
5.800000	1	0.267375
5.816667	1	0.265875
5.833333	1	0.265000
5.850000	1	0.262875
5.866667	1	0.260250
5.883333	1	0.257250
5.900000	1	0.255000
5.916667	1	0.252375
5.933333	1	0.248750
5.950000	1	0.245875
5.966667	1	0.242375
5.983333	1	0.238875
6.000000	1	0.235375
6.016667	1	0.231250
6.033333	1	0.227375
6.050000	1	0.223125
6.066667	1	0.219250
6.083333	1	0.215625
6.100000	1	0.211000
6.116667	1	0.206500
6.133333	1	0.202625
6.150000	1	0.198625
6.166667	1	0.195125
6.183333	1	0.191500
6.200000	1	0.187750
6.216667	1	0.184000
6.233333	1	0.180875
6.250000	1	0.177750
6.266667	1	0.174125
6.283333	1	0.170625
6.300000	1	0.167125
6.316667	1	0.164250
6.333333	1	0.162000
6.350000	1	0.159750
6.366667	1	0.157250
6.383333	1	0.155375
6.400000	1	0.152625
6.416667	1	0.151375
6.433333	1	0.149250
6.450000	1	0.146875
6.466667	1	0.145375
6.483333	1	0.143250
6.500000	1	0.141875
6.516667	1	0.140250
6.533333	1	0.138250
6.550000	1	0.136750
6.566667	1	0.135250
6.583333	1	0.133875
6.600000	1	0.132375
6.616667	1	0.130875
6.633333	1	0.129375
6.650000	1	0.128000
6.666667	1	0.126625
6.683333	1	0.124625
6.700000	1	0.122750
6.716667	1	0.121250
6.733333	1	0.120000
6.750000	1	0.118250
6.766667	1	0.117000
6.783333	1	0.115875
6.800000	1	0.114750
6.816667	1	0.112000
6.833333	1	0.111125
6.850000	1	0.109500
6.866667	1	0.107625
6.883333	1	0.105375
6.900000	1	0.104000
6.916667	1	0.103125
6.933333	1	0.102125
6.950000	1	0.100875
6.966667	1	0.099125
6.983333	1	0.098875
7.000000	1	0.098250
7.016667	1	0.097500
7.033333	1	0.097250
7.050000	1	0.097625
7.066667	1	0.097375
7.083333	1	0.097625
7.100000	1	0.098250
7.116667	1	0.098875
7.133333	1	0.100250
7.150000	1	0.102125
7.166667	1	0.103875
7.183333	1	0.106250
7.200000	1	0.108000
7.216667	1	0.111125
7.233333	1	0.113875
7.250000	1	0.117000
7.266667	1	0.120000
7.283333	1	0.123250
7.300000	1	0.126750
7.316667	1	0.129625
7.333333	1	0.134000
7.350000	1	0.138125
7.366667	1	0.142250
7.383333	1	0.146125
7.400000	1	0.150125
7.416667	1	0.154000
7.433333	1	0.157625
7.450000	1	0.160500
7.466667	1	0.164375
7.483333	1	0.167750
7.500000	1	0.171000
7.516667	1	0.173000
7.533333	1	0.175375
7.550000	1	0.178000
7.566667	1	0.180000
7.583333	1	0.181875
7.600000	1	0.183125
7.616667	1	0.184000
7.633333	1	0.185125
7.650000	1	0.185500
7.666667	1	0.185875
7.683333	1	0.185250
7.700000	1	0.184000
7.716667	1	0.183250
7.733333	1	0.182250
7.750000	1	0.181625
7.766667	1	0.180875
7.783333	1	0.179250
7.800000	1	0.177625
7.816667	1	0.175875
7.833333	1	0.174125
7.850000	1	0.171500
7.866667	1	0.168375
7.883333	1	0.166500
7.900000	1	0.163250
7.916667	1	0.160375
7.933333	1	0.157375
7.950000	1	0.154625
7.966667	1	0.150750
7.983333	1	0.147375
8.000000	1	0.144750
8.016667	1	0.141500
8.033333	1	0.137750
8.050000	1	0.134375
8.066667	1	0.131875
8.083333	1	0.128125
8.100000	1	0.124375
8.116667	1	0.121000
8.133333	1	0.117625
8.150000	1	0.114500
8.166667	1	0.111875
8.183333	1	0.109000
8.200000	1	0.105375
8.216667	1	0.102125
8.233333	1	0.099500
8.250000	1	0.096625
8.266667	1	0.093625
8.283333	1	0.091375
8.300000	1	0.089250
8.316667	1	0.086500
8.333333	1	0.084625
8.350000	1	0.082500
8.366667	1	0.080875
8.383333	1	0.079250
8.400000	1	0.077250
8.416667	1	0.075625
8.433333	1	0.073875
8.450000	1	0.071750
8.466667	1	0.070375
8.483333	1	0.068500
8.500000	1	0.067500
8.516667	1	0.066000
8.533333	1	0.064500
8.550000	1	0.063750
8.566667	1	0.062500
8.583333	1	0.061500
8.600000	1	0.060375
8.616667	1	0.059500
8.633333	1	0.060125
8.650000	1	0.059625
8.666667	1	0.058875
8.683333	1	0.058250
8.700000	1	0.057625
8.716667	1	0.057500
8.733333	1	0.057250
8.750000	1	0.057250
8.766667	1	0.056875
8.783333	1	0.057250
8.800000	1	0.058000
8.816667	1	0.058625
8.833333	1	0.059500
8.850000	1	0.060750
8.866667	1	0.061750
8.883333	1	0.063375
8.900000	1	0.064875
8.916667	1	0.066500
8.933333	1	0.068000
8.950000	1	0.068875
8.966667	1	0.070250
8.983333	1	0.072250
9.000000	1	0.073625
9.016667	1	0.075250
9.033333	1	0.076750
9.050000	1	0.078125
9.066667	1	0.079875
9.083333	1	0.081250
9.100000	1	0.083125
9.116667	1	0.084625
9.133333	1	0.086000
9.150000	1	0.087500
9.166667	1	0.088750
9.183333	1	0.089875
9.200000	1	0.090625
9.216667	1	0.091500
9.233333	1	0.092125
9.250000	1	0.093000
9.266667	1	0.092750
9.283333	1	0.093500
9.300000	1	0.094250
9.316667	1	0.094500
9.333333	1	0.095000
9.350000	1	0.095125
9.366667	1	0.095250
9.383333	1	0.095750
9.400000	1	0.095375
9.416667	1	0.095000
9.433333	1	0.094875
9.450000	1	0.094125
9.466667	1	0.093500
9.483333	1	0.093000
9.500000	1	0.092875
9.516667	1	0.092375
9.533333	1	0.091250
9.550000	1	0.090125
9.566667	1	0.089875
9.583333	1	0.088625
9.600000	1	0.086875
9.616667	1	0.085000
9.633333	1	0.083875
9.650000	1	0.082250
9.666667	1	0.080500
9.683333	1	0.078125
9.700000	1	0.077000
9.716667	1	0.075125
9.733333	1	0.074125
9.750000	1	0.072375
9.766667	1	0.070500
9.783333	1	0.068500
9.800000	1	0.067125
9.816667	1	0.064750
9.833333	1	0.063125
9.850000	1	0.061250
9.866667	1	0.058625
9.883333	1	0.057250
9.900000	1	0.055875
9.916667	1	0.055000
9.933333	1	0.053250
9.950000	1	0.052375
9.966667	1	0.051250
9.983333	1	0.051250
10.000000	1	0.050500
10.016667	1	0.050125
10.033333	1	0.050500
10.050000	1	0.051750
10.066667	1	0.053750
10.083333	1	0.056875
10.100000	1	0.059875
10.116667	1	0.064875
10.133333	1	0.070875
10.150000	1	0.077625
10.166667	1	0.086250
10.183333	1	0.096000
10.200000	1	0.106750
10.216667	1	0.120125
10.233333	1	0.135500
10.250000	1	0.152875
10.266667	1	0.172250
10.283333	1	0.194500
10.300000	1	0.219125
10.316667	1	0.246750
10.333333	1	0.277125
10.350000	1	0.310000
10.366667	1	0.345750
10.383333	1	0.382000
10.400000	1	0.415750
10.416667	1	0.441875
10.433333	1	0.454000
10.450000	1	0.444375
10.466667	1	0.406875
10.483333	1	0.345500
10.500000	1	0.278125
10.516667	1	0.244000
10.533333	1	0.302750
10.550000	1	0.533250
10.566667	1	1.023500
10.583333	1	1.860125
10.600000	1	3.122500
10.616667	1	4.874875
10.633333	1	7.157250
10.650000	1	9.990750
10.666667	1	13.384375
10.683333	1	17.324375
10.700000	1	21.776500
10.716667	1	26.678000
10.733333	1	31.928625
10.750000	1	37.373625
10.766667	1	42.785875
10.783333	1	47.858625
10.800000	1	52.199500
10.816667	1	55.362375
10.833333	1	56.940500
10.850000	1	56.676375
10.866667	1	54.560625
10.883333	1	50.849500
10.900000	1	46.003625
10.916667	1	40.557125
10.933333	1	34.998125
10.950000	1	29.693625
10.966667	1	24.875125
10.983333	1	20.653375
11.000000	1	17.058500
11.016667	1	14.066125
11.033333	1	11.621625
11.050000	1	9.653125
11.066667	1	8.085250
11.083333	1	6.844500
11.100000	1	5.864250
11.116667	1	5.089500
11.133333	1	4.473375
11.150000	1	3.979875
11.166667	1	3.580375
11.183333	1	3.253625
11.200000	1	2.983125
11.216667	1	2.754875
11.233333	1	2.559625
11.250000	1	2.391000
11.266667	1	2.242750
11.283333	1	2.113250
11.300000	1	1.999000
11.316667	1	1.897500
11.333333	1	1.807750
11.350000	1	1.727250
11.366667	1	1.656750
11.383333	1	1.594125
11.400000	1	1.539625
11.416667	1	1.491125
11.433333	1	1.449625
11.450000	1	1.414000
11.466667	1	1.383875
11.483333	1	1.357875
11.500000	1	1.338000
11.516667	1	1.321625
11.533333	1	1.309750
11.550000	1	1.300500
11.566667	1	1.295625
11.583333	1	1.291875
11.600000	1	1.290375
11.616667	1	1.289500
11.633333	1	1.289000
11.650000	1	1.287000
11.666667	1	1.284000
11.683333	1	1.280500
11.700000	1	1.275625
11.716667	1	1.268875
11.733333	1	1.262000
11.750000	1	1.254750
11.766667	1	1.249375
11.783333	1	1.243250
11.800000	1	1.238500
11.816667	1	1.235125
11.833333	1	1.232000
11.850000	1	1.230500
11.866667	1	1.230000
11.883333	1	1.230250
11.900000	1	1.230250
11.916667	1	1.231250
11.933333	1	1.233500
11.950000	1	1.235125
11.966667	1	1.237375
11.983333	1	1.240125
12.000000	1	1.242875
12.016667	1	1.246250
12.033333	1	1.249500
12.050000	1	1.253375
12.066667	1	1.257750
12.083333	1	1.262125
12.100000	1	1.266500
12.116667	1	1.272000
12.133333	1	1.277250
12.150000	1	1.283875
12.166667	1	1.290875
12.183333	1	1.299250
12.200000	1	1.309250
12.216667	1	1.320375
12.233333	1	1.334500
12.250000	1	1.349375
12.266667	1	1.366875
12.283333	1	1.387125
12.300000	1	1.409375
12.316667	1	1.434250
12.333333	1	1.462625
12.350000	1	1.495625
12.366667	1	1.535500
12.383333	1	1.583875
12.400000	1	1.646125
12.416667	1	1.727000
12.433333	1	1.832125
12.450000	1	1.970750
12.466667	1	2.150375
12.483333	1	2.377375
12.500000	1	2.658000
12.516667	1	2.994875
12.533333	1	3.388750
12.550000	1	3.835500
12.566667	1	4.326250
12.583333	1	4.848625
12.600000	1	5.387750
12.616667	1	5.926250
12.633333	1	6.446625
12.650000	1	6.932000
12.666667	1	7.367875
12.683333	1	7.741000
12.700000	1	8.041750
12.716667	1	8.262750
12.733333	1	8.400125
12.750000	1	8.452875
12.766667	1	8.423500
12.783333	1	8.316750
12.800000	1	8.143875
12.816667	1	7.915625
12.833333	1	7.645250
12.850000	1	7.345375
12.866667	1	7.026875
12.883333	1	6.698750
12.900000	1	6.367875
12.916667	1	6.038625
12.933333	1	5.715875
12.950000	1	5.403250
12.966667	1	5.104750
12.983333	1	4.823000
13.000000	1	4.561375
13.016667	1	4.320125
13.033333	1	4.102000
13.050000	1	3.904750
13.066667	1	3.728375
13.083333	1	3.571125
13.100000	1	3.429500
13.116667	1	3.302875
13.133333	1	3.189375
13.150000	1	3.085625
13.166667	1	2.991500
13.183333	1	2.906500
13.200000	1	2.828750
13.216667	1	2.756625
13.233333	1	2.689500
13.250000	1	2.627000
13.266667	1	2.568500
13.283333	1	2.513375
13.300000	1	2.462000
13.316667	1	2.413375
13.333333	1	2.367250
13.350000	1	2.324875
13.366667	1	2.284250
13.383333	1	2.247125
13.400000	1	2.213375
13.416667	1	2.182750
13.433333	1	2.154875
13.450000	1	2.130625
13.466667	1	2.110000
13.483333	1	2.093875
13.500000	1	2.081125
13.516667	1	2.072625
13.533333	1	2.067125
13.550000	1	2.064500
13.566667	1	2.061875
13.583333	1	2.059375
13.600000	1	2.055375
13.616667	1	2.049375
13.633333	1	2.039125
13.650000	1	2.024750
13.666667	1	2.005625
13.683333	1	1.982375
13.700000	1	1.955500
13.716667	1	1.925000
13.733333	1	1.891625
13.750000	1	1.857125
13.766667	1	1.823125
13.783333	1	1.788875
13.800000	1	1.755250
13.816667	1	1.723000
13.833333	1	1.692875
13.850000	1	1.664125
13.866667	1	1.636625
13.883333	1	1.611125
13.900000	1	1.587375
13.916667	1	1.566125
13.933333	1	1.545875
13.950000	1	1.527875
13.966667	1	1.510125
13.983333	1	1.493875
14.000000	1	1.478625
14.016667	1	1.464125
14.033333	1	1.450625
14.050000	1	1.438125
14.066667	1	1.425625
14.083333	1	1.413625
14.100000	1	1.403250
14.116667	1	1.392875
14.133333	1	1.382625
14.150000	1	1.373375
14.166667	1	1.364875
14.183333	1	1.357375
14.200000	1	1.351250
14.216667	1	1.345125
14.233333	1	1.341000
14.250000	1	1.337875
14.266667	1	1.337875
14.283333	1	1.339375
14.300000	1	1.343250
14.316667	1	1.349125
14.333333	1	1.358500
14.350000	1	1.370125
14.366667	1	1.385125
14.383333	1	1.402500
14.400000	1	1.423875
14.416667	1	1.451500
14.433333	1	1.487875
14.450000	1	1.537375
14.466667	1	1.607375
14.483333	1	1.709500
14.500000	1	1.861625
14.516667	1	2.086750
14.533333	1	2.417875
14.550000	1	2.896250
14.566667	1	3.573000
14.583333	1	4.506750
14.600000	1	5.764500
14.616667	1	7.417125
14.633333	1	9.534250
14.650000	1	12.175875
14.666667	1	15.381125
14.683333	1	19.159125
14.700000	1	23.477375
14.716667	1	28.260250
14.733333	1	33.387750
14.750000	1	38.695000
14.766667	1	43.979500
14.783333	1	49.015625
14.800000	1	53.576250
14.816667	1	57.446375
14.833333	1	60.443375
14.850000	1	62.427625
14.866667	1	63.322500
14.883333	1	63.117750
14.900000	1	61.865250
14.916667	1	59.676500
14.933333	1	56.707750
14.950000	1	53.136375
14.966667	1	49.154875
14.983333	1	44.947250
15.000000	1	40.673125
15.016667	1	36.465250
15.033333	1	32.429375
15.050000	1	28.641125
15.066667	1	25.151500
15.083333	1	21.986750
15.100000	1	19.154250
15.116667	1	16.645125
15.133333	1	14.440750
15.150000	1	12.516750
15.166667	1	10.848750
15.183333	1	9.409875
15.200000	1	8.172375
15.216667	1	7.112500
15.233333	1	6.209125
15.250000	1	5.442125
15.266667	1	4.795625
15.283333	1	4.254625
15.300000	1	3.805625
15.316667	1	3.438500
15.333333	1	3.141125
15.350000	1	2.903125
15.366667	1	2.717250
15.383333	1	2.573375
15.400000	1	2.464250
15.416667	1	2.382750
15.433333	1	2.321625
15.450000	1	2.275375
15.466667	1	2.238250
15.483333	1	2.206125
15.500000	1	2.175625
15.516667	1	2.144000
15.533333	1	2.109750
15.550000	1	2.072625
15.566667	1	2.033000
15.583333	1	1.990625
15.600000	1	1.947875
15.616667	1	1.904375
15.633333	1	1.863500
15.650000	1	1.823625
15.666667	1	1.786500
15.683333	1	1.751375
15.700000	1	1.720000
15.716667	1	1.690000
15.733333	1	1.663000
15.750000	1	1.637625
15.766667	1	1.613125
15.783333	1	1.589375
15.800000	1	1.566375
15.816667	1	1.543500
15.833333	1	1.520125
15.850000	1	1.497375
15.866667	1	1.475625
15.883333	1	1.454250
15.900000	1	1.433625
15.916667	1	1.414375
15.933333	1	1.396750
15.950000	1	1.381000
15.966667	1	1.366500
15.983333	1	1.354500
16.000000	1	1.344750
16.016667	1	1.337125
16.033333	1	1.330000
16.050000	1	1.325000
16.066667	1	1.320750
16.083333	1	1.318000
16.100000	1	1.315875
16.116667	1	1.314000
16.133333	1	1.312875
16.150000	1	1.311125
16.166667	1	1.309625
16.183333	1	1.307250
16.200000	1	1.304875
16.216667	1	1.302125
16.233333	1	1.298125
16.250000	1	1.293750
16.266667	1	1.289000
16.283333	1	1.283625
16.300000	1	1.277625
16.316667	1	1.271500
16.333333	1	1.266250
16.350000	1	1.261750
16.366667	1	1.258000
16.383333	1	1.255250
16.400000	1	1.254375
16.416667	1	1.255000
16.433333	1	1.256750
16.450000	1	1.260000
16.466667	1	1.263625
16.483333	1	1.268500
16.500000	1	1.274000
16.516667	1	1.279625
16.533333	1	1.284125
16.550000	1	1.287000
16.566667	1	1.289500
16.583333	1	1.290750
16.600000	1	1.290375
16.616667	1	1.289000
16.633333	1	1.286000
16.650000	1	1.282500
16.666667	1	1.278500
16.683333	1	1.274750
16.700000	1	1.271125
16.716667	1	1.269000
16.733333	1	1.268000
16.750000	1	1.268500
16.766667	1	1.270750
16.783333	1	1.274375
16.800000	1	1.278875
16.816667	1	1.285000
16.833333	1	1.291875
16.850000	1	1.298250
16.866667	1	1.304625
16.883333	1	1.310250
16.900000	1	1.314750
16.916667	1	1.318875
16.933333	1	1.321500
16.950000	1	1.322875
16.966667	1	1.323125
16.983333	1	1.321875
17.000000	1	1.320500
17.016667	1	1.317875
17.033333	1	1.314750
17.050000	1	1.311125
17.066667	1	1.307750
17.083333	1	1.304750
17.100000	1	1.302875
17.116667	1	1.301000
17.133333	1	1.299750
17.150000	1	1.299000
17.166667	1	1.299250
17.183333	1	1.299500
17.200000	1	1.301625
17.216667	1	1.303250
17.233333	1	1.305500
17.250000	1	1.309375
17.266667	1	1.313000
17.283333	1	1.316625
17.300000	1	1.320000
17.316667	1	1.324625
17.333333	1	1.329250
17.350000	1	1.334250
17.366667	1	1.338000
17.383333	1	1.342125
17.400000	1	1.344875
17.416667	1	1.347500
17.433333	1	1.348250
17.450000	1	1.347375
17.466667	1	1.345125
17.483333	1	1.341375
17.500000	1	1.335500
17.516667	1	1.327375
17.533333	1	1.318000
17.550000	1	1.306375
17.566667	1	1.293875
17.583333	1	1.280500
17.600000	1	1.264875
17.616667	1	1.248250
17.633333	1	1.231375
17.650000	1	1.213750
17.666667	1	1.196875
17.683333	1	1.179500
17.700000	1	1.162750
17.716667	1	1.146375
17.733333	1	1.131125
17.750000	1	1.116875
17.766667	1	1.104250
17.783333	1	1.092000
17.800000	1	1.082250
17.816667	1	1.073250
17.833333	1	1.064625
17.850000	1	1.056500
17.866667	1	1.050000
17.883333	1	1.043750
17.900000	1	1.038625
17.916667	1	1.033625
17.933333	1	1.029500
17.950000	1	1.024875
17.966667	1	1.019500
17.983333	1	1.015000
18.000000	1	1.009875
18.016667	1	1.004875
18.033333	1	0.999875
18.050000	1	0.994375
18.066667	1	0.988500
18.083333	1	0.984125
18.100000	1	0.980000
18.116667	1	0.975875
18.133333	1	0.972625
18.150000	1	0.969250
18.166667	1	0.965625
18.183333	1	0.963250
18.200000	1	0.961625
18.216667	1	0.960250
18.233333	1	0.958000
18.250000	1	0.957000
18.266667	1	0.955875
18.283333	1	0.954625
18.300000	1	0.953750
18.316667	1	0.952375
18.333333	1	0.952000
18.350000	1	0.951250
18.366667	1	0.952000
18.383333	1	0.953250
18.400000	1	0.955750
18.416667	1	0.959500
18.433333	1	0.964125
18.450000	1	0.970625
18.466667	1	0.978625
18.483333	1	0.988625
18.500000	1	1.000500
18.516667	1	1.014250
18.533333	1	1.030250
18.550000	1	1.048875
18.566667	1	1.069625
18.583333	1	1.091750
18.600000	1	1.116750
18.616667	1	1.142875
18.633333	1	1.170875
18.650000	1	1.200375
18.666667	1	1.231375
18.683333	1	1.263125
18.700000	1	1.296250
18.716667	1	1.330625
18.733333	1	1.365625
18.750000	1	1.400875
18.766667	1	1.435875
18.783333	1	1.469875
18.800000	1	1.502500
18.816667	1	1.532750
18.833333	1	1.560000
18.850000	1	1.583500
18.866667	1	1.603875
18.883333	1	1.618875
18.900000	1	1.628375
18.916667	1	1.631375
18.933333	1	1.628250
18.950000	1	1.618250
18.966667	1	1.602250
18.983333	1	1.580250
19.000000	1	1.551750
19.016667	1	1.517875
19.033333	1	1.479500
19.050000	1	1.437500
19.066667	1	1.392875
19.083333	1	1.346125
19.100000	1	1.299375
19.116667	1	1.252250
19.133333	1	1.206750
19.150000	1	1.162625
19.166667	1	1.121500
19.183333	1	1.084000
19.200000	1	1.050875
19.216667	1	1.022750
19.233333	1	0.998750
19.250000	1	0.981000
19.266667	1	0.968500
19.283333	1	0.962375
19.300000	1	0.962000
19.316667	1	0.968375
19.333333	1	0.980625
19.350000	1	0.997375
19.366667	1	1.019750
19.383333	1	1.046500
19.400000	1	1.076750
19.416667	1	1.109875
19.433333	1	1.144250
19.450000	1	1.179750
19.466667	1	1.214500
19.483333	1	1.248000
19.500000	1	1.279375
19.516667	1	1.308250
19.533333	1	1.333125
19.550000	1	1.354375
19.566667	1	1.370625
19.583333	1	1.382250
19.600000	1	1.388500
19.616667	1	1.390125
19.633333	1	1.386625
19.650000	1	1.378500
19.666667	1	1.366625
19.683333	1	1.349500
19.700000	1	1.329875
19.716667	1	1.306500
19.733333	1	1.279250
19.750000	1	1.250500
19.766667	1	1.219375
19.783333	1	1.186375
19.800000	1	1.151500
19.816667	1	1.116500
19.833333	1	1.081375
19.850000	1	1.045875
19.866667	1	1.011250
19.883333	1	0.977500
19.900000	1	0.945125
19.916667	1	0.915375
19.933333	1	0.888000
19.950000	1	0.863000
19.966667	1	0.841625
19.983333	1	0.823250
20.000000	1	0.808875
20.016667	1	0.799625
20.033333	1	0.794375
20.050000	1	0.794000
20.066667	1	0.798375
20.083333	1	0.807875
20.100000	1	0.822625
20.116667	1	0.841875
20.133333	1	0.865750
20.150000	1	0.893000
20.166667	1	0.922125
20.183333	1	0.953750
20.200000	1	0.986375
20.216667	1	1.017625
20.233333	1	1.046750
20.250000	1	1.073750
20.266667	1	1.096375
20.283333	1	1.114750
20.300000	1	1.126750
20.316667	1	1.133125
20.333333	1	1.133750
20.350000	1	1.128375
20.366667	1	1.118000
20.383333	1	1.102375
20.400000	1	1.083125
20.416667	1	1.061000
20.433333	1	1.038500
20.450000	1	1.016375
20.466667	1	0.997500
20.483333	1	0.982375
20.500000	1	0.974875
20.516667	1	0.976625
20.533333	1	0.989875
20.550000	1	1.017125
20.566667	1	1.061250
20.583333	1	1.124750
20.600000	1	1.210375
20.616667	1	1.320250
20.633333	1	1.455250
20.650000	1	1.617500
20.666667	1	1.806250
20.683333	1	2.021125
20.700000	1	2.260375
20.716667	1	2.519750
20.733333	1	2.795250
20.750000	1	3.080375
20.766667	1	3.369875
20.783333	1	3.654500
20.800000	1	3.926125
20.816667	1	4.175875
20.833333	1	4.396250
20.850000	1	4.580750
20.866667	1	4.722750
20.883333	1	4.819000
20.900000	1	4.867250
20.916667	1	4.867250
20.933333	1	4.820500
20.950000	1	4.729250
20.966667	1	4.598500
20.983333	1	4.434375
21.000000	1	4.242125
21.016667	1	4.029625
21.033333	1	3.802250
21.050000	1	3.566125
21.066667	1	3.328250
21.083333	1	3.093750
21.100000	1	2.865500
21.116667	1	2.646750
21.133333	1	2.440125
21.150000	1	2.246125
21.166667	1	2.066375
21.183333	1	1.900250
21.200000	1	1.750125
21.216667	1	1.613250
21.233333	1	1.490000
21.250000	1	1.378250
21.266667	1	1.278875
21.283333	1	1.189250
21.300000	1	1.110000
21.316667	1	1.038750
21.333333	1	0.975750
21.350000	1	0.919875
21.366667	1	0.870250
21.383333	1	0.825875
21.400000	1	0.786750
21.416667	1	0.751375
21.433333	1	0.720000
21.450000	1	0.693250
21.466667	1	0.669250
21.483333	1	0.648500
21.500000	1	0.630000
21.516667	1	0.615125
21.533333	1	0.601750
21.550000	1	0.590875
21.566667	1	0.581875
21.583333	1	0.575375
21.600000	1	0.570125
21.616667	1	0.566750
21.633333	1	0.566000
21.650000	1	0.567125
21.666667	1	0.570375
21.683333	1	0.575750
21.700000	1	0.583000
21.716667	1	0.592000
21.733333	1	0.603250
21.750000	1	0.615750
21.766667	1	0.629000
21.783333	1	0.643750
21.800000	1	0.660000
21.816667	1	0.675750
21.833333	1	0.692875
21.850000	1	0.709375
21.866667	1	0.725000
21.883333	1	0.740000
21.900000	1	0.754875
21.916667	1	0.768625
21.933333	1	0.780750
21.950000	1	0.791250
21.966667	1	0.800375
21.983333	1	0.807375
22.000000	1	0.813125
22.016667	1	0.817125
22.033333	1	0.819250
22.050000	1	0.819875
22.066667	1	0.819375
22.083333	1	0.817125
22.100000	1	0.814125
22.116667	1	0.810500
22.133333	1	0.805375
22.150000	1	0.800125
22.166667	1	0.793000
22.183333	1	0.785000
22.200000	1	0.775875
22.216667	1	0.766375
22.233333	1	0.756125
22.250000	1	0.745125
22.266667	1	0.733125
22.283333	1	0.721125
22.300000	1	0.708625
22.316667	1	0.696375
22.333333	1	0.682625
22.350000	1	0.669250
22.366667	1	0.655875
22.383333	1	0.643125
22.400000	1	0.630625
22.416667	1	0.618250
22.433333	1	0.606750
22.450000	1	0.596000
22.466667	1	0.585125
22.483333	1	0.575500
22.500000	1	0.566375
22.516667	1	0.557125
22.533333	1	0.549500
22.550000	1	0.541000
22.566667	1	0.533750
22.583333	1	0.526125
22.600000	1	0.519625
22.616667	1	0.513625
22.633333	1	0.508125
22.650000	1	0.502500
22.666667	1	0.496375
22.683333	1	0.491000
22.700000	1	0.485750
22.716667	1	0.480250
22.733333	1	0.474750
22.750000	1	0.469750
22.766667	1	0.464500
22.783333	1	0.459250
22.800000	1	0.454125
22.816667	1	0.449500
22.833333	1	0.444500
22.850000	1	0.440000
22.866667	1	0.435125
22.883333	1	0.430875
22.900000	1	0.426250
22.916667	1	0.422750
22.933333	1	0.419500
22.950000	1	0.416875
22.966667	1	0.414625
22.983333	1	0.412875
23.000000	1	0.410875
23.016667	1	0.409875
23.033333	1	0.408750
23.050000	1	0.407500
23.066667	1	0.406875
23.083333	1	0.407500
23.100000	1	0.407375
23.116667	1	0.408125
23.133333	1	0.409250
23.150000	1	0.409875
23.166667	1	0.411125
23.183333	1	0.412125
23.200000	1	0.413500
23.216667	1	0.414500
23.233333	1	0.416625
23.250000	1	0.418000
23.266667	1	0.420125
23.283333	1	0.423375
23.300000	1	0.427375
23.316667	1	0.433500
23.333333	1	0.441750
23.350000	1	0.453125
23.366667	1	0.468625
23.383333	1	0.488250
23.400000	1	0.514375
23.416667	1	0.547375
23.433333	1	0.588250
23.450000	1	0.640375
23.466667	1	0.704000
23.483333	1	0.781500
23.500000	1	0.873875
23.516667	1	0.983875
23.533333	1	1.111875
23.550000	1	1.260500
23.566667	1	1.428625
23.583333	1	1.616500
23.600000	1	1.824000
23.616667	1	2.049875
23.633333	1	2.292000
23.650000	1	2.547125
23.666667	1	2.812250
23.683333	1	3.082750
23.700000	1	3.353250
23.716667	1	3.619500
23.733333	1	3.875625
23.750000	1	4.115375
23.766667	1	4.334625
23.783333	1	4.527375
23.800000	1	4.689500
23.816667	1	4.817625
23.833333	1	4.910000
23.850000	1	4.964375
23.866667	1	4.981875
23.883333	1	4.961750
23.900000	1	4.907000
23.916667	1	4.818875
23.933333	1	4.701375
23.950000	1	4.557500
23.966667	1	4.392125
23.983333	1	4.209875
24.000000	1	4.014625
24.016667	1	3.810000
24.033333	1	3.601250
24.050000	1	3.391125
24.066667	1	3.183250
24.083333	1	2.978875
24.100000	1	2.780000
24.116667	1	2.589125
24.133333	1	2.407375
24.150000	1	2.235500
24.166667	1	2.073375
24.183333	1	1.922375
24.200000	1	1.781875
24.216667	1	1.650875
24.233333	1	1.530500
24.250000	1	1.420625
24.266667	1	1.318750
24.283333	1	1.226375
24.300000	1	1.142500
24.316667	1	1.066625
24.333333	1	0.998250
24.350000	1	0.936875
24.366667	1	0.881500
24.383333	1	0.832000
24.400000	1	0.788500
24.416667	1	0.750500
24.433333	1	0.717000
24.450000	1	0.689125
24.466667	1	0.664000
24.483333	1	0.642875
24.500000	1	0.624875
24.516667	1	0.608750
24.533333	1	0.595375
24.550000	1	0.584375
24.566667	1	0.574625
24.583333	1	0.565875
24.600000	1	0.558750
24.616667	1	0.552000
24.633333	1	0.546000
24.650000	1	0.540625
24.666667	1	0.535125
24.683333	1	0.530125
24.700000	1	0.525750
24.716667	1	0.520750
24.733333	1	0.515625
24.750000	1	0.510875
24.766667	1	0.505375
24.783333	1	0.500375
24.800000	1	0.495125
24.816667	1	0.490125
24.833333	1	0.485250
24.850000	1	0.480375
24.866667	1	0.475750
24.883333	1	0.471500
24.900000	1	0.467250
24.916667	1	0.463875
24.933333	1	0.459875
24.950000	1	0.456625
24.966667	1	0.453375
24.983333	1	0.450500
25.000000	1	0.448250
25.016667	1	0.445625
25.033333	1	0.443000
25.050000	1	0.441000
25.066667	1	0.439375
25.083333	1	0.437125
25.100000	1	0.435250
25.116667	1	0.433875
25.133333	1	0.431750
25.150000	1	0.429375
25.166667	1	0.426625
25.183333	1	0.424125
25.200000	1	0.422250
25.216667	1	0.420125
25.233333	1	0.417500
25.250000	1	0.415000
25.266667	1	0.413125
25.283333	1	0.411250
25.300000	1	0.409125
25.316667	1	0.407125
25.333333	1	0.405000
25.350000	1	0.402625
25.366667	1	0.400500
25.383333	1	0.398500
25.400000	1	0.396875
25.416667	1	0.396000
25.433333	1	0.394375
25.450000	1	0.393625
25.466667	1	0.392500
25.483333	1	0.392500
25.500000	1	0.392500
25.516667	1	0.392125
25.533333	1	0.392000
25.550000	1	0.392375
25.566667	1	0.392250
25.583333	1	0.391875
25.600000	1	0.391875
25.616667	1	0.391875
25.633333	1	0.392125
25.650000	1	0.392375
25.666667	1	0.392125
25.683333	1	0.392250
25.700000	1	0.392250
25.716667	1	0.392000
25.733333	1	0.391750
25.750000	1	0.391375
25.766667	1	0.389625
25.783333	1	0.388500
25.800000	1	0.387625
25.816667	1	0.386750
25.833333	1	0.386250
25.850000	1	0.386000
25.866667	1	0.384875
25.883333	1	0.384500
25.900000	1	0.384250
25.916667	1	0.384125
25.933333	1	0.384125
25.950000	1	0.384375
25.966667	1	0.385625
25.983333	1	0.386125
26.000000	1	0.387625
26.016667	1	0.388875
26.033333	1	0.391375
26.050000	1	0.393750
26.066667	1	0.396625
26.083333	1	0.400375
26.100000	1	0.404500
26.116667	1	0.408625
26.133333	1	0.413500
26.150000	1	0.418250
26.166667	1	0.422750
26.183333	1	0.428250
26.200000	1	0.432875
26.216667	1	0.438000
26.233333	1	0.443125
26.250000	1	0.448125
26.266667	1	0.453625
26.283333	1	0.458250
26.300000	1	0.462250
26.316667	1	0.465875
26.333333	1	0.468625
26.350000	1	0.471125
26.366667	1	0.472500
26.383333	1	0.473750
26.400000	1	0.474250
26.416667	1	0.474000
26.433333	1	0.473250
26.450000	1	0.471750
26.466667	1	0.469500
26.483333	1	0.466500
26.500000	1	0.462375
26.516667	1	0.458125
26.533333	1	0.452875
26.550000	1	0.447500
26.566667	1	0.441750
26.583333	1	0.436375
26.600000	1	0.429875
26.616667	1	0.423250
26.633333	1	0.416750
26.650000	1	0.410125
26.666667	1	0.403250
26.683333	1	0.397125
26.700000	1	0.390125
26.716667	1	0.383250
26.733333	1	0.377625
26.750000	1	0.371375
26.766667	1	0.365375
26.783333	1	0.359500
26.800000	1	0.354000
26.816667	1	0.349625
26.833333	1	0.345500
26.850000	1	0.341375
26.866667	1	0.337625
26.883333	1	0.333750
26.900000	1	0.330750
26.916667	1	0.328250
26.933333	1	0.326125
26.950000	1	0.324000
26.966667	1	0.322625
26.983333	1	0.321375
27.000000	1	0.320375
27.016667	1	0.320500
27.033333	1	0.321000
27.050000	1	0.321500
27.066667	1	0.322750
27.083333	1	0.324625
27.100000	1	0.327000
27.116667	1	0.330125
27.133333	1	0.333375
27.150000	1	0.337875
27.166667	1	0.342250
27.183333	1	0.347875
27.200000	1	0.355125
27.216667	1	0.363375
27.233333	1	0.373000
27.250000	1	0.385000
27.266667	1	0.398375
27.283333	1	0.415375
27.300000	1	0.434625
27.316667	1	0.457500
27.333333	1	0.484125
27.350000	1	0.514875
27.366667	1	0.551375
27.383333	1	0.593125
27.400000	1	0.641750
27.416667	1	0.698125
27.433333	1	0.762875
27.450000	1	0.836625
27.466667	1	0.920500
27.483333	1	1.013625
27.500000	1	1.117625
27.516667	1	1.232750
27.533333	1	1.360125
27.550000	1	1.498500
27.566667	1	1.647250
27.583333	1	1.806250
27.600000	1	1.975000
27.616667	1	2.152750
27.633333	1	2.337625
27.650000	1	2.527625
27.666667	1	2.720875
27.683333	1	2.915875
27.700000	1	3.108375
27.716667	1	3.297625
27.733333	1	3.478750
27.750000	1	3.649750
27.766667	1	3.808250
27.783333	1	3.951875
27.800000	1	4.078000
27.816667	1	4.183750
27.833333	1	4.266875
27.850000	1	4.327375
27.866667	1	4.363125
27.883333	1	4.374875
27.900000	1	4.361250
27.916667	1	4.323500
27.933333	1	4.261875
27.950000	1	4.179125
27.966667	1	4.075500
27.983333	1	3.954250
28.000000	1	3.817375
28.016667	1	3.668000
28.033333	1	3.507750
28.050000	1	3.340000
28.066667	1	3.167125
28.083333	1	2.991625
28.100000	1	2.815375
28.116667	1	2.641250
28.133333	1	2.470125
28.150000	1	2.304875
28.166667	1	2.146375
28.183333	1	1.994125
28.200000	1	1.850375
28.216667	1	1.715250
28.233333	1	1.588875
28.250000	1	1.470875
28.266667	1	1.362000
28.283333	1	1.260625
28.300000	1	1.168125
28.316667	1	1.084125
28.333333	1	1.007625
28.350000	1	0.937875
28.366667	1	0.875625
28.383333	1	0.820125
28.400000	1	0.770000
28.416667	1	0.726250
28.433333	1	0.688250
28.450000	1	0.654375
28.466667	1	0.625000
28.483333	1	0.600000
28.500000	1	0.579125
28.516667	1	0.562625
28.533333	1	0.549125
28.550000	1	0.538625
28.566667	1	0.530250
28.583333	1	0.524750
28.600000	1	0.521250
28.616667	1	0.520750
28.633333	1	0.522125
28.650000	1	0.524750
28.666667	1	0.529750
28.683333	1	0.535375
28.700000	1	0.541500
28.716667	1	0.548500
28.733333	1	0.556500
28.750000	1	0.564750
28.766667	1	0.572875
28.783333	1	0.581000
28.800000	1	0.590000
28.816667	1	0.597500
28.833333	1	0.605375
28.850000	1	0.612625
28.866667	1	0.619000
28.883333	1	0.624000
28.900000	1	0.628125
28.916667	1	0.632000
28.933333	1	0.633625
28.950000	1	0.635125
28.966667	1	0.635250
28.983333	1	0.633875
29.000000	1	0.630750
29.016667	1	0.627000
29.033333	1	0.621250
29.050000	1	0.614125
29.066667	1	0.605375
29.083333	1	0.594750
29.100000	1	0.582375
29.116667	1	0.568500
29.133333	1	0.552625
29.150000	1	0.534750
29.166667	1	0.514250
29.183333	1	0.492625
29.200000	1	0.469000
29.216667	1	0.443375
29.233333	1	0.415750
29.250000	1	0.385250
29.266667	1	0.352875
29.283333	1	0.318000
29.300000	1	0.281125
29.316667	1	0.242250
29.333333	1	0.200375
29.350000	1	0.156500
29.366667	1	0.110625
29.383333	1	0.063500
29.400000	1	0.014375
29.416667	1	-0.036250
29.433333	1	-0.088000
29.450000	1	-0.142000
29.466667	1	-0.196500
29.483333	1	-0.250375
29.500000	1	-0.304250
29.516667	1	-0.358000
29.533333	1	-0.411625
29.550000	1	-0.463250
29.566667	1	-0.513250
29.583333	1	-0.561375
29.600000	1	-0.606000
29.616667	1	-0.648625
29.633333	1	-0.687875
29.650000	1	-0.723250
29.666667	1	-0.754250
29.683333	1	-0.781500
29.700000	1	-0.804000
29.716667	1	-0.821500
29.733333	1	-0.835500
29.750000	1	-0.844250
29.766667	1	-0.849000
29.783333	1	-0.847875
29.800000	1	-0.842375
29.816667	1	-0.832500
29.833333	1	-0.819250
29.850000	1	-0.802125
29.866667	1	-0.780875
29.883333	1	-0.757000
29.900000	1	-0.730125
29.916667	1	-0.700625
29.933333	1	-0.669125
29.950000	1	-0.635750
29.966667	1	-0.601625
29.983333	1	-0.566125
30.000000	1	-0.529875
30.016667	1	-0.493625
30.033333	1	-0.457375
30.050000	1	-0.421125
30.066667	1	-0.384750
30.083333	1	-0.350500
30.100000	1	-0.315750
30.116667	1	-0.282000
30.133333	1	-0.249750
30.150000	1	-0.219375
30.166667	1	-0.189875
30.183333	1	-0.161625
30.200000	1	-0.135000
30.216667	1	-0.110250
30.233333	1	-0.086500
30.250000	1	-0.064500
30.266667	1	-0.043250
30.283333	1	-0.023750
30.300000	1	-0.005750
30.316667	1	0.010750
30.333333	1	0.026875
30.350000	1	0.041375
30.366667	1	0.054750
30.383333	1	0.067500
30.400000	1	0.079000
30.416667	1	0.090000
30.433333	1	0.099500
30.450000	1	0.109750
30.466667	1	0.118250
30.483333	1	0.127000
30.500000	1	0.135000
30.516667	1	0.143000
30.533333	1	0.150875
30.550000	1	0.158500
30.566667	1	0.165875
30.583333	1	0.173625
30.600000	1	0.181000
30.616667	1	0.189250
30.633333	1	0.196375
30.650000	1	0.204125
30.666667	1	0.212750
30.683333	1	0.221375
30.700000	1	0.229875
30.716667	1	0.239250
30.733333	1	0.249000
30.750000	1	0.258375
30.766667	1	0.267625
30.783333	1	0.276875
30.800000	1	0.286750
30.816667	1	0.297500
30.833333	1	0.307875
30.850000	1	0.318625
30.866667	1	0.330250
30.883333	1	0.342625
30.900000	1	0.355125
30.916667	1	0.368125
30.933333	1	0.381500
30.950000	1	0.397250
30.966667	1	0.413250
30.983333	1	0.431500
31.000000	1	0.451750
31.016667	1	0.473500
31.033333	1	0.498000
31.050000	1	0.525875
31.066667	1	0.556625
31.083333	1	0.591125
31.100000	1	0.630500
31.116667	1	0.674625
31.133333	1	0.723625
31.150000	1	0.779000
31.166667	1	0.840375
31.183333	1	0.908625
31.200000	1	0.984000
31.216667	1	1.066875
31.233333	1	1.157125
31.250000	1	1.254125
31.266667	1	1.357750
31.283333	1	1.468750
31.300000	1	1.586250
31.316667	1	1.710125
31.333333	1	1.839125
31.350000	1	1.971625
31.366667	1	2.106750
31.383333	1	2.244375
31.400000	1	2.383250
31.416667	1	2.520250
31.433333	1	2.654375
31.450000	1	2.784500
31.466667	1	2.909000
31.483333	1	3.025000
31.500000	1	3.131875
31.516667	1	3.228500
31.533333	1	3.313375
31.550000	1	3.385250
31.566667	1	3.444250
31.583333	1	3.487875
31.600000	1	3.517625
31.616667	1	3.531375
31.633333	1	3.530750
31.650000	1	3.515250
31.666667	1	3.485500
31.683333	1	3.441375
31.700000	1	3.385000
31.716667	1	3.315875
31.733333	1	3.235875
31.750000	1	3.146750
31.766667	1	3.049625
31.783333	1	2.946000
31.800000	1	2.835625
31.816667	1	2.720250
31.833333	1	2.602875
31.850000	1	2.483000
31.866667	1	2.361625
31.883333	1	2.240250
31.900000	1	2.120375
31.916667	1	2.003125
31.933333	1	1.887500
31.950000	1	1.775375
31.966667	1	1.666625
31.983333	1	1.561625
32.000000	1	1.461000
32.016667	1	1.364500
32.033333	1	1.272875
32.050000	1	1.185250
32.066667	1	1.102875
32.083333	1	1.024875
32.100000	1	0.950750
32.116667	1	0.881500
32.133333	1	0.816250
32.150000	1	0.755375
32.166667	1	0.699125
32.183333	1	0.645625
32.200000	1	0.596125
32.216667	1	0.549625
32.233333	1	0.505875
32.250000	1	0.465500
32.266667	1	0.429000
32.283333	1	0.394375
32.300000	1	0.362250
32.316667	1	0.333250
32.333333	1	0.306875
32.350000	1	0.282000
32.366667	1	0.259750
32.383333	1	0.239250
32.400000	1	0.220125
32.416667	1	0.202125
32.433333	1	0.186625
32.450000	1	0.172250
32.466667	1	0.158875
32.483333	1	0.147375
32.500000	1	0.136875
32.516667	1	0.127750
32.533333	1	0.119875
32.550000	1	0.112750
32.566667	1	0.106125
32.583333	1	0.100250
32.600000	1	0.095000
32.616667	1	0.090125
32.633333	1	0.086500
32.650000	1	0.083750
32.666667	1	0.080625
32.683333	1	0.077875
32.700000	1	0.075875
32.716667	1	0.074125
32.733333	1	0.072500
32.750000	1	0.071000
32.766667	1	0.071250
32.783333	1	0.070500
32.800000	1	0.069750
32.816667	1	0.068875
32.833333	1	0.069500
32.850000	1	0.069125
32.866667	1	0.069250
32.883333	1	0.069750
32.900000	1	0.069875
32.916667	1	0.069750
32.933333	1	0.070000
32.950000	1	0.069625
32.966667	1	0.069625
32.983333	1	0.070250
33.000000	1	0.070125
33.016667	1	0.070375
33.033333	1	0.070375
33.050000	1	0.070625
33.066667	1	0.070000
33.083333	1	0.070250
33.100000	1	0.070000
33.116667	1	0.070375
33.133333	1	0.070375
33.150000	1	0.071000
33.166667	1	0.070375
33.183333	1	0.069625
33.200000	1	0.069500
33.216667	1	0.069125
33.233333	1	0.068375
33.250000	1	0.068500
33.266667	1	0.068125
33.283333	1	0.067625
33.300000	1	0.066750
33.316667	1	0.066375
33.333333	1	0.066125
33.350000	1	0.065875
33.366667	1	0.065500
33.383333	1	0.065500
33.400000	1	0.065875
33.416667	1	0.066375
33.433333	1	0.066125
33.450000	1	0.066000
33.466667	1	0.065875
33.483333	1	0.065750
33.500000	1	0.066375
33.516667	1	0.066875
33.533333	1	0.067875
33.550000	1	0.068750
33.566667	1	0.070875
33.583333	1	0.072000
33.600000	1	0.074125
33.616667	1	0.076625
33.633333	1	0.079125
33.650000	1	0.081750
33.666667	1	0.084500
33.683333	1	0.087125
33.700000	1	0.090375
33.716667	1	0.093750
33.733333	1	0.096625
33.750000	1	0.099375
33.766667	1	0.103125
33.783333	1	0.106625
33.800000	1	0.110125
33.816667	1	0.113875
33.833333	1	0.117000
33.850000	1	0.120375
33.866667	1	0.123000
33.883333	1	0.126125
33.900000	1	0.128125
33.916667	1	0.130875
33.933333	1	0.133375
33.950000	1	0.135500
33.966667	1	0.137125
33.983333	1	0.138250
34.000000	1	0.138875
34.016667	1	0.139625
34.033333	1	0.139750
34.050000	1	0.139750
34.066667	1	0.140375
34.083333	1	0.140500
34.100000	1	0.140125
34.116667	1	0.139000
34.133333	1	0.138125
34.150000	1	0.137250
34.166667	1	0.135875
34.183333	1	0.134875
34.200000	1	0.133375
34.216667	1	0.131500
34.233333	1	0.129875
34.250000	1	0.127625
34.266667	1	0.126250
34.283333	1	0.124500
34.300000	1	0.122375
34.316667	1	0.120875
34.333333	1	0.119625
34.350000	1	0.119000
34.366667	1	0.118125
34.383333	1	0.117500
34.400000	1	0.117250
34.416667	1	0.116250
34.433333	1	0.115750
34.450000	1	0.115375
34.466667	1	0.115875
34.483333	1	0.116000
34.500000	1	0.116500
34.516667	1	0.116750
34.533333	1	0.117125
34.550000	1	0.117625
34.566667	1	0.118750
34.583333	1	0.120125
34.600000	1	0.121375
34.616667	1	0.123000
34.633333	1	0.124500
34.650000	1	0.126125
34.666667	1	0.127125
34.683333	1	0.128625
34.700000	1	0.130250
34.716667	1	0.131375
34.733333	1	0.133250
34.750000	1	0.134750
34.766667	1	0.135875
34.783333	1	0.136625
34.800000	1	0.136875
34.816667	1	0.137125
34.833333	1	0.137375
34.850000	1	0.137750
34.866667	1	0.137625
34.883333	1	0.137500
34.900000	1	0.137125
34.916667	1	0.136125
34.933333	1	0.136000
34.950000	1	0.134125
34.966667	1	0.132500
34.983333	1	0.130875
35.000000	1	0.129000
35.016667	1	0.127250
35.033333	1	0.125125
35.050000	1	0.122750
35.066667	1	0.120875
35.083333	1	0.118750
35.100000	1	0.117000
35.116667	1	0.114375
35.133333	1	0.112000
35.150000	1	0.109750
35.166667	1	0.107250
35.183333	1	0.104750
35.200000	1	0.102750
35.216667	1	0.100500
35.233333	1	0.098250
35.250000	1	0.096125
35.266667	1	0.094750
35.283333	1	0.093125
35.300000	1	0.091625
35.316667	1	0.091250
35.333333	1	0.090375
35.350000	1	0.089375
35.366667	1	0.088500
35.383333	1	0.088375
35.400000	1	0.088000
35.416667	1	0.088500
35.433333	1	0.088875
35.450000	1	0.089875
35.466667	1	0.090375
35.483333	1	0.091375
35.500000	1	0.093375
35.516667	1	0.094625
35.533333	1	0.095625
35.550000	1	0.097625
35.566667	1	0.100250
35.583333	1	0.102500
35.600000	1	0.104375
35.616667	1	0.106750
35.633333	1	0.109375
35.650000	1	0.111500
35.666667	1	0.114625
35.683333	1	0.116250
35.700000	1	0.119375
35.716667	1	0.121875
35.733333	1	0.124625
35.750000	1	0.127250
35.766667	1	0.129750
35.783333	1	0.131500
35.800000	1	0.134375
35.816667	1	0.136000
35.833333	1	0.138000
35.850000	1	0.139875
35.866667	1	0.141625
35.883333	1	0.142875
35.900000	1	0.145125
35.916667	1	0.146625
35.933333	1	0.147500
35.950000	1	0.147625
35.966667	1	0.147375
35.983333	1	0.147625
36.000000	1	0.147750
36.016667	1	0.147625
36.033333	1	0.147000
36.050000	1	0.146375
36.066667	1	0.146500
36.083333	1	0.146000
36.100000	1	0.145875
36.116667	1	0.146000
36.133333	1	0.146250
36.150000	1	0.145875
36.166667	1	0.145000
36.183333	1	0.143750
36.200000	1	0.143375
36.216667	1	0.142750
36.233333	1	0.141625
36.250000	1	0.141250
36.266667	1	0.140375
36.283333	1	0.140125
36.300000	1	0.139500
36.316667	1	0.138750
36.333333	1	0.138125
36.350000	1	0.137000
36.366667	1	0.136625
36.383333	1	0.135625
36.400000	1	0.134875
36.416667	1	0.134500
36.433333	1	0.134625
36.450000	1	0.134500
36.466667	1	0.133875
36.483333	1	0.132875
36.500000	1	0.132625
36.516667	1	0.131875
36.533333	1	0.131500
36.550000	1	0.131125
36.566667	1	0.130125
36.583333	1	0.129000
36.600000	1	0.127875
36.616667	1	0.126625
36.633333	1	0.125000
36.650000	1	0.123875
36.666667	1	0.123000
36.683333	1	0.121125
36.700000	1	0.119375
36.716667	1	0.117750
36.733333	1	0.115500
36.750000	1	0.113625
36.766667	1	0.110875
36.783333	1	0.109125
36.800000	1	0.106625
36.816667	1	0.104375
36.833333	1	0.101250
36.850000	1	0.098625
36.866667	1	0.096750
36.883333	1	0.094500
36.900000	1	0.092500
36.916667	1	0.090625
36.933333	1	0.088625
36.950000	1	0.086125
36.966667	1	0.083875
36.983333	1	0.082375
37.000000	1	0.081000
37.016667	1	0.079625
37.033333	1	0.078375
37.050000	1	0.076875
37.066667	1	0.076000
37.083333	1	0.075000
37.100000	1	0.074500
37.116667	1	0.074000
37.133333	1	0.074000
37.150000	1	0.073750
37.166667	1	0.074250
37.183333	1	0.074000
37.200000	1	0.074250
37.216667	1	0.075250
37.233333	1	0.076500
37.250000	1	0.078000
37.266667	1	0.079375
37.283333	1	0.081000
37.300000	1	0.082875
37.316667	1	0.084125
37.333333	1	0.086000
37.350000	1	0.088250
37.366667	1	0.090500
37.383333	1	0.092000
37.400000	1	0.093500
37.416667	1	0.094750
37.433333	1	0.096375
37.450000	1	0.098125
37.466667	1	0.099750
37.483333	1	0.101875
37.500000	1	0.103000
37.516667	1	0.104125
37.533333	1	0.105500
37.550000	1	0.105375
37.566667	1	0.106500
37.583333	1	0.107250
37.600000	1	0.108000
37.616667	1	0.108250
37.633333	1	0.108375
37.650000	1	0.107875
37.666667	1	0.108250
37.683333	1	0.108375
37.700000	1	0.108125
37.716667	1	0.107875
37.733333	1	0.107875
37.750000	1	0.107000
37.766667	1	0.106625
37.783333	1	0.105875
37.800000	1	0.104375
37.816667	1	0.103125
37.833333	1	0.102125
37.850000	1	0.100250
37.866667	1	0.099000
37.883333	1	0.097125
37.900000	1	0.095500
37.916667	1	0.093375
37.933333	1	0.091500
37.950000	1	0.089375
37.966667	1	0.088125
37.983333	1	0.085125
38.000000	1	0.083750
38.016667	1	0.081500
38.033333	1	0.079625
38.050000	1	0.078625
38.066667	1	0.077375
38.083333	1	0.075875
38.100000	1	0.074375
38.116667	1	0.072000
38.133333	1	0.070125
38.150000	1	0.069000
38.166667	1	0.067625
38.183333	1	0.066625
38.200000	1	0.065500
38.216667	1	0.064500
38.233333	1	0.063250
38.250000	1	0.062375
38.266667	1	0.061125
38.283333	1	0.060250
38.300000	1	0.058500
38.316667	1	0.058125
38.333333	1	0.056625
38.350000	1	0.055375
38.366667	1	0.054750
38.383333	1	0.053250
38.400000	1	0.051625
38.416667	1	0.050125
38.433333	1	0.049125
38.450000	1	0.047875
38.466667	1	0.046375
38.483333	1	0.044625
38.500000	1	0.044000
38.516667	1	0.043000
38.533333	1	0.041375
38.550000	1	0.040125
38.566667	1	0.039125
38.583333	1	0.037375
38.600000	1	0.036250
38.616667	1	0.035125
38.633333	1	0.033625
38.650000	1	0.032125
38.666667	1	0.031375
38.683333	1	0.030875
38.700000	1	0.029875
38.716667	1	0.028375
38.733333	1	0.028125
38.750000	1	0.027500
38.766667	1	0.027250
38.783333	1	0.026250
38.800000	1	0.026750
38.816667	1	0.025875
38.833333	1	0.025750
38.850000	1	0.025875
38.866667	1	0.026125
38.883333	1	0.026500
38.900000	1	0.026750
38.916667	1	0.026875
38.933333	1	0.027000
38.950000	1	0.027375
38.966667	1	0.027125
38.983333	1	0.027500
39.000000	1	0.027000
39.016667	1	0.026750
39.033333	1	0.027250
39.050000	1	0.027000
39.066667	1	0.027125
39.083333	1	0.026000
39.100000	1	0.025875
39.116667	1	0.025750
39.133333	1	0.024250
39.150000	1	0.023750
39.166667	1	0.023250
39.183333	1	0.022000
39.200000	1	0.021125
39.216667	1	0.020375
39.233333	1	0.018375
39.250000	1	0.016875
39.266667	1	0.015750
39.283333	1	0.014000
39.300000	1	0.012750
39.316667	1	0.011500
39.333333	1	0.010500
39.350000	1	0.008875
39.366667	1	0.008250
39.383333	1	0.006375
39.400000	1	0.005375
39.416667	1	0.004500
39.433333	1	0.003125
39.450000	1	0.002250
39.466667	1	0.001750
39.483333	1	0.001375
39.500000	1	0.001500
39.516667	1	0.000750
39.533333	1	0.001000
39.550000	1	0.001000
39.566667	1	0.000625
39.583333	1	0.000875
39.600000	1	0.000375
39.616667	1	0.001500
39.633333	1	0.002250
39.650000	1	0.003000
39.666667	1	0.002750
39.683333	1	0.003250
39.700000	1	0.004125
39.716667	1	0.004750
39.733333	1	0.005000
39.750000	1	0.006250
39.766667	1	0.006875
39.783333	1	0.007875
39.800000	1	0.008375
39.816667	1	0.009000
39.833333	1	0.009875
39.850000	1	0.009750
39.866667	1	0.010000
39.883333	1	0.010375
39.900000	1	0.010375
39.916667	1	0.010375
39.933333	1	0.010250
39.950000	1	0.009875
39.966667	1	0.009125
39.983333	1	0.008875
40.000000	1	0.008500
