URL	chrom://7040-86g6c92/XVault/Ultimate_3000/20/20240517_CMO_FP23_FP25_MarkusDeplate.seq/759.smp/RI_1.channel/RI_1.chm
Channel	RI_1

Injection Information:
Data Vault	XVault
Sequence	20240517_CMO_FP23_FP25_MarkusDeplate
Name	FP26_21_s2
Number	90
Position	BA7
Comment	
Processing Method	
Instrument Method	run_25B_method
Type	Unknown
Status	Finished
Inject Time	30.05.2024 07:29:33 +02:00
Volume (µl)	20.0000
Dilution Factor	1.0000
Weight	1.0000

Chromatogram Data Information:
Time Min. (min)	0.000000
Time Max. (min)	40.000000
Data Points	2401
Detector	RI
Generating Data System	Chromeleon 7.3.2.11814
Exporting Data System	Chromeleon 7.3.2.0
Operator	Instrument Controller
Signal Quantity	Refractive 
Signal Unit	µRIU
Signal Min.	-0.910000
Signal Max.	64.159000
Channel	RI_1
Driver Name	RID520Driver.dll
Channel Type	Evaluation
Min. Step (s)	1
Max. Step (s)	1
Average Step (s)	1

Signal Parameter Information:
Signal Info	

Chromatogram Data:
Time (min)	Step (s)	Value (µRIU)
0.000000	n.a.	0.001250
0.016667	1	0.000875
0.033333	1	0.001500
0.050000	1	0.002125
0.066667	1	0.002125
0.083333	1	0.002375
0.100000	1	0.003500
0.116667	1	0.004125
0.133333	1	0.005125
0.150000	1	0.006375
0.166667	1	0.006875
0.183333	1	0.008000
0.200000	1	0.009500
0.216667	1	0.010625
0.233333	1	0.012750
0.250000	1	0.014250
0.266667	1	0.015750
0.283333	1	0.017000
0.300000	1	0.018000
0.316667	1	0.018875
0.333333	1	0.020375
0.350000	1	0.021875
0.366667	1	0.022125
0.383333	1	0.022875
0.400000	1	0.023000
0.416667	1	0.024250
0.433333	1	0.026000
0.450000	1	0.029125
0.466667	1	0.031375
0.483333	1	0.033750
0.500000	1	0.036375
0.516667	1	0.038250
0.533333	1	0.039250
0.550000	1	0.039750
0.566667	1	0.039750
0.583333	1	0.038500
0.600000	1	0.037250
0.616667	1	0.035625
0.633333	1	0.034500
0.650000	1	0.034125
0.666667	1	0.034625
0.683333	1	0.035125
0.700000	1	0.035750
0.716667	1	0.036625
0.733333	1	0.037250
0.750000	1	0.037625
0.766667	1	0.037750
0.783333	1	0.038250
0.800000	1	0.039000
0.816667	1	0.039250
0.833333	1	0.039375
0.850000	1	0.040125
0.866667	1	0.040625
0.883333	1	0.037875
0.900000	1	0.036875
0.916667	1	0.038625
0.933333	1	0.039500
0.950000	1	0.040125
0.966667	1	0.040250
0.983333	1	0.039875
1.000000	1	0.039375
1.016667	1	0.038500
1.033333	1	0.038500
1.050000	1	0.037750
1.066667	1	0.036625
1.083333	1	0.035250
1.100000	1	0.034500
1.116667	1	0.033375
1.133333	1	0.032000
1.150000	1	0.030500
1.166667	1	0.028875
1.183333	1	0.027250
1.200000	1	0.025375
1.216667	1	0.023875
1.233333	1	0.022500
1.250000	1	0.020625
1.266667	1	0.019625
1.283333	1	0.017625
1.300000	1	0.017250
1.316667	1	0.015625
1.333333	1	0.014625
1.350000	1	0.012875
1.366667	1	0.011625
1.383333	1	0.010250
1.400000	1	0.009500
1.416667	1	0.008250
1.433333	1	0.006750
1.450000	1	0.006250
1.466667	1	0.005375
1.483333	1	0.005625
1.500000	1	0.004625
1.516667	1	0.004375
1.533333	1	0.003625
1.550000	1	0.003375
1.566667	1	0.003000
1.583333	1	0.003375
1.600000	1	0.002375
1.616667	1	0.002750
1.633333	1	0.003125
1.650000	1	0.003125
1.666667	1	0.002875
1.683333	1	0.003000
1.700000	1	0.003000
1.716667	1	0.003625
1.733333	1	0.003875
1.750000	1	0.003750
1.766667	1	0.003250
1.783333	1	0.002750
1.800000	1	0.003375
1.816667	1	0.003625
1.833333	1	0.003625
1.850000	1	0.003500
1.866667	1	0.004000
1.883333	1	0.004125
1.900000	1	0.004500
1.916667	1	0.004000
1.933333	1	0.004875
1.950000	1	0.004875
1.966667	1	0.004875
1.983333	1	0.004875
2.000000	1	0.005750
2.016667	1	0.005625
2.033333	1	0.005625
2.050000	1	0.006500
2.066667	1	0.006625
2.083333	1	0.007000
2.100000	1	0.007375
2.116667	1	0.008250
2.133333	1	0.008625
2.150000	1	0.008625
2.166667	1	0.008625
2.183333	1	0.007875
2.200000	1	0.007750
2.216667	1	0.008625
2.233333	1	0.008250
2.250000	1	0.008625
2.266667	1	0.008125
2.283333	1	0.008500
2.300000	1	0.008625
2.316667	1	0.007875
2.333333	1	0.008125
2.350000	1	0.008500
2.366667	1	0.008250
2.383333	1	0.008625
2.400000	1	0.009250
2.416667	1	0.010000
2.433333	1	0.009750
2.450000	1	0.010375
2.466667	1	0.010875
2.483333	1	0.011375
2.500000	1	0.012375
2.516667	1	0.013125
2.533333	1	0.013875
2.550000	1	0.015000
2.566667	1	0.016375
2.583333	1	0.017000
2.600000	1	0.018250
2.616667	1	0.019500
2.633333	1	0.021000
2.650000	1	0.022625
2.666667	1	0.024375
2.683333	1	0.025000
2.700000	1	0.025500
2.716667	1	0.026125
2.733333	1	0.027500
2.750000	1	0.028875
2.766667	1	0.029000
2.783333	1	0.030125
2.800000	1	0.030875
2.816667	1	0.030500
2.833333	1	0.030875
2.850000	1	0.031500
2.866667	1	0.031875
2.883333	1	0.031750
2.900000	1	0.032000
2.916667	1	0.032125
2.933333	1	0.032250
2.950000	1	0.032125
2.966667	1	0.032000
2.983333	1	0.031250
3.000000	1	0.030750
3.016667	1	0.030625
3.033333	1	0.030250
3.050000	1	0.029500
3.066667	1	0.028375
3.083333	1	0.027250
3.100000	1	0.026875
3.116667	1	0.026375
3.133333	1	0.025625
3.150000	1	0.024375
3.166667	1	0.024250
3.183333	1	0.024375
3.200000	1	0.024125
3.216667	1	0.023750
3.233333	1	0.024000
3.250000	1	0.024125
3.266667	1	0.025125
3.283333	1	0.025500
3.300000	1	0.026125
3.316667	1	0.026125
3.333333	1	0.027375
3.350000	1	0.028500
3.366667	1	0.030500
3.383333	1	0.032250
3.400000	1	0.034125
3.416667	1	0.035500
3.433333	1	0.037625
3.450000	1	0.039875
3.466667	1	0.042625
3.483333	1	0.044750
3.500000	1	0.047000
3.516667	1	0.048750
3.533333	1	0.050750
3.550000	1	0.052875
3.566667	1	0.054250
3.583333	1	0.055500
3.600000	1	0.057375
3.616667	1	0.059000
3.633333	1	0.060625
3.650000	1	0.062000
3.666667	1	0.063250
3.683333	1	0.064750
3.700000	1	0.065250
3.716667	1	0.066875
3.733333	1	0.068125
3.750000	1	0.069500
3.766667	1	0.070875
3.783333	1	0.072375
3.800000	1	0.072625
3.816667	1	0.074000
3.833333	1	0.075000
3.850000	1	0.076750
3.866667	1	0.077250
3.883333	1	0.077875
3.900000	1	0.079125
3.916667	1	0.080375
3.933333	1	0.081125
3.950000	1	0.081750
3.966667	1	0.082250
3.983333	1	0.082875
4.000000	1	0.083625
4.016667	1	0.084250
4.033333	1	0.084625
4.050000	1	0.084625
4.066667	1	0.084500
4.083333	1	0.084750
4.100000	1	0.085250
4.116667	1	0.085500
4.133333	1	0.085125
4.150000	1	0.084500
4.166667	1	0.084250
4.183333	1	0.082875
4.200000	1	0.081750
4.216667	1	0.080500
4.233333	1	0.080125
4.250000	1	0.078750
4.266667	1	0.077250
4.283333	1	0.075375
4.300000	1	0.073750
4.316667	1	0.072250
4.333333	1	0.070375
4.350000	1	0.068500
4.366667	1	0.066125
4.383333	1	0.064250
4.400000	1	0.063500
4.416667	1	0.062000
4.433333	1	0.060000
4.450000	1	0.058250
4.466667	1	0.055750
4.483333	1	0.054125
4.500000	1	0.052375
4.516667	1	0.051250
4.533333	1	0.049250
4.550000	1	0.047125
4.566667	1	0.045375
4.583333	1	0.044375
4.600000	1	0.043500
4.616667	1	0.042875
4.633333	1	0.042500
4.650000	1	0.041875
4.666667	1	0.041000
4.683333	1	0.040750
4.700000	1	0.040125
4.716667	1	0.039625
4.733333	1	0.039875
4.750000	1	0.039500
4.766667	1	0.039875
4.783333	1	0.039625
4.800000	1	0.039875
4.816667	1	0.041000
4.833333	1	0.041375
4.850000	1	0.041875
4.866667	1	0.042875
4.883333	1	0.043875
4.900000	1	0.044750
4.916667	1	0.046000
4.933333	1	0.047375
4.950000	1	0.048875
4.966667	1	0.050500
4.983333	1	0.052375
5.000000	1	0.054125
5.016667	1	0.056375
5.033333	1	0.058125
5.050000	1	0.060750
5.066667	1	0.063625
5.083333	1	0.067000
5.100000	1	0.069750
5.116667	1	0.072750
5.133333	1	0.076125
5.150000	1	0.080625
5.166667	1	0.084500
5.183333	1	0.088750
5.200000	1	0.093625
5.216667	1	0.098875
5.233333	1	0.103750
5.250000	1	0.108875
5.266667	1	0.114500
5.283333	1	0.120000
5.300000	1	0.125500
5.316667	1	0.131500
5.333333	1	0.137750
5.350000	1	0.144250
5.366667	1	0.150250
5.383333	1	0.156125
5.400000	1	0.162500
5.416667	1	0.168875
5.433333	1	0.175375
5.450000	1	0.181375
5.466667	1	0.188250
5.483333	1	0.194125
5.500000	1	0.200375
5.516667	1	0.206000
5.533333	1	0.212375
5.550000	1	0.218375
5.566667	1	0.224375
5.583333	1	0.230000
5.600000	1	0.235750
5.616667	1	0.241125
5.633333	1	0.245875
5.650000	1	0.250250
5.666667	1	0.255000
5.683333	1	0.258875
5.700000	1	0.262500
5.716667	1	0.266625
5.733333	1	0.269875
5.750000	1	0.273375
5.766667	1	0.275625
5.783333	1	0.277625
5.800000	1	0.279250
5.816667	1	0.281625
5.833333	1	0.282500
5.850000	1	0.282375
5.866667	1	0.282750
5.883333	1	0.282875
5.900000	1	0.282375
5.916667	1	0.281625
5.933333	1	0.281000
5.950000	1	0.280125
5.966667	1	0.278625
5.983333	1	0.277500
6.000000	1	0.275500
6.016667	1	0.272500
6.033333	1	0.269625
6.050000	1	0.267000
6.066667	1	0.263875
6.083333	1	0.261375
6.100000	1	0.257875
6.116667	1	0.254125
6.133333	1	0.250875
6.150000	1	0.247125
6.166667	1	0.242625
6.183333	1	0.238375
6.200000	1	0.234625
6.216667	1	0.230250
6.233333	1	0.225625
6.250000	1	0.221000
6.266667	1	0.216125
6.283333	1	0.212000
6.300000	1	0.206875
6.316667	1	0.202250
6.333333	1	0.198000
6.350000	1	0.193500
6.366667	1	0.190000
6.383333	1	0.186250
6.400000	1	0.182625
6.416667	1	0.179000
6.433333	1	0.175875
6.450000	1	0.172500
6.466667	1	0.169375
6.483333	1	0.166500
6.500000	1	0.163375
6.516667	1	0.161000
6.533333	1	0.158500
6.550000	1	0.156625
6.566667	1	0.154750
6.583333	1	0.153875
6.600000	1	0.152875
6.616667	1	0.152000
6.633333	1	0.150125
6.650000	1	0.148750
6.666667	1	0.147375
6.683333	1	0.147500
6.700000	1	0.146875
6.716667	1	0.146500
6.733333	1	0.145750
6.750000	1	0.145250
6.766667	1	0.145000
6.783333	1	0.144875
6.800000	1	0.144500
6.816667	1	0.143875
6.833333	1	0.143125
6.850000	1	0.141750
6.866667	1	0.141625
6.883333	1	0.141500
6.900000	1	0.141250
6.916667	1	0.140625
6.933333	1	0.140375
6.950000	1	0.140250
6.966667	1	0.140750
6.983333	1	0.141375
7.000000	1	0.142250
7.016667	1	0.142625
7.033333	1	0.142375
7.050000	1	0.142250
7.066667	1	0.142625
7.083333	1	0.143375
7.100000	1	0.144875
7.116667	1	0.146375
7.133333	1	0.148250
7.150000	1	0.149000
7.166667	1	0.150500
7.183333	1	0.152250
7.200000	1	0.154750
7.216667	1	0.156875
7.233333	1	0.159250
7.250000	1	0.162000
7.266667	1	0.164625
7.283333	1	0.168000
7.300000	1	0.169875
7.316667	1	0.173625
7.333333	1	0.176125
7.350000	1	0.179750
7.366667	1	0.182625
7.383333	1	0.185500
7.400000	1	0.187625
7.416667	1	0.190625
7.433333	1	0.193125
7.450000	1	0.195500
7.466667	1	0.196875
7.483333	1	0.199000
7.500000	1	0.200750
7.516667	1	0.202500
7.533333	1	0.204125
7.550000	1	0.205250
7.566667	1	0.205625
7.583333	1	0.205750
7.600000	1	0.205750
7.616667	1	0.205500
7.633333	1	0.205000
7.650000	1	0.205000
7.666667	1	0.204250
7.683333	1	0.202875
7.700000	1	0.201750
7.716667	1	0.200500
7.733333	1	0.198375
7.750000	1	0.195875
7.766667	1	0.194125
7.783333	1	0.192500
7.800000	1	0.190000
7.816667	1	0.187625
7.833333	1	0.185000
7.850000	1	0.182125
7.866667	1	0.178875
7.883333	1	0.175750
7.900000	1	0.171750
7.916667	1	0.168250
7.933333	1	0.163500
7.950000	1	0.159000
7.966667	1	0.154500
7.983333	1	0.150625
8.000000	1	0.146000
8.016667	1	0.141250
8.033333	1	0.137125
8.050000	1	0.132500
8.066667	1	0.127500
8.083333	1	0.122750
8.100000	1	0.118125
8.116667	1	0.114750
8.133333	1	0.110125
8.150000	1	0.105250
8.166667	1	0.100500
8.183333	1	0.096250
8.200000	1	0.091750
8.216667	1	0.087750
8.233333	1	0.083875
8.250000	1	0.080000
8.266667	1	0.077000
8.283333	1	0.073875
8.300000	1	0.070875
8.316667	1	0.068500
8.333333	1	0.065750
8.350000	1	0.063125
8.366667	1	0.060625
8.383333	1	0.058375
8.400000	1	0.057125
8.416667	1	0.055875
8.433333	1	0.055625
8.450000	1	0.054375
8.466667	1	0.054125
8.483333	1	0.054375
8.500000	1	0.054125
8.516667	1	0.054000
8.533333	1	0.054250
8.550000	1	0.054875
8.566667	1	0.055000
8.583333	1	0.056000
8.600000	1	0.056250
8.616667	1	0.058000
8.633333	1	0.059875
8.650000	1	0.060500
8.666667	1	0.061875
8.683333	1	0.063125
8.700000	1	0.063625
8.716667	1	0.065375
8.733333	1	0.066875
8.750000	1	0.069125
8.766667	1	0.070375
8.783333	1	0.071875
8.800000	1	0.073750
8.816667	1	0.075250
8.833333	1	0.076500
8.850000	1	0.077625
8.866667	1	0.080000
8.883333	1	0.081750
8.900000	1	0.083875
8.916667	1	0.085625
8.933333	1	0.087500
8.950000	1	0.089250
8.966667	1	0.090750
8.983333	1	0.092125
9.000000	1	0.093750
9.016667	1	0.095000
9.033333	1	0.096500
9.050000	1	0.097250
9.066667	1	0.098125
9.083333	1	0.098250
9.100000	1	0.098625
9.116667	1	0.098625
9.133333	1	0.098750
9.150000	1	0.099250
9.166667	1	0.098750
9.183333	1	0.098250
9.200000	1	0.097250
9.216667	1	0.096125
9.233333	1	0.096125
9.250000	1	0.095500
9.266667	1	0.094250
9.283333	1	0.092750
9.300000	1	0.091625
9.316667	1	0.090750
9.333333	1	0.089500
9.350000	1	0.087875
9.366667	1	0.086250
9.383333	1	0.084750
9.400000	1	0.083125
9.416667	1	0.081750
9.433333	1	0.079875
9.450000	1	0.079000
9.466667	1	0.077000
9.483333	1	0.075000
9.500000	1	0.073625
9.516667	1	0.072000
9.533333	1	0.071250
9.550000	1	0.069750
9.566667	1	0.068125
9.583333	1	0.066125
9.600000	1	0.064625
9.616667	1	0.063750
9.633333	1	0.062875
9.650000	1	0.060875
9.666667	1	0.059375
9.683333	1	0.058625
9.700000	1	0.058000
9.716667	1	0.056375
9.733333	1	0.055375
9.750000	1	0.054250
9.766667	1	0.053125
9.783333	1	0.051625
9.800000	1	0.051000
9.816667	1	0.049750
9.833333	1	0.048625
9.850000	1	0.047750
9.866667	1	0.046875
9.883333	1	0.046000
9.900000	1	0.046000
9.916667	1	0.046000
9.933333	1	0.045250
9.950000	1	0.045750
9.966667	1	0.046625
9.983333	1	0.047500
10.000000	1	0.048500
10.016667	1	0.050000
10.033333	1	0.052750
10.050000	1	0.056000
10.066667	1	0.059875
10.083333	1	0.064875
10.100000	1	0.070250
10.116667	1	0.076375
10.133333	1	0.082750
10.150000	1	0.091125
10.166667	1	0.099875
10.183333	1	0.109625
10.200000	1	0.120375
10.216667	1	0.133625
10.233333	1	0.148125
10.250000	1	0.164375
10.266667	1	0.182125
10.283333	1	0.203125
10.300000	1	0.226125
10.316667	1	0.251250
10.333333	1	0.279875
10.350000	1	0.311500
10.366667	1	0.345500
10.383333	1	0.381250
10.400000	1	0.415625
10.416667	1	0.443500
10.433333	1	0.457250
10.450000	1	0.447625
10.466667	1	0.408500
10.483333	1	0.342875
10.500000	1	0.269750
10.516667	1	0.229125
10.533333	1	0.284500
10.550000	1	0.515375
10.566667	1	1.012125
10.583333	1	1.861750
10.600000	1	3.141625
10.616667	1	4.913375
10.633333	1	7.216125
10.650000	1	10.068375
10.666667	1	13.475375
10.683333	1	17.418375
10.700000	1	21.857250
10.716667	1	26.716125
10.733333	1	31.875500
10.750000	1	37.152750
10.766667	1	42.284000
10.783333	1	46.928375
10.800000	1	50.670500
10.816667	1	53.085750
10.833333	1	53.841000
10.850000	1	52.803125
10.866667	1	50.094125
10.883333	1	46.066875
10.900000	1	41.205125
10.916667	1	36.001750
10.933333	1	30.861000
10.950000	1	26.065500
10.966667	1	21.776625
10.983333	1	18.061125
11.000000	1	14.920875
11.016667	1	12.320500
11.033333	1	10.203125
11.050000	1	8.500000
11.066667	1	7.141250
11.083333	1	6.061250
11.100000	1	5.204625
11.116667	1	4.523375
11.133333	1	3.978375
11.150000	1	3.539250
11.166667	1	3.182000
11.183333	1	2.888125
11.200000	1	2.644000
11.216667	1	2.438625
11.233333	1	2.264000
11.250000	1	2.114000
11.266667	1	1.984375
11.283333	1	1.871375
11.300000	1	1.772500
11.316667	1	1.684625
11.333333	1	1.607375
11.350000	1	1.539625
11.366667	1	1.479500
11.383333	1	1.426000
11.400000	1	1.378375
11.416667	1	1.336375
11.433333	1	1.298625
11.450000	1	1.266375
11.466667	1	1.237625
11.483333	1	1.212875
11.500000	1	1.190625
11.516667	1	1.172000
11.533333	1	1.156250
11.550000	1	1.143250
11.566667	1	1.132000
11.583333	1	1.123500
11.600000	1	1.116250
11.616667	1	1.109875
11.633333	1	1.104750
11.650000	1	1.100125
11.666667	1	1.096125
11.683333	1	1.092625
11.700000	1	1.089500
11.716667	1	1.086500
11.733333	1	1.084375
11.750000	1	1.083000
11.766667	1	1.083375
11.783333	1	1.083500
11.800000	1	1.084375
11.816667	1	1.086500
11.833333	1	1.088625
11.850000	1	1.091375
11.866667	1	1.094625
11.883333	1	1.097750
11.900000	1	1.101250
11.916667	1	1.104875
11.933333	1	1.109500
11.950000	1	1.113875
11.966667	1	1.117875
11.983333	1	1.122625
12.000000	1	1.127500
12.016667	1	1.133250
12.033333	1	1.138750
12.050000	1	1.145000
12.066667	1	1.151875
12.083333	1	1.159500
12.100000	1	1.166375
12.116667	1	1.173875
12.133333	1	1.181500
12.150000	1	1.190500
12.166667	1	1.199625
12.183333	1	1.209625
12.200000	1	1.220500
12.216667	1	1.232625
12.233333	1	1.246000
12.250000	1	1.260625
12.266667	1	1.277125
12.283333	1	1.296000
12.300000	1	1.316500
12.316667	1	1.340875
12.333333	1	1.369250
12.350000	1	1.404250
12.366667	1	1.448750
12.383333	1	1.506125
12.400000	1	1.580625
12.416667	1	1.679625
12.433333	1	1.810750
12.450000	1	1.981375
12.466667	1	2.199875
12.483333	1	2.471375
12.500000	1	2.802875
12.516667	1	3.194500
12.533333	1	3.646000
12.550000	1	4.150750
12.566667	1	4.699875
12.583333	1	5.280250
12.600000	1	5.878375
12.616667	1	6.478250
12.633333	1	7.065125
12.650000	1	7.625500
12.666667	1	8.150625
12.683333	1	8.632875
12.700000	1	9.068375
12.716667	1	9.454625
12.733333	1	9.788375
12.750000	1	10.063875
12.766667	1	10.267875
12.783333	1	10.384750
12.800000	1	10.390250
12.816667	1	10.265250
12.833333	1	10.000125
12.850000	1	9.602250
12.866667	1	9.100250
12.883333	1	8.531875
12.900000	1	7.936625
12.916667	1	7.346250
12.933333	1	6.779125
12.950000	1	6.244500
12.966667	1	5.748000
12.983333	1	5.292250
13.000000	1	4.877125
13.016667	1	4.504625
13.033333	1	4.174750
13.050000	1	3.884625
13.066667	1	3.632000
13.083333	1	3.412750
13.100000	1	3.222750
13.116667	1	3.058250
13.133333	1	2.915375
13.150000	1	2.790875
13.166667	1	2.681125
13.183333	1	2.583250
13.200000	1	2.496250
13.216667	1	2.418125
13.233333	1	2.346625
13.250000	1	2.280875
13.266667	1	2.221375
13.283333	1	2.166125
13.300000	1	2.114875
13.316667	1	2.066750
13.333333	1	2.021500
13.350000	1	1.980625
13.366667	1	1.942625
13.383333	1	1.907750
13.400000	1	1.876250
13.416667	1	1.848375
13.433333	1	1.823375
13.450000	1	1.802375
13.466667	1	1.785000
13.483333	1	1.770875
13.500000	1	1.760000
13.516667	1	1.752875
13.533333	1	1.747375
13.550000	1	1.743500
13.566667	1	1.739500
13.583333	1	1.735750
13.600000	1	1.730875
13.616667	1	1.724125
13.633333	1	1.715125
13.650000	1	1.702375
13.666667	1	1.686125
13.683333	1	1.666625
13.700000	1	1.645250
13.716667	1	1.621875
13.733333	1	1.596875
13.750000	1	1.570625
13.766667	1	1.544625
13.783333	1	1.518500
13.800000	1	1.493625
13.816667	1	1.469625
13.833333	1	1.446750
13.850000	1	1.424125
13.866667	1	1.403125
13.883333	1	1.382750
13.900000	1	1.364500
13.916667	1	1.347125
13.933333	1	1.329750
13.950000	1	1.313375
13.966667	1	1.298250
13.983333	1	1.284000
14.000000	1	1.269875
14.016667	1	1.256000
14.033333	1	1.242750
14.050000	1	1.230000
14.066667	1	1.217375
14.083333	1	1.205875
14.100000	1	1.194625
14.116667	1	1.183250
14.133333	1	1.172750
14.150000	1	1.163000
14.166667	1	1.153500
14.183333	1	1.145125
14.200000	1	1.138500
14.216667	1	1.133125
14.233333	1	1.127125
14.250000	1	1.123500
14.266667	1	1.121375
14.283333	1	1.120750
14.300000	1	1.120625
14.316667	1	1.123375
14.333333	1	1.127750
14.350000	1	1.134750
14.366667	1	1.143250
14.383333	1	1.154750
14.400000	1	1.169750
14.416667	1	1.190500
14.433333	1	1.219750
14.450000	1	1.262500
14.466667	1	1.326875
14.483333	1	1.425125
14.500000	1	1.575625
14.516667	1	1.803625
14.533333	1	2.142625
14.550000	1	2.635875
14.566667	1	3.338250
14.583333	1	4.310375
14.600000	1	5.623125
14.616667	1	7.352250
14.633333	1	9.568875
14.650000	1	12.332875
14.666667	1	15.683250
14.683333	1	19.626500
14.700000	1	24.122875
14.716667	1	29.086375
14.733333	1	34.384625
14.750000	1	39.842125
14.766667	1	45.240750
14.783333	1	50.342375
14.800000	1	54.912750
14.816667	1	58.734125
14.833333	1	61.624250
14.850000	1	63.454500
14.866667	1	64.159000
14.883333	1	63.743000
14.900000	1	62.276125
14.916667	1	59.888375
14.933333	1	56.746500
14.950000	1	53.040125
14.966667	1	48.962750
14.983333	1	44.699000
15.000000	1	40.403750
15.016667	1	36.203250
15.033333	1	32.195750
15.050000	1	28.450625
15.066667	1	25.008875
15.083333	1	21.890500
15.100000	1	19.100125
15.116667	1	16.626125
15.133333	1	14.448125
15.150000	1	12.542125
15.166667	1	10.883250
15.183333	1	9.446250
15.200000	1	8.204125
15.216667	1	7.134500
15.233333	1	6.216000
15.250000	1	5.432375
15.266667	1	4.767875
15.283333	1	4.208250
15.300000	1	3.741375
15.316667	1	3.356000
15.333333	1	3.041750
15.350000	1	2.789750
15.366667	1	2.589625
15.383333	1	2.433750
15.400000	1	2.313625
15.416667	1	2.222000
15.433333	1	2.152375
15.450000	1	2.098000
15.466667	1	2.053875
15.483333	1	2.016375
15.500000	1	1.979625
15.516667	1	1.943125
15.533333	1	1.904750
15.550000	1	1.865125
15.566667	1	1.822625
15.583333	1	1.778125
15.600000	1	1.732750
15.616667	1	1.687500
15.633333	1	1.642875
15.650000	1	1.599625
15.666667	1	1.558250
15.683333	1	1.520375
15.700000	1	1.484125
15.716667	1	1.451000
15.733333	1	1.419625
15.750000	1	1.391000
15.766667	1	1.364875
15.783333	1	1.339375
15.800000	1	1.315625
15.816667	1	1.293500
15.833333	1	1.272625
15.850000	1	1.253625
15.866667	1	1.236000
15.883333	1	1.220000
15.900000	1	1.205125
15.916667	1	1.191750
15.933333	1	1.180500
15.950000	1	1.170875
15.966667	1	1.163375
15.983333	1	1.156750
16.000000	1	1.151125
16.016667	1	1.146125
16.033333	1	1.142125
16.050000	1	1.139250
16.066667	1	1.136500
16.083333	1	1.134625
16.100000	1	1.132500
16.116667	1	1.131375
16.133333	1	1.129625
16.150000	1	1.127250
16.166667	1	1.124250
16.183333	1	1.121750
16.200000	1	1.118500
16.216667	1	1.113500
16.233333	1	1.108125
16.250000	1	1.102250
16.266667	1	1.096000
16.283333	1	1.089250
16.300000	1	1.083000
16.316667	1	1.076500
16.333333	1	1.070375
16.350000	1	1.065125
16.366667	1	1.061500
16.383333	1	1.058375
16.400000	1	1.057000
16.416667	1	1.056625
16.433333	1	1.057500
16.450000	1	1.060375
16.466667	1	1.063875
16.483333	1	1.068000
16.500000	1	1.071875
16.516667	1	1.075250
16.533333	1	1.078500
16.550000	1	1.080000
16.566667	1	1.081125
16.583333	1	1.080750
16.600000	1	1.079500
16.616667	1	1.077375
16.633333	1	1.074375
16.650000	1	1.071125
16.666667	1	1.068250
16.683333	1	1.066125
16.700000	1	1.065375
16.716667	1	1.065750
16.733333	1	1.067375
16.750000	1	1.071250
16.766667	1	1.077375
16.783333	1	1.084750
16.800000	1	1.092000
16.816667	1	1.100125
16.833333	1	1.109250
16.850000	1	1.117750
16.866667	1	1.125125
16.883333	1	1.131500
16.900000	1	1.136250
16.916667	1	1.139625
16.933333	1	1.141125
16.950000	1	1.140625
16.966667	1	1.138375
16.983333	1	1.135250
17.000000	1	1.130250
17.016667	1	1.125250
17.033333	1	1.119250
17.050000	1	1.113125
17.066667	1	1.106750
17.083333	1	1.100750
17.100000	1	1.095250
17.116667	1	1.090250
17.133333	1	1.085625
17.150000	1	1.082125
17.166667	1	1.078625
17.183333	1	1.076125
17.200000	1	1.073875
17.216667	1	1.072625
17.233333	1	1.071750
17.250000	1	1.071375
17.266667	1	1.072500
17.283333	1	1.073875
17.300000	1	1.075750
17.316667	1	1.078625
17.333333	1	1.081750
17.350000	1	1.085125
17.366667	1	1.088375
17.383333	1	1.092125
17.400000	1	1.095250
17.416667	1	1.097875
17.433333	1	1.100500
17.450000	1	1.102000
17.466667	1	1.102500
17.483333	1	1.102000
17.500000	1	1.099625
17.516667	1	1.096750
17.533333	1	1.092750
17.550000	1	1.087000
17.566667	1	1.079875
17.583333	1	1.072375
17.600000	1	1.063500
17.616667	1	1.054500
17.633333	1	1.044875
17.650000	1	1.034250
17.666667	1	1.023375
17.683333	1	1.012375
17.700000	1	1.001625
17.716667	1	0.990500
17.733333	1	0.979750
17.750000	1	0.970000
17.766667	1	0.959875
17.783333	1	0.950625
17.800000	1	0.941875
17.816667	1	0.933500
17.833333	1	0.926000
17.850000	1	0.918875
17.866667	1	0.912000
17.883333	1	0.905750
17.900000	1	0.900250
17.916667	1	0.893750
17.933333	1	0.887875
17.950000	1	0.881625
17.966667	1	0.876125
17.983333	1	0.869125
18.000000	1	0.862750
18.016667	1	0.856000
18.033333	1	0.849250
18.050000	1	0.842750
18.066667	1	0.835625
18.083333	1	0.830000
18.100000	1	0.824750
18.116667	1	0.819875
18.133333	1	0.815250
18.150000	1	0.811750
18.166667	1	0.808500
18.183333	1	0.806250
18.200000	1	0.804125
18.216667	1	0.802375
18.233333	1	0.801000
18.250000	1	0.800125
18.266667	1	0.799750
18.283333	1	0.799000
18.300000	1	0.798375
18.316667	1	0.797750
18.333333	1	0.797625
18.350000	1	0.797625
18.366667	1	0.799250
18.383333	1	0.800875
18.400000	1	0.803875
18.416667	1	0.808250
18.433333	1	0.813250
18.450000	1	0.819625
18.466667	1	0.827625
18.483333	1	0.837750
18.500000	1	0.848625
18.516667	1	0.861750
18.533333	1	0.876375
18.550000	1	0.892125
18.566667	1	0.909625
18.583333	1	0.928750
18.600000	1	0.949375
18.616667	1	0.970375
18.633333	1	0.992875
18.650000	1	1.015250
18.666667	1	1.038125
18.683333	1	1.061875
18.700000	1	1.085500
18.716667	1	1.108500
18.733333	1	1.131750
18.750000	1	1.153750
18.766667	1	1.175625
18.783333	1	1.194625
18.800000	1	1.211750
18.816667	1	1.226125
18.833333	1	1.237750
18.850000	1	1.246125
18.866667	1	1.251000
18.883333	1	1.252125
18.900000	1	1.248625
18.916667	1	1.240750
18.933333	1	1.228375
18.950000	1	1.211750
18.966667	1	1.190625
18.983333	1	1.166125
19.000000	1	1.138000
19.016667	1	1.107750
19.033333	1	1.074750
19.050000	1	1.041000
19.066667	1	1.006250
19.083333	1	0.971125
19.100000	1	0.937125
19.116667	1	0.905125
19.133333	1	0.875875
19.150000	1	0.849875
19.166667	1	0.828625
19.183333	1	0.812125
19.200000	1	0.801500
19.216667	1	0.796875
19.233333	1	0.800625
19.250000	1	0.812250
19.266667	1	0.832500
19.283333	1	0.861250
19.300000	1	0.899375
19.316667	1	0.945250
19.333333	1	0.999500
19.350000	1	1.061000
19.366667	1	1.128375
19.383333	1	1.200375
19.400000	1	1.275000
19.416667	1	1.350000
19.433333	1	1.423625
19.450000	1	1.493625
19.466667	1	1.557875
19.483333	1	1.613625
19.500000	1	1.660625
19.516667	1	1.698125
19.533333	1	1.724375
19.550000	1	1.739000
19.566667	1	1.743500
19.583333	1	1.737750
19.600000	1	1.722000
19.616667	1	1.697625
19.633333	1	1.665375
19.650000	1	1.626500
19.666667	1	1.582750
19.683333	1	1.535375
19.700000	1	1.484875
19.716667	1	1.432500
19.733333	1	1.379000
19.750000	1	1.325625
19.766667	1	1.272250
19.783333	1	1.219500
19.800000	1	1.167750
19.816667	1	1.118125
19.833333	1	1.069375
19.850000	1	1.023875
19.866667	1	0.980000
19.883333	1	0.939000
19.900000	1	0.901875
19.916667	1	0.869000
19.933333	1	0.839750
19.950000	1	0.815625
19.966667	1	0.796500
19.983333	1	0.783500
20.000000	1	0.776750
20.016667	1	0.776000
20.033333	1	0.783000
20.050000	1	0.797750
20.066667	1	0.820500
20.083333	1	0.850500
20.100000	1	0.889125
20.116667	1	0.934250
20.133333	1	0.986000
20.150000	1	1.042750
20.166667	1	1.103500
20.183333	1	1.165750
20.200000	1	1.227875
20.216667	1	1.287000
20.233333	1	1.342375
20.250000	1	1.391000
20.266667	1	1.431375
20.283333	1	1.462375
20.300000	1	1.482125
20.316667	1	1.490750
20.333333	1	1.487500
20.350000	1	1.474000
20.366667	1	1.449125
20.383333	1	1.415875
20.400000	1	1.374500
20.416667	1	1.327750
20.433333	1	1.277250
20.450000	1	1.225250
20.466667	1	1.173250
20.483333	1	1.124500
20.500000	1	1.080000
20.516667	1	1.043125
20.533333	1	1.014750
20.550000	1	0.996625
20.566667	1	0.991000
20.583333	1	1.000125
20.600000	1	1.025375
20.616667	1	1.067375
20.633333	1	1.127375
20.650000	1	1.205750
20.666667	1	1.302625
20.683333	1	1.417125
20.700000	1	1.547375
20.716667	1	1.691875
20.733333	1	1.848125
20.750000	1	2.012000
20.766667	1	2.179625
20.783333	1	2.344500
20.800000	1	2.502125
20.816667	1	2.647000
20.833333	1	2.774625
20.850000	1	2.880750
20.866667	1	2.961375
20.883333	1	3.014625
20.900000	1	3.039500
20.916667	1	3.036000
20.933333	1	3.004125
20.950000	1	2.946875
20.966667	1	2.866125
20.983333	1	2.765375
21.000000	1	2.648500
21.016667	1	2.519750
21.033333	1	2.383500
21.050000	1	2.243125
21.066667	1	2.100625
21.083333	1	1.961625
21.100000	1	1.826500
21.116667	1	1.697375
21.133333	1	1.575000
21.150000	1	1.460125
21.166667	1	1.353750
21.183333	1	1.256000
21.200000	1	1.166500
21.216667	1	1.085250
21.233333	1	1.011000
21.250000	1	0.944750
21.266667	1	0.884500
21.283333	1	0.831250
21.300000	1	0.784250
21.316667	1	0.741625
21.333333	1	0.703375
21.350000	1	0.669250
21.366667	1	0.638625
21.383333	1	0.610875
21.400000	1	0.586875
21.416667	1	0.565500
21.433333	1	0.546375
21.450000	1	0.530000
21.466667	1	0.515500
21.483333	1	0.502250
21.500000	1	0.490875
21.516667	1	0.481750
21.533333	1	0.474500
21.550000	1	0.468625
21.566667	1	0.464875
21.583333	1	0.463000
21.600000	1	0.463000
21.616667	1	0.464625
21.633333	1	0.469125
21.650000	1	0.474500
21.666667	1	0.481875
21.683333	1	0.492750
21.700000	1	0.505875
21.716667	1	0.520375
21.733333	1	0.536750
21.750000	1	0.555000
21.766667	1	0.574250
21.783333	1	0.594875
21.800000	1	0.615750
21.816667	1	0.637500
21.833333	1	0.659250
21.850000	1	0.680875
21.866667	1	0.700125
21.883333	1	0.718875
21.900000	1	0.736125
21.916667	1	0.750500
21.933333	1	0.763625
21.950000	1	0.774250
21.966667	1	0.782375
21.983333	1	0.788125
22.000000	1	0.791375
22.016667	1	0.792875
22.033333	1	0.791625
22.050000	1	0.787875
22.066667	1	0.782375
22.083333	1	0.775625
22.100000	1	0.768625
22.116667	1	0.759750
22.133333	1	0.750750
22.150000	1	0.740000
22.166667	1	0.728625
22.183333	1	0.715625
22.200000	1	0.703125
22.216667	1	0.689375
22.233333	1	0.675125
22.250000	1	0.660750
22.266667	1	0.646125
22.283333	1	0.631250
22.300000	1	0.616375
22.316667	1	0.600875
22.333333	1	0.585750
22.350000	1	0.570375
22.366667	1	0.555125
22.383333	1	0.540625
22.400000	1	0.525250
22.416667	1	0.510625
22.433333	1	0.497125
22.450000	1	0.483875
22.466667	1	0.470875
22.483333	1	0.459375
22.500000	1	0.447750
22.516667	1	0.437500
22.533333	1	0.427250
22.550000	1	0.417250
22.566667	1	0.407750
22.583333	1	0.398500
22.600000	1	0.390000
22.616667	1	0.381250
22.633333	1	0.372750
22.650000	1	0.365500
22.666667	1	0.358250
22.683333	1	0.351125
22.700000	1	0.344000
22.716667	1	0.337625
22.733333	1	0.330250
22.750000	1	0.324125
22.766667	1	0.317875
22.783333	1	0.312125
22.800000	1	0.306625
22.816667	1	0.301125
22.833333	1	0.296250
22.850000	1	0.291875
22.866667	1	0.287375
22.883333	1	0.282875
22.900000	1	0.279375
22.916667	1	0.277000
22.933333	1	0.274125
22.950000	1	0.271500
22.966667	1	0.269625
22.983333	1	0.267500
23.000000	1	0.266250
23.016667	1	0.266125
23.033333	1	0.265250
23.050000	1	0.265500
23.066667	1	0.266000
23.083333	1	0.267000
23.100000	1	0.267875
23.116667	1	0.269750
23.133333	1	0.271500
23.150000	1	0.273125
23.166667	1	0.274500
23.183333	1	0.277125
23.200000	1	0.279250
23.216667	1	0.281625
23.233333	1	0.284250
23.250000	1	0.286750
23.266667	1	0.290375
23.283333	1	0.295500
23.300000	1	0.301250
23.316667	1	0.309500
23.333333	1	0.319875
23.350000	1	0.332875
23.366667	1	0.350500
23.383333	1	0.373375
23.400000	1	0.402125
23.416667	1	0.438125
23.433333	1	0.483625
23.450000	1	0.539750
23.466667	1	0.608500
23.483333	1	0.692375
23.500000	1	0.793250
23.516667	1	0.912125
23.533333	1	1.050625
23.550000	1	1.210750
23.566667	1	1.392625
23.583333	1	1.596375
23.600000	1	1.820625
23.616667	1	2.065125
23.633333	1	2.326000
23.650000	1	2.600750
23.666667	1	2.886125
23.683333	1	3.176000
23.700000	1	3.467000
23.716667	1	3.751500
23.733333	1	4.024000
23.750000	1	4.279000
23.766667	1	4.509500
23.783333	1	4.711750
23.800000	1	4.879875
23.816667	1	5.011375
23.833333	1	5.103000
23.850000	1	5.154750
23.866667	1	5.165250
23.883333	1	5.135875
23.900000	1	5.068625
23.916667	1	4.966500
23.933333	1	4.833125
23.950000	1	4.672500
23.966667	1	4.489875
23.983333	1	4.289375
24.000000	1	4.075875
24.016667	1	3.854500
24.033333	1	3.629000
24.050000	1	3.402875
24.066667	1	3.179000
24.083333	1	2.959625
24.100000	1	2.748500
24.116667	1	2.545500
24.133333	1	2.353000
24.150000	1	2.171000
24.166667	1	2.000250
24.183333	1	1.841000
24.200000	1	1.693875
24.216667	1	1.557625
24.233333	1	1.433125
24.250000	1	1.318500
24.266667	1	1.214375
24.283333	1	1.119000
24.300000	1	1.033375
24.316667	1	0.955500
24.333333	1	0.885500
24.350000	1	0.823250
24.366667	1	0.767875
24.383333	1	0.718750
24.400000	1	0.675375
24.416667	1	0.637750
24.433333	1	0.605125
24.450000	1	0.577500
24.466667	1	0.553250
24.483333	1	0.532625
24.500000	1	0.515750
24.516667	1	0.501500
24.533333	1	0.488750
24.550000	1	0.479125
24.566667	1	0.470125
24.583333	1	0.462875
24.600000	1	0.456000
24.616667	1	0.450250
24.633333	1	0.445000
24.650000	1	0.440500
24.666667	1	0.435750
24.683333	1	0.430625
24.700000	1	0.426500
24.716667	1	0.421625
24.733333	1	0.417375
24.750000	1	0.412250
24.766667	1	0.406500
24.783333	1	0.401625
24.800000	1	0.396250
24.816667	1	0.389875
24.833333	1	0.384875
24.850000	1	0.380125
24.866667	1	0.375625
24.883333	1	0.371000
24.900000	1	0.365625
24.916667	1	0.360875
24.933333	1	0.356750
24.950000	1	0.352250
24.966667	1	0.347375
24.983333	1	0.343125
25.000000	1	0.339000
25.016667	1	0.335625
25.033333	1	0.331000
25.050000	1	0.327250
25.066667	1	0.323875
25.083333	1	0.320500
25.100000	1	0.316875
25.116667	1	0.313625
25.133333	1	0.310625
25.150000	1	0.308000
25.166667	1	0.305375
25.183333	1	0.302750
25.200000	1	0.299500
25.216667	1	0.296625
25.233333	1	0.294000
25.250000	1	0.292000
25.266667	1	0.290250
25.283333	1	0.288125
25.300000	1	0.286625
25.316667	1	0.285250
25.333333	1	0.284250
25.350000	1	0.282875
25.366667	1	0.282125
25.383333	1	0.281625
25.400000	1	0.281625
25.416667	1	0.281500
25.433333	1	0.282250
25.450000	1	0.283500
25.466667	1	0.284500
25.483333	1	0.286500
25.500000	1	0.288375
25.516667	1	0.290375
25.533333	1	0.292250
25.550000	1	0.293875
25.566667	1	0.296250
25.583333	1	0.299125
25.600000	1	0.302375
25.616667	1	0.305000
25.633333	1	0.307750
25.650000	1	0.310250
25.666667	1	0.312000
25.683333	1	0.313750
25.700000	1	0.315250
25.716667	1	0.317125
25.733333	1	0.318375
25.750000	1	0.319000
25.766667	1	0.319750
25.783333	1	0.320375
25.800000	1	0.320375
25.816667	1	0.320500
25.833333	1	0.320375
25.850000	1	0.320250
25.866667	1	0.319625
25.883333	1	0.319750
25.900000	1	0.319250
25.916667	1	0.319375
25.933333	1	0.319500
25.950000	1	0.320125
25.966667	1	0.320375
25.983333	1	0.321000
26.000000	1	0.322000
26.016667	1	0.323375
26.033333	1	0.325000
26.050000	1	0.326625
26.066667	1	0.329125
26.083333	1	0.333000
26.100000	1	0.336375
26.116667	1	0.339250
26.133333	1	0.343125
26.150000	1	0.346875
26.166667	1	0.351375
26.183333	1	0.355750
26.200000	1	0.360125
26.216667	1	0.364000
26.233333	1	0.369250
26.250000	1	0.374000
26.266667	1	0.377875
26.283333	1	0.381375
26.300000	1	0.385250
26.316667	1	0.388500
26.333333	1	0.391250
26.350000	1	0.393750
26.366667	1	0.395125
26.383333	1	0.396125
26.400000	1	0.395875
26.416667	1	0.395875
26.433333	1	0.395500
26.450000	1	0.394125
26.466667	1	0.392500
26.483333	1	0.390375
26.500000	1	0.386500
26.516667	1	0.382500
26.533333	1	0.378250
26.550000	1	0.373500
26.566667	1	0.368000
26.583333	1	0.362500
26.600000	1	0.357250
26.616667	1	0.351500
26.633333	1	0.345000
26.650000	1	0.339625
26.666667	1	0.333500
26.683333	1	0.327000
26.700000	1	0.320625
26.716667	1	0.314750
26.733333	1	0.308625
26.750000	1	0.302625
26.766667	1	0.297000
26.783333	1	0.291625
26.800000	1	0.287375
26.816667	1	0.282500
26.833333	1	0.278125
26.850000	1	0.274500
26.866667	1	0.271750
26.883333	1	0.268500
26.900000	1	0.265625
26.916667	1	0.262750
26.933333	1	0.260375
26.950000	1	0.257750
26.966667	1	0.256875
26.983333	1	0.255625
27.000000	1	0.255125
27.016667	1	0.254250
27.033333	1	0.254125
27.050000	1	0.254375
27.066667	1	0.254500
27.083333	1	0.255000
27.100000	1	0.255875
27.116667	1	0.257625
27.133333	1	0.260125
27.150000	1	0.262875
27.166667	1	0.267000
27.183333	1	0.271625
27.200000	1	0.277375
27.216667	1	0.284750
27.233333	1	0.293750
27.250000	1	0.305000
27.266667	1	0.318375
27.283333	1	0.334625
27.300000	1	0.354125
27.316667	1	0.378000
27.333333	1	0.406625
27.350000	1	0.440625
27.366667	1	0.480875
27.383333	1	0.528125
27.400000	1	0.584125
27.416667	1	0.648750
27.433333	1	0.722500
27.450000	1	0.807125
27.466667	1	0.903500
27.483333	1	1.012250
27.500000	1	1.133250
27.516667	1	1.267000
27.533333	1	1.413625
27.550000	1	1.573125
27.566667	1	1.745500
27.583333	1	1.928750
27.600000	1	2.122750
27.616667	1	2.325000
27.633333	1	2.535500
27.650000	1	2.750250
27.666667	1	2.967875
27.683333	1	3.185875
27.700000	1	3.400875
27.716667	1	3.609000
27.733333	1	3.807375
27.750000	1	3.993375
27.766667	1	4.163250
27.783333	1	4.314125
27.800000	1	4.443875
27.816667	1	4.550250
27.833333	1	4.630500
27.850000	1	4.684375
27.866667	1	4.711250
27.883333	1	4.710750
27.900000	1	4.682000
27.916667	1	4.626500
27.933333	1	4.545500
27.950000	1	4.441500
27.966667	1	4.316500
27.983333	1	4.173125
28.000000	1	4.015000
28.016667	1	3.844250
28.033333	1	3.663750
28.050000	1	3.476625
28.066667	1	3.284500
28.083333	1	3.091375
28.100000	1	2.898750
28.116667	1	2.710375
28.133333	1	2.527125
28.150000	1	2.349625
28.166667	1	2.179625
28.183333	1	2.019000
28.200000	1	1.866750
28.216667	1	1.724250
28.233333	1	1.592500
28.250000	1	1.468750
28.266667	1	1.355125
28.283333	1	1.250125
28.300000	1	1.154500
28.316667	1	1.067125
28.333333	1	0.987250
28.350000	1	0.915250
28.366667	1	0.849750
28.383333	1	0.790625
28.400000	1	0.738250
28.416667	1	0.691375
28.433333	1	0.649875
28.450000	1	0.613375
28.466667	1	0.581000
28.483333	1	0.553875
28.500000	1	0.529625
28.516667	1	0.510125
28.533333	1	0.493000
28.550000	1	0.479125
28.566667	1	0.468375
28.583333	1	0.460250
28.600000	1	0.454625
28.616667	1	0.451125
28.633333	1	0.448750
28.650000	1	0.447875
28.666667	1	0.448625
28.683333	1	0.450000
28.700000	1	0.452625
28.716667	1	0.456500
28.733333	1	0.461500
28.750000	1	0.466625
28.766667	1	0.472125
28.783333	1	0.477875
28.800000	1	0.483875
28.816667	1	0.489750
28.833333	1	0.495625
28.850000	1	0.500875
28.866667	1	0.505625
28.883333	1	0.509250
28.900000	1	0.513125
28.916667	1	0.515500
28.933333	1	0.517625
28.950000	1	0.518875
28.966667	1	0.520125
28.983333	1	0.519375
29.000000	1	0.517625
29.016667	1	0.514375
29.033333	1	0.510250
29.050000	1	0.504375
29.066667	1	0.497250
29.083333	1	0.489125
29.100000	1	0.478625
29.116667	1	0.466500
29.133333	1	0.452250
29.150000	1	0.437000
29.166667	1	0.419375
29.183333	1	0.399750
29.200000	1	0.378125
29.216667	1	0.353875
29.233333	1	0.327375
29.250000	1	0.299000
29.266667	1	0.267750
29.283333	1	0.234125
29.300000	1	0.198375
29.316667	1	0.159875
29.333333	1	0.119375
29.350000	1	0.076750
29.366667	1	0.032000
29.383333	1	-0.013500
29.400000	1	-0.062125
29.416667	1	-0.111875
29.433333	1	-0.163000
29.450000	1	-0.216750
29.466667	1	-0.270875
29.483333	1	-0.325750
29.500000	1	-0.379875
29.516667	1	-0.433750
29.533333	1	-0.486375
29.550000	1	-0.538000
29.566667	1	-0.587625
29.583333	1	-0.635375
29.600000	1	-0.680000
29.616667	1	-0.722625
29.633333	1	-0.760625
29.650000	1	-0.795625
29.666667	1	-0.825375
29.683333	1	-0.851500
29.700000	1	-0.872125
29.716667	1	-0.889250
29.733333	1	-0.900875
29.750000	1	-0.907750
29.766667	1	-0.910000
29.783333	1	-0.906750
29.800000	1	-0.899000
29.816667	1	-0.886625
29.833333	1	-0.870750
29.850000	1	-0.850375
29.866667	1	-0.827500
29.883333	1	-0.801000
29.900000	1	-0.771625
29.916667	1	-0.739500
29.933333	1	-0.705000
29.950000	1	-0.669875
29.966667	1	-0.633250
29.983333	1	-0.595875
30.000000	1	-0.558375
30.016667	1	-0.520000
30.033333	1	-0.482000
30.050000	1	-0.444625
30.066667	1	-0.408250
30.083333	1	-0.372500
30.100000	1	-0.338500
30.116667	1	-0.305750
30.133333	1	-0.274250
30.150000	1	-0.243625
30.166667	1	-0.215750
30.183333	1	-0.189250
30.200000	1	-0.164875
30.216667	1	-0.141625
30.233333	1	-0.120250
30.250000	1	-0.099750
30.266667	1	-0.081250
30.283333	1	-0.064250
30.300000	1	-0.048875
30.316667	1	-0.034125
30.333333	1	-0.021500
30.350000	1	-0.009250
30.366667	1	0.001000
30.383333	1	0.010875
30.400000	1	0.020375
30.416667	1	0.028500
30.433333	1	0.036500
30.450000	1	0.043375
30.466667	1	0.051000
30.483333	1	0.058375
30.500000	1	0.065000
30.516667	1	0.071250
30.533333	1	0.077250
30.550000	1	0.083125
30.566667	1	0.089625
30.583333	1	0.096000
30.600000	1	0.102125
30.616667	1	0.109000
30.633333	1	0.116375
30.650000	1	0.124125
30.666667	1	0.131875
30.683333	1	0.139875
30.700000	1	0.147000
30.716667	1	0.155375
30.733333	1	0.164000
30.750000	1	0.173500
30.766667	1	0.182750
30.783333	1	0.192250
30.800000	1	0.201750
30.816667	1	0.212750
30.833333	1	0.224375
30.850000	1	0.235875
30.866667	1	0.248125
30.883333	1	0.261125
30.900000	1	0.274875
30.916667	1	0.289875
30.933333	1	0.305500
30.950000	1	0.322625
30.966667	1	0.341750
30.983333	1	0.362625
31.000000	1	0.386750
31.016667	1	0.413375
31.033333	1	0.443000
31.050000	1	0.476125
31.066667	1	0.513625
31.083333	1	0.556250
31.100000	1	0.604250
31.116667	1	0.658375
31.133333	1	0.719125
31.150000	1	0.787000
31.166667	1	0.863500
31.183333	1	0.948625
31.200000	1	1.042375
31.216667	1	1.145375
31.233333	1	1.257500
31.250000	1	1.379250
31.266667	1	1.510375
31.283333	1	1.650375
31.300000	1	1.799125
31.316667	1	1.955125
31.333333	1	2.117125
31.350000	1	2.284750
31.366667	1	2.456125
31.383333	1	2.631000
31.400000	1	2.805875
31.416667	1	2.979750
31.433333	1	3.150875
31.450000	1	3.316125
31.466667	1	3.474250
31.483333	1	3.623375
31.500000	1	3.761250
31.516667	1	3.885500
31.533333	1	3.994625
31.550000	1	4.089125
31.566667	1	4.165875
31.583333	1	4.224875
31.600000	1	4.265125
31.616667	1	4.286250
31.633333	1	4.288625
31.650000	1	4.272125
31.666667	1	4.238250
31.683333	1	4.186625
31.700000	1	4.119250
31.716667	1	4.036750
31.733333	1	3.941750
31.750000	1	3.835250
31.766667	1	3.717875
31.783333	1	3.591625
31.800000	1	3.457875
31.816667	1	3.319000
31.833333	1	3.175500
31.850000	1	3.029500
31.866667	1	2.882625
31.883333	1	2.735000
31.900000	1	2.589625
31.916667	1	2.445750
31.933333	1	2.305750
31.950000	1	2.169125
31.966667	1	2.036125
31.983333	1	1.908250
32.000000	1	1.784875
32.016667	1	1.666625
32.033333	1	1.553500
32.050000	1	1.445625
32.066667	1	1.344500
32.083333	1	1.247750
32.100000	1	1.156375
32.116667	1	1.071250
32.133333	1	0.991000
32.150000	1	0.915125
32.166667	1	0.844375
32.183333	1	0.778000
32.200000	1	0.716500
32.216667	1	0.658750
32.233333	1	0.604000
32.250000	1	0.554250
32.266667	1	0.507875
32.283333	1	0.465125
32.300000	1	0.425000
32.316667	1	0.388125
32.333333	1	0.354625
32.350000	1	0.322875
32.366667	1	0.295000
32.383333	1	0.269000
32.400000	1	0.245375
32.416667	1	0.223500
32.433333	1	0.203250
32.450000	1	0.185250
32.466667	1	0.168750
32.483333	1	0.154125
32.500000	1	0.140875
32.516667	1	0.129625
32.533333	1	0.118875
32.550000	1	0.109750
32.566667	1	0.100750
32.583333	1	0.093125
32.600000	1	0.086625
32.616667	1	0.080500
32.633333	1	0.074750
32.650000	1	0.070375
32.666667	1	0.066250
32.683333	1	0.062875
32.700000	1	0.059625
32.716667	1	0.057125
32.733333	1	0.054875
32.750000	1	0.053000
32.766667	1	0.050875
32.783333	1	0.049125
32.800000	1	0.047000
32.816667	1	0.045250
32.833333	1	0.043625
32.850000	1	0.042250
32.866667	1	0.040750
32.883333	1	0.039500
32.900000	1	0.038375
32.916667	1	0.037500
32.933333	1	0.036750
32.950000	1	0.035625
32.966667	1	0.034250
32.983333	1	0.032750
33.000000	1	0.031625
33.016667	1	0.029875
33.033333	1	0.028375
33.050000	1	0.026375
33.066667	1	0.025000
33.083333	1	0.023000
33.100000	1	0.021500
33.116667	1	0.019625
33.133333	1	0.018750
33.150000	1	0.016750
33.166667	1	0.015250
33.183333	1	0.014250
33.200000	1	0.013125
33.216667	1	0.011625
33.233333	1	0.010625
33.250000	1	0.009625
33.266667	1	0.008875
33.283333	1	0.008125
33.300000	1	0.008250
33.316667	1	0.008000
33.333333	1	0.008250
33.350000	1	0.007750
33.366667	1	0.007750
33.383333	1	0.008125
33.400000	1	0.008625
33.416667	1	0.009500
33.433333	1	0.010875
33.450000	1	0.012000
33.466667	1	0.012875
33.483333	1	0.015250
33.500000	1	0.017000
33.516667	1	0.018750
33.533333	1	0.020750
33.550000	1	0.023250
33.566667	1	0.025625
33.583333	1	0.029375
33.600000	1	0.032250
33.616667	1	0.035125
33.633333	1	0.038625
33.650000	1	0.042250
33.666667	1	0.045250
33.683333	1	0.049250
33.700000	1	0.053000
33.716667	1	0.056375
33.733333	1	0.060125
33.750000	1	0.063875
33.766667	1	0.068375
33.783333	1	0.072125
33.800000	1	0.075750
33.816667	1	0.079125
33.833333	1	0.082875
33.850000	1	0.086125
33.866667	1	0.089500
33.883333	1	0.092625
33.900000	1	0.096125
33.916667	1	0.099750
33.933333	1	0.102250
33.950000	1	0.104875
33.966667	1	0.106875
33.983333	1	0.108750
34.000000	1	0.110625
34.016667	1	0.111875
34.033333	1	0.113500
34.050000	1	0.114375
34.066667	1	0.115500
34.083333	1	0.116250
34.100000	1	0.117500
34.116667	1	0.118250
34.133333	1	0.118375
34.150000	1	0.119375
34.166667	1	0.119500
34.183333	1	0.119875
34.200000	1	0.120125
34.216667	1	0.120625
34.233333	1	0.120000
34.250000	1	0.120250
34.266667	1	0.119375
34.283333	1	0.119375
34.300000	1	0.118625
34.316667	1	0.118250
34.333333	1	0.117625
34.350000	1	0.117250
34.366667	1	0.117000
34.383333	1	0.116625
34.400000	1	0.116750
34.416667	1	0.116875
34.433333	1	0.116625
34.450000	1	0.116250
34.466667	1	0.116375
34.483333	1	0.116000
34.500000	1	0.116375
34.516667	1	0.116000
34.533333	1	0.116375
34.550000	1	0.115875
34.566667	1	0.116125
34.583333	1	0.116125
34.600000	1	0.115875
34.616667	1	0.116625
34.633333	1	0.116625
34.650000	1	0.116250
34.666667	1	0.116375
34.683333	1	0.115875
34.700000	1	0.116000
34.716667	1	0.115750
34.733333	1	0.115875
34.750000	1	0.115875
34.766667	1	0.116375
34.783333	1	0.116500
34.800000	1	0.115875
34.816667	1	0.115750
34.833333	1	0.115750
34.850000	1	0.115625
34.866667	1	0.115875
34.883333	1	0.115750
34.900000	1	0.116125
34.916667	1	0.115750
34.933333	1	0.115375
34.950000	1	0.114875
34.966667	1	0.114750
34.983333	1	0.113875
35.000000	1	0.112375
35.016667	1	0.111625
35.033333	1	0.111500
35.050000	1	0.111000
35.066667	1	0.110750
35.083333	1	0.110375
35.100000	1	0.110000
35.116667	1	0.109625
35.133333	1	0.109750
35.150000	1	0.109125
35.166667	1	0.109000
35.183333	1	0.108125
35.200000	1	0.107875
35.216667	1	0.107250
35.233333	1	0.107000
35.250000	1	0.107000
35.266667	1	0.107125
35.283333	1	0.107625
35.300000	1	0.108625
35.316667	1	0.109125
35.333333	1	0.109375
35.350000	1	0.110750
35.366667	1	0.111750
35.383333	1	0.112250
35.400000	1	0.113500
35.416667	1	0.114375
35.433333	1	0.116250
35.450000	1	0.118500
35.466667	1	0.119500
35.483333	1	0.122000
35.500000	1	0.124250
35.516667	1	0.126750
35.533333	1	0.128625
35.550000	1	0.130875
35.566667	1	0.133000
35.583333	1	0.135000
35.600000	1	0.136625
35.616667	1	0.138875
35.633333	1	0.140625
35.650000	1	0.142125
35.666667	1	0.143500
35.683333	1	0.144875
35.700000	1	0.145500
35.716667	1	0.146375
35.733333	1	0.147875
35.750000	1	0.149000
35.766667	1	0.149500
35.783333	1	0.150000
35.800000	1	0.149875
35.816667	1	0.149500
35.833333	1	0.148875
35.850000	1	0.148250
35.866667	1	0.147625
35.883333	1	0.146625
35.900000	1	0.145875
35.916667	1	0.144250
35.933333	1	0.143375
35.950000	1	0.141500
35.966667	1	0.139250
35.983333	1	0.137500
36.000000	1	0.135250
36.016667	1	0.132500
36.033333	1	0.130625
36.050000	1	0.128125
36.066667	1	0.125500
36.083333	1	0.123125
36.100000	1	0.120625
36.116667	1	0.118500
36.133333	1	0.116000
36.150000	1	0.114250
36.166667	1	0.112625
36.183333	1	0.110750
36.200000	1	0.109375
36.216667	1	0.107375
36.233333	1	0.105500
36.250000	1	0.104375
36.266667	1	0.103375
36.283333	1	0.102250
36.300000	1	0.101125
36.316667	1	0.101500
36.333333	1	0.100500
36.350000	1	0.101125
36.366667	1	0.101125
36.383333	1	0.101875
36.400000	1	0.101625
36.416667	1	0.103000
36.433333	1	0.103500
36.450000	1	0.104250
36.466667	1	0.105000
36.483333	1	0.106875
36.500000	1	0.108375
36.516667	1	0.109625
36.533333	1	0.110750
36.550000	1	0.111750
36.566667	1	0.113000
36.583333	1	0.114375
36.600000	1	0.114875
36.616667	1	0.114875
36.633333	1	0.115000
36.650000	1	0.115000
36.666667	1	0.114875
36.683333	1	0.114000
36.700000	1	0.113875
36.716667	1	0.113750
36.733333	1	0.113000
36.750000	1	0.111875
36.766667	1	0.110875
36.783333	1	0.109625
36.800000	1	0.108875
36.816667	1	0.107125
36.833333	1	0.105625
36.850000	1	0.104000
36.866667	1	0.102750
36.883333	1	0.100875
36.900000	1	0.099750
36.916667	1	0.098375
36.933333	1	0.097250
36.950000	1	0.096000
36.966667	1	0.094125
36.983333	1	0.092500
37.000000	1	0.091125
37.016667	1	0.090250
37.033333	1	0.089500
37.050000	1	0.088625
37.066667	1	0.087750
37.083333	1	0.087875
37.100000	1	0.087375
37.116667	1	0.087750
37.133333	1	0.087875
37.150000	1	0.087625
37.166667	1	0.087250
37.183333	1	0.087375
37.200000	1	0.087875
37.216667	1	0.088250
37.233333	1	0.088875
37.250000	1	0.090250
37.266667	1	0.091625
37.283333	1	0.092000
37.300000	1	0.092250
37.316667	1	0.093250
37.333333	1	0.094375
37.350000	1	0.094125
37.366667	1	0.094875
37.383333	1	0.094750
37.400000	1	0.095125
37.416667	1	0.095125
37.433333	1	0.094500
37.450000	1	0.093625
37.466667	1	0.092875
37.483333	1	0.092750
37.500000	1	0.091750
37.516667	1	0.090750
37.533333	1	0.088875
37.550000	1	0.087625
37.566667	1	0.085875
37.583333	1	0.083875
37.600000	1	0.081250
37.616667	1	0.078500
37.633333	1	0.076250
37.650000	1	0.074125
37.666667	1	0.071250
37.683333	1	0.068625
37.700000	1	0.065750
37.716667	1	0.063750
37.733333	1	0.061125
37.750000	1	0.058625
37.766667	1	0.055750
37.783333	1	0.053375
37.800000	1	0.051250
37.816667	1	0.049250
37.833333	1	0.047000
37.850000	1	0.044625
37.866667	1	0.042125
37.883333	1	0.040125
37.900000	1	0.038125
37.916667	1	0.036500
37.933333	1	0.034375
37.950000	1	0.032750
37.966667	1	0.031000
37.983333	1	0.029250
38.000000	1	0.028000
38.016667	1	0.026000
38.033333	1	0.024250
38.050000	1	0.023000
38.066667	1	0.022625
38.083333	1	0.020625
38.100000	1	0.019250
38.116667	1	0.017625
38.133333	1	0.017000
38.150000	1	0.015625
38.166667	1	0.014500
38.183333	1	0.013375
38.200000	1	0.011875
38.216667	1	0.010500
38.233333	1	0.009375
38.250000	1	0.007875
38.266667	1	0.007750
38.283333	1	0.007125
38.300000	1	0.006250
38.316667	1	0.006125
38.333333	1	0.004750
38.350000	1	0.004000
38.366667	1	0.003250
38.383333	1	0.003125
38.400000	1	0.003375
38.416667	1	0.002625
38.433333	1	0.002000
38.450000	1	0.001750
38.466667	1	0.002500
38.483333	1	0.003125
38.500000	1	0.003125
38.516667	1	0.003375
38.533333	1	0.003500
38.550000	1	0.004125
38.566667	1	0.004625
38.583333	1	0.005250
38.600000	1	0.006000
38.616667	1	0.007125
38.633333	1	0.007625
38.650000	1	0.008625
38.666667	1	0.009375
38.683333	1	0.011000
38.700000	1	0.012375
38.716667	1	0.013250
38.733333	1	0.014625
38.750000	1	0.015250
38.766667	1	0.015625
38.783333	1	0.016250
38.800000	1	0.017500
38.816667	1	0.019000
38.833333	1	0.019875
38.850000	1	0.020875
38.866667	1	0.022625
38.883333	1	0.023750
38.900000	1	0.024375
38.916667	1	0.025375
38.933333	1	0.026500
38.950000	1	0.027250
38.966667	1	0.028000
38.983333	1	0.029125
39.000000	1	0.030500
39.016667	1	0.031000
39.033333	1	0.031875
39.050000	1	0.033000
39.066667	1	0.033125
39.083333	1	0.034375
39.100000	1	0.034500
39.116667	1	0.034875
39.133333	1	0.035000
39.150000	1	0.035125
39.166667	1	0.034625
39.183333	1	0.034875
39.200000	1	0.034500
39.216667	1	0.034375
39.233333	1	0.033625
39.250000	1	0.033375
39.266667	1	0.033750
39.283333	1	0.033000
39.300000	1	0.033000
39.316667	1	0.031750
39.333333	1	0.030875
39.350000	1	0.029125
39.366667	1	0.028500
39.383333	1	0.028000
39.400000	1	0.027250
39.416667	1	0.025500
39.433333	1	0.025375
39.450000	1	0.024750
39.466667	1	0.024500
39.483333	1	0.023500
39.500000	1	0.022875
39.516667	1	0.022000
39.533333	1	0.022250
39.550000	1	0.022125
39.566667	1	0.021750
39.583333	1	0.021125
39.600000	1	0.021000
39.616667	1	0.020625
39.633333	1	0.020375
39.650000	1	0.020250
39.666667	1	0.019750
39.683333	1	0.020125
39.700000	1	0.020625
39.716667	1	0.020875
39.733333	1	0.021000
39.750000	1	0.020625
39.766667	1	0.020625
39.783333	1	0.021125
39.800000	1	0.020750
39.816667	1	0.020250
39.833333	1	0.019625
39.850000	1	0.019750
39.866667	1	0.019875
39.883333	1	0.020250
39.900000	1	0.020875
39.916667	1	0.020875
39.933333	1	0.020375
39.950000	1	0.020500
39.966667	1	0.020500
39.983333	1	0.020750
40.000000	1	0.020875
