URL	chrom://7040-86g6c92/XVault/Ultimate_3000/20/20240517_CMO_FP23_FP25_MarkusDeplate.seq/273.smp/RI_1.channel/RI_1.chm
Channel	RI_1

Injection Information:
Data Vault	XVault
Sequence	20240517_CMO_FP23_FP25_MarkusDeplate
Name	FP26_25_s2
Number	102
Position	BC2
Comment	
Processing Method	
Instrument Method	run_25B_method
Type	Unknown
Status	Finished
Inject Time	30.05.2024 15:58:47 +02:00
Volume (µl)	20.0000
Dilution Factor	1.0000
Weight	1.0000

Chromatogram Data Information:
Time Min. (min)	0.000000
Time Max. (min)	40.000000
Data Points	2401
Detector	RI
Generating Data System	Chromeleon 7.3.2.11814
Exporting Data System	Chromeleon 7.3.2.0
Operator	Instrument Controller
Signal Quantity	Refractive 
Signal Unit	µRIU
Signal Min.	-1.350375
Signal Max.	65.321000
Channel	RI_1
Driver Name	RID520Driver.dll
Channel Type	Evaluation
Min. Step (s)	1
Max. Step (s)	1
Average Step (s)	1

Signal Parameter Information:
Signal Info	

Chromatogram Data:
Time (min)	Step (s)	Value (µRIU)
0.000000	n.a.	-0.012875
0.016667	1	-0.013625
0.033333	1	-0.013750
0.050000	1	-0.013250
0.066667	1	-0.012500
0.083333	1	-0.012125
0.100000	1	-0.011625
0.116667	1	-0.010625
0.133333	1	-0.010500
0.150000	1	-0.010000
0.166667	1	-0.009250
0.183333	1	-0.008750
0.200000	1	-0.008250
0.216667	1	-0.007750
0.233333	1	-0.006750
0.250000	1	-0.005500
0.266667	1	-0.004750
0.283333	1	-0.003500
0.300000	1	-0.003125
0.316667	1	-0.002125
0.333333	1	-0.002000
0.350000	1	-0.001750
0.366667	1	-0.001250
0.383333	1	-0.001500
0.400000	1	-0.000750
0.416667	1	-0.000375
0.433333	1	0.001625
0.450000	1	0.004750
0.466667	1	0.007750
0.483333	1	0.009875
0.500000	1	0.012375
0.516667	1	0.014125
0.533333	1	0.015500
0.550000	1	0.016250
0.566667	1	0.016750
0.583333	1	0.016625
0.600000	1	0.015500
0.616667	1	0.014375
0.633333	1	0.013875
0.650000	1	0.014125
0.666667	1	0.014875
0.683333	1	0.015875
0.700000	1	0.017375
0.716667	1	0.018625
0.733333	1	0.020250
0.750000	1	0.022000
0.766667	1	0.023000
0.783333	1	0.025375
0.800000	1	0.027375
0.816667	1	0.029750
0.833333	1	0.031500
0.850000	1	0.033250
0.866667	1	0.034625
0.883333	1	0.036750
0.900000	1	0.038125
0.916667	1	0.039750
0.933333	1	0.040500
0.950000	1	0.042125
0.966667	1	0.042750
0.983333	1	0.042750
1.000000	1	0.043750
1.016667	1	0.044125
1.033333	1	0.044500
1.050000	1	0.045250
1.066667	1	0.045250
1.083333	1	0.045000
1.100000	1	0.044500
1.116667	1	0.043750
1.133333	1	0.044000
1.150000	1	0.044125
1.166667	1	0.043625
1.183333	1	0.042750
1.200000	1	0.041875
1.216667	1	0.041125
1.233333	1	0.040125
1.250000	1	0.038750
1.266667	1	0.037625
1.283333	1	0.037125
1.300000	1	0.036375
1.316667	1	0.035625
1.333333	1	0.034250
1.350000	1	0.033125
1.366667	1	0.031750
1.383333	1	0.030875
1.400000	1	0.029750
1.416667	1	0.028625
1.433333	1	0.027625
1.450000	1	0.026875
1.466667	1	0.026375
1.483333	1	0.025875
1.500000	1	0.024625
1.516667	1	0.023750
1.533333	1	0.022375
1.550000	1	0.021250
1.566667	1	0.020500
1.583333	1	0.019500
1.600000	1	0.018250
1.616667	1	0.017125
1.633333	1	0.016250
1.650000	1	0.016000
1.666667	1	0.014500
1.683333	1	0.013875
1.700000	1	0.012500
1.716667	1	0.011625
1.733333	1	0.010500
1.750000	1	0.009375
1.766667	1	0.008125
1.783333	1	0.007250
1.800000	1	0.005125
1.816667	1	0.003625
1.833333	1	0.003000
1.850000	1	0.001625
1.866667	1	0.000750
1.883333	1	0.000000
1.900000	1	-0.000500
1.916667	1	-0.001750
1.933333	1	-0.002500
1.950000	1	-0.003500
1.966667	1	-0.004250
1.983333	1	-0.005750
2.000000	1	-0.006500
2.016667	1	-0.007500
2.033333	1	-0.008125
2.050000	1	-0.008500
2.066667	1	-0.009000
2.083333	1	-0.010375
2.100000	1	-0.011375
2.116667	1	-0.013000
2.133333	1	-0.013875
2.150000	1	-0.014625
2.166667	1	-0.015375
2.183333	1	-0.016250
2.200000	1	-0.016875
2.216667	1	-0.017125
2.233333	1	-0.017625
2.250000	1	-0.018375
2.266667	1	-0.018875
2.283333	1	-0.019375
2.300000	1	-0.019875
2.316667	1	-0.020000
2.333333	1	-0.019875
2.350000	1	-0.020250
2.366667	1	-0.021000
2.383333	1	-0.020625
2.400000	1	-0.020500
2.416667	1	-0.019875
2.433333	1	-0.019375
2.450000	1	-0.018875
2.466667	1	-0.018000
2.483333	1	-0.017125
2.500000	1	-0.016625
2.516667	1	-0.016250
2.533333	1	-0.015750
2.550000	1	-0.015000
2.566667	1	-0.014250
2.583333	1	-0.014375
2.600000	1	-0.013000
2.616667	1	-0.012250
2.633333	1	-0.011375
2.650000	1	-0.010625
2.666667	1	-0.009875
2.683333	1	-0.009500
2.700000	1	-0.009000
2.716667	1	-0.009375
2.733333	1	-0.009625
2.750000	1	-0.010000
2.766667	1	-0.009375
2.783333	1	-0.009125
2.800000	1	-0.009625
2.816667	1	-0.008875
2.833333	1	-0.008375
2.850000	1	-0.008250
2.866667	1	-0.008125
2.883333	1	-0.008125
2.900000	1	-0.008000
2.916667	1	-0.007625
2.933333	1	-0.007750
2.950000	1	-0.007875
2.966667	1	-0.007750
2.983333	1	-0.007250
3.000000	1	-0.007625
3.016667	1	-0.006875
3.033333	1	-0.006125
3.050000	1	-0.005500
3.066667	1	-0.004750
3.083333	1	-0.003875
3.100000	1	-0.002250
3.116667	1	-0.001125
3.133333	1	0.000625
3.150000	1	0.002500
3.166667	1	0.004000
3.183333	1	0.006125
3.200000	1	0.008375
3.216667	1	0.010125
3.233333	1	0.012875
3.250000	1	0.014875
3.266667	1	0.017000
3.283333	1	0.019375
3.300000	1	0.021500
3.316667	1	0.023500
3.333333	1	0.026125
3.350000	1	0.027875
3.366667	1	0.030625
3.383333	1	0.032875
3.400000	1	0.035375
3.416667	1	0.037625
3.433333	1	0.039625
3.450000	1	0.041500
3.466667	1	0.042875
3.483333	1	0.044375
3.500000	1	0.045125
3.516667	1	0.046125
3.533333	1	0.047750
3.550000	1	0.049000
3.566667	1	0.050125
3.583333	1	0.051250
3.600000	1	0.052250
3.616667	1	0.053375
3.633333	1	0.053875
3.650000	1	0.054500
3.666667	1	0.054625
3.683333	1	0.054250
3.700000	1	0.053750
3.716667	1	0.053625
3.733333	1	0.053625
3.750000	1	0.053875
3.766667	1	0.054250
3.783333	1	0.054875
3.800000	1	0.054750
3.816667	1	0.054250
3.833333	1	0.053500
3.850000	1	0.053625
3.866667	1	0.053500
3.883333	1	0.052750
3.900000	1	0.052375
3.916667	1	0.052250
3.933333	1	0.052125
3.950000	1	0.051625
3.966667	1	0.051625
3.983333	1	0.051000
4.000000	1	0.050875
4.016667	1	0.049875
4.033333	1	0.050375
4.050000	1	0.050125
4.066667	1	0.050125
4.083333	1	0.049500
4.100000	1	0.048625
4.116667	1	0.049000
4.133333	1	0.048750
4.150000	1	0.048625
4.166667	1	0.047125
4.183333	1	0.046750
4.200000	1	0.046375
4.216667	1	0.045875
4.233333	1	0.045250
4.250000	1	0.044125
4.266667	1	0.042625
4.283333	1	0.041250
4.300000	1	0.040000
4.316667	1	0.039250
4.333333	1	0.038500
4.350000	1	0.038250
4.366667	1	0.037375
4.383333	1	0.036750
4.400000	1	0.036125
4.416667	1	0.035750
4.433333	1	0.034500
4.450000	1	0.034125
4.466667	1	0.033375
4.483333	1	0.033875
4.500000	1	0.033625
4.516667	1	0.033625
4.533333	1	0.033625
4.550000	1	0.034125
4.566667	1	0.034250
4.583333	1	0.034750
4.600000	1	0.035125
4.616667	1	0.036500
4.633333	1	0.037625
4.650000	1	0.038500
4.666667	1	0.039750
4.683333	1	0.041125
4.700000	1	0.042875
4.716667	1	0.045250
4.733333	1	0.047000
4.750000	1	0.049125
4.766667	1	0.051875
4.783333	1	0.054375
4.800000	1	0.057750
4.816667	1	0.061125
4.833333	1	0.064125
4.850000	1	0.067500
4.866667	1	0.070875
4.883333	1	0.074625
4.900000	1	0.078125
4.916667	1	0.081250
4.933333	1	0.085250
4.950000	1	0.089250
4.966667	1	0.092500
4.983333	1	0.095750
5.000000	1	0.099625
5.016667	1	0.104000
5.033333	1	0.107375
5.050000	1	0.110625
5.066667	1	0.113750
5.083333	1	0.117250
5.100000	1	0.120625
5.116667	1	0.124000
5.133333	1	0.127375
5.150000	1	0.131125
5.166667	1	0.134250
5.183333	1	0.138000
5.200000	1	0.140625
5.216667	1	0.143875
5.233333	1	0.146250
5.250000	1	0.148750
5.266667	1	0.151875
5.283333	1	0.154875
5.300000	1	0.157625
5.316667	1	0.160625
5.333333	1	0.163250
5.350000	1	0.166625
5.366667	1	0.169375
5.383333	1	0.172250
5.400000	1	0.174750
5.416667	1	0.177875
5.433333	1	0.181250
5.450000	1	0.184250
5.466667	1	0.187375
5.483333	1	0.190625
5.500000	1	0.193875
5.516667	1	0.196500
5.533333	1	0.199875
5.550000	1	0.202125
5.566667	1	0.205250
5.583333	1	0.207875
5.600000	1	0.210875
5.616667	1	0.213250
5.633333	1	0.215125
5.650000	1	0.217500
5.666667	1	0.219250
5.683333	1	0.220875
5.700000	1	0.222750
5.716667	1	0.225000
5.733333	1	0.225875
5.750000	1	0.226750
5.766667	1	0.226875
5.783333	1	0.227750
5.800000	1	0.228625
5.816667	1	0.228750
5.833333	1	0.229250
5.850000	1	0.228875
5.866667	1	0.228250
5.883333	1	0.227375
5.900000	1	0.227250
5.916667	1	0.226750
5.933333	1	0.225250
5.950000	1	0.224500
5.966667	1	0.223625
5.983333	1	0.222000
6.000000	1	0.219875
6.016667	1	0.218250
6.033333	1	0.216375
6.050000	1	0.213875
6.066667	1	0.211250
6.083333	1	0.208125
6.100000	1	0.205000
6.116667	1	0.202375
6.133333	1	0.200625
6.150000	1	0.198125
6.166667	1	0.194750
6.183333	1	0.191125
6.200000	1	0.187625
6.216667	1	0.184750
6.233333	1	0.181500
6.250000	1	0.177750
6.266667	1	0.174375
6.283333	1	0.171125
6.300000	1	0.167500
6.316667	1	0.163750
6.333333	1	0.160500
6.350000	1	0.157750
6.366667	1	0.154250
6.383333	1	0.150500
6.400000	1	0.146750
6.416667	1	0.143000
6.433333	1	0.140125
6.450000	1	0.136875
6.466667	1	0.133750
6.483333	1	0.131000
6.500000	1	0.127375
6.516667	1	0.124125
6.533333	1	0.120875
6.550000	1	0.117500
6.566667	1	0.113750
6.583333	1	0.110750
6.600000	1	0.107750
6.616667	1	0.105625
6.633333	1	0.102375
6.650000	1	0.099125
6.666667	1	0.096125
6.683333	1	0.093625
6.700000	1	0.091000
6.716667	1	0.088500
6.733333	1	0.086750
6.750000	1	0.084125
6.766667	1	0.080875
6.783333	1	0.078375
6.800000	1	0.076125
6.816667	1	0.074125
6.833333	1	0.072125
6.850000	1	0.069625
6.866667	1	0.066500
6.883333	1	0.064250
6.900000	1	0.062500
6.916667	1	0.060875
6.933333	1	0.058750
6.950000	1	0.056750
6.966667	1	0.055250
6.983333	1	0.054625
7.000000	1	0.053625
7.016667	1	0.052500
7.033333	1	0.051000
7.050000	1	0.050000
7.066667	1	0.049375
7.083333	1	0.049375
7.100000	1	0.049625
7.116667	1	0.050000
7.133333	1	0.050375
7.150000	1	0.051125
7.166667	1	0.051875
7.183333	1	0.052250
7.200000	1	0.053250
7.216667	1	0.054250
7.233333	1	0.054625
7.250000	1	0.056500
7.266667	1	0.057750
7.283333	1	0.060125
7.300000	1	0.061625
7.316667	1	0.063250
7.333333	1	0.064250
7.350000	1	0.066875
7.366667	1	0.068875
7.383333	1	0.070625
7.400000	1	0.072375
7.416667	1	0.074000
7.433333	1	0.076125
7.450000	1	0.079375
7.466667	1	0.080875
7.483333	1	0.082125
7.500000	1	0.083500
7.516667	1	0.085125
7.533333	1	0.086750
7.550000	1	0.088375
7.566667	1	0.089750
7.583333	1	0.091500
7.600000	1	0.093000
7.616667	1	0.094375
7.633333	1	0.095875
7.650000	1	0.096375
7.666667	1	0.096875
7.683333	1	0.097375
7.700000	1	0.098000
7.716667	1	0.098625
7.733333	1	0.099000
7.750000	1	0.099000
7.766667	1	0.099250
7.783333	1	0.099375
7.800000	1	0.099000
7.816667	1	0.098250
7.833333	1	0.097000
7.850000	1	0.096625
7.866667	1	0.095250
7.883333	1	0.094125
7.900000	1	0.092875
7.916667	1	0.091000
7.933333	1	0.088625
7.950000	1	0.087375
7.966667	1	0.085625
7.983333	1	0.084375
8.000000	1	0.082250
8.016667	1	0.080000
8.033333	1	0.077375
8.050000	1	0.074625
8.066667	1	0.072500
8.083333	1	0.069750
8.100000	1	0.067375
8.116667	1	0.064875
8.133333	1	0.062250
8.150000	1	0.059875
8.166667	1	0.057250
8.183333	1	0.055000
8.200000	1	0.052500
8.216667	1	0.049875
8.233333	1	0.047875
8.250000	1	0.045375
8.266667	1	0.042125
8.283333	1	0.038625
8.300000	1	0.036125
8.316667	1	0.033875
8.333333	1	0.030500
8.350000	1	0.027750
8.366667	1	0.025375
8.383333	1	0.022500
8.400000	1	0.019750
8.416667	1	0.017000
8.433333	1	0.014125
8.450000	1	0.011125
8.466667	1	0.007875
8.483333	1	0.005000
8.500000	1	0.002500
8.516667	1	-0.000125
8.533333	1	-0.003125
8.550000	1	-0.006250
8.566667	1	-0.009375
8.583333	1	-0.012250
8.600000	1	-0.014750
8.616667	1	-0.018125
8.633333	1	-0.020375
8.650000	1	-0.022625
8.666667	1	-0.024750
8.683333	1	-0.026875
8.700000	1	-0.029500
8.716667	1	-0.031250
8.733333	1	-0.033000
8.750000	1	-0.034000
8.766667	1	-0.035875
8.783333	1	-0.037500
8.800000	1	-0.039000
8.816667	1	-0.040000
8.833333	1	-0.041250
8.850000	1	-0.041625
8.866667	1	-0.042000
8.883333	1	-0.041875
8.900000	1	-0.042250
8.916667	1	-0.042500
8.933333	1	-0.042375
8.950000	1	-0.042250
8.966667	1	-0.041750
8.983333	1	-0.041375
9.000000	1	-0.041000
9.016667	1	-0.041000
9.033333	1	-0.040375
9.050000	1	-0.039375
9.066667	1	-0.038125
9.083333	1	-0.037875
9.100000	1	-0.037000
9.116667	1	-0.036500
9.133333	1	-0.036000
9.150000	1	-0.034750
9.166667	1	-0.033125
9.183333	1	-0.032500
9.200000	1	-0.032000
9.216667	1	-0.032250
9.233333	1	-0.031375
9.250000	1	-0.030750
9.266667	1	-0.030125
9.283333	1	-0.029375
9.300000	1	-0.028375
9.316667	1	-0.027875
9.333333	1	-0.027500
9.350000	1	-0.026000
9.366667	1	-0.025125
9.383333	1	-0.024750
9.400000	1	-0.024500
9.416667	1	-0.023875
9.433333	1	-0.023500
9.450000	1	-0.022375
9.466667	1	-0.022500
9.483333	1	-0.021875
9.500000	1	-0.021750
9.516667	1	-0.021250
9.533333	1	-0.021000
9.550000	1	-0.020875
9.566667	1	-0.021250
9.583333	1	-0.021625
9.600000	1	-0.021875
9.616667	1	-0.021875
9.633333	1	-0.022500
9.650000	1	-0.023375
9.666667	1	-0.024375
9.683333	1	-0.024625
9.700000	1	-0.025500
9.716667	1	-0.026250
9.733333	1	-0.027375
9.750000	1	-0.028750
9.766667	1	-0.029125
9.783333	1	-0.030250
9.800000	1	-0.030375
9.816667	1	-0.031125
9.833333	1	-0.032375
9.850000	1	-0.033250
9.866667	1	-0.033750
9.883333	1	-0.034500
9.900000	1	-0.035125
9.916667	1	-0.035250
9.933333	1	-0.035125
9.950000	1	-0.034250
9.966667	1	-0.034000
9.983333	1	-0.033125
10.000000	1	-0.032125
10.016667	1	-0.030750
10.033333	1	-0.028875
10.050000	1	-0.026250
10.066667	1	-0.023000
10.083333	1	-0.018875
10.100000	1	-0.013625
10.116667	1	-0.008125
10.133333	1	-0.001750
10.150000	1	0.005875
10.166667	1	0.015000
10.183333	1	0.025750
10.200000	1	0.036875
10.216667	1	0.049625
10.233333	1	0.063750
10.250000	1	0.080250
10.266667	1	0.098500
10.283333	1	0.119250
10.300000	1	0.142750
10.316667	1	0.168250
10.333333	1	0.196750
10.350000	1	0.228125
10.366667	1	0.261500
10.383333	1	0.296750
10.400000	1	0.330750
10.416667	1	0.358625
10.433333	1	0.374000
10.450000	1	0.367125
10.466667	1	0.331875
10.483333	1	0.269625
10.500000	1	0.196500
10.516667	1	0.149875
10.533333	1	0.187000
10.550000	1	0.384125
10.566667	1	0.829750
10.583333	1	1.611250
10.600000	1	2.809500
10.616667	1	4.489250
10.633333	1	6.694625
10.650000	1	9.449125
10.666667	1	12.763125
10.683333	1	16.624875
10.700000	1	21.001250
10.716667	1	25.831000
10.733333	1	31.010250
10.750000	1	36.384625
10.766667	1	41.727250
10.783333	1	46.725500
10.800000	1	50.981500
10.816667	1	54.055000
10.833333	1	55.549875
10.850000	1	55.231125
10.866667	1	53.102500
10.883333	1	49.433250
10.900000	1	44.680000
10.916667	1	39.364250
10.933333	1	33.954750
10.950000	1	28.801625
10.966667	1	24.125125
10.983333	1	20.026875
11.000000	1	16.534250
11.016667	1	13.623000
11.033333	1	11.242000
11.050000	1	9.322625
11.066667	1	7.790625
11.083333	1	6.574625
11.100000	1	5.613875
11.116667	1	4.852250
11.133333	1	4.246625
11.150000	1	3.760500
11.166667	1	3.368375
11.183333	1	3.047000
11.200000	1	2.781375
11.216667	1	2.558625
11.233333	1	2.368875
11.250000	1	2.204750
11.266667	1	2.062250
11.283333	1	1.937625
11.300000	1	1.827625
11.316667	1	1.730125
11.333333	1	1.643500
11.350000	1	1.566875
11.366667	1	1.499375
11.383333	1	1.439875
11.400000	1	1.386875
11.416667	1	1.339875
11.433333	1	1.297250
11.450000	1	1.261375
11.466667	1	1.229875
11.483333	1	1.203250
11.500000	1	1.180625
11.516667	1	1.161500
11.533333	1	1.146875
11.550000	1	1.135250
11.566667	1	1.125500
11.583333	1	1.119500
11.600000	1	1.114125
11.616667	1	1.109875
11.633333	1	1.105875
11.650000	1	1.101500
11.666667	1	1.096000
11.683333	1	1.089750
11.700000	1	1.083000
11.716667	1	1.074625
11.733333	1	1.066375
11.750000	1	1.058750
11.766667	1	1.051125
11.783333	1	1.044250
11.800000	1	1.038750
11.816667	1	1.034000
11.833333	1	1.029750
11.850000	1	1.027250
11.866667	1	1.025625
11.883333	1	1.025125
11.900000	1	1.025375
11.916667	1	1.026125
11.933333	1	1.027125
11.950000	1	1.028250
11.966667	1	1.030375
11.983333	1	1.032625
12.000000	1	1.035000
12.016667	1	1.038000
12.033333	1	1.041500
12.050000	1	1.046125
12.066667	1	1.050375
12.083333	1	1.055000
12.100000	1	1.060875
12.116667	1	1.067250
12.133333	1	1.073250
12.150000	1	1.081000
12.166667	1	1.088625
12.183333	1	1.097000
12.200000	1	1.107250
12.216667	1	1.118250
12.233333	1	1.130750
12.250000	1	1.145625
12.266667	1	1.162250
12.283333	1	1.181000
12.300000	1	1.200875
12.316667	1	1.223500
12.333333	1	1.249625
12.350000	1	1.280875
12.366667	1	1.318500
12.383333	1	1.364500
12.400000	1	1.423625
12.416667	1	1.500000
12.433333	1	1.598875
12.450000	1	1.727250
12.466667	1	1.890125
12.483333	1	2.092375
12.500000	1	2.339875
12.516667	1	2.635125
12.533333	1	2.977875
12.550000	1	3.365125
12.566667	1	3.791625
12.583333	1	4.250250
12.600000	1	4.731875
12.616667	1	5.224625
12.633333	1	5.718000
12.650000	1	6.201625
12.666667	1	6.665625
12.683333	1	7.100500
12.700000	1	7.496500
12.716667	1	7.845500
12.733333	1	8.138000
12.750000	1	8.363125
12.766667	1	8.510000
12.783333	1	8.568250
12.800000	1	8.533125
12.816667	1	8.407500
12.833333	1	8.199250
12.850000	1	7.925000
12.866667	1	7.603250
12.883333	1	7.253250
12.900000	1	6.889125
12.916667	1	6.520125
12.933333	1	6.153750
12.950000	1	5.794750
12.966667	1	5.446750
12.983333	1	5.113875
13.000000	1	4.799750
13.016667	1	4.507250
13.033333	1	4.238875
13.050000	1	3.994625
13.066667	1	3.774875
13.083333	1	3.577625
13.100000	1	3.402000
13.116667	1	3.245125
13.133333	1	3.104750
13.150000	1	2.978750
13.166667	1	2.865875
13.183333	1	2.764125
13.200000	1	2.672000
13.216667	1	2.587750
13.233333	1	2.510875
13.250000	1	2.440250
13.266667	1	2.375750
13.283333	1	2.315750
13.300000	1	2.260000
13.316667	1	2.208625
13.333333	1	2.160625
13.350000	1	2.115500
13.366667	1	2.074250
13.383333	1	2.036500
13.400000	1	2.001500
13.416667	1	1.969875
13.433333	1	1.942500
13.450000	1	1.918375
13.466667	1	1.898500
13.483333	1	1.882375
13.500000	1	1.870000
13.516667	1	1.861375
13.533333	1	1.855750
13.550000	1	1.852500
13.566667	1	1.850625
13.583333	1	1.848125
13.600000	1	1.843875
13.616667	1	1.836625
13.633333	1	1.826000
13.650000	1	1.810625
13.666667	1	1.790750
13.683333	1	1.766750
13.700000	1	1.739250
13.716667	1	1.708375
13.733333	1	1.675500
13.750000	1	1.641250
13.766667	1	1.606625
13.783333	1	1.572000
13.800000	1	1.539125
13.816667	1	1.506875
13.833333	1	1.477000
13.850000	1	1.448375
13.866667	1	1.421500
13.883333	1	1.396625
13.900000	1	1.373375
13.916667	1	1.352250
13.933333	1	1.332750
13.950000	1	1.314375
13.966667	1	1.297375
13.983333	1	1.281750
14.000000	1	1.266750
14.016667	1	1.253125
14.033333	1	1.240250
14.050000	1	1.228000
14.066667	1	1.216250
14.083333	1	1.205875
14.100000	1	1.195750
14.116667	1	1.187125
14.133333	1	1.178125
14.150000	1	1.170125
14.166667	1	1.163250
14.183333	1	1.156875
14.200000	1	1.151250
14.216667	1	1.146750
14.233333	1	1.143125
14.250000	1	1.141000
14.266667	1	1.139625
14.283333	1	1.141250
14.300000	1	1.144375
14.316667	1	1.149375
14.333333	1	1.155875
14.350000	1	1.164375
14.366667	1	1.175500
14.383333	1	1.190000
14.400000	1	1.207000
14.416667	1	1.228875
14.433333	1	1.258125
14.450000	1	1.299625
14.466667	1	1.361000
14.483333	1	1.453125
14.500000	1	1.592000
14.516667	1	1.800750
14.533333	1	2.112250
14.550000	1	2.566125
14.566667	1	3.214750
14.583333	1	4.117625
14.600000	1	5.343750
14.616667	1	6.968875
14.633333	1	9.066625
14.650000	1	11.704125
14.666667	1	14.925875
14.683333	1	18.748375
14.700000	1	23.149875
14.716667	1	28.058875
14.733333	1	33.354125
14.750000	1	38.869375
14.766667	1	44.399000
14.783333	1	49.704875
14.800000	1	54.548500
14.816667	1	58.705375
14.833333	1	61.976500
14.850000	1	64.211625
14.866667	1	65.321000
14.883333	1	65.286000
14.900000	1	64.154125
14.916667	1	62.037500
14.933333	1	59.089625
14.950000	1	55.495000
14.966667	1	51.448250
14.983333	1	47.144875
15.000000	1	42.750500
15.016667	1	38.407375
15.033333	1	34.223750
15.050000	1	30.281125
15.066667	1	26.635500
15.083333	1	23.316250
15.100000	1	20.333125
15.116667	1	17.681375
15.133333	1	15.344500
15.150000	1	13.298500
15.166667	1	11.518000
15.183333	1	9.977125
15.200000	1	8.647375
15.216667	1	7.504500
15.233333	1	6.525000
15.250000	1	5.689750
15.266667	1	4.981000
15.283333	1	4.385125
15.300000	1	3.887375
15.316667	1	3.475625
15.333333	1	3.139375
15.350000	1	2.867875
15.366667	1	2.651375
15.383333	1	2.481250
15.400000	1	2.349000
15.416667	1	2.248250
15.433333	1	2.171000
15.450000	1	2.110750
15.466667	1	2.062000
15.483333	1	2.020625
15.500000	1	1.981875
15.516667	1	1.944500
15.533333	1	1.905875
15.550000	1	1.863875
15.566667	1	1.821000
15.583333	1	1.776500
15.600000	1	1.731375
15.616667	1	1.687000
15.633333	1	1.643125
15.650000	1	1.601250
15.666667	1	1.562375
15.683333	1	1.526125
15.700000	1	1.492375
15.716667	1	1.461250
15.733333	1	1.432750
15.750000	1	1.406875
15.766667	1	1.381250
15.783333	1	1.357000
15.800000	1	1.334375
15.816667	1	1.311250
15.833333	1	1.289250
15.850000	1	1.268125
15.866667	1	1.248125
15.883333	1	1.229125
15.900000	1	1.212250
15.916667	1	1.197000
15.933333	1	1.184375
15.950000	1	1.174375
15.966667	1	1.166500
15.983333	1	1.160625
16.000000	1	1.156625
16.016667	1	1.154750
16.033333	1	1.154125
16.050000	1	1.153875
16.066667	1	1.153375
16.083333	1	1.153375
16.100000	1	1.152000
16.116667	1	1.150250
16.133333	1	1.147875
16.150000	1	1.143500
16.166667	1	1.138125
16.183333	1	1.132250
16.200000	1	1.124500
16.216667	1	1.115875
16.233333	1	1.106500
16.250000	1	1.097000
16.266667	1	1.086125
16.283333	1	1.075500
16.300000	1	1.064375
16.316667	1	1.054375
16.333333	1	1.046125
16.350000	1	1.037625
16.366667	1	1.031250
16.383333	1	1.025625
16.400000	1	1.022750
16.416667	1	1.020500
16.433333	1	1.020500
16.450000	1	1.022375
16.466667	1	1.024875
16.483333	1	1.028000
16.500000	1	1.031750
16.516667	1	1.034500
16.533333	1	1.037625
16.550000	1	1.039250
16.566667	1	1.040125
16.583333	1	1.039625
16.600000	1	1.037375
16.616667	1	1.034500
16.633333	1	1.030250
16.650000	1	1.025750
16.666667	1	1.021000
16.683333	1	1.016125
16.700000	1	1.012875
16.716667	1	1.010125
16.733333	1	1.008875
16.750000	1	1.009125
16.766667	1	1.010875
16.783333	1	1.015125
16.800000	1	1.019000
16.816667	1	1.024625
16.833333	1	1.030500
16.850000	1	1.037000
16.866667	1	1.042250
16.883333	1	1.046875
16.900000	1	1.049750
16.916667	1	1.051375
16.933333	1	1.052125
16.950000	1	1.051875
16.966667	1	1.049750
16.983333	1	1.046500
17.000000	1	1.042625
17.016667	1	1.038750
17.033333	1	1.034125
17.050000	1	1.029625
17.066667	1	1.025375
17.083333	1	1.022125
17.100000	1	1.020000
17.116667	1	1.018250
17.133333	1	1.017250
17.150000	1	1.016750
17.166667	1	1.017000
17.183333	1	1.018750
17.200000	1	1.020875
17.216667	1	1.023875
17.233333	1	1.027750
17.250000	1	1.031250
17.266667	1	1.036625
17.283333	1	1.041750
17.300000	1	1.046875
17.316667	1	1.052625
17.333333	1	1.058500
17.350000	1	1.064125
17.366667	1	1.069625
17.383333	1	1.074625
17.400000	1	1.079625
17.416667	1	1.083250
17.433333	1	1.085625
17.450000	1	1.086875
17.466667	1	1.087750
17.483333	1	1.085875
17.500000	1	1.082750
17.516667	1	1.078250
17.533333	1	1.072250
17.550000	1	1.064750
17.566667	1	1.055500
17.583333	1	1.045375
17.600000	1	1.033250
17.616667	1	1.020125
17.633333	1	1.006250
17.650000	1	0.992000
17.666667	1	0.977250
17.683333	1	0.961875
17.700000	1	0.946500
17.716667	1	0.931000
17.733333	1	0.916250
17.750000	1	0.901875
17.766667	1	0.888250
17.783333	1	0.875000
17.800000	1	0.863125
17.816667	1	0.851625
17.833333	1	0.840500
17.850000	1	0.830375
17.866667	1	0.822625
17.883333	1	0.814250
17.900000	1	0.806750
17.916667	1	0.799625
17.933333	1	0.793375
17.950000	1	0.787000
17.966667	1	0.781750
17.983333	1	0.775875
18.000000	1	0.770000
18.016667	1	0.764000
18.033333	1	0.758125
18.050000	1	0.752875
18.066667	1	0.748125
18.083333	1	0.743625
18.100000	1	0.739375
18.116667	1	0.735500
18.133333	1	0.732125
18.150000	1	0.729250
18.166667	1	0.727000
18.183333	1	0.726375
18.200000	1	0.725500
18.216667	1	0.724125
18.233333	1	0.723750
18.250000	1	0.723750
18.266667	1	0.723375
18.283333	1	0.723125
18.300000	1	0.722625
18.316667	1	0.722875
18.333333	1	0.723000
18.350000	1	0.723500
18.366667	1	0.724500
18.383333	1	0.726750
18.400000	1	0.729375
18.416667	1	0.732750
18.433333	1	0.737875
18.450000	1	0.744875
18.466667	1	0.753875
18.483333	1	0.764500
18.500000	1	0.777000
18.516667	1	0.791000
18.533333	1	0.806750
18.550000	1	0.825000
18.566667	1	0.845000
18.583333	1	0.867875
18.600000	1	0.892125
18.616667	1	0.917625
18.633333	1	0.945250
18.650000	1	0.973625
18.666667	1	1.003875
18.683333	1	1.036000
18.700000	1	1.069000
18.716667	1	1.102750
18.733333	1	1.135625
18.750000	1	1.169250
18.766667	1	1.202625
18.783333	1	1.235500
18.800000	1	1.266500
18.816667	1	1.295375
18.833333	1	1.320750
18.850000	1	1.342375
18.866667	1	1.359625
18.883333	1	1.372125
18.900000	1	1.378625
18.916667	1	1.380625
18.933333	1	1.376125
18.950000	1	1.365125
18.966667	1	1.347875
18.983333	1	1.325125
19.000000	1	1.295625
19.016667	1	1.262250
19.033333	1	1.224250
19.050000	1	1.183000
19.066667	1	1.139375
19.083333	1	1.094750
19.100000	1	1.049375
19.116667	1	1.004625
19.133333	1	0.961125
19.150000	1	0.919625
19.166667	1	0.881000
19.183333	1	0.845500
19.200000	1	0.814125
19.216667	1	0.787250
19.233333	1	0.765875
19.250000	1	0.749625
19.266667	1	0.738250
19.283333	1	0.732625
19.300000	1	0.733750
19.316667	1	0.740625
19.333333	1	0.752500
19.350000	1	0.769250
19.366667	1	0.791375
19.383333	1	0.816750
19.400000	1	0.846000
19.416667	1	0.878250
19.433333	1	0.911875
19.450000	1	0.946375
19.466667	1	0.979500
19.483333	1	1.011750
19.500000	1	1.041625
19.516667	1	1.068500
19.533333	1	1.092375
19.550000	1	1.112125
19.566667	1	1.127625
19.583333	1	1.139000
19.600000	1	1.145375
19.616667	1	1.146625
19.633333	1	1.143375
19.650000	1	1.135500
19.666667	1	1.123625
19.683333	1	1.107375
19.700000	1	1.087250
19.716667	1	1.064125
19.733333	1	1.038750
19.750000	1	1.010875
19.766667	1	0.981000
19.783333	1	0.949375
19.800000	1	0.915625
19.816667	1	0.881625
19.833333	1	0.847000
19.850000	1	0.812875
19.866667	1	0.779375
19.883333	1	0.746625
19.900000	1	0.714625
19.916667	1	0.684625
19.933333	1	0.656125
19.950000	1	0.630875
19.966667	1	0.608125
19.983333	1	0.589375
20.000000	1	0.574750
20.016667	1	0.563250
20.033333	1	0.556125
20.050000	1	0.553500
20.066667	1	0.554875
20.083333	1	0.560875
20.100000	1	0.572000
20.116667	1	0.586875
20.133333	1	0.605750
20.150000	1	0.628375
20.166667	1	0.653000
20.183333	1	0.679250
20.200000	1	0.705875
20.216667	1	0.732625
20.233333	1	0.757625
20.250000	1	0.779875
20.266667	1	0.798750
20.283333	1	0.813750
20.300000	1	0.823125
20.316667	1	0.828125
20.333333	1	0.827625
20.350000	1	0.822000
20.366667	1	0.811125
20.383333	1	0.796250
20.400000	1	0.777625
20.416667	1	0.757000
20.433333	1	0.734375
20.450000	1	0.711750
20.466667	1	0.690125
20.483333	1	0.671625
20.500000	1	0.656625
20.516667	1	0.646250
20.533333	1	0.642875
20.550000	1	0.648375
20.566667	1	0.663750
20.583333	1	0.691000
20.600000	1	0.731000
20.616667	1	0.785750
20.633333	1	0.855250
20.650000	1	0.941125
20.666667	1	1.043875
20.683333	1	1.162250
20.700000	1	1.295375
20.716667	1	1.441500
20.733333	1	1.596875
20.750000	1	1.759375
20.766667	1	1.926000
20.783333	1	2.090625
20.800000	1	2.249375
20.816667	1	2.396750
20.833333	1	2.527875
20.850000	1	2.639500
20.866667	1	2.727000
20.883333	1	2.788625
20.900000	1	2.822625
20.916667	1	2.829250
20.933333	1	2.808750
20.950000	1	2.762875
20.966667	1	2.693000
20.983333	1	2.603250
21.000000	1	2.496250
21.016667	1	2.376000
21.033333	1	2.246625
21.050000	1	2.112375
21.066667	1	1.975375
21.083333	1	1.841125
21.100000	1	1.708875
21.116667	1	1.582250
21.133333	1	1.462625
21.150000	1	1.350500
21.166667	1	1.246375
21.183333	1	1.150125
21.200000	1	1.061500
21.216667	1	0.981375
21.233333	1	0.908875
21.250000	1	0.843750
21.266667	1	0.785500
21.283333	1	0.733250
21.300000	1	0.686500
21.316667	1	0.645125
21.333333	1	0.608125
21.350000	1	0.575125
21.366667	1	0.546250
21.383333	1	0.520625
21.400000	1	0.498000
21.416667	1	0.477000
21.433333	1	0.459625
21.450000	1	0.443375
21.466667	1	0.428750
21.483333	1	0.416625
21.500000	1	0.406625
21.516667	1	0.397375
21.533333	1	0.389500
21.550000	1	0.382000
21.566667	1	0.376375
21.583333	1	0.371125
21.600000	1	0.367500
21.616667	1	0.363875
21.633333	1	0.360500
21.650000	1	0.358625
21.666667	1	0.357500
21.683333	1	0.357500
21.700000	1	0.358000
21.716667	1	0.359750
21.733333	1	0.361125
21.750000	1	0.363750
21.766667	1	0.365875
21.783333	1	0.369500
21.800000	1	0.373375
21.816667	1	0.376875
21.833333	1	0.381000
21.850000	1	0.385375
21.866667	1	0.389625
21.883333	1	0.394750
21.900000	1	0.400375
21.916667	1	0.406125
21.933333	1	0.411750
21.950000	1	0.417625
21.966667	1	0.424250
21.983333	1	0.429875
22.000000	1	0.436000
22.016667	1	0.442625
22.033333	1	0.449625
22.050000	1	0.456625
22.066667	1	0.462375
22.083333	1	0.468500
22.100000	1	0.473750
22.116667	1	0.478625
22.133333	1	0.483000
22.150000	1	0.486625
22.166667	1	0.489375
22.183333	1	0.490500
22.200000	1	0.489375
22.216667	1	0.487625
22.233333	1	0.484125
22.250000	1	0.479375
22.266667	1	0.473625
22.283333	1	0.466375
22.300000	1	0.457500
22.316667	1	0.448500
22.333333	1	0.437625
22.350000	1	0.426875
22.366667	1	0.414500
22.383333	1	0.402375
22.400000	1	0.390750
22.416667	1	0.378000
22.433333	1	0.365625
22.450000	1	0.353875
22.466667	1	0.342125
22.483333	1	0.330750
22.500000	1	0.320125
22.516667	1	0.310625
22.533333	1	0.301000
22.550000	1	0.291500
22.566667	1	0.282750
22.583333	1	0.274875
22.600000	1	0.266625
22.616667	1	0.259125
22.633333	1	0.252125
22.650000	1	0.245500
22.666667	1	0.239125
22.683333	1	0.232750
22.700000	1	0.227125
22.716667	1	0.220875
22.733333	1	0.215875
22.750000	1	0.210875
22.766667	1	0.206250
22.783333	1	0.201375
22.800000	1	0.197125
22.816667	1	0.193250
22.833333	1	0.189625
22.850000	1	0.186250
22.866667	1	0.182750
22.883333	1	0.179625
22.900000	1	0.177125
22.916667	1	0.174250
22.933333	1	0.172750
22.950000	1	0.171375
22.966667	1	0.170750
22.983333	1	0.170125
23.000000	1	0.169875
23.016667	1	0.170125
23.033333	1	0.170750
23.050000	1	0.172250
23.066667	1	0.173500
23.083333	1	0.175250
23.100000	1	0.177125
23.116667	1	0.179375
23.133333	1	0.181500
23.150000	1	0.184000
23.166667	1	0.186625
23.183333	1	0.189250
23.200000	1	0.191875
23.216667	1	0.195500
23.233333	1	0.198125
23.250000	1	0.201250
23.266667	1	0.204750
23.283333	1	0.209125
23.300000	1	0.214500
23.316667	1	0.221625
23.333333	1	0.230625
23.350000	1	0.242750
23.366667	1	0.258000
23.383333	1	0.279375
23.400000	1	0.305875
23.416667	1	0.338500
23.433333	1	0.380000
23.450000	1	0.431625
23.466667	1	0.495625
23.483333	1	0.573750
23.500000	1	0.667000
23.516667	1	0.778125
23.533333	1	0.908500
23.550000	1	1.058750
23.566667	1	1.229500
23.583333	1	1.422125
23.600000	1	1.635125
23.616667	1	1.867125
23.633333	1	2.117000
23.650000	1	2.380500
23.666667	1	2.655875
23.683333	1	2.937000
23.700000	1	3.220375
23.716667	1	3.498750
23.733333	1	3.767875
23.750000	1	4.021875
23.766667	1	4.254500
23.783333	1	4.460750
23.800000	1	4.635625
23.816667	1	4.776250
23.833333	1	4.878875
23.850000	1	4.942875
23.866667	1	4.967500
23.883333	1	4.953375
23.900000	1	4.902875
23.916667	1	4.817625
23.933333	1	4.701000
23.950000	1	4.556750
23.966667	1	4.390875
23.983333	1	4.205875
24.000000	1	4.007000
24.016667	1	3.798625
24.033333	1	3.584250
24.050000	1	3.368125
24.066667	1	3.153250
24.083333	1	2.941125
24.100000	1	2.735750
24.116667	1	2.537375
24.133333	1	2.347875
24.150000	1	2.168125
24.166667	1	1.998875
24.183333	1	1.840125
24.200000	1	1.692625
24.216667	1	1.554375
24.233333	1	1.427125
24.250000	1	1.309500
24.266667	1	1.202000
24.283333	1	1.102875
24.300000	1	1.012125
24.316667	1	0.930000
24.333333	1	0.856000
24.350000	1	0.788625
24.366667	1	0.728500
24.383333	1	0.674250
24.400000	1	0.626125
24.416667	1	0.583750
24.433333	1	0.546625
24.450000	1	0.513875
24.466667	1	0.485250
24.483333	1	0.460750
24.500000	1	0.439500
24.516667	1	0.421000
24.533333	1	0.405125
24.550000	1	0.391750
24.566667	1	0.379375
24.583333	1	0.368500
24.600000	1	0.359500
24.616667	1	0.351375
24.633333	1	0.343375
24.650000	1	0.336500
24.666667	1	0.329875
24.683333	1	0.323625
24.700000	1	0.318000
24.716667	1	0.312625
24.733333	1	0.307625
24.750000	1	0.302250
24.766667	1	0.296875
24.783333	1	0.291125
24.800000	1	0.285875
24.816667	1	0.281125
24.833333	1	0.276875
24.850000	1	0.271625
24.866667	1	0.267500
24.883333	1	0.263500
24.900000	1	0.259500
24.916667	1	0.256000
24.933333	1	0.252625
24.950000	1	0.249875
24.966667	1	0.247500
24.983333	1	0.245500
25.000000	1	0.243125
25.016667	1	0.240625
25.033333	1	0.238375
25.050000	1	0.237125
25.066667	1	0.235375
25.083333	1	0.234250
25.100000	1	0.233250
25.116667	1	0.232375
25.133333	1	0.230750
25.150000	1	0.229625
25.166667	1	0.228625
25.183333	1	0.227875
25.200000	1	0.227000
25.216667	1	0.226000
25.233333	1	0.225500
25.250000	1	0.224375
25.266667	1	0.224125
25.283333	1	0.223750
25.300000	1	0.223500
25.316667	1	0.223375
25.333333	1	0.223375
25.350000	1	0.222500
25.366667	1	0.222000
25.383333	1	0.222000
25.400000	1	0.221625
25.416667	1	0.221375
25.433333	1	0.221375
25.450000	1	0.221750
25.466667	1	0.222750
25.483333	1	0.223500
25.500000	1	0.224625
25.516667	1	0.225625
25.533333	1	0.227500
25.550000	1	0.229250
25.566667	1	0.230625
25.583333	1	0.231375
25.600000	1	0.232375
25.616667	1	0.233125
25.633333	1	0.234000
25.650000	1	0.234750
25.666667	1	0.235375
25.683333	1	0.236250
25.700000	1	0.236375
25.716667	1	0.236500
25.733333	1	0.236625
25.750000	1	0.237125
25.766667	1	0.236750
25.783333	1	0.236625
25.800000	1	0.236500
25.816667	1	0.236000
25.833333	1	0.235375
25.850000	1	0.234625
25.866667	1	0.233750
25.883333	1	0.233125
25.900000	1	0.232875
25.916667	1	0.232750
25.933333	1	0.233250
25.950000	1	0.233875
25.966667	1	0.235250
25.983333	1	0.236125
26.000000	1	0.237000
26.016667	1	0.239000
26.033333	1	0.241000
26.050000	1	0.244250
26.066667	1	0.247750
26.083333	1	0.250625
26.100000	1	0.254750
26.116667	1	0.259000
26.133333	1	0.263250
26.150000	1	0.268000
26.166667	1	0.272250
26.183333	1	0.277250
26.200000	1	0.282125
26.216667	1	0.286250
26.233333	1	0.290875
26.250000	1	0.295250
26.266667	1	0.299250
26.283333	1	0.302375
26.300000	1	0.305625
26.316667	1	0.308375
26.333333	1	0.310125
26.350000	1	0.311750
26.366667	1	0.312500
26.383333	1	0.312250
26.400000	1	0.310875
26.416667	1	0.309625
26.433333	1	0.307750
26.450000	1	0.305875
26.466667	1	0.302625
26.483333	1	0.298875
26.500000	1	0.294250
26.516667	1	0.289125
26.533333	1	0.283625
26.550000	1	0.278500
26.566667	1	0.272500
26.583333	1	0.267125
26.600000	1	0.260375
26.616667	1	0.253125
26.633333	1	0.246250
26.650000	1	0.239750
26.666667	1	0.233625
26.683333	1	0.227500
26.700000	1	0.221000
26.716667	1	0.215625
26.733333	1	0.210250
26.750000	1	0.204375
26.766667	1	0.199500
26.783333	1	0.194125
26.800000	1	0.189500
26.816667	1	0.185125
26.833333	1	0.181000
26.850000	1	0.177500
26.866667	1	0.175000
26.883333	1	0.172625
26.900000	1	0.170750
26.916667	1	0.168125
26.933333	1	0.166375
26.950000	1	0.165250
26.966667	1	0.164750
26.983333	1	0.164750
27.000000	1	0.164875
27.016667	1	0.165500
27.033333	1	0.166500
27.050000	1	0.167750
27.066667	1	0.169750
27.083333	1	0.172375
27.100000	1	0.174750
27.116667	1	0.177250
27.133333	1	0.180250
27.150000	1	0.185000
27.166667	1	0.189250
27.183333	1	0.195375
27.200000	1	0.202375
27.216667	1	0.210250
27.233333	1	0.219625
27.250000	1	0.231875
27.266667	1	0.245500
27.283333	1	0.261500
27.300000	1	0.281125
27.316667	1	0.303750
27.333333	1	0.330875
27.350000	1	0.362625
27.366667	1	0.400000
27.383333	1	0.443125
27.400000	1	0.494000
27.416667	1	0.552375
27.433333	1	0.619125
27.450000	1	0.695625
27.466667	1	0.781875
27.483333	1	0.879500
27.500000	1	0.988000
27.516667	1	1.107750
27.533333	1	1.238875
27.550000	1	1.380750
27.566667	1	1.533750
27.583333	1	1.696375
27.600000	1	1.867875
27.616667	1	2.046875
27.633333	1	2.232000
27.650000	1	2.421875
27.666667	1	2.613500
27.683333	1	2.804500
27.700000	1	2.993500
27.716667	1	3.175625
27.733333	1	3.348750
27.750000	1	3.511125
27.766667	1	3.658625
27.783333	1	3.789125
27.800000	1	3.900750
27.816667	1	3.990750
27.833333	1	4.058625
27.850000	1	4.102875
27.866667	1	4.122875
27.883333	1	4.118375
27.900000	1	4.089625
27.916667	1	4.036750
27.933333	1	3.962375
27.950000	1	3.868250
27.966667	1	3.754625
27.983333	1	3.625625
28.000000	1	3.483000
28.016667	1	3.329500
28.033333	1	3.168250
28.050000	1	3.001250
28.066667	1	2.830250
28.083333	1	2.657875
28.100000	1	2.487250
28.116667	1	2.319750
28.133333	1	2.157125
28.150000	1	2.000625
28.166667	1	1.850750
28.183333	1	1.708875
28.200000	1	1.575375
28.216667	1	1.450375
28.233333	1	1.333250
28.250000	1	1.225000
28.266667	1	1.124875
28.283333	1	1.032500
28.300000	1	0.948250
28.316667	1	0.872125
28.333333	1	0.804125
28.350000	1	0.742250
28.366667	1	0.686500
28.383333	1	0.637500
28.400000	1	0.594250
28.416667	1	0.556250
28.433333	1	0.523000
28.450000	1	0.494750
28.466667	1	0.470500
28.483333	1	0.449625
28.500000	1	0.432875
28.516667	1	0.419625
28.533333	1	0.409375
28.550000	1	0.402250
28.566667	1	0.398125
28.583333	1	0.396375
28.600000	1	0.395500
28.616667	1	0.397375
28.633333	1	0.400875
28.650000	1	0.405875
28.666667	1	0.412125
28.683333	1	0.419125
28.700000	1	0.426250
28.716667	1	0.434875
28.733333	1	0.443750
28.750000	1	0.453125
28.766667	1	0.461625
28.783333	1	0.471250
28.800000	1	0.480125
28.816667	1	0.488875
28.833333	1	0.497500
28.850000	1	0.504500
28.866667	1	0.511875
28.883333	1	0.518375
28.900000	1	0.524250
28.916667	1	0.527500
28.933333	1	0.530000
28.950000	1	0.531750
28.966667	1	0.532750
28.983333	1	0.531500
29.000000	1	0.529500
29.016667	1	0.525375
29.033333	1	0.520250
29.050000	1	0.512500
29.066667	1	0.503375
29.083333	1	0.493000
29.100000	1	0.480375
29.116667	1	0.465500
29.133333	1	0.447750
29.150000	1	0.428250
29.166667	1	0.407000
29.183333	1	0.383250
29.200000	1	0.356625
29.216667	1	0.326750
29.233333	1	0.294125
29.250000	1	0.258750
29.266667	1	0.220500
29.283333	1	0.178750
29.300000	1	0.133750
29.316667	1	0.085750
29.333333	1	0.034500
29.350000	1	-0.018875
29.366667	1	-0.075375
29.383333	1	-0.135500
29.400000	1	-0.197625
29.416667	1	-0.262125
29.433333	1	-0.328875
29.450000	1	-0.398125
29.466667	1	-0.468125
29.483333	1	-0.538500
29.500000	1	-0.609500
29.516667	1	-0.680250
29.533333	1	-0.750625
29.550000	1	-0.819375
29.566667	1	-0.886250
29.583333	1	-0.950125
29.600000	1	-1.011250
29.616667	1	-1.068875
29.633333	1	-1.122000
29.650000	1	-1.170625
29.666667	1	-1.213750
29.683333	1	-1.252000
29.700000	1	-1.283875
29.716667	1	-1.309250
29.733333	1	-1.329375
29.750000	1	-1.343250
29.766667	1	-1.350250
29.783333	1	-1.350375
29.800000	1	-1.344875
29.816667	1	-1.333750
29.833333	1	-1.316875
29.850000	1	-1.295000
29.866667	1	-1.268125
29.883333	1	-1.235625
29.900000	1	-1.200750
29.916667	1	-1.161750
29.933333	1	-1.119750
29.950000	1	-1.074125
29.966667	1	-1.026875
29.983333	1	-0.978000
30.000000	1	-0.928250
30.016667	1	-0.877250
30.033333	1	-0.826875
30.050000	1	-0.776125
30.066667	1	-0.726125
30.083333	1	-0.676500
30.100000	1	-0.628000
30.116667	1	-0.580625
30.133333	1	-0.535750
30.150000	1	-0.491625
30.166667	1	-0.450250
30.183333	1	-0.410625
30.200000	1	-0.373250
30.216667	1	-0.337000
30.233333	1	-0.303250
30.250000	1	-0.272000
30.266667	1	-0.243000
30.283333	1	-0.215125
30.300000	1	-0.189000
30.316667	1	-0.165875
30.333333	1	-0.143125
30.350000	1	-0.122500
30.366667	1	-0.103125
30.383333	1	-0.085375
30.400000	1	-0.068875
30.416667	1	-0.053625
30.433333	1	-0.039500
30.450000	1	-0.025750
30.466667	1	-0.013250
30.483333	1	-0.001875
30.500000	1	0.009250
30.516667	1	0.019750
30.533333	1	0.030000
30.550000	1	0.040250
30.566667	1	0.050125
30.583333	1	0.059875
30.600000	1	0.068875
30.616667	1	0.079000
30.633333	1	0.088375
30.650000	1	0.098125
30.666667	1	0.108250
30.683333	1	0.118250
30.700000	1	0.128500
30.716667	1	0.138875
30.733333	1	0.149500
30.750000	1	0.160125
30.766667	1	0.170750
30.783333	1	0.181500
30.800000	1	0.193250
30.816667	1	0.205000
30.833333	1	0.217375
30.850000	1	0.230375
30.866667	1	0.243625
30.883333	1	0.257250
30.900000	1	0.272125
30.916667	1	0.288625
30.933333	1	0.306375
30.950000	1	0.325875
30.966667	1	0.347250
30.983333	1	0.371625
31.000000	1	0.400125
31.016667	1	0.431625
31.033333	1	0.467500
31.050000	1	0.509250
31.066667	1	0.556750
31.083333	1	0.610375
31.100000	1	0.672125
31.116667	1	0.742250
31.133333	1	0.822000
31.150000	1	0.912000
31.166667	1	1.014000
31.183333	1	1.127750
31.200000	1	1.253500
31.216667	1	1.392375
31.233333	1	1.545375
31.250000	1	1.711375
31.266667	1	1.890500
31.283333	1	2.083875
31.300000	1	2.289250
31.316667	1	2.505625
31.333333	1	2.730250
31.350000	1	2.963375
31.366667	1	3.203000
31.383333	1	3.447875
31.400000	1	3.694000
31.416667	1	3.940000
31.433333	1	4.181750
31.450000	1	4.417000
31.466667	1	4.641875
31.483333	1	4.854250
31.500000	1	5.052000
31.516667	1	5.231750
31.533333	1	5.391500
31.550000	1	5.529250
31.566667	1	5.643375
31.583333	1	5.732875
31.600000	1	5.797000
31.616667	1	5.834625
31.633333	1	5.845625
31.650000	1	5.831000
31.666667	1	5.790750
31.683333	1	5.726375
31.700000	1	5.639125
31.716667	1	5.530125
31.733333	1	5.402875
31.750000	1	5.258250
31.766667	1	5.098750
31.783333	1	4.926375
31.800000	1	4.743750
31.816667	1	4.552500
31.833333	1	4.354750
31.850000	1	4.152500
31.866667	1	3.948625
31.883333	1	3.744125
31.900000	1	3.540625
31.916667	1	3.339875
31.933333	1	3.144375
31.950000	1	2.953750
31.966667	1	2.768000
31.983333	1	2.589125
32.000000	1	2.416375
32.016667	1	2.251250
32.033333	1	2.094000
32.050000	1	1.944625
32.066667	1	1.802750
32.083333	1	1.667750
32.100000	1	1.540750
32.116667	1	1.421500
32.133333	1	1.310000
32.150000	1	1.205375
32.166667	1	1.107125
32.183333	1	1.015750
32.200000	1	0.930000
32.216667	1	0.849875
32.233333	1	0.775625
32.250000	1	0.706500
32.266667	1	0.642500
32.283333	1	0.582375
32.300000	1	0.527125
32.316667	1	0.476375
32.333333	1	0.429625
32.350000	1	0.385375
32.366667	1	0.345750
32.383333	1	0.309125
32.400000	1	0.275750
32.416667	1	0.244875
32.433333	1	0.216625
32.450000	1	0.191000
32.466667	1	0.167500
32.483333	1	0.146000
32.500000	1	0.126750
32.516667	1	0.109375
32.533333	1	0.093625
32.550000	1	0.079875
32.566667	1	0.067625
32.583333	1	0.057000
32.600000	1	0.047250
32.616667	1	0.038750
32.633333	1	0.030625
32.650000	1	0.023125
32.666667	1	0.016250
32.683333	1	0.011125
32.700000	1	0.006500
32.716667	1	0.002375
32.733333	1	-0.001250
32.750000	1	-0.004125
32.766667	1	-0.006500
32.783333	1	-0.008875
32.800000	1	-0.010750
32.816667	1	-0.013000
32.833333	1	-0.014375
32.850000	1	-0.014875
32.866667	1	-0.016000
32.883333	1	-0.017125
32.900000	1	-0.017625
32.916667	1	-0.018000
32.933333	1	-0.017875
32.950000	1	-0.017875
32.966667	1	-0.018500
32.983333	1	-0.019000
33.000000	1	-0.018500
33.016667	1	-0.018000
33.033333	1	-0.017750
33.050000	1	-0.017625
33.066667	1	-0.017500
33.083333	1	-0.017000
33.100000	1	-0.016625
33.116667	1	-0.015500
33.133333	1	-0.014250
33.150000	1	-0.013125
33.166667	1	-0.012125
33.183333	1	-0.011000
33.200000	1	-0.009500
33.216667	1	-0.008000
33.233333	1	-0.006750
33.250000	1	-0.005250
33.266667	1	-0.004125
33.283333	1	-0.003000
33.300000	1	-0.001125
33.316667	1	0.000625
33.333333	1	0.002000
33.350000	1	0.003125
33.366667	1	0.004500
33.383333	1	0.006125
33.400000	1	0.007750
33.416667	1	0.009375
33.433333	1	0.011625
33.450000	1	0.012500
33.466667	1	0.013875
33.483333	1	0.015500
33.500000	1	0.017125
33.516667	1	0.019375
33.533333	1	0.021000
33.550000	1	0.022750
33.566667	1	0.024625
33.583333	1	0.026375
33.600000	1	0.028000
33.616667	1	0.029625
33.633333	1	0.031375
33.650000	1	0.033625
33.666667	1	0.035750
33.683333	1	0.037750
33.700000	1	0.040000
33.716667	1	0.042000
33.733333	1	0.044625
33.750000	1	0.047500
33.766667	1	0.051125
33.783333	1	0.054500
33.800000	1	0.057125
33.816667	1	0.059250
33.833333	1	0.062500
33.850000	1	0.064500
33.866667	1	0.067125
33.883333	1	0.070375
33.900000	1	0.073125
33.916667	1	0.075500
33.933333	1	0.078125
33.950000	1	0.080250
33.966667	1	0.082875
33.983333	1	0.085125
34.000000	1	0.087000
34.016667	1	0.088875
34.033333	1	0.090500
34.050000	1	0.091375
34.066667	1	0.092750
34.083333	1	0.094625
34.100000	1	0.095875
34.116667	1	0.097125
34.133333	1	0.097625
34.150000	1	0.098500
34.166667	1	0.099250
34.183333	1	0.100250
34.200000	1	0.100625
34.216667	1	0.100500
34.233333	1	0.100750
34.250000	1	0.100750
34.266667	1	0.100125
34.283333	1	0.100125
34.300000	1	0.100125
34.316667	1	0.100500
34.333333	1	0.100875
34.350000	1	0.101000
34.366667	1	0.100875
34.383333	1	0.100250
34.400000	1	0.100375
34.416667	1	0.100125
34.433333	1	0.100500
34.450000	1	0.100750
34.466667	1	0.101625
34.483333	1	0.101750
34.500000	1	0.101625
34.516667	1	0.102000
34.533333	1	0.103000
34.550000	1	0.103375
34.566667	1	0.104125
34.583333	1	0.105500
34.600000	1	0.106750
34.616667	1	0.107625
34.633333	1	0.109000
34.650000	1	0.110250
34.666667	1	0.111125
34.683333	1	0.112125
34.700000	1	0.113125
34.716667	1	0.113750
34.733333	1	0.115000
34.750000	1	0.115875
34.766667	1	0.116875
34.783333	1	0.117250
34.800000	1	0.117750
34.816667	1	0.117625
34.833333	1	0.117875
34.850000	1	0.118000
34.866667	1	0.117250
34.883333	1	0.116500
34.900000	1	0.116375
34.916667	1	0.115875
34.933333	1	0.115375
34.950000	1	0.114875
34.966667	1	0.113375
34.983333	1	0.112250
35.000000	1	0.110375
35.016667	1	0.108375
35.033333	1	0.107000
35.050000	1	0.104875
35.066667	1	0.102750
35.083333	1	0.100625
35.100000	1	0.098125
35.116667	1	0.095500
35.133333	1	0.093750
35.150000	1	0.091750
35.166667	1	0.090125
35.183333	1	0.088000
35.200000	1	0.086250
35.216667	1	0.085500
35.233333	1	0.084000
35.250000	1	0.082750
35.266667	1	0.082000
35.283333	1	0.080625
35.300000	1	0.080375
35.316667	1	0.079875
35.333333	1	0.079875
35.350000	1	0.079000
35.366667	1	0.079125
35.383333	1	0.079625
35.400000	1	0.080125
35.416667	1	0.081375
35.433333	1	0.082375
35.450000	1	0.083250
35.466667	1	0.084625
35.483333	1	0.086125
35.500000	1	0.087875
35.516667	1	0.089875
35.533333	1	0.092125
35.550000	1	0.094375
35.566667	1	0.096500
35.583333	1	0.098750
35.600000	1	0.100875
35.616667	1	0.102500
35.633333	1	0.105375
35.650000	1	0.107125
35.666667	1	0.109250
35.683333	1	0.111750
35.700000	1	0.113875
35.716667	1	0.116125
35.733333	1	0.117875
35.750000	1	0.120125
35.766667	1	0.121875
35.783333	1	0.123375
35.800000	1	0.124375
35.816667	1	0.126000
35.833333	1	0.127875
35.850000	1	0.128500
35.866667	1	0.129750
35.883333	1	0.130625
35.900000	1	0.131500
35.916667	1	0.132125
35.933333	1	0.133125
35.950000	1	0.134375
35.966667	1	0.135000
35.983333	1	0.135375
36.000000	1	0.135750
36.016667	1	0.135750
36.033333	1	0.136250
36.050000	1	0.136000
36.066667	1	0.136000
36.083333	1	0.135250
36.100000	1	0.135375
36.116667	1	0.135250
36.133333	1	0.135500
36.150000	1	0.135500
36.166667	1	0.134875
36.183333	1	0.134125
36.200000	1	0.133375
36.216667	1	0.133125
36.233333	1	0.132625
36.250000	1	0.131750
36.266667	1	0.131125
36.283333	1	0.130750
36.300000	1	0.129875
36.316667	1	0.129500
36.333333	1	0.128875
36.350000	1	0.128625
36.366667	1	0.127750
36.383333	1	0.127375
36.400000	1	0.127125
36.416667	1	0.126250
36.433333	1	0.125750
36.450000	1	0.124750
36.466667	1	0.123625
36.483333	1	0.123000
36.500000	1	0.121625
36.516667	1	0.120750
36.533333	1	0.119250
36.550000	1	0.118750
36.566667	1	0.117875
36.583333	1	0.117000
36.600000	1	0.116125
36.616667	1	0.114875
36.633333	1	0.113375
36.650000	1	0.111250
36.666667	1	0.110125
36.683333	1	0.107625
36.700000	1	0.106375
36.716667	1	0.104375
36.733333	1	0.102625
36.750000	1	0.100750
36.766667	1	0.099750
36.783333	1	0.097500
36.800000	1	0.095250
36.816667	1	0.093125
36.833333	1	0.091250
36.850000	1	0.089500
36.866667	1	0.087375
36.883333	1	0.085875
36.900000	1	0.084125
36.916667	1	0.083375
36.933333	1	0.081625
36.950000	1	0.080250
36.966667	1	0.079125
36.983333	1	0.078375
37.000000	1	0.076250
37.016667	1	0.075125
37.033333	1	0.073750
37.050000	1	0.072625
37.066667	1	0.072250
37.083333	1	0.072500
37.100000	1	0.071875
37.116667	1	0.071750
37.133333	1	0.071750
37.150000	1	0.072125
37.166667	1	0.072125
37.183333	1	0.072500
37.200000	1	0.073375
37.216667	1	0.074000
37.233333	1	0.074500
37.250000	1	0.075125
37.266667	1	0.075875
37.283333	1	0.077250
37.300000	1	0.078750
37.316667	1	0.079625
37.333333	1	0.081500
37.350000	1	0.082000
37.366667	1	0.083000
37.383333	1	0.083500
37.400000	1	0.084750
37.416667	1	0.085500
37.433333	1	0.086000
37.450000	1	0.086625
37.466667	1	0.087375
37.483333	1	0.087875
37.500000	1	0.088250
37.516667	1	0.088750
37.533333	1	0.089000
37.550000	1	0.089250
37.566667	1	0.089250
37.583333	1	0.089875
37.600000	1	0.090250
37.616667	1	0.090625
37.633333	1	0.090375
37.650000	1	0.090625
37.666667	1	0.090250
37.683333	1	0.090625
37.700000	1	0.090375
37.716667	1	0.090625
37.733333	1	0.090500
37.750000	1	0.090500
37.766667	1	0.090625
37.783333	1	0.089875
37.800000	1	0.089500
37.816667	1	0.090125
37.833333	1	0.089750
37.850000	1	0.089250
37.866667	1	0.089125
37.883333	1	0.089375
37.900000	1	0.088875
37.916667	1	0.088375
37.933333	1	0.088250
37.950000	1	0.087750
37.966667	1	0.087000
37.983333	1	0.086750
38.000000	1	0.086250
38.016667	1	0.085875
38.033333	1	0.085875
38.050000	1	0.085375
38.066667	1	0.085375
38.083333	1	0.085000
38.100000	1	0.085500
38.116667	1	0.086250
38.133333	1	0.086625
38.150000	1	0.086250
38.166667	1	0.086375
38.183333	1	0.086750
38.200000	1	0.087375
38.216667	1	0.087750
38.233333	1	0.088250
38.250000	1	0.088750
38.266667	1	0.089500
38.283333	1	0.090750
38.300000	1	0.091875
38.316667	1	0.092625
38.333333	1	0.092875
38.350000	1	0.094000
38.366667	1	0.096000
38.383333	1	0.097375
38.400000	1	0.098500
38.416667	1	0.099625
38.433333	1	0.100875
38.450000	1	0.102000
38.466667	1	0.102750
38.483333	1	0.104750
38.500000	1	0.105750
38.516667	1	0.108000
38.533333	1	0.109375
38.550000	1	0.111000
38.566667	1	0.112625
38.583333	1	0.114375
38.600000	1	0.115375
38.616667	1	0.116500
38.633333	1	0.118000
38.650000	1	0.119375
38.666667	1	0.120875
38.683333	1	0.122125
38.700000	1	0.124000
38.716667	1	0.125875
38.733333	1	0.127625
38.750000	1	0.128125
38.766667	1	0.129375
38.783333	1	0.129875
38.800000	1	0.130750
38.816667	1	0.131000
38.833333	1	0.131875
38.850000	1	0.132000
38.866667	1	0.132875
38.883333	1	0.133000
38.900000	1	0.132000
38.916667	1	0.131875
38.933333	1	0.131500
38.950000	1	0.129875
38.966667	1	0.128250
38.983333	1	0.126500
39.000000	1	0.125250
39.016667	1	0.123250
39.033333	1	0.121500
39.050000	1	0.119625
39.066667	1	0.117500
39.083333	1	0.114750
39.100000	1	0.112250
39.116667	1	0.108875
39.133333	1	0.104750
39.150000	1	0.101625
39.166667	1	0.098500
39.183333	1	0.095625
39.200000	1	0.092500
39.216667	1	0.088750
39.233333	1	0.084500
39.250000	1	0.081125
39.266667	1	0.077500
39.283333	1	0.074250
39.300000	1	0.070875
39.316667	1	0.067625
39.333333	1	0.064625
39.350000	1	0.061500
39.366667	1	0.059125
39.383333	1	0.055750
39.400000	1	0.051875
39.416667	1	0.048375
39.433333	1	0.046000
39.450000	1	0.042625
39.466667	1	0.040375
39.483333	1	0.037625
39.500000	1	0.034250
39.516667	1	0.031875
39.533333	1	0.030000
39.550000	1	0.028125
39.566667	1	0.025875
39.583333	1	0.023375
39.600000	1	0.021250
39.616667	1	0.017875
39.633333	1	0.015750
39.650000	1	0.014125
39.666667	1	0.012625
39.683333	1	0.011750
39.700000	1	0.009000
39.716667	1	0.007375
39.733333	1	0.005625
39.750000	1	0.004000
39.766667	1	0.002125
39.783333	1	0.000125
39.800000	1	-0.001375
39.816667	1	-0.002875
39.833333	1	-0.005000
39.850000	1	-0.006250
39.866667	1	-0.007875
39.883333	1	-0.008875
39.900000	1	-0.009875
39.916667	1	-0.010875
39.933333	1	-0.012375
39.950000	1	-0.013000
39.966667	1	-0.013625
39.983333	1	-0.015375
40.000000	1	-0.016625
