URL	chrom://7040-86g6c92/XVault/Ultimate_3000/20/20240517_CMO_FP23_FP25_MarkusDeplate.seq/640.smp/RI_1.channel/RI_1.chm
Channel	RI_1

Injection Information:
Data Vault	XVault
Sequence	20240517_CMO_FP23_FP25_MarkusDeplate
Name	FP26_22.2_s5
Number	118
Position	BD6
Comment	
Processing Method	
Instrument Method	run_25B_method
Type	Unknown
Status	Finished
Inject Time	31.05.2024 03:14:40 +02:00
Volume (µl)	20.0000
Dilution Factor	1.0000
Weight	1.0000

Chromatogram Data Information:
Time Min. (min)	0.000000
Time Max. (min)	40.000000
Data Points	2401
Detector	RI
Generating Data System	Chromeleon 7.3.2.11814
Exporting Data System	Chromeleon 7.3.2.0
Operator	Instrument Controller
Signal Quantity	Refractive 
Signal Unit	µRIU
Signal Min.	-0.733125
Signal Max.	57.351625
Channel	RI_1
Driver Name	RID520Driver.dll
Channel Type	Evaluation
Min. Step (s)	1
Max. Step (s)	1
Average Step (s)	1

Signal Parameter Information:
Signal Info	

Chromatogram Data:
Time (min)	Step (s)	Value (µRIU)
0.000000	n.a.	0.034125
0.016667	1	0.034625
0.033333	1	0.034625
0.050000	1	0.034375
0.066667	1	0.034125
0.083333	1	0.033875
0.100000	1	0.033875
0.116667	1	0.033125
0.133333	1	0.032375
0.150000	1	0.032500
0.166667	1	0.031625
0.183333	1	0.031250
0.200000	1	0.030375
0.216667	1	0.030000
0.233333	1	0.030000
0.250000	1	0.030000
0.266667	1	0.028625
0.283333	1	0.027875
0.300000	1	0.027375
0.316667	1	0.026625
0.333333	1	0.026000
0.350000	1	0.024250
0.366667	1	0.022250
0.383333	1	0.020500
0.400000	1	0.018875
0.416667	1	0.018000
0.433333	1	0.017750
0.450000	1	0.018875
0.466667	1	0.020625
0.483333	1	0.021625
0.500000	1	0.022375
0.516667	1	0.022500
0.533333	1	0.022000
0.550000	1	0.022000
0.566667	1	0.020000
0.583333	1	0.017375
0.600000	1	0.014500
0.616667	1	0.012000
0.633333	1	0.009625
0.650000	1	0.007625
0.666667	1	0.006375
0.683333	1	0.005875
0.700000	1	0.005375
0.716667	1	0.004875
0.733333	1	0.004250
0.750000	1	0.003750
0.766667	1	0.003875
0.783333	1	0.003750
0.800000	1	0.003250
0.816667	1	0.002375
0.833333	1	0.001750
0.850000	1	0.002000
0.866667	1	0.001500
0.883333	1	0.001875
0.900000	1	0.002000
0.916667	1	0.002000
0.933333	1	0.001750
0.950000	1	0.002125
0.966667	1	0.001750
0.983333	1	0.002125
1.000000	1	0.002625
1.016667	1	0.002375
1.033333	1	0.002875
1.050000	1	0.003750
1.066667	1	0.004125
1.083333	1	0.005375
1.100000	1	0.006250
1.116667	1	0.007250
1.133333	1	0.007625
1.150000	1	0.008500
1.166667	1	0.009000
1.183333	1	0.009625
1.200000	1	0.010250
1.216667	1	0.011625
1.233333	1	0.012000
1.250000	1	0.012875
1.266667	1	0.013875
1.283333	1	0.014375
1.300000	1	0.015000
1.316667	1	0.015125
1.333333	1	0.015750
1.350000	1	0.015750
1.366667	1	0.015250
1.383333	1	0.015500
1.400000	1	0.016000
1.416667	1	0.015875
1.433333	1	0.016250
1.450000	1	0.016000
1.466667	1	0.015625
1.483333	1	0.015625
1.500000	1	0.015750
1.516667	1	0.015500
1.533333	1	0.015500
1.550000	1	0.014750
1.566667	1	0.015500
1.583333	1	0.015250
1.600000	1	0.015500
1.616667	1	0.015750
1.633333	1	0.015250
1.650000	1	0.014750
1.666667	1	0.014625
1.683333	1	0.015375
1.700000	1	0.015750
1.716667	1	0.015875
1.733333	1	0.016125
1.750000	1	0.016625
1.766667	1	0.017500
1.783333	1	0.018375
1.800000	1	0.018375
1.816667	1	0.019250
1.833333	1	0.020375
1.850000	1	0.021125
1.866667	1	0.021125
1.883333	1	0.021750
1.900000	1	0.023000
1.916667	1	0.023625
1.933333	1	0.024625
1.950000	1	0.025375
1.966667	1	0.025875
1.983333	1	0.026000
2.000000	1	0.026250
2.016667	1	0.025875
2.033333	1	0.025625
2.050000	1	0.025500
2.066667	1	0.024625
2.083333	1	0.024125
2.100000	1	0.023500
2.116667	1	0.022125
2.133333	1	0.021125
2.150000	1	0.020500
2.166667	1	0.018750
2.183333	1	0.016875
2.200000	1	0.016125
2.216667	1	0.014875
2.233333	1	0.013625
2.250000	1	0.012625
2.266667	1	0.011250
2.283333	1	0.009000
2.300000	1	0.007000
2.316667	1	0.005125
2.333333	1	0.003500
2.350000	1	0.002375
2.366667	1	0.000500
2.383333	1	-0.000500
2.400000	1	-0.001500
2.416667	1	-0.002125
2.433333	1	-0.003250
2.450000	1	-0.004250
2.466667	1	-0.005250
2.483333	1	-0.005750
2.500000	1	-0.006000
2.516667	1	-0.005875
2.533333	1	-0.006375
2.550000	1	-0.006625
2.566667	1	-0.007000
2.583333	1	-0.007000
2.600000	1	-0.006500
2.616667	1	-0.006125
2.633333	1	-0.005375
2.650000	1	-0.004500
2.666667	1	-0.003750
2.683333	1	-0.003125
2.700000	1	-0.002250
2.716667	1	-0.001625
2.733333	1	-0.001125
2.750000	1	-0.001125
2.766667	1	0.000000
2.783333	1	0.001125
2.800000	1	0.001875
2.816667	1	0.002875
2.833333	1	0.003375
2.850000	1	0.003375
2.866667	1	0.004500
2.883333	1	0.005250
2.900000	1	0.005375
2.916667	1	0.005375
2.933333	1	0.005125
2.950000	1	0.004875
2.966667	1	0.005000
2.983333	1	0.005000
3.000000	1	0.005625
3.016667	1	0.005750
3.033333	1	0.006125
3.050000	1	0.006250
3.066667	1	0.006625
3.083333	1	0.006625
3.100000	1	0.006500
3.116667	1	0.006000
3.133333	1	0.006250
3.150000	1	0.006625
3.166667	1	0.006125
3.183333	1	0.006875
3.200000	1	0.008125
3.216667	1	0.008875
3.233333	1	0.009625
3.250000	1	0.010375
3.266667	1	0.010875
3.283333	1	0.011625
3.300000	1	0.012750
3.316667	1	0.014375
3.333333	1	0.016000
3.350000	1	0.017625
3.366667	1	0.018875
3.383333	1	0.019625
3.400000	1	0.021750
3.416667	1	0.022875
3.433333	1	0.024750
3.450000	1	0.026375
3.466667	1	0.028000
3.483333	1	0.029000
3.500000	1	0.030750
3.516667	1	0.032500
3.533333	1	0.034750
3.550000	1	0.036250
3.566667	1	0.037625
3.583333	1	0.038375
3.600000	1	0.040500
3.616667	1	0.041625
3.633333	1	0.043250
3.650000	1	0.044875
3.666667	1	0.045625
3.683333	1	0.047125
3.700000	1	0.048625
3.716667	1	0.049375
3.733333	1	0.049750
3.750000	1	0.050750
3.766667	1	0.051500
3.783333	1	0.052375
3.800000	1	0.053125
3.816667	1	0.054500
3.833333	1	0.055000
3.850000	1	0.055500
3.866667	1	0.055750
3.883333	1	0.056125
3.900000	1	0.056250
3.916667	1	0.056625
3.933333	1	0.056125
3.950000	1	0.055625
3.966667	1	0.055500
3.983333	1	0.056250
4.000000	1	0.056875
4.016667	1	0.056625
4.033333	1	0.056375
4.050000	1	0.056375
4.066667	1	0.056250
4.083333	1	0.056625
4.100000	1	0.057000
4.116667	1	0.058000
4.133333	1	0.058875
4.150000	1	0.058750
4.166667	1	0.059250
4.183333	1	0.060250
4.200000	1	0.060375
4.216667	1	0.060750
4.233333	1	0.061625
4.250000	1	0.062500
4.266667	1	0.063000
4.283333	1	0.063625
4.300000	1	0.064375
4.316667	1	0.065250
4.333333	1	0.066125
4.350000	1	0.067125
4.366667	1	0.068125
4.383333	1	0.068375
4.400000	1	0.069625
4.416667	1	0.070750
4.433333	1	0.071500
4.450000	1	0.072500
4.466667	1	0.073625
4.483333	1	0.075000
4.500000	1	0.075750
4.516667	1	0.077125
4.533333	1	0.078000
4.550000	1	0.079250
4.566667	1	0.080250
4.583333	1	0.081500
4.600000	1	0.082625
4.616667	1	0.083500
4.633333	1	0.085000
4.650000	1	0.086375
4.666667	1	0.087750
4.683333	1	0.088375
4.700000	1	0.089375
4.716667	1	0.089750
4.733333	1	0.091125
4.750000	1	0.092500
4.766667	1	0.094000
4.783333	1	0.095250
4.800000	1	0.096500
4.816667	1	0.098000
4.833333	1	0.099125
4.850000	1	0.100125
4.866667	1	0.102250
4.883333	1	0.103250
4.900000	1	0.105500
4.916667	1	0.106500
4.933333	1	0.108000
4.950000	1	0.109625
4.966667	1	0.112250
4.983333	1	0.114125
5.000000	1	0.116375
5.016667	1	0.118500
5.033333	1	0.121000
5.050000	1	0.123875
5.066667	1	0.125750
5.083333	1	0.127875
5.100000	1	0.130875
5.116667	1	0.133625
5.133333	1	0.136750
5.150000	1	0.140375
5.166667	1	0.144000
5.183333	1	0.147750
5.200000	1	0.150875
5.216667	1	0.155500
5.233333	1	0.159000
5.250000	1	0.162500
5.266667	1	0.166125
5.283333	1	0.170625
5.300000	1	0.175125
5.316667	1	0.179250
5.333333	1	0.183625
5.350000	1	0.187750
5.366667	1	0.192375
5.383333	1	0.196875
5.400000	1	0.201250
5.416667	1	0.206500
5.433333	1	0.210875
5.450000	1	0.215000
5.466667	1	0.218875
5.483333	1	0.223500
5.500000	1	0.227750
5.516667	1	0.231750
5.533333	1	0.235750
5.550000	1	0.239750
5.566667	1	0.243625
5.583333	1	0.247250
5.600000	1	0.251125
5.616667	1	0.253750
5.633333	1	0.257250
5.650000	1	0.259750
5.666667	1	0.262375
5.683333	1	0.264875
5.700000	1	0.267125
5.716667	1	0.268875
5.733333	1	0.270375
5.750000	1	0.271750
5.766667	1	0.272375
5.783333	1	0.273125
5.800000	1	0.273875
5.816667	1	0.274000
5.833333	1	0.273625
5.850000	1	0.272500
5.866667	1	0.271625
5.883333	1	0.270875
5.900000	1	0.269500
5.916667	1	0.268000
5.933333	1	0.266125
5.950000	1	0.263875
5.966667	1	0.261500
5.983333	1	0.259625
6.000000	1	0.256625
6.016667	1	0.254250
6.033333	1	0.251375
6.050000	1	0.248750
6.066667	1	0.245250
6.083333	1	0.242750
6.100000	1	0.239250
6.116667	1	0.236375
6.133333	1	0.233250
6.150000	1	0.230250
6.166667	1	0.227000
6.183333	1	0.224000
6.200000	1	0.220875
6.216667	1	0.217375
6.233333	1	0.214125
6.250000	1	0.210750
6.266667	1	0.207750
6.283333	1	0.204500
6.300000	1	0.200875
6.316667	1	0.197500
6.333333	1	0.194750
6.350000	1	0.191375
6.366667	1	0.188375
6.383333	1	0.185500
6.400000	1	0.182875
6.416667	1	0.179125
6.433333	1	0.176250
6.450000	1	0.173625
6.466667	1	0.170750
6.483333	1	0.167500
6.500000	1	0.164250
6.516667	1	0.161375
6.533333	1	0.158375
6.550000	1	0.155750
6.566667	1	0.153250
6.583333	1	0.150625
6.600000	1	0.147625
6.616667	1	0.145125
6.633333	1	0.143000
6.650000	1	0.140750
6.666667	1	0.138625
6.683333	1	0.136750
6.700000	1	0.135000
6.716667	1	0.133500
6.733333	1	0.131500
6.750000	1	0.129875
6.766667	1	0.129000
6.783333	1	0.127125
6.800000	1	0.126250
6.816667	1	0.125000
6.833333	1	0.123750
6.850000	1	0.122625
6.866667	1	0.122125
6.883333	1	0.121000
6.900000	1	0.121250
6.916667	1	0.121375
6.933333	1	0.121625
6.950000	1	0.122250
6.966667	1	0.122875
6.983333	1	0.124125
7.000000	1	0.124750
7.016667	1	0.125125
7.033333	1	0.126875
7.050000	1	0.128500
7.066667	1	0.130250
7.083333	1	0.131750
7.100000	1	0.133625
7.116667	1	0.135500
7.133333	1	0.137625
7.150000	1	0.140875
7.166667	1	0.142875
7.183333	1	0.145625
7.200000	1	0.149500
7.216667	1	0.152625
7.233333	1	0.155500
7.250000	1	0.157625
7.266667	1	0.160250
7.283333	1	0.163500
7.300000	1	0.166000
7.316667	1	0.168750
7.333333	1	0.172000
7.350000	1	0.174750
7.366667	1	0.177750
7.383333	1	0.181250
7.400000	1	0.183375
7.416667	1	0.185875
7.433333	1	0.187750
7.450000	1	0.190875
7.466667	1	0.192625
7.483333	1	0.194875
7.500000	1	0.196500
7.516667	1	0.197875
7.533333	1	0.199250
7.550000	1	0.200875
7.566667	1	0.202250
7.583333	1	0.203375
7.600000	1	0.203750
7.616667	1	0.204375
7.633333	1	0.203500
7.650000	1	0.203875
7.666667	1	0.202875
7.683333	1	0.201875
7.700000	1	0.200875
7.716667	1	0.200375
7.733333	1	0.199000
7.750000	1	0.197125
7.766667	1	0.195000
7.783333	1	0.193375
7.800000	1	0.190875
7.816667	1	0.187625
7.833333	1	0.184750
7.850000	1	0.181375
7.866667	1	0.177500
7.883333	1	0.173750
7.900000	1	0.169875
7.916667	1	0.165875
7.933333	1	0.161875
7.950000	1	0.157375
7.966667	1	0.153125
7.983333	1	0.148375
8.000000	1	0.143125
8.016667	1	0.138375
8.033333	1	0.132875
8.050000	1	0.127625
8.066667	1	0.122500
8.083333	1	0.118000
8.100000	1	0.113000
8.116667	1	0.108250
8.133333	1	0.103250
8.150000	1	0.098125
8.166667	1	0.093000
8.183333	1	0.087750
8.200000	1	0.083250
8.216667	1	0.078500
8.233333	1	0.073625
8.250000	1	0.068500
8.266667	1	0.063750
8.283333	1	0.059250
8.300000	1	0.055000
8.316667	1	0.051000
8.333333	1	0.046875
8.350000	1	0.042750
8.366667	1	0.040000
8.383333	1	0.037250
8.400000	1	0.034625
8.416667	1	0.031750
8.433333	1	0.029000
8.450000	1	0.026500
8.466667	1	0.024500
8.483333	1	0.022500
8.500000	1	0.021500
8.516667	1	0.020000
8.533333	1	0.018875
8.550000	1	0.017875
8.566667	1	0.017500
8.583333	1	0.017000
8.600000	1	0.016875
8.616667	1	0.016125
8.633333	1	0.016125
8.650000	1	0.017125
8.666667	1	0.017750
8.683333	1	0.018750
8.700000	1	0.020375
8.716667	1	0.020750
8.733333	1	0.021625
8.750000	1	0.023750
8.766667	1	0.024750
8.783333	1	0.026375
8.800000	1	0.026875
8.816667	1	0.029000
8.833333	1	0.031375
8.850000	1	0.033500
8.866667	1	0.035625
8.883333	1	0.036375
8.900000	1	0.038750
8.916667	1	0.041625
8.933333	1	0.043750
8.950000	1	0.046125
8.966667	1	0.049250
8.983333	1	0.051250
9.000000	1	0.053125
9.016667	1	0.055625
9.033333	1	0.057500
9.050000	1	0.059250
9.066667	1	0.061250
9.083333	1	0.063500
9.100000	1	0.065625
9.116667	1	0.067875
9.133333	1	0.069750
9.150000	1	0.071250
9.166667	1	0.074125
9.183333	1	0.075750
9.200000	1	0.076750
9.216667	1	0.077750
9.233333	1	0.079375
9.250000	1	0.080625
9.266667	1	0.082375
9.283333	1	0.082625
9.300000	1	0.083625
9.316667	1	0.084500
9.333333	1	0.084875
9.350000	1	0.085625
9.366667	1	0.086125
9.383333	1	0.086375
9.400000	1	0.086875
9.416667	1	0.087000
9.433333	1	0.087625
9.450000	1	0.088000
9.466667	1	0.088000
9.483333	1	0.087625
9.500000	1	0.087750
9.516667	1	0.087875
9.533333	1	0.088375
9.550000	1	0.088500
9.566667	1	0.088625
9.583333	1	0.087750
9.600000	1	0.087750
9.616667	1	0.088000
9.633333	1	0.088375
9.650000	1	0.088125
9.666667	1	0.088125
9.683333	1	0.088125
9.700000	1	0.088250
9.716667	1	0.088000
9.733333	1	0.087875
9.750000	1	0.088500
9.766667	1	0.088875
9.783333	1	0.088750
9.800000	1	0.089125
9.816667	1	0.089250
9.833333	1	0.089750
9.850000	1	0.089375
9.866667	1	0.090500
9.883333	1	0.091125
9.900000	1	0.091500
9.916667	1	0.091625
9.933333	1	0.092000
9.950000	1	0.092250
9.966667	1	0.092250
9.983333	1	0.091875
10.000000	1	0.092250
10.016667	1	0.092125
10.033333	1	0.092000
10.050000	1	0.092125
10.066667	1	0.093000
10.083333	1	0.094250
10.100000	1	0.096750
10.116667	1	0.099750
10.133333	1	0.104250
10.150000	1	0.109875
10.166667	1	0.117000
10.183333	1	0.125500
10.200000	1	0.135500
10.216667	1	0.147375
10.233333	1	0.161625
10.250000	1	0.178750
10.266667	1	0.197875
10.283333	1	0.220000
10.300000	1	0.245125
10.316667	1	0.273375
10.333333	1	0.305000
10.350000	1	0.338750
10.366667	1	0.374500
10.383333	1	0.410875
10.400000	1	0.445000
10.416667	1	0.471000
10.433333	1	0.481375
10.450000	1	0.469625
10.466667	1	0.431125
10.483333	1	0.372375
10.500000	1	0.314625
10.516667	1	0.300000
10.533333	1	0.391375
10.550000	1	0.668250
10.566667	1	1.219750
10.583333	1	2.130625
10.600000	1	3.478625
10.616667	1	5.322250
10.633333	1	7.700750
10.650000	1	10.631875
10.666667	1	14.120500
10.683333	1	18.150375
10.700000	1	22.685000
10.716667	1	27.656875
10.733333	1	32.959250
10.750000	1	38.429250
10.766667	1	43.828000
10.783333	1	48.834500
10.800000	1	53.047250
10.816667	1	56.018000
10.833333	1	57.351625
10.850000	1	56.821250
10.866667	1	54.452875
10.883333	1	50.539125
10.900000	1	45.557625
10.916667	1	40.047125
10.933333	1	34.480750
10.950000	1	29.210750
10.966667	1	24.448875
10.983333	1	20.293875
11.000000	1	16.766375
11.016667	1	13.836250
11.033333	1	11.447750
11.050000	1	9.526625
11.066667	1	7.997500
11.083333	1	6.788375
11.100000	1	5.833625
11.116667	1	5.079250
11.133333	1	4.479125
11.150000	1	3.997750
11.166667	1	3.607750
11.183333	1	3.287250
11.200000	1	3.022000
11.216667	1	2.797250
11.233333	1	2.605500
11.250000	1	2.438250
11.266667	1	2.292625
11.283333	1	2.163625
11.300000	1	2.049625
11.316667	1	1.948250
11.333333	1	1.858250
11.350000	1	1.778250
11.366667	1	1.708125
11.383333	1	1.646250
11.400000	1	1.591375
11.416667	1	1.543750
11.433333	1	1.502500
11.450000	1	1.466375
11.466667	1	1.436500
11.483333	1	1.411625
11.500000	1	1.391500
11.516667	1	1.376125
11.533333	1	1.364000
11.550000	1	1.355375
11.566667	1	1.350000
11.583333	1	1.347250
11.600000	1	1.345500
11.616667	1	1.344125
11.633333	1	1.342000
11.650000	1	1.339125
11.666667	1	1.334750
11.683333	1	1.329375
11.700000	1	1.323375
11.716667	1	1.315625
11.733333	1	1.308125
11.750000	1	1.300250
11.766667	1	1.291875
11.783333	1	1.284375
11.800000	1	1.277375
11.816667	1	1.271750
11.833333	1	1.267625
11.850000	1	1.264125
11.866667	1	1.261750
11.883333	1	1.259250
11.900000	1	1.258125
11.916667	1	1.257375
11.933333	1	1.257625
11.950000	1	1.257625
11.966667	1	1.258375
11.983333	1	1.259000
12.000000	1	1.259750
12.016667	1	1.261000
12.033333	1	1.262750
12.050000	1	1.264375
12.066667	1	1.266625
12.083333	1	1.269000
12.100000	1	1.271750
12.116667	1	1.275375
12.133333	1	1.279375
12.150000	1	1.284500
12.166667	1	1.290000
12.183333	1	1.296750
12.200000	1	1.305125
12.216667	1	1.314375
12.233333	1	1.326125
12.250000	1	1.340250
12.266667	1	1.356250
12.283333	1	1.375375
12.300000	1	1.396125
12.316667	1	1.420125
12.333333	1	1.447875
12.350000	1	1.481250
12.366667	1	1.520375
12.383333	1	1.570375
12.400000	1	1.634625
12.416667	1	1.718250
12.433333	1	1.827500
12.450000	1	1.970125
12.466667	1	2.154250
12.483333	1	2.386625
12.500000	1	2.672250
12.516667	1	3.015000
12.533333	1	3.413125
12.550000	1	3.861125
12.566667	1	4.350500
12.583333	1	4.867625
12.600000	1	5.396500
12.616667	1	5.918375
12.633333	1	6.417000
12.650000	1	6.874375
12.666667	1	7.275500
12.683333	1	7.608125
12.700000	1	7.863250
12.716667	1	8.034375
12.733333	1	8.121500
12.750000	1	8.125000
12.766667	1	8.052750
12.783333	1	7.913625
12.800000	1	7.718875
12.816667	1	7.480625
12.833333	1	7.211000
12.850000	1	6.920875
12.866667	1	6.618500
12.883333	1	6.311375
12.900000	1	6.003750
12.916667	1	5.700875
12.933333	1	5.405500
12.950000	1	5.121500
12.966667	1	4.851875
12.983333	1	4.599250
13.000000	1	4.365750
13.016667	1	4.152750
13.033333	1	3.960125
13.050000	1	3.786375
13.066667	1	3.629875
13.083333	1	3.489625
13.100000	1	3.364000
13.116667	1	3.250625
13.133333	1	3.148500
13.150000	1	3.055625
13.166667	1	2.971125
13.183333	1	2.892875
13.200000	1	2.821000
13.216667	1	2.753625
13.233333	1	2.691500
13.250000	1	2.632375
13.266667	1	2.576875
13.283333	1	2.525000
13.300000	1	2.474875
13.316667	1	2.427250
13.333333	1	2.382875
13.350000	1	2.341250
13.366667	1	2.302000
13.383333	1	2.265125
13.400000	1	2.231250
13.416667	1	2.201500
13.433333	1	2.174875
13.450000	1	2.152000
13.466667	1	2.133500
13.483333	1	2.118375
13.500000	1	2.107375
13.516667	1	2.101000
13.533333	1	2.096625
13.550000	1	2.095000
13.566667	1	2.094250
13.583333	1	2.093875
13.600000	1	2.091250
13.616667	1	2.086625
13.633333	1	2.077375
13.650000	1	2.064000
13.666667	1	2.045875
13.683333	1	2.022875
13.700000	1	1.995500
13.716667	1	1.964875
13.733333	1	1.932625
13.750000	1	1.898875
13.766667	1	1.865500
13.783333	1	1.832750
13.800000	1	1.800375
13.816667	1	1.769625
13.833333	1	1.740125
13.850000	1	1.712500
13.866667	1	1.687250
13.883333	1	1.663500
13.900000	1	1.642000
13.916667	1	1.622000
13.933333	1	1.603750
13.950000	1	1.585750
13.966667	1	1.569875
13.983333	1	1.554875
14.000000	1	1.541125
14.016667	1	1.528000
14.033333	1	1.515625
14.050000	1	1.504375
14.066667	1	1.493000
14.083333	1	1.481500
14.100000	1	1.471500
14.116667	1	1.461750
14.133333	1	1.451875
14.150000	1	1.443375
14.166667	1	1.435250
14.183333	1	1.428250
14.200000	1	1.421500
14.216667	1	1.416375
14.233333	1	1.413000
14.250000	1	1.411250
14.266667	1	1.411750
14.283333	1	1.414500
14.300000	1	1.419250
14.316667	1	1.427250
14.333333	1	1.436875
14.350000	1	1.450000
14.366667	1	1.465500
14.383333	1	1.483875
14.400000	1	1.505375
14.416667	1	1.532125
14.433333	1	1.567375
14.450000	1	1.614500
14.466667	1	1.680875
14.483333	1	1.777125
14.500000	1	1.919750
14.516667	1	2.131000
14.533333	1	2.439500
14.550000	1	2.883000
14.566667	1	3.506000
14.583333	1	4.360625
14.600000	1	5.506625
14.616667	1	7.003000
14.633333	1	8.909375
14.650000	1	11.272000
14.666667	1	14.120125
14.683333	1	17.455750
14.700000	1	21.240000
14.716667	1	25.399625
14.733333	1	29.823500
14.750000	1	34.365375
14.766667	1	38.846375
14.783333	1	43.070625
14.800000	1	46.847125
14.816667	1	49.997250
14.833333	1	52.373000
14.850000	1	53.865875
14.866667	1	54.421125
14.883333	1	54.041125
14.900000	1	52.783250
14.916667	1	50.751375
14.933333	1	48.082375
14.950000	1	44.934500
14.966667	1	41.469625
14.983333	1	37.840375
15.000000	1	34.178625
15.016667	1	30.596500
15.033333	1	27.178875
15.050000	1	23.987750
15.066667	1	21.060500
15.083333	1	18.416625
15.100000	1	16.059000
15.116667	1	13.978125
15.133333	1	12.156250
15.150000	1	10.572625
15.166667	1	9.203750
15.183333	1	8.026250
15.200000	1	7.017500
15.216667	1	6.155500
15.233333	1	5.423375
15.250000	1	4.805500
15.266667	1	4.287125
15.283333	1	3.856500
15.300000	1	3.502250
15.316667	1	3.214625
15.333333	1	2.985500
15.350000	1	2.805500
15.366667	1	2.668500
15.383333	1	2.565250
15.400000	1	2.490000
15.416667	1	2.435875
15.433333	1	2.398000
15.450000	1	2.370375
15.466667	1	2.347250
15.483333	1	2.326750
15.500000	1	2.304125
15.516667	1	2.278750
15.533333	1	2.248875
15.550000	1	2.214625
15.566667	1	2.177000
15.583333	1	2.136625
15.600000	1	2.094500
15.616667	1	2.052375
15.633333	1	2.010000
15.650000	1	1.969500
15.666667	1	1.931000
15.683333	1	1.895000
15.700000	1	1.862000
15.716667	1	1.830750
15.733333	1	1.802000
15.750000	1	1.774000
15.766667	1	1.746625
15.783333	1	1.720875
15.800000	1	1.694750
15.816667	1	1.669000
15.833333	1	1.643250
15.850000	1	1.617000
15.866667	1	1.592125
15.883333	1	1.568125
15.900000	1	1.545250
15.916667	1	1.523375
15.933333	1	1.503375
15.950000	1	1.485125
15.966667	1	1.469375
15.983333	1	1.455125
16.000000	1	1.443000
16.016667	1	1.432375
16.033333	1	1.423625
16.050000	1	1.416250
16.066667	1	1.411000
16.083333	1	1.405875
16.100000	1	1.402375
16.116667	1	1.399000
16.133333	1	1.395875
16.150000	1	1.392375
16.166667	1	1.389125
16.183333	1	1.385750
16.200000	1	1.381500
16.216667	1	1.376625
16.233333	1	1.371000
16.250000	1	1.365750
16.266667	1	1.360000
16.283333	1	1.352875
16.300000	1	1.346000
16.316667	1	1.339875
16.333333	1	1.333750
16.350000	1	1.328750
16.366667	1	1.324375
16.383333	1	1.322000
16.400000	1	1.320625
16.416667	1	1.321375
16.433333	1	1.323750
16.450000	1	1.327000
16.466667	1	1.331125
16.483333	1	1.336000
16.500000	1	1.341000
16.516667	1	1.346375
16.533333	1	1.350875
16.550000	1	1.354000
16.566667	1	1.355625
16.583333	1	1.356625
16.600000	1	1.355500
16.616667	1	1.353125
16.633333	1	1.349750
16.650000	1	1.345125
16.666667	1	1.340250
16.683333	1	1.336500
16.700000	1	1.333000
16.716667	1	1.329625
16.733333	1	1.328125
16.750000	1	1.328125
16.766667	1	1.329625
16.783333	1	1.333250
16.800000	1	1.337625
16.816667	1	1.342875
16.833333	1	1.349250
16.850000	1	1.355875
16.866667	1	1.362000
16.883333	1	1.369000
16.900000	1	1.374250
16.916667	1	1.378375
16.933333	1	1.381125
16.950000	1	1.383000
16.966667	1	1.384000
16.983333	1	1.383750
17.000000	1	1.382125
17.016667	1	1.380125
17.033333	1	1.376500
17.050000	1	1.372500
17.066667	1	1.368250
17.083333	1	1.364125
17.100000	1	1.359875
17.116667	1	1.354875
17.133333	1	1.350500
17.150000	1	1.347125
17.166667	1	1.344875
17.183333	1	1.342625
17.200000	1	1.341875
17.216667	1	1.341375
17.233333	1	1.342125
17.250000	1	1.343375
17.266667	1	1.344750
17.283333	1	1.347250
17.300000	1	1.350500
17.316667	1	1.353875
17.333333	1	1.358125
17.350000	1	1.361875
17.366667	1	1.366875
17.383333	1	1.370500
17.400000	1	1.374250
17.416667	1	1.377250
17.433333	1	1.378625
17.450000	1	1.379125
17.466667	1	1.377750
17.483333	1	1.374125
17.500000	1	1.368875
17.516667	1	1.361625
17.533333	1	1.352750
17.550000	1	1.342000
17.566667	1	1.329875
17.583333	1	1.316375
17.600000	1	1.301875
17.616667	1	1.287250
17.633333	1	1.271375
17.650000	1	1.255000
17.666667	1	1.237625
17.683333	1	1.221000
17.700000	1	1.204625
17.716667	1	1.189750
17.733333	1	1.175000
17.750000	1	1.161375
17.766667	1	1.149000
17.783333	1	1.137750
17.800000	1	1.127250
17.816667	1	1.117000
17.833333	1	1.108000
17.850000	1	1.099875
17.866667	1	1.092500
17.883333	1	1.086125
17.900000	1	1.080125
17.916667	1	1.075250
17.933333	1	1.069625
17.950000	1	1.065125
17.966667	1	1.060375
17.983333	1	1.055000
18.000000	1	1.050250
18.016667	1	1.045125
18.033333	1	1.040250
18.050000	1	1.035500
18.066667	1	1.030875
18.083333	1	1.026375
18.100000	1	1.023500
18.116667	1	1.019875
18.133333	1	1.016875
18.150000	1	1.015125
18.166667	1	1.013875
18.183333	1	1.013875
18.200000	1	1.013875
18.216667	1	1.013625
18.233333	1	1.013750
18.250000	1	1.014000
18.266667	1	1.013875
18.283333	1	1.014125
18.300000	1	1.014000
18.316667	1	1.014875
18.333333	1	1.015625
18.350000	1	1.016750
18.366667	1	1.018500
18.383333	1	1.020500
18.400000	1	1.023750
18.416667	1	1.027750
18.433333	1	1.033125
18.450000	1	1.040500
18.466667	1	1.049500
18.483333	1	1.060375
18.500000	1	1.073000
18.516667	1	1.087500
18.533333	1	1.104750
18.550000	1	1.123375
18.566667	1	1.143875
18.583333	1	1.166750
18.600000	1	1.191250
18.616667	1	1.218000
18.633333	1	1.245125
18.650000	1	1.274250
18.666667	1	1.304500
18.683333	1	1.336000
18.700000	1	1.369000
18.716667	1	1.402375
18.733333	1	1.436500
18.750000	1	1.469875
18.766667	1	1.502750
18.783333	1	1.534375
18.800000	1	1.565125
18.816667	1	1.592375
18.833333	1	1.617125
18.850000	1	1.638500
18.866667	1	1.654750
18.883333	1	1.666125
18.900000	1	1.672125
18.916667	1	1.671875
18.933333	1	1.665500
18.950000	1	1.652625
18.966667	1	1.632250
18.983333	1	1.606500
19.000000	1	1.575875
19.016667	1	1.539625
19.033333	1	1.499250
19.050000	1	1.455125
19.066667	1	1.408625
19.083333	1	1.360875
19.100000	1	1.311875
19.116667	1	1.265125
19.133333	1	1.219500
19.150000	1	1.176250
19.166667	1	1.136000
19.183333	1	1.099375
19.200000	1	1.067375
19.216667	1	1.041000
19.233333	1	1.020000
19.250000	1	1.004125
19.266667	1	0.994125
19.283333	1	0.990375
19.300000	1	0.993250
19.316667	1	1.002250
19.333333	1	1.016625
19.350000	1	1.035875
19.366667	1	1.060500
19.383333	1	1.089250
19.400000	1	1.121500
19.416667	1	1.156625
19.433333	1	1.192875
19.450000	1	1.228375
19.466667	1	1.264750
19.483333	1	1.299250
19.500000	1	1.330875
19.516667	1	1.359750
19.533333	1	1.385125
19.550000	1	1.405375
19.566667	1	1.421375
19.583333	1	1.432250
19.600000	1	1.438625
19.616667	1	1.440250
19.633333	1	1.437000
19.650000	1	1.429000
19.666667	1	1.415500
19.683333	1	1.399125
19.700000	1	1.379500
19.716667	1	1.355875
19.733333	1	1.329250
19.750000	1	1.300625
19.766667	1	1.269375
19.783333	1	1.237000
19.800000	1	1.203375
19.816667	1	1.168750
19.833333	1	1.133875
19.850000	1	1.099125
19.866667	1	1.065875
19.883333	1	1.033375
19.900000	1	1.002750
19.916667	1	0.975750
19.933333	1	0.950375
19.950000	1	0.929250
19.966667	1	0.912375
19.983333	1	0.899875
20.000000	1	0.893250
20.016667	1	0.892375
20.033333	1	0.897875
20.050000	1	0.911125
20.066667	1	0.931500
20.083333	1	0.958625
20.100000	1	0.993250
20.116667	1	1.033875
20.133333	1	1.080875
20.150000	1	1.132750
20.166667	1	1.188250
20.183333	1	1.245125
20.200000	1	1.302375
20.216667	1	1.358250
20.233333	1	1.409250
20.250000	1	1.455125
20.266667	1	1.493125
20.283333	1	1.522250
20.300000	1	1.542000
20.316667	1	1.551000
20.333333	1	1.549750
20.350000	1	1.538000
20.366667	1	1.516250
20.383333	1	1.486750
20.400000	1	1.451125
20.416667	1	1.410250
20.433333	1	1.367250
20.450000	1	1.324625
20.466667	1	1.284750
20.483333	1	1.249250
20.500000	1	1.221250
20.516667	1	1.204125
20.533333	1	1.200875
20.550000	1	1.214000
20.566667	1	1.245000
20.583333	1	1.298125
20.600000	1	1.375375
20.616667	1	1.478750
20.633333	1	1.609625
20.650000	1	1.768875
20.666667	1	1.956250
20.683333	1	2.169375
20.700000	1	2.407000
20.716667	1	2.665000
20.733333	1	2.938000
20.750000	1	3.221500
20.766667	1	3.507125
20.783333	1	3.785875
20.800000	1	4.050125
20.816667	1	4.292250
20.833333	1	4.502875
20.850000	1	4.675375
20.866667	1	4.805375
20.883333	1	4.889125
20.900000	1	4.924250
20.916667	1	4.911625
20.933333	1	4.853500
20.950000	1	4.752000
20.966667	1	4.613000
20.983333	1	4.440875
21.000000	1	4.242750
21.016667	1	4.025125
21.033333	1	3.794750
21.050000	1	3.558125
21.066667	1	3.321000
21.083333	1	3.087375
21.100000	1	2.861125
21.116667	1	2.645500
21.133333	1	2.442625
21.150000	1	2.252625
21.166667	1	2.077125
21.183333	1	1.916250
21.200000	1	1.770250
21.216667	1	1.637875
21.233333	1	1.518500
21.250000	1	1.412000
21.266667	1	1.316625
21.283333	1	1.231750
21.300000	1	1.156875
21.316667	1	1.090375
21.333333	1	1.031250
21.350000	1	0.979250
21.366667	1	0.932750
21.383333	1	0.892500
21.400000	1	0.857500
21.416667	1	0.826500
21.433333	1	0.799125
21.450000	1	0.775625
21.466667	1	0.755750
21.483333	1	0.738625
21.500000	1	0.724375
21.516667	1	0.713000
21.533333	1	0.704250
21.550000	1	0.698000
21.566667	1	0.694500
21.583333	1	0.693375
21.600000	1	0.694750
21.616667	1	0.699000
21.633333	1	0.706125
21.650000	1	0.716875
21.666667	1	0.730625
21.683333	1	0.746875
21.700000	1	0.766250
21.716667	1	0.788875
21.733333	1	0.814500
21.750000	1	0.842625
21.766667	1	0.872500
21.783333	1	0.904250
21.800000	1	0.937000
21.816667	1	0.971125
21.833333	1	1.004000
21.850000	1	1.036500
21.866667	1	1.066875
21.883333	1	1.094000
21.900000	1	1.119500
21.916667	1	1.141500
21.933333	1	1.158625
21.950000	1	1.172125
21.966667	1	1.181625
21.983333	1	1.186750
22.000000	1	1.186375
22.016667	1	1.182000
22.033333	1	1.174625
22.050000	1	1.163375
22.066667	1	1.149500
22.083333	1	1.133250
22.100000	1	1.113625
22.116667	1	1.092875
22.133333	1	1.071000
22.150000	1	1.048125
22.166667	1	1.025000
22.183333	1	1.001125
22.200000	1	0.977000
22.216667	1	0.952875
22.233333	1	0.929250
22.250000	1	0.905625
22.266667	1	0.883000
22.283333	1	0.860000
22.300000	1	0.837875
22.316667	1	0.816750
22.333333	1	0.796000
22.350000	1	0.776375
22.366667	1	0.757250
22.383333	1	0.739250
22.400000	1	0.722250
22.416667	1	0.706125
22.433333	1	0.690250
22.450000	1	0.675750
22.466667	1	0.662375
22.483333	1	0.650750
22.500000	1	0.639250
22.516667	1	0.629250
22.533333	1	0.619750
22.550000	1	0.610625
22.566667	1	0.601625
22.583333	1	0.593125
22.600000	1	0.585125
22.616667	1	0.577625
22.633333	1	0.570000
22.650000	1	0.562625
22.666667	1	0.555125
22.683333	1	0.548500
22.700000	1	0.541625
22.716667	1	0.534250
22.733333	1	0.527125
22.750000	1	0.520125
22.766667	1	0.513125
22.783333	1	0.506375
22.800000	1	0.499250
22.816667	1	0.492750
22.833333	1	0.486250
22.850000	1	0.479750
22.866667	1	0.473875
22.883333	1	0.468250
22.900000	1	0.463125
22.916667	1	0.458250
22.933333	1	0.454875
22.950000	1	0.450875
22.966667	1	0.448250
22.983333	1	0.446250
23.000000	1	0.444375
23.016667	1	0.442500
23.033333	1	0.441625
23.050000	1	0.441500
23.066667	1	0.441000
23.083333	1	0.441625
23.100000	1	0.442250
23.116667	1	0.443125
23.133333	1	0.443875
23.150000	1	0.444750
23.166667	1	0.446000
23.183333	1	0.447125
23.200000	1	0.448750
23.216667	1	0.450125
23.233333	1	0.452250
23.250000	1	0.455375
23.266667	1	0.458250
23.283333	1	0.463125
23.300000	1	0.468000
23.316667	1	0.475000
23.333333	1	0.484375
23.350000	1	0.497500
23.366667	1	0.514625
23.383333	1	0.536500
23.400000	1	0.565875
23.416667	1	0.603500
23.433333	1	0.650125
23.450000	1	0.707875
23.466667	1	0.778750
23.483333	1	0.864875
23.500000	1	0.968500
23.516667	1	1.090250
23.533333	1	1.232000
23.550000	1	1.393500
23.566667	1	1.577125
23.583333	1	1.781625
23.600000	1	2.005875
23.616667	1	2.249000
23.633333	1	2.508250
23.650000	1	2.780125
23.666667	1	3.061000
23.683333	1	3.346250
23.700000	1	3.631000
23.716667	1	3.909125
23.733333	1	4.175250
23.750000	1	4.422750
23.766667	1	4.646875
23.783333	1	4.841250
23.800000	1	5.003500
23.816667	1	5.128875
23.833333	1	5.216250
23.850000	1	5.264000
23.866667	1	5.272250
23.883333	1	5.241625
23.900000	1	5.174500
23.916667	1	5.074250
23.933333	1	4.943000
23.950000	1	4.785500
23.966667	1	4.606000
23.983333	1	4.409500
24.000000	1	4.200875
24.016667	1	3.984000
24.033333	1	3.762000
24.050000	1	3.540000
24.066667	1	3.320500
24.083333	1	3.105500
24.100000	1	2.897375
24.116667	1	2.698125
24.133333	1	2.508250
24.150000	1	2.328125
24.166667	1	2.159375
24.183333	1	2.001375
24.200000	1	1.854500
24.216667	1	1.718625
24.233333	1	1.593500
24.250000	1	1.478375
24.266667	1	1.373125
24.283333	1	1.276875
24.300000	1	1.189750
24.316667	1	1.110000
24.333333	1	1.039125
24.350000	1	0.974750
24.366667	1	0.916500
24.383333	1	0.865000
24.400000	1	0.819750
24.416667	1	0.779125
24.433333	1	0.744250
24.450000	1	0.713250
24.466667	1	0.686125
24.483333	1	0.664375
24.500000	1	0.644500
24.516667	1	0.627000
24.533333	1	0.612375
24.550000	1	0.599500
24.566667	1	0.588250
24.583333	1	0.578625
24.600000	1	0.569500
24.616667	1	0.561875
24.633333	1	0.554500
24.650000	1	0.547875
24.666667	1	0.541375
24.683333	1	0.535250
24.700000	1	0.529250
24.716667	1	0.523375
24.733333	1	0.517375
24.750000	1	0.512125
24.766667	1	0.506625
24.783333	1	0.500250
24.800000	1	0.494250
24.816667	1	0.489000
24.833333	1	0.483375
24.850000	1	0.477875
24.866667	1	0.472500
24.883333	1	0.467375
24.900000	1	0.462875
24.916667	1	0.459125
24.933333	1	0.455500
24.950000	1	0.451750
24.966667	1	0.448625
24.983333	1	0.444875
25.000000	1	0.441875
25.016667	1	0.438875
25.033333	1	0.435625
25.050000	1	0.433250
25.066667	1	0.431500
25.083333	1	0.429000
25.100000	1	0.427000
25.116667	1	0.425125
25.133333	1	0.423125
25.150000	1	0.421375
25.166667	1	0.420000
25.183333	1	0.417375
25.200000	1	0.415500
25.216667	1	0.413625
25.233333	1	0.412000
25.250000	1	0.409750
25.266667	1	0.408000
25.283333	1	0.406000
25.300000	1	0.404375
25.316667	1	0.403500
25.333333	1	0.402125
25.350000	1	0.401000
25.366667	1	0.399875
25.383333	1	0.399375
25.400000	1	0.398750
25.416667	1	0.398250
25.433333	1	0.399250
25.450000	1	0.400125
25.466667	1	0.401375
25.483333	1	0.402625
25.500000	1	0.404250
25.516667	1	0.405625
25.533333	1	0.407500
25.550000	1	0.410000
25.566667	1	0.411750
25.583333	1	0.413625
25.600000	1	0.415750
25.616667	1	0.417375
25.633333	1	0.419500
25.650000	1	0.421500
25.666667	1	0.422875
25.683333	1	0.424000
25.700000	1	0.425125
25.716667	1	0.425875
25.733333	1	0.426750
25.750000	1	0.427375
25.766667	1	0.427125
25.783333	1	0.427125
25.800000	1	0.427375
25.816667	1	0.427625
25.833333	1	0.427375
25.850000	1	0.427375
25.866667	1	0.427000
25.883333	1	0.427375
25.900000	1	0.427375
25.916667	1	0.427750
25.933333	1	0.428500
25.950000	1	0.429500
25.966667	1	0.431000
25.983333	1	0.433500
26.000000	1	0.435500
26.016667	1	0.439000
26.033333	1	0.441875
26.050000	1	0.445625
26.066667	1	0.449625
26.083333	1	0.454250
26.100000	1	0.459250
26.116667	1	0.464875
26.133333	1	0.470250
26.150000	1	0.476375
26.166667	1	0.482375
26.183333	1	0.488625
26.200000	1	0.495000
26.216667	1	0.501000
26.233333	1	0.506875
26.250000	1	0.512625
26.266667	1	0.518000
26.283333	1	0.522375
26.300000	1	0.526500
26.316667	1	0.530500
26.333333	1	0.533500
26.350000	1	0.534625
26.366667	1	0.535875
26.383333	1	0.536250
26.400000	1	0.535750
26.416667	1	0.534125
26.433333	1	0.532250
26.450000	1	0.529125
26.466667	1	0.525375
26.483333	1	0.520375
26.500000	1	0.515125
26.516667	1	0.508500
26.533333	1	0.501625
26.550000	1	0.493875
26.566667	1	0.485875
26.583333	1	0.478000
26.600000	1	0.469000
26.616667	1	0.459750
26.633333	1	0.450375
26.650000	1	0.441250
26.666667	1	0.432625
26.683333	1	0.423500
26.700000	1	0.414375
26.716667	1	0.405000
26.733333	1	0.396500
26.750000	1	0.388000
26.766667	1	0.380000
26.783333	1	0.372875
26.800000	1	0.365125
26.816667	1	0.359000
26.833333	1	0.352375
26.850000	1	0.346250
26.866667	1	0.340875
26.883333	1	0.335750
26.900000	1	0.331625
26.916667	1	0.327250
26.933333	1	0.323125
26.950000	1	0.320125
26.966667	1	0.318000
26.983333	1	0.315750
27.000000	1	0.314375
27.016667	1	0.312875
27.033333	1	0.312250
27.050000	1	0.312125
27.066667	1	0.312125
27.083333	1	0.313125
27.100000	1	0.314375
27.116667	1	0.317000
27.133333	1	0.319875
27.150000	1	0.324125
27.166667	1	0.329000
27.183333	1	0.334750
27.200000	1	0.341500
27.216667	1	0.350375
27.233333	1	0.360500
27.250000	1	0.372500
27.266667	1	0.387500
27.283333	1	0.405250
27.300000	1	0.425625
27.316667	1	0.450000
27.333333	1	0.477375
27.350000	1	0.510500
27.366667	1	0.548500
27.383333	1	0.592750
27.400000	1	0.643875
27.416667	1	0.703625
27.433333	1	0.771000
27.450000	1	0.849000
27.466667	1	0.936375
27.483333	1	1.033875
27.500000	1	1.142750
27.516667	1	1.262875
27.533333	1	1.394125
27.550000	1	1.536125
27.566667	1	1.689250
27.583333	1	1.852250
27.600000	1	2.024875
27.616667	1	2.204750
27.633333	1	2.391875
27.650000	1	2.584500
27.666667	1	2.779000
27.683333	1	2.974625
27.700000	1	3.167000
27.716667	1	3.354500
27.733333	1	3.533750
27.750000	1	3.702125
27.766667	1	3.857125
27.783333	1	3.995875
27.800000	1	4.115500
27.816667	1	4.214500
27.833333	1	4.291750
27.850000	1	4.344625
27.866667	1	4.373125
27.883333	1	4.376625
27.900000	1	4.355625
27.916667	1	4.309875
27.933333	1	4.240250
27.950000	1	4.150000
27.966667	1	4.040000
27.983333	1	3.912250
28.000000	1	3.770375
28.016667	1	3.616875
28.033333	1	3.453250
28.050000	1	3.282250
28.066667	1	3.106625
28.083333	1	2.929250
28.100000	1	2.751500
28.116667	1	2.576875
28.133333	1	2.405875
28.150000	1	2.241250
28.166667	1	2.083250
28.183333	1	1.932875
28.200000	1	1.791250
28.216667	1	1.657375
28.233333	1	1.533500
28.250000	1	1.418250
28.266667	1	1.311750
28.283333	1	1.214000
28.300000	1	1.124375
28.316667	1	1.042750
28.333333	1	0.969500
28.350000	1	0.902625
28.366667	1	0.843875
28.383333	1	0.791750
28.400000	1	0.745875
28.416667	1	0.705625
28.433333	1	0.670750
28.450000	1	0.640750
28.466667	1	0.615000
28.483333	1	0.593625
28.500000	1	0.576500
28.516667	1	0.563125
28.533333	1	0.552375
28.550000	1	0.544750
28.566667	1	0.539500
28.583333	1	0.537625
28.600000	1	0.538375
28.616667	1	0.540375
28.633333	1	0.544250
28.650000	1	0.549500
28.666667	1	0.555375
28.683333	1	0.563250
28.700000	1	0.571500
28.716667	1	0.580375
28.733333	1	0.589750
28.750000	1	0.599375
28.766667	1	0.608500
28.783333	1	0.617625
28.800000	1	0.626625
28.816667	1	0.635000
28.833333	1	0.642875
28.850000	1	0.650000
28.866667	1	0.655500
28.883333	1	0.661250
28.900000	1	0.665375
28.916667	1	0.668250
28.933333	1	0.669750
28.950000	1	0.670500
28.966667	1	0.669000
28.983333	1	0.666625
29.000000	1	0.663125
29.016667	1	0.657000
29.033333	1	0.649250
29.050000	1	0.640000
29.066667	1	0.629875
29.083333	1	0.617875
29.100000	1	0.604375
29.116667	1	0.588000
29.133333	1	0.570500
29.150000	1	0.550500
29.166667	1	0.529500
29.183333	1	0.506375
29.200000	1	0.481000
29.216667	1	0.454375
29.233333	1	0.426250
29.250000	1	0.395750
29.266667	1	0.363250
29.283333	1	0.328750
29.300000	1	0.292750
29.316667	1	0.254250
29.333333	1	0.214250
29.350000	1	0.172375
29.366667	1	0.128625
29.383333	1	0.084000
29.400000	1	0.037625
29.416667	1	-0.009625
29.433333	1	-0.057250
29.450000	1	-0.105625
29.466667	1	-0.154375
29.483333	1	-0.203500
29.500000	1	-0.252750
29.516667	1	-0.301500
29.533333	1	-0.348625
29.550000	1	-0.395125
29.566667	1	-0.439625
29.583333	1	-0.481750
29.600000	1	-0.522000
29.616667	1	-0.559125
29.633333	1	-0.592875
29.650000	1	-0.623250
29.666667	1	-0.650625
29.683333	1	-0.674750
29.700000	1	-0.694750
29.716667	1	-0.710750
29.733333	1	-0.722625
29.750000	1	-0.730375
29.766667	1	-0.733125
29.783333	1	-0.732250
29.800000	1	-0.727125
29.816667	1	-0.718625
29.833333	1	-0.707000
29.850000	1	-0.691750
29.866667	1	-0.673375
29.883333	1	-0.652750
29.900000	1	-0.629625
29.916667	1	-0.604500
29.933333	1	-0.577250
29.950000	1	-0.548375
29.966667	1	-0.518125
29.983333	1	-0.487875
30.000000	1	-0.456625
30.016667	1	-0.424750
30.033333	1	-0.392500
30.050000	1	-0.361375
30.066667	1	-0.330625
30.083333	1	-0.299750
30.100000	1	-0.269375
30.116667	1	-0.240500
30.133333	1	-0.212750
30.150000	1	-0.185125
30.166667	1	-0.159625
30.183333	1	-0.135750
30.200000	1	-0.112500
30.216667	1	-0.090250
30.233333	1	-0.069250
30.250000	1	-0.048875
30.266667	1	-0.030375
30.283333	1	-0.013250
30.300000	1	0.002500
30.316667	1	0.017375
30.333333	1	0.030875
30.350000	1	0.044000
30.366667	1	0.057125
30.383333	1	0.068500
30.400000	1	0.079000
30.416667	1	0.088375
30.433333	1	0.098625
30.450000	1	0.107750
30.466667	1	0.117125
30.483333	1	0.124500
30.500000	1	0.132625
30.516667	1	0.140375
30.533333	1	0.148375
30.550000	1	0.155875
30.566667	1	0.163625
30.583333	1	0.171375
30.600000	1	0.179250
30.616667	1	0.187250
30.633333	1	0.195750
30.650000	1	0.203375
30.666667	1	0.212125
30.683333	1	0.220750
30.700000	1	0.229125
30.716667	1	0.238000
30.733333	1	0.247000
30.750000	1	0.256250
30.766667	1	0.266625
30.783333	1	0.276125
30.800000	1	0.286250
30.816667	1	0.297000
30.833333	1	0.307125
30.850000	1	0.318000
30.866667	1	0.329500
30.883333	1	0.341500
30.900000	1	0.353625
30.916667	1	0.367500
30.933333	1	0.381875
30.950000	1	0.397625
30.966667	1	0.414125
30.983333	1	0.432625
31.000000	1	0.453250
31.016667	1	0.476000
31.033333	1	0.501000
31.050000	1	0.529875
31.066667	1	0.561375
31.083333	1	0.597000
31.100000	1	0.637500
31.116667	1	0.682625
31.133333	1	0.732500
31.150000	1	0.788250
31.166667	1	0.850125
31.183333	1	0.918375
31.200000	1	0.994375
31.216667	1	1.076375
31.233333	1	1.165625
31.250000	1	1.262250
31.266667	1	1.364500
31.283333	1	1.473625
31.300000	1	1.588875
31.316667	1	1.709750
31.333333	1	1.834375
31.350000	1	1.962250
31.366667	1	2.092750
31.383333	1	2.225125
31.400000	1	2.357250
31.416667	1	2.487625
31.433333	1	2.615375
31.450000	1	2.738000
31.466667	1	2.853750
31.483333	1	2.962875
31.500000	1	3.062250
31.516667	1	3.151500
31.533333	1	3.227875
31.550000	1	3.292625
31.566667	1	3.344000
31.583333	1	3.381625
31.600000	1	3.405125
31.616667	1	3.414375
31.633333	1	3.408875
31.650000	1	3.389750
31.666667	1	3.356750
31.683333	1	3.310500
31.700000	1	3.252750
31.716667	1	3.184125
31.733333	1	3.105750
31.750000	1	3.019000
31.766667	1	2.923625
31.783333	1	2.822750
31.800000	1	2.716500
31.816667	1	2.605750
31.833333	1	2.492625
31.850000	1	2.377625
31.866667	1	2.262375
31.883333	1	2.146500
31.900000	1	2.032625
31.916667	1	1.920375
31.933333	1	1.810875
31.950000	1	1.703750
31.966667	1	1.601250
31.983333	1	1.501125
32.000000	1	1.405750
32.016667	1	1.314625
32.033333	1	1.227750
32.050000	1	1.144000
32.066667	1	1.065375
32.083333	1	0.991000
32.100000	1	0.920875
32.116667	1	0.853750
32.133333	1	0.792250
32.150000	1	0.733875
32.166667	1	0.678500
32.183333	1	0.626875
32.200000	1	0.578375
32.216667	1	0.532750
32.233333	1	0.490625
32.250000	1	0.452000
32.266667	1	0.416000
32.283333	1	0.382750
32.300000	1	0.351750
32.316667	1	0.323000
32.333333	1	0.296875
32.350000	1	0.273250
32.366667	1	0.251375
32.383333	1	0.231750
32.400000	1	0.213250
32.416667	1	0.196375
32.433333	1	0.181250
32.450000	1	0.167250
32.466667	1	0.155000
32.483333	1	0.143500
32.500000	1	0.133250
32.516667	1	0.123750
32.533333	1	0.115750
32.550000	1	0.108500
32.566667	1	0.101000
32.583333	1	0.095375
32.600000	1	0.089500
32.616667	1	0.084875
32.633333	1	0.080000
32.650000	1	0.075875
32.666667	1	0.072375
32.683333	1	0.069125
32.700000	1	0.066375
32.716667	1	0.064250
32.733333	1	0.061500
32.750000	1	0.060000
32.766667	1	0.058250
32.783333	1	0.056875
32.800000	1	0.055875
32.816667	1	0.054250
32.833333	1	0.053125
32.850000	1	0.052000
32.866667	1	0.050875
32.883333	1	0.050250
32.900000	1	0.049375
32.916667	1	0.048750
32.933333	1	0.047500
32.950000	1	0.047375
32.966667	1	0.047000
32.983333	1	0.046125
33.000000	1	0.045250
33.016667	1	0.045250
33.033333	1	0.045250
33.050000	1	0.045500
33.066667	1	0.045250
33.083333	1	0.045750
33.100000	1	0.046250
33.116667	1	0.046250
33.133333	1	0.046250
33.150000	1	0.046625
33.166667	1	0.047375
33.183333	1	0.047375
33.200000	1	0.047750
33.216667	1	0.048250
33.233333	1	0.048125
33.250000	1	0.048500
33.266667	1	0.049375
33.283333	1	0.050000
33.300000	1	0.051125
33.316667	1	0.051500
33.333333	1	0.052750
33.350000	1	0.053500
33.366667	1	0.055250
33.383333	1	0.056125
33.400000	1	0.057750
33.416667	1	0.058625
33.433333	1	0.059375
33.450000	1	0.060375
33.466667	1	0.061250
33.483333	1	0.062375
33.500000	1	0.064375
33.516667	1	0.066250
33.533333	1	0.067375
33.550000	1	0.069500
33.566667	1	0.071375
33.583333	1	0.073000
33.600000	1	0.074250
33.616667	1	0.076125
33.633333	1	0.077750
33.650000	1	0.080000
33.666667	1	0.082250
33.683333	1	0.084500
33.700000	1	0.087250
33.716667	1	0.089750
33.733333	1	0.092500
33.750000	1	0.095375
33.766667	1	0.098375
33.783333	1	0.101375
33.800000	1	0.103875
33.816667	1	0.107000
33.833333	1	0.109750
33.850000	1	0.112875
33.866667	1	0.115750
33.883333	1	0.118625
33.900000	1	0.121500
33.916667	1	0.124875
33.933333	1	0.127625
33.950000	1	0.130000
33.966667	1	0.132375
33.983333	1	0.134000
34.000000	1	0.136500
34.016667	1	0.138000
34.033333	1	0.139125
34.050000	1	0.140750
34.066667	1	0.142625
34.083333	1	0.143750
34.100000	1	0.144375
34.116667	1	0.145125
34.133333	1	0.145750
34.150000	1	0.145875
34.166667	1	0.146375
34.183333	1	0.146875
34.200000	1	0.146875
34.216667	1	0.147000
34.233333	1	0.146250
34.250000	1	0.146250
34.266667	1	0.145750
34.283333	1	0.146250
34.300000	1	0.146250
34.316667	1	0.146125
34.333333	1	0.146000
34.350000	1	0.145500
34.366667	1	0.145125
34.383333	1	0.145500
34.400000	1	0.145125
34.416667	1	0.144625
34.433333	1	0.145125
34.450000	1	0.145875
34.466667	1	0.146375
34.483333	1	0.147000
34.500000	1	0.147000
34.516667	1	0.147750
34.533333	1	0.148500
34.550000	1	0.149000
34.566667	1	0.149750
34.583333	1	0.149750
34.600000	1	0.150500
34.616667	1	0.151250
34.633333	1	0.153250
34.650000	1	0.154375
34.666667	1	0.155375
34.683333	1	0.156250
34.700000	1	0.156875
34.716667	1	0.157625
34.733333	1	0.159000
34.750000	1	0.159375
34.766667	1	0.160500
34.783333	1	0.161500
34.800000	1	0.162375
34.816667	1	0.163125
34.833333	1	0.163750
34.850000	1	0.164125
34.866667	1	0.164125
34.883333	1	0.164125
34.900000	1	0.164125
34.916667	1	0.163875
34.933333	1	0.163625
34.950000	1	0.162750
34.966667	1	0.161625
34.983333	1	0.160875
35.000000	1	0.159000
35.016667	1	0.157375
35.033333	1	0.156125
35.050000	1	0.154250
35.066667	1	0.151875
35.083333	1	0.149875
35.100000	1	0.147750
35.116667	1	0.145125
35.133333	1	0.142375
35.150000	1	0.139375
35.166667	1	0.135625
35.183333	1	0.132500
35.200000	1	0.129250
35.216667	1	0.125375
35.233333	1	0.122000
35.250000	1	0.118250
35.266667	1	0.115250
35.283333	1	0.112250
35.300000	1	0.109000
35.316667	1	0.106750
35.333333	1	0.103500
35.350000	1	0.101250
35.366667	1	0.099125
35.383333	1	0.096875
35.400000	1	0.094750
35.416667	1	0.093000
35.433333	1	0.091500
35.450000	1	0.090375
35.466667	1	0.089375
35.483333	1	0.088625
35.500000	1	0.087625
35.516667	1	0.087250
35.533333	1	0.087750
35.550000	1	0.088250
35.566667	1	0.089125
35.583333	1	0.089875
35.600000	1	0.090125
35.616667	1	0.091750
35.633333	1	0.092750
35.650000	1	0.094250
35.666667	1	0.095125
35.683333	1	0.097500
35.700000	1	0.100000
35.716667	1	0.102250
35.733333	1	0.104250
35.750000	1	0.106875
35.766667	1	0.108500
35.783333	1	0.110750
35.800000	1	0.113250
35.816667	1	0.115375
35.833333	1	0.117625
35.850000	1	0.119625
35.866667	1	0.122125
35.883333	1	0.124250
35.900000	1	0.126750
35.916667	1	0.129375
35.933333	1	0.131875
35.950000	1	0.134250
35.966667	1	0.136125
35.983333	1	0.138250
36.000000	1	0.141375
36.016667	1	0.143625
36.033333	1	0.145625
36.050000	1	0.147125
36.066667	1	0.149125
36.083333	1	0.151125
36.100000	1	0.153125
36.116667	1	0.155375
36.133333	1	0.158000
36.150000	1	0.160375
36.166667	1	0.162625
36.183333	1	0.164625
36.200000	1	0.166875
36.216667	1	0.168625
36.233333	1	0.170375
36.250000	1	0.172375
36.266667	1	0.173875
36.283333	1	0.174625
36.300000	1	0.176625
36.316667	1	0.177625
36.333333	1	0.179125
36.350000	1	0.180500
36.366667	1	0.181250
36.383333	1	0.182250
36.400000	1	0.182375
36.416667	1	0.182750
36.433333	1	0.182750
36.450000	1	0.183250
36.466667	1	0.182625
36.483333	1	0.183000
36.500000	1	0.183000
36.516667	1	0.183250
36.533333	1	0.182750
36.550000	1	0.181750
36.566667	1	0.181125
36.583333	1	0.181625
36.600000	1	0.180875
36.616667	1	0.180125
36.633333	1	0.179875
36.650000	1	0.178875
36.666667	1	0.178000
36.683333	1	0.177000
36.700000	1	0.175250
36.716667	1	0.174000
36.733333	1	0.172375
36.750000	1	0.171000
36.766667	1	0.169375
36.783333	1	0.167250
36.800000	1	0.165125
36.816667	1	0.162875
36.833333	1	0.160000
36.850000	1	0.157250
36.866667	1	0.154500
36.883333	1	0.152625
36.900000	1	0.150250
36.916667	1	0.148000
36.933333	1	0.146375
36.950000	1	0.144500
36.966667	1	0.142250
36.983333	1	0.140625
37.000000	1	0.139125
37.016667	1	0.138000
37.033333	1	0.137375
37.050000	1	0.136375
37.066667	1	0.135875
37.083333	1	0.136875
37.100000	1	0.137875
37.116667	1	0.139250
37.133333	1	0.140375
37.150000	1	0.143000
37.166667	1	0.145500
37.183333	1	0.148625
37.200000	1	0.152000
37.216667	1	0.156750
37.233333	1	0.161750
37.250000	1	0.166875
37.266667	1	0.172500
37.283333	1	0.179000
37.300000	1	0.186500
37.316667	1	0.194625
37.333333	1	0.203375
37.350000	1	0.212125
37.366667	1	0.220500
37.383333	1	0.229375
37.400000	1	0.238750
37.416667	1	0.248500
37.433333	1	0.258250
37.450000	1	0.268250
37.466667	1	0.278625
37.483333	1	0.289125
37.500000	1	0.299875
37.516667	1	0.309500
37.533333	1	0.320125
37.550000	1	0.329250
37.566667	1	0.339375
37.583333	1	0.348875
37.600000	1	0.358875
37.616667	1	0.367875
37.633333	1	0.377000
37.650000	1	0.385500
37.666667	1	0.394125
37.683333	1	0.403125
37.700000	1	0.411375
37.716667	1	0.419750
37.733333	1	0.427500
37.750000	1	0.435250
37.766667	1	0.442875
37.783333	1	0.449625
37.800000	1	0.456125
37.816667	1	0.463750
37.833333	1	0.470250
37.850000	1	0.476250
37.866667	1	0.483000
37.883333	1	0.489500
37.900000	1	0.495875
37.916667	1	0.502500
37.933333	1	0.509250
37.950000	1	0.515500
37.966667	1	0.521875
37.983333	1	0.528250
38.000000	1	0.533750
38.016667	1	0.540375
38.033333	1	0.546750
38.050000	1	0.553250
38.066667	1	0.559625
38.083333	1	0.566375
38.100000	1	0.573375
38.116667	1	0.580000
38.133333	1	0.585500
38.150000	1	0.591500
38.166667	1	0.597500
38.183333	1	0.603875
38.200000	1	0.609875
38.216667	1	0.615625
38.233333	1	0.621250
38.250000	1	0.627000
38.266667	1	0.632250
38.283333	1	0.637125
38.300000	1	0.642500
38.316667	1	0.647250
38.333333	1	0.651625
38.350000	1	0.655750
38.366667	1	0.659625
38.383333	1	0.663000
38.400000	1	0.666000
38.416667	1	0.668625
38.433333	1	0.671375
38.450000	1	0.673625
38.466667	1	0.675750
38.483333	1	0.677875
38.500000	1	0.678500
38.516667	1	0.679500
38.533333	1	0.679875
38.550000	1	0.678875
38.566667	1	0.677500
38.583333	1	0.676125
38.600000	1	0.674125
38.616667	1	0.671375
38.633333	1	0.668875
38.650000	1	0.666000
38.666667	1	0.661625
38.683333	1	0.657750
38.700000	1	0.653000
38.716667	1	0.647750
38.733333	1	0.641625
38.750000	1	0.635500
38.766667	1	0.629000
38.783333	1	0.622500
38.800000	1	0.614875
38.816667	1	0.607500
38.833333	1	0.599375
38.850000	1	0.591250
38.866667	1	0.583875
38.883333	1	0.576125
38.900000	1	0.568375
38.916667	1	0.560000
38.933333	1	0.551125
38.950000	1	0.542000
38.966667	1	0.533125
38.983333	1	0.523875
39.000000	1	0.515000
39.016667	1	0.506000
39.033333	1	0.497250
39.050000	1	0.487625
39.066667	1	0.478875
39.083333	1	0.469875
39.100000	1	0.461500
39.116667	1	0.451875
39.133333	1	0.443000
39.150000	1	0.434000
39.166667	1	0.424750
39.183333	1	0.416250
39.200000	1	0.407000
39.216667	1	0.398375
39.233333	1	0.389875
39.250000	1	0.381625
39.266667	1	0.372625
39.283333	1	0.365000
39.300000	1	0.357125
39.316667	1	0.349000
39.333333	1	0.341500
39.350000	1	0.334000
39.366667	1	0.326375
39.383333	1	0.319375
39.400000	1	0.312125
39.416667	1	0.305750
39.433333	1	0.299875
39.450000	1	0.293875
39.466667	1	0.287500
39.483333	1	0.281250
39.500000	1	0.275625
39.516667	1	0.270625
39.533333	1	0.265500
39.550000	1	0.260125
39.566667	1	0.255250
39.583333	1	0.250250
39.600000	1	0.245250
39.616667	1	0.241000
39.633333	1	0.236500
39.650000	1	0.231375
39.666667	1	0.227125
39.683333	1	0.222500
39.700000	1	0.217750
39.716667	1	0.212875
39.733333	1	0.207500
39.750000	1	0.202125
39.766667	1	0.197250
39.783333	1	0.192625
39.800000	1	0.187500
39.816667	1	0.182000
39.833333	1	0.176625
39.850000	1	0.170875
39.866667	1	0.164625
39.883333	1	0.158500
39.900000	1	0.152625
39.916667	1	0.146375
39.933333	1	0.140625
39.950000	1	0.134625
39.966667	1	0.129250
39.983333	1	0.124125
40.000000	1	0.119125
