URL	chrom://7040-86g6c92/XVault/Ultimate_3000/20/20240517_CMO_FP23_FP25_MarkusDeplate.seq/499.smp/RI_1.channel/RI_1.chm
Channel	RI_1

Injection Information:
Data Vault	XVault
Sequence	20240517_CMO_FP23_FP25_MarkusDeplate
Name	FP26_21.2_s7
Number	112
Position	BC12
Comment	
Processing Method	
Instrument Method	run_25B_method
Type	Unknown
Status	Finished
Inject Time	30.05.2024 23:08:49 +02:00
Volume (µl)	20.0000
Dilution Factor	1.0000
Weight	1.0000

Chromatogram Data Information:
Time Min. (min)	0.000000
Time Max. (min)	40.000000
Data Points	2401
Detector	RI
Generating Data System	Chromeleon 7.3.2.11814
Exporting Data System	Chromeleon 7.3.2.0
Operator	Instrument Controller
Signal Quantity	Refractive 
Signal Unit	µRIU
Signal Min.	-0.518625
Signal Max.	55.303000
Channel	RI_1
Driver Name	RID520Driver.dll
Channel Type	Evaluation
Min. Step (s)	1
Max. Step (s)	1
Average Step (s)	1

Signal Parameter Information:
Signal Info	

Chromatogram Data:
Time (min)	Step (s)	Value (µRIU)
0.000000	n.a.	0.029500
0.016667	1	0.027750
0.033333	1	0.026750
0.050000	1	0.025875
0.066667	1	0.025375
0.083333	1	0.024625
0.100000	1	0.024375
0.116667	1	0.023875
0.133333	1	0.022875
0.150000	1	0.022500
0.166667	1	0.022375
0.183333	1	0.021875
0.200000	1	0.021625
0.216667	1	0.021875
0.233333	1	0.021375
0.250000	1	0.021125
0.266667	1	0.021625
0.283333	1	0.021875
0.300000	1	0.021500
0.316667	1	0.021000
0.333333	1	0.020750
0.350000	1	0.021000
0.366667	1	0.020750
0.383333	1	0.019500
0.400000	1	0.018750
0.416667	1	0.018125
0.433333	1	0.018875
0.450000	1	0.020250
0.466667	1	0.021875
0.483333	1	0.023625
0.500000	1	0.024500
0.516667	1	0.024625
0.533333	1	0.024875
0.550000	1	0.024375
0.566667	1	0.023250
0.583333	1	0.021000
0.600000	1	0.018250
0.616667	1	0.016500
0.633333	1	0.013875
0.650000	1	0.011500
0.666667	1	0.010875
0.683333	1	0.010250
0.700000	1	0.010375
0.716667	1	0.010125
0.733333	1	0.010125
0.750000	1	0.010125
0.766667	1	0.010750
0.783333	1	0.011000
0.800000	1	0.010750
0.816667	1	0.010875
0.833333	1	0.011250
0.850000	1	0.011750
0.866667	1	0.012125
0.883333	1	0.012500
0.900000	1	0.013125
0.916667	1	0.014000
0.933333	1	0.015125
0.950000	1	0.015625
0.966667	1	0.016625
0.983333	1	0.017500
1.000000	1	0.017500
1.016667	1	0.018125
1.033333	1	0.019125
1.050000	1	0.020750
1.066667	1	0.022000
1.083333	1	0.022750
1.100000	1	0.022750
1.116667	1	0.023500
1.133333	1	0.024625
1.150000	1	0.025500
1.166667	1	0.026750
1.183333	1	0.027375
1.200000	1	0.027625
1.216667	1	0.028875
1.233333	1	0.029750
1.250000	1	0.029875
1.266667	1	0.030875
1.283333	1	0.031625
1.300000	1	0.032125
1.316667	1	0.032875
1.333333	1	0.032750
1.350000	1	0.033375
1.366667	1	0.033250
1.383333	1	0.033625
1.400000	1	0.034125
1.416667	1	0.034500
1.433333	1	0.035375
1.450000	1	0.036750
1.466667	1	0.037625
1.483333	1	0.038250
1.500000	1	0.038250
1.516667	1	0.038500
1.533333	1	0.039375
1.550000	1	0.040000
1.566667	1	0.040625
1.583333	1	0.040500
1.600000	1	0.040750
1.616667	1	0.041000
1.633333	1	0.042000
1.650000	1	0.042375
1.666667	1	0.043375
1.683333	1	0.044750
1.700000	1	0.045250
1.716667	1	0.045750
1.733333	1	0.045750
1.750000	1	0.046375
1.766667	1	0.046625
1.783333	1	0.046625
1.800000	1	0.046750
1.816667	1	0.047500
1.833333	1	0.047875
1.850000	1	0.049000
1.866667	1	0.049625
1.883333	1	0.049750
1.900000	1	0.049500
1.916667	1	0.050000
1.933333	1	0.050125
1.950000	1	0.050125
1.966667	1	0.049500
1.983333	1	0.049000
2.000000	1	0.049500
2.016667	1	0.049125
2.033333	1	0.049125
2.050000	1	0.048875
2.066667	1	0.049000
2.083333	1	0.049125
2.100000	1	0.048375
2.116667	1	0.047750
2.133333	1	0.047375
2.150000	1	0.047750
2.166667	1	0.047500
2.183333	1	0.046500
2.200000	1	0.045375
2.216667	1	0.044875
2.233333	1	0.044375
2.250000	1	0.044125
2.266667	1	0.044125
2.283333	1	0.043875
2.300000	1	0.043125
2.316667	1	0.041750
2.333333	1	0.040750
2.350000	1	0.040625
2.366667	1	0.039625
2.383333	1	0.038750
2.400000	1	0.037875
2.416667	1	0.037750
2.433333	1	0.037000
2.450000	1	0.036750
2.466667	1	0.036500
2.483333	1	0.036375
2.500000	1	0.035875
2.516667	1	0.034875
2.533333	1	0.034000
2.550000	1	0.033000
2.566667	1	0.032250
2.583333	1	0.032125
2.600000	1	0.031250
2.616667	1	0.031125
2.633333	1	0.030375
2.650000	1	0.029750
2.666667	1	0.028375
2.683333	1	0.027875
2.700000	1	0.027250
2.716667	1	0.026625
2.733333	1	0.026125
2.750000	1	0.025875
2.766667	1	0.025125
2.783333	1	0.025000
2.800000	1	0.024375
2.816667	1	0.023750
2.833333	1	0.023125
2.850000	1	0.023375
2.866667	1	0.023250
2.883333	1	0.022375
2.900000	1	0.021500
2.916667	1	0.020250
2.933333	1	0.020125
2.950000	1	0.019500
2.966667	1	0.018875
2.983333	1	0.018125
3.000000	1	0.018250
3.016667	1	0.018000
3.033333	1	0.017500
3.050000	1	0.017500
3.066667	1	0.017125
3.083333	1	0.017125
3.100000	1	0.017750
3.116667	1	0.017375
3.133333	1	0.017250
3.150000	1	0.017500
3.166667	1	0.017750
3.183333	1	0.018875
3.200000	1	0.018625
3.216667	1	0.019000
3.233333	1	0.019625
3.250000	1	0.020750
3.266667	1	0.021375
3.283333	1	0.022625
3.300000	1	0.023875
3.316667	1	0.025875
3.333333	1	0.027375
3.350000	1	0.029000
3.366667	1	0.030500
3.383333	1	0.032875
3.400000	1	0.034500
3.416667	1	0.036625
3.433333	1	0.038750
3.450000	1	0.041375
3.466667	1	0.043375
3.483333	1	0.046000
3.500000	1	0.047750
3.516667	1	0.049250
3.533333	1	0.051125
3.550000	1	0.053375
3.566667	1	0.055250
3.583333	1	0.057375
3.600000	1	0.060125
3.616667	1	0.061625
3.633333	1	0.063875
3.650000	1	0.065750
3.666667	1	0.068375
3.683333	1	0.070625
3.700000	1	0.072625
3.716667	1	0.074000
3.733333	1	0.076000
3.750000	1	0.077625
3.766667	1	0.079625
3.783333	1	0.081250
3.800000	1	0.083000
3.816667	1	0.085250
3.833333	1	0.087125
3.850000	1	0.088125
3.866667	1	0.089250
3.883333	1	0.090750
3.900000	1	0.092625
3.916667	1	0.094375
3.933333	1	0.095125
3.950000	1	0.096000
3.966667	1	0.097125
3.983333	1	0.098500
4.000000	1	0.099250
4.016667	1	0.099500
4.033333	1	0.100000
4.050000	1	0.100625
4.066667	1	0.101000
4.083333	1	0.101375
4.100000	1	0.101625
4.116667	1	0.101750
4.133333	1	0.101125
4.150000	1	0.101375
4.166667	1	0.101000
4.183333	1	0.101125
4.200000	1	0.101250
4.216667	1	0.101500
4.233333	1	0.102000
4.250000	1	0.101125
4.266667	1	0.101625
4.283333	1	0.101500
4.300000	1	0.101500
4.316667	1	0.101750
4.333333	1	0.101875
4.350000	1	0.102125
4.366667	1	0.102125
4.383333	1	0.102875
4.400000	1	0.103375
4.416667	1	0.103625
4.433333	1	0.104250
4.450000	1	0.104250
4.466667	1	0.104625
4.483333	1	0.105000
4.500000	1	0.105250
4.516667	1	0.105750
4.533333	1	0.105750
4.550000	1	0.107250
4.566667	1	0.107875
4.583333	1	0.108875
4.600000	1	0.109125
4.616667	1	0.109750
4.633333	1	0.109500
4.650000	1	0.111000
4.666667	1	0.112000
4.683333	1	0.113125
4.700000	1	0.114500
4.716667	1	0.115375
4.733333	1	0.116375
4.750000	1	0.117125
4.766667	1	0.118625
4.783333	1	0.120250
4.800000	1	0.122250
4.816667	1	0.124000
4.833333	1	0.125750
4.850000	1	0.127500
4.866667	1	0.129500
4.883333	1	0.131500
4.900000	1	0.134250
4.916667	1	0.136750
4.933333	1	0.140000
4.950000	1	0.143000
4.966667	1	0.145500
4.983333	1	0.148125
5.000000	1	0.150875
5.016667	1	0.153500
5.033333	1	0.157375
5.050000	1	0.161000
5.066667	1	0.164125
5.083333	1	0.166875
5.100000	1	0.170125
5.116667	1	0.173750
5.133333	1	0.177375
5.150000	1	0.180875
5.166667	1	0.184750
5.183333	1	0.188000
5.200000	1	0.191625
5.216667	1	0.195125
5.233333	1	0.198375
5.250000	1	0.202000
5.266667	1	0.205125
5.283333	1	0.208250
5.300000	1	0.211625
5.316667	1	0.215375
5.333333	1	0.218875
5.350000	1	0.222750
5.366667	1	0.226375
5.383333	1	0.229875
5.400000	1	0.233500
5.416667	1	0.237250
5.433333	1	0.241375
5.450000	1	0.244750
5.466667	1	0.248000
5.483333	1	0.251625
5.500000	1	0.255500
5.516667	1	0.259000
5.533333	1	0.262000
5.550000	1	0.265000
5.566667	1	0.268375
5.583333	1	0.271375
5.600000	1	0.274625
5.616667	1	0.277125
5.633333	1	0.279875
5.650000	1	0.282375
5.666667	1	0.285000
5.683333	1	0.286875
5.700000	1	0.288250
5.716667	1	0.289375
5.733333	1	0.290500
5.750000	1	0.291000
5.766667	1	0.292000
5.783333	1	0.292375
5.800000	1	0.293250
5.816667	1	0.293125
5.833333	1	0.293500
5.850000	1	0.293125
5.866667	1	0.292750
5.883333	1	0.291750
5.900000	1	0.291000
5.916667	1	0.289375
5.933333	1	0.287875
5.950000	1	0.286000
5.966667	1	0.284250
5.983333	1	0.282375
6.000000	1	0.280750
6.016667	1	0.278375
6.033333	1	0.276250
6.050000	1	0.273375
6.066667	1	0.270750
6.083333	1	0.267625
6.100000	1	0.265000
6.116667	1	0.262375
6.133333	1	0.259375
6.150000	1	0.256875
6.166667	1	0.253500
6.183333	1	0.250500
6.200000	1	0.247875
6.216667	1	0.244875
6.233333	1	0.241000
6.250000	1	0.237250
6.266667	1	0.234375
6.283333	1	0.231000
6.300000	1	0.228125
6.316667	1	0.223875
6.333333	1	0.220500
6.350000	1	0.216750
6.366667	1	0.213625
6.383333	1	0.211125
6.400000	1	0.208375
6.416667	1	0.204875
6.433333	1	0.201250
6.450000	1	0.198500
6.466667	1	0.196000
6.483333	1	0.193250
6.500000	1	0.190625
6.516667	1	0.187625
6.533333	1	0.185375
6.550000	1	0.183125
6.566667	1	0.181500
6.583333	1	0.179125
6.600000	1	0.176750
6.616667	1	0.175250
6.633333	1	0.173250
6.650000	1	0.170875
6.666667	1	0.169125
6.683333	1	0.167625
6.700000	1	0.166750
6.716667	1	0.165000
6.733333	1	0.163750
6.750000	1	0.162875
6.766667	1	0.161250
6.783333	1	0.159875
6.800000	1	0.159000
6.816667	1	0.158500
6.833333	1	0.157250
6.850000	1	0.156375
6.866667	1	0.155375
6.883333	1	0.154750
6.900000	1	0.154250
6.916667	1	0.154125
6.933333	1	0.154125
6.950000	1	0.153875
6.966667	1	0.153500
6.983333	1	0.153250
7.000000	1	0.153750
7.016667	1	0.153625
7.033333	1	0.154250
7.050000	1	0.154625
7.066667	1	0.155125
7.083333	1	0.155875
7.100000	1	0.157000
7.116667	1	0.158625
7.133333	1	0.159500
7.150000	1	0.160750
7.166667	1	0.162125
7.183333	1	0.163875
7.200000	1	0.166375
7.216667	1	0.168875
7.233333	1	0.171875
7.250000	1	0.174375
7.266667	1	0.177250
7.283333	1	0.179875
7.300000	1	0.182750
7.316667	1	0.185125
7.333333	1	0.188125
7.350000	1	0.191750
7.366667	1	0.195625
7.383333	1	0.199500
7.400000	1	0.202625
7.416667	1	0.206500
7.433333	1	0.209875
7.450000	1	0.212625
7.466667	1	0.216125
7.483333	1	0.218500
7.500000	1	0.221625
7.516667	1	0.224500
7.533333	1	0.226875
7.550000	1	0.229000
7.566667	1	0.231250
7.583333	1	0.233625
7.600000	1	0.235125
7.616667	1	0.236375
7.633333	1	0.237875
7.650000	1	0.238250
7.666667	1	0.238125
7.683333	1	0.237625
7.700000	1	0.236625
7.716667	1	0.236375
7.733333	1	0.235125
7.750000	1	0.233750
7.766667	1	0.232125
7.783333	1	0.229750
7.800000	1	0.227000
7.816667	1	0.224500
7.833333	1	0.221375
7.850000	1	0.217625
7.866667	1	0.214500
7.883333	1	0.210375
7.900000	1	0.205625
7.916667	1	0.201625
7.933333	1	0.197250
7.950000	1	0.192375
7.966667	1	0.187875
7.983333	1	0.184250
8.000000	1	0.179625
8.016667	1	0.174500
8.033333	1	0.170250
8.050000	1	0.165750
8.066667	1	0.161875
8.083333	1	0.156625
8.100000	1	0.152750
8.116667	1	0.148125
8.133333	1	0.143750
8.150000	1	0.140375
8.166667	1	0.136500
8.183333	1	0.132000
8.200000	1	0.128125
8.216667	1	0.124625
8.233333	1	0.120750
8.250000	1	0.117375
8.266667	1	0.113500
8.283333	1	0.110625
8.300000	1	0.108125
8.316667	1	0.104750
8.333333	1	0.102500
8.350000	1	0.099875
8.366667	1	0.097750
8.383333	1	0.095000
8.400000	1	0.092500
8.416667	1	0.090375
8.433333	1	0.089250
8.450000	1	0.087000
8.466667	1	0.085125
8.483333	1	0.083375
8.500000	1	0.082750
8.516667	1	0.081250
8.533333	1	0.080250
8.550000	1	0.080000
8.566667	1	0.079500
8.583333	1	0.078500
8.600000	1	0.077750
8.616667	1	0.077750
8.633333	1	0.077875
8.650000	1	0.077625
8.666667	1	0.078125
8.683333	1	0.078375
8.700000	1	0.078250
8.716667	1	0.078750
8.733333	1	0.079875
8.750000	1	0.080875
8.766667	1	0.082000
8.783333	1	0.083750
8.800000	1	0.085500
8.816667	1	0.087000
8.833333	1	0.088500
8.850000	1	0.090375
8.866667	1	0.092250
8.883333	1	0.093750
8.900000	1	0.096000
8.916667	1	0.098000
8.933333	1	0.099625
8.950000	1	0.101500
8.966667	1	0.103625
8.983333	1	0.105875
9.000000	1	0.108000
9.016667	1	0.109750
9.033333	1	0.111875
9.050000	1	0.113875
9.066667	1	0.116000
9.083333	1	0.117875
9.100000	1	0.120375
9.116667	1	0.122625
9.133333	1	0.124250
9.150000	1	0.126750
9.166667	1	0.129000
9.183333	1	0.130750
9.200000	1	0.132875
9.216667	1	0.133875
9.233333	1	0.136125
9.250000	1	0.137625
9.266667	1	0.139125
9.283333	1	0.141125
9.300000	1	0.142625
9.316667	1	0.144000
9.333333	1	0.145375
9.350000	1	0.146375
9.366667	1	0.148125
9.383333	1	0.148750
9.400000	1	0.149750
9.416667	1	0.150375
9.433333	1	0.151625
9.450000	1	0.151625
9.466667	1	0.151750
9.483333	1	0.152250
9.500000	1	0.152125
9.516667	1	0.152000
9.533333	1	0.152000
9.550000	1	0.151250
9.566667	1	0.150125
9.583333	1	0.149250
9.600000	1	0.148000
9.616667	1	0.147000
9.633333	1	0.145625
9.650000	1	0.143875
9.666667	1	0.142125
9.683333	1	0.141125
9.700000	1	0.139625
9.716667	1	0.137750
9.733333	1	0.134875
9.750000	1	0.132625
9.766667	1	0.130750
9.783333	1	0.128625
9.800000	1	0.126625
9.816667	1	0.124625
9.833333	1	0.122375
9.850000	1	0.120375
9.866667	1	0.118250
9.883333	1	0.116125
9.900000	1	0.114250
9.916667	1	0.112750
9.933333	1	0.111000
9.950000	1	0.108875
9.966667	1	0.108750
9.983333	1	0.108375
10.000000	1	0.108625
10.016667	1	0.109000
10.033333	1	0.110125
10.050000	1	0.111625
10.066667	1	0.113250
10.083333	1	0.116375
10.100000	1	0.120625
10.116667	1	0.125500
10.133333	1	0.131250
10.150000	1	0.137875
10.166667	1	0.145750
10.183333	1	0.155125
10.200000	1	0.165750
10.216667	1	0.177500
10.233333	1	0.191125
10.250000	1	0.207500
10.266667	1	0.224875
10.283333	1	0.244625
10.300000	1	0.267375
10.316667	1	0.292375
10.333333	1	0.320000
10.350000	1	0.350125
10.366667	1	0.382750
10.383333	1	0.417500
10.400000	1	0.451500
10.416667	1	0.479875
10.433333	1	0.497375
10.450000	1	0.495000
10.466667	1	0.466375
10.483333	1	0.411750
10.500000	1	0.342875
10.516667	1	0.291000
10.533333	1	0.310000
10.550000	1	0.472375
10.566667	1	0.862500
10.583333	1	1.568500
10.600000	1	2.672875
10.616667	1	4.243000
10.633333	1	6.326500
10.650000	1	8.950125
10.666667	1	12.126125
10.683333	1	15.847125
10.700000	1	20.086500
10.716667	1	24.787625
10.733333	1	29.860125
10.750000	1	35.162125
10.766667	1	40.486125
10.783333	1	45.541875
10.800000	1	49.961375
10.816667	1	53.313750
10.833333	1	55.188375
10.850000	1	55.303000
10.866667	1	53.599875
10.883333	1	50.283375
10.900000	1	45.765500
10.916667	1	40.561625
10.933333	1	35.158750
10.950000	1	29.938500
10.966667	1	25.151375
10.983333	1	20.928625
11.000000	1	17.311250
11.016667	1	14.286125
11.033333	1	11.805000
11.050000	1	9.803000
11.066667	1	8.204375
11.083333	1	6.938375
11.100000	1	5.938000
11.116667	1	5.145750
11.133333	1	4.515625
11.150000	1	4.010375
11.166667	1	3.600000
11.183333	1	3.263875
11.200000	1	2.984250
11.216667	1	2.749250
11.233333	1	2.549250
11.250000	1	2.376250
11.266667	1	2.226750
11.283333	1	2.095625
11.300000	1	1.979875
11.316667	1	1.878250
11.333333	1	1.789250
11.350000	1	1.710250
11.366667	1	1.640500
11.383333	1	1.578750
11.400000	1	1.524625
11.416667	1	1.476625
11.433333	1	1.435125
11.450000	1	1.398375
11.466667	1	1.367375
11.483333	1	1.340500
11.500000	1	1.317500
11.516667	1	1.298125
11.533333	1	1.282500
11.550000	1	1.270250
11.566667	1	1.260875
11.583333	1	1.252875
11.600000	1	1.247250
11.616667	1	1.242375
11.633333	1	1.237375
11.650000	1	1.232125
11.666667	1	1.227000
11.683333	1	1.221750
11.700000	1	1.215625
11.716667	1	1.209000
11.733333	1	1.202750
11.750000	1	1.195875
11.766667	1	1.189750
11.783333	1	1.184500
11.800000	1	1.180125
11.816667	1	1.176375
11.833333	1	1.173250
11.850000	1	1.171375
11.866667	1	1.171000
11.883333	1	1.170875
11.900000	1	1.170625
11.916667	1	1.171500
11.933333	1	1.174375
11.950000	1	1.177125
11.966667	1	1.180000
11.983333	1	1.183250
12.000000	1	1.187000
12.016667	1	1.191250
12.033333	1	1.195625
12.050000	1	1.200625
12.066667	1	1.206125
12.083333	1	1.210875
12.100000	1	1.216500
12.116667	1	1.221750
12.133333	1	1.227500
12.150000	1	1.233375
12.166667	1	1.239375
12.183333	1	1.245375
12.200000	1	1.251625
12.216667	1	1.259250
12.233333	1	1.268125
12.250000	1	1.278375
12.266667	1	1.290250
12.283333	1	1.304000
12.300000	1	1.319125
12.316667	1	1.337125
12.333333	1	1.359125
12.350000	1	1.384500
12.366667	1	1.416125
12.383333	1	1.456000
12.400000	1	1.509125
12.416667	1	1.579750
12.433333	1	1.674250
12.450000	1	1.800500
12.466667	1	1.965750
12.483333	1	2.177750
12.500000	1	2.442750
12.516667	1	2.763500
12.533333	1	3.141375
12.550000	1	3.573000
12.566667	1	4.051000
12.583333	1	4.564000
12.600000	1	5.097500
12.616667	1	5.633750
12.633333	1	6.156000
12.650000	1	6.646500
12.666667	1	7.091500
12.683333	1	7.476625
12.700000	1	7.793250
12.716667	1	8.032375
12.733333	1	8.188875
12.750000	1	8.261625
12.766667	1	8.252250
12.783333	1	8.164875
12.800000	1	8.007375
12.816667	1	7.791250
12.833333	1	7.530500
12.850000	1	7.236375
12.866667	1	6.922000
12.883333	1	6.596375
12.900000	1	6.266875
12.916667	1	5.938750
12.933333	1	5.616500
12.950000	1	5.305000
12.966667	1	5.007875
12.983333	1	4.728250
13.000000	1	4.468125
13.016667	1	4.230250
13.033333	1	4.014125
13.050000	1	3.820250
13.066667	1	3.645875
13.083333	1	3.490375
13.100000	1	3.351500
13.116667	1	3.228125
13.133333	1	3.116875
13.150000	1	3.016625
13.166667	1	2.925500
13.183333	1	2.841875
13.200000	1	2.765125
13.216667	1	2.694500
13.233333	1	2.628625
13.250000	1	2.567125
13.266667	1	2.509000
13.283333	1	2.454625
13.300000	1	2.402875
13.316667	1	2.353625
13.333333	1	2.307125
13.350000	1	2.264000
13.366667	1	2.222625
13.383333	1	2.184125
13.400000	1	2.148750
13.416667	1	2.115500
13.433333	1	2.084875
13.450000	1	2.058500
13.466667	1	2.036250
13.483333	1	2.016750
13.500000	1	2.001125
13.516667	1	1.988625
13.533333	1	1.979125
13.550000	1	1.971625
13.566667	1	1.966125
13.583333	1	1.960500
13.600000	1	1.955000
13.616667	1	1.946875
13.633333	1	1.936250
13.650000	1	1.921875
13.666667	1	1.904125
13.683333	1	1.882750
13.700000	1	1.858125
13.716667	1	1.831125
13.733333	1	1.802875
13.750000	1	1.772375
13.766667	1	1.741000
13.783333	1	1.710125
13.800000	1	1.680125
13.816667	1	1.651500
13.833333	1	1.623875
13.850000	1	1.598375
13.866667	1	1.573625
13.883333	1	1.551000
13.900000	1	1.530125
13.916667	1	1.510625
13.933333	1	1.492125
13.950000	1	1.475375
13.966667	1	1.459375
13.983333	1	1.444625
14.000000	1	1.430500
14.016667	1	1.417625
14.033333	1	1.405375
14.050000	1	1.393625
14.066667	1	1.381875
14.083333	1	1.371250
14.100000	1	1.361000
14.116667	1	1.350375
14.133333	1	1.341000
14.150000	1	1.331125
14.166667	1	1.322000
14.183333	1	1.313250
14.200000	1	1.306375
14.216667	1	1.300375
14.233333	1	1.295375
14.250000	1	1.291125
14.266667	1	1.288500
14.283333	1	1.287500
14.300000	1	1.288625
14.316667	1	1.291000
14.333333	1	1.295625
14.350000	1	1.302375
14.366667	1	1.311125
14.383333	1	1.321750
14.400000	1	1.335625
14.416667	1	1.353750
14.433333	1	1.378000
14.450000	1	1.413000
14.466667	1	1.463250
14.483333	1	1.539625
14.500000	1	1.653875
14.516667	1	1.825875
14.533333	1	2.080125
14.550000	1	2.449875
14.566667	1	2.978750
14.583333	1	3.713375
14.600000	1	4.711250
14.616667	1	6.032875
14.633333	1	7.738250
14.650000	1	9.882500
14.666667	1	12.504125
14.683333	1	15.621375
14.700000	1	19.217875
14.716667	1	23.235875
14.733333	1	27.583000
14.750000	1	32.127500
14.766667	1	36.704250
14.783333	1	41.120000
14.800000	1	45.177875
14.816667	1	48.689625
14.833333	1	51.488500
14.850000	1	53.442375
14.866667	1	54.470875
14.883333	1	54.548625
14.900000	1	53.707125
14.916667	1	52.030875
14.933333	1	49.644500
14.950000	1	46.697125
14.966667	1	43.349875
14.983333	1	39.764875
15.000000	1	36.086125
15.016667	1	32.436750
15.033333	1	28.911125
15.050000	1	25.584250
15.066667	1	22.504750
15.083333	1	19.700250
15.100000	1	17.181250
15.116667	1	14.945000
15.133333	1	12.975250
15.150000	1	11.253625
15.166667	1	9.758375
15.183333	1	8.468125
15.200000	1	7.358750
15.216667	1	6.408250
15.233333	1	5.597250
15.250000	1	4.908250
15.266667	1	4.326875
15.283333	1	3.839375
15.300000	1	3.435375
15.316667	1	3.104125
15.333333	1	2.835500
15.350000	1	2.621500
15.366667	1	2.453625
15.383333	1	2.325875
15.400000	1	2.229500
15.416667	1	2.158750
15.433333	1	2.107125
15.450000	1	2.069500
15.466667	1	2.040750
15.483333	1	2.016000
15.500000	1	1.992125
15.516667	1	1.967000
15.533333	1	1.939500
15.550000	1	1.907000
15.566667	1	1.871125
15.583333	1	1.832125
15.600000	1	1.791250
15.616667	1	1.749125
15.633333	1	1.706375
15.650000	1	1.665000
15.666667	1	1.625125
15.683333	1	1.587250
15.700000	1	1.552625
15.716667	1	1.520625
15.733333	1	1.490250
15.750000	1	1.463750
15.766667	1	1.439125
15.783333	1	1.416875
15.800000	1	1.396250
15.816667	1	1.377750
15.833333	1	1.360500
15.850000	1	1.345875
15.866667	1	1.332625
15.883333	1	1.320500
15.900000	1	1.311000
15.916667	1	1.303250
15.933333	1	1.297000
15.950000	1	1.291000
15.966667	1	1.286375
15.983333	1	1.282500
16.000000	1	1.278875
16.016667	1	1.276500
16.033333	1	1.274500
16.050000	1	1.272750
16.066667	1	1.270125
16.083333	1	1.266875
16.100000	1	1.264250
16.116667	1	1.260500
16.133333	1	1.256750
16.150000	1	1.253375
16.166667	1	1.250375
16.183333	1	1.246375
16.200000	1	1.240875
16.216667	1	1.234500
16.233333	1	1.227875
16.250000	1	1.221125
16.266667	1	1.213375
16.283333	1	1.205500
16.300000	1	1.196375
16.316667	1	1.187375
16.333333	1	1.178875
16.350000	1	1.170625
16.366667	1	1.163500
16.383333	1	1.157750
16.400000	1	1.152875
16.416667	1	1.149000
16.433333	1	1.146625
16.450000	1	1.145875
16.466667	1	1.145125
16.483333	1	1.146125
16.500000	1	1.146875
16.516667	1	1.148500
16.533333	1	1.150125
16.550000	1	1.152625
16.566667	1	1.154000
16.583333	1	1.154875
16.600000	1	1.154500
16.616667	1	1.153750
16.633333	1	1.152875
16.650000	1	1.152250
16.666667	1	1.151375
16.683333	1	1.151000
16.700000	1	1.151375
16.716667	1	1.153125
16.733333	1	1.156000
16.750000	1	1.160750
16.766667	1	1.166875
16.783333	1	1.173625
16.800000	1	1.182250
16.816667	1	1.191000
16.833333	1	1.199875
16.850000	1	1.208250
16.866667	1	1.216500
16.883333	1	1.223250
16.900000	1	1.228500
16.916667	1	1.231625
16.933333	1	1.233750
16.950000	1	1.233625
16.966667	1	1.231750
16.983333	1	1.228875
17.000000	1	1.224500
17.016667	1	1.219125
17.033333	1	1.213375
17.050000	1	1.207875
17.066667	1	1.200875
17.083333	1	1.194125
17.100000	1	1.187750
17.116667	1	1.182125
17.133333	1	1.176250
17.150000	1	1.171875
17.166667	1	1.167500
17.183333	1	1.164125
17.200000	1	1.161125
17.216667	1	1.159625
17.233333	1	1.158625
17.250000	1	1.157250
17.266667	1	1.157500
17.283333	1	1.158125
17.300000	1	1.159875
17.316667	1	1.161625
17.333333	1	1.163750
17.350000	1	1.166125
17.366667	1	1.169000
17.383333	1	1.172375
17.400000	1	1.175125
17.416667	1	1.178250
17.433333	1	1.180500
17.450000	1	1.181500
17.466667	1	1.182250
17.483333	1	1.181250
17.500000	1	1.179500
17.516667	1	1.176375
17.533333	1	1.171750
17.550000	1	1.165875
17.566667	1	1.160250
17.583333	1	1.152375
17.600000	1	1.144125
17.616667	1	1.134875
17.633333	1	1.125250
17.650000	1	1.115000
17.666667	1	1.104750
17.683333	1	1.094250
17.700000	1	1.083500
17.716667	1	1.073125
17.733333	1	1.064125
17.750000	1	1.054375
17.766667	1	1.044500
17.783333	1	1.036000
17.800000	1	1.027875
17.816667	1	1.020250
17.833333	1	1.012625
17.850000	1	1.005250
17.866667	1	0.998750
17.883333	1	0.991750
17.900000	1	0.985250
17.916667	1	0.978875
17.933333	1	0.973000
17.950000	1	0.967250
17.966667	1	0.960500
17.983333	1	0.953875
18.000000	1	0.946375
18.016667	1	0.939500
18.033333	1	0.932375
18.050000	1	0.925125
18.066667	1	0.918750
18.083333	1	0.912625
18.100000	1	0.906125
18.116667	1	0.900875
18.133333	1	0.896000
18.150000	1	0.892000
18.166667	1	0.888375
18.183333	1	0.886000
18.200000	1	0.884000
18.216667	1	0.882500
18.233333	1	0.881000
18.250000	1	0.880000
18.266667	1	0.879250
18.283333	1	0.877625
18.300000	1	0.876375
18.316667	1	0.876000
18.333333	1	0.875375
18.350000	1	0.874875
18.366667	1	0.874750
18.383333	1	0.875000
18.400000	1	0.875500
18.416667	1	0.876625
18.433333	1	0.878250
18.450000	1	0.881125
18.466667	1	0.884875
18.483333	1	0.889250
18.500000	1	0.893500
18.516667	1	0.899750
18.533333	1	0.905500
18.550000	1	0.912500
18.566667	1	0.920125
18.583333	1	0.927875
18.600000	1	0.935250
18.616667	1	0.943250
18.633333	1	0.950625
18.650000	1	0.958125
18.666667	1	0.964625
18.683333	1	0.971500
18.700000	1	0.976875
18.716667	1	0.981625
18.733333	1	0.985000
18.750000	1	0.987125
18.766667	1	0.988375
18.783333	1	0.987875
18.800000	1	0.987000
18.816667	1	0.984000
18.833333	1	0.980000
18.850000	1	0.974000
18.866667	1	0.967375
18.883333	1	0.958875
18.900000	1	0.948625
18.916667	1	0.937375
18.933333	1	0.925750
18.950000	1	0.913125
18.966667	1	0.899625
18.983333	1	0.886125
19.000000	1	0.872250
19.016667	1	0.857375
19.033333	1	0.843375
19.050000	1	0.830250
19.066667	1	0.817875
19.083333	1	0.807500
19.100000	1	0.800125
19.116667	1	0.796250
19.133333	1	0.796750
19.150000	1	0.801625
19.166667	1	0.813375
19.183333	1	0.833125
19.200000	1	0.862500
19.216667	1	0.901750
19.233333	1	0.954000
19.250000	1	1.020500
19.266667	1	1.101875
19.283333	1	1.198875
19.300000	1	1.311125
19.316667	1	1.440750
19.333333	1	1.585250
19.350000	1	1.742375
19.366667	1	1.909875
19.383333	1	2.085250
19.400000	1	2.262875
19.416667	1	2.439375
19.433333	1	2.608000
19.450000	1	2.765750
19.466667	1	2.906250
19.483333	1	3.026875
19.500000	1	3.122375
19.516667	1	3.191250
19.533333	1	3.232125
19.550000	1	3.244500
19.566667	1	3.229375
19.583333	1	3.187000
19.600000	1	3.120625
19.616667	1	3.033750
19.633333	1	2.929750
19.650000	1	2.812125
19.666667	1	2.684625
19.683333	1	2.550875
19.700000	1	2.414375
19.716667	1	2.278125
19.733333	1	2.144375
19.750000	1	2.014500
19.766667	1	1.889875
19.783333	1	1.771625
19.800000	1	1.660875
19.816667	1	1.557750
19.833333	1	1.463625
19.850000	1	1.377250
19.866667	1	1.300000
19.883333	1	1.231875
19.900000	1	1.173250
19.916667	1	1.124125
19.933333	1	1.086500
19.950000	1	1.060125
19.966667	1	1.046750
19.983333	1	1.048375
20.000000	1	1.066125
20.016667	1	1.100875
20.033333	1	1.154875
20.050000	1	1.229500
20.066667	1	1.324250
20.083333	1	1.441375
20.100000	1	1.579625
20.116667	1	1.739625
20.133333	1	1.918250
20.150000	1	2.113875
20.166667	1	2.320875
20.183333	1	2.536125
20.200000	1	2.752625
20.216667	1	2.964750
20.233333	1	3.166250
20.250000	1	3.349500
20.266667	1	3.509375
20.283333	1	3.639250
20.300000	1	3.736000
20.316667	1	3.797500
20.333333	1	3.821500
20.350000	1	3.807625
20.366667	1	3.758750
20.383333	1	3.677125
20.400000	1	3.565625
20.416667	1	3.430875
20.433333	1	3.277375
20.450000	1	3.111875
20.466667	1	2.939500
20.483333	1	2.766625
20.500000	1	2.597875
20.516667	1	2.438500
20.533333	1	2.293000
20.550000	1	2.164625
20.566667	1	2.057625
20.583333	1	1.974000
20.600000	1	1.915625
20.616667	1	1.884625
20.633333	1	1.882250
20.650000	1	1.910000
20.666667	1	1.966000
20.683333	1	2.050250
20.700000	1	2.159625
20.716667	1	2.292375
20.733333	1	2.444375
20.750000	1	2.611375
20.766667	1	2.787375
20.783333	1	2.966375
20.800000	1	3.141875
20.816667	1	3.306875
20.833333	1	3.455250
20.850000	1	3.581750
20.866667	1	3.680875
20.883333	1	3.749500
20.900000	1	3.783875
20.916667	1	3.784500
20.933333	1	3.752250
20.950000	1	3.687875
20.966667	1	3.593625
20.983333	1	3.473250
21.000000	1	3.333125
21.016667	1	3.176000
21.033333	1	3.008250
21.050000	1	2.833250
21.066667	1	2.655625
21.083333	1	2.479125
21.100000	1	2.307500
21.116667	1	2.142250
21.133333	1	1.985125
21.150000	1	1.837500
21.166667	1	1.700750
21.183333	1	1.574625
21.200000	1	1.459125
21.216667	1	1.354625
21.233333	1	1.259500
21.250000	1	1.174500
21.266667	1	1.098375
21.283333	1	1.030750
21.300000	1	0.969875
21.316667	1	0.915375
21.333333	1	0.867375
21.350000	1	0.824375
21.366667	1	0.786375
21.383333	1	0.752250
21.400000	1	0.723000
21.416667	1	0.697125
21.433333	1	0.674375
21.450000	1	0.655500
21.466667	1	0.639125
21.483333	1	0.624875
21.500000	1	0.613000
21.516667	1	0.603750
21.533333	1	0.597750
21.550000	1	0.595125
21.566667	1	0.595125
21.583333	1	0.598750
21.600000	1	0.606125
21.616667	1	0.617750
21.633333	1	0.634125
21.650000	1	0.653750
21.666667	1	0.679125
21.683333	1	0.709000
21.700000	1	0.744375
21.716667	1	0.783750
21.733333	1	0.828500
21.750000	1	0.878125
21.766667	1	0.931625
21.783333	1	0.988375
21.800000	1	1.046625
21.816667	1	1.106000
21.833333	1	1.165625
21.850000	1	1.224000
21.866667	1	1.279875
21.883333	1	1.332625
21.900000	1	1.380375
21.916667	1	1.422125
21.933333	1	1.456750
21.950000	1	1.484125
21.966667	1	1.503500
21.983333	1	1.514500
22.000000	1	1.517125
22.016667	1	1.512125
22.033333	1	1.499250
22.050000	1	1.479250
22.066667	1	1.453875
22.083333	1	1.423625
22.100000	1	1.388625
22.116667	1	1.350750
22.133333	1	1.309875
22.150000	1	1.267500
22.166667	1	1.223625
22.183333	1	1.180000
22.200000	1	1.135875
22.216667	1	1.092375
22.233333	1	1.049500
22.250000	1	1.007375
22.266667	1	0.967000
22.283333	1	0.927750
22.300000	1	0.890750
22.316667	1	0.855500
22.333333	1	0.821500
22.350000	1	0.789375
22.366667	1	0.760000
22.383333	1	0.731750
22.400000	1	0.705250
22.416667	1	0.680500
22.433333	1	0.657375
22.450000	1	0.636250
22.466667	1	0.616875
22.483333	1	0.599875
22.500000	1	0.583500
22.516667	1	0.569125
22.533333	1	0.556125
22.550000	1	0.544500
22.566667	1	0.533750
22.583333	1	0.523625
22.600000	1	0.514250
22.616667	1	0.505375
22.633333	1	0.498000
22.650000	1	0.490750
22.666667	1	0.484125
22.683333	1	0.478875
22.700000	1	0.472750
22.716667	1	0.467625
22.733333	1	0.462500
22.750000	1	0.457125
22.766667	1	0.451875
22.783333	1	0.447125
22.800000	1	0.443000
22.816667	1	0.438250
22.833333	1	0.434625
22.850000	1	0.430500
22.866667	1	0.426875
22.883333	1	0.423750
22.900000	1	0.420375
22.916667	1	0.417500
22.933333	1	0.415500
22.950000	1	0.413750
22.966667	1	0.412875
22.983333	1	0.411625
23.000000	1	0.410000
23.016667	1	0.409000
23.033333	1	0.409125
23.050000	1	0.409375
23.066667	1	0.409625
23.083333	1	0.409750
23.100000	1	0.410250
23.116667	1	0.411875
23.133333	1	0.413000
23.150000	1	0.415250
23.166667	1	0.416125
23.183333	1	0.417375
23.200000	1	0.419000
23.216667	1	0.421000
23.233333	1	0.423125
23.250000	1	0.425375
23.266667	1	0.428375
23.283333	1	0.432125
23.300000	1	0.437875
23.316667	1	0.445000
23.333333	1	0.455375
23.350000	1	0.469750
23.366667	1	0.487750
23.383333	1	0.511875
23.400000	1	0.542375
23.416667	1	0.581875
23.433333	1	0.631250
23.450000	1	0.693375
23.466667	1	0.769375
23.483333	1	0.862000
23.500000	1	0.973500
23.516667	1	1.105875
23.533333	1	1.260375
23.550000	1	1.438000
23.566667	1	1.641000
23.583333	1	1.868125
23.600000	1	2.120000
23.616667	1	2.395000
23.633333	1	2.690375
23.650000	1	3.003250
23.666667	1	3.328500
23.683333	1	3.661250
23.700000	1	3.996125
23.716667	1	4.325250
23.733333	1	4.643875
23.750000	1	4.944000
23.766667	1	5.218500
23.783333	1	5.461125
23.800000	1	5.666125
23.816667	1	5.828875
23.833333	1	5.946500
23.850000	1	6.017750
23.866667	1	6.041125
23.883333	1	6.017875
23.900000	1	5.949250
23.916667	1	5.838125
23.933333	1	5.688000
23.950000	1	5.504875
23.966667	1	5.293125
23.983333	1	5.057750
24.000000	1	4.805125
24.016667	1	4.541250
24.033333	1	4.270375
24.050000	1	3.998750
24.066667	1	3.728375
24.083333	1	3.463375
24.100000	1	3.207250
24.116667	1	2.961375
24.133333	1	2.727500
24.150000	1	2.507250
24.166667	1	2.301125
24.183333	1	2.109375
24.200000	1	1.932375
24.216667	1	1.769625
24.233333	1	1.621250
24.250000	1	1.485625
24.266667	1	1.363250
24.283333	1	1.252500
24.300000	1	1.152750
24.316667	1	1.063625
24.333333	1	0.985000
24.350000	1	0.914500
24.366667	1	0.852500
24.383333	1	0.798375
24.400000	1	0.751000
24.416667	1	0.710250
24.433333	1	0.675125
24.450000	1	0.644250
24.466667	1	0.618625
24.483333	1	0.596375
24.500000	1	0.578000
24.516667	1	0.562750
24.533333	1	0.550750
24.550000	1	0.539875
24.566667	1	0.530875
24.583333	1	0.523250
24.600000	1	0.515750
24.616667	1	0.509875
24.633333	1	0.504000
24.650000	1	0.499625
24.666667	1	0.495000
24.683333	1	0.490375
24.700000	1	0.485625
24.716667	1	0.481250
24.733333	1	0.475875
24.750000	1	0.471125
24.766667	1	0.465500
24.783333	1	0.460125
24.800000	1	0.455125
24.816667	1	0.449750
24.833333	1	0.445000
24.850000	1	0.440375
24.866667	1	0.435375
24.883333	1	0.430375
24.900000	1	0.425625
24.916667	1	0.421375
24.933333	1	0.417750
24.950000	1	0.413625
24.966667	1	0.409875
24.983333	1	0.406875
25.000000	1	0.403875
25.016667	1	0.401250
25.033333	1	0.399125
25.050000	1	0.397125
25.066667	1	0.395250
25.083333	1	0.393375
25.100000	1	0.391250
25.116667	1	0.389500
25.133333	1	0.387875
25.150000	1	0.386375
25.166667	1	0.384875
25.183333	1	0.383625
25.200000	1	0.382375
25.216667	1	0.381375
25.233333	1	0.379875
25.250000	1	0.379125
25.266667	1	0.378250
25.283333	1	0.377750
25.300000	1	0.377375
25.316667	1	0.377000
25.333333	1	0.377375
25.350000	1	0.378000
25.366667	1	0.377875
25.383333	1	0.378500
25.400000	1	0.378500
25.416667	1	0.379500
25.433333	1	0.380250
25.450000	1	0.381375
25.466667	1	0.382250
25.483333	1	0.384125
25.500000	1	0.385375
25.516667	1	0.387375
25.533333	1	0.389250
25.550000	1	0.390875
25.566667	1	0.392500
25.583333	1	0.394500
25.600000	1	0.395875
25.616667	1	0.397000
25.633333	1	0.398500
25.650000	1	0.399375
25.666667	1	0.401375
25.683333	1	0.402375
25.700000	1	0.403375
25.716667	1	0.404250
25.733333	1	0.404875
25.750000	1	0.404875
25.766667	1	0.405750
25.783333	1	0.406000
25.800000	1	0.406500
25.816667	1	0.405750
25.833333	1	0.405500
25.850000	1	0.404875
25.866667	1	0.404500
25.883333	1	0.403375
25.900000	1	0.402375
25.916667	1	0.402000
25.933333	1	0.401750
25.950000	1	0.400750
25.966667	1	0.399750
25.983333	1	0.398625
26.000000	1	0.397750
26.016667	1	0.397500
26.033333	1	0.397375
26.050000	1	0.396500
26.066667	1	0.396000
26.083333	1	0.395750
26.100000	1	0.396500
26.116667	1	0.396375
26.133333	1	0.396625
26.150000	1	0.396875
26.166667	1	0.397000
26.183333	1	0.397500
26.200000	1	0.397500
26.216667	1	0.398250
26.233333	1	0.399000
26.250000	1	0.399750
26.266667	1	0.399750
26.283333	1	0.401000
26.300000	1	0.401250
26.316667	1	0.401125
26.333333	1	0.402000
26.350000	1	0.402000
26.366667	1	0.402500
26.383333	1	0.401875
26.400000	1	0.400875
26.416667	1	0.399875
26.433333	1	0.399750
26.450000	1	0.398875
26.466667	1	0.398000
26.483333	1	0.396375
26.500000	1	0.394375
26.516667	1	0.392750
26.533333	1	0.390750
26.550000	1	0.388250
26.566667	1	0.385750
26.583333	1	0.383250
26.600000	1	0.380250
26.616667	1	0.377375
26.633333	1	0.373500
26.650000	1	0.369500
26.666667	1	0.366250
26.683333	1	0.362125
26.700000	1	0.358500
26.716667	1	0.354000
26.733333	1	0.349750
26.750000	1	0.345375
26.766667	1	0.341000
26.783333	1	0.337125
26.800000	1	0.333000
26.816667	1	0.329125
26.833333	1	0.325000
26.850000	1	0.322000
26.866667	1	0.319125
26.883333	1	0.316375
26.900000	1	0.313250
26.916667	1	0.310625
26.933333	1	0.308750
26.950000	1	0.306125
26.966667	1	0.304750
26.983333	1	0.304125
27.000000	1	0.303500
27.016667	1	0.303125
27.033333	1	0.303000
27.050000	1	0.304250
27.066667	1	0.305375
27.083333	1	0.307500
27.100000	1	0.310500
27.116667	1	0.314000
27.133333	1	0.318375
27.150000	1	0.323750
27.166667	1	0.330375
27.183333	1	0.337625
27.200000	1	0.346500
27.216667	1	0.356625
27.233333	1	0.369250
27.250000	1	0.383250
27.266667	1	0.400250
27.283333	1	0.421125
27.300000	1	0.445250
27.316667	1	0.473625
27.333333	1	0.506625
27.350000	1	0.546000
27.366667	1	0.592000
27.383333	1	0.646375
27.400000	1	0.708375
27.416667	1	0.780250
27.433333	1	0.862750
27.450000	1	0.956625
27.466667	1	1.063000
27.483333	1	1.182625
27.500000	1	1.317000
27.516667	1	1.467125
27.533333	1	1.631125
27.550000	1	1.810375
27.566667	1	2.005125
27.583333	1	2.213000
27.600000	1	2.435125
27.616667	1	2.669000
27.633333	1	2.913250
27.650000	1	3.166625
27.666667	1	3.427125
27.683333	1	3.690375
27.700000	1	3.953125
27.716667	1	4.212500
27.733333	1	4.465125
27.750000	1	4.707000
27.766667	1	4.933875
27.783333	1	5.142125
27.800000	1	5.328000
27.816667	1	5.488500
27.833333	1	5.621875
27.850000	1	5.724500
27.866667	1	5.795625
27.883333	1	5.833500
27.900000	1	5.837375
27.916667	1	5.807500
27.933333	1	5.744625
27.950000	1	5.650625
27.966667	1	5.527625
27.983333	1	5.378375
28.000000	1	5.205500
28.016667	1	5.013500
28.033333	1	4.804875
28.050000	1	4.583625
28.066667	1	4.353375
28.083333	1	4.116375
28.100000	1	3.877250
28.116667	1	3.639000
28.133333	1	3.403625
28.150000	1	3.174500
28.166667	1	2.953625
28.183333	1	2.742250
28.200000	1	2.540750
28.216667	1	2.350875
28.233333	1	2.171875
28.250000	1	2.004750
28.266667	1	1.849250
28.283333	1	1.705500
28.300000	1	1.572625
28.316667	1	1.450875
28.333333	1	1.339000
28.350000	1	1.237375
28.366667	1	1.144875
28.383333	1	1.060125
28.400000	1	0.984250
28.416667	1	0.915375
28.433333	1	0.852500
28.450000	1	0.796500
28.466667	1	0.745875
28.483333	1	0.700875
28.500000	1	0.661000
28.516667	1	0.625500
28.533333	1	0.594000
28.550000	1	0.566125
28.566667	1	0.542000
28.583333	1	0.521375
28.600000	1	0.504250
28.616667	1	0.489750
28.633333	1	0.476875
28.650000	1	0.466125
28.666667	1	0.457500
28.683333	1	0.450250
28.700000	1	0.444125
28.716667	1	0.439875
28.733333	1	0.437500
28.750000	1	0.435250
28.766667	1	0.434500
28.783333	1	0.434500
28.800000	1	0.435125
28.816667	1	0.436000
28.833333	1	0.437125
28.850000	1	0.438875
28.866667	1	0.440750
28.883333	1	0.442375
28.900000	1	0.443250
28.916667	1	0.444625
28.933333	1	0.445375
28.950000	1	0.446625
28.966667	1	0.447625
28.983333	1	0.448125
29.000000	1	0.447625
29.016667	1	0.446250
29.033333	1	0.444625
29.050000	1	0.442375
29.066667	1	0.439750
29.083333	1	0.436125
29.100000	1	0.431500
29.116667	1	0.425000
29.133333	1	0.417875
29.150000	1	0.409625
29.166667	1	0.400000
29.183333	1	0.389000
29.200000	1	0.376625
29.216667	1	0.362625
29.233333	1	0.346500
29.250000	1	0.329500
29.266667	1	0.310000
29.283333	1	0.289375
29.300000	1	0.267250
29.316667	1	0.242625
29.333333	1	0.216625
29.350000	1	0.188750
29.366667	1	0.159375
29.383333	1	0.128625
29.400000	1	0.096250
29.416667	1	0.062000
29.433333	1	0.027250
29.450000	1	-0.008500
29.466667	1	-0.044875
29.483333	1	-0.081875
29.500000	1	-0.118875
29.516667	1	-0.155625
29.533333	1	-0.192375
29.550000	1	-0.229125
29.566667	1	-0.264625
29.583333	1	-0.297875
29.600000	1	-0.330375
29.616667	1	-0.361000
29.633333	1	-0.390000
29.650000	1	-0.415750
29.666667	1	-0.439375
29.683333	1	-0.460250
29.700000	1	-0.478125
29.716667	1	-0.492875
29.733333	1	-0.504500
29.750000	1	-0.512375
29.766667	1	-0.517625
29.783333	1	-0.518625
29.800000	1	-0.517000
29.816667	1	-0.512875
29.833333	1	-0.505375
29.850000	1	-0.495125
29.866667	1	-0.481500
29.883333	1	-0.466125
29.900000	1	-0.448375
29.916667	1	-0.428625
29.933333	1	-0.407375
29.950000	1	-0.385000
29.966667	1	-0.360500
29.983333	1	-0.336125
30.000000	1	-0.310875
30.016667	1	-0.284875
30.033333	1	-0.258500
30.050000	1	-0.232250
30.066667	1	-0.205875
30.083333	1	-0.179875
30.100000	1	-0.154125
30.116667	1	-0.128875
30.133333	1	-0.105000
30.150000	1	-0.081875
30.166667	1	-0.060000
30.183333	1	-0.039000
30.200000	1	-0.018500
30.216667	1	0.000625
30.233333	1	0.018875
30.250000	1	0.036625
30.266667	1	0.052000
30.283333	1	0.067625
30.300000	1	0.081375
30.316667	1	0.094625
30.333333	1	0.106750
30.350000	1	0.118500
30.366667	1	0.128875
30.383333	1	0.138625
30.400000	1	0.147500
30.416667	1	0.155750
30.433333	1	0.163000
30.450000	1	0.169250
30.466667	1	0.176500
30.483333	1	0.182500
30.500000	1	0.188375
30.516667	1	0.194375
30.533333	1	0.199750
30.550000	1	0.205375
30.566667	1	0.211625
30.583333	1	0.216875
30.600000	1	0.222125
30.616667	1	0.227625
30.633333	1	0.233625
30.650000	1	0.240000
30.666667	1	0.246625
30.683333	1	0.252750
30.700000	1	0.259625
30.716667	1	0.266500
30.733333	1	0.274250
30.750000	1	0.282125
30.766667	1	0.289500
30.783333	1	0.297875
30.800000	1	0.306375
30.816667	1	0.315500
30.833333	1	0.325125
30.850000	1	0.334625
30.866667	1	0.344375
30.883333	1	0.355750
30.900000	1	0.366875
30.916667	1	0.380000
30.933333	1	0.392625
30.950000	1	0.407875
30.966667	1	0.424250
30.983333	1	0.442750
31.000000	1	0.463750
31.016667	1	0.487625
31.033333	1	0.513750
31.050000	1	0.544250
31.066667	1	0.578250
31.083333	1	0.616625
31.100000	1	0.660500
31.116667	1	0.710250
31.133333	1	0.765750
31.150000	1	0.827875
31.166667	1	0.897875
31.183333	1	0.976750
31.200000	1	1.063000
31.216667	1	1.158250
31.233333	1	1.262750
31.250000	1	1.376750
31.266667	1	1.498875
31.283333	1	1.629375
31.300000	1	1.768375
31.316667	1	1.914250
31.333333	1	2.067625
31.350000	1	2.226000
31.366667	1	2.388750
31.383333	1	2.554000
31.400000	1	2.720125
31.416667	1	2.886000
31.433333	1	3.049000
31.450000	1	3.208375
31.466667	1	3.361000
31.483333	1	3.505250
31.500000	1	3.639750
31.516667	1	3.761250
31.533333	1	3.868500
31.550000	1	3.962125
31.566667	1	4.038750
31.583333	1	4.099500
31.600000	1	4.142500
31.616667	1	4.167625
31.633333	1	4.174875
31.650000	1	4.163750
31.666667	1	4.135750
31.683333	1	4.091000
31.700000	1	4.029875
31.716667	1	3.955125
31.733333	1	3.867125
31.750000	1	3.766875
31.766667	1	3.656625
31.783333	1	3.537375
31.800000	1	3.411375
31.816667	1	3.279500
31.833333	1	3.142250
31.850000	1	3.003000
31.866667	1	2.861875
31.883333	1	2.720625
31.900000	1	2.580125
31.916667	1	2.441750
31.933333	1	2.306375
31.950000	1	2.174000
31.966667	1	2.046625
31.983333	1	1.922250
32.000000	1	1.804250
32.016667	1	1.690375
32.033333	1	1.581250
32.050000	1	1.477625
32.066667	1	1.380125
32.083333	1	1.286875
32.100000	1	1.199750
32.116667	1	1.117750
32.133333	1	1.040750
32.150000	1	0.967750
32.166667	1	0.899875
32.183333	1	0.836375
32.200000	1	0.776375
32.216667	1	0.721125
32.233333	1	0.668625
32.250000	1	0.620125
32.266667	1	0.575125
32.283333	1	0.532500
32.300000	1	0.493625
32.316667	1	0.458125
32.333333	1	0.425000
32.350000	1	0.393875
32.366667	1	0.366000
32.383333	1	0.340250
32.400000	1	0.316125
32.416667	1	0.293250
32.433333	1	0.272750
32.450000	1	0.254750
32.466667	1	0.237875
32.483333	1	0.222125
32.500000	1	0.208375
32.516667	1	0.195875
32.533333	1	0.184000
32.550000	1	0.172750
32.566667	1	0.163500
32.583333	1	0.154750
32.600000	1	0.147500
32.616667	1	0.140125
32.633333	1	0.133500
32.650000	1	0.127500
32.666667	1	0.121750
32.683333	1	0.116500
32.700000	1	0.112750
32.716667	1	0.108875
32.733333	1	0.104875
32.750000	1	0.101625
32.766667	1	0.098250
32.783333	1	0.095125
32.800000	1	0.092750
32.816667	1	0.090750
32.833333	1	0.088000
32.850000	1	0.086500
32.866667	1	0.084625
32.883333	1	0.083250
32.900000	1	0.081500
32.916667	1	0.080500
32.933333	1	0.079000
32.950000	1	0.077875
32.966667	1	0.076875
32.983333	1	0.075875
33.000000	1	0.075000
33.016667	1	0.075125
33.033333	1	0.074625
33.050000	1	0.074000
33.066667	1	0.074500
33.083333	1	0.074500
33.100000	1	0.074750
33.116667	1	0.074875
33.133333	1	0.075000
33.150000	1	0.075375
33.166667	1	0.075500
33.183333	1	0.077000
33.200000	1	0.077375
33.216667	1	0.078250
33.233333	1	0.079750
33.250000	1	0.081125
33.266667	1	0.082750
33.283333	1	0.084750
33.300000	1	0.086000
33.316667	1	0.087250
33.333333	1	0.088625
33.350000	1	0.090500
33.366667	1	0.092500
33.383333	1	0.094750
33.400000	1	0.097000
33.416667	1	0.098625
33.433333	1	0.100250
33.450000	1	0.102375
33.466667	1	0.104125
33.483333	1	0.106625
33.500000	1	0.108500
33.516667	1	0.109625
33.533333	1	0.111625
33.550000	1	0.112875
33.566667	1	0.115125
33.583333	1	0.117375
33.600000	1	0.118875
33.616667	1	0.120375
33.633333	1	0.122000
33.650000	1	0.123750
33.666667	1	0.125125
33.683333	1	0.126250
33.700000	1	0.127625
33.716667	1	0.129500
33.733333	1	0.131125
33.750000	1	0.132875
33.766667	1	0.134250
33.783333	1	0.135125
33.800000	1	0.136750
33.816667	1	0.138125
33.833333	1	0.139875
33.850000	1	0.141000
33.866667	1	0.141750
33.883333	1	0.142875
33.900000	1	0.144125
33.916667	1	0.145375
33.933333	1	0.146000
33.950000	1	0.147375
33.966667	1	0.148125
33.983333	1	0.149500
34.000000	1	0.151125
34.016667	1	0.152125
34.033333	1	0.153375
34.050000	1	0.153875
34.066667	1	0.155125
34.083333	1	0.155875
34.100000	1	0.157375
34.116667	1	0.157750
34.133333	1	0.159750
34.150000	1	0.160375
34.166667	1	0.161500
34.183333	1	0.163000
34.200000	1	0.164125
34.216667	1	0.165500
34.233333	1	0.165875
34.250000	1	0.167000
34.266667	1	0.167500
34.283333	1	0.168125
34.300000	1	0.168875
34.316667	1	0.169875
34.333333	1	0.170000
34.350000	1	0.170500
34.366667	1	0.171625
34.383333	1	0.172875
34.400000	1	0.173375
34.416667	1	0.174250
34.433333	1	0.175125
34.450000	1	0.175875
34.466667	1	0.175875
34.483333	1	0.176125
34.500000	1	0.177000
34.516667	1	0.177500
34.533333	1	0.178625
34.550000	1	0.178500
34.566667	1	0.178375
34.583333	1	0.179375
34.600000	1	0.180125
34.616667	1	0.180250
34.633333	1	0.180875
34.650000	1	0.180750
34.666667	1	0.181000
34.683333	1	0.181125
34.700000	1	0.181250
34.716667	1	0.181250
34.733333	1	0.181500
34.750000	1	0.181000
34.766667	1	0.180750
34.783333	1	0.180000
34.800000	1	0.179625
34.816667	1	0.178875
34.833333	1	0.178500
34.850000	1	0.177750
34.866667	1	0.177375
34.883333	1	0.176125
34.900000	1	0.176125
34.916667	1	0.175875
34.933333	1	0.175125
34.950000	1	0.175000
34.966667	1	0.174625
34.983333	1	0.174000
35.000000	1	0.173500
35.016667	1	0.172625
35.033333	1	0.171875
35.050000	1	0.171250
35.066667	1	0.170625
35.083333	1	0.170000
35.100000	1	0.169250
35.116667	1	0.168375
35.133333	1	0.167875
35.150000	1	0.167375
35.166667	1	0.166375
35.183333	1	0.165500
35.200000	1	0.164875
35.216667	1	0.164875
35.233333	1	0.164125
35.250000	1	0.164000
35.266667	1	0.163500
35.283333	1	0.163375
35.300000	1	0.162500
35.316667	1	0.162125
35.333333	1	0.162875
35.350000	1	0.162750
35.366667	1	0.162375
35.383333	1	0.162250
35.400000	1	0.163000
35.416667	1	0.163375
35.433333	1	0.164250
35.450000	1	0.164625
35.466667	1	0.165500
35.483333	1	0.166000
35.500000	1	0.167375
35.516667	1	0.168875
35.533333	1	0.170875
35.550000	1	0.172375
35.566667	1	0.173875
35.583333	1	0.176125
35.600000	1	0.178375
35.616667	1	0.180250
35.633333	1	0.182125
35.650000	1	0.184250
35.666667	1	0.187375
35.683333	1	0.189750
35.700000	1	0.191750
35.716667	1	0.194375
35.733333	1	0.196875
35.750000	1	0.200000
35.766667	1	0.201875
35.783333	1	0.205000
35.800000	1	0.207375
35.816667	1	0.209625
35.833333	1	0.212625
35.850000	1	0.215250
35.866667	1	0.217625
35.883333	1	0.220375
35.900000	1	0.222500
35.916667	1	0.225125
35.933333	1	0.226750
35.950000	1	0.229000
35.966667	1	0.231000
35.983333	1	0.232250
36.000000	1	0.233625
36.016667	1	0.235000
36.033333	1	0.236375
36.050000	1	0.237750
36.066667	1	0.239000
36.083333	1	0.240500
36.100000	1	0.240625
36.116667	1	0.241250
36.133333	1	0.242250
36.150000	1	0.242875
36.166667	1	0.243750
36.183333	1	0.243750
36.200000	1	0.244625
36.216667	1	0.244625
36.233333	1	0.245125
36.250000	1	0.245250
36.266667	1	0.245625
36.283333	1	0.245750
36.300000	1	0.246750
36.316667	1	0.247500
36.333333	1	0.248000
36.350000	1	0.248250
36.366667	1	0.249375
36.383333	1	0.250000
36.400000	1	0.250375
36.416667	1	0.250875
36.433333	1	0.250750
36.450000	1	0.251625
36.466667	1	0.252000
36.483333	1	0.253375
36.500000	1	0.253625
36.516667	1	0.253375
36.533333	1	0.253250
36.550000	1	0.253375
36.566667	1	0.253125
36.583333	1	0.253625
36.600000	1	0.253000
36.616667	1	0.251750
36.633333	1	0.250125
36.650000	1	0.248875
36.666667	1	0.246875
36.683333	1	0.245625
36.700000	1	0.243500
36.716667	1	0.241375
36.733333	1	0.238625
36.750000	1	0.236625
36.766667	1	0.234125
36.783333	1	0.231375
36.800000	1	0.227500
36.816667	1	0.224375
36.833333	1	0.220875
36.850000	1	0.216500
36.866667	1	0.213500
36.883333	1	0.209875
36.900000	1	0.206750
36.916667	1	0.203125
36.933333	1	0.199375
36.950000	1	0.196375
36.966667	1	0.192750
36.983333	1	0.189375
37.000000	1	0.185750
37.016667	1	0.182250
37.033333	1	0.179250
37.050000	1	0.176250
37.066667	1	0.172875
37.083333	1	0.170000
37.100000	1	0.167125
37.116667	1	0.165250
37.133333	1	0.162750
37.150000	1	0.160125
37.166667	1	0.158125
37.183333	1	0.157125
37.200000	1	0.155250
37.216667	1	0.153875
37.233333	1	0.153000
37.250000	1	0.152000
37.266667	1	0.151000
37.283333	1	0.149875
37.300000	1	0.149125
37.316667	1	0.148750
37.333333	1	0.148500
37.350000	1	0.148125
37.366667	1	0.147250
37.383333	1	0.147125
37.400000	1	0.146875
37.416667	1	0.147000
37.433333	1	0.147250
37.450000	1	0.146125
37.466667	1	0.145000
37.483333	1	0.144125
37.500000	1	0.143625
37.516667	1	0.143375
37.533333	1	0.143125
37.550000	1	0.142375
37.566667	1	0.141750
37.583333	1	0.141375
37.600000	1	0.141000
37.616667	1	0.140625
37.633333	1	0.139875
37.650000	1	0.139500
37.666667	1	0.138625
37.683333	1	0.138000
37.700000	1	0.137500
37.716667	1	0.137250
37.733333	1	0.136500
37.750000	1	0.135500
37.766667	1	0.134875
37.783333	1	0.134000
37.800000	1	0.133000
37.816667	1	0.132500
37.833333	1	0.131500
37.850000	1	0.131125
37.866667	1	0.130625
37.883333	1	0.130250
37.900000	1	0.129250
37.916667	1	0.129250
37.933333	1	0.128375
37.950000	1	0.127750
37.966667	1	0.127125
37.983333	1	0.126125
38.000000	1	0.124750
38.016667	1	0.123750
38.033333	1	0.123625
38.050000	1	0.122750
38.066667	1	0.121750
38.083333	1	0.121750
38.100000	1	0.121625
38.116667	1	0.121250
38.133333	1	0.121125
38.150000	1	0.120250
38.166667	1	0.119625
38.183333	1	0.118000
38.200000	1	0.118125
38.216667	1	0.118000
38.233333	1	0.118000
38.250000	1	0.117375
38.266667	1	0.117000
38.283333	1	0.116250
38.300000	1	0.115875
38.316667	1	0.115375
38.333333	1	0.116125
38.350000	1	0.116125
38.366667	1	0.116000
38.383333	1	0.115250
38.400000	1	0.115250
38.416667	1	0.115000
38.433333	1	0.114250
38.450000	1	0.114500
38.466667	1	0.114750
38.483333	1	0.114875
38.500000	1	0.114625
38.516667	1	0.114125
38.533333	1	0.114000
38.550000	1	0.113875
38.566667	1	0.114875
38.583333	1	0.114750
38.600000	1	0.114500
38.616667	1	0.114625
38.633333	1	0.115375
38.650000	1	0.115750
38.666667	1	0.115250
38.683333	1	0.116250
38.700000	1	0.116500
38.716667	1	0.116625
38.733333	1	0.117625
38.750000	1	0.119000
38.766667	1	0.119875
38.783333	1	0.120750
38.800000	1	0.121500
38.816667	1	0.122625
38.833333	1	0.123500
38.850000	1	0.124375
38.866667	1	0.126000
38.883333	1	0.126375
38.900000	1	0.127125
38.916667	1	0.126625
38.933333	1	0.128000
38.950000	1	0.127875
38.966667	1	0.128500
38.983333	1	0.129000
39.000000	1	0.129000
39.016667	1	0.128750
39.033333	1	0.127875
39.050000	1	0.126625
39.066667	1	0.126500
39.083333	1	0.126000
39.100000	1	0.125375
39.116667	1	0.124625
39.133333	1	0.123875
39.150000	1	0.122750
39.166667	1	0.120625
39.183333	1	0.119000
39.200000	1	0.116875
39.216667	1	0.115250
39.233333	1	0.112750
39.250000	1	0.111000
39.266667	1	0.109000
39.283333	1	0.106750
39.300000	1	0.105000
39.316667	1	0.103125
39.333333	1	0.100875
39.350000	1	0.098625
39.366667	1	0.096500
39.383333	1	0.094250
39.400000	1	0.092000
39.416667	1	0.089875
39.433333	1	0.087375
39.450000	1	0.085625
39.466667	1	0.083875
39.483333	1	0.082000
39.500000	1	0.080750
39.516667	1	0.079375
39.533333	1	0.078125
39.550000	1	0.076500
39.566667	1	0.075125
39.583333	1	0.074125
39.600000	1	0.073750
39.616667	1	0.073250
39.633333	1	0.073500
39.650000	1	0.073750
39.666667	1	0.073125
39.683333	1	0.073000
39.700000	1	0.072625
39.716667	1	0.072625
39.733333	1	0.072500
39.750000	1	0.072250
39.766667	1	0.072500
39.783333	1	0.072000
39.800000	1	0.072375
39.816667	1	0.073125
39.833333	1	0.073375
39.850000	1	0.073875
39.866667	1	0.073750
39.883333	1	0.073375
39.900000	1	0.072750
39.916667	1	0.072375
39.933333	1	0.071875
39.950000	1	0.071625
39.966667	1	0.070875
39.983333	1	0.070375
40.000000	1	0.069250
