URL	chrom://7040-86g6c92/XVault/Ultimate_3000/20/20240517_CMO_FP23_FP25_MarkusDeplate.seq/388.smp/RI_1.channel/RI_1.chm
Channel	RI_1

Injection Information:
Data Vault	XVault
Sequence	20240517_CMO_FP23_FP25_MarkusDeplate
Name	FP26_19_s2
Number	85
Position	BA2
Comment	
Processing Method	
Instrument Method	run_25B_method
Type	Unknown
Status	Finished
Inject Time	30.05.2024 04:04:41 +02:00
Volume (µl)	20.0000
Dilution Factor	1.0000
Weight	1.0000

Chromatogram Data Information:
Time Min. (min)	0.000000
Time Max. (min)	40.000000
Data Points	2401
Detector	RI
Generating Data System	Chromeleon 7.3.2.11814
Exporting Data System	Chromeleon 7.3.2.0
Operator	Instrument Controller
Signal Quantity	Refractive 
Signal Unit	µRIU
Signal Min.	-0.937125
Signal Max.	64.098375
Channel	RI_1
Driver Name	RID520Driver.dll
Channel Type	Evaluation
Min. Step (s)	1
Max. Step (s)	1
Average Step (s)	1

Signal Parameter Information:
Signal Info	

Chromatogram Data:
Time (min)	Step (s)	Value (µRIU)
0.000000	n.a.	-0.007125
0.016667	1	-0.008000
0.033333	1	-0.009375
0.050000	1	-0.009125
0.066667	1	-0.008875
0.083333	1	-0.009125
0.100000	1	-0.009500
0.116667	1	-0.008750
0.133333	1	-0.007875
0.150000	1	-0.007000
0.166667	1	-0.006375
0.183333	1	-0.006000
0.200000	1	-0.005625
0.216667	1	-0.005125
0.233333	1	-0.004125
0.250000	1	-0.002250
0.266667	1	-0.001125
0.283333	1	0.000500
0.300000	1	0.002125
0.316667	1	0.004500
0.333333	1	0.005875
0.350000	1	0.007250
0.366667	1	0.008625
0.383333	1	0.009625
0.400000	1	0.010500
0.416667	1	0.012625
0.433333	1	0.015500
0.450000	1	0.019125
0.466667	1	0.022875
0.483333	1	0.026500
0.500000	1	0.029500
0.516667	1	0.031125
0.533333	1	0.033000
0.550000	1	0.034125
0.566667	1	0.033625
0.583333	1	0.032125
0.600000	1	0.030625
0.616667	1	0.028750
0.633333	1	0.027500
0.650000	1	0.026375
0.666667	1	0.025625
0.683333	1	0.024375
0.700000	1	0.024000
0.716667	1	0.022250
0.733333	1	0.021000
0.750000	1	0.019250
0.766667	1	0.017500
0.783333	1	0.016500
0.800000	1	0.015000
0.816667	1	0.012875
0.833333	1	0.011250
0.850000	1	0.009000
0.866667	1	0.007000
0.883333	1	0.005500
0.900000	1	0.003250
0.916667	1	0.001750
0.933333	1	-0.000625
0.950000	1	-0.002250
0.966667	1	-0.003625
0.983333	1	-0.004625
1.000000	1	-0.006125
1.016667	1	-0.007500
1.033333	1	-0.008625
1.050000	1	-0.009500
1.066667	1	-0.010125
1.083333	1	-0.011000
1.100000	1	-0.011500
1.116667	1	-0.011125
1.133333	1	-0.011500
1.150000	1	-0.011750
1.166667	1	-0.011625
1.183333	1	-0.012125
1.200000	1	-0.011875
1.216667	1	-0.011125
1.233333	1	-0.010000
1.250000	1	-0.009000
1.266667	1	-0.008500
1.283333	1	-0.007750
1.300000	1	-0.006875
1.316667	1	-0.005875
1.333333	1	-0.005250
1.350000	1	-0.004500
1.366667	1	-0.003875
1.383333	1	-0.003375
1.400000	1	-0.002750
1.416667	1	-0.002375
1.433333	1	-0.002500
1.450000	1	-0.002375
1.466667	1	-0.002375
1.483333	1	-0.003000
1.500000	1	-0.003625
1.516667	1	-0.004250
1.533333	1	-0.004500
1.550000	1	-0.005375
1.566667	1	-0.007250
1.583333	1	-0.008625
1.600000	1	-0.010875
1.616667	1	-0.011750
1.633333	1	-0.012875
1.650000	1	-0.014625
1.666667	1	-0.016125
1.683333	1	-0.017125
1.700000	1	-0.018375
1.716667	1	-0.019500
1.733333	1	-0.021625
1.750000	1	-0.022375
1.766667	1	-0.024250
1.783333	1	-0.025750
1.800000	1	-0.026750
1.816667	1	-0.027875
1.833333	1	-0.027875
1.850000	1	-0.028375
1.866667	1	-0.028250
1.883333	1	-0.028375
1.900000	1	-0.027500
1.916667	1	-0.028000
1.933333	1	-0.027250
1.950000	1	-0.026875
1.966667	1	-0.026875
1.983333	1	-0.026750
2.000000	1	-0.026250
2.016667	1	-0.025625
2.033333	1	-0.025000
2.050000	1	-0.024375
2.066667	1	-0.023875
2.083333	1	-0.023625
2.100000	1	-0.023125
2.116667	1	-0.022875
2.133333	1	-0.022875
2.150000	1	-0.022625
2.166667	1	-0.022375
2.183333	1	-0.021625
2.200000	1	-0.021500
2.216667	1	-0.021750
2.233333	1	-0.021000
2.250000	1	-0.020875
2.266667	1	-0.021125
2.283333	1	-0.020375
2.300000	1	-0.020000
2.316667	1	-0.019250
2.333333	1	-0.019125
2.350000	1	-0.018625
2.366667	1	-0.018375
2.383333	1	-0.017875
2.400000	1	-0.018375
2.416667	1	-0.017500
2.433333	1	-0.016750
2.450000	1	-0.016375
2.466667	1	-0.016250
2.483333	1	-0.016500
2.500000	1	-0.016375
2.516667	1	-0.015875
2.533333	1	-0.015375
2.550000	1	-0.015125
2.566667	1	-0.014875
2.583333	1	-0.013875
2.600000	1	-0.013000
2.616667	1	-0.013250
2.633333	1	-0.013125
2.650000	1	-0.014000
2.666667	1	-0.013500
2.683333	1	-0.013500
2.700000	1	-0.013750
2.716667	1	-0.014000
2.733333	1	-0.013500
2.750000	1	-0.013375
2.766667	1	-0.012500
2.783333	1	-0.012500
2.800000	1	-0.011500
2.816667	1	-0.010625
2.833333	1	-0.010500
2.850000	1	-0.009500
2.866667	1	-0.008750
2.883333	1	-0.008000
2.900000	1	-0.007625
2.916667	1	-0.007500
2.933333	1	-0.006500
2.950000	1	-0.005625
2.966667	1	-0.005250
2.983333	1	-0.004750
3.000000	1	-0.003875
3.016667	1	-0.003125
3.033333	1	-0.002750
3.050000	1	-0.002500
3.066667	1	-0.002625
3.083333	1	-0.002750
3.100000	1	-0.002375
3.116667	1	-0.002750
3.133333	1	-0.002750
3.150000	1	-0.002750
3.166667	1	-0.002875
3.183333	1	-0.003375
3.200000	1	-0.004375
3.216667	1	-0.004250
3.233333	1	-0.004125
3.250000	1	-0.004375
3.266667	1	-0.005000
3.283333	1	-0.004875
3.300000	1	-0.005250
3.316667	1	-0.005375
3.333333	1	-0.005000
3.350000	1	-0.004875
3.366667	1	-0.004375
3.383333	1	-0.004000
3.400000	1	-0.003000
3.416667	1	-0.001875
3.433333	1	-0.000875
3.450000	1	-0.000375
3.466667	1	0.000750
3.483333	1	0.000875
3.500000	1	0.002375
3.516667	1	0.003250
3.533333	1	0.003750
3.550000	1	0.005250
3.566667	1	0.006375
3.583333	1	0.006750
3.600000	1	0.007875
3.616667	1	0.009000
3.633333	1	0.010250
3.650000	1	0.011375
3.666667	1	0.012125
3.683333	1	0.013250
3.700000	1	0.013875
3.716667	1	0.013875
3.733333	1	0.014500
3.750000	1	0.015500
3.766667	1	0.016125
3.783333	1	0.016750
3.800000	1	0.017500
3.816667	1	0.018000
3.833333	1	0.017625
3.850000	1	0.017750
3.866667	1	0.018125
3.883333	1	0.018750
3.900000	1	0.018375
3.916667	1	0.018750
3.933333	1	0.018875
3.950000	1	0.018375
3.966667	1	0.018000
3.983333	1	0.018375
4.000000	1	0.019125
4.016667	1	0.019125
4.033333	1	0.019375
4.050000	1	0.020000
4.066667	1	0.019625
4.083333	1	0.019875
4.100000	1	0.020000
4.116667	1	0.020250
4.133333	1	0.020375
4.150000	1	0.021125
4.166667	1	0.022000
4.183333	1	0.022750
4.200000	1	0.023625
4.216667	1	0.024250
4.233333	1	0.025500
4.250000	1	0.026875
4.266667	1	0.028250
4.283333	1	0.029375
4.300000	1	0.031125
4.316667	1	0.032000
4.333333	1	0.032875
4.350000	1	0.034375
4.366667	1	0.036125
4.383333	1	0.038250
4.400000	1	0.040000
4.416667	1	0.042000
4.433333	1	0.043875
4.450000	1	0.045500
4.466667	1	0.047500
4.483333	1	0.049250
4.500000	1	0.050250
4.516667	1	0.051625
4.533333	1	0.053250
4.550000	1	0.054750
4.566667	1	0.056375
4.583333	1	0.057125
4.600000	1	0.058375
4.616667	1	0.059000
4.633333	1	0.060375
4.650000	1	0.061750
4.666667	1	0.063000
4.683333	1	0.063000
4.700000	1	0.064000
4.716667	1	0.065375
4.733333	1	0.066500
4.750000	1	0.066875
4.766667	1	0.068500
4.783333	1	0.069875
4.800000	1	0.071250
4.816667	1	0.072000
4.833333	1	0.073750
4.850000	1	0.075250
4.866667	1	0.076875
4.883333	1	0.077750
4.900000	1	0.079375
4.916667	1	0.081250
4.933333	1	0.083250
4.950000	1	0.085250
4.966667	1	0.087750
4.983333	1	0.089875
5.000000	1	0.092500
5.016667	1	0.094500
5.033333	1	0.097250
5.050000	1	0.100125
5.066667	1	0.103000
5.083333	1	0.105750
5.100000	1	0.109375
5.116667	1	0.113125
5.133333	1	0.115625
5.150000	1	0.119250
5.166667	1	0.122750
5.183333	1	0.126375
5.200000	1	0.130500
5.216667	1	0.135000
5.233333	1	0.138875
5.250000	1	0.143250
5.266667	1	0.147375
5.283333	1	0.151375
5.300000	1	0.155250
5.316667	1	0.159875
5.333333	1	0.164375
5.350000	1	0.168750
5.366667	1	0.173625
5.383333	1	0.178500
5.400000	1	0.183000
5.416667	1	0.187750
5.433333	1	0.192000
5.450000	1	0.195875
5.466667	1	0.200375
5.483333	1	0.204625
5.500000	1	0.209750
5.516667	1	0.214125
5.533333	1	0.218375
5.550000	1	0.222125
5.566667	1	0.226500
5.583333	1	0.230125
5.600000	1	0.233500
5.616667	1	0.236375
5.633333	1	0.239250
5.650000	1	0.241875
5.666667	1	0.243875
5.683333	1	0.246875
5.700000	1	0.248625
5.716667	1	0.250000
5.733333	1	0.251250
5.750000	1	0.252875
5.766667	1	0.253875
5.783333	1	0.254500
5.800000	1	0.254625
5.816667	1	0.255250
5.833333	1	0.254875
5.850000	1	0.254500
5.866667	1	0.253625
5.883333	1	0.252875
5.900000	1	0.251875
5.916667	1	0.250375
5.933333	1	0.248375
5.950000	1	0.247000
5.966667	1	0.245375
5.983333	1	0.244125
6.000000	1	0.242250
6.016667	1	0.239875
6.033333	1	0.238000
6.050000	1	0.235750
6.066667	1	0.232500
6.083333	1	0.229625
6.100000	1	0.226750
6.116667	1	0.224000
6.133333	1	0.220625
6.150000	1	0.217250
6.166667	1	0.214125
6.183333	1	0.210500
6.200000	1	0.207500
6.216667	1	0.203875
6.233333	1	0.201250
6.250000	1	0.198500
6.266667	1	0.194500
6.283333	1	0.190625
6.300000	1	0.187000
6.316667	1	0.183250
6.333333	1	0.180125
6.350000	1	0.176625
6.366667	1	0.172875
6.383333	1	0.169750
6.400000	1	0.166500
6.416667	1	0.162375
6.433333	1	0.159125
6.450000	1	0.155375
6.466667	1	0.151375
6.483333	1	0.148500
6.500000	1	0.144875
6.516667	1	0.141875
6.533333	1	0.139250
6.550000	1	0.136000
6.566667	1	0.132625
6.583333	1	0.129375
6.600000	1	0.126250
6.616667	1	0.124125
6.633333	1	0.120875
6.650000	1	0.117375
6.666667	1	0.114500
6.683333	1	0.111625
6.700000	1	0.109000
6.716667	1	0.105875
6.733333	1	0.103375
6.750000	1	0.101125
6.766667	1	0.099125
6.783333	1	0.096750
6.800000	1	0.094875
6.816667	1	0.093125
6.833333	1	0.091125
6.850000	1	0.089375
6.866667	1	0.087000
6.883333	1	0.085375
6.900000	1	0.083875
6.916667	1	0.083500
6.933333	1	0.083375
6.950000	1	0.082125
6.966667	1	0.081875
6.983333	1	0.082375
7.000000	1	0.083125
7.016667	1	0.083625
7.033333	1	0.084875
7.050000	1	0.085875
7.066667	1	0.087875
7.083333	1	0.089875
7.100000	1	0.091875
7.116667	1	0.094500
7.133333	1	0.096500
7.150000	1	0.099625
7.166667	1	0.103000
7.183333	1	0.106625
7.200000	1	0.109500
7.216667	1	0.112750
7.233333	1	0.116875
7.250000	1	0.121250
7.266667	1	0.125250
7.283333	1	0.129875
7.300000	1	0.132625
7.316667	1	0.136250
7.333333	1	0.140000
7.350000	1	0.144250
7.366667	1	0.148125
7.383333	1	0.151375
7.400000	1	0.154500
7.416667	1	0.158250
7.433333	1	0.160875
7.450000	1	0.163625
7.466667	1	0.166375
7.483333	1	0.168250
7.500000	1	0.170375
7.516667	1	0.172625
7.533333	1	0.175125
7.550000	1	0.177375
7.566667	1	0.178625
7.583333	1	0.179750
7.600000	1	0.181125
7.616667	1	0.181625
7.633333	1	0.182625
7.650000	1	0.183000
7.666667	1	0.183375
7.683333	1	0.183375
7.700000	1	0.183500
7.716667	1	0.183375
7.733333	1	0.183250
7.750000	1	0.182125
7.766667	1	0.181375
7.783333	1	0.179875
7.800000	1	0.178125
7.816667	1	0.176750
7.833333	1	0.174375
7.850000	1	0.172125
7.866667	1	0.169625
7.883333	1	0.166750
7.900000	1	0.163375
7.916667	1	0.160375
7.933333	1	0.157250
7.950000	1	0.153875
7.966667	1	0.150125
7.983333	1	0.146875
8.000000	1	0.142875
8.016667	1	0.139625
8.033333	1	0.136125
8.050000	1	0.131375
8.066667	1	0.127125
8.083333	1	0.123125
8.100000	1	0.118625
8.116667	1	0.115250
8.133333	1	0.111625
8.150000	1	0.108125
8.166667	1	0.104625
8.183333	1	0.101125
8.200000	1	0.097625
8.216667	1	0.094875
8.233333	1	0.091625
8.250000	1	0.088750
8.266667	1	0.086375
8.283333	1	0.084250
8.300000	1	0.081875
8.316667	1	0.079875
8.333333	1	0.077750
8.350000	1	0.076625
8.366667	1	0.075125
8.383333	1	0.073500
8.400000	1	0.072125
8.416667	1	0.070750
8.433333	1	0.069375
8.450000	1	0.068250
8.466667	1	0.067000
8.483333	1	0.065625
8.500000	1	0.065125
8.516667	1	0.063750
8.533333	1	0.063000
8.550000	1	0.062250
8.566667	1	0.061500
8.583333	1	0.060500
8.600000	1	0.058875
8.616667	1	0.057500
8.633333	1	0.056500
8.650000	1	0.056250
8.666667	1	0.055000
8.683333	1	0.054000
8.700000	1	0.053000
8.716667	1	0.052375
8.733333	1	0.051500
8.750000	1	0.050750
8.766667	1	0.050125
8.783333	1	0.049750
8.800000	1	0.049750
8.816667	1	0.049750
8.833333	1	0.049625
8.850000	1	0.050125
8.866667	1	0.050500
8.883333	1	0.050500
8.900000	1	0.051375
8.916667	1	0.052000
8.933333	1	0.053000
8.950000	1	0.053750
8.966667	1	0.054250
8.983333	1	0.054750
9.000000	1	0.056000
9.016667	1	0.056750
9.033333	1	0.058000
9.050000	1	0.058625
9.066667	1	0.059875
9.083333	1	0.060125
9.100000	1	0.060875
9.116667	1	0.061375
9.133333	1	0.062000
9.150000	1	0.062375
9.166667	1	0.062250
9.183333	1	0.063000
9.200000	1	0.063125
9.216667	1	0.063250
9.233333	1	0.063000
9.250000	1	0.062500
9.266667	1	0.061875
9.283333	1	0.061875
9.300000	1	0.061125
9.316667	1	0.060875
9.333333	1	0.060000
9.350000	1	0.059000
9.366667	1	0.058125
9.383333	1	0.057875
9.400000	1	0.057125
9.416667	1	0.056875
9.433333	1	0.055750
9.450000	1	0.054875
9.466667	1	0.053875
9.483333	1	0.053625
9.500000	1	0.052875
9.516667	1	0.052250
9.533333	1	0.051750
9.550000	1	0.051375
9.566667	1	0.050750
9.583333	1	0.050125
9.600000	1	0.050500
9.616667	1	0.049375
9.633333	1	0.049000
9.650000	1	0.048625
9.666667	1	0.048625
9.683333	1	0.047875
9.700000	1	0.048125
9.716667	1	0.048000
9.733333	1	0.048250
9.750000	1	0.047750
9.766667	1	0.048125
9.783333	1	0.047875
9.800000	1	0.047750
9.816667	1	0.047375
9.833333	1	0.047500
9.850000	1	0.047250
9.866667	1	0.046875
9.883333	1	0.046625
9.900000	1	0.046750
9.916667	1	0.046500
9.933333	1	0.046250
9.950000	1	0.045500
9.966667	1	0.045125
9.983333	1	0.044375
10.000000	1	0.043750
10.016667	1	0.043000
10.033333	1	0.042875
10.050000	1	0.042500
10.066667	1	0.042750
10.083333	1	0.043750
10.100000	1	0.044375
10.116667	1	0.047250
10.133333	1	0.050750
10.150000	1	0.055625
10.166667	1	0.061375
10.183333	1	0.068000
10.200000	1	0.076375
10.216667	1	0.087750
10.233333	1	0.100625
10.250000	1	0.115625
10.266667	1	0.132875
10.283333	1	0.153000
10.300000	1	0.175250
10.316667	1	0.200625
10.333333	1	0.229000
10.350000	1	0.261125
10.366667	1	0.296000
10.383333	1	0.333750
10.400000	1	0.371125
10.416667	1	0.403750
10.433333	1	0.424000
10.450000	1	0.423750
10.466667	1	0.395375
10.483333	1	0.336750
10.500000	1	0.263125
10.516667	1	0.209625
10.533333	1	0.234625
10.550000	1	0.415500
10.566667	1	0.842500
10.583333	1	1.605000
10.600000	1	2.784375
10.616667	1	4.447125
10.633333	1	6.639375
10.650000	1	9.384875
10.666667	1	12.694000
10.683333	1	16.554500
10.700000	1	20.934750
10.716667	1	25.769125
10.733333	1	30.951625
10.750000	1	36.321625
10.766667	1	41.636875
10.783333	1	46.577000
10.800000	1	50.738000
10.816667	1	53.680375
10.833333	1	55.017000
10.850000	1	54.537375
10.866667	1	52.279625
10.883333	1	48.540375
10.900000	1	43.784875
10.916667	1	38.527750
10.933333	1	33.218250
10.950000	1	28.185500
10.966667	1	23.628125
10.983333	1	19.642375
11.000000	1	16.247500
11.016667	1	13.416625
11.033333	1	11.100375
11.050000	1	9.229750
11.066667	1	7.734000
11.083333	1	6.543750
11.100000	1	5.599750
11.116667	1	4.848875
11.133333	1	4.250125
11.150000	1	3.768750
11.166667	1	3.378875
11.183333	1	3.059750
11.200000	1	2.795750
11.216667	1	2.574625
11.233333	1	2.387000
11.250000	1	2.226250
11.266667	1	2.087500
11.283333	1	1.966625
11.300000	1	1.860375
11.316667	1	1.767625
11.333333	1	1.685625
11.350000	1	1.613875
11.366667	1	1.551000
11.383333	1	1.495125
11.400000	1	1.445500
11.416667	1	1.402875
11.433333	1	1.365250
11.450000	1	1.332250
11.466667	1	1.303750
11.483333	1	1.279500
11.500000	1	1.258500
11.516667	1	1.241125
11.533333	1	1.226625
11.550000	1	1.215750
11.566667	1	1.208125
11.583333	1	1.201750
11.600000	1	1.197125
11.616667	1	1.193375
11.633333	1	1.189750
11.650000	1	1.187000
11.666667	1	1.183750
11.683333	1	1.180250
11.700000	1	1.176125
11.716667	1	1.172125
11.733333	1	1.168375
11.750000	1	1.165375
11.766667	1	1.163250
11.783333	1	1.162625
11.800000	1	1.162250
11.816667	1	1.162375
11.833333	1	1.163750
11.850000	1	1.165000
11.866667	1	1.167750
11.883333	1	1.170000
11.900000	1	1.173250
11.916667	1	1.176250
11.933333	1	1.179375
11.950000	1	1.182750
11.966667	1	1.186500
11.983333	1	1.189750
12.000000	1	1.193625
12.016667	1	1.197375
12.033333	1	1.201750
12.050000	1	1.206625
12.066667	1	1.211125
12.083333	1	1.216250
12.100000	1	1.221375
12.116667	1	1.227000
12.133333	1	1.233125
12.150000	1	1.240500
12.166667	1	1.248625
12.183333	1	1.258375
12.200000	1	1.268750
12.216667	1	1.282000
12.233333	1	1.296750
12.250000	1	1.314750
12.266667	1	1.334500
12.283333	1	1.357750
12.300000	1	1.382625
12.316667	1	1.410250
12.333333	1	1.440875
12.350000	1	1.475625
12.366667	1	1.517125
12.383333	1	1.569250
12.400000	1	1.636000
12.416667	1	1.723875
12.433333	1	1.839875
12.450000	1	1.992000
12.466667	1	2.189875
12.483333	1	2.438625
12.500000	1	2.746625
12.516667	1	3.113875
12.533333	1	3.542625
12.550000	1	4.026875
12.566667	1	4.559000
12.583333	1	5.128250
12.600000	1	5.720250
12.616667	1	6.319625
12.633333	1	6.912125
12.650000	1	7.485375
12.666667	1	8.028375
12.683333	1	8.535500
12.700000	1	9.003625
12.716667	1	9.432375
12.733333	1	9.821000
12.750000	1	10.168125
12.766667	1	10.468625
12.783333	1	10.709750
12.800000	1	10.866750
12.816667	1	10.910375
12.833333	1	10.809000
12.850000	1	10.544500
12.866667	1	10.117750
12.883333	1	9.558375
12.900000	1	8.913625
12.916667	1	8.235375
12.933333	1	7.562500
12.950000	1	6.921000
12.966667	1	6.324875
12.983333	1	5.778875
13.000000	1	5.283250
13.016667	1	4.838125
13.033333	1	4.444000
13.050000	1	4.098625
13.066667	1	3.799250
13.083333	1	3.540250
13.100000	1	3.318000
13.116667	1	3.127875
13.133333	1	2.963875
13.150000	1	2.822375
13.166667	1	2.699500
13.183333	1	2.591375
13.200000	1	2.496000
13.216667	1	2.411250
13.233333	1	2.334375
13.250000	1	2.264500
13.266667	1	2.201250
13.283333	1	2.143000
13.300000	1	2.089000
13.316667	1	2.039250
13.333333	1	1.992500
13.350000	1	1.949000
13.366667	1	1.908625
13.383333	1	1.872750
13.400000	1	1.839750
13.416667	1	1.810000
13.433333	1	1.783500
13.450000	1	1.761375
13.466667	1	1.743375
13.483333	1	1.729250
13.500000	1	1.718000
13.516667	1	1.710875
13.533333	1	1.706375
13.550000	1	1.704000
13.566667	1	1.702250
13.583333	1	1.700750
13.600000	1	1.697750
13.616667	1	1.693125
13.633333	1	1.685750
13.650000	1	1.674750
13.666667	1	1.660250
13.683333	1	1.642500
13.700000	1	1.620875
13.716667	1	1.596125
13.733333	1	1.570000
13.750000	1	1.542875
13.766667	1	1.516125
13.783333	1	1.488750
13.800000	1	1.462375
13.816667	1	1.437250
13.833333	1	1.413750
13.850000	1	1.391250
13.866667	1	1.370625
13.883333	1	1.350875
13.900000	1	1.332375
13.916667	1	1.315250
13.933333	1	1.298875
13.950000	1	1.283625
13.966667	1	1.269875
13.983333	1	1.256625
14.000000	1	1.244375
14.016667	1	1.232500
14.033333	1	1.221500
14.050000	1	1.211000
14.066667	1	1.200875
14.083333	1	1.191625
14.100000	1	1.182250
14.116667	1	1.173625
14.133333	1	1.165000
14.150000	1	1.156625
14.166667	1	1.149875
14.183333	1	1.143750
14.200000	1	1.137875
14.216667	1	1.133250
14.233333	1	1.129375
14.250000	1	1.126750
14.266667	1	1.126250
14.283333	1	1.127000
14.300000	1	1.129375
14.316667	1	1.134375
14.333333	1	1.140375
14.350000	1	1.149000
14.366667	1	1.159500
14.383333	1	1.172750
14.400000	1	1.189250
14.416667	1	1.210875
14.433333	1	1.239125
14.450000	1	1.278750
14.466667	1	1.335750
14.483333	1	1.422500
14.500000	1	1.554500
14.516667	1	1.755000
14.533333	1	2.055250
14.550000	1	2.495000
14.566667	1	3.126875
14.583333	1	4.009500
14.600000	1	5.212125
14.616667	1	6.809250
14.633333	1	8.875750
14.650000	1	11.476125
14.666667	1	14.657250
14.683333	1	18.434250
14.700000	1	22.783000
14.716667	1	27.629000
14.733333	1	32.854750
14.750000	1	38.294375
14.766667	1	43.739625
14.783333	1	48.954500
14.800000	1	53.701375
14.816667	1	57.757375
14.833333	1	60.928875
14.850000	1	63.070250
14.866667	1	64.098375
14.883333	1	64.000750
14.900000	1	62.829500
14.916667	1	60.699375
14.933333	1	57.767500
14.950000	1	54.216375
14.966667	1	50.239125
14.983333	1	46.026000
15.000000	1	41.738375
15.016667	1	37.513125
15.033333	1	33.454500
15.050000	1	29.640125
15.066667	1	26.116500
15.083333	1	22.909375
15.100000	1	20.027000
15.116667	1	17.462500
15.133333	1	15.198125
15.150000	1	13.211500
15.166667	1	11.477875
15.183333	1	9.972250
15.200000	1	8.668875
15.216667	1	7.543375
15.233333	1	6.575625
15.250000	1	5.745750
15.266667	1	5.038750
15.283333	1	4.440500
15.300000	1	3.938750
15.316667	1	3.522875
15.333333	1	3.180875
15.350000	1	2.902625
15.366667	1	2.679875
15.383333	1	2.504000
15.400000	1	2.366625
15.416667	1	2.259750
15.433333	1	2.177375
15.450000	1	2.113000
15.466667	1	2.060375
15.483333	1	2.015500
15.500000	1	1.974250
15.516667	1	1.935375
15.533333	1	1.895375
15.550000	1	1.854000
15.566667	1	1.810125
15.583333	1	1.764750
15.600000	1	1.719500
15.616667	1	1.673250
15.633333	1	1.628125
15.650000	1	1.585250
15.666667	1	1.545125
15.683333	1	1.507250
15.700000	1	1.471250
15.716667	1	1.438000
15.733333	1	1.407375
15.750000	1	1.379250
15.766667	1	1.353625
15.783333	1	1.329000
15.800000	1	1.306625
15.816667	1	1.285625
15.833333	1	1.266625
15.850000	1	1.248875
15.866667	1	1.232875
15.883333	1	1.218250
15.900000	1	1.206000
15.916667	1	1.194750
15.933333	1	1.186375
15.950000	1	1.178750
15.966667	1	1.172875
15.983333	1	1.169000
16.000000	1	1.167250
16.016667	1	1.165375
16.033333	1	1.165125
16.050000	1	1.166000
16.066667	1	1.168125
16.083333	1	1.170875
16.100000	1	1.174000
16.116667	1	1.176750
16.133333	1	1.179250
16.150000	1	1.182000
16.166667	1	1.183375
16.183333	1	1.184750
16.200000	1	1.185500
16.216667	1	1.185250
16.233333	1	1.183250
16.250000	1	1.180750
16.266667	1	1.177000
16.283333	1	1.173250
16.300000	1	1.168375
16.316667	1	1.163125
16.333333	1	1.158875
16.350000	1	1.154875
16.366667	1	1.151250
16.383333	1	1.148875
16.400000	1	1.147750
16.416667	1	1.147250
16.433333	1	1.148125
16.450000	1	1.150125
16.466667	1	1.152500
16.483333	1	1.155375
16.500000	1	1.159000
16.516667	1	1.161625
16.533333	1	1.163250
16.550000	1	1.164500
16.566667	1	1.163750
16.583333	1	1.160875
16.600000	1	1.157500
16.616667	1	1.152750
16.633333	1	1.146875
16.650000	1	1.140250
16.666667	1	1.132750
16.683333	1	1.126500
16.700000	1	1.121125
16.716667	1	1.117000
16.733333	1	1.114500
16.750000	1	1.113625
16.766667	1	1.114250
16.783333	1	1.116125
16.800000	1	1.120125
16.816667	1	1.125875
16.833333	1	1.130375
16.850000	1	1.135375
16.866667	1	1.139750
16.883333	1	1.143375
16.900000	1	1.146000
16.916667	1	1.146750
16.933333	1	1.147000
16.950000	1	1.146000
16.966667	1	1.143750
16.983333	1	1.140375
17.000000	1	1.135500
17.016667	1	1.130500
17.033333	1	1.126000
17.050000	1	1.121000
17.066667	1	1.117375
17.083333	1	1.113500
17.100000	1	1.110625
17.116667	1	1.108875
17.133333	1	1.107500
17.150000	1	1.106500
17.166667	1	1.106375
17.183333	1	1.106750
17.200000	1	1.107750
17.216667	1	1.109500
17.233333	1	1.111125
17.250000	1	1.112875
17.266667	1	1.115375
17.283333	1	1.118125
17.300000	1	1.121875
17.316667	1	1.125625
17.333333	1	1.129250
17.350000	1	1.132375
17.366667	1	1.135625
17.383333	1	1.139125
17.400000	1	1.141625
17.416667	1	1.143375
17.433333	1	1.145125
17.450000	1	1.145375
17.466667	1	1.144500
17.483333	1	1.142750
17.500000	1	1.139875
17.516667	1	1.135500
17.533333	1	1.129250
17.550000	1	1.121500
17.566667	1	1.113500
17.583333	1	1.103625
17.600000	1	1.093000
17.616667	1	1.081250
17.633333	1	1.069625
17.650000	1	1.057000
17.666667	1	1.043750
17.683333	1	1.031500
17.700000	1	1.018750
17.716667	1	1.006000
17.733333	1	0.993750
17.750000	1	0.982625
17.766667	1	0.972000
17.783333	1	0.961750
17.800000	1	0.951625
17.816667	1	0.942375
17.833333	1	0.934500
17.850000	1	0.926500
17.866667	1	0.919625
17.883333	1	0.913375
17.900000	1	0.906375
17.916667	1	0.899500
17.933333	1	0.893875
17.950000	1	0.887125
17.966667	1	0.880375
17.983333	1	0.873875
18.000000	1	0.867125
18.016667	1	0.859875
18.033333	1	0.851875
18.050000	1	0.844375
18.066667	1	0.837750
18.083333	1	0.830000
18.100000	1	0.823500
18.116667	1	0.817250
18.133333	1	0.811500
18.150000	1	0.806125
18.166667	1	0.802125
18.183333	1	0.798250
18.200000	1	0.795500
18.216667	1	0.792625
18.233333	1	0.789875
18.250000	1	0.788250
18.266667	1	0.786500
18.283333	1	0.784750
18.300000	1	0.782875
18.316667	1	0.781625
18.333333	1	0.780750
18.350000	1	0.781500
18.366667	1	0.782500
18.383333	1	0.784250
18.400000	1	0.788000
18.416667	1	0.792000
18.433333	1	0.797625
18.450000	1	0.805625
18.466667	1	0.815500
18.483333	1	0.827125
18.500000	1	0.841500
18.516667	1	0.857500
18.533333	1	0.875375
18.550000	1	0.896000
18.566667	1	0.918375
18.583333	1	0.942750
18.600000	1	0.969250
18.616667	1	0.996875
18.633333	1	1.026625
18.650000	1	1.057125
18.666667	1	1.089625
18.683333	1	1.123000
18.700000	1	1.157500
18.716667	1	1.192500
18.733333	1	1.228125
18.750000	1	1.262875
18.766667	1	1.297375
18.783333	1	1.331375
18.800000	1	1.363625
18.816667	1	1.393250
18.833333	1	1.420500
18.850000	1	1.443375
18.866667	1	1.461500
18.883333	1	1.474625
18.900000	1	1.482625
18.916667	1	1.484375
18.933333	1	1.479500
18.950000	1	1.468750
18.966667	1	1.451750
18.983333	1	1.428125
19.000000	1	1.399250
19.016667	1	1.365750
19.033333	1	1.327875
19.050000	1	1.286000
19.066667	1	1.242125
19.083333	1	1.196625
19.100000	1	1.150500
19.116667	1	1.104375
19.133333	1	1.060750
19.150000	1	1.019000
19.166667	1	0.979750
19.183333	1	0.944250
19.200000	1	0.912500
19.216667	1	0.885000
19.233333	1	0.863000
19.250000	1	0.846125
19.266667	1	0.835375
19.283333	1	0.829625
19.300000	1	0.830250
19.316667	1	0.836375
19.333333	1	0.848250
19.350000	1	0.864625
19.366667	1	0.885875
19.383333	1	0.910375
19.400000	1	0.938000
19.416667	1	0.967750
19.433333	1	0.998000
19.450000	1	1.028500
19.466667	1	1.057500
19.483333	1	1.084000
19.500000	1	1.108000
19.516667	1	1.128500
19.533333	1	1.144875
19.550000	1	1.156250
19.566667	1	1.162875
19.583333	1	1.164750
19.600000	1	1.162000
19.616667	1	1.153875
19.633333	1	1.140875
19.650000	1	1.124750
19.666667	1	1.104625
19.683333	1	1.082250
19.700000	1	1.056500
19.716667	1	1.030000
19.733333	1	1.001875
19.750000	1	0.972625
19.766667	1	0.942500
19.783333	1	0.911875
19.800000	1	0.881625
19.816667	1	0.851875
19.833333	1	0.822625
19.850000	1	0.794500
19.866667	1	0.767000
19.883333	1	0.741000
19.900000	1	0.716000
19.916667	1	0.693250
19.933333	1	0.672375
19.950000	1	0.653125
19.966667	1	0.636375
19.983333	1	0.622125
20.000000	1	0.610750
20.016667	1	0.601875
20.033333	1	0.596375
20.050000	1	0.593250
20.066667	1	0.593250
20.083333	1	0.597500
20.100000	1	0.604625
20.116667	1	0.614750
20.133333	1	0.627250
20.150000	1	0.641500
20.166667	1	0.657750
20.183333	1	0.676000
20.200000	1	0.694250
20.216667	1	0.711875
20.233333	1	0.728875
20.250000	1	0.743750
20.266667	1	0.756500
20.283333	1	0.765125
20.300000	1	0.771250
20.316667	1	0.773375
20.333333	1	0.771250
20.350000	1	0.765000
20.366667	1	0.755625
20.383333	1	0.743500
20.400000	1	0.728250
20.416667	1	0.710875
20.433333	1	0.692750
20.450000	1	0.674375
20.466667	1	0.656500
20.483333	1	0.640000
20.500000	1	0.625500
20.516667	1	0.615750
20.533333	1	0.610875
20.550000	1	0.611875
20.566667	1	0.620250
20.583333	1	0.637000
20.600000	1	0.663250
20.616667	1	0.699375
20.633333	1	0.746250
20.650000	1	0.804625
20.666667	1	0.875375
20.683333	1	0.956750
20.700000	1	1.049875
20.716667	1	1.152000
20.733333	1	1.262375
20.750000	1	1.377500
20.766667	1	1.495250
20.783333	1	1.611625
20.800000	1	1.725125
20.816667	1	1.831000
20.833333	1	1.926000
20.850000	1	2.006125
20.866667	1	2.070375
20.883333	1	2.116375
20.900000	1	2.144000
20.916667	1	2.151500
20.933333	1	2.139375
20.950000	1	2.110250
20.966667	1	2.064500
20.983333	1	2.005000
21.000000	1	1.932875
21.016667	1	1.852875
21.033333	1	1.766125
21.050000	1	1.676000
21.066667	1	1.583750
21.083333	1	1.492500
21.100000	1	1.403000
21.116667	1	1.317375
21.133333	1	1.236250
21.150000	1	1.160250
21.166667	1	1.088625
21.183333	1	1.022750
21.200000	1	0.963000
21.216667	1	0.907375
21.233333	1	0.857250
21.250000	1	0.812000
21.266667	1	0.771750
21.283333	1	0.735375
21.300000	1	0.702875
21.316667	1	0.673625
21.333333	1	0.647875
21.350000	1	0.625250
21.366667	1	0.604500
21.383333	1	0.585375
21.400000	1	0.568500
21.416667	1	0.553000
21.433333	1	0.540000
21.450000	1	0.527875
21.466667	1	0.517625
21.483333	1	0.507500
21.500000	1	0.499625
21.516667	1	0.492625
21.533333	1	0.486875
21.550000	1	0.482875
21.566667	1	0.479500
21.583333	1	0.477625
21.600000	1	0.477250
21.616667	1	0.477625
21.633333	1	0.480125
21.650000	1	0.484250
21.666667	1	0.489625
21.683333	1	0.497625
21.700000	1	0.507125
21.716667	1	0.518250
21.733333	1	0.530750
21.750000	1	0.544875
21.766667	1	0.559750
21.783333	1	0.576500
21.800000	1	0.593625
21.816667	1	0.611625
21.833333	1	0.628625
21.850000	1	0.645875
21.866667	1	0.662250
21.883333	1	0.678000
21.900000	1	0.692375
21.916667	1	0.705625
21.933333	1	0.716875
21.950000	1	0.727125
21.966667	1	0.734125
21.983333	1	0.739500
22.000000	1	0.743125
22.016667	1	0.744250
22.033333	1	0.744500
22.050000	1	0.742125
22.066667	1	0.739250
22.083333	1	0.735125
22.100000	1	0.730375
22.116667	1	0.723875
22.133333	1	0.717000
22.150000	1	0.708375
22.166667	1	0.699000
22.183333	1	0.689250
22.200000	1	0.678250
22.216667	1	0.666375
22.233333	1	0.654375
22.250000	1	0.641375
22.266667	1	0.627750
22.283333	1	0.613875
22.300000	1	0.599750
22.316667	1	0.585875
22.333333	1	0.571375
22.350000	1	0.557625
22.366667	1	0.543750
22.383333	1	0.529750
22.400000	1	0.515750
22.416667	1	0.502125
22.433333	1	0.490000
22.450000	1	0.478125
22.466667	1	0.466875
22.483333	1	0.456500
22.500000	1	0.446875
22.516667	1	0.437125
22.533333	1	0.428625
22.550000	1	0.421250
22.566667	1	0.414125
22.583333	1	0.407500
22.600000	1	0.401375
22.616667	1	0.395375
22.633333	1	0.389750
22.650000	1	0.384250
22.666667	1	0.379375
22.683333	1	0.374500
22.700000	1	0.370000
22.716667	1	0.365500
22.733333	1	0.361250
22.750000	1	0.357500
22.766667	1	0.354250
22.783333	1	0.350250
22.800000	1	0.346625
22.816667	1	0.343250
22.833333	1	0.340500
22.850000	1	0.337000
22.866667	1	0.334500
22.883333	1	0.331375
22.900000	1	0.329250
22.916667	1	0.327375
22.933333	1	0.326500
22.950000	1	0.323875
22.966667	1	0.322625
22.983333	1	0.321250
23.000000	1	0.320750
23.016667	1	0.321125
23.033333	1	0.321000
23.050000	1	0.321500
23.066667	1	0.321750
23.083333	1	0.322875
23.100000	1	0.324375
23.116667	1	0.326000
23.133333	1	0.327625
23.150000	1	0.329500
23.166667	1	0.330875
23.183333	1	0.332250
23.200000	1	0.333750
23.216667	1	0.335500
23.233333	1	0.336875
23.250000	1	0.339125
23.266667	1	0.341625
23.283333	1	0.345125
23.300000	1	0.348875
23.316667	1	0.354750
23.333333	1	0.361875
23.350000	1	0.372750
23.366667	1	0.386250
23.383333	1	0.405250
23.400000	1	0.430000
23.416667	1	0.461750
23.433333	1	0.502375
23.450000	1	0.552750
23.466667	1	0.616500
23.483333	1	0.694000
23.500000	1	0.788750
23.516667	1	0.900875
23.533333	1	1.033875
23.550000	1	1.188125
23.566667	1	1.365500
23.583333	1	1.564375
23.600000	1	1.785000
23.616667	1	2.026625
23.633333	1	2.287125
23.650000	1	2.562625
23.666667	1	2.849625
23.683333	1	3.144250
23.700000	1	3.441875
23.716667	1	3.735875
23.733333	1	4.020250
23.750000	1	4.287500
23.766667	1	4.533625
23.783333	1	4.751500
23.800000	1	4.936000
23.816667	1	5.084875
23.833333	1	5.193375
23.850000	1	5.262000
23.866667	1	5.288500
23.883333	1	5.275000
23.900000	1	5.222375
23.916667	1	5.132875
23.933333	1	5.011375
23.950000	1	4.861375
23.966667	1	4.686875
23.983333	1	4.493250
24.000000	1	4.284000
24.016667	1	4.064750
24.033333	1	3.840625
24.050000	1	3.614250
24.066667	1	3.390375
24.083333	1	3.169625
24.100000	1	2.955250
24.116667	1	2.748000
24.133333	1	2.550875
24.150000	1	2.362750
24.166667	1	2.185875
24.183333	1	2.020125
24.200000	1	1.865750
24.216667	1	1.722125
24.233333	1	1.589250
24.250000	1	1.466250
24.266667	1	1.353750
24.283333	1	1.249875
24.300000	1	1.153875
24.316667	1	1.067500
24.333333	1	0.988750
24.350000	1	0.917500
24.366667	1	0.853250
24.383333	1	0.796625
24.400000	1	0.745125
24.416667	1	0.700000
24.433333	1	0.659500
24.450000	1	0.624250
24.466667	1	0.593625
24.483333	1	0.567250
24.500000	1	0.544125
24.516667	1	0.524750
24.533333	1	0.507750
24.550000	1	0.493375
24.566667	1	0.480500
24.583333	1	0.469375
24.600000	1	0.460000
24.616667	1	0.451625
24.633333	1	0.443875
24.650000	1	0.437125
24.666667	1	0.430250
24.683333	1	0.424125
24.700000	1	0.418250
24.716667	1	0.413125
24.733333	1	0.407375
24.750000	1	0.401875
24.766667	1	0.396750
24.783333	1	0.392500
24.800000	1	0.388125
24.816667	1	0.383500
24.833333	1	0.379875
24.850000	1	0.376125
24.866667	1	0.373250
24.883333	1	0.369875
24.900000	1	0.366750
24.916667	1	0.364125
24.933333	1	0.361875
24.950000	1	0.359750
24.966667	1	0.357375
24.983333	1	0.355125
25.000000	1	0.353625
25.016667	1	0.351625
25.033333	1	0.349875
25.050000	1	0.348375
25.066667	1	0.347500
25.083333	1	0.346000
25.100000	1	0.344500
25.116667	1	0.343125
25.133333	1	0.341625
25.150000	1	0.340250
25.166667	1	0.338625
25.183333	1	0.336875
25.200000	1	0.335125
25.216667	1	0.333000
25.233333	1	0.330500
25.250000	1	0.328500
25.266667	1	0.326375
25.283333	1	0.324000
25.300000	1	0.321125
25.316667	1	0.319000
25.333333	1	0.316625
25.350000	1	0.314375
25.366667	1	0.312375
25.383333	1	0.309375
25.400000	1	0.307625
25.416667	1	0.305375
25.433333	1	0.304500
25.450000	1	0.302375
25.466667	1	0.301125
25.483333	1	0.300000
25.500000	1	0.299125
25.516667	1	0.298375
25.533333	1	0.298375
25.550000	1	0.297875
25.566667	1	0.297500
25.583333	1	0.296875
25.600000	1	0.296125
25.616667	1	0.296125
25.633333	1	0.295875
25.650000	1	0.296125
25.666667	1	0.296625
25.683333	1	0.297125
25.700000	1	0.297875
25.716667	1	0.298500
25.733333	1	0.299250
25.750000	1	0.300000
25.766667	1	0.300250
25.783333	1	0.300875
25.800000	1	0.301625
25.816667	1	0.303125
25.833333	1	0.305125
25.850000	1	0.306750
25.866667	1	0.308875
25.883333	1	0.311375
25.900000	1	0.314250
25.916667	1	0.317625
25.933333	1	0.320375
25.950000	1	0.324000
25.966667	1	0.328750
25.983333	1	0.333000
26.000000	1	0.338250
26.016667	1	0.343375
26.033333	1	0.348250
26.050000	1	0.354250
26.066667	1	0.361000
26.083333	1	0.367500
26.100000	1	0.373750
26.116667	1	0.379750
26.133333	1	0.386750
26.150000	1	0.393625
26.166667	1	0.401000
26.183333	1	0.407625
26.200000	1	0.414625
26.216667	1	0.420375
26.233333	1	0.426000
26.250000	1	0.432125
26.266667	1	0.438375
26.283333	1	0.443250
26.300000	1	0.448000
26.316667	1	0.451500
26.333333	1	0.454875
26.350000	1	0.457750
26.366667	1	0.460000
26.383333	1	0.461625
26.400000	1	0.461750
26.416667	1	0.461125
26.433333	1	0.460750
26.450000	1	0.459125
26.466667	1	0.456125
26.483333	1	0.453125
26.500000	1	0.449250
26.516667	1	0.444625
26.533333	1	0.439250
26.550000	1	0.432875
26.566667	1	0.427250
26.583333	1	0.419750
26.600000	1	0.412125
26.616667	1	0.405250
26.633333	1	0.397750
26.650000	1	0.390750
26.666667	1	0.382375
26.683333	1	0.375000
26.700000	1	0.366875
26.716667	1	0.358625
26.733333	1	0.351250
26.750000	1	0.343625
26.766667	1	0.336125
26.783333	1	0.329750
26.800000	1	0.323625
26.816667	1	0.318625
26.833333	1	0.312500
26.850000	1	0.307625
26.866667	1	0.303125
26.883333	1	0.298750
26.900000	1	0.295375
26.916667	1	0.292125
26.933333	1	0.289375
26.950000	1	0.287500
26.966667	1	0.285500
26.983333	1	0.284375
27.000000	1	0.283750
27.016667	1	0.283500
27.033333	1	0.283875
27.050000	1	0.284750
27.066667	1	0.286750
27.083333	1	0.288375
27.100000	1	0.290750
27.116667	1	0.294125
27.133333	1	0.297875
27.150000	1	0.302125
27.166667	1	0.307750
27.183333	1	0.313125
27.200000	1	0.320000
27.216667	1	0.328500
27.233333	1	0.338625
27.250000	1	0.350125
27.266667	1	0.363125
27.283333	1	0.379000
27.300000	1	0.397375
27.316667	1	0.419750
27.333333	1	0.445250
27.350000	1	0.476000
27.366667	1	0.511125
27.383333	1	0.552500
27.400000	1	0.600375
27.416667	1	0.656125
27.433333	1	0.720000
27.450000	1	0.793500
27.466667	1	0.877375
27.483333	1	0.970875
27.500000	1	1.075625
27.516667	1	1.191500
27.533333	1	1.320125
27.550000	1	1.459375
27.566667	1	1.610250
27.583333	1	1.770500
27.600000	1	1.941000
27.616667	1	2.119750
27.633333	1	2.305250
27.650000	1	2.495875
27.666667	1	2.689750
27.683333	1	2.883750
27.700000	1	3.076625
27.716667	1	3.263625
27.733333	1	3.443625
27.750000	1	3.612750
27.766667	1	3.768375
27.783333	1	3.908125
27.800000	1	4.028625
27.816667	1	4.128250
27.833333	1	4.206125
27.850000	1	4.259750
27.866667	1	4.289125
27.883333	1	4.293375
27.900000	1	4.272750
27.916667	1	4.228625
27.933333	1	4.161125
27.950000	1	4.072500
27.966667	1	3.963875
27.983333	1	3.839250
28.000000	1	3.699750
28.016667	1	3.548750
28.033333	1	3.388375
28.050000	1	3.220750
28.066667	1	3.049500
28.083333	1	2.876000
28.100000	1	2.703000
28.116667	1	2.533000
28.133333	1	2.366500
28.150000	1	2.206375
28.166667	1	2.052375
28.183333	1	1.906000
28.200000	1	1.768125
28.216667	1	1.638250
28.233333	1	1.517250
28.250000	1	1.404000
28.266667	1	1.299375
28.283333	1	1.202875
28.300000	1	1.115000
28.316667	1	1.033750
28.333333	1	0.960500
28.350000	1	0.894625
28.366667	1	0.835125
28.383333	1	0.782125
28.400000	1	0.734875
28.416667	1	0.693250
28.433333	1	0.656875
28.450000	1	0.624875
28.466667	1	0.597125
28.483333	1	0.573875
28.500000	1	0.554875
28.516667	1	0.539125
28.533333	1	0.526375
28.550000	1	0.517000
28.566667	1	0.510500
28.583333	1	0.507125
28.600000	1	0.505250
28.616667	1	0.506375
28.633333	1	0.508875
28.650000	1	0.512875
28.666667	1	0.518125
28.683333	1	0.525000
28.700000	1	0.532875
28.716667	1	0.541375
28.733333	1	0.550375
28.750000	1	0.560125
28.766667	1	0.570500
28.783333	1	0.580875
28.800000	1	0.590750
28.816667	1	0.599625
28.833333	1	0.608750
28.850000	1	0.617625
28.866667	1	0.625125
28.883333	1	0.631875
28.900000	1	0.637125
28.916667	1	0.641625
28.933333	1	0.644625
28.950000	1	0.646500
28.966667	1	0.647375
28.983333	1	0.646500
29.000000	1	0.644500
29.016667	1	0.640375
29.033333	1	0.634875
29.050000	1	0.627375
29.066667	1	0.618250
29.083333	1	0.607375
29.100000	1	0.594750
29.116667	1	0.580125
29.133333	1	0.563750
29.150000	1	0.544750
29.166667	1	0.523750
29.183333	1	0.501125
29.200000	1	0.476375
29.216667	1	0.449750
29.233333	1	0.420500
29.250000	1	0.388625
29.266667	1	0.354625
29.283333	1	0.317875
29.300000	1	0.278750
29.316667	1	0.236250
29.333333	1	0.191250
29.350000	1	0.145000
29.366667	1	0.096250
29.383333	1	0.045250
29.400000	1	-0.007375
29.416667	1	-0.061625
29.433333	1	-0.118000
29.450000	1	-0.175125
29.466667	1	-0.232875
29.483333	1	-0.291000
29.500000	1	-0.350125
29.516667	1	-0.408000
29.533333	1	-0.465250
29.550000	1	-0.521375
29.566667	1	-0.575750
29.583333	1	-0.627500
29.600000	1	-0.676500
29.616667	1	-0.722875
29.633333	1	-0.764875
29.650000	1	-0.802875
29.666667	1	-0.836250
29.683333	1	-0.865750
29.700000	1	-0.889375
29.716667	1	-0.909500
29.733333	1	-0.923875
29.750000	1	-0.933250
29.766667	1	-0.937125
29.783333	1	-0.935875
29.800000	1	-0.929125
29.816667	1	-0.918125
29.833333	1	-0.902250
29.850000	1	-0.883250
29.866667	1	-0.859500
29.883333	1	-0.832625
29.900000	1	-0.802125
29.916667	1	-0.769250
29.933333	1	-0.735125
29.950000	1	-0.698750
29.966667	1	-0.660625
29.983333	1	-0.621125
30.000000	1	-0.581500
30.016667	1	-0.540625
30.033333	1	-0.500625
30.050000	1	-0.460875
30.066667	1	-0.421750
30.083333	1	-0.382625
30.100000	1	-0.345000
30.116667	1	-0.308625
30.133333	1	-0.274000
30.150000	1	-0.240500
30.166667	1	-0.208125
30.183333	1	-0.178125
30.200000	1	-0.149750
30.216667	1	-0.122625
30.233333	1	-0.097125
30.250000	1	-0.072875
30.266667	1	-0.050875
30.283333	1	-0.030125
30.300000	1	-0.010750
30.316667	1	0.006625
30.333333	1	0.022375
30.350000	1	0.037375
30.366667	1	0.051375
30.383333	1	0.063875
30.400000	1	0.075250
30.416667	1	0.085875
30.433333	1	0.096000
30.450000	1	0.104875
30.466667	1	0.112875
30.483333	1	0.119875
30.500000	1	0.127000
30.516667	1	0.134500
30.533333	1	0.141000
30.550000	1	0.147250
30.566667	1	0.153250
30.583333	1	0.160125
30.600000	1	0.166125
30.616667	1	0.172375
30.633333	1	0.178250
30.650000	1	0.185250
30.666667	1	0.191875
30.683333	1	0.199375
30.700000	1	0.206250
30.716667	1	0.213750
30.733333	1	0.222000
30.750000	1	0.230750
30.766667	1	0.239125
30.783333	1	0.248375
30.800000	1	0.258000
30.816667	1	0.267625
30.833333	1	0.278500
30.850000	1	0.289250
30.866667	1	0.300875
30.883333	1	0.313000
30.900000	1	0.326250
30.916667	1	0.339875
30.933333	1	0.355250
30.950000	1	0.372000
30.966667	1	0.390250
30.983333	1	0.410250
31.000000	1	0.432375
31.016667	1	0.457750
31.033333	1	0.486375
31.050000	1	0.518250
31.066667	1	0.555125
31.083333	1	0.595875
31.100000	1	0.642250
31.116667	1	0.694500
31.133333	1	0.753875
31.150000	1	0.820000
31.166667	1	0.894375
31.183333	1	0.976750
31.200000	1	1.069375
31.216667	1	1.171000
31.233333	1	1.282125
31.250000	1	1.402625
31.266667	1	1.533125
31.283333	1	1.672750
31.300000	1	1.822000
31.316667	1	1.979125
31.333333	1	2.143375
31.350000	1	2.314375
31.366667	1	2.489625
31.383333	1	2.669250
31.400000	1	2.850125
31.416667	1	3.031250
31.433333	1	3.209750
31.450000	1	3.383625
31.466667	1	3.550750
31.483333	1	3.709125
31.500000	1	3.856500
31.516667	1	3.991375
31.533333	1	4.112000
31.550000	1	4.216375
31.566667	1	4.303625
31.583333	1	4.372625
31.600000	1	4.423125
31.616667	1	4.453875
31.633333	1	4.465250
31.650000	1	4.457625
31.666667	1	4.430750
31.683333	1	4.386250
31.700000	1	4.325125
31.716667	1	4.248000
31.733333	1	4.156875
31.750000	1	4.052875
31.766667	1	3.938250
31.783333	1	3.812750
31.800000	1	3.679625
31.816667	1	3.540000
31.833333	1	3.395875
31.850000	1	3.247375
31.866667	1	3.097875
31.883333	1	2.947500
31.900000	1	2.798500
31.916667	1	2.651375
31.933333	1	2.506875
31.950000	1	2.365875
31.966667	1	2.228875
31.983333	1	2.096125
32.000000	1	1.968375
32.016667	1	1.845375
32.033333	1	1.727875
32.050000	1	1.615750
32.066667	1	1.508875
32.083333	1	1.408000
32.100000	1	1.312375
32.116667	1	1.222750
32.133333	1	1.137500
32.150000	1	1.058500
32.166667	1	0.982875
32.183333	1	0.912500
32.200000	1	0.846375
32.216667	1	0.784375
32.233333	1	0.726250
32.250000	1	0.671625
32.266667	1	0.621750
32.283333	1	0.574625
32.300000	1	0.531000
32.316667	1	0.490625
32.333333	1	0.452750
32.350000	1	0.418625
32.366667	1	0.387125
32.383333	1	0.357500
32.400000	1	0.330250
32.416667	1	0.305500
32.433333	1	0.282750
32.450000	1	0.261250
32.466667	1	0.242375
32.483333	1	0.224875
32.500000	1	0.209125
32.516667	1	0.193500
32.533333	1	0.180500
32.550000	1	0.168750
32.566667	1	0.158000
32.583333	1	0.148125
32.600000	1	0.138750
32.616667	1	0.131375
32.633333	1	0.124625
32.650000	1	0.118500
32.666667	1	0.112625
32.683333	1	0.107250
32.700000	1	0.102750
32.716667	1	0.098500
32.733333	1	0.095375
32.750000	1	0.092500
32.766667	1	0.090000
32.783333	1	0.087875
32.800000	1	0.085000
32.816667	1	0.083500
32.833333	1	0.082625
32.850000	1	0.081500
32.866667	1	0.079875
32.883333	1	0.079125
32.900000	1	0.078250
32.916667	1	0.078125
32.933333	1	0.078500
32.950000	1	0.078500
32.966667	1	0.078250
32.983333	1	0.077875
33.000000	1	0.077250
33.016667	1	0.076500
33.033333	1	0.076500
33.050000	1	0.076125
33.066667	1	0.075125
33.083333	1	0.074125
33.100000	1	0.073375
33.116667	1	0.072375
33.133333	1	0.071375
33.150000	1	0.070375
33.166667	1	0.070000
33.183333	1	0.068875
33.200000	1	0.067375
33.216667	1	0.066000
33.233333	1	0.065250
33.250000	1	0.064500
33.266667	1	0.063875
33.283333	1	0.062500
33.300000	1	0.061750
33.316667	1	0.061250
33.333333	1	0.061375
33.350000	1	0.060875
33.366667	1	0.060375
33.383333	1	0.060625
33.400000	1	0.060375
33.416667	1	0.060125
33.433333	1	0.060375
33.450000	1	0.061000
33.466667	1	0.061500
33.483333	1	0.062000
33.500000	1	0.062000
33.516667	1	0.063125
33.533333	1	0.064125
33.550000	1	0.065125
33.566667	1	0.065750
33.583333	1	0.067125
33.600000	1	0.068875
33.616667	1	0.069375
33.633333	1	0.070625
33.650000	1	0.072500
33.666667	1	0.073500
33.683333	1	0.075250
33.700000	1	0.076500
33.716667	1	0.078625
33.733333	1	0.081125
33.750000	1	0.083125
33.766667	1	0.085500
33.783333	1	0.087625
33.800000	1	0.089625
33.816667	1	0.091500
33.833333	1	0.094375
33.850000	1	0.096875
33.866667	1	0.099625
33.883333	1	0.101750
33.900000	1	0.104625
33.916667	1	0.107000
33.933333	1	0.110000
33.950000	1	0.112500
33.966667	1	0.115000
33.983333	1	0.117125
34.000000	1	0.119125
34.016667	1	0.121250
34.033333	1	0.123250
34.050000	1	0.124750
34.066667	1	0.127625
34.083333	1	0.129125
34.100000	1	0.131125
34.116667	1	0.132625
34.133333	1	0.134750
34.150000	1	0.135750
34.166667	1	0.137000
34.183333	1	0.138000
34.200000	1	0.139250
34.216667	1	0.140500
34.233333	1	0.141625
34.250000	1	0.142750
34.266667	1	0.142500
34.283333	1	0.143000
34.300000	1	0.143375
34.316667	1	0.143500
34.333333	1	0.143750
34.350000	1	0.144500
34.366667	1	0.145125
34.383333	1	0.145625
34.400000	1	0.146250
34.416667	1	0.146375
34.433333	1	0.147125
34.450000	1	0.147625
34.466667	1	0.148625
34.483333	1	0.149250
34.500000	1	0.150250
34.516667	1	0.151250
34.533333	1	0.152375
34.550000	1	0.153250
34.566667	1	0.154750
34.583333	1	0.156375
34.600000	1	0.158000
34.616667	1	0.159375
34.633333	1	0.161125
34.650000	1	0.163000
34.666667	1	0.164000
34.683333	1	0.165125
34.700000	1	0.167000
34.716667	1	0.168000
34.733333	1	0.168875
34.750000	1	0.169500
34.766667	1	0.170125
34.783333	1	0.171000
34.800000	1	0.171250
34.816667	1	0.171250
34.833333	1	0.170500
34.850000	1	0.170500
34.866667	1	0.170000
34.883333	1	0.168625
34.900000	1	0.167500
34.916667	1	0.166875
34.933333	1	0.164875
34.950000	1	0.163375
34.966667	1	0.161500
34.983333	1	0.160000
35.000000	1	0.157375
35.016667	1	0.154875
35.033333	1	0.152625
35.050000	1	0.150875
35.066667	1	0.148000
35.083333	1	0.145000
35.100000	1	0.143125
35.116667	1	0.140625
35.133333	1	0.138375
35.150000	1	0.136250
35.166667	1	0.134500
35.183333	1	0.132250
35.200000	1	0.129750
35.216667	1	0.128750
35.233333	1	0.127375
35.250000	1	0.125625
35.266667	1	0.124375
35.283333	1	0.123000
35.300000	1	0.122125
35.316667	1	0.121375
35.333333	1	0.121125
35.350000	1	0.121625
35.366667	1	0.121250
35.383333	1	0.121000
35.400000	1	0.121500
35.416667	1	0.121500
35.433333	1	0.121000
35.450000	1	0.121875
35.466667	1	0.122125
35.483333	1	0.122750
35.500000	1	0.123250
35.516667	1	0.124125
35.533333	1	0.125500
35.550000	1	0.126625
35.566667	1	0.127875
35.583333	1	0.129375
35.600000	1	0.130000
35.616667	1	0.131250
35.633333	1	0.132250
35.650000	1	0.133250
35.666667	1	0.134625
35.683333	1	0.136375
35.700000	1	0.137625
35.716667	1	0.139500
35.733333	1	0.140625
35.750000	1	0.142625
35.766667	1	0.143625
35.783333	1	0.144625
35.800000	1	0.145875
35.816667	1	0.146375
35.833333	1	0.147500
35.850000	1	0.148625
35.866667	1	0.149125
35.883333	1	0.149750
35.900000	1	0.150625
35.916667	1	0.151125
35.933333	1	0.152000
35.950000	1	0.152125
35.966667	1	0.152875
35.983333	1	0.152375
36.000000	1	0.152375
36.016667	1	0.152250
36.033333	1	0.152750
36.050000	1	0.152500
36.066667	1	0.152375
36.083333	1	0.151750
36.100000	1	0.152000
36.116667	1	0.152000
36.133333	1	0.151625
36.150000	1	0.151250
36.166667	1	0.151875
36.183333	1	0.151625
36.200000	1	0.151375
36.216667	1	0.151250
36.233333	1	0.151375
36.250000	1	0.151125
36.266667	1	0.151500
36.283333	1	0.151625
36.300000	1	0.152125
36.316667	1	0.152375
36.333333	1	0.152625
36.350000	1	0.152875
36.366667	1	0.153625
36.383333	1	0.154000
36.400000	1	0.154625
36.416667	1	0.155000
36.433333	1	0.155500
36.450000	1	0.155750
36.466667	1	0.155625
36.483333	1	0.155625
36.500000	1	0.155875
36.516667	1	0.155750
36.533333	1	0.154750
36.550000	1	0.153750
36.566667	1	0.153500
36.583333	1	0.152875
36.600000	1	0.151750
36.616667	1	0.150750
36.633333	1	0.149625
36.650000	1	0.146875
36.666667	1	0.144750
36.683333	1	0.143375
36.700000	1	0.141125
36.716667	1	0.138875
36.733333	1	0.137375
36.750000	1	0.134500
36.766667	1	0.132000
36.783333	1	0.129000
36.800000	1	0.127375
36.816667	1	0.125000
36.833333	1	0.123125
36.850000	1	0.120250
36.866667	1	0.117750
36.883333	1	0.115375
36.900000	1	0.113625
36.916667	1	0.111625
36.933333	1	0.109500
36.950000	1	0.108000
36.966667	1	0.107000
36.983333	1	0.105375
37.000000	1	0.104000
37.016667	1	0.103000
37.033333	1	0.101250
37.050000	1	0.100125
37.066667	1	0.099000
37.083333	1	0.098750
37.100000	1	0.097875
37.116667	1	0.097375
37.133333	1	0.096625
37.150000	1	0.096125
37.166667	1	0.096750
37.183333	1	0.096500
37.200000	1	0.097000
37.216667	1	0.096750
37.233333	1	0.097250
37.250000	1	0.098000
37.266667	1	0.098375
37.283333	1	0.099000
37.300000	1	0.099875
37.316667	1	0.101125
37.333333	1	0.101750
37.350000	1	0.102500
37.366667	1	0.103875
37.383333	1	0.105000
37.400000	1	0.106000
37.416667	1	0.106625
37.433333	1	0.107250
37.450000	1	0.107250
37.466667	1	0.107750
37.483333	1	0.107875
37.500000	1	0.108250
37.516667	1	0.109000
37.533333	1	0.109000
37.550000	1	0.108875
37.566667	1	0.109125
37.583333	1	0.108750
37.600000	1	0.108125
37.616667	1	0.107000
37.633333	1	0.105750
37.650000	1	0.103875
37.666667	1	0.101875
37.683333	1	0.099875
37.700000	1	0.098125
37.716667	1	0.096375
37.733333	1	0.093750
37.750000	1	0.092125
37.766667	1	0.089500
37.783333	1	0.086250
37.800000	1	0.083375
37.816667	1	0.080000
37.833333	1	0.076750
37.850000	1	0.074625
37.866667	1	0.071875
37.883333	1	0.069000
37.900000	1	0.066000
37.916667	1	0.063625
37.933333	1	0.060750
37.950000	1	0.058000
37.966667	1	0.055250
37.983333	1	0.052750
38.000000	1	0.050125
38.016667	1	0.047875
38.033333	1	0.045250
38.050000	1	0.043250
38.066667	1	0.041500
38.083333	1	0.040375
38.100000	1	0.039125
38.116667	1	0.037625
38.133333	1	0.036000
38.150000	1	0.034500
38.166667	1	0.033250
38.183333	1	0.032375
38.200000	1	0.031125
38.216667	1	0.029750
38.233333	1	0.028750
38.250000	1	0.028375
38.266667	1	0.027625
38.283333	1	0.026875
38.300000	1	0.026750
38.316667	1	0.026500
38.333333	1	0.026000
38.350000	1	0.025875
38.366667	1	0.025000
38.383333	1	0.023625
38.400000	1	0.022000
38.416667	1	0.021375
38.433333	1	0.020500
38.450000	1	0.019375
38.466667	1	0.018875
38.483333	1	0.018750
38.500000	1	0.018875
38.516667	1	0.018750
38.533333	1	0.018250
38.550000	1	0.018625
38.566667	1	0.018625
38.583333	1	0.018375
38.600000	1	0.017875
38.616667	1	0.017125
38.633333	1	0.017000
38.650000	1	0.017000
38.666667	1	0.017250
38.683333	1	0.017750
38.700000	1	0.018375
38.716667	1	0.020000
38.733333	1	0.020750
38.750000	1	0.021625
38.766667	1	0.023000
38.783333	1	0.023375
38.800000	1	0.024375
38.816667	1	0.025250
38.833333	1	0.027250
38.850000	1	0.028625
38.866667	1	0.029875
38.883333	1	0.031000
38.900000	1	0.032500
38.916667	1	0.033875
38.933333	1	0.035250
38.950000	1	0.036875
38.966667	1	0.038250
38.983333	1	0.040375
39.000000	1	0.041625
39.016667	1	0.043000
39.033333	1	0.043750
39.050000	1	0.044375
39.066667	1	0.045125
39.083333	1	0.046125
39.100000	1	0.046625
39.116667	1	0.048000
39.133333	1	0.049250
39.150000	1	0.050000
39.166667	1	0.050375
39.183333	1	0.051500
39.200000	1	0.052000
39.216667	1	0.052625
39.233333	1	0.053500
39.250000	1	0.054250
39.266667	1	0.054875
39.283333	1	0.055875
39.300000	1	0.056500
39.316667	1	0.057625
39.333333	1	0.058125
39.350000	1	0.058875
39.366667	1	0.059875
39.383333	1	0.060750
39.400000	1	0.061750
39.416667	1	0.062500
39.433333	1	0.063000
39.450000	1	0.064125
39.466667	1	0.065500
39.483333	1	0.065500
39.500000	1	0.066250
39.516667	1	0.065875
39.533333	1	0.066375
39.550000	1	0.067125
39.566667	1	0.068000
39.583333	1	0.067625
39.600000	1	0.068250
39.616667	1	0.067875
39.633333	1	0.067125
39.650000	1	0.066125
39.666667	1	0.065625
39.683333	1	0.064500
39.700000	1	0.063250
39.716667	1	0.061875
39.733333	1	0.061000
39.750000	1	0.059625
39.766667	1	0.057750
39.783333	1	0.055750
39.800000	1	0.054125
39.816667	1	0.051500
39.833333	1	0.048750
39.850000	1	0.046250
39.866667	1	0.044125
39.883333	1	0.042125
39.900000	1	0.039625
39.916667	1	0.037625
39.933333	1	0.034625
39.950000	1	0.031875
39.966667	1	0.028500
39.983333	1	0.025625
40.000000	1	0.022750
