URL	chrom://7040-86g6c92/XVault/Ultimate_3000/20/20240517_CMO_FP23_FP25_MarkusDeplate.seq/284.smp/RI_1.channel/RI_1.chm
Channel	RI_1

Injection Information:
Data Vault	XVault
Sequence	20240517_CMO_FP23_FP25_MarkusDeplate
Name	FP26_21_s1
Number	89
Position	BA6
Comment	
Processing Method	
Instrument Method	run_25B_method
Type	Unknown
Status	Finished
Inject Time	30.05.2024 06:48:35 +02:00
Volume (µl)	20.0000
Dilution Factor	1.0000
Weight	1.0000

Chromatogram Data Information:
Time Min. (min)	0.000000
Time Max. (min)	40.000000
Data Points	2401
Detector	RI
Generating Data System	Chromeleon 7.3.2.11814
Exporting Data System	Chromeleon 7.3.2.0
Operator	Instrument Controller
Signal Quantity	Refractive 
Signal Unit	µRIU
Signal Min.	-0.997875
Signal Max.	66.243250
Channel	RI_1
Driver Name	RID520Driver.dll
Channel Type	Evaluation
Min. Step (s)	1
Max. Step (s)	1
Average Step (s)	1

Signal Parameter Information:
Signal Info	

Chromatogram Data:
Time (min)	Step (s)	Value (µRIU)
0.000000	n.a.	-0.035125
0.016667	1	-0.036375
0.033333	1	-0.037500
0.050000	1	-0.037750
0.066667	1	-0.038375
0.083333	1	-0.039125
0.100000	1	-0.039625
0.116667	1	-0.039875
0.133333	1	-0.039750
0.150000	1	-0.040000
0.166667	1	-0.040000
0.183333	1	-0.040750
0.200000	1	-0.041500
0.216667	1	-0.041375
0.233333	1	-0.041375
0.250000	1	-0.041375
0.266667	1	-0.040750
0.283333	1	-0.040250
0.300000	1	-0.039625
0.316667	1	-0.039500
0.333333	1	-0.039875
0.350000	1	-0.040250
0.366667	1	-0.040875
0.383333	1	-0.040875
0.400000	1	-0.041000
0.416667	1	-0.040500
0.433333	1	-0.038875
0.450000	1	-0.036875
0.466667	1	-0.034875
0.483333	1	-0.032625
0.500000	1	-0.030375
0.516667	1	-0.028750
0.533333	1	-0.027375
0.550000	1	-0.027125
0.566667	1	-0.027000
0.583333	1	-0.027750
0.600000	1	-0.028500
0.616667	1	-0.030000
0.633333	1	-0.031125
0.650000	1	-0.031625
0.666667	1	-0.031750
0.683333	1	-0.031000
0.700000	1	-0.029750
0.716667	1	-0.028375
0.733333	1	-0.026875
0.750000	1	-0.025625
0.766667	1	-0.023625
0.783333	1	-0.022625
0.800000	1	-0.021250
0.816667	1	-0.019875
0.833333	1	-0.018875
0.850000	1	-0.017750
0.866667	1	-0.017125
0.883333	1	-0.015750
0.900000	1	-0.014250
0.916667	1	-0.012875
0.933333	1	-0.012000
0.950000	1	-0.010625
0.966667	1	-0.010250
0.983333	1	-0.009875
1.000000	1	-0.009250
1.016667	1	-0.008500
1.033333	1	-0.007500
1.050000	1	-0.006375
1.066667	1	-0.006000
1.083333	1	-0.005250
1.100000	1	-0.005625
1.116667	1	-0.005375
1.133333	1	-0.004875
1.150000	1	-0.004750
1.166667	1	-0.005375
1.183333	1	-0.005625
1.200000	1	-0.005125
1.216667	1	-0.005250
1.233333	1	-0.005000
1.250000	1	-0.004500
1.266667	1	-0.004375
1.283333	1	-0.004875
1.300000	1	-0.005125
1.316667	1	-0.005875
1.333333	1	-0.006000
1.350000	1	-0.006375
1.366667	1	-0.006250
1.383333	1	-0.006625
1.400000	1	-0.006000
1.416667	1	-0.005875
1.433333	1	-0.006500
1.450000	1	-0.007375
1.466667	1	-0.007250
1.483333	1	-0.007500
1.500000	1	-0.006750
1.516667	1	-0.007000
1.533333	1	-0.006625
1.550000	1	-0.006875
1.566667	1	-0.007000
1.583333	1	-0.006750
1.600000	1	-0.006625
1.616667	1	-0.006750
1.633333	1	-0.006750
1.650000	1	-0.006125
1.666667	1	-0.005750
1.683333	1	-0.005250
1.700000	1	-0.004625
1.716667	1	-0.005375
1.733333	1	-0.006250
1.750000	1	-0.007000
1.766667	1	-0.007625
1.783333	1	-0.008625
1.800000	1	-0.010750
1.816667	1	-0.012125
1.833333	1	-0.014000
1.850000	1	-0.015875
1.866667	1	-0.018000
1.883333	1	-0.020250
1.900000	1	-0.022500
1.916667	1	-0.024500
1.933333	1	-0.027250
1.950000	1	-0.030125
1.966667	1	-0.033250
1.983333	1	-0.035875
2.000000	1	-0.038750
2.016667	1	-0.041250
2.033333	1	-0.043250
2.050000	1	-0.045500
2.066667	1	-0.048375
2.083333	1	-0.050250
2.100000	1	-0.052250
2.116667	1	-0.053750
2.133333	1	-0.054875
2.150000	1	-0.056625
2.166667	1	-0.057500
2.183333	1	-0.058875
2.200000	1	-0.059125
2.216667	1	-0.059750
2.233333	1	-0.060000
2.250000	1	-0.060375
2.266667	1	-0.059750
2.283333	1	-0.059625
2.300000	1	-0.059000
2.316667	1	-0.058625
2.333333	1	-0.056875
2.350000	1	-0.055375
2.366667	1	-0.053875
2.383333	1	-0.052875
2.400000	1	-0.051250
2.416667	1	-0.050000
2.433333	1	-0.047750
2.450000	1	-0.045875
2.466667	1	-0.043750
2.483333	1	-0.042125
2.500000	1	-0.040625
2.516667	1	-0.039000
2.533333	1	-0.037750
2.550000	1	-0.036750
2.566667	1	-0.035250
2.583333	1	-0.033625
2.600000	1	-0.032750
2.616667	1	-0.032125
2.633333	1	-0.030750
2.650000	1	-0.029750
2.666667	1	-0.029375
2.683333	1	-0.028875
2.700000	1	-0.029125
2.716667	1	-0.029500
2.733333	1	-0.029875
2.750000	1	-0.030250
2.766667	1	-0.030875
2.783333	1	-0.031875
2.800000	1	-0.032875
2.816667	1	-0.033875
2.833333	1	-0.034750
2.850000	1	-0.035750
2.866667	1	-0.037125
2.883333	1	-0.038625
2.900000	1	-0.039000
2.916667	1	-0.040625
2.933333	1	-0.041250
2.950000	1	-0.042625
2.966667	1	-0.043500
2.983333	1	-0.044375
3.000000	1	-0.045375
3.016667	1	-0.046000
3.033333	1	-0.045500
3.050000	1	-0.046125
3.066667	1	-0.046375
3.083333	1	-0.045625
3.100000	1	-0.046125
3.116667	1	-0.045625
3.133333	1	-0.044875
3.150000	1	-0.044250
3.166667	1	-0.043250
3.183333	1	-0.041625
3.200000	1	-0.040250
3.216667	1	-0.038875
3.233333	1	-0.037625
3.250000	1	-0.035500
3.266667	1	-0.033375
3.283333	1	-0.032000
3.300000	1	-0.030625
3.316667	1	-0.028750
3.333333	1	-0.027125
3.350000	1	-0.025500
3.366667	1	-0.023625
3.383333	1	-0.021375
3.400000	1	-0.019375
3.416667	1	-0.017125
3.433333	1	-0.014750
3.450000	1	-0.012875
3.466667	1	-0.011500
3.483333	1	-0.009750
3.500000	1	-0.008125
3.516667	1	-0.006625
3.533333	1	-0.005625
3.550000	1	-0.005125
3.566667	1	-0.003750
3.583333	1	-0.002375
3.600000	1	-0.001375
3.616667	1	-0.000875
3.633333	1	0.000125
3.650000	1	0.000500
3.666667	1	0.000875
3.683333	1	0.000875
3.700000	1	0.001250
3.716667	1	0.001375
3.733333	1	0.001625
3.750000	1	0.001500
3.766667	1	0.000625
3.783333	1	0.000000
3.800000	1	-0.000875
3.816667	1	-0.001250
3.833333	1	-0.001625
3.850000	1	-0.002875
3.866667	1	-0.003500
3.883333	1	-0.003875
3.900000	1	-0.005125
3.916667	1	-0.006000
3.933333	1	-0.006750
3.950000	1	-0.008125
3.966667	1	-0.009375
3.983333	1	-0.010000
4.000000	1	-0.010375
4.016667	1	-0.010375
4.033333	1	-0.010625
4.050000	1	-0.011250
4.066667	1	-0.011750
4.083333	1	-0.011875
4.100000	1	-0.012375
4.116667	1	-0.011500
4.133333	1	-0.010875
4.150000	1	-0.010250
4.166667	1	-0.009375
4.183333	1	-0.008125
4.200000	1	-0.006875
4.216667	1	-0.005500
4.233333	1	-0.003750
4.250000	1	-0.000500
4.266667	1	0.001000
4.283333	1	0.003125
4.300000	1	0.005875
4.316667	1	0.007250
4.333333	1	0.009750
4.350000	1	0.012750
4.366667	1	0.015625
4.383333	1	0.018250
4.400000	1	0.020375
4.416667	1	0.023125
4.433333	1	0.025625
4.450000	1	0.028750
4.466667	1	0.031125
4.483333	1	0.034250
4.500000	1	0.037125
4.516667	1	0.040250
4.533333	1	0.042875
4.550000	1	0.045250
4.566667	1	0.047625
4.583333	1	0.050500
4.600000	1	0.053375
4.616667	1	0.056250
4.633333	1	0.058125
4.650000	1	0.061250
4.666667	1	0.064000
4.683333	1	0.066375
4.700000	1	0.068750
4.716667	1	0.071375
4.733333	1	0.074000
4.750000	1	0.076125
4.766667	1	0.078125
4.783333	1	0.079500
4.800000	1	0.081750
4.816667	1	0.084000
4.833333	1	0.086250
4.850000	1	0.088250
4.866667	1	0.090125
4.883333	1	0.091750
4.900000	1	0.092500
4.916667	1	0.094250
4.933333	1	0.095625
4.950000	1	0.097250
4.966667	1	0.098750
4.983333	1	0.099875
5.000000	1	0.101250
5.016667	1	0.102875
5.033333	1	0.104250
5.050000	1	0.105500
5.066667	1	0.107000
5.083333	1	0.107625
5.100000	1	0.109750
5.116667	1	0.111875
5.133333	1	0.113750
5.150000	1	0.115625
5.166667	1	0.118000
5.183333	1	0.120125
5.200000	1	0.122125
5.216667	1	0.125000
5.233333	1	0.127750
5.250000	1	0.130750
5.266667	1	0.133625
5.283333	1	0.137375
5.300000	1	0.141000
5.316667	1	0.144000
5.333333	1	0.147000
5.350000	1	0.150375
5.366667	1	0.153625
5.383333	1	0.157250
5.400000	1	0.161250
5.416667	1	0.165125
5.433333	1	0.169000
5.450000	1	0.172375
5.466667	1	0.175875
5.483333	1	0.179250
5.500000	1	0.183375
5.516667	1	0.187125
5.533333	1	0.190750
5.550000	1	0.194000
5.566667	1	0.197125
5.583333	1	0.199750
5.600000	1	0.203875
5.616667	1	0.207000
5.633333	1	0.210125
5.650000	1	0.212625
5.666667	1	0.215625
5.683333	1	0.218625
5.700000	1	0.221750
5.716667	1	0.223000
5.733333	1	0.224625
5.750000	1	0.226250
5.766667	1	0.228500
5.783333	1	0.230375
5.800000	1	0.232000
5.816667	1	0.233000
5.833333	1	0.234125
5.850000	1	0.234625
5.866667	1	0.234625
5.883333	1	0.234250
5.900000	1	0.234250
5.916667	1	0.234000
5.933333	1	0.233125
5.950000	1	0.232125
5.966667	1	0.231375
5.983333	1	0.230250
6.000000	1	0.228250
6.016667	1	0.226250
6.033333	1	0.223625
6.050000	1	0.221750
6.066667	1	0.219000
6.083333	1	0.216375
6.100000	1	0.213500
6.116667	1	0.210125
6.133333	1	0.207375
6.150000	1	0.203500
6.166667	1	0.199875
6.183333	1	0.196000
6.200000	1	0.192250
6.216667	1	0.188000
6.233333	1	0.184250
6.250000	1	0.179625
6.266667	1	0.175875
6.283333	1	0.171750
6.300000	1	0.167750
6.316667	1	0.163375
6.333333	1	0.159000
6.350000	1	0.154750
6.366667	1	0.150750
6.383333	1	0.146250
6.400000	1	0.142875
6.416667	1	0.138750
6.433333	1	0.135375
6.450000	1	0.131750
6.466667	1	0.128250
6.483333	1	0.125125
6.500000	1	0.121625
6.516667	1	0.118125
6.533333	1	0.115375
6.550000	1	0.112250
6.566667	1	0.109500
6.583333	1	0.108000
6.600000	1	0.106250
6.616667	1	0.104875
6.633333	1	0.103250
6.650000	1	0.102250
6.666667	1	0.101625
6.683333	1	0.100500
6.700000	1	0.100000
6.716667	1	0.099625
6.733333	1	0.099250
6.750000	1	0.099750
6.766667	1	0.100125
6.783333	1	0.100625
6.800000	1	0.100750
6.816667	1	0.101500
6.833333	1	0.102375
6.850000	1	0.102625
6.866667	1	0.103500
6.883333	1	0.104250
6.900000	1	0.104875
6.916667	1	0.105875
6.933333	1	0.106375
6.950000	1	0.107250
6.966667	1	0.107375
6.983333	1	0.107625
7.000000	1	0.107750
7.016667	1	0.108125
7.033333	1	0.108250
7.050000	1	0.107625
7.066667	1	0.108125
7.083333	1	0.108000
7.100000	1	0.107625
7.116667	1	0.107750
7.133333	1	0.107750
7.150000	1	0.108250
7.166667	1	0.108250
7.183333	1	0.107875
7.200000	1	0.107500
7.216667	1	0.107500
7.233333	1	0.106875
7.250000	1	0.106250
7.266667	1	0.106500
7.283333	1	0.107125
7.300000	1	0.107000
7.316667	1	0.107625
7.333333	1	0.108250
7.350000	1	0.109375
7.366667	1	0.109750
7.383333	1	0.110750
7.400000	1	0.110750
7.416667	1	0.112125
7.433333	1	0.112750
7.450000	1	0.113625
7.466667	1	0.114500
7.483333	1	0.115375
7.500000	1	0.116250
7.516667	1	0.117375
7.533333	1	0.117750
7.550000	1	0.118500
7.566667	1	0.119125
7.583333	1	0.119750
7.600000	1	0.120500
7.616667	1	0.121000
7.633333	1	0.121250
7.650000	1	0.121375
7.666667	1	0.121375
7.683333	1	0.121500
7.700000	1	0.120875
7.716667	1	0.120625
7.733333	1	0.120125
7.750000	1	0.119875
7.766667	1	0.119500
7.783333	1	0.118750
7.800000	1	0.118375
7.816667	1	0.117375
7.833333	1	0.116000
7.850000	1	0.115125
7.866667	1	0.114000
7.883333	1	0.113000
7.900000	1	0.111750
7.916667	1	0.110000
7.933333	1	0.108500
7.950000	1	0.107000
7.966667	1	0.105375
7.983333	1	0.103000
8.000000	1	0.101750
8.016667	1	0.099375
8.033333	1	0.096875
8.050000	1	0.094500
8.066667	1	0.092125
8.083333	1	0.089875
8.100000	1	0.088250
8.116667	1	0.085625
8.133333	1	0.083125
8.150000	1	0.080625
8.166667	1	0.077500
8.183333	1	0.075250
8.200000	1	0.072500
8.216667	1	0.070000
8.233333	1	0.067250
8.250000	1	0.065000
8.266667	1	0.062000
8.283333	1	0.059000
8.300000	1	0.056750
8.316667	1	0.053750
8.333333	1	0.051500
8.350000	1	0.049500
8.366667	1	0.047125
8.383333	1	0.045000
8.400000	1	0.042875
8.416667	1	0.040625
8.433333	1	0.037875
8.450000	1	0.036000
8.466667	1	0.034125
8.483333	1	0.032125
8.500000	1	0.030000
8.516667	1	0.028500
8.533333	1	0.027375
8.550000	1	0.025250
8.566667	1	0.023750
8.583333	1	0.022875
8.600000	1	0.021500
8.616667	1	0.020500
8.633333	1	0.019625
8.650000	1	0.018875
8.666667	1	0.018125
8.683333	1	0.017000
8.700000	1	0.017250
8.716667	1	0.017500
8.733333	1	0.016875
8.750000	1	0.017125
8.766667	1	0.017500
8.783333	1	0.017500
8.800000	1	0.018500
8.816667	1	0.018875
8.833333	1	0.019375
8.850000	1	0.020625
8.866667	1	0.021875
8.883333	1	0.023250
8.900000	1	0.024500
8.916667	1	0.026000
8.933333	1	0.027750
8.950000	1	0.029000
8.966667	1	0.030125
8.983333	1	0.031500
9.000000	1	0.032500
9.016667	1	0.033625
9.033333	1	0.034375
9.050000	1	0.035250
9.066667	1	0.036125
9.083333	1	0.037125
9.100000	1	0.037250
9.116667	1	0.038125
9.133333	1	0.038875
9.150000	1	0.038625
9.166667	1	0.038500
9.183333	1	0.038375
9.200000	1	0.038750
9.216667	1	0.038125
9.233333	1	0.037500
9.250000	1	0.037000
9.266667	1	0.036250
9.283333	1	0.034875
9.300000	1	0.033750
9.316667	1	0.032750
9.333333	1	0.031875
9.350000	1	0.030375
9.366667	1	0.029500
9.383333	1	0.028125
9.400000	1	0.026750
9.416667	1	0.025750
9.433333	1	0.024875
9.450000	1	0.024375
9.466667	1	0.023500
9.483333	1	0.022375
9.500000	1	0.022000
9.516667	1	0.022125
9.533333	1	0.021250
9.550000	1	0.020875
9.566667	1	0.020625
9.583333	1	0.021000
9.600000	1	0.021000
9.616667	1	0.020875
9.633333	1	0.021375
9.650000	1	0.022000
9.666667	1	0.022875
9.683333	1	0.023000
9.700000	1	0.023125
9.716667	1	0.023750
9.733333	1	0.023875
9.750000	1	0.024250
9.766667	1	0.024375
9.783333	1	0.024875
9.800000	1	0.024875
9.816667	1	0.025750
9.833333	1	0.026500
9.850000	1	0.026500
9.866667	1	0.026875
9.883333	1	0.027500
9.900000	1	0.028250
9.916667	1	0.028750
9.933333	1	0.028500
9.950000	1	0.028625
9.966667	1	0.028375
9.983333	1	0.029000
10.000000	1	0.028875
10.016667	1	0.029125
10.033333	1	0.029250
10.050000	1	0.029500
10.066667	1	0.030250
10.083333	1	0.031250
10.100000	1	0.033125
10.116667	1	0.036125
10.133333	1	0.039375
10.150000	1	0.044125
10.166667	1	0.050000
10.183333	1	0.056000
10.200000	1	0.064875
10.216667	1	0.075375
10.233333	1	0.086125
10.250000	1	0.099875
10.266667	1	0.116250
10.283333	1	0.135000
10.300000	1	0.155625
10.316667	1	0.178750
10.333333	1	0.205250
10.350000	1	0.235125
10.366667	1	0.267500
10.383333	1	0.303000
10.400000	1	0.337375
10.416667	1	0.368375
10.433333	1	0.388625
10.450000	1	0.389250
10.466667	1	0.362125
10.483333	1	0.306000
10.500000	1	0.230750
10.516667	1	0.169000
10.533333	1	0.174000
10.550000	1	0.321375
10.566667	1	0.697625
10.583333	1	1.392125
10.600000	1	2.488625
10.616667	1	4.055125
10.633333	1	6.142125
10.650000	1	8.773375
10.666667	1	11.962500
10.683333	1	15.699500
10.700000	1	19.956625
10.716667	1	24.670875
10.733333	1	29.744500
10.750000	1	35.023250
10.766667	1	40.278375
10.783333	1	45.199000
10.800000	1	49.397250
10.816667	1	52.438250
10.833333	1	53.933375
10.850000	1	53.653750
10.866667	1	51.610000
10.883333	1	48.067500
10.900000	1	43.471375
10.916667	1	38.328500
10.933333	1	33.093125
10.950000	1	28.102000
10.966667	1	23.563250
10.983333	1	19.583500
11.000000	1	16.187000
11.016667	1	13.352375
11.033333	1	11.028125
11.050000	1	9.150000
11.066667	1	7.645375
11.083333	1	6.448625
11.100000	1	5.498875
11.116667	1	4.743750
11.133333	1	4.141750
11.150000	1	3.659125
11.166667	1	3.269250
11.183333	1	2.950500
11.200000	1	2.688250
11.216667	1	2.469000
11.233333	1	2.283375
11.250000	1	2.125250
11.266667	1	1.989500
11.283333	1	1.871500
11.300000	1	1.768375
11.316667	1	1.677750
11.333333	1	1.598500
11.350000	1	1.528375
11.366667	1	1.466125
11.383333	1	1.411375
11.400000	1	1.363125
11.416667	1	1.320375
11.433333	1	1.282125
11.450000	1	1.248375
11.466667	1	1.219750
11.483333	1	1.193875
11.500000	1	1.171750
11.516667	1	1.153250
11.533333	1	1.137375
11.550000	1	1.124250
11.566667	1	1.113750
11.583333	1	1.105500
11.600000	1	1.098625
11.616667	1	1.093125
11.633333	1	1.087750
11.650000	1	1.083500
11.666667	1	1.079375
11.683333	1	1.076375
11.700000	1	1.072750
11.716667	1	1.070250
11.733333	1	1.068375
11.750000	1	1.066875
11.766667	1	1.066500
11.783333	1	1.066875
11.800000	1	1.067375
11.816667	1	1.068875
11.833333	1	1.071375
11.850000	1	1.073625
11.866667	1	1.076750
11.883333	1	1.080250
11.900000	1	1.083875
11.916667	1	1.087250
11.933333	1	1.090375
11.950000	1	1.093625
11.966667	1	1.096750
11.983333	1	1.100875
12.000000	1	1.105625
12.016667	1	1.109875
12.033333	1	1.115250
12.050000	1	1.120500
12.066667	1	1.126375
12.083333	1	1.132250
12.100000	1	1.139250
12.116667	1	1.146750
12.133333	1	1.154125
12.150000	1	1.162250
12.166667	1	1.171000
12.183333	1	1.180000
12.200000	1	1.190625
12.216667	1	1.202000
12.233333	1	1.215625
12.250000	1	1.229750
12.266667	1	1.246000
12.283333	1	1.263625
12.300000	1	1.283875
12.316667	1	1.307750
12.333333	1	1.335375
12.350000	1	1.367875
12.366667	1	1.408000
12.383333	1	1.459250
12.400000	1	1.526500
12.416667	1	1.616375
12.433333	1	1.733750
12.450000	1	1.887250
12.466667	1	2.084750
12.483333	1	2.334500
12.500000	1	2.641500
12.516667	1	3.008250
12.533333	1	3.436875
12.550000	1	3.922500
12.566667	1	4.456875
12.583333	1	5.030125
12.600000	1	5.626125
12.616667	1	6.230000
12.633333	1	6.827750
12.650000	1	7.405125
12.666667	1	7.950875
12.683333	1	8.457500
12.700000	1	8.920125
12.716667	1	9.335375
12.733333	1	9.704125
12.750000	1	10.020375
12.766667	1	10.276750
12.783333	1	10.458875
12.800000	1	10.546125
12.816667	1	10.513625
12.833333	1	10.341375
12.850000	1	10.023625
12.866667	1	9.574250
12.883333	1	9.026750
12.900000	1	8.423875
12.916667	1	7.805125
12.933333	1	7.199625
12.950000	1	6.624250
12.966667	1	6.088125
12.983333	1	5.593250
13.000000	1	5.141750
13.016667	1	4.736250
13.033333	1	4.375125
13.050000	1	4.057875
13.066667	1	3.780125
13.083333	1	3.539875
13.100000	1	3.332250
13.116667	1	3.152875
13.133333	1	2.997000
13.150000	1	2.861750
13.166667	1	2.742250
13.183333	1	2.637750
13.200000	1	2.544000
13.216667	1	2.459750
13.233333	1	2.383375
13.250000	1	2.313250
13.266667	1	2.249500
13.283333	1	2.190250
13.300000	1	2.135000
13.316667	1	2.083375
13.333333	1	2.035000
13.350000	1	1.990000
13.366667	1	1.947750
13.383333	1	1.908750
13.400000	1	1.873000
13.416667	1	1.840375
13.433333	1	1.811375
13.450000	1	1.786375
13.466667	1	1.763500
13.483333	1	1.744375
13.500000	1	1.729250
13.516667	1	1.716250
13.533333	1	1.706500
13.550000	1	1.698500
13.566667	1	1.691625
13.583333	1	1.684250
13.600000	1	1.676750
13.616667	1	1.667125
13.633333	1	1.655000
13.650000	1	1.640625
13.666667	1	1.623375
13.683333	1	1.602250
13.700000	1	1.578500
13.716667	1	1.552625
13.733333	1	1.525875
13.750000	1	1.497750
13.766667	1	1.469375
13.783333	1	1.441500
13.800000	1	1.414250
13.816667	1	1.388500
13.833333	1	1.363875
13.850000	1	1.341000
13.866667	1	1.319375
13.883333	1	1.298875
13.900000	1	1.279625
13.916667	1	1.261375
13.933333	1	1.244250
13.950000	1	1.228750
13.966667	1	1.214000
13.983333	1	1.200250
14.000000	1	1.187875
14.016667	1	1.175875
14.033333	1	1.164875
14.050000	1	1.154500
14.066667	1	1.144750
14.083333	1	1.135750
14.100000	1	1.128000
14.116667	1	1.119750
14.133333	1	1.112000
14.150000	1	1.104250
14.166667	1	1.097500
14.183333	1	1.092125
14.200000	1	1.087625
14.216667	1	1.083875
14.233333	1	1.081375
14.250000	1	1.079750
14.266667	1	1.078625
14.283333	1	1.080000
14.300000	1	1.082625
14.316667	1	1.086875
14.333333	1	1.091625
14.350000	1	1.099250
14.366667	1	1.108000
14.383333	1	1.119125
14.400000	1	1.134250
14.416667	1	1.152875
14.433333	1	1.179000
14.450000	1	1.216000
14.466667	1	1.271375
14.483333	1	1.356000
14.500000	1	1.486000
14.516667	1	1.683250
14.533333	1	1.978250
14.550000	1	2.412500
14.566667	1	3.036500
14.583333	1	3.911000
14.600000	1	5.105125
14.616667	1	6.697000
14.633333	1	8.763625
14.650000	1	11.374500
14.666667	1	14.579875
14.683333	1	18.402000
14.700000	1	22.820500
14.716667	1	27.766250
14.733333	1	33.125750
14.750000	1	38.736000
14.766667	1	44.386625
14.783333	1	49.834750
14.800000	1	54.833875
14.816667	1	59.150625
14.833333	1	62.577875
14.850000	1	64.954875
14.866667	1	66.185375
14.883333	1	66.243250
14.900000	1	65.173375
14.916667	1	63.086750
14.933333	1	60.140125
14.950000	1	56.524625
14.966667	1	52.439375
14.983333	1	48.083000
15.000000	1	43.629500
15.016667	1	39.225000
15.033333	1	34.982000
15.050000	1	30.984125
15.066667	1	27.286125
15.083333	1	23.919625
15.100000	1	20.892625
15.116667	1	18.199250
15.133333	1	15.822375
15.150000	1	13.737750
15.166667	1	11.918500
15.183333	1	10.340000
15.200000	1	8.974250
15.216667	1	7.795875
15.233333	1	6.783375
15.250000	1	5.916625
15.266667	1	5.179250
15.283333	1	4.555000
15.300000	1	4.032750
15.316667	1	3.599000
15.333333	1	3.242250
15.350000	1	2.952625
15.366667	1	2.721000
15.383333	1	2.538500
15.400000	1	2.397125
15.416667	1	2.287125
15.433333	1	2.203250
15.450000	1	2.137625
15.466667	1	2.085000
15.483333	1	2.039750
15.500000	1	1.998625
15.516667	1	1.958000
15.533333	1	1.916875
15.550000	1	1.873375
15.566667	1	1.827500
15.583333	1	1.779875
15.600000	1	1.730625
15.616667	1	1.681000
15.633333	1	1.632125
15.650000	1	1.585125
15.666667	1	1.540125
15.683333	1	1.497625
15.700000	1	1.457750
15.716667	1	1.421250
15.733333	1	1.386500
15.750000	1	1.355000
15.766667	1	1.325375
15.783333	1	1.298125
15.800000	1	1.273375
15.816667	1	1.251250
15.833333	1	1.230875
15.850000	1	1.213750
15.866667	1	1.199125
15.883333	1	1.187750
15.900000	1	1.180375
15.916667	1	1.175750
15.933333	1	1.174375
15.950000	1	1.176375
15.966667	1	1.181375
15.983333	1	1.188750
16.000000	1	1.198250
16.016667	1	1.208500
16.033333	1	1.219250
16.050000	1	1.229375
16.066667	1	1.237750
16.083333	1	1.244875
16.100000	1	1.250375
16.116667	1	1.253250
16.133333	1	1.253125
16.150000	1	1.250375
16.166667	1	1.244875
16.183333	1	1.237375
16.200000	1	1.227750
16.216667	1	1.215875
16.233333	1	1.202500
16.250000	1	1.189250
16.266667	1	1.174875
16.283333	1	1.160000
16.300000	1	1.144625
16.316667	1	1.131500
16.333333	1	1.118375
16.350000	1	1.106625
16.366667	1	1.096500
16.383333	1	1.087875
16.400000	1	1.080750
16.416667	1	1.075875
16.433333	1	1.073375
16.450000	1	1.071625
16.466667	1	1.071500
16.483333	1	1.071750
16.500000	1	1.072250
16.516667	1	1.073875
16.533333	1	1.074375
16.550000	1	1.073750
16.566667	1	1.072625
16.583333	1	1.070000
16.600000	1	1.066625
16.616667	1	1.062500
16.633333	1	1.056625
16.650000	1	1.050625
16.666667	1	1.045625
16.683333	1	1.041000
16.700000	1	1.038250
16.716667	1	1.035875
16.733333	1	1.036250
16.750000	1	1.037500
16.766667	1	1.041375
16.783333	1	1.046625
16.800000	1	1.053250
16.816667	1	1.060750
16.833333	1	1.068375
16.850000	1	1.076750
16.866667	1	1.085250
16.883333	1	1.092375
16.900000	1	1.098250
16.916667	1	1.103000
16.933333	1	1.105750
16.950000	1	1.107125
16.966667	1	1.107250
16.983333	1	1.106500
17.000000	1	1.103625
17.016667	1	1.100500
17.033333	1	1.096875
17.050000	1	1.093500
17.066667	1	1.090125
17.083333	1	1.087750
17.100000	1	1.085375
17.116667	1	1.083500
17.133333	1	1.081500
17.150000	1	1.080750
17.166667	1	1.080625
17.183333	1	1.081250
17.200000	1	1.083000
17.216667	1	1.084875
17.233333	1	1.087875
17.250000	1	1.091125
17.266667	1	1.095500
17.283333	1	1.100375
17.300000	1	1.104500
17.316667	1	1.109000
17.333333	1	1.113500
17.350000	1	1.118750
17.366667	1	1.124000
17.383333	1	1.128250
17.400000	1	1.132500
17.416667	1	1.135000
17.433333	1	1.138000
17.450000	1	1.139750
17.466667	1	1.140250
17.483333	1	1.138875
17.500000	1	1.136375
17.516667	1	1.131750
17.533333	1	1.125500
17.550000	1	1.117625
17.566667	1	1.108500
17.583333	1	1.098500
17.600000	1	1.087500
17.616667	1	1.075750
17.633333	1	1.062625
17.650000	1	1.049375
17.666667	1	1.035750
17.683333	1	1.021375
17.700000	1	1.007500
17.716667	1	0.993750
17.733333	1	0.980500
17.750000	1	0.967875
17.766667	1	0.955500
17.783333	1	0.944000
17.800000	1	0.933500
17.816667	1	0.924000
17.833333	1	0.914375
17.850000	1	0.906000
17.866667	1	0.898250
17.883333	1	0.891375
17.900000	1	0.884375
17.916667	1	0.878750
17.933333	1	0.872875
17.950000	1	0.867250
17.966667	1	0.861000
17.983333	1	0.855250
18.000000	1	0.849750
18.016667	1	0.844375
18.033333	1	0.838250
18.050000	1	0.832000
18.066667	1	0.826250
18.083333	1	0.820750
18.100000	1	0.816125
18.116667	1	0.811125
18.133333	1	0.805875
18.150000	1	0.801000
18.166667	1	0.797875
18.183333	1	0.795625
18.200000	1	0.793875
18.216667	1	0.792250
18.233333	1	0.790875
18.250000	1	0.790625
18.266667	1	0.789250
18.283333	1	0.788250
18.300000	1	0.787000
18.316667	1	0.786125
18.333333	1	0.785500
18.350000	1	0.785875
18.366667	1	0.786250
18.383333	1	0.787250
18.400000	1	0.788750
18.416667	1	0.792000
18.433333	1	0.796750
18.450000	1	0.803875
18.466667	1	0.812125
18.483333	1	0.821750
18.500000	1	0.833375
18.516667	1	0.846750
18.533333	1	0.862375
18.550000	1	0.880625
18.566667	1	0.900000
18.583333	1	0.921750
18.600000	1	0.945125
18.616667	1	0.970000
18.633333	1	0.995750
18.650000	1	1.023625
18.666667	1	1.052500
18.683333	1	1.083375
18.700000	1	1.113875
18.716667	1	1.144875
18.733333	1	1.176500
18.750000	1	1.208000
18.766667	1	1.239500
18.783333	1	1.269000
18.800000	1	1.296875
18.816667	1	1.323000
18.833333	1	1.346500
18.850000	1	1.366000
18.866667	1	1.381500
18.883333	1	1.392125
18.900000	1	1.398000
18.916667	1	1.398375
18.933333	1	1.393500
18.950000	1	1.381875
18.966667	1	1.364875
18.983333	1	1.342125
19.000000	1	1.315125
19.016667	1	1.282750
19.033333	1	1.246625
19.050000	1	1.207875
19.066667	1	1.166375
19.083333	1	1.124250
19.100000	1	1.081500
19.116667	1	1.039375
19.133333	1	0.999375
19.150000	1	0.961500
19.166667	1	0.927000
19.183333	1	0.897000
19.200000	1	0.871375
19.216667	1	0.851500
19.233333	1	0.837000
19.250000	1	0.829250
19.266667	1	0.828500
19.283333	1	0.834375
19.300000	1	0.847750
19.316667	1	0.867750
19.333333	1	0.895000
19.350000	1	0.929500
19.366667	1	0.969000
19.383333	1	1.012875
19.400000	1	1.059750
19.416667	1	1.109000
19.433333	1	1.159125
19.450000	1	1.209750
19.466667	1	1.257500
19.483333	1	1.301875
19.500000	1	1.341125
19.516667	1	1.375000
19.533333	1	1.403250
19.550000	1	1.423500
19.566667	1	1.437625
19.583333	1	1.444250
19.600000	1	1.444125
19.616667	1	1.437125
19.633333	1	1.424125
19.650000	1	1.404625
19.666667	1	1.381250
19.683333	1	1.353250
19.700000	1	1.322125
19.716667	1	1.286375
19.733333	1	1.249375
19.750000	1	1.210250
19.766667	1	1.170125
19.783333	1	1.129375
19.800000	1	1.087500
19.816667	1	1.046000
19.833333	1	1.004000
19.850000	1	0.963625
19.866667	1	0.924000
19.883333	1	0.886625
19.900000	1	0.850625
19.916667	1	0.817750
19.933333	1	0.788000
19.950000	1	0.762250
19.966667	1	0.740375
19.983333	1	0.722125
20.000000	1	0.709375
20.016667	1	0.702500
20.033333	1	0.700750
20.050000	1	0.705250
20.066667	1	0.716000
20.083333	1	0.734125
20.100000	1	0.757250
20.116667	1	0.786500
20.133333	1	0.821750
20.150000	1	0.860875
20.166667	1	0.903375
20.183333	1	0.948500
20.200000	1	0.994375
20.216667	1	1.039000
20.233333	1	1.080875
20.250000	1	1.118250
20.266667	1	1.150750
20.283333	1	1.176375
20.300000	1	1.193250
20.316667	1	1.201875
20.333333	1	1.202000
20.350000	1	1.193375
20.366667	1	1.176875
20.383333	1	1.153500
20.400000	1	1.123875
20.416667	1	1.088625
20.433333	1	1.050875
20.450000	1	1.012125
20.466667	1	0.973500
20.483333	1	0.937375
20.500000	1	0.903750
20.516667	1	0.876750
20.533333	1	0.856875
20.550000	1	0.847000
20.566667	1	0.848250
20.583333	1	0.862125
20.600000	1	0.890125
20.616667	1	0.934625
20.633333	1	0.995250
20.650000	1	1.074750
20.666667	1	1.171875
20.683333	1	1.286875
20.700000	1	1.418000
20.716667	1	1.564000
20.733333	1	1.721750
20.750000	1	1.888250
20.766667	1	2.060125
20.783333	1	2.231375
20.800000	1	2.397500
20.816667	1	2.552250
20.833333	1	2.691500
20.850000	1	2.810750
20.866667	1	2.906250
20.883333	1	2.973375
20.900000	1	3.012250
20.916667	1	3.022375
20.933333	1	3.003375
20.950000	1	2.957500
20.966667	1	2.887250
20.983333	1	2.795250
21.000000	1	2.685000
21.016667	1	2.561250
21.033333	1	2.428125
21.050000	1	2.288750
21.066667	1	2.147250
21.083333	1	2.006750
21.100000	1	1.869750
21.116667	1	1.737625
21.133333	1	1.612250
21.150000	1	1.495125
21.166667	1	1.385500
21.183333	1	1.285500
21.200000	1	1.193500
21.216667	1	1.109000
21.233333	1	1.032000
21.250000	1	0.963750
21.266667	1	0.902000
21.283333	1	0.846000
21.300000	1	0.796500
21.316667	1	0.753375
21.333333	1	0.714125
21.350000	1	0.679000
21.366667	1	0.647375
21.383333	1	0.619375
21.400000	1	0.594625
21.416667	1	0.572500
21.433333	1	0.552500
21.450000	1	0.534875
21.466667	1	0.519125
21.483333	1	0.505000
21.500000	1	0.493625
21.516667	1	0.483375
21.533333	1	0.475125
21.550000	1	0.467250
21.566667	1	0.461375
21.583333	1	0.455875
21.600000	1	0.452375
21.616667	1	0.450250
21.633333	1	0.449750
21.650000	1	0.450750
21.666667	1	0.453125
21.683333	1	0.457125
21.700000	1	0.462250
21.716667	1	0.468750
21.733333	1	0.476375
21.750000	1	0.485250
21.766667	1	0.495500
21.783333	1	0.505750
21.800000	1	0.517750
21.816667	1	0.529375
21.833333	1	0.541250
21.850000	1	0.552750
21.866667	1	0.564375
21.883333	1	0.576000
21.900000	1	0.586875
21.916667	1	0.596625
21.933333	1	0.605125
21.950000	1	0.613375
21.966667	1	0.620125
21.983333	1	0.626750
22.000000	1	0.631625
22.016667	1	0.635125
22.033333	1	0.637250
22.050000	1	0.638750
22.066667	1	0.638500
22.083333	1	0.638125
22.100000	1	0.636375
22.116667	1	0.633875
22.133333	1	0.631250
22.150000	1	0.627000
22.166667	1	0.621750
22.183333	1	0.615750
22.200000	1	0.608625
22.216667	1	0.600500
22.233333	1	0.591875
22.250000	1	0.582125
22.266667	1	0.571750
22.283333	1	0.560250
22.300000	1	0.548625
22.316667	1	0.535875
22.333333	1	0.523625
22.350000	1	0.509625
22.366667	1	0.496625
22.383333	1	0.483625
22.400000	1	0.470625
22.416667	1	0.457500
22.433333	1	0.444500
22.450000	1	0.432125
22.466667	1	0.421000
22.483333	1	0.410125
22.500000	1	0.399000
22.516667	1	0.389125
22.533333	1	0.379375
22.550000	1	0.370625
22.566667	1	0.362125
22.583333	1	0.354750
22.600000	1	0.346875
22.616667	1	0.338875
22.633333	1	0.332000
22.650000	1	0.325500
22.666667	1	0.319625
22.683333	1	0.313875
22.700000	1	0.307500
22.716667	1	0.301875
22.733333	1	0.296250
22.750000	1	0.291000
22.766667	1	0.286000
22.783333	1	0.281875
22.800000	1	0.276750
22.816667	1	0.272000
22.833333	1	0.268625
22.850000	1	0.264375
22.866667	1	0.261125
22.883333	1	0.257750
22.900000	1	0.255125
22.916667	1	0.253125
22.933333	1	0.251375
22.950000	1	0.249625
22.966667	1	0.247750
22.983333	1	0.247375
23.000000	1	0.247125
23.016667	1	0.247000
23.033333	1	0.247625
23.050000	1	0.248375
23.066667	1	0.249375
23.083333	1	0.250625
23.100000	1	0.252875
23.116667	1	0.254875
23.133333	1	0.256625
23.150000	1	0.258625
23.166667	1	0.260375
23.183333	1	0.262625
23.200000	1	0.265125
23.216667	1	0.267250
23.233333	1	0.269625
23.250000	1	0.272375
23.266667	1	0.275250
23.283333	1	0.279000
23.300000	1	0.283500
23.316667	1	0.289375
23.333333	1	0.297500
23.350000	1	0.307250
23.366667	1	0.320000
23.383333	1	0.338375
23.400000	1	0.362125
23.416667	1	0.391625
23.433333	1	0.428875
23.450000	1	0.476125
23.466667	1	0.535125
23.483333	1	0.607375
23.500000	1	0.694875
23.516667	1	0.798625
23.533333	1	0.921875
23.550000	1	1.065000
23.566667	1	1.228875
23.583333	1	1.414375
23.600000	1	1.620250
23.616667	1	1.844500
23.633333	1	2.087500
23.650000	1	2.345750
23.666667	1	2.615125
23.683333	1	2.891500
23.700000	1	3.171250
23.716667	1	3.448375
23.733333	1	3.717375
23.750000	1	3.971625
23.766667	1	4.205875
23.783333	1	4.413750
23.800000	1	4.592000
23.816667	1	4.735875
23.833333	1	4.842875
23.850000	1	4.912000
23.866667	1	4.941625
23.883333	1	4.932375
23.900000	1	4.887250
23.916667	1	4.806500
23.933333	1	4.694500
23.950000	1	4.555375
23.966667	1	4.391625
23.983333	1	4.209625
24.000000	1	4.013125
24.016667	1	3.807375
24.033333	1	3.595625
24.050000	1	3.382125
24.066667	1	3.169000
24.083333	1	2.960125
24.100000	1	2.757000
24.116667	1	2.561375
24.133333	1	2.374125
24.150000	1	2.196250
24.166667	1	2.028625
24.183333	1	1.871875
24.200000	1	1.726000
24.216667	1	1.591000
24.233333	1	1.465500
24.250000	1	1.350500
24.266667	1	1.244625
24.283333	1	1.147625
24.300000	1	1.059625
24.316667	1	0.979750
24.333333	1	0.906875
24.350000	1	0.841125
24.366667	1	0.782500
24.383333	1	0.730250
24.400000	1	0.684125
24.416667	1	0.642875
24.433333	1	0.607625
24.450000	1	0.576750
24.466667	1	0.549125
24.483333	1	0.525875
24.500000	1	0.505375
24.516667	1	0.488250
24.533333	1	0.473875
24.550000	1	0.460875
24.566667	1	0.450000
24.583333	1	0.441000
24.600000	1	0.433125
24.616667	1	0.425625
24.633333	1	0.419250
24.650000	1	0.413875
24.666667	1	0.407875
24.683333	1	0.403375
24.700000	1	0.398125
24.716667	1	0.393500
24.733333	1	0.388875
24.750000	1	0.383875
24.766667	1	0.378500
24.783333	1	0.373875
24.800000	1	0.369375
24.816667	1	0.364750
24.833333	1	0.360625
24.850000	1	0.356625
24.866667	1	0.352375
24.883333	1	0.348500
24.900000	1	0.344750
24.916667	1	0.341125
24.933333	1	0.338125
24.950000	1	0.335125
24.966667	1	0.332125
24.983333	1	0.329500
25.000000	1	0.327125
25.016667	1	0.324625
25.033333	1	0.322250
25.050000	1	0.319750
25.066667	1	0.318000
25.083333	1	0.315625
25.100000	1	0.313750
25.116667	1	0.311875
25.133333	1	0.310125
25.150000	1	0.307625
25.166667	1	0.305875
25.183333	1	0.304125
25.200000	1	0.302625
25.216667	1	0.300250
25.233333	1	0.298000
25.250000	1	0.296750
25.266667	1	0.295000
25.283333	1	0.293250
25.300000	1	0.291375
25.316667	1	0.289500
25.333333	1	0.287875
25.350000	1	0.286250
25.366667	1	0.284875
25.383333	1	0.283750
25.400000	1	0.282500
25.416667	1	0.281500
25.433333	1	0.280875
25.450000	1	0.280250
25.466667	1	0.280500
25.483333	1	0.280250
25.500000	1	0.280000
25.516667	1	0.280250
25.533333	1	0.280750
25.550000	1	0.281375
25.566667	1	0.281500
25.583333	1	0.282250
25.600000	1	0.282875
25.616667	1	0.282250
25.633333	1	0.283125
25.650000	1	0.283250
25.666667	1	0.283500
25.683333	1	0.283625
25.700000	1	0.284375
25.716667	1	0.284375
25.733333	1	0.284250
25.750000	1	0.283875
25.766667	1	0.283750
25.783333	1	0.283375
25.800000	1	0.283750
25.816667	1	0.283375
25.833333	1	0.282875
25.850000	1	0.283125
25.866667	1	0.283375
25.883333	1	0.283625
25.900000	1	0.284625
25.916667	1	0.285750
25.933333	1	0.287000
25.950000	1	0.288750
25.966667	1	0.290500
25.983333	1	0.291750
26.000000	1	0.294125
26.016667	1	0.297375
26.033333	1	0.300875
26.050000	1	0.305000
26.066667	1	0.309000
26.083333	1	0.313500
26.100000	1	0.318500
26.116667	1	0.324000
26.133333	1	0.329250
26.150000	1	0.334875
26.166667	1	0.340500
26.183333	1	0.346250
26.200000	1	0.352750
26.216667	1	0.359000
26.233333	1	0.364500
26.250000	1	0.370625
26.266667	1	0.376250
26.283333	1	0.381375
26.300000	1	0.386500
26.316667	1	0.390875
26.333333	1	0.394750
26.350000	1	0.398000
26.366667	1	0.400500
26.383333	1	0.402000
26.400000	1	0.403125
26.416667	1	0.403000
26.433333	1	0.402000
26.450000	1	0.400125
26.466667	1	0.398125
26.483333	1	0.394250
26.500000	1	0.391125
26.516667	1	0.387125
26.533333	1	0.382500
26.550000	1	0.376375
26.566667	1	0.370000
26.583333	1	0.362625
26.600000	1	0.355750
26.616667	1	0.348375
26.633333	1	0.340750
26.650000	1	0.332500
26.666667	1	0.324875
26.683333	1	0.317625
26.700000	1	0.310125
26.716667	1	0.302500
26.733333	1	0.295125
26.750000	1	0.287750
26.766667	1	0.280750
26.783333	1	0.274000
26.800000	1	0.267625
26.816667	1	0.262250
26.833333	1	0.256500
26.850000	1	0.251875
26.866667	1	0.246750
26.883333	1	0.242500
26.900000	1	0.238875
26.916667	1	0.235500
26.933333	1	0.232500
26.950000	1	0.229750
26.966667	1	0.227625
26.983333	1	0.226000
27.000000	1	0.223875
27.016667	1	0.222625
27.033333	1	0.222500
27.050000	1	0.222250
27.066667	1	0.222125
27.083333	1	0.222500
27.100000	1	0.223625
27.116667	1	0.225625
27.133333	1	0.228375
27.150000	1	0.231125
27.166667	1	0.234250
27.183333	1	0.237625
27.200000	1	0.243000
27.216667	1	0.249625
27.233333	1	0.257500
27.250000	1	0.267250
27.266667	1	0.279500
27.283333	1	0.295375
27.300000	1	0.313875
27.316667	1	0.335250
27.333333	1	0.360625
27.350000	1	0.390250
27.366667	1	0.426000
27.383333	1	0.468000
27.400000	1	0.516750
27.416667	1	0.574375
27.433333	1	0.640375
27.450000	1	0.716500
27.466667	1	0.802750
27.483333	1	0.900250
27.500000	1	1.009000
27.516667	1	1.130250
27.533333	1	1.263000
27.550000	1	1.407375
27.566667	1	1.563875
27.583333	1	1.732375
27.600000	1	1.910375
27.616667	1	2.096500
27.633333	1	2.290625
27.650000	1	2.490875
27.666667	1	2.694375
27.683333	1	2.898125
27.700000	1	3.100875
27.716667	1	3.298750
27.733333	1	3.488625
27.750000	1	3.667375
27.766667	1	3.832375
27.783333	1	3.981000
27.800000	1	4.110500
27.816667	1	4.218375
27.833333	1	4.303875
27.850000	1	4.365250
27.866667	1	4.400375
27.883333	1	4.409750
27.900000	1	4.392750
27.916667	1	4.349500
27.933333	1	4.283500
27.950000	1	4.195000
27.966667	1	4.085500
27.983333	1	3.957750
28.000000	1	3.815375
28.016667	1	3.659625
28.033333	1	3.494125
28.050000	1	3.321250
28.066667	1	3.143375
28.083333	1	2.963250
28.100000	1	2.783875
28.116667	1	2.607625
28.133333	1	2.434625
28.150000	1	2.267500
28.166667	1	2.107375
28.183333	1	1.954875
28.200000	1	1.810875
28.216667	1	1.675875
28.233333	1	1.549500
28.250000	1	1.431750
28.266667	1	1.322250
28.283333	1	1.221500
28.300000	1	1.129250
28.316667	1	1.045000
28.333333	1	0.968875
28.350000	1	0.900125
28.366667	1	0.838000
28.383333	1	0.782000
28.400000	1	0.732875
28.416667	1	0.689000
28.433333	1	0.650625
28.450000	1	0.616625
28.466667	1	0.586875
28.483333	1	0.561375
28.500000	1	0.539875
28.516667	1	0.521375
28.533333	1	0.506125
28.550000	1	0.494250
28.566667	1	0.484625
28.583333	1	0.478125
28.600000	1	0.473250
28.616667	1	0.470875
28.633333	1	0.470125
28.650000	1	0.471500
28.666667	1	0.474375
28.683333	1	0.477875
28.700000	1	0.481625
28.716667	1	0.487250
28.733333	1	0.493125
28.750000	1	0.499125
28.766667	1	0.505500
28.783333	1	0.512125
28.800000	1	0.518750
28.816667	1	0.525000
28.833333	1	0.530375
28.850000	1	0.535250
28.866667	1	0.539625
28.883333	1	0.543750
28.900000	1	0.546500
28.916667	1	0.549250
28.933333	1	0.550125
28.950000	1	0.549625
28.966667	1	0.548250
28.983333	1	0.545750
29.000000	1	0.542250
29.016667	1	0.536000
29.033333	1	0.529375
29.050000	1	0.520875
29.066667	1	0.511000
29.083333	1	0.499375
29.100000	1	0.486125
29.116667	1	0.471125
29.133333	1	0.453625
29.150000	1	0.434250
29.166667	1	0.413625
29.183333	1	0.390750
29.200000	1	0.365875
29.216667	1	0.339125
29.233333	1	0.310000
29.250000	1	0.278500
29.266667	1	0.244875
29.283333	1	0.208500
29.300000	1	0.170000
29.316667	1	0.129250
29.333333	1	0.086000
29.350000	1	0.041500
29.366667	1	-0.005750
29.383333	1	-0.055000
29.400000	1	-0.105625
29.416667	1	-0.157875
29.433333	1	-0.212125
29.450000	1	-0.266625
29.466667	1	-0.322500
29.483333	1	-0.378750
29.500000	1	-0.435125
29.516667	1	-0.490875
29.533333	1	-0.546250
29.550000	1	-0.599625
29.566667	1	-0.652250
29.583333	1	-0.701375
29.600000	1	-0.747875
29.616667	1	-0.791750
29.633333	1	-0.832000
29.650000	1	-0.869125
29.666667	1	-0.901750
29.683333	1	-0.929375
29.700000	1	-0.952750
29.716667	1	-0.971250
29.733333	1	-0.985625
29.750000	1	-0.993875
29.766667	1	-0.997875
29.783333	1	-0.996375
29.800000	1	-0.990125
29.816667	1	-0.979125
29.833333	1	-0.963625
29.850000	1	-0.944625
29.866667	1	-0.921625
29.883333	1	-0.894625
29.900000	1	-0.865125
29.916667	1	-0.833375
29.933333	1	-0.798750
29.950000	1	-0.762500
29.966667	1	-0.724250
29.983333	1	-0.684875
30.000000	1	-0.645750
30.016667	1	-0.604750
30.033333	1	-0.564375
30.050000	1	-0.523875
30.066667	1	-0.483750
30.083333	1	-0.443875
30.100000	1	-0.405500
30.116667	1	-0.368875
30.133333	1	-0.333375
30.150000	1	-0.298250
30.166667	1	-0.265625
30.183333	1	-0.234125
30.200000	1	-0.204750
30.216667	1	-0.177000
30.233333	1	-0.150500
30.250000	1	-0.125250
30.266667	1	-0.102500
30.283333	1	-0.080625
30.300000	1	-0.060875
30.316667	1	-0.042500
30.333333	1	-0.025375
30.350000	1	-0.010125
30.366667	1	0.004250
30.383333	1	0.017750
30.400000	1	0.029750
30.416667	1	0.040750
30.433333	1	0.050500
30.450000	1	0.059375
30.466667	1	0.068250
30.483333	1	0.075375
30.500000	1	0.082625
30.516667	1	0.089500
30.533333	1	0.096625
30.550000	1	0.102625
30.566667	1	0.109000
30.583333	1	0.114625
30.600000	1	0.120250
30.616667	1	0.126500
30.633333	1	0.132125
30.650000	1	0.138500
30.666667	1	0.144375
30.683333	1	0.150875
30.700000	1	0.157875
30.716667	1	0.164750
30.733333	1	0.171250
30.750000	1	0.178250
30.766667	1	0.185500
30.783333	1	0.193375
30.800000	1	0.202000
30.816667	1	0.210875
30.833333	1	0.220250
30.850000	1	0.229625
30.866667	1	0.239750
30.883333	1	0.251375
30.900000	1	0.262500
30.916667	1	0.274500
30.933333	1	0.287500
30.950000	1	0.301625
30.966667	1	0.318000
30.983333	1	0.335125
31.000000	1	0.355250
31.016667	1	0.377625
31.033333	1	0.402750
31.050000	1	0.431375
31.066667	1	0.463750
31.083333	1	0.500125
31.100000	1	0.540875
31.116667	1	0.587750
31.133333	1	0.640750
31.150000	1	0.700625
31.166667	1	0.767625
31.183333	1	0.841500
31.200000	1	0.924500
31.216667	1	1.015750
31.233333	1	1.116125
31.250000	1	1.225750
31.266667	1	1.343625
31.283333	1	1.469250
31.300000	1	1.603875
31.316667	1	1.745625
31.333333	1	1.894500
31.350000	1	2.048375
31.366667	1	2.207375
31.383333	1	2.369000
31.400000	1	2.533000
31.416667	1	2.696375
31.433333	1	2.858375
31.450000	1	3.016250
31.466667	1	3.167625
31.483333	1	3.311250
31.500000	1	3.445375
31.516667	1	3.568625
31.533333	1	3.676875
31.550000	1	3.771625
31.566667	1	3.850250
31.583333	1	3.913375
31.600000	1	3.958625
31.616667	1	3.987000
31.633333	1	3.998000
31.650000	1	3.990375
31.666667	1	3.965625
31.683333	1	3.924125
31.700000	1	3.867000
31.716667	1	3.795625
31.733333	1	3.710875
31.750000	1	3.615125
31.766667	1	3.508750
31.783333	1	3.393750
31.800000	1	3.271000
31.816667	1	3.142500
31.833333	1	3.008875
31.850000	1	2.871375
31.866667	1	2.733625
31.883333	1	2.595375
31.900000	1	2.457875
31.916667	1	2.321750
31.933333	1	2.188750
31.950000	1	2.059500
31.966667	1	1.934375
31.983333	1	1.812125
32.000000	1	1.695000
32.016667	1	1.582625
32.033333	1	1.475500
32.050000	1	1.373875
32.066667	1	1.277000
32.083333	1	1.185375
32.100000	1	1.099500
32.116667	1	1.019125
32.133333	1	0.943375
32.150000	1	0.872250
32.166667	1	0.806250
32.183333	1	0.744000
32.200000	1	0.686500
32.216667	1	0.632000
32.233333	1	0.581500
32.250000	1	0.534875
32.266667	1	0.491250
32.283333	1	0.451875
32.300000	1	0.413750
32.316667	1	0.379125
32.333333	1	0.347125
32.350000	1	0.317500
32.366667	1	0.290500
32.383333	1	0.265250
32.400000	1	0.241625
32.416667	1	0.220250
32.433333	1	0.200000
32.450000	1	0.181875
32.466667	1	0.165000
32.483333	1	0.149625
32.500000	1	0.135375
32.516667	1	0.122125
32.533333	1	0.109875
32.550000	1	0.099000
32.566667	1	0.089250
32.583333	1	0.079875
32.600000	1	0.071750
32.616667	1	0.063625
32.633333	1	0.056125
32.650000	1	0.050000
32.666667	1	0.043875
32.683333	1	0.038250
32.700000	1	0.033375
32.716667	1	0.028250
32.733333	1	0.024000
32.750000	1	0.020375
32.766667	1	0.017000
32.783333	1	0.013375
32.800000	1	0.010500
32.816667	1	0.008750
32.833333	1	0.006375
32.850000	1	0.004500
32.866667	1	0.002750
32.883333	1	0.001000
32.900000	1	-0.000375
32.916667	1	-0.001500
32.933333	1	-0.003125
32.950000	1	-0.004250
32.966667	1	-0.004750
32.983333	1	-0.005500
33.000000	1	-0.006250
33.016667	1	-0.006000
33.033333	1	-0.006625
33.050000	1	-0.007125
33.066667	1	-0.007125
33.083333	1	-0.006500
33.100000	1	-0.006250
33.116667	1	-0.006375
33.133333	1	-0.006625
33.150000	1	-0.006375
33.166667	1	-0.006125
33.183333	1	-0.005000
33.200000	1	-0.004625
33.216667	1	-0.004375
33.233333	1	-0.003375
33.250000	1	-0.002250
33.266667	1	-0.001750
33.283333	1	-0.001250
33.300000	1	0.000250
33.316667	1	0.001500
33.333333	1	0.002875
33.350000	1	0.004250
33.366667	1	0.005250
33.383333	1	0.006500
33.400000	1	0.008000
33.416667	1	0.009375
33.433333	1	0.011125
33.450000	1	0.012000
33.466667	1	0.013375
33.483333	1	0.014625
33.500000	1	0.015125
33.516667	1	0.016250
33.533333	1	0.016875
33.550000	1	0.018125
33.566667	1	0.019625
33.583333	1	0.020625
33.600000	1	0.021875
33.616667	1	0.023000
33.633333	1	0.024375
33.650000	1	0.025625
33.666667	1	0.026625
33.683333	1	0.028250
33.700000	1	0.029250
33.716667	1	0.030875
33.733333	1	0.032625
33.750000	1	0.034750
33.766667	1	0.036375
33.783333	1	0.037875
33.800000	1	0.039750
33.816667	1	0.041875
33.833333	1	0.043500
33.850000	1	0.046125
33.866667	1	0.047875
33.883333	1	0.049375
33.900000	1	0.051250
33.916667	1	0.053125
33.933333	1	0.054375
33.950000	1	0.056250
33.966667	1	0.057500
33.983333	1	0.058750
34.000000	1	0.060125
34.016667	1	0.061125
34.033333	1	0.062375
34.050000	1	0.062750
34.066667	1	0.063125
34.083333	1	0.063125
34.100000	1	0.063375
34.116667	1	0.063250
34.133333	1	0.063250
34.150000	1	0.062875
34.166667	1	0.062125
34.183333	1	0.061750
34.200000	1	0.061250
34.216667	1	0.060500
34.233333	1	0.059375
34.250000	1	0.058500
34.266667	1	0.058000
34.283333	1	0.056375
34.300000	1	0.054875
34.316667	1	0.054250
34.333333	1	0.052875
34.350000	1	0.051875
34.366667	1	0.051000
34.383333	1	0.050125
34.400000	1	0.049875
34.416667	1	0.049750
34.433333	1	0.049875
34.450000	1	0.050500
34.466667	1	0.051000
34.483333	1	0.052000
34.500000	1	0.053125
34.516667	1	0.054375
34.533333	1	0.055875
34.550000	1	0.058125
34.566667	1	0.060500
34.583333	1	0.063000
34.600000	1	0.065375
34.616667	1	0.067250
34.633333	1	0.070250
34.650000	1	0.072375
34.666667	1	0.075375
34.683333	1	0.077625
34.700000	1	0.081000
34.716667	1	0.084125
34.733333	1	0.087250
34.750000	1	0.090375
34.766667	1	0.092625
34.783333	1	0.095000
34.800000	1	0.096875
34.816667	1	0.098875
34.833333	1	0.100750
34.850000	1	0.102500
34.866667	1	0.103875
34.883333	1	0.105500
34.900000	1	0.106875
34.916667	1	0.107625
34.933333	1	0.108250
34.950000	1	0.108625
34.966667	1	0.109000
34.983333	1	0.108750
35.000000	1	0.108000
35.016667	1	0.107500
35.033333	1	0.107000
35.050000	1	0.106125
35.066667	1	0.104250
35.083333	1	0.102875
35.100000	1	0.101000
35.116667	1	0.100000
35.133333	1	0.098625
35.150000	1	0.097250
35.166667	1	0.095750
35.183333	1	0.094125
35.200000	1	0.091625
35.216667	1	0.089625
35.233333	1	0.087375
35.250000	1	0.084750
35.266667	1	0.083750
35.283333	1	0.082125
35.300000	1	0.080750
35.316667	1	0.079750
35.333333	1	0.077625
35.350000	1	0.077000
35.366667	1	0.076250
35.383333	1	0.075125
35.400000	1	0.074250
35.416667	1	0.073125
35.433333	1	0.072375
35.450000	1	0.071500
35.466667	1	0.070875
35.483333	1	0.069750
35.500000	1	0.069750
35.516667	1	0.069250
35.533333	1	0.069125
35.550000	1	0.069250
35.566667	1	0.069125
35.583333	1	0.069250
35.600000	1	0.069125
35.616667	1	0.068875
35.633333	1	0.069125
35.650000	1	0.069875
35.666667	1	0.070000
35.683333	1	0.071125
35.700000	1	0.071750
35.716667	1	0.072250
35.733333	1	0.072500
35.750000	1	0.073750
35.766667	1	0.074375
35.783333	1	0.074750
35.800000	1	0.074875
35.816667	1	0.075250
35.833333	1	0.075375
35.850000	1	0.075500
35.866667	1	0.076375
35.883333	1	0.076875
35.900000	1	0.076500
35.916667	1	0.076625
35.933333	1	0.077125
35.950000	1	0.077375
35.966667	1	0.077625
35.983333	1	0.077250
36.000000	1	0.077625
36.016667	1	0.078125
36.033333	1	0.078000
36.050000	1	0.077875
36.066667	1	0.077125
36.083333	1	0.077125
36.100000	1	0.077125
36.116667	1	0.077250
36.133333	1	0.076875
36.150000	1	0.076500
36.166667	1	0.076625
36.183333	1	0.076750
36.200000	1	0.076625
36.216667	1	0.076500
36.233333	1	0.077250
36.250000	1	0.078000
36.266667	1	0.078750
36.283333	1	0.079500
36.300000	1	0.080250
36.316667	1	0.080875
36.333333	1	0.082125
36.350000	1	0.083125
36.366667	1	0.083875
36.383333	1	0.085250
36.400000	1	0.085500
36.416667	1	0.086375
36.433333	1	0.087875
36.450000	1	0.088625
36.466667	1	0.089375
36.483333	1	0.090500
36.500000	1	0.091375
36.516667	1	0.092250
36.533333	1	0.093125
36.550000	1	0.094625
36.566667	1	0.095875
36.583333	1	0.096125
36.600000	1	0.096125
36.616667	1	0.096625
36.633333	1	0.097000
36.650000	1	0.096500
36.666667	1	0.096250
36.683333	1	0.095500
36.700000	1	0.095500
36.716667	1	0.095500
36.733333	1	0.094750
36.750000	1	0.093625
36.766667	1	0.092625
36.783333	1	0.090875
36.800000	1	0.089750
36.816667	1	0.087750
36.833333	1	0.085500
36.850000	1	0.084125
36.866667	1	0.082250
36.883333	1	0.080125
36.900000	1	0.078125
36.916667	1	0.075875
36.933333	1	0.074250
36.950000	1	0.071875
36.966667	1	0.070500
36.983333	1	0.067625
37.000000	1	0.065375
37.016667	1	0.063125
37.033333	1	0.061250
37.050000	1	0.059250
37.066667	1	0.057625
37.083333	1	0.056125
37.100000	1	0.053750
37.116667	1	0.052500
37.133333	1	0.051125
37.150000	1	0.049875
37.166667	1	0.048625
37.183333	1	0.047500
37.200000	1	0.045750
37.216667	1	0.044500
37.233333	1	0.043125
37.250000	1	0.042125
37.266667	1	0.041375
37.283333	1	0.040250
37.300000	1	0.039500
37.316667	1	0.038250
37.333333	1	0.036875
37.350000	1	0.035875
37.366667	1	0.035000
37.383333	1	0.033625
37.400000	1	0.032625
37.416667	1	0.031125
37.433333	1	0.030375
37.450000	1	0.029000
37.466667	1	0.027750
37.483333	1	0.025750
37.500000	1	0.024250
37.516667	1	0.022375
37.533333	1	0.021000
37.550000	1	0.019250
37.566667	1	0.017500
37.583333	1	0.015750
37.600000	1	0.013875
37.616667	1	0.012125
37.633333	1	0.011125
37.650000	1	0.008875
37.666667	1	0.006125
37.683333	1	0.003750
37.700000	1	0.001625
37.716667	1	0.000000
37.733333	1	-0.001750
37.750000	1	-0.003875
37.766667	1	-0.006375
37.783333	1	-0.008750
37.800000	1	-0.010250
37.816667	1	-0.011500
37.833333	1	-0.013375
37.850000	1	-0.015125
37.866667	1	-0.017250
37.883333	1	-0.019000
37.900000	1	-0.020875
37.916667	1	-0.022250
37.933333	1	-0.023625
37.950000	1	-0.024750
37.966667	1	-0.025750
37.983333	1	-0.026500
38.000000	1	-0.027125
38.016667	1	-0.028125
38.033333	1	-0.028750
38.050000	1	-0.028875
38.066667	1	-0.028625
38.083333	1	-0.027750
38.100000	1	-0.027125
38.116667	1	-0.026250
38.133333	1	-0.025625
38.150000	1	-0.025375
38.166667	1	-0.024875
38.183333	1	-0.023625
38.200000	1	-0.022375
38.216667	1	-0.021000
38.233333	1	-0.019625
38.250000	1	-0.018375
38.266667	1	-0.016875
38.283333	1	-0.015750
38.300000	1	-0.014125
38.316667	1	-0.013250
38.333333	1	-0.011125
38.350000	1	-0.010000
38.366667	1	-0.009250
38.383333	1	-0.008000
38.400000	1	-0.006250
38.416667	1	-0.005500
38.433333	1	-0.005625
38.450000	1	-0.004750
38.466667	1	-0.004250
38.483333	1	-0.004250
38.500000	1	-0.004250
38.516667	1	-0.004000
38.533333	1	-0.004125
38.550000	1	-0.004500
38.566667	1	-0.004875
38.583333	1	-0.004750
38.600000	1	-0.005625
38.616667	1	-0.005875
38.633333	1	-0.006625
38.650000	1	-0.007375
38.666667	1	-0.008375
38.683333	1	-0.009750
38.700000	1	-0.010375
38.716667	1	-0.011500
38.733333	1	-0.012000
38.750000	1	-0.012875
38.766667	1	-0.013625
38.783333	1	-0.014000
38.800000	1	-0.014750
38.816667	1	-0.015500
38.833333	1	-0.015750
38.850000	1	-0.015750
38.866667	1	-0.015500
38.883333	1	-0.015250
38.900000	1	-0.015375
38.916667	1	-0.015250
38.933333	1	-0.015125
38.950000	1	-0.015250
38.966667	1	-0.014875
38.983333	1	-0.015375
39.000000	1	-0.015625
39.016667	1	-0.016500
39.033333	1	-0.016500
39.050000	1	-0.017000
39.066667	1	-0.017875
39.083333	1	-0.018625
39.100000	1	-0.019125
39.116667	1	-0.019875
39.133333	1	-0.020625
39.150000	1	-0.021625
39.166667	1	-0.022500
39.183333	1	-0.023750
39.200000	1	-0.024875
39.216667	1	-0.025625
39.233333	1	-0.027125
39.250000	1	-0.028250
39.266667	1	-0.030375
39.283333	1	-0.031125
39.300000	1	-0.032500
39.316667	1	-0.034250
39.333333	1	-0.035250
39.350000	1	-0.036000
39.366667	1	-0.037625
39.383333	1	-0.039375
39.400000	1	-0.041125
39.416667	1	-0.042625
39.433333	1	-0.043125
39.450000	1	-0.043625
39.466667	1	-0.044125
39.483333	1	-0.044625
39.500000	1	-0.044500
39.516667	1	-0.044750
39.533333	1	-0.045000
39.550000	1	-0.045375
39.566667	1	-0.044625
39.583333	1	-0.045125
39.600000	1	-0.044875
39.616667	1	-0.044375
39.633333	1	-0.043125
39.650000	1	-0.042375
39.666667	1	-0.041000
39.683333	1	-0.040125
39.700000	1	-0.038750
39.716667	1	-0.037625
39.733333	1	-0.036375
39.750000	1	-0.035250
39.766667	1	-0.034375
39.783333	1	-0.033875
39.800000	1	-0.033000
39.816667	1	-0.032125
39.833333	1	-0.031375
39.850000	1	-0.030750
39.866667	1	-0.030000
39.883333	1	-0.029500
39.900000	1	-0.029750
39.916667	1	-0.029500
39.933333	1	-0.030000
39.950000	1	-0.030250
39.966667	1	-0.030750
39.983333	1	-0.031000
40.000000	1	-0.030875
