URL	chrom://7040-86g6c92/XVault/Ultimate_3000/20/20240517_CMO_FP23_FP25_MarkusDeplate.seq/161.smp/RI_1.channel/RI_1.chm
Channel	RI_1

Injection Information:
Data Vault	XVault
Sequence	20240517_CMO_FP23_FP25_MarkusDeplate
Name	FP26_24_s1
Number	96
Position	BB1
Comment	
Processing Method	
Instrument Method	run_25B_method
Type	Unknown
Status	Finished
Inject Time	30.05.2024 11:52:56 +02:00
Volume (µl)	20.0000
Dilution Factor	1.0000
Weight	1.0000

Chromatogram Data Information:
Time Min. (min)	0.000000
Time Max. (min)	40.000000
Data Points	2401
Detector	RI
Generating Data System	Chromeleon 7.3.2.11814
Exporting Data System	Chromeleon 7.3.2.0
Operator	Instrument Controller
Signal Quantity	Refractive 
Signal Unit	µRIU
Signal Min.	-0.804375
Signal Max.	67.120000
Channel	RI_1
Driver Name	RID520Driver.dll
Channel Type	Evaluation
Min. Step (s)	1
Max. Step (s)	1
Average Step (s)	1

Signal Parameter Information:
Signal Info	

Chromatogram Data:
Time (min)	Step (s)	Value (µRIU)
0.000000	n.a.	-0.005250
0.016667	1	-0.003875
0.033333	1	-0.002250
0.050000	1	-0.001125
0.066667	1	0.000125
0.083333	1	0.001875
0.100000	1	0.003625
0.116667	1	0.005125
0.133333	1	0.006125
0.150000	1	0.008375
0.166667	1	0.009125
0.183333	1	0.010000
0.200000	1	0.010875
0.216667	1	0.012000
0.233333	1	0.012500
0.250000	1	0.013750
0.266667	1	0.014000
0.283333	1	0.013500
0.300000	1	0.013875
0.316667	1	0.013750
0.333333	1	0.013375
0.350000	1	0.012250
0.366667	1	0.011625
0.383333	1	0.010375
0.400000	1	0.008500
0.416667	1	0.007750
0.433333	1	0.008125
0.450000	1	0.009000
0.466667	1	0.010125
0.483333	1	0.009875
0.500000	1	0.010375
0.516667	1	0.009625
0.533333	1	0.008000
0.550000	1	0.006625
0.566667	1	0.004000
0.583333	1	0.000500
0.600000	1	-0.002500
0.616667	1	-0.006375
0.633333	1	-0.010125
0.650000	1	-0.012375
0.666667	1	-0.014375
0.683333	1	-0.016500
0.700000	1	-0.018125
0.716667	1	-0.018750
0.733333	1	-0.019875
0.750000	1	-0.021000
0.766667	1	-0.021750
0.783333	1	-0.022375
0.800000	1	-0.023250
0.816667	1	-0.024125
0.833333	1	-0.024500
0.850000	1	-0.025250
0.866667	1	-0.026000
0.883333	1	-0.025875
0.900000	1	-0.026125
0.916667	1	-0.026625
0.933333	1	-0.027000
0.950000	1	-0.027375
0.966667	1	-0.027375
0.983333	1	-0.027375
1.000000	1	-0.028125
1.016667	1	-0.028125
1.033333	1	-0.028125
1.050000	1	-0.027625
1.066667	1	-0.027625
1.083333	1	-0.027375
1.100000	1	-0.027375
1.116667	1	-0.027000
1.133333	1	-0.026875
1.150000	1	-0.027125
1.166667	1	-0.026875
1.183333	1	-0.027000
1.200000	1	-0.026875
1.216667	1	-0.027125
1.233333	1	-0.026875
1.250000	1	-0.026125
1.266667	1	-0.025250
1.283333	1	-0.025125
1.300000	1	-0.024875
1.316667	1	-0.024500
1.333333	1	-0.024375
1.350000	1	-0.024500
1.366667	1	-0.024375
1.383333	1	-0.023625
1.400000	1	-0.023250
1.416667	1	-0.023250
1.433333	1	-0.022625
1.450000	1	-0.022000
1.466667	1	-0.021625
1.483333	1	-0.021375
1.500000	1	-0.020875
1.516667	1	-0.019875
1.533333	1	-0.019250
1.550000	1	-0.019000
1.566667	1	-0.018375
1.583333	1	-0.017500
1.600000	1	-0.016750
1.616667	1	-0.015500
1.633333	1	-0.014750
1.650000	1	-0.013875
1.666667	1	-0.012875
1.683333	1	-0.011625
1.700000	1	-0.010375
1.716667	1	-0.009375
1.733333	1	-0.008625
1.750000	1	-0.007500
1.766667	1	-0.006625
1.783333	1	-0.005500
1.800000	1	-0.004500
1.816667	1	-0.003750
1.833333	1	-0.003125
1.850000	1	-0.002375
1.866667	1	-0.001500
1.883333	1	-0.000625
1.900000	1	-0.000625
1.916667	1	-0.000250
1.933333	1	0.000875
1.950000	1	0.001250
1.966667	1	0.001875
1.983333	1	0.002375
2.000000	1	0.002875
2.016667	1	0.003500
2.033333	1	0.003750
2.050000	1	0.004125
2.066667	1	0.004750
2.083333	1	0.005250
2.100000	1	0.005000
2.116667	1	0.005250
2.133333	1	0.005000
2.150000	1	0.005250
2.166667	1	0.005125
2.183333	1	0.004125
2.200000	1	0.003000
2.216667	1	0.002875
2.233333	1	0.002500
2.250000	1	0.002125
2.266667	1	0.001500
2.283333	1	0.000250
2.300000	1	-0.000625
2.316667	1	-0.001750
2.333333	1	-0.003125
2.350000	1	-0.004125
2.366667	1	-0.005750
2.383333	1	-0.006750
2.400000	1	-0.008625
2.416667	1	-0.009250
2.433333	1	-0.010500
2.450000	1	-0.011375
2.466667	1	-0.012500
2.483333	1	-0.014500
2.500000	1	-0.015625
2.516667	1	-0.016750
2.533333	1	-0.017625
2.550000	1	-0.018750
2.566667	1	-0.019375
2.583333	1	-0.019625
2.600000	1	-0.020750
2.616667	1	-0.021125
2.633333	1	-0.021250
2.650000	1	-0.021625
2.666667	1	-0.021500
2.683333	1	-0.022125
2.700000	1	-0.021250
2.716667	1	-0.021375
2.733333	1	-0.021125
2.750000	1	-0.021250
2.766667	1	-0.020750
2.783333	1	-0.020625
2.800000	1	-0.019500
2.816667	1	-0.019125
2.833333	1	-0.018000
2.850000	1	-0.017125
2.866667	1	-0.016375
2.883333	1	-0.016750
2.900000	1	-0.016625
2.916667	1	-0.015750
2.933333	1	-0.015875
2.950000	1	-0.015625
2.966667	1	-0.015875
2.983333	1	-0.015750
3.000000	1	-0.015625
3.016667	1	-0.015125
3.033333	1	-0.015125
3.050000	1	-0.015125
3.066667	1	-0.014625
3.083333	1	-0.014625
3.100000	1	-0.014625
3.116667	1	-0.014000
3.133333	1	-0.014625
3.150000	1	-0.014250
3.166667	1	-0.014500
3.183333	1	-0.015000
3.200000	1	-0.015250
3.216667	1	-0.015375
3.233333	1	-0.015375
3.250000	1	-0.015500
3.266667	1	-0.015875
3.283333	1	-0.016000
3.300000	1	-0.016625
3.316667	1	-0.016625
3.333333	1	-0.016875
3.350000	1	-0.016875
3.366667	1	-0.016500
3.383333	1	-0.017500
3.400000	1	-0.016875
3.416667	1	-0.017250
3.433333	1	-0.017125
3.450000	1	-0.017250
3.466667	1	-0.017750
3.483333	1	-0.017750
3.500000	1	-0.018000
3.516667	1	-0.017625
3.533333	1	-0.017625
3.550000	1	-0.017875
3.566667	1	-0.017625
3.583333	1	-0.017875
3.600000	1	-0.017750
3.616667	1	-0.017625
3.633333	1	-0.017375
3.650000	1	-0.016375
3.666667	1	-0.016125
3.683333	1	-0.015875
3.700000	1	-0.016000
3.716667	1	-0.016000
3.733333	1	-0.015750
3.750000	1	-0.016250
3.766667	1	-0.016750
3.783333	1	-0.016625
3.800000	1	-0.016750
3.816667	1	-0.017125
3.833333	1	-0.018125
3.850000	1	-0.018500
3.866667	1	-0.018750
3.883333	1	-0.019625
3.900000	1	-0.020500
3.916667	1	-0.021500
3.933333	1	-0.021750
3.950000	1	-0.022875
3.966667	1	-0.023250
3.983333	1	-0.024000
4.000000	1	-0.024625
4.016667	1	-0.025375
4.033333	1	-0.026000
4.050000	1	-0.026875
4.066667	1	-0.028125
4.083333	1	-0.028875
4.100000	1	-0.029125
4.116667	1	-0.030000
4.133333	1	-0.030500
4.150000	1	-0.031375
4.166667	1	-0.032000
4.183333	1	-0.033125
4.200000	1	-0.034375
4.216667	1	-0.035500
4.233333	1	-0.036875
4.250000	1	-0.037125
4.266667	1	-0.038000
4.283333	1	-0.038500
4.300000	1	-0.039250
4.316667	1	-0.040250
4.333333	1	-0.041625
4.350000	1	-0.042375
4.366667	1	-0.043625
4.383333	1	-0.044375
4.400000	1	-0.044500
4.416667	1	-0.044375
4.433333	1	-0.045375
4.450000	1	-0.045875
4.466667	1	-0.046000
4.483333	1	-0.046250
4.500000	1	-0.046875
4.516667	1	-0.046625
4.533333	1	-0.047125
4.550000	1	-0.046875
4.566667	1	-0.046875
4.583333	1	-0.046875
4.600000	1	-0.046875
4.616667	1	-0.046750
4.633333	1	-0.046375
4.650000	1	-0.046000
4.666667	1	-0.045375
4.683333	1	-0.045125
4.700000	1	-0.044375
4.716667	1	-0.043875
4.733333	1	-0.042875
4.750000	1	-0.042500
4.766667	1	-0.041500
4.783333	1	-0.040750
4.800000	1	-0.039750
4.816667	1	-0.038875
4.833333	1	-0.038250
4.850000	1	-0.037625
4.866667	1	-0.036125
4.883333	1	-0.035000
4.900000	1	-0.034000
4.916667	1	-0.032375
4.933333	1	-0.030875
4.950000	1	-0.029500
4.966667	1	-0.027875
4.983333	1	-0.026375
5.000000	1	-0.024500
5.016667	1	-0.023000
5.033333	1	-0.021125
5.050000	1	-0.018875
5.066667	1	-0.016750
5.083333	1	-0.015000
5.100000	1	-0.013000
5.116667	1	-0.010500
5.133333	1	-0.007750
5.150000	1	-0.006000
5.166667	1	-0.004000
5.183333	1	-0.000875
5.200000	1	0.001875
5.216667	1	0.005000
5.233333	1	0.008125
5.250000	1	0.011125
5.266667	1	0.013625
5.283333	1	0.015875
5.300000	1	0.019500
5.316667	1	0.022250
5.333333	1	0.025375
5.350000	1	0.028500
5.366667	1	0.031875
5.383333	1	0.035375
5.400000	1	0.038500
5.416667	1	0.041125
5.433333	1	0.044000
5.450000	1	0.047250
5.466667	1	0.049875
5.483333	1	0.053125
5.500000	1	0.056750
5.516667	1	0.059375
5.533333	1	0.062125
5.550000	1	0.065125
5.566667	1	0.068250
5.583333	1	0.071375
5.600000	1	0.073625
5.616667	1	0.076250
5.633333	1	0.078500
5.650000	1	0.081000
5.666667	1	0.082875
5.683333	1	0.085125
5.700000	1	0.087125
5.716667	1	0.089500
5.733333	1	0.090625
5.750000	1	0.091750
5.766667	1	0.092750
5.783333	1	0.093750
5.800000	1	0.094875
5.816667	1	0.095875
5.833333	1	0.096125
5.850000	1	0.095875
5.866667	1	0.095875
5.883333	1	0.095125
5.900000	1	0.093875
5.916667	1	0.093375
5.933333	1	0.091500
5.950000	1	0.089750
5.966667	1	0.087500
5.983333	1	0.085625
6.000000	1	0.084500
6.016667	1	0.082125
6.033333	1	0.080375
6.050000	1	0.077625
6.066667	1	0.074500
6.083333	1	0.071625
6.100000	1	0.068750
6.116667	1	0.064125
6.133333	1	0.061375
6.150000	1	0.058125
6.166667	1	0.054750
6.183333	1	0.051250
6.200000	1	0.048250
6.216667	1	0.043625
6.233333	1	0.039500
6.250000	1	0.035250
6.266667	1	0.031250
6.283333	1	0.027500
6.300000	1	0.023375
6.316667	1	0.019500
6.333333	1	0.015625
6.350000	1	0.012500
6.366667	1	0.009125
6.383333	1	0.005500
6.400000	1	0.002125
6.416667	1	-0.000375
6.433333	1	-0.002750
6.450000	1	-0.005625
6.466667	1	-0.008500
6.483333	1	-0.010250
6.500000	1	-0.012625
6.516667	1	-0.014875
6.533333	1	-0.016875
6.550000	1	-0.018125
6.566667	1	-0.018500
6.583333	1	-0.019625
6.600000	1	-0.020000
6.616667	1	-0.020625
6.633333	1	-0.021000
6.650000	1	-0.021250
6.666667	1	-0.020500
6.683333	1	-0.019750
6.700000	1	-0.018750
6.716667	1	-0.018000
6.733333	1	-0.017250
6.750000	1	-0.015250
6.766667	1	-0.014000
6.783333	1	-0.012000
6.800000	1	-0.010250
6.816667	1	-0.009000
6.833333	1	-0.006750
6.850000	1	-0.004750
6.866667	1	-0.003250
6.883333	1	-0.000750
6.900000	1	0.001500
6.916667	1	0.003250
6.933333	1	0.005125
6.950000	1	0.007375
6.966667	1	0.009375
6.983333	1	0.011125
7.000000	1	0.013250
7.016667	1	0.014750
7.033333	1	0.016125
7.050000	1	0.018125
7.066667	1	0.019750
7.083333	1	0.021875
7.100000	1	0.023750
7.116667	1	0.025875
7.133333	1	0.027750
7.150000	1	0.029750
7.166667	1	0.032375
7.183333	1	0.034875
7.200000	1	0.037625
7.216667	1	0.040875
7.233333	1	0.043500
7.250000	1	0.046500
7.266667	1	0.049250
7.283333	1	0.052250
7.300000	1	0.054875
7.316667	1	0.059250
7.333333	1	0.062250
7.350000	1	0.065750
7.366667	1	0.069125
7.383333	1	0.073000
7.400000	1	0.076375
7.416667	1	0.080000
7.433333	1	0.083125
7.450000	1	0.086375
7.466667	1	0.090875
7.483333	1	0.093875
7.500000	1	0.097250
7.516667	1	0.100625
7.533333	1	0.103500
7.550000	1	0.106250
7.566667	1	0.109250
7.583333	1	0.112125
7.600000	1	0.115000
7.616667	1	0.117125
7.633333	1	0.119500
7.650000	1	0.121000
7.666667	1	0.123500
7.683333	1	0.124625
7.700000	1	0.125875
7.716667	1	0.126625
7.733333	1	0.127750
7.750000	1	0.127500
7.766667	1	0.127375
7.783333	1	0.127750
7.800000	1	0.127500
7.816667	1	0.126750
7.833333	1	0.126500
7.850000	1	0.125375
7.866667	1	0.123375
7.883333	1	0.121625
7.900000	1	0.118875
7.916667	1	0.116250
7.933333	1	0.113875
7.950000	1	0.111125
7.966667	1	0.108375
7.983333	1	0.106375
8.000000	1	0.103500
8.016667	1	0.100625
8.033333	1	0.097000
8.050000	1	0.093625
8.066667	1	0.090375
8.083333	1	0.087250
8.100000	1	0.083625
8.116667	1	0.080375
8.133333	1	0.077375
8.150000	1	0.074625
8.166667	1	0.071500
8.183333	1	0.068500
8.200000	1	0.065750
8.216667	1	0.062750
8.233333	1	0.059875
8.250000	1	0.056750
8.266667	1	0.054250
8.283333	1	0.051375
8.300000	1	0.049500
8.316667	1	0.047750
8.333333	1	0.046250
8.350000	1	0.044125
8.366667	1	0.042625
8.383333	1	0.041000
8.400000	1	0.039625
8.416667	1	0.037875
8.433333	1	0.037000
8.450000	1	0.035875
8.466667	1	0.035250
8.483333	1	0.034375
8.500000	1	0.034375
8.516667	1	0.033375
8.533333	1	0.033125
8.550000	1	0.033500
8.566667	1	0.033375
8.583333	1	0.033625
8.600000	1	0.033125
8.616667	1	0.033125
8.633333	1	0.033250
8.650000	1	0.033625
8.666667	1	0.033625
8.683333	1	0.034625
8.700000	1	0.034875
8.716667	1	0.035125
8.733333	1	0.035625
8.750000	1	0.036375
8.766667	1	0.036875
8.783333	1	0.037375
8.800000	1	0.038000
8.816667	1	0.037750
8.833333	1	0.037750
8.850000	1	0.037875
8.866667	1	0.038375
8.883333	1	0.038625
8.900000	1	0.038250
8.916667	1	0.038000
8.933333	1	0.037875
8.950000	1	0.038500
8.966667	1	0.037875
8.983333	1	0.037375
9.000000	1	0.036625
9.016667	1	0.035250
9.033333	1	0.035000
9.050000	1	0.034750
9.066667	1	0.035000
9.083333	1	0.034500
9.100000	1	0.034500
9.116667	1	0.033500
9.133333	1	0.032875
9.150000	1	0.032000
9.166667	1	0.031125
9.183333	1	0.030750
9.200000	1	0.030000
9.216667	1	0.029625
9.233333	1	0.028375
9.250000	1	0.027125
9.266667	1	0.026375
9.283333	1	0.025500
9.300000	1	0.024125
9.316667	1	0.024250
9.333333	1	0.023250
9.350000	1	0.022875
9.366667	1	0.021500
9.383333	1	0.021125
9.400000	1	0.019750
9.416667	1	0.018625
9.433333	1	0.017375
9.450000	1	0.016375
9.466667	1	0.015375
9.483333	1	0.014375
9.500000	1	0.013250
9.516667	1	0.012250
9.533333	1	0.011750
9.550000	1	0.011250
9.566667	1	0.011375
9.583333	1	0.010500
9.600000	1	0.009875
9.616667	1	0.009125
9.633333	1	0.009000
9.650000	1	0.008750
9.666667	1	0.008750
9.683333	1	0.008750
9.700000	1	0.008250
9.716667	1	0.007875
9.733333	1	0.007875
9.750000	1	0.008000
9.766667	1	0.007500
9.783333	1	0.007375
9.800000	1	0.007125
9.816667	1	0.006375
9.833333	1	0.005750
9.850000	1	0.005625
9.866667	1	0.005500
9.883333	1	0.005000
9.900000	1	0.004750
9.916667	1	0.004500
9.933333	1	0.005000
9.950000	1	0.004375
9.966667	1	0.004375
9.983333	1	0.004625
10.000000	1	0.005500
10.016667	1	0.006375
10.033333	1	0.008125
10.050000	1	0.010375
10.066667	1	0.013375
10.083333	1	0.016625
10.100000	1	0.020000
10.116667	1	0.024875
10.133333	1	0.031750
10.150000	1	0.038125
10.166667	1	0.046250
10.183333	1	0.055625
10.200000	1	0.066375
10.216667	1	0.077875
10.233333	1	0.091250
10.250000	1	0.107625
10.266667	1	0.125750
10.283333	1	0.147000
10.300000	1	0.170250
10.316667	1	0.196375
10.333333	1	0.226000
10.350000	1	0.258125
10.366667	1	0.293500
10.383333	1	0.329625
10.400000	1	0.364875
10.416667	1	0.393375
10.433333	1	0.407125
10.450000	1	0.397250
10.466667	1	0.357125
10.483333	1	0.290625
10.500000	1	0.215500
10.516667	1	0.173250
10.533333	1	0.226000
10.550000	1	0.456000
10.566667	1	0.953000
10.583333	1	1.806250
10.600000	1	3.096000
10.616667	1	4.885500
10.633333	1	7.219375
10.650000	1	10.117125
10.666667	1	13.589250
10.683333	1	17.623875
10.700000	1	22.189125
10.716667	1	27.222750
10.733333	1	32.623000
10.750000	1	38.234000
10.766667	1	43.825625
10.783333	1	49.075125
10.800000	1	53.566250
10.816667	1	56.834125
10.833333	1	58.452500
10.850000	1	58.160125
10.866667	1	55.952125
10.883333	1	52.106125
10.900000	1	47.105250
10.916667	1	41.505125
10.933333	1	35.804500
10.950000	1	30.374625
10.966667	1	25.445500
10.983333	1	21.126000
11.000000	1	17.446125
11.016667	1	14.377875
11.033333	1	11.868250
11.050000	1	9.843875
11.066667	1	8.227125
11.083333	1	6.943250
11.100000	1	5.925375
11.116667	1	5.116375
11.133333	1	4.470625
11.150000	1	3.950625
11.166667	1	3.529125
11.183333	1	3.182625
11.200000	1	2.895125
11.216667	1	2.654875
11.233333	1	2.451000
11.250000	1	2.277250
11.266667	1	2.126875
11.283333	1	1.997250
11.300000	1	1.884375
11.316667	1	1.785250
11.333333	1	1.699000
11.350000	1	1.622375
11.366667	1	1.555625
11.383333	1	1.496625
11.400000	1	1.444000
11.416667	1	1.398000
11.433333	1	1.357500
11.450000	1	1.321125
11.466667	1	1.289000
11.483333	1	1.260250
11.500000	1	1.233750
11.516667	1	1.209875
11.533333	1	1.188125
11.550000	1	1.168750
11.566667	1	1.151250
11.583333	1	1.135875
11.600000	1	1.122375
11.616667	1	1.109500
11.633333	1	1.099375
11.650000	1	1.090125
11.666667	1	1.083125
11.683333	1	1.078000
11.700000	1	1.074750
11.716667	1	1.073875
11.733333	1	1.073625
11.750000	1	1.074625
11.766667	1	1.077250
11.783333	1	1.080500
11.800000	1	1.084875
11.816667	1	1.089500
11.833333	1	1.094500
11.850000	1	1.099125
11.866667	1	1.104625
11.883333	1	1.110125
11.900000	1	1.114625
11.916667	1	1.119625
11.933333	1	1.124500
11.950000	1	1.128625
11.966667	1	1.132750
11.983333	1	1.136375
12.000000	1	1.140375
12.016667	1	1.144750
12.033333	1	1.148375
12.050000	1	1.151625
12.066667	1	1.156250
12.083333	1	1.161375
12.100000	1	1.166250
12.116667	1	1.171750
12.133333	1	1.177500
12.150000	1	1.184375
12.166667	1	1.191750
12.183333	1	1.200875
12.200000	1	1.210875
12.216667	1	1.222125
12.233333	1	1.234500
12.250000	1	1.249625
12.266667	1	1.266750
12.283333	1	1.285750
12.300000	1	1.307625
12.316667	1	1.331625
12.333333	1	1.360375
12.350000	1	1.394250
12.366667	1	1.435625
12.383333	1	1.488500
12.400000	1	1.557125
12.416667	1	1.646875
12.433333	1	1.765375
12.450000	1	1.919875
12.466667	1	2.119375
12.483333	1	2.371750
12.500000	1	2.680625
12.516667	1	3.048625
12.533333	1	3.476750
12.550000	1	3.958000
12.566667	1	4.484875
12.583333	1	5.045750
12.600000	1	5.625875
12.616667	1	6.208875
12.633333	1	6.780625
12.650000	1	7.327125
12.666667	1	7.837000
12.683333	1	8.302250
12.700000	1	8.716500
12.716667	1	9.075625
12.733333	1	9.373250
12.750000	1	9.603375
12.766667	1	9.756500
12.783333	1	9.819500
12.800000	1	9.778000
12.816667	1	9.625125
12.833333	1	9.360500
12.850000	1	8.999375
12.866667	1	8.565000
12.883333	1	8.086125
12.900000	1	7.589750
12.916667	1	7.094250
12.933333	1	6.612875
12.950000	1	6.152750
12.966667	1	5.716875
12.983333	1	5.309750
13.000000	1	4.932875
13.016667	1	4.589375
13.033333	1	4.279500
13.050000	1	4.003500
13.066667	1	3.760500
13.083333	1	3.547000
13.100000	1	3.360750
13.116667	1	3.196625
13.133333	1	3.052250
13.150000	1	2.924625
13.166667	1	2.811625
13.183333	1	2.709750
13.200000	1	2.616875
13.216667	1	2.532500
13.233333	1	2.455125
13.250000	1	2.382750
13.266667	1	2.315375
13.283333	1	2.252125
13.300000	1	2.194000
13.316667	1	2.139250
13.333333	1	2.087625
13.350000	1	2.040000
13.366667	1	1.996125
13.383333	1	1.956500
13.400000	1	1.921000
13.416667	1	1.889625
13.433333	1	1.863750
13.450000	1	1.842625
13.466667	1	1.826250
13.483333	1	1.814875
13.500000	1	1.808125
13.516667	1	1.806625
13.533333	1	1.807500
13.550000	1	1.810250
13.566667	1	1.815000
13.583333	1	1.819500
13.600000	1	1.821500
13.616667	1	1.819250
13.633333	1	1.813500
13.650000	1	1.803625
13.666667	1	1.788125
13.683333	1	1.767750
13.700000	1	1.742875
13.716667	1	1.714875
13.733333	1	1.684875
13.750000	1	1.653375
13.766667	1	1.621250
13.783333	1	1.589625
13.800000	1	1.558750
13.816667	1	1.529500
13.833333	1	1.501500
13.850000	1	1.475250
13.866667	1	1.451250
13.883333	1	1.428625
13.900000	1	1.408000
13.916667	1	1.389375
13.933333	1	1.371750
13.950000	1	1.355250
13.966667	1	1.339875
13.983333	1	1.325250
14.000000	1	1.311125
14.016667	1	1.297375
14.033333	1	1.285250
14.050000	1	1.274500
14.066667	1	1.263250
14.083333	1	1.252875
14.100000	1	1.242500
14.116667	1	1.232375
14.133333	1	1.223125
14.150000	1	1.214375
14.166667	1	1.206500
14.183333	1	1.199625
14.200000	1	1.193625
14.216667	1	1.187625
14.233333	1	1.183750
14.250000	1	1.181000
14.266667	1	1.179250
14.283333	1	1.179125
14.300000	1	1.180750
14.316667	1	1.185000
14.333333	1	1.190375
14.350000	1	1.197875
14.366667	1	1.207625
14.383333	1	1.219750
14.400000	1	1.236000
14.416667	1	1.257500
14.433333	1	1.287625
14.450000	1	1.330250
14.466667	1	1.394500
14.483333	1	1.492125
14.500000	1	1.641125
14.516667	1	1.865875
14.533333	1	2.200250
14.550000	1	2.688750
14.566667	1	3.387250
14.583333	1	4.357375
14.600000	1	5.672125
14.616667	1	7.408500
14.633333	1	9.644250
14.650000	1	12.443500
14.666667	1	15.853250
14.683333	1	19.882750
14.700000	1	24.501625
14.716667	1	29.627500
14.733333	1	35.128625
14.750000	1	40.826625
14.766667	1	46.500875
14.783333	1	51.902375
14.800000	1	56.785250
14.816667	1	60.918625
14.833333	1	64.103625
14.850000	1	66.197375
14.866667	1	67.120000
14.883333	1	66.865750
14.900000	1	65.497500
14.916667	1	63.142375
14.933333	1	59.965750
14.950000	1	56.163500
14.966667	1	51.938500
14.983333	1	47.487750
15.000000	1	42.976500
15.016667	1	38.545250
15.033333	1	34.299750
15.050000	1	30.317250
15.066667	1	26.647750
15.083333	1	23.316875
15.100000	1	20.331375
15.116667	1	17.682500
15.133333	1	15.352250
15.150000	1	13.313625
15.166667	1	11.541375
15.183333	1	10.007000
15.200000	1	8.682500
15.216667	1	7.543125
15.233333	1	6.567000
15.250000	1	5.734125
15.266667	1	5.028125
15.283333	1	4.433500
15.300000	1	3.937875
15.316667	1	3.528875
15.333333	1	3.195875
15.350000	1	2.927500
15.366667	1	2.714750
15.383333	1	2.548875
15.400000	1	2.420625
15.416667	1	2.323250
15.433333	1	2.249500
15.450000	1	2.191375
15.466667	1	2.143625
15.483333	1	2.102000
15.500000	1	2.063000
15.516667	1	2.022500
15.533333	1	1.979625
15.550000	1	1.933875
15.566667	1	1.885125
15.583333	1	1.834875
15.600000	1	1.782750
15.616667	1	1.730125
15.633333	1	1.678125
15.650000	1	1.627500
15.666667	1	1.579875
15.683333	1	1.535875
15.700000	1	1.494500
15.716667	1	1.456625
15.733333	1	1.422125
15.750000	1	1.389875
15.766667	1	1.361000
15.783333	1	1.335500
15.800000	1	1.313000
15.816667	1	1.293000
15.833333	1	1.276125
15.850000	1	1.262125
15.866667	1	1.252250
15.883333	1	1.246375
15.900000	1	1.244250
15.916667	1	1.245625
15.933333	1	1.250875
15.950000	1	1.259500
15.966667	1	1.271250
15.983333	1	1.285250
16.000000	1	1.300375
16.016667	1	1.316375
16.033333	1	1.332125
16.050000	1	1.346625
16.066667	1	1.359375
16.083333	1	1.368500
16.100000	1	1.374750
16.116667	1	1.377250
16.133333	1	1.375750
16.150000	1	1.370750
16.166667	1	1.362500
16.183333	1	1.350625
16.200000	1	1.337375
16.216667	1	1.323000
16.233333	1	1.306375
16.250000	1	1.289125
16.266667	1	1.272625
16.283333	1	1.254750
16.300000	1	1.237750
16.316667	1	1.221500
16.333333	1	1.207000
16.350000	1	1.194000
16.366667	1	1.182750
16.383333	1	1.173750
16.400000	1	1.167125
16.416667	1	1.162000
16.433333	1	1.160375
16.450000	1	1.159875
16.466667	1	1.161000
16.483333	1	1.162750
16.500000	1	1.165250
16.516667	1	1.166875
16.533333	1	1.168750
16.550000	1	1.169750
16.566667	1	1.169375
16.583333	1	1.167500
16.600000	1	1.164500
16.616667	1	1.159500
16.633333	1	1.154250
16.650000	1	1.148500
16.666667	1	1.142500
16.683333	1	1.136875
16.700000	1	1.131375
16.716667	1	1.127625
16.733333	1	1.125375
16.750000	1	1.125125
16.766667	1	1.125750
16.783333	1	1.128375
16.800000	1	1.132000
16.816667	1	1.137000
16.833333	1	1.141500
16.850000	1	1.146250
16.866667	1	1.150625
16.883333	1	1.154500
16.900000	1	1.157375
16.916667	1	1.158500
16.933333	1	1.158500
16.950000	1	1.156625
16.966667	1	1.153500
16.983333	1	1.149375
17.000000	1	1.145375
17.016667	1	1.140500
17.033333	1	1.136125
17.050000	1	1.131625
17.066667	1	1.127125
17.083333	1	1.123125
17.100000	1	1.120000
17.116667	1	1.118750
17.133333	1	1.117875
17.150000	1	1.118125
17.166667	1	1.119500
17.183333	1	1.121250
17.200000	1	1.124000
17.216667	1	1.127125
17.233333	1	1.130750
17.250000	1	1.135625
17.266667	1	1.141000
17.283333	1	1.146250
17.300000	1	1.151500
17.316667	1	1.157125
17.333333	1	1.163500
17.350000	1	1.170000
17.366667	1	1.176250
17.383333	1	1.181375
17.400000	1	1.185625
17.416667	1	1.189375
17.433333	1	1.192125
17.450000	1	1.193125
17.466667	1	1.192000
17.483333	1	1.190250
17.500000	1	1.185750
17.516667	1	1.180125
17.533333	1	1.173500
17.550000	1	1.165250
17.566667	1	1.154750
17.583333	1	1.143500
17.600000	1	1.130750
17.616667	1	1.117250
17.633333	1	1.102875
17.650000	1	1.088625
17.666667	1	1.074250
17.683333	1	1.059875
17.700000	1	1.045250
17.716667	1	1.030875
17.733333	1	1.017125
17.750000	1	1.004125
17.766667	1	0.991750
17.783333	1	0.980125
17.800000	1	0.968875
17.816667	1	0.958500
17.833333	1	0.949000
17.850000	1	0.939250
17.866667	1	0.931375
17.883333	1	0.923125
17.900000	1	0.916125
17.916667	1	0.908375
17.933333	1	0.901375
17.950000	1	0.893125
17.966667	1	0.885750
17.983333	1	0.879000
18.000000	1	0.871750
18.016667	1	0.864250
18.033333	1	0.857250
18.050000	1	0.849375
18.066667	1	0.842375
18.083333	1	0.835375
18.100000	1	0.829500
18.116667	1	0.825000
18.133333	1	0.821000
18.150000	1	0.817250
18.166667	1	0.813625
18.183333	1	0.811750
18.200000	1	0.810500
18.216667	1	0.809250
18.233333	1	0.809250
18.250000	1	0.808625
18.266667	1	0.808250
18.283333	1	0.808125
18.300000	1	0.808500
18.316667	1	0.807875
18.333333	1	0.808125
18.350000	1	0.809375
18.366667	1	0.810625
18.383333	1	0.813625
18.400000	1	0.817625
18.416667	1	0.822750
18.433333	1	0.829750
18.450000	1	0.837500
18.466667	1	0.847250
18.483333	1	0.858875
18.500000	1	0.872500
18.516667	1	0.888750
18.533333	1	0.906500
18.550000	1	0.926375
18.566667	1	0.948375
18.583333	1	0.972750
18.600000	1	0.998875
18.616667	1	1.025750
18.633333	1	1.055875
18.650000	1	1.086375
18.666667	1	1.118875
18.683333	1	1.152500
18.700000	1	1.187000
18.716667	1	1.221750
18.733333	1	1.257125
18.750000	1	1.292500
18.766667	1	1.327375
18.783333	1	1.361125
18.800000	1	1.392875
18.816667	1	1.422750
18.833333	1	1.449125
18.850000	1	1.471625
18.866667	1	1.488750
18.883333	1	1.501500
18.900000	1	1.507750
18.916667	1	1.508125
18.933333	1	1.501000
18.950000	1	1.488000
18.966667	1	1.469375
18.983333	1	1.444125
19.000000	1	1.413125
19.016667	1	1.377500
19.033333	1	1.338125
19.050000	1	1.294750
19.066667	1	1.249875
19.083333	1	1.204125
19.100000	1	1.157875
19.116667	1	1.113250
19.133333	1	1.071000
19.150000	1	1.032375
19.166667	1	0.997875
19.183333	1	0.969125
19.200000	1	0.947500
19.216667	1	0.932125
19.233333	1	0.925750
19.250000	1	0.927750
19.266667	1	0.938250
19.283333	1	0.958750
19.300000	1	0.989750
19.316667	1	1.028625
19.333333	1	1.076375
19.350000	1	1.132500
19.366667	1	1.195375
19.383333	1	1.263000
19.400000	1	1.334500
19.416667	1	1.406375
19.433333	1	1.477500
19.450000	1	1.546375
19.466667	1	1.609625
19.483333	1	1.665625
19.500000	1	1.713375
19.516667	1	1.751125
19.533333	1	1.778375
19.550000	1	1.795250
19.566667	1	1.801375
19.583333	1	1.797375
19.600000	1	1.782875
19.616667	1	1.759625
19.633333	1	1.727375
19.650000	1	1.689500
19.666667	1	1.646000
19.683333	1	1.598125
19.700000	1	1.546625
19.716667	1	1.492875
19.733333	1	1.437625
19.750000	1	1.382000
19.766667	1	1.324875
19.783333	1	1.268125
19.800000	1	1.212250
19.816667	1	1.157250
19.833333	1	1.103500
19.850000	1	1.051875
19.866667	1	1.002625
19.883333	1	0.955375
19.900000	1	0.911250
19.916667	1	0.870750
19.933333	1	0.833625
19.950000	1	0.799875
19.966667	1	0.770000
19.983333	1	0.744750
20.000000	1	0.723875
20.016667	1	0.707500
20.033333	1	0.696250
20.050000	1	0.690375
20.066667	1	0.689750
20.083333	1	0.694125
20.100000	1	0.703375
20.116667	1	0.717500
20.133333	1	0.735125
20.150000	1	0.756875
20.166667	1	0.781750
20.183333	1	0.807875
20.200000	1	0.834875
20.216667	1	0.861500
20.233333	1	0.885875
20.250000	1	0.908250
20.266667	1	0.926875
20.283333	1	0.940750
20.300000	1	0.949375
20.316667	1	0.952875
20.333333	1	0.951000
20.350000	1	0.943500
20.366667	1	0.930125
20.383333	1	0.913250
20.400000	1	0.892625
20.416667	1	0.868750
20.433333	1	0.844000
20.450000	1	0.819625
20.466667	1	0.795875
20.483333	1	0.774750
20.500000	1	0.757500
20.516667	1	0.745750
20.533333	1	0.741250
20.550000	1	0.745375
20.566667	1	0.760000
20.583333	1	0.786250
20.600000	1	0.825875
20.616667	1	0.880375
20.633333	1	0.951000
20.650000	1	1.037500
20.666667	1	1.140875
20.683333	1	1.259750
20.700000	1	1.392750
20.716667	1	1.539375
20.733333	1	1.695625
20.750000	1	1.858875
20.766667	1	2.025000
20.783333	1	2.188125
20.800000	1	2.345625
20.816667	1	2.490500
20.833333	1	2.619250
20.850000	1	2.727375
20.866667	1	2.810875
20.883333	1	2.869125
20.900000	1	2.899625
20.916667	1	2.902625
20.933333	1	2.878375
20.950000	1	2.828750
20.966667	1	2.756250
20.983333	1	2.664500
21.000000	1	2.556000
21.016667	1	2.435875
21.033333	1	2.307500
21.050000	1	2.174250
21.066667	1	2.039625
21.083333	1	1.906625
21.100000	1	1.777000
21.116667	1	1.653125
21.133333	1	1.535625
21.150000	1	1.425750
21.166667	1	1.324375
21.183333	1	1.230000
21.200000	1	1.144250
21.216667	1	1.066375
21.233333	1	0.996750
21.250000	1	0.933750
21.266667	1	0.876875
21.283333	1	0.825875
21.300000	1	0.780125
21.316667	1	0.739500
21.333333	1	0.703250
21.350000	1	0.671125
21.366667	1	0.643500
21.383333	1	0.618000
21.400000	1	0.595125
21.416667	1	0.575250
21.433333	1	0.556750
21.450000	1	0.540375
21.466667	1	0.525750
21.483333	1	0.513250
21.500000	1	0.501875
21.516667	1	0.491750
21.533333	1	0.483375
21.550000	1	0.475500
21.566667	1	0.469250
21.583333	1	0.463500
21.600000	1	0.458625
21.616667	1	0.454625
21.633333	1	0.450875
21.650000	1	0.448625
21.666667	1	0.447000
21.683333	1	0.446000
21.700000	1	0.446000
21.716667	1	0.446125
21.733333	1	0.447625
21.750000	1	0.448375
21.766667	1	0.450000
21.783333	1	0.452875
21.800000	1	0.455500
21.816667	1	0.458000
21.833333	1	0.461000
21.850000	1	0.464625
21.866667	1	0.468125
21.883333	1	0.472375
21.900000	1	0.477000
21.916667	1	0.482125
21.933333	1	0.487625
21.950000	1	0.492875
21.966667	1	0.498125
21.983333	1	0.504125
22.000000	1	0.510625
22.016667	1	0.516500
22.033333	1	0.523125
22.050000	1	0.529250
22.066667	1	0.535625
22.083333	1	0.541625
22.100000	1	0.547500
22.116667	1	0.552500
22.133333	1	0.556750
22.150000	1	0.560875
22.166667	1	0.563750
22.183333	1	0.564625
22.200000	1	0.565000
22.216667	1	0.564500
22.233333	1	0.562000
22.250000	1	0.558375
22.266667	1	0.553625
22.283333	1	0.547125
22.300000	1	0.539500
22.316667	1	0.531000
22.333333	1	0.521500
22.350000	1	0.511000
22.366667	1	0.499875
22.383333	1	0.489375
22.400000	1	0.478125
22.416667	1	0.466625
22.433333	1	0.454875
22.450000	1	0.443750
22.466667	1	0.432500
22.483333	1	0.421500
22.500000	1	0.411875
22.516667	1	0.401625
22.533333	1	0.392375
22.550000	1	0.382875
22.566667	1	0.374375
22.583333	1	0.366625
22.600000	1	0.358000
22.616667	1	0.350500
22.633333	1	0.343125
22.650000	1	0.335625
22.666667	1	0.327750
22.683333	1	0.321375
22.700000	1	0.315500
22.716667	1	0.309750
22.733333	1	0.304250
22.750000	1	0.298125
22.766667	1	0.292750
22.783333	1	0.288500
22.800000	1	0.283125
22.816667	1	0.278875
22.833333	1	0.275375
22.850000	1	0.271500
22.866667	1	0.268250
22.883333	1	0.265000
22.900000	1	0.262500
22.916667	1	0.260375
22.933333	1	0.259000
22.950000	1	0.258375
22.966667	1	0.257750
22.983333	1	0.257125
23.000000	1	0.257625
23.016667	1	0.258250
23.033333	1	0.259000
23.050000	1	0.260125
23.066667	1	0.261750
23.083333	1	0.264125
23.100000	1	0.265875
23.116667	1	0.268375
23.133333	1	0.270625
23.150000	1	0.273750
23.166667	1	0.277625
23.183333	1	0.280625
23.200000	1	0.283375
23.216667	1	0.286375
23.233333	1	0.290000
23.250000	1	0.293625
23.266667	1	0.297500
23.283333	1	0.302250
23.300000	1	0.309125
23.316667	1	0.317125
23.333333	1	0.327625
23.350000	1	0.341000
23.366667	1	0.358500
23.383333	1	0.381250
23.400000	1	0.411125
23.416667	1	0.448500
23.433333	1	0.495625
23.450000	1	0.555125
23.466667	1	0.628250
23.483333	1	0.716500
23.500000	1	0.823875
23.516667	1	0.950000
23.533333	1	1.098125
23.550000	1	1.269375
23.566667	1	1.464625
23.583333	1	1.682500
23.600000	1	1.924000
23.616667	1	2.187500
23.633333	1	2.470000
23.650000	1	2.767625
23.666667	1	3.076625
23.683333	1	3.392625
23.700000	1	3.709500
23.716667	1	4.022125
23.733333	1	4.322875
23.750000	1	4.605125
23.766667	1	4.862750
23.783333	1	5.090000
23.800000	1	5.281000
23.816667	1	5.431625
23.833333	1	5.540500
23.850000	1	5.605500
23.866667	1	5.626250
23.883333	1	5.604125
23.900000	1	5.540750
23.916667	1	5.439250
23.933333	1	5.303000
23.950000	1	5.136500
23.966667	1	4.945250
23.983333	1	4.734750
24.000000	1	4.509500
24.016667	1	4.273625
24.033333	1	4.032375
24.050000	1	3.790375
24.066667	1	3.549875
24.083333	1	3.313000
24.100000	1	3.084125
24.116667	1	2.862500
24.133333	1	2.651875
24.150000	1	2.452000
24.166667	1	2.263875
24.183333	1	2.087250
24.200000	1	1.923375
24.216667	1	1.771000
24.233333	1	1.630250
24.250000	1	1.500375
24.266667	1	1.382375
24.283333	1	1.273375
24.300000	1	1.173875
24.316667	1	1.083875
24.333333	1	1.002875
24.350000	1	0.928875
24.366667	1	0.863125
24.383333	1	0.804125
24.400000	1	0.751875
24.416667	1	0.706375
24.433333	1	0.666125
24.450000	1	0.631250
24.466667	1	0.600625
24.483333	1	0.575125
24.500000	1	0.552750
24.516667	1	0.533625
24.533333	1	0.516750
24.550000	1	0.502875
24.566667	1	0.490875
24.583333	1	0.480500
24.600000	1	0.471750
24.616667	1	0.463750
24.633333	1	0.456500
24.650000	1	0.450125
24.666667	1	0.443000
24.683333	1	0.436750
24.700000	1	0.431000
24.716667	1	0.425375
24.733333	1	0.419500
24.750000	1	0.413125
24.766667	1	0.407000
24.783333	1	0.400625
24.800000	1	0.394000
24.816667	1	0.387875
24.833333	1	0.381625
24.850000	1	0.375625
24.866667	1	0.369375
24.883333	1	0.364500
24.900000	1	0.358750
24.916667	1	0.353125
24.933333	1	0.348125
24.950000	1	0.344125
24.966667	1	0.339125
24.983333	1	0.334250
25.000000	1	0.330250
25.016667	1	0.326625
25.033333	1	0.322750
25.050000	1	0.319500
25.066667	1	0.316375
25.083333	1	0.313250
25.100000	1	0.310125
25.116667	1	0.307625
25.133333	1	0.305125
25.150000	1	0.302875
25.166667	1	0.300625
25.183333	1	0.298125
25.200000	1	0.296000
25.216667	1	0.294375
25.233333	1	0.292750
25.250000	1	0.291375
25.266667	1	0.290125
25.283333	1	0.289625
25.300000	1	0.288250
25.316667	1	0.286875
25.333333	1	0.286375
25.350000	1	0.285500
25.366667	1	0.284750
25.383333	1	0.283625
25.400000	1	0.283500
25.416667	1	0.283000
25.433333	1	0.283250
25.450000	1	0.282750
25.466667	1	0.283250
25.483333	1	0.283375
25.500000	1	0.283875
25.516667	1	0.283500
25.533333	1	0.283750
25.550000	1	0.284250
25.566667	1	0.284500
25.583333	1	0.284875
25.600000	1	0.284625
25.616667	1	0.285125
25.633333	1	0.284875
25.650000	1	0.286000
25.666667	1	0.286125
25.683333	1	0.286375
25.700000	1	0.287000
25.716667	1	0.287625
25.733333	1	0.287375
25.750000	1	0.287625
25.766667	1	0.286875
25.783333	1	0.286375
25.800000	1	0.285625
25.816667	1	0.285250
25.833333	1	0.285375
25.850000	1	0.286250
25.866667	1	0.286500
25.883333	1	0.286750
25.900000	1	0.287125
25.916667	1	0.287625
25.933333	1	0.288625
25.950000	1	0.290250
25.966667	1	0.291875
25.983333	1	0.294250
26.000000	1	0.296625
26.016667	1	0.298750
26.033333	1	0.302000
26.050000	1	0.305750
26.066667	1	0.309875
26.083333	1	0.313750
26.100000	1	0.318250
26.116667	1	0.322875
26.133333	1	0.327875
26.150000	1	0.332375
26.166667	1	0.337625
26.183333	1	0.342000
26.200000	1	0.346125
26.216667	1	0.350375
26.233333	1	0.354500
26.250000	1	0.358500
26.266667	1	0.362500
26.283333	1	0.365625
26.300000	1	0.368125
26.316667	1	0.370125
26.333333	1	0.372125
26.350000	1	0.372875
26.366667	1	0.372625
26.383333	1	0.371500
26.400000	1	0.369750
26.416667	1	0.368000
26.433333	1	0.365125
26.450000	1	0.361625
26.466667	1	0.357125
26.483333	1	0.353000
26.500000	1	0.346750
26.516667	1	0.340875
26.533333	1	0.334000
26.550000	1	0.326875
26.566667	1	0.319875
26.583333	1	0.312625
26.600000	1	0.304500
26.616667	1	0.296625
26.633333	1	0.288625
26.650000	1	0.281750
26.666667	1	0.274375
26.683333	1	0.267875
26.700000	1	0.261250
26.716667	1	0.254625
26.733333	1	0.248375
26.750000	1	0.242625
26.766667	1	0.237625
26.783333	1	0.232750
26.800000	1	0.228750
26.816667	1	0.225875
26.833333	1	0.222875
26.850000	1	0.220500
26.866667	1	0.219000
26.883333	1	0.217375
26.900000	1	0.216375
26.916667	1	0.216250
26.933333	1	0.216750
26.950000	1	0.217375
26.966667	1	0.218750
26.983333	1	0.219625
27.000000	1	0.221375
27.016667	1	0.223000
27.033333	1	0.225625
27.050000	1	0.228125
27.066667	1	0.231250
27.083333	1	0.234875
27.100000	1	0.238875
27.116667	1	0.243625
27.133333	1	0.247625
27.150000	1	0.252250
27.166667	1	0.258125
27.183333	1	0.265125
27.200000	1	0.272750
27.216667	1	0.281750
27.233333	1	0.292625
27.250000	1	0.304500
27.266667	1	0.319000
27.283333	1	0.336250
27.300000	1	0.356125
27.316667	1	0.380000
27.333333	1	0.407750
27.350000	1	0.440500
27.366667	1	0.479000
27.383333	1	0.524625
27.400000	1	0.577250
27.416667	1	0.637625
27.433333	1	0.707250
27.450000	1	0.786500
27.466667	1	0.876875
27.483333	1	0.977625
27.500000	1	1.089750
27.516667	1	1.213250
27.533333	1	1.349625
27.550000	1	1.496375
27.566667	1	1.655000
27.583333	1	1.823875
27.600000	1	2.001375
27.616667	1	2.187500
27.633333	1	2.380125
27.650000	1	2.577875
27.666667	1	2.777375
27.683333	1	2.977500
27.700000	1	3.174375
27.716667	1	3.364750
27.733333	1	3.546375
27.750000	1	3.716250
27.766667	1	3.871125
27.783333	1	4.008125
27.800000	1	4.125750
27.816667	1	4.221250
27.833333	1	4.293500
27.850000	1	4.341500
27.866667	1	4.364000
27.883333	1	4.361000
27.900000	1	4.331375
27.916667	1	4.277375
27.933333	1	4.201000
27.950000	1	4.102875
27.966667	1	3.985375
27.983333	1	3.851500
28.000000	1	3.703875
28.016667	1	3.545375
28.033333	1	3.376625
28.050000	1	3.201875
28.066667	1	3.023500
28.083333	1	2.844750
28.100000	1	2.666625
28.116667	1	2.491500
28.133333	1	2.321625
28.150000	1	2.157500
28.166667	1	2.000250
28.183333	1	1.851875
28.200000	1	1.711875
28.216667	1	1.581000
28.233333	1	1.458125
28.250000	1	1.343625
28.266667	1	1.239125
28.283333	1	1.142375
28.300000	1	1.054750
28.316667	1	0.974625
28.333333	1	0.902875
28.350000	1	0.838250
28.366667	1	0.780625
28.383333	1	0.729000
28.400000	1	0.683125
28.416667	1	0.643375
28.433333	1	0.608750
28.450000	1	0.578375
28.466667	1	0.553000
28.483333	1	0.531500
28.500000	1	0.514250
28.516667	1	0.499875
28.533333	1	0.489375
28.550000	1	0.482125
28.566667	1	0.477250
28.583333	1	0.475250
28.600000	1	0.474625
28.616667	1	0.477000
28.633333	1	0.480375
28.650000	1	0.485875
28.666667	1	0.492875
28.683333	1	0.501000
28.700000	1	0.509000
28.716667	1	0.517625
28.733333	1	0.527500
28.750000	1	0.537000
28.766667	1	0.546250
28.783333	1	0.555375
28.800000	1	0.564875
28.816667	1	0.572875
28.833333	1	0.581375
28.850000	1	0.589000
28.866667	1	0.596375
28.883333	1	0.602000
28.900000	1	0.606625
28.916667	1	0.610125
28.933333	1	0.612875
28.950000	1	0.613500
28.966667	1	0.613000
28.983333	1	0.611500
29.000000	1	0.608625
29.016667	1	0.604750
29.033333	1	0.599500
29.050000	1	0.592000
29.066667	1	0.583625
29.083333	1	0.573625
29.100000	1	0.561750
29.116667	1	0.548125
29.133333	1	0.532375
29.150000	1	0.515625
29.166667	1	0.496750
29.183333	1	0.476000
29.200000	1	0.453750
29.216667	1	0.429375
29.233333	1	0.402125
29.250000	1	0.374500
29.266667	1	0.343000
29.283333	1	0.310250
29.300000	1	0.274125
29.316667	1	0.236750
29.333333	1	0.197125
29.350000	1	0.156500
29.366667	1	0.112500
29.383333	1	0.067500
29.400000	1	0.021500
29.416667	1	-0.026500
29.433333	1	-0.075875
29.450000	1	-0.126500
29.466667	1	-0.178000
29.483333	1	-0.229500
29.500000	1	-0.281750
29.516667	1	-0.333000
29.533333	1	-0.383125
29.550000	1	-0.432375
29.566667	1	-0.480375
29.583333	1	-0.526500
29.600000	1	-0.569500
29.616667	1	-0.610125
29.633333	1	-0.647000
29.650000	1	-0.681250
29.666667	1	-0.712250
29.683333	1	-0.738375
29.700000	1	-0.760625
29.716667	1	-0.778125
29.733333	1	-0.791000
29.750000	1	-0.799875
29.766667	1	-0.804375
29.783333	1	-0.804375
29.800000	1	-0.799500
29.816667	1	-0.791250
29.833333	1	-0.778750
29.850000	1	-0.762375
29.866667	1	-0.742625
29.883333	1	-0.719875
29.900000	1	-0.695125
29.916667	1	-0.667375
29.933333	1	-0.638000
29.950000	1	-0.607000
29.966667	1	-0.574500
29.983333	1	-0.539875
30.000000	1	-0.505250
30.016667	1	-0.469875
30.033333	1	-0.435000
30.050000	1	-0.399750
30.066667	1	-0.365875
30.083333	1	-0.331500
30.100000	1	-0.298875
30.116667	1	-0.266875
30.133333	1	-0.236250
30.150000	1	-0.206250
30.166667	1	-0.177750
30.183333	1	-0.150875
30.200000	1	-0.125375
30.216667	1	-0.101125
30.233333	1	-0.078125
30.250000	1	-0.056750
30.266667	1	-0.036500
30.283333	1	-0.018750
30.300000	1	-0.001125
30.316667	1	0.015125
30.333333	1	0.029625
30.350000	1	0.043125
30.366667	1	0.056000
30.383333	1	0.067875
30.400000	1	0.078875
30.416667	1	0.088750
30.433333	1	0.098250
30.450000	1	0.107125
30.466667	1	0.115750
30.483333	1	0.123125
30.500000	1	0.129875
30.516667	1	0.136625
30.533333	1	0.143250
30.550000	1	0.149500
30.566667	1	0.155000
30.583333	1	0.161000
30.600000	1	0.166500
30.616667	1	0.173000
30.633333	1	0.178125
30.650000	1	0.183875
30.666667	1	0.189750
30.683333	1	0.195750
30.700000	1	0.201375
30.716667	1	0.207500
30.733333	1	0.213500
30.750000	1	0.219500
30.766667	1	0.225500
30.783333	1	0.232000
30.800000	1	0.238375
30.816667	1	0.245375
30.833333	1	0.251750
30.850000	1	0.259000
30.866667	1	0.266125
30.883333	1	0.273750
30.900000	1	0.281875
30.916667	1	0.290750
30.933333	1	0.299250
30.950000	1	0.309000
30.966667	1	0.319500
30.983333	1	0.331375
31.000000	1	0.344750
31.016667	1	0.359875
31.033333	1	0.376625
31.050000	1	0.395125
31.066667	1	0.416625
31.083333	1	0.440125
31.100000	1	0.466625
31.116667	1	0.496875
31.133333	1	0.530875
31.150000	1	0.568750
31.166667	1	0.611750
31.183333	1	0.659500
31.200000	1	0.712000
31.216667	1	0.769875
31.233333	1	0.833500
31.250000	1	0.902750
31.266667	1	0.976750
31.283333	1	1.056375
31.300000	1	1.140375
31.316667	1	1.229500
31.333333	1	1.321875
31.350000	1	1.418125
31.366667	1	1.517250
31.383333	1	1.618250
31.400000	1	1.719375
31.416667	1	1.820875
31.433333	1	1.920750
31.450000	1	2.018500
31.466667	1	2.112250
31.483333	1	2.201000
31.500000	1	2.282625
31.516667	1	2.358375
31.533333	1	2.425625
31.550000	1	2.483125
31.566667	1	2.531375
31.583333	1	2.569750
31.600000	1	2.597500
31.616667	1	2.614125
31.633333	1	2.619875
31.650000	1	2.613875
31.666667	1	2.597875
31.683333	1	2.571000
31.700000	1	2.534625
31.716667	1	2.488750
31.733333	1	2.436500
31.750000	1	2.375500
31.766667	1	2.308125
31.783333	1	2.235500
31.800000	1	2.158000
31.816667	1	2.076750
31.833333	1	1.992500
31.850000	1	1.906125
31.866667	1	1.818875
31.883333	1	1.731250
31.900000	1	1.644125
31.916667	1	1.558250
31.933333	1	1.474250
31.950000	1	1.391625
31.966667	1	1.311625
31.983333	1	1.234125
32.000000	1	1.160000
32.016667	1	1.088500
32.033333	1	1.019625
32.050000	1	0.954375
32.066667	1	0.891500
32.083333	1	0.832250
32.100000	1	0.775500
32.116667	1	0.723375
32.133333	1	0.673125
32.150000	1	0.626750
32.166667	1	0.582000
32.183333	1	0.540625
32.200000	1	0.501875
32.216667	1	0.464500
32.233333	1	0.429625
32.250000	1	0.397750
32.266667	1	0.367375
32.283333	1	0.339375
32.300000	1	0.312750
32.316667	1	0.288125
32.333333	1	0.265500
32.350000	1	0.244000
32.366667	1	0.224250
32.383333	1	0.205500
32.400000	1	0.188625
32.416667	1	0.172125
32.433333	1	0.157875
32.450000	1	0.145000
32.466667	1	0.132250
32.483333	1	0.120875
32.500000	1	0.110250
32.516667	1	0.100875
32.533333	1	0.092375
32.550000	1	0.084750
32.566667	1	0.077750
32.583333	1	0.071500
32.600000	1	0.066375
32.616667	1	0.061000
32.633333	1	0.055625
32.650000	1	0.051250
32.666667	1	0.047250
32.683333	1	0.044625
32.700000	1	0.042000
32.716667	1	0.039625
32.733333	1	0.037875
32.750000	1	0.036875
32.766667	1	0.036000
32.783333	1	0.034875
32.800000	1	0.034250
32.816667	1	0.034125
32.833333	1	0.033250
32.850000	1	0.033125
32.866667	1	0.032250
32.883333	1	0.031125
32.900000	1	0.031250
32.916667	1	0.030375
32.933333	1	0.029500
32.950000	1	0.030500
32.966667	1	0.030000
32.983333	1	0.030000
33.000000	1	0.029625
33.016667	1	0.029250
33.033333	1	0.029750
33.050000	1	0.029500
33.066667	1	0.028625
33.083333	1	0.027375
33.100000	1	0.027500
33.116667	1	0.027250
33.133333	1	0.027875
33.150000	1	0.028125
33.166667	1	0.028375
33.183333	1	0.028875
33.200000	1	0.028000
33.216667	1	0.028375
33.233333	1	0.029125
33.250000	1	0.029875
33.266667	1	0.030000
33.283333	1	0.030750
33.300000	1	0.031625
33.316667	1	0.032375
33.333333	1	0.032875
33.350000	1	0.033000
33.366667	1	0.033375
33.383333	1	0.034500
33.400000	1	0.035125
33.416667	1	0.036500
33.433333	1	0.037125
33.450000	1	0.038375
33.466667	1	0.039250
33.483333	1	0.041000
33.500000	1	0.042000
33.516667	1	0.043250
33.533333	1	0.045125
33.550000	1	0.046250
33.566667	1	0.047750
33.583333	1	0.049125
33.600000	1	0.051000
33.616667	1	0.052625
33.633333	1	0.054000
33.650000	1	0.055625
33.666667	1	0.057250
33.683333	1	0.058500
33.700000	1	0.060375
33.716667	1	0.062625
33.733333	1	0.064125
33.750000	1	0.066250
33.766667	1	0.068375
33.783333	1	0.070375
33.800000	1	0.073125
33.816667	1	0.074625
33.833333	1	0.076500
33.850000	1	0.078750
33.866667	1	0.080750
33.883333	1	0.082375
33.900000	1	0.084625
33.916667	1	0.086125
33.933333	1	0.088000
33.950000	1	0.090500
33.966667	1	0.092500
33.983333	1	0.093500
34.000000	1	0.094125
34.016667	1	0.095500
34.033333	1	0.096000
34.050000	1	0.096625
34.066667	1	0.096500
34.083333	1	0.096250
34.100000	1	0.096125
34.116667	1	0.095125
34.133333	1	0.094750
34.150000	1	0.094125
34.166667	1	0.093125
34.183333	1	0.092000
34.200000	1	0.090875
34.216667	1	0.089625
34.233333	1	0.088375
34.250000	1	0.086750
34.266667	1	0.085375
34.283333	1	0.084750
34.300000	1	0.083875
34.316667	1	0.082250
34.333333	1	0.081000
34.350000	1	0.080125
34.366667	1	0.079500
34.383333	1	0.078875
34.400000	1	0.079000
34.416667	1	0.079000
34.433333	1	0.078750
34.450000	1	0.078125
34.466667	1	0.078000
34.483333	1	0.078250
34.500000	1	0.079375
34.516667	1	0.079875
34.533333	1	0.080875
34.550000	1	0.082000
34.566667	1	0.083250
34.583333	1	0.084375
34.600000	1	0.086125
34.616667	1	0.087625
34.633333	1	0.089500
34.650000	1	0.090875
34.666667	1	0.092750
34.683333	1	0.094250
34.700000	1	0.096125
34.716667	1	0.098250
34.733333	1	0.100625
34.750000	1	0.102750
34.766667	1	0.105250
34.783333	1	0.107500
34.800000	1	0.109500
34.816667	1	0.110750
34.833333	1	0.111750
34.850000	1	0.113875
34.866667	1	0.115000
34.883333	1	0.116625
34.900000	1	0.117625
34.916667	1	0.118875
34.933333	1	0.119250
34.950000	1	0.120000
34.966667	1	0.120125
34.983333	1	0.119875
35.000000	1	0.119750
35.016667	1	0.119375
35.033333	1	0.119000
35.050000	1	0.118750
35.066667	1	0.118125
35.083333	1	0.117375
35.100000	1	0.117000
35.116667	1	0.116750
35.133333	1	0.116125
35.150000	1	0.115625
35.166667	1	0.114875
35.183333	1	0.114250
35.200000	1	0.113375
35.216667	1	0.112625
35.233333	1	0.111750
35.250000	1	0.110625
35.266667	1	0.110750
35.283333	1	0.109875
35.300000	1	0.110000
35.316667	1	0.109875
35.333333	1	0.110000
35.350000	1	0.109625
35.366667	1	0.109250
35.383333	1	0.109000
35.400000	1	0.109125
35.416667	1	0.108375
35.433333	1	0.108000
35.450000	1	0.108000
35.466667	1	0.107500
35.483333	1	0.107500
35.500000	1	0.107750
35.516667	1	0.108500
35.533333	1	0.108375
35.550000	1	0.108125
35.566667	1	0.108500
35.583333	1	0.109125
35.600000	1	0.109375
35.616667	1	0.109375
35.633333	1	0.109125
35.650000	1	0.109125
35.666667	1	0.109375
35.683333	1	0.109875
35.700000	1	0.110375
35.716667	1	0.110500
35.733333	1	0.110375
35.750000	1	0.110750
35.766667	1	0.111125
35.783333	1	0.111125
35.800000	1	0.110875
35.816667	1	0.111125
35.833333	1	0.110375
35.850000	1	0.110500
35.866667	1	0.110125
35.883333	1	0.109750
35.900000	1	0.109625
35.916667	1	0.109625
35.933333	1	0.110125
35.950000	1	0.110250
35.966667	1	0.110125
35.983333	1	0.109500
36.000000	1	0.109375
36.016667	1	0.108750
36.033333	1	0.109000
36.050000	1	0.108375
36.066667	1	0.108000
36.083333	1	0.108125
36.100000	1	0.108375
36.116667	1	0.108125
36.133333	1	0.107750
36.150000	1	0.107625
36.166667	1	0.108125
36.183333	1	0.108500
36.200000	1	0.109125
36.216667	1	0.109625
36.233333	1	0.110250
36.250000	1	0.111125
36.266667	1	0.111875
36.283333	1	0.113625
36.300000	1	0.114375
36.316667	1	0.115625
36.333333	1	0.117125
36.350000	1	0.118250
36.366667	1	0.119250
36.383333	1	0.120750
36.400000	1	0.122000
36.416667	1	0.123500
36.433333	1	0.124625
36.450000	1	0.125750
36.466667	1	0.126000
36.483333	1	0.126875
36.500000	1	0.127750
36.516667	1	0.128250
36.533333	1	0.128625
36.550000	1	0.128500
36.566667	1	0.128500
36.583333	1	0.128250
36.600000	1	0.127125
36.616667	1	0.125375
36.633333	1	0.124250
36.650000	1	0.123000
36.666667	1	0.121250
36.683333	1	0.118750
36.700000	1	0.116375
36.716667	1	0.113375
36.733333	1	0.110500
36.750000	1	0.107375
36.766667	1	0.104250
36.783333	1	0.100000
36.800000	1	0.096875
36.816667	1	0.093250
36.833333	1	0.089375
36.850000	1	0.085750
36.866667	1	0.082250
36.883333	1	0.078625
36.900000	1	0.075375
36.916667	1	0.072000
36.933333	1	0.068875
36.950000	1	0.066000
36.966667	1	0.063000
36.983333	1	0.060500
37.000000	1	0.058750
37.016667	1	0.056875
37.033333	1	0.055125
37.050000	1	0.053125
37.066667	1	0.052375
37.083333	1	0.051500
37.100000	1	0.050875
37.116667	1	0.050250
37.133333	1	0.049750
37.150000	1	0.050500
37.166667	1	0.050125
37.183333	1	0.050250
37.200000	1	0.050375
37.216667	1	0.051125
37.233333	1	0.052375
37.250000	1	0.053125
37.266667	1	0.054250
37.283333	1	0.054750
37.300000	1	0.056000
37.316667	1	0.056625
37.333333	1	0.058000
37.350000	1	0.058250
37.366667	1	0.059250
37.383333	1	0.059750
37.400000	1	0.060750
37.416667	1	0.061000
37.433333	1	0.061375
37.450000	1	0.061000
37.466667	1	0.061125
37.483333	1	0.061125
37.500000	1	0.061250
37.516667	1	0.061000
37.533333	1	0.061125
37.550000	1	0.060750
37.566667	1	0.060500
37.583333	1	0.060125
37.600000	1	0.059750
37.616667	1	0.058875
37.633333	1	0.057750
37.650000	1	0.056875
37.666667	1	0.056125
37.683333	1	0.055375
37.700000	1	0.054750
37.716667	1	0.053875
37.733333	1	0.053000
37.750000	1	0.052750
37.766667	1	0.052000
37.783333	1	0.050750
37.800000	1	0.049375
37.816667	1	0.048250
37.833333	1	0.047375
37.850000	1	0.046375
37.866667	1	0.045250
37.883333	1	0.044250
37.900000	1	0.043250
37.916667	1	0.042750
37.933333	1	0.041375
37.950000	1	0.040375
37.966667	1	0.039375
37.983333	1	0.038375
38.000000	1	0.038000
38.016667	1	0.037625
38.033333	1	0.037250
38.050000	1	0.036250
38.066667	1	0.035625
38.083333	1	0.035250
38.100000	1	0.034625
38.116667	1	0.033500
38.133333	1	0.032750
38.150000	1	0.032625
38.166667	1	0.032375
38.183333	1	0.031875
38.200000	1	0.031750
38.216667	1	0.030875
38.233333	1	0.030375
38.250000	1	0.029750
38.266667	1	0.029875
38.283333	1	0.030250
38.300000	1	0.030000
38.316667	1	0.030500
38.333333	1	0.030000
38.350000	1	0.029875
38.366667	1	0.030625
38.383333	1	0.030750
38.400000	1	0.030750
38.416667	1	0.031375
38.433333	1	0.031500
38.450000	1	0.031750
38.466667	1	0.031750
38.483333	1	0.032750
38.500000	1	0.033375
38.516667	1	0.034125
38.533333	1	0.034125
38.550000	1	0.034125
38.566667	1	0.034375
38.583333	1	0.035125
38.600000	1	0.035875
38.616667	1	0.036125
38.633333	1	0.037250
38.650000	1	0.037125
38.666667	1	0.037875
38.683333	1	0.038625
38.700000	1	0.039250
38.716667	1	0.039250
38.733333	1	0.039625
38.750000	1	0.039875
38.766667	1	0.039375
38.783333	1	0.039000
38.800000	1	0.039000
38.816667	1	0.037750
38.833333	1	0.036500
38.850000	1	0.035875
38.866667	1	0.034875
38.883333	1	0.033750
38.900000	1	0.033000
38.916667	1	0.031500
38.933333	1	0.030250
38.950000	1	0.027625
38.966667	1	0.025500
38.983333	1	0.023625
39.000000	1	0.021375
39.016667	1	0.018500
39.033333	1	0.016375
39.050000	1	0.014250
39.066667	1	0.011500
39.083333	1	0.010000
39.100000	1	0.007625
39.116667	1	0.004625
39.133333	1	0.002000
39.150000	1	-0.000500
39.166667	1	-0.003375
39.183333	1	-0.005625
39.200000	1	-0.008250
39.216667	1	-0.010625
39.233333	1	-0.013250
39.250000	1	-0.015875
39.266667	1	-0.017875
39.283333	1	-0.020000
39.300000	1	-0.022250
39.316667	1	-0.024000
39.333333	1	-0.025625
39.350000	1	-0.027875
39.366667	1	-0.029375
39.383333	1	-0.030875
39.400000	1	-0.032000
39.416667	1	-0.033625
39.433333	1	-0.035000
39.450000	1	-0.036125
39.466667	1	-0.037625
39.483333	1	-0.038625
39.500000	1	-0.039375
39.516667	1	-0.040375
39.533333	1	-0.041000
39.550000	1	-0.042375
39.566667	1	-0.042375
39.583333	1	-0.043125
39.600000	1	-0.043500
39.616667	1	-0.043750
39.633333	1	-0.043750
39.650000	1	-0.043625
39.666667	1	-0.043375
39.683333	1	-0.043875
39.700000	1	-0.043750
39.716667	1	-0.043375
39.733333	1	-0.043125
39.750000	1	-0.043375
39.766667	1	-0.043875
39.783333	1	-0.044500
39.800000	1	-0.043750
39.816667	1	-0.044375
39.833333	1	-0.044500
39.850000	1	-0.044375
39.866667	1	-0.043375
39.883333	1	-0.042750
39.900000	1	-0.043000
39.916667	1	-0.043000
39.933333	1	-0.043125
39.950000	1	-0.042500
39.966667	1	-0.042250
39.983333	1	-0.042000
40.000000	1	-0.041375
