URL	chrom://7040-86g6c92/XVault/Ultimate_3000/20/20240517_CMO_FP23_FP25_MarkusDeplate.seq/862.smp/RI_1.channel/RI_1.chm
Channel	RI_1

Injection Information:
Data Vault	XVault
Sequence	20240517_CMO_FP23_FP25_MarkusDeplate
Name	FP26_25_s5
Number	105
Position	BC5
Comment	
Processing Method	
Instrument Method	run_25B_method
Type	Unknown
Status	Finished
Inject Time	30.05.2024 18:22:00 +02:00
Volume (µl)	20.0000
Dilution Factor	1.0000
Weight	1.0000

Chromatogram Data Information:
Time Min. (min)	0.000000
Time Max. (min)	40.000000
Data Points	2401
Detector	RI
Generating Data System	Chromeleon 7.3.2.11814
Exporting Data System	Chromeleon 7.3.2.0
Operator	Instrument Controller
Signal Quantity	Refractive 
Signal Unit	µRIU
Signal Min.	-1.109500
Signal Max.	64.505125
Channel	RI_1
Driver Name	RID520Driver.dll
Channel Type	Evaluation
Min. Step (s)	1
Max. Step (s)	1
Average Step (s)	1

Signal Parameter Information:
Signal Info	

Chromatogram Data:
Time (min)	Step (s)	Value (µRIU)
0.000000	n.a.	-0.038250
0.016667	1	-0.039125
0.033333	1	-0.039750
0.050000	1	-0.040375
0.066667	1	-0.039875
0.083333	1	-0.040000
0.100000	1	-0.040500
0.116667	1	-0.041125
0.133333	1	-0.041250
0.150000	1	-0.041875
0.166667	1	-0.042750
0.183333	1	-0.043625
0.200000	1	-0.044000
0.216667	1	-0.044875
0.233333	1	-0.045625
0.250000	1	-0.046125
0.266667	1	-0.046625
0.283333	1	-0.047625
0.300000	1	-0.047500
0.316667	1	-0.048625
0.333333	1	-0.049625
0.350000	1	-0.050375
0.366667	1	-0.051375
0.383333	1	-0.052625
0.400000	1	-0.054000
0.416667	1	-0.054000
0.433333	1	-0.053500
0.450000	1	-0.051625
0.466667	1	-0.050125
0.483333	1	-0.048000
0.500000	1	-0.047250
0.516667	1	-0.046000
0.533333	1	-0.044875
0.550000	1	-0.044250
0.566667	1	-0.044125
0.583333	1	-0.045125
0.600000	1	-0.046375
0.616667	1	-0.048000
0.633333	1	-0.048875
0.650000	1	-0.049500
0.666667	1	-0.049375
0.683333	1	-0.049125
0.700000	1	-0.048875
0.716667	1	-0.048125
0.733333	1	-0.046875
0.750000	1	-0.045250
0.766667	1	-0.044125
0.783333	1	-0.044250
0.800000	1	-0.043125
0.816667	1	-0.042875
0.833333	1	-0.042375
0.850000	1	-0.041750
0.866667	1	-0.041000
0.883333	1	-0.040625
0.900000	1	-0.040750
0.916667	1	-0.040750
0.933333	1	-0.040625
0.950000	1	-0.040750
0.966667	1	-0.040500
0.983333	1	-0.040250
1.000000	1	-0.040250
1.016667	1	-0.040750
1.033333	1	-0.040875
1.050000	1	-0.041250
1.066667	1	-0.041250
1.083333	1	-0.041250
1.100000	1	-0.040500
1.116667	1	-0.040875
1.133333	1	-0.041000
1.150000	1	-0.040750
1.166667	1	-0.040125
1.183333	1	-0.039500
1.200000	1	-0.038625
1.216667	1	-0.038000
1.233333	1	-0.037500
1.250000	1	-0.037000
1.266667	1	-0.036125
1.283333	1	-0.035750
1.300000	1	-0.034500
1.316667	1	-0.033250
1.333333	1	-0.032000
1.350000	1	-0.031625
1.366667	1	-0.030000
1.383333	1	-0.029250
1.400000	1	-0.028625
1.416667	1	-0.027625
1.433333	1	-0.026625
1.450000	1	-0.024875
1.466667	1	-0.023625
1.483333	1	-0.023000
1.500000	1	-0.021500
1.516667	1	-0.020625
1.533333	1	-0.019750
1.550000	1	-0.019000
1.566667	1	-0.018375
1.583333	1	-0.018250
1.600000	1	-0.017000
1.616667	1	-0.015750
1.633333	1	-0.014875
1.650000	1	-0.014000
1.666667	1	-0.013125
1.683333	1	-0.012250
1.700000	1	-0.011500
1.716667	1	-0.011125
1.733333	1	-0.010750
1.750000	1	-0.010000
1.766667	1	-0.009375
1.783333	1	-0.008500
1.800000	1	-0.007125
1.816667	1	-0.006500
1.833333	1	-0.006625
1.850000	1	-0.006000
1.866667	1	-0.005875
1.883333	1	-0.005750
1.900000	1	-0.005375
1.916667	1	-0.005125
1.933333	1	-0.005500
1.950000	1	-0.005375
1.966667	1	-0.005625
1.983333	1	-0.005375
2.000000	1	-0.005750
2.016667	1	-0.006000
2.033333	1	-0.006125
2.050000	1	-0.006375
2.066667	1	-0.006750
2.083333	1	-0.007250
2.100000	1	-0.008000
2.116667	1	-0.008875
2.133333	1	-0.009625
2.150000	1	-0.010875
2.166667	1	-0.011500
2.183333	1	-0.012875
2.200000	1	-0.014125
2.216667	1	-0.015625
2.233333	1	-0.017000
2.250000	1	-0.018625
2.266667	1	-0.020000
2.283333	1	-0.021250
2.300000	1	-0.023000
2.316667	1	-0.024625
2.333333	1	-0.026250
2.350000	1	-0.028000
2.366667	1	-0.030125
2.383333	1	-0.031500
2.400000	1	-0.033000
2.416667	1	-0.034625
2.433333	1	-0.035000
2.450000	1	-0.035750
2.466667	1	-0.036875
2.483333	1	-0.037375
2.500000	1	-0.038375
2.516667	1	-0.038500
2.533333	1	-0.038500
2.550000	1	-0.039125
2.566667	1	-0.039875
2.583333	1	-0.039625
2.600000	1	-0.039375
2.616667	1	-0.039250
2.633333	1	-0.038375
2.650000	1	-0.038125
2.666667	1	-0.037750
2.683333	1	-0.037500
2.700000	1	-0.037000
2.716667	1	-0.037000
2.733333	1	-0.036375
2.750000	1	-0.035750
2.766667	1	-0.036250
2.783333	1	-0.036000
2.800000	1	-0.035625
2.816667	1	-0.035250
2.833333	1	-0.035375
2.850000	1	-0.035250
2.866667	1	-0.035500
2.883333	1	-0.035500
2.900000	1	-0.035625
2.916667	1	-0.035250
2.933333	1	-0.034875
2.950000	1	-0.035500
2.966667	1	-0.035250
2.983333	1	-0.034875
3.000000	1	-0.034750
3.016667	1	-0.034750
3.033333	1	-0.034250
3.050000	1	-0.034750
3.066667	1	-0.034500
3.083333	1	-0.034500
3.100000	1	-0.034750
3.116667	1	-0.035125
3.133333	1	-0.035000
3.150000	1	-0.034875
3.166667	1	-0.034875
3.183333	1	-0.035125
3.200000	1	-0.035375
3.216667	1	-0.035125
3.233333	1	-0.034625
3.250000	1	-0.034375
3.266667	1	-0.034750
3.283333	1	-0.034000
3.300000	1	-0.033250
3.316667	1	-0.032875
3.333333	1	-0.033125
3.350000	1	-0.032500
3.366667	1	-0.032000
3.383333	1	-0.031625
3.400000	1	-0.030875
3.416667	1	-0.030125
3.433333	1	-0.029750
3.450000	1	-0.029375
3.466667	1	-0.029250
3.483333	1	-0.028750
3.500000	1	-0.027875
3.516667	1	-0.027000
3.533333	1	-0.026250
3.550000	1	-0.026250
3.566667	1	-0.025000
3.583333	1	-0.024875
3.600000	1	-0.024500
3.616667	1	-0.024125
3.633333	1	-0.023375
3.650000	1	-0.022625
3.666667	1	-0.022375
3.683333	1	-0.022250
3.700000	1	-0.022125
3.716667	1	-0.022000
3.733333	1	-0.021500
3.750000	1	-0.021375
3.766667	1	-0.021375
3.783333	1	-0.021125
3.800000	1	-0.020750
3.816667	1	-0.020750
3.833333	1	-0.021000
3.850000	1	-0.020875
3.866667	1	-0.021000
3.883333	1	-0.021875
3.900000	1	-0.022000
3.916667	1	-0.022250
3.933333	1	-0.022625
3.950000	1	-0.023125
3.966667	1	-0.023500
3.983333	1	-0.023625
4.000000	1	-0.024375
4.016667	1	-0.024125
4.033333	1	-0.024250
4.050000	1	-0.023375
4.066667	1	-0.022625
4.083333	1	-0.022750
4.100000	1	-0.022750
4.116667	1	-0.022375
4.133333	1	-0.021500
4.150000	1	-0.020875
4.166667	1	-0.020125
4.183333	1	-0.019125
4.200000	1	-0.018000
4.216667	1	-0.016625
4.233333	1	-0.014750
4.250000	1	-0.013250
4.266667	1	-0.011250
4.283333	1	-0.009625
4.300000	1	-0.008250
4.316667	1	-0.006625
4.333333	1	-0.004125
4.350000	1	-0.002000
4.366667	1	0.000125
4.383333	1	0.002375
4.400000	1	0.004625
4.416667	1	0.006750
4.433333	1	0.008250
4.450000	1	0.010250
4.466667	1	0.013000
4.483333	1	0.014375
4.500000	1	0.016125
4.516667	1	0.018000
4.533333	1	0.019625
4.550000	1	0.021375
4.566667	1	0.022750
4.583333	1	0.024875
4.600000	1	0.027125
4.616667	1	0.029125
4.633333	1	0.031250
4.650000	1	0.033625
4.666667	1	0.035625
4.683333	1	0.036750
4.700000	1	0.038375
4.716667	1	0.040125
4.733333	1	0.041250
4.750000	1	0.042375
4.766667	1	0.044000
4.783333	1	0.046375
4.800000	1	0.047750
4.816667	1	0.049375
4.833333	1	0.051125
4.850000	1	0.052750
4.866667	1	0.054000
4.883333	1	0.056125
4.900000	1	0.058125
4.916667	1	0.059875
4.933333	1	0.061750
4.950000	1	0.064000
4.966667	1	0.066875
4.983333	1	0.069375
5.000000	1	0.072000
5.016667	1	0.075125
5.033333	1	0.078125
5.050000	1	0.081625
5.066667	1	0.085250
5.083333	1	0.088375
5.100000	1	0.091625
5.116667	1	0.095125
5.133333	1	0.098875
5.150000	1	0.102625
5.166667	1	0.106875
5.183333	1	0.110625
5.200000	1	0.114750
5.216667	1	0.119125
5.233333	1	0.123625
5.250000	1	0.127625
5.266667	1	0.131875
5.283333	1	0.136000
5.300000	1	0.140750
5.316667	1	0.145625
5.333333	1	0.149750
5.350000	1	0.154000
5.366667	1	0.158375
5.383333	1	0.163000
5.400000	1	0.167750
5.416667	1	0.171625
5.433333	1	0.175875
5.450000	1	0.179250
5.466667	1	0.182750
5.483333	1	0.186875
5.500000	1	0.190125
5.516667	1	0.194000
5.533333	1	0.197375
5.550000	1	0.201000
5.566667	1	0.203875
5.583333	1	0.206875
5.600000	1	0.209500
5.616667	1	0.211250
5.633333	1	0.213625
5.650000	1	0.216375
5.666667	1	0.218250
5.683333	1	0.220375
5.700000	1	0.222750
5.716667	1	0.224375
5.733333	1	0.226375
5.750000	1	0.227500
5.766667	1	0.228500
5.783333	1	0.229625
5.800000	1	0.230875
5.816667	1	0.231125
5.833333	1	0.231250
5.850000	1	0.231250
5.866667	1	0.231750
5.883333	1	0.231625
5.900000	1	0.230875
5.916667	1	0.230125
5.933333	1	0.229000
5.950000	1	0.227500
5.966667	1	0.225875
5.983333	1	0.224125
6.000000	1	0.222000
6.016667	1	0.220250
6.033333	1	0.217750
6.050000	1	0.214375
6.066667	1	0.211000
6.083333	1	0.208375
6.100000	1	0.204750
6.116667	1	0.201875
6.133333	1	0.198625
6.150000	1	0.194500
6.166667	1	0.190625
6.183333	1	0.187000
6.200000	1	0.182750
6.216667	1	0.178375
6.233333	1	0.174125
6.250000	1	0.170125
6.266667	1	0.165125
6.283333	1	0.160750
6.300000	1	0.156750
6.316667	1	0.152625
6.333333	1	0.148750
6.350000	1	0.144875
6.366667	1	0.141375
6.383333	1	0.136875
6.400000	1	0.132750
6.416667	1	0.128875
6.433333	1	0.125375
6.450000	1	0.121875
6.466667	1	0.118375
6.483333	1	0.114375
6.500000	1	0.110750
6.516667	1	0.107750
6.533333	1	0.104625
6.550000	1	0.101250
6.566667	1	0.097625
6.583333	1	0.094625
6.600000	1	0.092125
6.616667	1	0.089750
6.633333	1	0.087125
6.650000	1	0.084000
6.666667	1	0.081000
6.683333	1	0.078000
6.700000	1	0.075875
6.716667	1	0.073875
6.733333	1	0.071625
6.750000	1	0.069000
6.766667	1	0.067125
6.783333	1	0.065250
6.800000	1	0.064250
6.816667	1	0.062875
6.833333	1	0.061750
6.850000	1	0.060250
6.866667	1	0.060125
6.883333	1	0.058625
6.900000	1	0.058000
6.916667	1	0.057875
6.933333	1	0.057625
6.950000	1	0.057000
6.966667	1	0.057250
6.983333	1	0.056750
7.000000	1	0.057750
7.016667	1	0.057625
7.033333	1	0.057750
7.050000	1	0.058125
7.066667	1	0.058875
7.083333	1	0.059875
7.100000	1	0.061375
7.116667	1	0.061500
7.133333	1	0.062500
7.150000	1	0.063625
7.166667	1	0.064750
7.183333	1	0.065750
7.200000	1	0.067500
7.216667	1	0.069375
7.233333	1	0.071625
7.250000	1	0.073125
7.266667	1	0.074750
7.283333	1	0.076750
7.300000	1	0.079000
7.316667	1	0.081875
7.333333	1	0.084375
7.350000	1	0.087375
7.366667	1	0.090375
7.383333	1	0.092500
7.400000	1	0.095000
7.416667	1	0.097375
7.433333	1	0.099750
7.450000	1	0.102500
7.466667	1	0.105500
7.483333	1	0.108500
7.500000	1	0.110875
7.516667	1	0.113375
7.533333	1	0.115375
7.550000	1	0.117625
7.566667	1	0.119125
7.583333	1	0.121125
7.600000	1	0.122500
7.616667	1	0.124000
7.633333	1	0.125750
7.650000	1	0.126625
7.666667	1	0.126250
7.683333	1	0.127000
7.700000	1	0.127250
7.716667	1	0.127625
7.733333	1	0.127750
7.750000	1	0.127250
7.766667	1	0.126625
7.783333	1	0.125625
7.800000	1	0.124875
7.816667	1	0.123500
7.833333	1	0.121625
7.850000	1	0.119625
7.866667	1	0.118250
7.883333	1	0.115625
7.900000	1	0.112625
7.916667	1	0.110625
7.933333	1	0.108250
7.950000	1	0.105250
7.966667	1	0.102250
7.983333	1	0.098875
8.000000	1	0.095625
8.016667	1	0.091875
8.033333	1	0.088250
8.050000	1	0.084625
8.066667	1	0.081125
8.083333	1	0.076875
8.100000	1	0.073250
8.116667	1	0.069000
8.133333	1	0.065000
8.150000	1	0.061750
8.166667	1	0.058000
8.183333	1	0.054500
8.200000	1	0.050500
8.216667	1	0.046750
8.233333	1	0.043375
8.250000	1	0.040000
8.266667	1	0.036500
8.283333	1	0.033250
8.300000	1	0.029875
8.316667	1	0.026625
8.333333	1	0.024125
8.350000	1	0.022000
8.366667	1	0.020000
8.383333	1	0.017375
8.400000	1	0.014750
8.416667	1	0.013125
8.433333	1	0.011375
8.450000	1	0.008750
8.466667	1	0.007375
8.483333	1	0.005750
8.500000	1	0.004000
8.516667	1	0.002000
8.533333	1	0.000750
8.550000	1	-0.000500
8.566667	1	-0.000875
8.583333	1	-0.002750
8.600000	1	-0.004125
8.616667	1	-0.005500
8.633333	1	-0.006000
8.650000	1	-0.007625
8.666667	1	-0.008875
8.683333	1	-0.009625
8.700000	1	-0.010250
8.716667	1	-0.011375
8.733333	1	-0.012000
8.750000	1	-0.013000
8.766667	1	-0.013125
8.783333	1	-0.013750
8.800000	1	-0.013750
8.816667	1	-0.014750
8.833333	1	-0.015500
8.850000	1	-0.016875
8.866667	1	-0.017000
8.883333	1	-0.017625
8.900000	1	-0.017750
8.916667	1	-0.017250
8.933333	1	-0.016750
8.950000	1	-0.016875
8.966667	1	-0.017000
8.983333	1	-0.016125
9.000000	1	-0.016375
9.016667	1	-0.015875
9.033333	1	-0.016000
9.050000	1	-0.015500
9.066667	1	-0.015500
9.083333	1	-0.015250
9.100000	1	-0.015000
9.116667	1	-0.015125
9.133333	1	-0.014250
9.150000	1	-0.013250
9.166667	1	-0.012625
9.183333	1	-0.012500
9.200000	1	-0.012000
9.216667	1	-0.011375
9.233333	1	-0.011500
9.250000	1	-0.012000
9.266667	1	-0.012250
9.283333	1	-0.012250
9.300000	1	-0.011750
9.316667	1	-0.012625
9.333333	1	-0.012875
9.350000	1	-0.013625
9.366667	1	-0.014250
9.383333	1	-0.015000
9.400000	1	-0.015875
9.416667	1	-0.016750
9.433333	1	-0.017250
9.450000	1	-0.017625
9.466667	1	-0.018125
9.483333	1	-0.019250
9.500000	1	-0.019875
9.516667	1	-0.020500
9.533333	1	-0.021375
9.550000	1	-0.021750
9.566667	1	-0.022625
9.583333	1	-0.023500
9.600000	1	-0.024875
9.616667	1	-0.026375
9.633333	1	-0.027125
9.650000	1	-0.027875
9.666667	1	-0.028375
9.683333	1	-0.029125
9.700000	1	-0.029750
9.716667	1	-0.030250
9.733333	1	-0.031500
9.750000	1	-0.032125
9.766667	1	-0.033375
9.783333	1	-0.034375
9.800000	1	-0.035875
9.816667	1	-0.036750
9.833333	1	-0.037750
9.850000	1	-0.038500
9.866667	1	-0.038625
9.883333	1	-0.038625
9.900000	1	-0.039750
9.916667	1	-0.041250
9.933333	1	-0.041625
9.950000	1	-0.042250
9.966667	1	-0.042500
9.983333	1	-0.043250
10.000000	1	-0.043125
10.016667	1	-0.043500
10.033333	1	-0.042250
10.050000	1	-0.041875
10.066667	1	-0.040125
10.083333	1	-0.038125
10.100000	1	-0.035750
10.116667	1	-0.032500
10.133333	1	-0.027625
10.150000	1	-0.021375
10.166667	1	-0.014250
10.183333	1	-0.005875
10.200000	1	0.003750
10.216667	1	0.015250
10.233333	1	0.027750
10.250000	1	0.043625
10.266667	1	0.061250
10.283333	1	0.081250
10.300000	1	0.103875
10.316667	1	0.129125
10.333333	1	0.157375
10.350000	1	0.188625
10.366667	1	0.222625
10.383333	1	0.258250
10.400000	1	0.292875
10.416667	1	0.321750
10.433333	1	0.336750
10.450000	1	0.329875
10.466667	1	0.295000
10.483333	1	0.233750
10.500000	1	0.163000
10.516667	1	0.119125
10.533333	1	0.160875
10.550000	1	0.365625
10.566667	1	0.821250
10.583333	1	1.615125
10.600000	1	2.827250
10.616667	1	4.522750
10.633333	1	6.746500
10.650000	1	9.520000
10.666667	1	12.855625
10.683333	1	16.740000
10.700000	1	21.140875
10.716667	1	25.993875
10.733333	1	31.196750
10.750000	1	36.592875
10.766667	1	41.951875
10.783333	1	46.961750
10.800000	1	51.229625
10.816667	1	54.311500
10.833333	1	55.809375
10.850000	1	55.484750
10.866667	1	53.344250
10.883333	1	49.656000
10.900000	1	44.876250
10.916667	1	39.532250
10.933333	1	34.094750
10.950000	1	28.915000
10.966667	1	24.211125
10.983333	1	20.090750
11.000000	1	16.579375
11.016667	1	13.653625
11.033333	1	11.260875
11.050000	1	9.331250
11.066667	1	7.791500
11.083333	1	6.570500
11.100000	1	5.604500
11.116667	1	4.839000
11.133333	1	4.229625
11.150000	1	3.742125
11.166667	1	3.347500
11.183333	1	3.025125
11.200000	1	2.758250
11.216667	1	2.533750
11.233333	1	2.342875
11.250000	1	2.178000
11.266667	1	2.035375
11.283333	1	1.910375
11.300000	1	1.799750
11.316667	1	1.702000
11.333333	1	1.616125
11.350000	1	1.540000
11.366667	1	1.472750
11.383333	1	1.413750
11.400000	1	1.361625
11.416667	1	1.316000
11.433333	1	1.276625
11.450000	1	1.242875
11.466667	1	1.213500
11.483333	1	1.188875
11.500000	1	1.168875
11.516667	1	1.153250
11.533333	1	1.140875
11.550000	1	1.132125
11.566667	1	1.125875
11.583333	1	1.122375
11.600000	1	1.120000
11.616667	1	1.118625
11.633333	1	1.116250
11.650000	1	1.114000
11.666667	1	1.111375
11.683333	1	1.107250
11.700000	1	1.101875
11.716667	1	1.096000
11.733333	1	1.089750
11.750000	1	1.082750
11.766667	1	1.076875
11.783333	1	1.071000
11.800000	1	1.066875
11.816667	1	1.063625
11.833333	1	1.060875
11.850000	1	1.058875
11.866667	1	1.058000
11.883333	1	1.057375
11.900000	1	1.057500
11.916667	1	1.058375
11.933333	1	1.059375
11.950000	1	1.061375
11.966667	1	1.063500
11.983333	1	1.065625
12.000000	1	1.068125
12.016667	1	1.070500
12.033333	1	1.073875
12.050000	1	1.077875
12.066667	1	1.082375
12.083333	1	1.087000
12.100000	1	1.092375
12.116667	1	1.098750
12.133333	1	1.105500
12.150000	1	1.112750
12.166667	1	1.121250
12.183333	1	1.130375
12.200000	1	1.140125
12.216667	1	1.151375
12.233333	1	1.164125
12.250000	1	1.179125
12.266667	1	1.195500
12.283333	1	1.213750
12.300000	1	1.234375
12.316667	1	1.257625
12.333333	1	1.282750
12.350000	1	1.311125
12.366667	1	1.343625
12.383333	1	1.381500
12.400000	1	1.428250
12.416667	1	1.484625
12.433333	1	1.554125
12.450000	1	1.641375
12.466667	1	1.749250
12.483333	1	1.881125
12.500000	1	2.040250
12.516667	1	2.228250
12.533333	1	2.447000
12.550000	1	2.696625
12.566667	1	2.976500
12.583333	1	3.284500
12.600000	1	3.618250
12.616667	1	3.972625
12.633333	1	4.345500
12.650000	1	4.732125
12.666667	1	5.126750
12.683333	1	5.520500
12.700000	1	5.906250
12.716667	1	6.271875
12.733333	1	6.605750
12.750000	1	6.892875
12.766667	1	7.120500
12.783333	1	7.275375
12.800000	1	7.349500
12.816667	1	7.342375
12.833333	1	7.259250
12.850000	1	7.111125
12.866667	1	6.912875
12.883333	1	6.677375
12.900000	1	6.416625
12.916667	1	6.140000
12.933333	1	5.853625
12.950000	1	5.563125
12.966667	1	5.273875
12.983333	1	4.990625
13.000000	1	4.718375
13.016667	1	4.460125
13.033333	1	4.218875
13.050000	1	3.997625
13.066667	1	3.795500
13.083333	1	3.612875
13.100000	1	3.447500
13.116667	1	3.298250
13.133333	1	3.163750
13.150000	1	3.042250
13.166667	1	2.932375
13.183333	1	2.832125
13.200000	1	2.740875
13.216667	1	2.657250
13.233333	1	2.580000
13.250000	1	2.508875
13.266667	1	2.442875
13.283333	1	2.381000
13.300000	1	2.323875
13.316667	1	2.270875
13.333333	1	2.220750
13.350000	1	2.174125
13.366667	1	2.130625
13.383333	1	2.089750
13.400000	1	2.053125
13.416667	1	2.018750
13.433333	1	1.988375
13.450000	1	1.961500
13.466667	1	1.938875
13.483333	1	1.920375
13.500000	1	1.906000
13.516667	1	1.894875
13.533333	1	1.886625
13.550000	1	1.881625
13.566667	1	1.877625
13.583333	1	1.873625
13.600000	1	1.868125
13.616667	1	1.860125
13.633333	1	1.848750
13.650000	1	1.833750
13.666667	1	1.813000
13.683333	1	1.789375
13.700000	1	1.761500
13.716667	1	1.730125
13.733333	1	1.696625
13.750000	1	1.662625
13.766667	1	1.627750
13.783333	1	1.592875
13.800000	1	1.559250
13.816667	1	1.526875
13.833333	1	1.496625
13.850000	1	1.467625
13.866667	1	1.441250
13.883333	1	1.416250
13.900000	1	1.393375
13.916667	1	1.372125
13.933333	1	1.352875
13.950000	1	1.334875
13.966667	1	1.317500
13.983333	1	1.301500
14.000000	1	1.286500
14.016667	1	1.272625
14.033333	1	1.260500
14.050000	1	1.248250
14.066667	1	1.236875
14.083333	1	1.225875
14.100000	1	1.216625
14.116667	1	1.207000
14.133333	1	1.198125
14.150000	1	1.189125
14.166667	1	1.181000
14.183333	1	1.174125
14.200000	1	1.167875
14.216667	1	1.162625
14.233333	1	1.159125
14.250000	1	1.157125
14.266667	1	1.156000
14.283333	1	1.156750
14.300000	1	1.159625
14.316667	1	1.164000
14.333333	1	1.170875
14.350000	1	1.181000
14.366667	1	1.193500
14.383333	1	1.208375
14.400000	1	1.227375
14.416667	1	1.251250
14.433333	1	1.282875
14.450000	1	1.327250
14.466667	1	1.391875
14.483333	1	1.488375
14.500000	1	1.632125
14.516667	1	1.849500
14.533333	1	2.170125
14.550000	1	2.636000
14.566667	1	3.298875
14.583333	1	4.218125
14.600000	1	5.462250
14.616667	1	7.103875
14.633333	1	9.215500
14.650000	1	11.860750
14.666667	1	15.083125
14.683333	1	18.894625
14.700000	1	23.268250
14.716667	1	28.127500
14.733333	1	33.356125
14.750000	1	38.787250
14.766667	1	44.216875
14.783333	1	49.411875
14.800000	1	54.141375
14.816667	1	58.183125
14.833333	1	61.345125
14.850000	1	63.481125
14.866667	1	64.505125
14.883333	1	64.401750
14.900000	1	63.221500
14.916667	1	61.076375
14.933333	1	58.122250
14.950000	1	54.542125
14.966667	1	50.529750
14.983333	1	46.273125
15.000000	1	41.934250
15.016667	1	37.652250
15.033333	1	33.534000
15.050000	1	29.659625
15.066667	1	26.081000
15.083333	1	22.826375
15.100000	1	19.904875
15.116667	1	17.310625
15.133333	1	15.026625
15.150000	1	13.028500
15.166667	1	11.292125
15.183333	1	9.788750
15.200000	1	8.492375
15.216667	1	7.378500
15.233333	1	6.424500
15.250000	1	5.611000
15.266667	1	4.922375
15.283333	1	4.343000
15.300000	1	3.860625
15.316667	1	3.463125
15.333333	1	3.139750
15.350000	1	2.879375
15.366667	1	2.673875
15.383333	1	2.513625
15.400000	1	2.390500
15.416667	1	2.297000
15.433333	1	2.226500
15.450000	1	2.173250
15.466667	1	2.130875
15.483333	1	2.094125
15.500000	1	2.060125
15.516667	1	2.026125
15.533333	1	1.990875
15.550000	1	1.953500
15.566667	1	1.914125
15.583333	1	1.873125
15.600000	1	1.830750
15.616667	1	1.788375
15.633333	1	1.747500
15.650000	1	1.708625
15.666667	1	1.672125
15.683333	1	1.637875
15.700000	1	1.606250
15.716667	1	1.577375
15.733333	1	1.550375
15.750000	1	1.525125
15.766667	1	1.500500
15.783333	1	1.477250
15.800000	1	1.454125
15.816667	1	1.431250
15.833333	1	1.407875
15.850000	1	1.384750
15.866667	1	1.362750
15.883333	1	1.341500
15.900000	1	1.321000
15.916667	1	1.302000
15.933333	1	1.284875
15.950000	1	1.269125
15.966667	1	1.255500
15.983333	1	1.243375
16.000000	1	1.233750
16.016667	1	1.225625
16.033333	1	1.219500
16.050000	1	1.214375
16.066667	1	1.210625
16.083333	1	1.207375
16.100000	1	1.205875
16.116667	1	1.204375
16.133333	1	1.203625
16.150000	1	1.202750
16.166667	1	1.201875
16.183333	1	1.200625
16.200000	1	1.198875
16.216667	1	1.196000
16.233333	1	1.192750
16.250000	1	1.188750
16.266667	1	1.183875
16.283333	1	1.178500
16.300000	1	1.172625
16.316667	1	1.166500
16.333333	1	1.160375
16.350000	1	1.154750
16.366667	1	1.150500
16.383333	1	1.147125
16.400000	1	1.144625
16.416667	1	1.143625
16.433333	1	1.144125
16.450000	1	1.146000
16.466667	1	1.148250
16.483333	1	1.151125
16.500000	1	1.153875
16.516667	1	1.157125
16.533333	1	1.158750
16.550000	1	1.159375
16.566667	1	1.159250
16.583333	1	1.157500
16.600000	1	1.154125
16.616667	1	1.149000
16.633333	1	1.143250
16.650000	1	1.137250
16.666667	1	1.130125
16.683333	1	1.122625
16.700000	1	1.116000
16.716667	1	1.110500
16.733333	1	1.106375
16.750000	1	1.102875
16.766667	1	1.102875
16.783333	1	1.102750
16.800000	1	1.104125
16.816667	1	1.105625
16.833333	1	1.108375
16.850000	1	1.111375
16.866667	1	1.114000
16.883333	1	1.115125
16.900000	1	1.116250
16.916667	1	1.115500
16.933333	1	1.114000
16.950000	1	1.110125
16.966667	1	1.106000
16.983333	1	1.100625
17.000000	1	1.094375
17.016667	1	1.087875
17.033333	1	1.080750
17.050000	1	1.074250
17.066667	1	1.067875
17.083333	1	1.062250
17.100000	1	1.057250
17.116667	1	1.053750
17.133333	1	1.050375
17.150000	1	1.047875
17.166667	1	1.046375
17.183333	1	1.046125
17.200000	1	1.047000
17.216667	1	1.048750
17.233333	1	1.051375
17.250000	1	1.055000
17.266667	1	1.059250
17.283333	1	1.063500
17.300000	1	1.068750
17.316667	1	1.074750
17.333333	1	1.080750
17.350000	1	1.087125
17.366667	1	1.092750
17.383333	1	1.098125
17.400000	1	1.103625
17.416667	1	1.107500
17.433333	1	1.111250
17.450000	1	1.114125
17.466667	1	1.114750
17.483333	1	1.114000
17.500000	1	1.111750
17.516667	1	1.107500
17.533333	1	1.102250
17.550000	1	1.095250
17.566667	1	1.086625
17.583333	1	1.077375
17.600000	1	1.066375
17.616667	1	1.054625
17.633333	1	1.041875
17.650000	1	1.028500
17.666667	1	1.014875
17.683333	1	1.000625
17.700000	1	0.986500
17.716667	1	0.972250
17.733333	1	0.958250
17.750000	1	0.945250
17.766667	1	0.932250
17.783333	1	0.920250
17.800000	1	0.908625
17.816667	1	0.898375
17.833333	1	0.889375
17.850000	1	0.881000
17.866667	1	0.872750
17.883333	1	0.865625
17.900000	1	0.859375
17.916667	1	0.853500
17.933333	1	0.847875
17.950000	1	0.842375
17.966667	1	0.837750
17.983333	1	0.831625
18.000000	1	0.826250
18.016667	1	0.821000
18.033333	1	0.815875
18.050000	1	0.810625
18.066667	1	0.805500
18.083333	1	0.800750
18.100000	1	0.796750
18.116667	1	0.792375
18.133333	1	0.788750
18.150000	1	0.785375
18.166667	1	0.782500
18.183333	1	0.780250
18.200000	1	0.778625
18.216667	1	0.777250
18.233333	1	0.776000
18.250000	1	0.775125
18.266667	1	0.774250
18.283333	1	0.773500
18.300000	1	0.773125
18.316667	1	0.772000
18.333333	1	0.771250
18.350000	1	0.772000
18.366667	1	0.772875
18.383333	1	0.774750
18.400000	1	0.776500
18.416667	1	0.779875
18.433333	1	0.784500
18.450000	1	0.791375
18.466667	1	0.799125
18.483333	1	0.809500
18.500000	1	0.822000
18.516667	1	0.836500
18.533333	1	0.852000
18.550000	1	0.870875
18.566667	1	0.890625
18.583333	1	0.912375
18.600000	1	0.935250
18.616667	1	0.960125
18.633333	1	0.986750
18.650000	1	1.014750
18.666667	1	1.044250
18.683333	1	1.074750
18.700000	1	1.105875
18.716667	1	1.137875
18.733333	1	1.170125
18.750000	1	1.202125
18.766667	1	1.235000
18.783333	1	1.266875
18.800000	1	1.296625
18.816667	1	1.324750
18.833333	1	1.350500
18.850000	1	1.371375
18.866667	1	1.389500
18.883333	1	1.401500
18.900000	1	1.408375
18.916667	1	1.410375
18.933333	1	1.405625
18.950000	1	1.394625
18.966667	1	1.377875
18.983333	1	1.354625
19.000000	1	1.326250
19.016667	1	1.292875
19.033333	1	1.254375
19.050000	1	1.212625
19.066667	1	1.168000
19.083333	1	1.121500
19.100000	1	1.074875
19.116667	1	1.028750
19.133333	1	0.983625
19.150000	1	0.940875
19.166667	1	0.900875
19.183333	1	0.864625
19.200000	1	0.832125
19.216667	1	0.804500
19.233333	1	0.781625
19.250000	1	0.764875
19.266667	1	0.753875
19.283333	1	0.748375
19.300000	1	0.749375
19.316667	1	0.756250
19.333333	1	0.768250
19.350000	1	0.786500
19.366667	1	0.809625
19.383333	1	0.836625
19.400000	1	0.866875
19.416667	1	0.899250
19.433333	1	0.934625
19.450000	1	0.969875
19.466667	1	1.004875
19.483333	1	1.040000
19.500000	1	1.072500
19.516667	1	1.101500
19.533333	1	1.127750
19.550000	1	1.149250
19.566667	1	1.166625
19.583333	1	1.179625
19.600000	1	1.187625
19.616667	1	1.190875
19.633333	1	1.189500
19.650000	1	1.183500
19.666667	1	1.173000
19.683333	1	1.158625
19.700000	1	1.140375
19.716667	1	1.119250
19.733333	1	1.095250
19.750000	1	1.069250
19.766667	1	1.041000
19.783333	1	1.010125
19.800000	1	0.977500
19.816667	1	0.944500
19.833333	1	0.911500
19.850000	1	0.878875
19.866667	1	0.846000
19.883333	1	0.815375
19.900000	1	0.786125
19.916667	1	0.759500
19.933333	1	0.734375
19.950000	1	0.712000
19.966667	1	0.692875
19.983333	1	0.677750
20.000000	1	0.667125
20.016667	1	0.660375
20.033333	1	0.658750
20.050000	1	0.663000
20.066667	1	0.671875
20.083333	1	0.686250
20.100000	1	0.706625
20.116667	1	0.731250
20.133333	1	0.760625
20.150000	1	0.794000
20.166667	1	0.830125
20.183333	1	0.868125
20.200000	1	0.907000
20.216667	1	0.944625
20.233333	1	0.980125
20.250000	1	1.012125
20.266667	1	1.038750
20.283333	1	1.059625
20.300000	1	1.073875
20.316667	1	1.080125
20.333333	1	1.079875
20.350000	1	1.071625
20.366667	1	1.056875
20.383333	1	1.036125
20.400000	1	1.009875
20.416667	1	0.979500
20.433333	1	0.947000
20.450000	1	0.913625
20.466667	1	0.880625
20.483333	1	0.849875
20.500000	1	0.823000
20.516667	1	0.801625
20.533333	1	0.788000
20.550000	1	0.784000
20.566667	1	0.789500
20.583333	1	0.808125
20.600000	1	0.840375
20.616667	1	0.887750
20.633333	1	0.952000
20.650000	1	1.033250
20.666667	1	1.131500
20.683333	1	1.245750
20.700000	1	1.375125
20.716667	1	1.517625
20.733333	1	1.671875
20.750000	1	1.833250
20.766667	1	1.998250
20.783333	1	2.161750
20.800000	1	2.319000
20.816667	1	2.465000
20.833333	1	2.594375
20.850000	1	2.703875
20.866667	1	2.789625
20.883333	1	2.849000
20.900000	1	2.881250
20.916667	1	2.884500
20.933333	1	2.861125
20.950000	1	2.812250
20.966667	1	2.739500
20.983333	1	2.646375
21.000000	1	2.536375
21.016667	1	2.414625
21.033333	1	2.284000
21.050000	1	2.147875
21.066667	1	2.011000
21.083333	1	1.874125
21.100000	1	1.741750
21.116667	1	1.614875
21.133333	1	1.494875
21.150000	1	1.381750
21.166667	1	1.277625
21.183333	1	1.181500
21.200000	1	1.093125
21.216667	1	1.013625
21.233333	1	0.940625
21.250000	1	0.875875
21.266667	1	0.817125
21.283333	1	0.765375
21.300000	1	0.719125
21.316667	1	0.677500
21.333333	1	0.640875
21.350000	1	0.608500
21.366667	1	0.579875
21.383333	1	0.554125
21.400000	1	0.531750
21.416667	1	0.512125
21.433333	1	0.494750
21.450000	1	0.479625
21.466667	1	0.465875
21.483333	1	0.454125
21.500000	1	0.443875
21.516667	1	0.435375
21.533333	1	0.428125
21.550000	1	0.421750
21.566667	1	0.416000
21.583333	1	0.411000
21.600000	1	0.407500
21.616667	1	0.404750
21.633333	1	0.403125
21.650000	1	0.402000
21.666667	1	0.402375
21.683333	1	0.402250
21.700000	1	0.403625
21.716667	1	0.404625
21.733333	1	0.406000
21.750000	1	0.408250
21.766667	1	0.410750
21.783333	1	0.413875
21.800000	1	0.416875
21.816667	1	0.419750
21.833333	1	0.423125
21.850000	1	0.426250
21.866667	1	0.430000
21.883333	1	0.433750
21.900000	1	0.437500
21.916667	1	0.441875
21.933333	1	0.446875
21.950000	1	0.452125
21.966667	1	0.457750
21.983333	1	0.463375
22.000000	1	0.468875
22.016667	1	0.474875
22.033333	1	0.480500
22.050000	1	0.486625
22.066667	1	0.493125
22.083333	1	0.498750
22.100000	1	0.503750
22.116667	1	0.508750
22.133333	1	0.513000
22.150000	1	0.516250
22.166667	1	0.518875
22.183333	1	0.520625
22.200000	1	0.521000
22.216667	1	0.519125
22.233333	1	0.516375
22.250000	1	0.511875
22.266667	1	0.506625
22.283333	1	0.499750
22.300000	1	0.491500
22.316667	1	0.482875
22.333333	1	0.474125
22.350000	1	0.463875
22.366667	1	0.453250
22.383333	1	0.441500
22.400000	1	0.430500
22.416667	1	0.419000
22.433333	1	0.407125
22.450000	1	0.396000
22.466667	1	0.384750
22.483333	1	0.375000
22.500000	1	0.364875
22.516667	1	0.355750
22.533333	1	0.347000
22.550000	1	0.339125
22.566667	1	0.331250
22.583333	1	0.323875
22.600000	1	0.316500
22.616667	1	0.310250
22.633333	1	0.303750
22.650000	1	0.297750
22.666667	1	0.292125
22.683333	1	0.287125
22.700000	1	0.282125
22.716667	1	0.277750
22.733333	1	0.273000
22.750000	1	0.269250
22.766667	1	0.266125
22.783333	1	0.262875
22.800000	1	0.258750
22.816667	1	0.255875
22.833333	1	0.253125
22.850000	1	0.250000
22.866667	1	0.247375
22.883333	1	0.245250
22.900000	1	0.244000
22.916667	1	0.241750
22.933333	1	0.241000
22.950000	1	0.240125
22.966667	1	0.240500
22.983333	1	0.239375
23.000000	1	0.239625
23.016667	1	0.240125
23.033333	1	0.240625
23.050000	1	0.241250
23.066667	1	0.242125
23.083333	1	0.243750
23.100000	1	0.245625
23.116667	1	0.247875
23.133333	1	0.249750
23.150000	1	0.251375
23.166667	1	0.253375
23.183333	1	0.255375
23.200000	1	0.257875
23.216667	1	0.260125
23.233333	1	0.262750
23.250000	1	0.266125
23.266667	1	0.269625
23.283333	1	0.274625
23.300000	1	0.280375
23.316667	1	0.288500
23.333333	1	0.299625
23.350000	1	0.313625
23.366667	1	0.331375
23.383333	1	0.355625
23.400000	1	0.386750
23.416667	1	0.425875
23.433333	1	0.475375
23.450000	1	0.537625
23.466667	1	0.613250
23.483333	1	0.706250
23.500000	1	0.818250
23.516667	1	0.950500
23.533333	1	1.105750
23.550000	1	1.284875
23.566667	1	1.488375
23.583333	1	1.717875
23.600000	1	1.971750
23.616667	1	2.248500
23.633333	1	2.545500
23.650000	1	2.859125
23.666667	1	3.184875
23.683333	1	3.518250
23.700000	1	3.853750
23.716667	1	4.182875
23.733333	1	4.501125
23.750000	1	4.799875
23.766667	1	5.073375
23.783333	1	5.313750
23.800000	1	5.517625
23.816667	1	5.678875
23.833333	1	5.796000
23.850000	1	5.866750
23.866667	1	5.890625
23.883333	1	5.869000
23.900000	1	5.803625
23.916667	1	5.696875
23.933333	1	5.553125
23.950000	1	5.377500
23.966667	1	5.174500
23.983333	1	4.950125
24.000000	1	4.709125
24.016667	1	4.456875
24.033333	1	4.198625
24.050000	1	3.938625
24.066667	1	3.681000
24.083333	1	3.428000
24.100000	1	3.182000
24.116667	1	2.945875
24.133333	1	2.720125
24.150000	1	2.507125
24.166667	1	2.306750
24.183333	1	2.119375
24.200000	1	1.945125
24.216667	1	1.783875
24.233333	1	1.635125
24.250000	1	1.497875
24.266667	1	1.372500
24.283333	1	1.257875
24.300000	1	1.154125
24.316667	1	1.059375
24.333333	1	0.974125
24.350000	1	0.897125
24.366667	1	0.828875
24.383333	1	0.767500
24.400000	1	0.713750
24.416667	1	0.666250
24.433333	1	0.624000
24.450000	1	0.588000
24.466667	1	0.556125
24.483333	1	0.529500
24.500000	1	0.506375
24.516667	1	0.485625
24.533333	1	0.468750
24.550000	1	0.454125
24.566667	1	0.441375
24.583333	1	0.431000
24.600000	1	0.421875
24.616667	1	0.414000
24.633333	1	0.406500
24.650000	1	0.400125
24.666667	1	0.394125
24.683333	1	0.388000
24.700000	1	0.382000
24.716667	1	0.375750
24.733333	1	0.369125
24.750000	1	0.363375
24.766667	1	0.357625
24.783333	1	0.351500
24.800000	1	0.346250
24.816667	1	0.340500
24.833333	1	0.335500
24.850000	1	0.329875
24.866667	1	0.324625
24.883333	1	0.319625
24.900000	1	0.314875
24.916667	1	0.310125
24.933333	1	0.305500
24.950000	1	0.301250
24.966667	1	0.297250
24.983333	1	0.293000
25.000000	1	0.289125
25.016667	1	0.285000
25.033333	1	0.282000
25.050000	1	0.278250
25.066667	1	0.274875
25.083333	1	0.271750
25.100000	1	0.269250
25.116667	1	0.265875
25.133333	1	0.263000
25.150000	1	0.260500
25.166667	1	0.257375
25.183333	1	0.254625
25.200000	1	0.251500
25.216667	1	0.249000
25.233333	1	0.246750
25.250000	1	0.243625
25.266667	1	0.241500
25.283333	1	0.238625
25.300000	1	0.235750
25.316667	1	0.234000
25.333333	1	0.231875
25.350000	1	0.230125
25.366667	1	0.227875
25.383333	1	0.226125
25.400000	1	0.225375
25.416667	1	0.223750
25.433333	1	0.222750
25.450000	1	0.222375
25.466667	1	0.221250
25.483333	1	0.221250
25.500000	1	0.220625
25.516667	1	0.221000
25.533333	1	0.220250
25.550000	1	0.220500
25.566667	1	0.220500
25.583333	1	0.220250
25.600000	1	0.220250
25.616667	1	0.220125
25.633333	1	0.220000
25.650000	1	0.219625
25.666667	1	0.219000
25.683333	1	0.218875
25.700000	1	0.218375
25.716667	1	0.217500
25.733333	1	0.216625
25.750000	1	0.215750
25.766667	1	0.214625
25.783333	1	0.213250
25.800000	1	0.211875
25.816667	1	0.210500
25.833333	1	0.210125
25.850000	1	0.209250
25.866667	1	0.208625
25.883333	1	0.208625
25.900000	1	0.208125
25.916667	1	0.208000
25.933333	1	0.209000
25.950000	1	0.209750
25.966667	1	0.210500
25.983333	1	0.211625
26.000000	1	0.213875
26.016667	1	0.216375
26.033333	1	0.219000
26.050000	1	0.223000
26.066667	1	0.226875
26.083333	1	0.231625
26.100000	1	0.236625
26.116667	1	0.241750
26.133333	1	0.246625
26.150000	1	0.252125
26.166667	1	0.258125
26.183333	1	0.263750
26.200000	1	0.269500
26.216667	1	0.274750
26.233333	1	0.280875
26.250000	1	0.286875
26.266667	1	0.292000
26.283333	1	0.297625
26.300000	1	0.301875
26.316667	1	0.305750
26.333333	1	0.309125
26.350000	1	0.312375
26.366667	1	0.314750
26.383333	1	0.316000
26.400000	1	0.316625
26.416667	1	0.316125
26.433333	1	0.315000
26.450000	1	0.313250
26.466667	1	0.310375
26.483333	1	0.306500
26.500000	1	0.303250
26.516667	1	0.298625
26.533333	1	0.293500
26.550000	1	0.288250
26.566667	1	0.282250
26.583333	1	0.275875
26.600000	1	0.268500
26.616667	1	0.261500
26.633333	1	0.254500
26.650000	1	0.246875
26.666667	1	0.240000
26.683333	1	0.232625
26.700000	1	0.226125
26.716667	1	0.218875
26.733333	1	0.211875
26.750000	1	0.205500
26.766667	1	0.199000
26.783333	1	0.193750
26.800000	1	0.187500
26.816667	1	0.182750
26.833333	1	0.178250
26.850000	1	0.174000
26.866667	1	0.169250
26.883333	1	0.165875
26.900000	1	0.162125
26.916667	1	0.159625
26.933333	1	0.157500
26.950000	1	0.156000
26.966667	1	0.154500
26.983333	1	0.153625
27.000000	1	0.152750
27.016667	1	0.152375
27.033333	1	0.152750
27.050000	1	0.154000
27.066667	1	0.155625
27.083333	1	0.157750
27.100000	1	0.160375
27.116667	1	0.163625
27.133333	1	0.167375
27.150000	1	0.171875
27.166667	1	0.177000
27.183333	1	0.182750
27.200000	1	0.190000
27.216667	1	0.198500
27.233333	1	0.208750
27.250000	1	0.220125
27.266667	1	0.232875
27.283333	1	0.248625
27.300000	1	0.268000
27.316667	1	0.289250
27.333333	1	0.315125
27.350000	1	0.344875
27.366667	1	0.380125
27.383333	1	0.420750
27.400000	1	0.468250
27.416667	1	0.523375
27.433333	1	0.586125
27.450000	1	0.658000
27.466667	1	0.739500
27.483333	1	0.831250
27.500000	1	0.933625
27.516667	1	1.047625
27.533333	1	1.172625
27.550000	1	1.309250
27.566667	1	1.457125
27.583333	1	1.615375
27.600000	1	1.782625
27.616667	1	1.958750
27.633333	1	2.142250
27.650000	1	2.332250
27.666667	1	2.524750
27.683333	1	2.718875
27.700000	1	2.911250
27.716667	1	3.099875
27.733333	1	3.281500
27.750000	1	3.454000
27.766667	1	3.613625
27.783333	1	3.758375
27.800000	1	3.884625
27.816667	1	3.991250
27.833333	1	4.076875
27.850000	1	4.139500
27.866667	1	4.178250
27.883333	1	4.192125
27.900000	1	4.181000
27.916667	1	4.145625
27.933333	1	4.086500
27.950000	1	4.006125
27.966667	1	3.905125
27.983333	1	3.786625
28.000000	1	3.653375
28.016667	1	3.507000
28.033333	1	3.348750
28.050000	1	3.183750
28.066667	1	3.013750
28.083333	1	2.840750
28.100000	1	2.666750
28.116667	1	2.495125
28.133333	1	2.327125
28.150000	1	2.164625
28.166667	1	2.007500
28.183333	1	1.856375
28.200000	1	1.714250
28.216667	1	1.580375
28.233333	1	1.454875
28.250000	1	1.337500
28.266667	1	1.229250
28.283333	1	1.129750
28.300000	1	1.038000
28.316667	1	0.954875
28.333333	1	0.878625
28.350000	1	0.809750
28.366667	1	0.748250
28.383333	1	0.693625
28.400000	1	0.644375
28.416667	1	0.601500
28.433333	1	0.563625
28.450000	1	0.531250
28.466667	1	0.503375
28.483333	1	0.478625
28.500000	1	0.458625
28.516667	1	0.442875
28.533333	1	0.430500
28.550000	1	0.420250
28.566667	1	0.413625
28.583333	1	0.409375
28.600000	1	0.408250
28.616667	1	0.408750
28.633333	1	0.410750
28.650000	1	0.414750
28.666667	1	0.420625
28.683333	1	0.427250
28.700000	1	0.434375
28.716667	1	0.442375
28.733333	1	0.450250
28.750000	1	0.459375
28.766667	1	0.468750
28.783333	1	0.477250
28.800000	1	0.486125
28.816667	1	0.494750
28.833333	1	0.502250
28.850000	1	0.509625
28.866667	1	0.515875
28.883333	1	0.520625
28.900000	1	0.524500
28.916667	1	0.528125
28.933333	1	0.530000
28.950000	1	0.530625
28.966667	1	0.529750
28.983333	1	0.527750
29.000000	1	0.524500
29.016667	1	0.519750
29.033333	1	0.512750
29.050000	1	0.504250
29.066667	1	0.493625
29.083333	1	0.482000
29.100000	1	0.468750
29.116667	1	0.453125
29.133333	1	0.435625
29.150000	1	0.416125
29.166667	1	0.394250
29.183333	1	0.370375
29.200000	1	0.344125
29.216667	1	0.315875
29.233333	1	0.285750
29.250000	1	0.252500
29.266667	1	0.217250
29.283333	1	0.178625
29.300000	1	0.138750
29.316667	1	0.095750
29.333333	1	0.050375
29.350000	1	0.002500
29.366667	1	-0.047250
29.383333	1	-0.099750
29.400000	1	-0.154000
29.416667	1	-0.209500
29.433333	1	-0.268000
29.450000	1	-0.326000
29.466667	1	-0.385500
29.483333	1	-0.445125
29.500000	1	-0.505375
29.516667	1	-0.564750
29.533333	1	-0.623500
29.550000	1	-0.681000
29.566667	1	-0.736750
29.583333	1	-0.790125
29.600000	1	-0.840375
29.616667	1	-0.887375
29.633333	1	-0.930500
29.650000	1	-0.969875
29.666667	1	-1.004875
29.683333	1	-1.034750
29.700000	1	-1.060375
29.716667	1	-1.080750
29.733333	1	-1.095500
29.750000	1	-1.104750
29.766667	1	-1.109500
29.783333	1	-1.108125
29.800000	1	-1.102125
29.816667	1	-1.091250
29.833333	1	-1.075250
29.850000	1	-1.055750
29.866667	1	-1.031500
29.883333	1	-1.004125
29.900000	1	-0.973125
29.916667	1	-0.939875
29.933333	1	-0.904000
29.950000	1	-0.866250
29.966667	1	-0.826375
29.983333	1	-0.786125
30.000000	1	-0.744750
30.016667	1	-0.702750
30.033333	1	-0.660625
30.050000	1	-0.619250
30.066667	1	-0.577625
30.083333	1	-0.537500
30.100000	1	-0.498625
30.116667	1	-0.460125
30.133333	1	-0.423125
30.150000	1	-0.387375
30.166667	1	-0.354125
30.183333	1	-0.322250
30.200000	1	-0.292000
30.216667	1	-0.263000
30.233333	1	-0.236250
30.250000	1	-0.210125
30.266667	1	-0.186125
30.283333	1	-0.163625
30.300000	1	-0.142875
30.316667	1	-0.124000
30.333333	1	-0.107000
30.350000	1	-0.090375
30.366667	1	-0.075875
30.383333	1	-0.062125
30.400000	1	-0.049250
30.416667	1	-0.037625
30.433333	1	-0.026375
30.450000	1	-0.015125
30.466667	1	-0.005875
30.483333	1	0.003375
30.500000	1	0.012000
30.516667	1	0.020500
30.533333	1	0.028125
30.550000	1	0.036375
30.566667	1	0.044000
30.583333	1	0.051250
30.600000	1	0.058625
30.616667	1	0.066125
30.633333	1	0.073625
30.650000	1	0.082000
30.666667	1	0.089500
30.683333	1	0.097625
30.700000	1	0.105500
30.716667	1	0.113375
30.733333	1	0.122000
30.750000	1	0.130125
30.766667	1	0.139125
30.783333	1	0.148375
30.800000	1	0.158375
30.816667	1	0.168875
30.833333	1	0.179125
30.850000	1	0.190125
30.866667	1	0.202750
30.883333	1	0.214750
30.900000	1	0.228750
30.916667	1	0.243000
30.933333	1	0.258500
30.950000	1	0.276125
30.966667	1	0.295500
30.983333	1	0.318375
31.000000	1	0.343000
31.016667	1	0.371375
31.033333	1	0.403750
31.050000	1	0.440875
31.066667	1	0.482750
31.083333	1	0.531000
31.100000	1	0.586000
31.116667	1	0.647500
31.133333	1	0.716875
31.150000	1	0.795750
31.166667	1	0.884250
31.183333	1	0.982250
31.200000	1	1.091000
31.216667	1	1.211875
31.233333	1	1.343125
31.250000	1	1.486000
31.266667	1	1.639750
31.283333	1	1.805000
31.300000	1	1.980000
31.316667	1	2.164000
31.333333	1	2.356125
31.350000	1	2.554750
31.366667	1	2.759625
31.383333	1	2.968125
31.400000	1	3.177500
31.416667	1	3.386000
31.433333	1	3.592000
31.450000	1	3.792000
31.466667	1	3.983500
31.483333	1	4.164000
31.500000	1	4.331500
31.516667	1	4.483750
31.533333	1	4.618875
31.550000	1	4.735625
31.566667	1	4.831625
31.583333	1	4.907250
31.600000	1	4.960375
31.616667	1	4.992250
31.633333	1	5.000875
31.650000	1	4.987625
31.666667	1	4.952250
31.683333	1	4.896875
31.700000	1	4.820625
31.716667	1	4.727625
31.733333	1	4.618500
31.750000	1	4.494500
31.766667	1	4.357625
31.783333	1	4.210750
31.800000	1	4.054500
31.816667	1	3.890250
31.833333	1	3.721250
31.850000	1	3.548375
31.866667	1	3.373875
31.883333	1	3.199375
31.900000	1	3.025875
31.916667	1	2.854000
31.933333	1	2.686250
31.950000	1	2.522375
31.966667	1	2.363375
31.983333	1	2.211000
32.000000	1	2.063875
32.016667	1	1.922375
32.033333	1	1.786875
32.050000	1	1.658250
32.066667	1	1.536375
32.083333	1	1.420750
32.100000	1	1.312250
32.116667	1	1.210250
32.133333	1	1.114000
32.150000	1	1.024125
32.166667	1	0.939625
32.183333	1	0.861125
32.200000	1	0.787250
32.216667	1	0.718625
32.233333	1	0.655000
32.250000	1	0.595500
32.266667	1	0.540250
32.283333	1	0.489500
32.300000	1	0.442250
32.316667	1	0.398500
32.333333	1	0.358500
32.350000	1	0.321875
32.366667	1	0.288000
32.383333	1	0.257625
32.400000	1	0.228625
32.416667	1	0.203000
32.433333	1	0.178750
32.450000	1	0.157375
32.466667	1	0.137875
32.483333	1	0.120000
32.500000	1	0.103625
32.516667	1	0.089125
32.533333	1	0.075875
32.550000	1	0.064250
32.566667	1	0.053375
32.583333	1	0.044125
32.600000	1	0.035750
32.616667	1	0.028625
32.633333	1	0.022250
32.650000	1	0.016375
32.666667	1	0.010750
32.683333	1	0.006500
32.700000	1	0.002125
32.716667	1	-0.000875
32.733333	1	-0.004125
32.750000	1	-0.006750
32.766667	1	-0.008875
32.783333	1	-0.010750
32.800000	1	-0.012750
32.816667	1	-0.013500
32.833333	1	-0.014500
32.850000	1	-0.015625
32.866667	1	-0.017125
32.883333	1	-0.017875
32.900000	1	-0.017875
32.916667	1	-0.017625
32.933333	1	-0.018125
32.950000	1	-0.017750
32.966667	1	-0.017250
32.983333	1	-0.017125
33.000000	1	-0.016500
33.016667	1	-0.016500
33.033333	1	-0.016875
33.050000	1	-0.016625
33.066667	1	-0.016625
33.083333	1	-0.016875
33.100000	1	-0.016250
33.116667	1	-0.015750
33.133333	1	-0.015500
33.150000	1	-0.014625
33.166667	1	-0.014250
33.183333	1	-0.014000
33.200000	1	-0.013750
33.216667	1	-0.013625
33.233333	1	-0.013625
33.250000	1	-0.013750
33.266667	1	-0.013250
33.283333	1	-0.012750
33.300000	1	-0.012125
33.316667	1	-0.011375
33.333333	1	-0.010875
33.350000	1	-0.010500
33.366667	1	-0.009500
33.383333	1	-0.008125
33.400000	1	-0.007875
33.416667	1	-0.007250
33.433333	1	-0.006250
33.450000	1	-0.005375
33.466667	1	-0.004250
33.483333	1	-0.002875
33.500000	1	-0.001500
33.516667	1	0.000000
33.533333	1	0.001125
33.550000	1	0.002875
33.566667	1	0.004000
33.583333	1	0.006250
33.600000	1	0.008250
33.616667	1	0.010000
33.633333	1	0.011750
33.650000	1	0.014000
33.666667	1	0.016250
33.683333	1	0.019125
33.700000	1	0.020750
33.716667	1	0.022625
33.733333	1	0.024500
33.750000	1	0.027000
33.766667	1	0.029000
33.783333	1	0.030500
33.800000	1	0.032250
33.816667	1	0.033625
33.833333	1	0.035250
33.850000	1	0.036375
33.866667	1	0.037875
33.883333	1	0.039250
33.900000	1	0.040375
33.916667	1	0.041125
33.933333	1	0.041875
33.950000	1	0.042875
33.966667	1	0.043750
33.983333	1	0.044750
34.000000	1	0.045750
34.016667	1	0.045750
34.033333	1	0.046000
34.050000	1	0.045750
34.066667	1	0.046000
34.083333	1	0.046125
34.100000	1	0.046875
34.116667	1	0.046750
34.133333	1	0.047000
34.150000	1	0.047625
34.166667	1	0.047750
34.183333	1	0.048000
34.200000	1	0.048250
34.216667	1	0.048625
34.233333	1	0.049250
34.250000	1	0.050000
34.266667	1	0.050750
34.283333	1	0.052000
34.300000	1	0.052500
34.316667	1	0.053250
34.333333	1	0.055125
34.350000	1	0.056875
34.366667	1	0.058375
34.383333	1	0.060500
34.400000	1	0.061875
34.416667	1	0.063375
34.433333	1	0.065000
34.450000	1	0.066750
34.466667	1	0.068875
34.483333	1	0.070875
34.500000	1	0.072875
34.516667	1	0.074875
34.533333	1	0.077625
34.550000	1	0.079375
34.566667	1	0.081250
34.583333	1	0.083375
34.600000	1	0.085375
34.616667	1	0.086500
34.633333	1	0.088500
34.650000	1	0.089875
34.666667	1	0.091500
34.683333	1	0.092750
34.700000	1	0.094250
34.716667	1	0.095000
34.733333	1	0.095875
34.750000	1	0.096625
34.766667	1	0.097375
34.783333	1	0.097625
34.800000	1	0.097375
34.816667	1	0.097125
34.833333	1	0.096875
34.850000	1	0.096375
34.866667	1	0.096000
34.883333	1	0.095375
34.900000	1	0.094750
34.916667	1	0.093750
34.933333	1	0.093375
34.950000	1	0.091375
34.966667	1	0.089625
34.983333	1	0.087875
35.000000	1	0.086000
35.016667	1	0.084500
35.033333	1	0.082250
35.050000	1	0.079750
35.066667	1	0.077625
35.083333	1	0.075750
35.100000	1	0.073125
35.116667	1	0.071500
35.133333	1	0.068750
35.150000	1	0.066625
35.166667	1	0.064500
35.183333	1	0.062250
35.200000	1	0.060750
35.216667	1	0.058875
35.233333	1	0.056125
35.250000	1	0.054375
35.266667	1	0.052875
35.283333	1	0.050875
35.300000	1	0.048625
35.316667	1	0.047000
35.333333	1	0.045375
35.350000	1	0.044000
35.366667	1	0.043250
35.383333	1	0.041875
35.400000	1	0.040625
35.416667	1	0.039625
35.433333	1	0.038875
35.450000	1	0.038500
35.466667	1	0.038250
35.483333	1	0.038125
35.500000	1	0.038000
35.516667	1	0.038000
35.533333	1	0.038875
35.550000	1	0.039250
35.566667	1	0.039750
35.583333	1	0.039750
35.600000	1	0.040625
35.616667	1	0.040625
35.633333	1	0.040875
35.650000	1	0.041125
35.666667	1	0.041625
35.683333	1	0.041875
35.700000	1	0.042125
35.716667	1	0.043125
35.733333	1	0.044625
35.750000	1	0.045000
35.766667	1	0.046250
35.783333	1	0.047750
35.800000	1	0.048750
35.816667	1	0.049125
35.833333	1	0.049375
35.850000	1	0.049750
35.866667	1	0.049750
35.883333	1	0.049875
35.900000	1	0.050250
35.916667	1	0.050875
35.933333	1	0.051125
35.950000	1	0.051000
35.966667	1	0.051375
35.983333	1	0.051500
36.000000	1	0.051000
36.016667	1	0.050750
36.033333	1	0.049875
36.050000	1	0.049375
36.066667	1	0.049125
36.083333	1	0.049500
36.100000	1	0.049625
36.116667	1	0.049500
36.133333	1	0.049875
36.150000	1	0.049875
36.166667	1	0.050000
36.183333	1	0.050500
36.200000	1	0.051250
36.216667	1	0.050375
36.233333	1	0.050625
36.250000	1	0.051750
36.266667	1	0.052250
36.283333	1	0.053250
36.300000	1	0.054375
36.316667	1	0.055000
36.333333	1	0.055875
36.350000	1	0.057250
36.366667	1	0.058125
36.383333	1	0.059125
36.400000	1	0.061125
36.416667	1	0.062500
36.433333	1	0.063500
36.450000	1	0.065500
36.466667	1	0.066750
36.483333	1	0.068625
36.500000	1	0.070750
36.516667	1	0.072875
36.533333	1	0.074500
36.550000	1	0.076250
36.566667	1	0.078000
36.583333	1	0.079125
36.600000	1	0.080250
36.616667	1	0.081500
36.633333	1	0.081875
36.650000	1	0.082625
36.666667	1	0.083000
36.683333	1	0.083125
36.700000	1	0.083625
36.716667	1	0.084250
36.733333	1	0.084625
36.750000	1	0.084750
36.766667	1	0.084750
36.783333	1	0.084375
36.800000	1	0.084375
36.816667	1	0.083625
36.833333	1	0.083000
36.850000	1	0.082250
36.866667	1	0.081750
36.883333	1	0.081125
36.900000	1	0.080500
36.916667	1	0.080500
36.933333	1	0.080625
36.950000	1	0.079875
36.966667	1	0.079250
36.983333	1	0.078250
37.000000	1	0.077875
37.016667	1	0.077875
37.033333	1	0.077750
37.050000	1	0.077500
37.066667	1	0.077375
37.083333	1	0.077750
37.100000	1	0.078250
37.116667	1	0.078500
37.133333	1	0.078250
37.150000	1	0.079000
37.166667	1	0.078875
37.183333	1	0.079000
37.200000	1	0.079875
37.216667	1	0.081125
37.233333	1	0.082500
37.250000	1	0.083500
37.266667	1	0.084625
37.283333	1	0.086500
37.300000	1	0.087750
37.316667	1	0.089750
37.333333	1	0.091750
37.350000	1	0.093625
37.366667	1	0.095125
37.383333	1	0.096625
37.400000	1	0.098625
37.416667	1	0.101125
37.433333	1	0.103250
37.450000	1	0.105875
37.466667	1	0.108625
37.483333	1	0.111375
37.500000	1	0.114375
37.516667	1	0.117375
37.533333	1	0.120375
37.550000	1	0.124000
37.566667	1	0.126625
37.583333	1	0.130000
37.600000	1	0.133250
37.616667	1	0.135500
37.633333	1	0.139000
37.650000	1	0.142125
37.666667	1	0.145875
37.683333	1	0.149625
37.700000	1	0.153500
37.716667	1	0.156750
37.733333	1	0.159250
37.750000	1	0.162750
37.766667	1	0.166250
37.783333	1	0.169375
37.800000	1	0.172375
37.816667	1	0.176375
37.833333	1	0.179250
37.850000	1	0.182375
37.866667	1	0.186125
37.883333	1	0.189625
37.900000	1	0.192750
37.916667	1	0.195875
37.933333	1	0.198875
37.950000	1	0.202375
37.966667	1	0.205625
37.983333	1	0.208625
38.000000	1	0.212000
38.016667	1	0.215875
38.033333	1	0.219125
38.050000	1	0.222500
38.066667	1	0.226750
38.083333	1	0.230250
38.100000	1	0.234000
38.116667	1	0.238500
38.133333	1	0.242500
38.150000	1	0.246000
38.166667	1	0.249875
38.183333	1	0.253875
38.200000	1	0.257375
38.216667	1	0.261000
38.233333	1	0.264250
38.250000	1	0.267625
38.266667	1	0.271875
38.283333	1	0.275375
38.300000	1	0.279000
38.316667	1	0.281625
38.333333	1	0.285125
38.350000	1	0.287375
38.366667	1	0.290000
38.383333	1	0.291625
38.400000	1	0.293875
38.416667	1	0.295625
38.433333	1	0.297375
38.450000	1	0.299125
38.466667	1	0.300000
38.483333	1	0.300500
38.500000	1	0.300875
38.516667	1	0.300750
38.533333	1	0.300500
38.550000	1	0.300500
38.566667	1	0.300625
38.583333	1	0.300125
38.600000	1	0.299000
38.616667	1	0.297750
38.633333	1	0.295375
38.650000	1	0.294250
38.666667	1	0.291875
38.683333	1	0.290000
38.700000	1	0.287750
38.716667	1	0.285750
38.733333	1	0.283500
38.750000	1	0.280625
38.766667	1	0.278250
38.783333	1	0.275500
38.800000	1	0.272375
38.816667	1	0.269500
38.833333	1	0.266125
38.850000	1	0.262875
38.866667	1	0.259875
38.883333	1	0.256750
38.900000	1	0.253500
38.916667	1	0.249750
38.933333	1	0.246000
38.950000	1	0.242125
38.966667	1	0.238250
38.983333	1	0.233875
39.000000	1	0.230375
39.016667	1	0.225625
39.033333	1	0.221250
39.050000	1	0.216375
39.066667	1	0.212125
39.083333	1	0.207125
39.100000	1	0.202750
39.116667	1	0.197750
39.133333	1	0.192500
39.150000	1	0.187125
39.166667	1	0.182000
39.183333	1	0.176125
39.200000	1	0.170750
39.216667	1	0.165375
39.233333	1	0.159500
39.250000	1	0.154375
39.266667	1	0.148875
39.283333	1	0.143375
39.300000	1	0.137875
39.316667	1	0.132250
39.333333	1	0.126625
39.350000	1	0.121250
39.366667	1	0.115250
39.383333	1	0.110000
39.400000	1	0.104625
39.416667	1	0.099375
39.433333	1	0.093625
39.450000	1	0.088875
39.466667	1	0.084250
39.483333	1	0.079875
39.500000	1	0.075375
39.516667	1	0.071500
39.533333	1	0.067375
39.550000	1	0.063750
39.566667	1	0.060250
39.583333	1	0.057000
39.600000	1	0.054125
39.616667	1	0.051625
39.633333	1	0.049125
39.650000	1	0.046500
39.666667	1	0.044625
39.683333	1	0.042875
39.700000	1	0.041375
39.716667	1	0.039875
39.733333	1	0.038750
39.750000	1	0.037250
39.766667	1	0.036750
39.783333	1	0.035750
39.800000	1	0.035625
39.816667	1	0.035000
39.833333	1	0.035000
39.850000	1	0.034625
39.866667	1	0.034375
39.883333	1	0.034250
39.900000	1	0.033250
39.916667	1	0.032875
39.933333	1	0.031750
39.950000	1	0.030750
39.966667	1	0.030250
39.983333	1	0.029250
40.000000	1	0.028125
