URL	chrom://7040-86g6c92/XVault/Ultimate_3000/20/20240517_CMO_FP23_FP25_MarkusDeplate.seq/735.smp/RI_1.channel/RI_1.chm
Channel	RI_1

Injection Information:
Data Vault	XVault
Sequence	20240517_CMO_FP23_FP25_MarkusDeplate
Name	FP27_21_s3
Number	121
Position	BE3
Comment	
Processing Method	
Instrument Method	run_25B_method
Type	Unknown
Status	Finished
Inject Time	31.05.2024 05:17:35 +02:00
Volume (µl)	20.0000
Dilution Factor	1.0000
Weight	1.0000

Chromatogram Data Information:
Time Min. (min)	0.000000
Time Max. (min)	40.000000
Data Points	2401
Detector	RI
Generating Data System	Chromeleon 7.3.2.11814
Exporting Data System	Chromeleon 7.3.2.0
Operator	Instrument Controller
Signal Quantity	Refractive 
Signal Unit	µRIU
Signal Min.	-0.791250
Signal Max.	60.206000
Channel	RI_1
Driver Name	RID520Driver.dll
Channel Type	Evaluation
Min. Step (s)	1
Max. Step (s)	1
Average Step (s)	1

Signal Parameter Information:
Signal Info	

Chromatogram Data:
Time (min)	Step (s)	Value (µRIU)
0.000000	n.a.	0.028875
0.016667	1	0.030750
0.033333	1	0.032250
0.050000	1	0.034000
0.066667	1	0.036500
0.083333	1	0.038000
0.100000	1	0.039875
0.116667	1	0.042000
0.133333	1	0.044000
0.150000	1	0.046500
0.166667	1	0.048500
0.183333	1	0.049875
0.200000	1	0.051500
0.216667	1	0.052500
0.233333	1	0.053500
0.250000	1	0.054625
0.266667	1	0.054625
0.283333	1	0.055000
0.300000	1	0.055125
0.316667	1	0.055500
0.333333	1	0.054125
0.350000	1	0.053500
0.366667	1	0.051625
0.383333	1	0.049250
0.400000	1	0.046625
0.416667	1	0.044625
0.433333	1	0.043375
0.450000	1	0.042875
0.466667	1	0.041875
0.483333	1	0.040625
0.500000	1	0.039250
0.516667	1	0.037000
0.533333	1	0.033750
0.550000	1	0.030750
0.566667	1	0.026125
0.583333	1	0.020875
0.600000	1	0.015750
0.616667	1	0.011125
0.633333	1	0.006250
0.650000	1	0.002500
0.666667	1	-0.000500
0.683333	1	-0.003000
0.700000	1	-0.005000
0.716667	1	-0.007500
0.733333	1	-0.008250
0.750000	1	-0.009750
0.766667	1	-0.010375
0.783333	1	-0.010750
0.800000	1	-0.010625
0.816667	1	-0.010375
0.833333	1	-0.009750
0.850000	1	-0.008875
0.866667	1	-0.007500
0.883333	1	-0.006250
0.900000	1	-0.004625
0.916667	1	-0.003125
0.933333	1	-0.001125
0.950000	1	-0.000250
0.966667	1	0.001000
0.983333	1	0.002875
1.000000	1	0.004875
1.016667	1	0.006750
1.033333	1	0.007875
1.050000	1	0.009375
1.066667	1	0.010250
1.083333	1	0.011500
1.100000	1	0.012750
1.116667	1	0.013250
1.133333	1	0.013125
1.150000	1	0.013875
1.166667	1	0.014125
1.183333	1	0.013250
1.200000	1	0.012250
1.216667	1	0.012000
1.233333	1	0.011125
1.250000	1	0.010375
1.266667	1	0.009750
1.283333	1	0.008250
1.300000	1	0.007250
1.316667	1	0.006375
1.333333	1	0.005625
1.350000	1	0.004875
1.366667	1	0.004375
1.383333	1	0.003875
1.400000	1	0.004000
1.416667	1	0.003625
1.433333	1	0.004375
1.450000	1	0.004750
1.466667	1	0.006000
1.483333	1	0.007375
1.500000	1	0.008875
1.516667	1	0.010375
1.533333	1	0.012500
1.550000	1	0.014125
1.566667	1	0.016375
1.583333	1	0.019125
1.600000	1	0.021750
1.616667	1	0.023625
1.633333	1	0.027250
1.650000	1	0.030125
1.666667	1	0.033375
1.683333	1	0.035750
1.700000	1	0.038375
1.716667	1	0.040750
1.733333	1	0.043000
1.750000	1	0.044000
1.766667	1	0.045750
1.783333	1	0.046875
1.800000	1	0.048000
1.816667	1	0.049125
1.833333	1	0.050125
1.850000	1	0.050500
1.866667	1	0.050500
1.883333	1	0.049875
1.900000	1	0.049875
1.916667	1	0.049250
1.933333	1	0.048500
1.950000	1	0.046875
1.966667	1	0.044875
1.983333	1	0.043125
2.000000	1	0.041125
2.016667	1	0.039500
2.033333	1	0.037750
2.050000	1	0.035625
2.066667	1	0.033625
2.083333	1	0.031750
2.100000	1	0.029375
2.116667	1	0.027625
2.133333	1	0.026125
2.150000	1	0.025000
2.166667	1	0.023000
2.183333	1	0.021625
2.200000	1	0.020625
2.216667	1	0.019750
2.233333	1	0.019000
2.250000	1	0.018125
2.266667	1	0.017625
2.283333	1	0.017250
2.300000	1	0.017250
2.316667	1	0.017875
2.333333	1	0.019000
2.350000	1	0.020000
2.366667	1	0.021500
2.383333	1	0.022750
2.400000	1	0.024625
2.416667	1	0.026375
2.433333	1	0.028875
2.450000	1	0.030875
2.466667	1	0.032750
2.483333	1	0.034750
2.500000	1	0.037000
2.516667	1	0.039500
2.533333	1	0.041500
2.550000	1	0.043750
2.566667	1	0.045625
2.583333	1	0.047500
2.600000	1	0.049750
2.616667	1	0.051250
2.633333	1	0.053125
2.650000	1	0.054625
2.666667	1	0.056000
2.683333	1	0.056875
2.700000	1	0.058375
2.716667	1	0.059750
2.733333	1	0.060750
2.750000	1	0.061750
2.766667	1	0.062500
2.783333	1	0.063125
2.800000	1	0.063250
2.816667	1	0.063500
2.833333	1	0.063250
2.850000	1	0.063500
2.866667	1	0.063500
2.883333	1	0.063625
2.900000	1	0.062875
2.916667	1	0.062500
2.933333	1	0.062125
2.950000	1	0.060875
2.966667	1	0.060000
2.983333	1	0.058500
3.000000	1	0.057375
3.016667	1	0.055875
3.033333	1	0.054375
3.050000	1	0.053125
3.066667	1	0.052000
3.083333	1	0.050250
3.100000	1	0.048500
3.116667	1	0.046500
3.133333	1	0.045375
3.150000	1	0.044000
3.166667	1	0.042375
3.183333	1	0.041250
3.200000	1	0.040625
3.216667	1	0.039625
3.233333	1	0.039000
3.250000	1	0.038625
3.266667	1	0.037125
3.283333	1	0.036750
3.300000	1	0.036250
3.316667	1	0.036250
3.333333	1	0.035625
3.350000	1	0.036125
3.366667	1	0.037000
3.383333	1	0.037000
3.400000	1	0.038000
3.416667	1	0.038625
3.433333	1	0.039125
3.450000	1	0.040375
3.466667	1	0.042250
3.483333	1	0.043000
3.500000	1	0.043750
3.516667	1	0.044750
3.533333	1	0.045750
3.550000	1	0.047375
3.566667	1	0.049000
3.583333	1	0.050375
3.600000	1	0.052375
3.616667	1	0.053625
3.633333	1	0.055250
3.650000	1	0.056500
3.666667	1	0.058625
3.683333	1	0.060000
3.700000	1	0.061375
3.716667	1	0.062750
3.733333	1	0.064500
3.750000	1	0.065375
3.766667	1	0.066875
3.783333	1	0.068625
3.800000	1	0.069875
3.816667	1	0.071750
3.833333	1	0.073250
3.850000	1	0.074750
3.866667	1	0.076500
3.883333	1	0.077875
3.900000	1	0.079125
3.916667	1	0.080875
3.933333	1	0.082375
3.950000	1	0.083375
3.966667	1	0.084500
3.983333	1	0.086375
4.000000	1	0.087375
4.016667	1	0.088125
4.033333	1	0.088875
4.050000	1	0.090000
4.066667	1	0.090625
4.083333	1	0.091125
4.100000	1	0.092250
4.116667	1	0.092875
4.133333	1	0.093500
4.150000	1	0.093500
4.166667	1	0.093625
4.183333	1	0.093375
4.200000	1	0.093500
4.216667	1	0.093875
4.233333	1	0.093250
4.250000	1	0.092750
4.266667	1	0.092250
4.283333	1	0.091500
4.300000	1	0.090250
4.316667	1	0.089625
4.333333	1	0.088000
4.350000	1	0.087500
4.366667	1	0.086250
4.383333	1	0.085250
4.400000	1	0.084625
4.416667	1	0.083625
4.433333	1	0.083250
4.450000	1	0.082625
4.466667	1	0.081875
4.483333	1	0.081000
4.500000	1	0.080375
4.516667	1	0.079750
4.533333	1	0.079625
4.550000	1	0.079375
4.566667	1	0.078875
4.583333	1	0.078625
4.600000	1	0.079625
4.616667	1	0.080750
4.633333	1	0.081250
4.650000	1	0.081875
4.666667	1	0.083375
4.683333	1	0.084125
4.700000	1	0.085500
4.716667	1	0.086750
4.733333	1	0.088500
4.750000	1	0.090500
4.766667	1	0.093000
4.783333	1	0.095750
4.800000	1	0.098000
4.816667	1	0.101250
4.833333	1	0.104250
4.850000	1	0.108000
4.866667	1	0.111250
4.883333	1	0.113625
4.900000	1	0.116750
4.916667	1	0.119750
4.933333	1	0.122875
4.950000	1	0.126375
4.966667	1	0.129875
4.983333	1	0.133750
5.000000	1	0.137625
5.016667	1	0.141250
5.033333	1	0.144375
5.050000	1	0.147625
5.066667	1	0.151375
5.083333	1	0.155000
5.100000	1	0.158125
5.116667	1	0.162250
5.133333	1	0.165750
5.150000	1	0.169125
5.166667	1	0.173500
5.183333	1	0.176750
5.200000	1	0.181000
5.216667	1	0.184375
5.233333	1	0.187875
5.250000	1	0.191500
5.266667	1	0.195375
5.283333	1	0.199500
5.300000	1	0.202750
5.316667	1	0.206375
5.333333	1	0.209500
5.350000	1	0.213875
5.366667	1	0.217875
5.383333	1	0.221000
5.400000	1	0.224000
5.416667	1	0.227250
5.433333	1	0.230750
5.450000	1	0.233625
5.466667	1	0.236125
5.483333	1	0.238750
5.500000	1	0.240875
5.516667	1	0.244000
5.533333	1	0.245750
5.550000	1	0.248000
5.566667	1	0.250250
5.583333	1	0.252875
5.600000	1	0.254500
5.616667	1	0.256250
5.633333	1	0.257875
5.650000	1	0.260250
5.666667	1	0.261750
5.683333	1	0.263375
5.700000	1	0.263875
5.716667	1	0.265000
5.733333	1	0.265875
5.750000	1	0.266625
5.766667	1	0.267250
5.783333	1	0.267625
5.800000	1	0.267875
5.816667	1	0.268375
5.833333	1	0.267750
5.850000	1	0.267750
5.866667	1	0.267875
5.883333	1	0.267125
5.900000	1	0.266500
5.916667	1	0.265125
5.933333	1	0.263750
5.950000	1	0.262000
5.966667	1	0.260500
5.983333	1	0.258500
6.000000	1	0.256500
6.016667	1	0.254125
6.033333	1	0.252125
6.050000	1	0.249500
6.066667	1	0.247125
6.083333	1	0.244250
6.100000	1	0.240750
6.116667	1	0.238000
6.133333	1	0.234875
6.150000	1	0.231625
6.166667	1	0.228625
6.183333	1	0.225750
6.200000	1	0.222250
6.216667	1	0.220000
6.233333	1	0.216875
6.250000	1	0.213625
6.266667	1	0.210750
6.283333	1	0.208250
6.300000	1	0.205250
6.316667	1	0.202875
6.333333	1	0.200250
6.350000	1	0.198250
6.366667	1	0.195875
6.383333	1	0.194125
6.400000	1	0.192500
6.416667	1	0.190750
6.433333	1	0.189625
6.450000	1	0.188750
6.466667	1	0.187375
6.483333	1	0.186750
6.500000	1	0.185625
6.516667	1	0.185375
6.533333	1	0.184875
6.550000	1	0.185250
6.566667	1	0.185000
6.583333	1	0.185125
6.600000	1	0.185625
6.616667	1	0.186375
6.633333	1	0.186625
6.650000	1	0.187125
6.666667	1	0.188375
6.683333	1	0.188875
6.700000	1	0.190000
6.716667	1	0.190625
6.733333	1	0.191125
6.750000	1	0.191375
6.766667	1	0.191375
6.783333	1	0.192125
6.800000	1	0.192250
6.816667	1	0.192375
6.833333	1	0.192250
6.850000	1	0.192500
6.866667	1	0.192750
6.883333	1	0.193125
6.900000	1	0.193125
6.916667	1	0.193125
6.933333	1	0.193125
6.950000	1	0.193625
6.966667	1	0.194000
6.983333	1	0.194750
7.000000	1	0.195000
7.016667	1	0.195500
7.033333	1	0.195250
7.050000	1	0.195750
7.066667	1	0.197125
7.083333	1	0.197000
7.100000	1	0.198000
7.116667	1	0.198750
7.133333	1	0.199500
7.150000	1	0.200250
7.166667	1	0.201625
7.183333	1	0.202875
7.200000	1	0.204750
7.216667	1	0.205875
7.233333	1	0.207750
7.250000	1	0.208875
7.266667	1	0.210500
7.283333	1	0.212000
7.300000	1	0.214000
7.316667	1	0.215625
7.333333	1	0.218000
7.350000	1	0.219875
7.366667	1	0.222250
7.383333	1	0.224875
7.400000	1	0.226875
7.416667	1	0.228250
7.433333	1	0.230500
7.450000	1	0.233000
7.466667	1	0.235500
7.483333	1	0.237750
7.500000	1	0.239750
7.516667	1	0.241375
7.533333	1	0.241875
7.550000	1	0.243375
7.566667	1	0.245000
7.583333	1	0.246250
7.600000	1	0.247750
7.616667	1	0.248375
7.633333	1	0.248250
7.650000	1	0.248750
7.666667	1	0.249000
7.683333	1	0.248625
7.700000	1	0.248500
7.716667	1	0.248500
7.733333	1	0.247500
7.750000	1	0.246625
7.766667	1	0.244625
7.783333	1	0.243125
7.800000	1	0.240625
7.816667	1	0.238000
7.833333	1	0.235500
7.850000	1	0.232875
7.866667	1	0.229625
7.883333	1	0.226375
7.900000	1	0.223250
7.916667	1	0.219750
7.933333	1	0.215750
7.950000	1	0.211875
7.966667	1	0.208375
7.983333	1	0.204000
8.000000	1	0.199500
8.016667	1	0.195125
8.033333	1	0.191000
8.050000	1	0.186625
8.066667	1	0.182500
8.083333	1	0.178500
8.100000	1	0.174750
8.116667	1	0.170375
8.133333	1	0.166375
8.150000	1	0.162000
8.166667	1	0.158500
8.183333	1	0.155500
8.200000	1	0.151750
8.216667	1	0.148250
8.233333	1	0.145000
8.250000	1	0.141500
8.266667	1	0.138250
8.283333	1	0.135000
8.300000	1	0.132125
8.316667	1	0.129500
8.333333	1	0.126500
8.350000	1	0.124000
8.366667	1	0.121250
8.383333	1	0.119375
8.400000	1	0.116375
8.416667	1	0.113750
8.433333	1	0.110875
8.450000	1	0.108625
8.466667	1	0.106875
8.483333	1	0.104125
8.500000	1	0.101625
8.516667	1	0.098750
8.533333	1	0.097250
8.550000	1	0.094875
8.566667	1	0.093250
8.583333	1	0.091375
8.600000	1	0.088500
8.616667	1	0.085875
8.633333	1	0.084000
8.650000	1	0.081750
8.666667	1	0.079375
8.683333	1	0.077750
8.700000	1	0.076375
8.716667	1	0.074750
8.733333	1	0.073250
8.750000	1	0.071375
8.766667	1	0.070500
8.783333	1	0.068875
8.800000	1	0.068125
8.816667	1	0.067625
8.833333	1	0.066750
8.850000	1	0.066375
8.866667	1	0.065875
8.883333	1	0.065125
8.900000	1	0.063875
8.916667	1	0.063875
8.933333	1	0.063750
8.950000	1	0.063500
8.966667	1	0.064125
8.983333	1	0.063750
9.000000	1	0.063375
9.016667	1	0.063500
9.033333	1	0.063750
9.050000	1	0.064000
9.066667	1	0.063625
9.083333	1	0.063875
9.100000	1	0.064250
9.116667	1	0.064875
9.133333	1	0.064625
9.150000	1	0.064625
9.166667	1	0.064750
9.183333	1	0.064875
9.200000	1	0.065250
9.216667	1	0.064875
9.233333	1	0.064875
9.250000	1	0.063500
9.266667	1	0.063250
9.283333	1	0.063125
9.300000	1	0.063250
9.316667	1	0.063375
9.333333	1	0.063625
9.350000	1	0.064000
9.366667	1	0.064000
9.383333	1	0.064125
9.400000	1	0.065125
9.416667	1	0.065125
9.433333	1	0.065750
9.450000	1	0.065875
9.466667	1	0.066500
9.483333	1	0.067375
9.500000	1	0.068625
9.516667	1	0.069250
9.533333	1	0.070750
9.550000	1	0.072250
9.566667	1	0.073500
9.583333	1	0.075625
9.600000	1	0.077875
9.616667	1	0.080000
9.633333	1	0.081750
9.650000	1	0.083625
9.666667	1	0.085625
9.683333	1	0.088500
9.700000	1	0.090875
9.716667	1	0.093000
9.733333	1	0.095500
9.750000	1	0.098375
9.766667	1	0.100750
9.783333	1	0.103375
9.800000	1	0.106250
9.816667	1	0.108500
9.833333	1	0.110500
9.850000	1	0.112375
9.866667	1	0.114625
9.883333	1	0.116000
9.900000	1	0.117750
9.916667	1	0.120250
9.933333	1	0.121250
9.950000	1	0.122000
9.966667	1	0.122375
9.983333	1	0.123000
10.000000	1	0.123625
10.016667	1	0.124500
10.033333	1	0.125750
10.050000	1	0.126375
10.066667	1	0.128250
10.083333	1	0.130250
10.100000	1	0.133000
10.116667	1	0.136125
10.133333	1	0.141000
10.150000	1	0.146000
10.166667	1	0.152875
10.183333	1	0.160000
10.200000	1	0.168875
10.216667	1	0.179250
10.233333	1	0.191500
10.250000	1	0.206000
10.266667	1	0.222250
10.283333	1	0.240750
10.300000	1	0.262000
10.316667	1	0.285875
10.333333	1	0.312500
10.350000	1	0.341500
10.366667	1	0.372750
10.383333	1	0.404000
10.400000	1	0.432000
10.416667	1	0.453000
10.433333	1	0.460875
10.450000	1	0.447625
10.466667	1	0.408625
10.483333	1	0.348250
10.500000	1	0.281875
10.516667	1	0.245375
10.533333	1	0.295750
10.550000	1	0.506750
10.566667	1	0.960625
10.583333	1	1.743000
10.600000	1	2.928375
10.616667	1	4.577875
10.633333	1	6.730750
10.650000	1	9.407750
10.666667	1	12.610875
10.683333	1	16.320625
10.700000	1	20.497250
10.716667	1	25.065875
10.733333	1	29.912750
10.750000	1	34.866500
10.766667	1	39.688375
10.783333	1	44.056125
10.800000	1	47.590375
10.816667	1	49.900000
10.833333	1	50.680375
10.850000	1	49.800750
10.866667	1	47.356125
10.883333	1	43.653625
10.900000	1	39.130250
10.916667	1	34.243625
10.933333	1	29.384750
10.950000	1	24.830375
10.966667	1	20.743750
10.983333	1	17.196875
11.000000	1	14.197875
11.016667	1	11.713625
11.033333	1	9.690875
11.050000	1	8.064125
11.066667	1	6.767250
11.083333	1	5.739125
11.100000	1	4.924375
11.116667	1	4.278750
11.133333	1	3.763750
11.150000	1	3.350625
11.166667	1	3.015875
11.183333	1	2.742750
11.200000	1	2.516250
11.216667	1	2.326875
11.233333	1	2.165875
11.250000	1	2.028875
11.266667	1	1.910500
11.283333	1	1.808000
11.300000	1	1.718750
11.316667	1	1.639750
11.333333	1	1.571125
11.350000	1	1.510125
11.366667	1	1.456250
11.383333	1	1.408875
11.400000	1	1.367625
11.416667	1	1.330875
11.433333	1	1.298250
11.450000	1	1.268750
11.466667	1	1.242750
11.483333	1	1.220750
11.500000	1	1.200250
11.516667	1	1.181125
11.533333	1	1.164875
11.550000	1	1.149500
11.566667	1	1.135750
11.583333	1	1.123500
11.600000	1	1.112750
11.616667	1	1.103000
11.633333	1	1.094125
11.650000	1	1.086625
11.666667	1	1.080250
11.683333	1	1.075625
11.700000	1	1.072125
11.716667	1	1.069750
11.733333	1	1.066750
11.750000	1	1.066000
11.766667	1	1.066125
11.783333	1	1.067375
11.800000	1	1.069375
11.816667	1	1.072250
11.833333	1	1.074875
11.850000	1	1.077625
11.866667	1	1.080375
11.883333	1	1.084000
11.900000	1	1.087125
11.916667	1	1.091875
11.933333	1	1.096500
11.950000	1	1.101500
11.966667	1	1.106125
11.983333	1	1.111750
12.000000	1	1.118000
12.016667	1	1.124375
12.033333	1	1.131625
12.050000	1	1.139125
12.066667	1	1.146875
12.083333	1	1.154625
12.100000	1	1.162750
12.116667	1	1.170125
12.133333	1	1.177625
12.150000	1	1.185500
12.166667	1	1.193875
12.183333	1	1.201750
12.200000	1	1.209375
12.216667	1	1.217375
12.233333	1	1.226250
12.250000	1	1.236500
12.266667	1	1.247875
12.283333	1	1.259875
12.300000	1	1.274375
12.316667	1	1.291250
12.333333	1	1.311500
12.350000	1	1.336250
12.366667	1	1.367875
12.383333	1	1.409250
12.400000	1	1.464500
12.416667	1	1.538250
12.433333	1	1.637375
12.450000	1	1.768750
12.466667	1	1.940125
12.483333	1	2.158750
12.500000	1	2.428375
12.516667	1	2.753125
12.533333	1	3.130250
12.550000	1	3.556000
12.566667	1	4.019500
12.583333	1	4.508750
12.600000	1	5.008250
12.616667	1	5.499375
12.633333	1	5.964500
12.650000	1	6.386000
12.666667	1	6.748250
12.683333	1	7.040500
12.700000	1	7.252500
12.716667	1	7.381750
12.733333	1	7.428000
12.750000	1	7.395875
12.766667	1	7.293750
12.783333	1	7.133375
12.800000	1	6.926250
12.816667	1	6.685125
12.833333	1	6.420875
12.850000	1	6.142250
12.866667	1	5.857000
12.883333	1	5.570750
12.900000	1	5.288250
12.916667	1	5.012875
12.933333	1	4.748125
12.950000	1	4.496375
12.966667	1	4.260375
12.983333	1	4.042500
13.000000	1	3.843125
13.016667	1	3.662250
13.033333	1	3.499750
13.050000	1	3.353250
13.066667	1	3.221750
13.083333	1	3.103625
13.100000	1	2.997750
13.116667	1	2.902125
13.133333	1	2.815000
13.150000	1	2.735625
13.166667	1	2.661875
13.183333	1	2.594500
13.200000	1	2.531625
13.216667	1	2.473375
13.233333	1	2.417500
13.250000	1	2.365250
13.266667	1	2.314500
13.283333	1	2.266500
13.300000	1	2.220375
13.316667	1	2.178000
13.333333	1	2.137375
13.350000	1	2.098625
13.366667	1	2.062625
13.383333	1	2.029125
13.400000	1	1.998500
13.416667	1	1.969875
13.433333	1	1.944750
13.450000	1	1.921500
13.466667	1	1.901625
13.483333	1	1.884750
13.500000	1	1.870500
13.516667	1	1.858250
13.533333	1	1.848750
13.550000	1	1.839750
13.566667	1	1.831125
13.583333	1	1.823250
13.600000	1	1.815625
13.616667	1	1.806750
13.633333	1	1.796375
13.650000	1	1.784500
13.666667	1	1.771000
13.683333	1	1.755250
13.700000	1	1.739000
13.716667	1	1.721000
13.733333	1	1.701750
13.750000	1	1.681500
13.766667	1	1.662125
13.783333	1	1.642375
13.800000	1	1.622875
13.816667	1	1.604500
13.833333	1	1.587000
13.850000	1	1.570125
13.866667	1	1.553750
13.883333	1	1.538375
13.900000	1	1.523750
13.916667	1	1.510000
13.933333	1	1.496375
13.950000	1	1.483500
13.966667	1	1.471125
13.983333	1	1.459875
14.000000	1	1.448875
14.016667	1	1.438000
14.033333	1	1.427500
14.050000	1	1.417750
14.066667	1	1.408250
14.083333	1	1.398125
14.100000	1	1.388125
14.116667	1	1.377625
14.133333	1	1.368375
14.150000	1	1.359625
14.166667	1	1.351250
14.183333	1	1.343375
14.200000	1	1.335000
14.216667	1	1.327375
14.233333	1	1.321000
14.250000	1	1.315250
14.266667	1	1.310875
14.283333	1	1.307375
14.300000	1	1.305750
14.316667	1	1.305250
14.333333	1	1.305875
14.350000	1	1.309000
14.366667	1	1.313625
14.383333	1	1.321625
14.400000	1	1.333625
14.416667	1	1.351125
14.433333	1	1.377750
14.450000	1	1.418500
14.466667	1	1.481375
14.483333	1	1.578625
14.500000	1	1.726250
14.516667	1	1.947500
14.533333	1	2.272125
14.550000	1	2.742250
14.566667	1	3.405375
14.583333	1	4.317875
14.600000	1	5.543250
14.616667	1	7.148250
14.633333	1	9.199000
14.650000	1	11.751250
14.666667	1	14.840000
14.683333	1	18.470500
14.700000	1	22.609875
14.716667	1	27.180250
14.733333	1	32.067375
14.750000	1	37.114250
14.766667	1	42.128500
14.783333	1	46.891375
14.800000	1	51.188375
14.816667	1	54.816250
14.833333	1	57.605000
14.850000	1	59.424625
14.866667	1	60.206000
14.883333	1	59.941000
14.900000	1	58.684625
14.916667	1	56.543500
14.933333	1	53.666875
14.950000	1	50.224125
14.966667	1	46.396750
14.983333	1	42.361125
15.000000	1	38.267000
15.016667	1	34.243125
15.033333	1	30.388375
15.050000	1	26.774875
15.066667	1	23.451375
15.083333	1	20.442750
15.100000	1	17.755250
15.116667	1	15.380625
15.133333	1	13.299875
15.150000	1	11.490000
15.166667	1	9.925500
15.183333	1	8.578875
15.200000	1	7.424875
15.216667	1	6.439250
15.233333	1	5.602000
15.250000	1	4.894500
15.266667	1	4.300500
15.283333	1	3.804250
15.300000	1	3.395000
15.316667	1	3.061000
15.333333	1	2.791625
15.350000	1	2.577625
15.366667	1	2.410375
15.383333	1	2.281750
15.400000	1	2.185250
15.416667	1	2.113875
15.433333	1	2.060500
15.450000	1	2.020375
15.466667	1	1.988375
15.483333	1	1.960750
15.500000	1	1.934500
15.516667	1	1.907000
15.533333	1	1.876625
15.550000	1	1.842000
15.566667	1	1.805000
15.583333	1	1.765500
15.600000	1	1.724250
15.616667	1	1.682875
15.633333	1	1.642000
15.650000	1	1.601500
15.666667	1	1.562875
15.683333	1	1.526750
15.700000	1	1.493750
15.716667	1	1.462625
15.733333	1	1.433750
15.750000	1	1.408500
15.766667	1	1.385125
15.783333	1	1.363875
15.800000	1	1.344250
15.816667	1	1.326625
15.833333	1	1.310875
15.850000	1	1.296250
15.866667	1	1.282625
15.883333	1	1.271000
15.900000	1	1.260625
15.916667	1	1.252000
15.933333	1	1.244375
15.950000	1	1.239125
15.966667	1	1.235500
15.983333	1	1.232625
16.000000	1	1.231125
16.016667	1	1.230500
16.033333	1	1.230750
16.050000	1	1.232125
16.066667	1	1.233375
16.083333	1	1.234375
16.100000	1	1.235875
16.116667	1	1.238500
16.133333	1	1.240000
16.150000	1	1.240250
16.166667	1	1.241250
16.183333	1	1.240375
16.200000	1	1.238500
16.216667	1	1.236375
16.233333	1	1.233500
16.250000	1	1.229250
16.266667	1	1.224625
16.283333	1	1.219750
16.300000	1	1.213625
16.316667	1	1.207375
16.333333	1	1.200500
16.350000	1	1.193750
16.366667	1	1.187500
16.383333	1	1.183250
16.400000	1	1.179000
16.416667	1	1.176500
16.433333	1	1.175000
16.450000	1	1.174625
16.466667	1	1.175250
16.483333	1	1.175875
16.500000	1	1.177250
16.516667	1	1.178500
16.533333	1	1.179250
16.550000	1	1.179375
16.566667	1	1.179250
16.583333	1	1.178750
16.600000	1	1.176250
16.616667	1	1.174000
16.633333	1	1.172125
16.650000	1	1.170125
16.666667	1	1.168125
16.683333	1	1.167125
16.700000	1	1.166500
16.716667	1	1.166875
16.733333	1	1.169750
16.750000	1	1.174375
16.766667	1	1.180375
16.783333	1	1.187625
16.800000	1	1.195375
16.816667	1	1.203750
16.833333	1	1.212000
16.850000	1	1.220250
16.866667	1	1.227000
16.883333	1	1.231625
16.900000	1	1.235625
16.916667	1	1.237875
16.933333	1	1.238000
16.950000	1	1.236250
16.966667	1	1.232875
16.983333	1	1.228250
17.000000	1	1.222625
17.016667	1	1.215000
17.033333	1	1.207875
17.050000	1	1.199750
17.066667	1	1.192000
17.083333	1	1.184125
17.100000	1	1.177250
17.116667	1	1.169625
17.133333	1	1.163500
17.150000	1	1.158250
17.166667	1	1.153375
17.183333	1	1.150000
17.200000	1	1.146250
17.216667	1	1.143625
17.233333	1	1.140500
17.250000	1	1.138750
17.266667	1	1.138375
17.283333	1	1.138250
17.300000	1	1.138625
17.316667	1	1.140500
17.333333	1	1.142000
17.350000	1	1.144375
17.366667	1	1.147375
17.383333	1	1.149375
17.400000	1	1.151250
17.416667	1	1.153000
17.433333	1	1.154000
17.450000	1	1.154000
17.466667	1	1.153125
17.483333	1	1.151125
17.500000	1	1.148125
17.516667	1	1.143750
17.533333	1	1.137250
17.550000	1	1.130500
17.566667	1	1.122875
17.583333	1	1.113875
17.600000	1	1.105125
17.616667	1	1.094625
17.633333	1	1.084500
17.650000	1	1.073500
17.666667	1	1.063250
17.683333	1	1.051875
17.700000	1	1.040750
17.716667	1	1.030750
17.733333	1	1.021000
17.750000	1	1.011125
17.766667	1	1.002750
17.783333	1	0.994000
17.800000	1	0.986250
17.816667	1	0.979750
17.833333	1	0.973750
17.850000	1	0.968375
17.866667	1	0.963625
17.883333	1	0.959750
17.900000	1	0.956125
17.916667	1	0.952375
17.933333	1	0.948750
17.950000	1	0.945000
17.966667	1	0.941500
17.983333	1	0.938625
18.000000	1	0.935125
18.016667	1	0.931375
18.033333	1	0.927750
18.050000	1	0.925250
18.066667	1	0.922000
18.083333	1	0.918750
18.100000	1	0.916250
18.116667	1	0.914250
18.133333	1	0.912375
18.150000	1	0.910750
18.166667	1	0.910375
18.183333	1	0.909750
18.200000	1	0.909875
18.216667	1	0.909625
18.233333	1	0.909625
18.250000	1	0.909875
18.266667	1	0.910125
18.283333	1	0.909750
18.300000	1	0.909250
18.316667	1	0.908875
18.333333	1	0.908375
18.350000	1	0.908500
18.366667	1	0.908750
18.383333	1	0.908750
18.400000	1	0.909000
18.416667	1	0.909500
18.433333	1	0.911875
18.450000	1	0.913750
18.466667	1	0.916875
18.483333	1	0.920500
18.500000	1	0.925250
18.516667	1	0.930375
18.533333	1	0.936750
18.550000	1	0.943500
18.566667	1	0.950875
18.583333	1	0.959625
18.600000	1	0.967875
18.616667	1	0.976375
18.633333	1	0.985375
18.650000	1	0.994500
18.666667	1	1.003375
18.683333	1	1.012500
18.700000	1	1.021000
18.716667	1	1.028875
18.733333	1	1.036625
18.750000	1	1.044500
18.766667	1	1.050625
18.783333	1	1.056750
18.800000	1	1.061250
18.816667	1	1.064250
18.833333	1	1.066250
18.850000	1	1.066625
18.866667	1	1.065250
18.883333	1	1.061750
18.900000	1	1.056875
18.916667	1	1.049500
18.933333	1	1.040000
18.950000	1	1.028500
18.966667	1	1.015500
18.983333	1	1.000375
19.000000	1	0.985125
19.016667	1	0.967875
19.033333	1	0.950750
19.050000	1	0.933750
19.066667	1	0.916625
19.083333	1	0.900500
19.100000	1	0.886000
19.116667	1	0.873625
19.133333	1	0.864000
19.150000	1	0.859375
19.166667	1	0.859375
19.183333	1	0.865250
19.200000	1	0.879000
19.216667	1	0.900500
19.233333	1	0.931250
19.250000	1	0.970500
19.266667	1	1.021250
19.283333	1	1.083375
19.300000	1	1.156125
19.316667	1	1.239375
19.333333	1	1.332000
19.350000	1	1.433375
19.366667	1	1.540750
19.383333	1	1.653875
19.400000	1	1.768500
19.416667	1	1.882000
19.433333	1	1.990250
19.450000	1	2.092625
19.466667	1	2.183875
19.483333	1	2.262000
19.500000	1	2.325375
19.516667	1	2.372000
19.533333	1	2.401250
19.550000	1	2.413250
19.566667	1	2.407625
19.583333	1	2.385625
19.600000	1	2.349000
19.616667	1	2.299750
19.633333	1	2.238500
19.650000	1	2.168375
19.666667	1	2.092125
19.683333	1	2.011500
19.700000	1	1.929375
19.716667	1	1.844625
19.733333	1	1.760250
19.750000	1	1.678000
19.766667	1	1.598125
19.783333	1	1.521000
19.800000	1	1.447625
19.816667	1	1.378750
19.833333	1	1.314500
19.850000	1	1.254375
19.866667	1	1.199750
19.883333	1	1.150750
19.900000	1	1.108125
19.916667	1	1.072375
19.933333	1	1.043250
19.950000	1	1.021750
19.966667	1	1.008875
19.983333	1	1.006125
20.000000	1	1.014375
20.016667	1	1.035125
20.033333	1	1.068250
20.050000	1	1.115125
20.066667	1	1.175250
20.083333	1	1.250750
20.100000	1	1.339125
20.116667	1	1.441625
20.133333	1	1.555625
20.150000	1	1.678625
20.166667	1	1.808750
20.183333	1	1.942250
20.200000	1	2.075125
20.216667	1	2.204125
20.233333	1	2.324000
20.250000	1	2.431125
20.266667	1	2.521375
20.283333	1	2.591750
20.300000	1	2.640875
20.316667	1	2.665750
20.333333	1	2.667250
20.350000	1	2.644750
20.366667	1	2.600375
20.383333	1	2.534875
20.400000	1	2.453750
20.416667	1	2.357250
20.433333	1	2.251375
20.450000	1	2.138250
20.466667	1	2.022750
20.483333	1	1.907500
20.500000	1	1.796125
20.516667	1	1.689500
20.533333	1	1.591625
20.550000	1	1.503875
20.566667	1	1.428250
20.583333	1	1.365625
20.600000	1	1.316125
20.616667	1	1.281625
20.633333	1	1.261500
20.650000	1	1.255625
20.666667	1	1.263375
20.683333	1	1.284500
20.700000	1	1.317000
20.716667	1	1.360875
20.733333	1	1.412875
20.750000	1	1.470875
20.766667	1	1.532750
20.783333	1	1.596375
20.800000	1	1.657500
20.816667	1	1.714000
20.833333	1	1.763625
20.850000	1	1.804125
20.866667	1	1.834250
20.883333	1	1.852000
20.900000	1	1.856000
20.916667	1	1.846625
20.933333	1	1.825375
20.950000	1	1.790500
20.966667	1	1.745875
20.983333	1	1.691500
21.000000	1	1.630000
21.016667	1	1.563250
21.033333	1	1.492500
21.050000	1	1.420250
21.066667	1	1.347000
21.083333	1	1.275125
21.100000	1	1.206250
21.116667	1	1.139625
21.133333	1	1.077375
21.150000	1	1.018625
21.166667	1	0.965375
21.183333	1	0.915625
21.200000	1	0.870750
21.216667	1	0.830125
21.233333	1	0.793250
21.250000	1	0.760375
21.266667	1	0.731750
21.283333	1	0.706250
21.300000	1	0.683375
21.316667	1	0.663750
21.333333	1	0.646625
21.350000	1	0.631875
21.366667	1	0.619000
21.383333	1	0.607500
21.400000	1	0.597625
21.416667	1	0.589625
21.433333	1	0.582625
21.450000	1	0.577375
21.466667	1	0.572750
21.483333	1	0.570250
21.500000	1	0.569000
21.516667	1	0.568750
21.533333	1	0.570250
21.550000	1	0.573250
21.566667	1	0.577500
21.583333	1	0.582625
21.600000	1	0.590625
21.616667	1	0.600375
21.633333	1	0.613375
21.650000	1	0.628000
21.666667	1	0.645625
21.683333	1	0.665750
21.700000	1	0.688250
21.716667	1	0.712250
21.733333	1	0.739250
21.750000	1	0.768375
21.766667	1	0.800000
21.783333	1	0.832500
21.800000	1	0.866125
21.816667	1	0.899125
21.833333	1	0.932625
21.850000	1	0.964750
21.866667	1	0.995000
21.883333	1	1.022750
21.900000	1	1.048375
21.916667	1	1.071125
21.933333	1	1.089500
21.950000	1	1.103625
21.966667	1	1.113000
21.983333	1	1.118625
22.000000	1	1.120250
22.016667	1	1.118625
22.033333	1	1.112625
22.050000	1	1.103000
22.066667	1	1.090125
22.083333	1	1.075375
22.100000	1	1.058375
22.116667	1	1.039625
22.133333	1	1.019875
22.150000	1	0.998375
22.166667	1	0.975750
22.183333	1	0.953375
22.200000	1	0.930000
22.216667	1	0.906500
22.233333	1	0.883000
22.250000	1	0.860125
22.266667	1	0.836500
22.283333	1	0.813750
22.300000	1	0.790625
22.316667	1	0.768750
22.333333	1	0.747250
22.350000	1	0.725875
22.366667	1	0.705500
22.383333	1	0.685500
22.400000	1	0.666750
22.416667	1	0.649000
22.433333	1	0.632125
22.450000	1	0.616000
22.466667	1	0.600875
22.483333	1	0.585750
22.500000	1	0.572750
22.516667	1	0.560375
22.533333	1	0.548500
22.550000	1	0.537750
22.566667	1	0.527625
22.583333	1	0.517875
22.600000	1	0.509125
22.616667	1	0.500250
22.633333	1	0.492125
22.650000	1	0.484375
22.666667	1	0.477000
22.683333	1	0.470375
22.700000	1	0.463750
22.716667	1	0.457625
22.733333	1	0.451750
22.750000	1	0.446375
22.766667	1	0.441250
22.783333	1	0.436250
22.800000	1	0.431375
22.816667	1	0.426500
22.833333	1	0.422375
22.850000	1	0.418625
22.866667	1	0.415500
22.883333	1	0.412625
22.900000	1	0.409625
22.916667	1	0.407750
22.933333	1	0.405750
22.950000	1	0.405250
22.966667	1	0.404875
22.983333	1	0.405000
23.000000	1	0.405375
23.016667	1	0.406125
23.033333	1	0.407250
23.050000	1	0.409250
23.066667	1	0.411875
23.083333	1	0.414625
23.100000	1	0.417625
23.116667	1	0.420750
23.133333	1	0.424500
23.150000	1	0.428625
23.166667	1	0.432000
23.183333	1	0.435500
23.200000	1	0.439625
23.216667	1	0.443875
23.233333	1	0.448625
23.250000	1	0.453500
23.266667	1	0.459125
23.283333	1	0.465000
23.300000	1	0.472500
23.316667	1	0.482125
23.333333	1	0.494750
23.350000	1	0.511000
23.366667	1	0.530750
23.383333	1	0.556000
23.400000	1	0.588250
23.416667	1	0.629000
23.433333	1	0.679250
23.450000	1	0.742250
23.466667	1	0.818500
23.483333	1	0.909500
23.500000	1	1.018375
23.516667	1	1.147375
23.533333	1	1.296125
23.550000	1	1.466875
23.566667	1	1.659625
23.583333	1	1.874500
23.600000	1	2.110250
23.616667	1	2.366250
23.633333	1	2.638500
23.650000	1	2.924000
23.666667	1	3.218875
23.683333	1	3.517875
23.700000	1	3.816250
23.716667	1	4.107375
23.733333	1	4.385625
23.750000	1	4.644250
23.766667	1	4.877625
23.783333	1	5.078750
23.800000	1	5.245625
23.816667	1	5.373500
23.833333	1	5.459500
23.850000	1	5.502625
23.866667	1	5.503625
23.883333	1	5.463375
23.900000	1	5.384125
23.916667	1	5.267250
23.933333	1	5.118500
23.950000	1	4.940125
23.966667	1	4.738875
23.983333	1	4.519625
24.000000	1	4.286625
24.016667	1	4.045250
24.033333	1	3.800250
24.050000	1	3.554750
24.066667	1	3.312875
24.083333	1	3.077500
24.100000	1	2.849750
24.116667	1	2.632250
24.133333	1	2.426500
24.150000	1	2.233375
24.166667	1	2.052500
24.183333	1	1.886125
24.200000	1	1.732250
24.216667	1	1.591750
24.233333	1	1.463500
24.250000	1	1.347000
24.266667	1	1.241750
24.283333	1	1.147250
24.300000	1	1.061875
24.316667	1	0.985625
24.333333	1	0.918250
24.350000	1	0.858500
24.366667	1	0.805625
24.383333	1	0.759625
24.400000	1	0.719250
24.416667	1	0.684000
24.433333	1	0.654000
24.450000	1	0.628125
24.466667	1	0.606125
24.483333	1	0.588000
24.500000	1	0.572375
24.516667	1	0.559250
24.533333	1	0.548750
24.550000	1	0.539250
24.566667	1	0.531000
24.583333	1	0.523625
24.600000	1	0.518000
24.616667	1	0.512375
24.633333	1	0.507125
24.650000	1	0.502500
24.666667	1	0.497625
24.683333	1	0.493250
24.700000	1	0.488750
24.716667	1	0.484125
24.733333	1	0.479375
24.750000	1	0.474750
24.766667	1	0.468750
24.783333	1	0.463625
24.800000	1	0.458125
24.816667	1	0.452750
24.833333	1	0.447125
24.850000	1	0.442750
24.866667	1	0.438125
24.883333	1	0.433375
24.900000	1	0.428375
24.916667	1	0.423375
24.933333	1	0.418500
24.950000	1	0.413875
24.966667	1	0.409125
24.983333	1	0.404750
25.000000	1	0.401250
25.016667	1	0.397125
25.033333	1	0.393000
25.050000	1	0.389375
25.066667	1	0.385750
25.083333	1	0.383375
25.100000	1	0.380750
25.116667	1	0.377625
25.133333	1	0.374250
25.150000	1	0.370750
25.166667	1	0.368250
25.183333	1	0.366625
25.200000	1	0.364375
25.216667	1	0.362000
25.233333	1	0.359875
25.250000	1	0.358250
25.266667	1	0.357000
25.283333	1	0.355500
25.300000	1	0.354125
25.316667	1	0.353250
25.333333	1	0.351500
25.350000	1	0.351000
25.366667	1	0.350125
25.383333	1	0.349000
25.400000	1	0.349125
25.416667	1	0.348125
25.433333	1	0.347875
25.450000	1	0.347875
25.466667	1	0.348000
25.483333	1	0.348375
25.500000	1	0.348625
25.516667	1	0.349500
25.533333	1	0.350375
25.550000	1	0.351125
25.566667	1	0.351375
25.583333	1	0.351000
25.600000	1	0.351125
25.616667	1	0.352000
25.633333	1	0.352500
25.650000	1	0.352750
25.666667	1	0.352750
25.683333	1	0.353500
25.700000	1	0.354375
25.716667	1	0.354375
25.733333	1	0.353750
25.750000	1	0.353000
25.766667	1	0.353000
25.783333	1	0.352750
25.800000	1	0.352750
25.816667	1	0.353000
25.833333	1	0.352500
25.850000	1	0.352250
25.866667	1	0.352000
25.883333	1	0.352500
25.900000	1	0.352250
25.916667	1	0.352750
25.933333	1	0.353125
25.950000	1	0.353375
25.966667	1	0.353875
25.983333	1	0.355000
26.000000	1	0.356375
26.016667	1	0.357625
26.033333	1	0.360125
26.050000	1	0.362250
26.066667	1	0.364500
26.083333	1	0.367125
26.100000	1	0.369375
26.116667	1	0.371875
26.133333	1	0.375125
26.150000	1	0.378250
26.166667	1	0.381250
26.183333	1	0.384125
26.200000	1	0.388625
26.216667	1	0.392875
26.233333	1	0.396000
26.250000	1	0.400250
26.266667	1	0.404125
26.283333	1	0.408375
26.300000	1	0.412125
26.316667	1	0.415625
26.333333	1	0.418750
26.350000	1	0.421750
26.366667	1	0.424625
26.383333	1	0.426625
26.400000	1	0.428625
26.416667	1	0.430125
26.433333	1	0.431000
26.450000	1	0.432000
26.466667	1	0.432125
26.483333	1	0.431875
26.500000	1	0.430750
26.516667	1	0.429250
26.533333	1	0.427625
26.550000	1	0.425875
26.566667	1	0.423125
26.583333	1	0.419625
26.600000	1	0.416125
26.616667	1	0.411750
26.633333	1	0.408125
26.650000	1	0.403625
26.666667	1	0.398625
26.683333	1	0.394125
26.700000	1	0.389625
26.716667	1	0.384500
26.733333	1	0.379125
26.750000	1	0.373750
26.766667	1	0.368250
26.783333	1	0.363000
26.800000	1	0.357625
26.816667	1	0.352875
26.833333	1	0.348125
26.850000	1	0.344000
26.866667	1	0.339750
26.883333	1	0.336000
26.900000	1	0.331750
26.916667	1	0.328500
26.933333	1	0.325375
26.950000	1	0.323000
26.966667	1	0.320875
26.983333	1	0.318500
27.000000	1	0.316000
27.016667	1	0.315375
27.033333	1	0.315125
27.050000	1	0.314750
27.066667	1	0.315000
27.083333	1	0.316750
27.100000	1	0.319000
27.116667	1	0.322250
27.133333	1	0.325625
27.150000	1	0.329250
27.166667	1	0.334250
27.183333	1	0.340250
27.200000	1	0.348125
27.216667	1	0.358000
27.233333	1	0.369875
27.250000	1	0.383500
27.266667	1	0.400750
27.283333	1	0.421000
27.300000	1	0.444750
27.316667	1	0.472500
27.333333	1	0.505750
27.350000	1	0.544375
27.366667	1	0.589750
27.383333	1	0.642500
27.400000	1	0.704000
27.416667	1	0.775000
27.433333	1	0.856000
27.450000	1	0.947875
27.466667	1	1.052625
27.483333	1	1.170375
27.500000	1	1.301500
27.516667	1	1.445625
27.533333	1	1.603500
27.550000	1	1.775125
27.566667	1	1.960125
27.583333	1	2.157625
27.600000	1	2.367125
27.616667	1	2.586625
27.633333	1	2.815250
27.650000	1	3.049875
27.666667	1	3.288875
27.683333	1	3.529625
27.700000	1	3.768000
27.716667	1	4.001625
27.733333	1	4.225375
27.750000	1	4.437125
27.766667	1	4.633625
27.783333	1	4.811250
27.800000	1	4.967125
27.816667	1	5.098750
27.833333	1	5.204000
27.850000	1	5.280875
27.866667	1	5.327875
27.883333	1	5.342750
27.900000	1	5.328125
27.916667	1	5.282625
27.933333	1	5.209500
27.950000	1	5.108875
27.966667	1	4.983000
27.983333	1	4.835250
28.000000	1	4.668250
28.016667	1	4.484500
28.033333	1	4.288250
28.050000	1	4.081625
28.066667	1	3.868000
28.083333	1	3.650375
28.100000	1	3.432375
28.116667	1	3.216000
28.133333	1	3.005125
28.150000	1	2.799625
28.166667	1	2.600875
28.183333	1	2.412625
28.200000	1	2.233250
28.216667	1	2.064750
28.233333	1	1.906625
28.250000	1	1.758375
28.266667	1	1.621125
28.283333	1	1.494375
28.300000	1	1.377625
28.316667	1	1.270500
28.333333	1	1.173250
28.350000	1	1.084625
28.366667	1	1.004000
28.383333	1	0.931375
28.400000	1	0.866000
28.416667	1	0.807125
28.433333	1	0.754500
28.450000	1	0.707250
28.466667	1	0.665625
28.483333	1	0.629000
28.500000	1	0.596375
28.516667	1	0.568375
28.533333	1	0.545125
28.550000	1	0.524625
28.566667	1	0.507375
28.583333	1	0.492375
28.600000	1	0.481875
28.616667	1	0.473375
28.633333	1	0.466375
28.650000	1	0.461000
28.666667	1	0.457625
28.683333	1	0.456125
28.700000	1	0.456000
28.716667	1	0.456250
28.733333	1	0.457875
28.750000	1	0.460625
28.766667	1	0.463250
28.783333	1	0.467250
28.800000	1	0.470500
28.816667	1	0.474250
28.833333	1	0.478375
28.850000	1	0.481875
28.866667	1	0.485750
28.883333	1	0.489375
28.900000	1	0.491375
28.916667	1	0.493875
28.933333	1	0.495000
28.950000	1	0.495625
28.966667	1	0.494750
28.983333	1	0.494250
29.000000	1	0.491500
29.016667	1	0.488750
29.033333	1	0.485000
29.050000	1	0.480250
29.066667	1	0.473000
29.083333	1	0.465125
29.100000	1	0.454875
29.116667	1	0.443750
29.133333	1	0.430375
29.150000	1	0.414875
29.166667	1	0.398625
29.183333	1	0.379750
29.200000	1	0.360000
29.216667	1	0.337375
29.233333	1	0.312625
29.250000	1	0.285625
29.266667	1	0.257125
29.283333	1	0.226375
29.300000	1	0.192875
29.316667	1	0.157500
29.333333	1	0.119750
29.350000	1	0.080625
29.366667	1	0.040375
29.383333	1	-0.002375
29.400000	1	-0.046625
29.416667	1	-0.091875
29.433333	1	-0.138375
29.450000	1	-0.186000
29.466667	1	-0.233500
29.483333	1	-0.282250
29.500000	1	-0.330625
29.516667	1	-0.378375
29.533333	1	-0.425000
29.550000	1	-0.469750
29.566667	1	-0.513250
29.583333	1	-0.555250
29.600000	1	-0.594125
29.616667	1	-0.630375
29.633333	1	-0.663375
29.650000	1	-0.693250
29.666667	1	-0.719375
29.683333	1	-0.740750
29.700000	1	-0.759750
29.716667	1	-0.774125
29.733333	1	-0.784250
29.750000	1	-0.789750
29.766667	1	-0.791250
29.783333	1	-0.789000
29.800000	1	-0.782000
29.816667	1	-0.770875
29.833333	1	-0.756625
29.850000	1	-0.738875
29.866667	1	-0.718250
29.883333	1	-0.694750
29.900000	1	-0.668750
29.916667	1	-0.640250
29.933333	1	-0.609750
29.950000	1	-0.577625
29.966667	1	-0.544500
29.983333	1	-0.510750
30.000000	1	-0.475875
30.016667	1	-0.440625
30.033333	1	-0.404625
30.050000	1	-0.369500
30.066667	1	-0.334750
30.083333	1	-0.300250
30.100000	1	-0.267125
30.116667	1	-0.234250
30.133333	1	-0.202500
30.150000	1	-0.171875
30.166667	1	-0.141875
30.183333	1	-0.113125
30.200000	1	-0.086375
30.216667	1	-0.061250
30.233333	1	-0.037000
30.250000	1	-0.013500
30.266667	1	0.007875
30.283333	1	0.027750
30.300000	1	0.046125
30.316667	1	0.064125
30.333333	1	0.079750
30.350000	1	0.094125
30.366667	1	0.107625
30.383333	1	0.120375
30.400000	1	0.131500
30.416667	1	0.141875
30.433333	1	0.151375
30.450000	1	0.160125
30.466667	1	0.167375
30.483333	1	0.175250
30.500000	1	0.181750
30.516667	1	0.188500
30.533333	1	0.194500
30.550000	1	0.199625
30.566667	1	0.205625
30.583333	1	0.210750
30.600000	1	0.215500
30.616667	1	0.220875
30.633333	1	0.226125
30.650000	1	0.230625
30.666667	1	0.235875
30.683333	1	0.241125
30.700000	1	0.246500
30.716667	1	0.252125
30.733333	1	0.258375
30.750000	1	0.264625
30.766667	1	0.272250
30.783333	1	0.279500
30.800000	1	0.287375
30.816667	1	0.295625
30.833333	1	0.304750
30.850000	1	0.314875
30.866667	1	0.324625
30.883333	1	0.336375
30.900000	1	0.349125
30.916667	1	0.362875
30.933333	1	0.378250
30.950000	1	0.395000
30.966667	1	0.413750
30.983333	1	0.435375
31.000000	1	0.460125
31.016667	1	0.488125
31.033333	1	0.519375
31.050000	1	0.554500
31.066667	1	0.595625
31.083333	1	0.640500
31.100000	1	0.691750
31.116667	1	0.750250
31.133333	1	0.814625
31.150000	1	0.886875
31.166667	1	0.967250
31.183333	1	1.056125
31.200000	1	1.154625
31.216667	1	1.261625
31.233333	1	1.378125
31.250000	1	1.503125
31.266667	1	1.637125
31.283333	1	1.779375
31.300000	1	1.929875
31.316667	1	2.087000
31.333333	1	2.248750
31.350000	1	2.414875
31.366667	1	2.584875
31.383333	1	2.755875
31.400000	1	2.927250
31.416667	1	3.096500
31.433333	1	3.261125
31.450000	1	3.419500
31.466667	1	3.569375
31.483333	1	3.709375
31.500000	1	3.837125
31.516667	1	3.951125
31.533333	1	4.050125
31.550000	1	4.133000
31.566667	1	4.199125
31.583333	1	4.247125
31.600000	1	4.276750
31.616667	1	4.288125
31.633333	1	4.280250
31.650000	1	4.254625
31.666667	1	4.212000
31.683333	1	4.152875
31.700000	1	4.078625
31.716667	1	3.990625
31.733333	1	3.890500
31.750000	1	3.779375
31.766667	1	3.659125
31.783333	1	3.530000
31.800000	1	3.394250
31.816667	1	3.253375
31.833333	1	3.108750
31.850000	1	2.963125
31.866667	1	2.816500
31.883333	1	2.670750
31.900000	1	2.526375
31.916667	1	2.385125
31.933333	1	2.246750
31.950000	1	2.112875
31.966667	1	1.983250
31.983333	1	1.858500
32.000000	1	1.738375
32.016667	1	1.623125
32.033333	1	1.514125
32.050000	1	1.410625
32.066667	1	1.312375
32.083333	1	1.219375
32.100000	1	1.132500
32.116667	1	1.050250
32.133333	1	0.972750
32.150000	1	0.900625
32.166667	1	0.833125
32.183333	1	0.770125
32.200000	1	0.711500
32.216667	1	0.656750
32.233333	1	0.605750
32.250000	1	0.557875
32.266667	1	0.514000
32.283333	1	0.473000
32.300000	1	0.434875
32.316667	1	0.400000
32.333333	1	0.368500
32.350000	1	0.339625
32.366667	1	0.311875
32.383333	1	0.287250
32.400000	1	0.264250
32.416667	1	0.243625
32.433333	1	0.223875
32.450000	1	0.206500
32.466667	1	0.190125
32.483333	1	0.175375
32.500000	1	0.161250
32.516667	1	0.149125
32.533333	1	0.138000
32.550000	1	0.128000
32.566667	1	0.118250
32.583333	1	0.109250
32.600000	1	0.101250
32.616667	1	0.093750
32.633333	1	0.087125
32.650000	1	0.080875
32.666667	1	0.074875
32.683333	1	0.069125
32.700000	1	0.063875
32.716667	1	0.059750
32.733333	1	0.056000
32.750000	1	0.052875
32.766667	1	0.049250
32.783333	1	0.046125
32.800000	1	0.042625
32.816667	1	0.040750
32.833333	1	0.038500
32.850000	1	0.036750
32.866667	1	0.035125
32.883333	1	0.033875
32.900000	1	0.032375
32.916667	1	0.031500
32.933333	1	0.030625
32.950000	1	0.029375
32.966667	1	0.029250
32.983333	1	0.029375
33.000000	1	0.029375
33.016667	1	0.030125
33.033333	1	0.030875
33.050000	1	0.030625
33.066667	1	0.031375
33.083333	1	0.032250
33.100000	1	0.033250
33.116667	1	0.034625
33.133333	1	0.036625
33.150000	1	0.039000
33.166667	1	0.041625
33.183333	1	0.043375
33.200000	1	0.045750
33.216667	1	0.048500
33.233333	1	0.051625
33.250000	1	0.054375
33.266667	1	0.057375
33.283333	1	0.060250
33.300000	1	0.062875
33.316667	1	0.066000
33.333333	1	0.069500
33.350000	1	0.072125
33.366667	1	0.075000
33.383333	1	0.077875
33.400000	1	0.080875
33.416667	1	0.083625
33.433333	1	0.086625
33.450000	1	0.088500
33.466667	1	0.090375
33.483333	1	0.093125
33.500000	1	0.095250
33.516667	1	0.097250
33.533333	1	0.099250
33.550000	1	0.101750
33.566667	1	0.103500
33.583333	1	0.104375
33.600000	1	0.105875
33.616667	1	0.107500
33.633333	1	0.108375
33.650000	1	0.109125
33.666667	1	0.110375
33.683333	1	0.111750
33.700000	1	0.113250
33.716667	1	0.114375
33.733333	1	0.115375
33.750000	1	0.116625
33.766667	1	0.117625
33.783333	1	0.119125
33.800000	1	0.120000
33.816667	1	0.120625
33.833333	1	0.121375
33.850000	1	0.122500
33.866667	1	0.123500
33.883333	1	0.124750
33.900000	1	0.125375
33.916667	1	0.126250
33.933333	1	0.127125
33.950000	1	0.128125
33.966667	1	0.129500
33.983333	1	0.130000
34.000000	1	0.130375
34.016667	1	0.131125
34.033333	1	0.131750
34.050000	1	0.131875
34.066667	1	0.131875
34.083333	1	0.131500
34.100000	1	0.130750
34.116667	1	0.130375
34.133333	1	0.129750
34.150000	1	0.128875
34.166667	1	0.128125
34.183333	1	0.127000
34.200000	1	0.126500
34.216667	1	0.125250
34.233333	1	0.123625
34.250000	1	0.122625
34.266667	1	0.121250
34.283333	1	0.119625
34.300000	1	0.117750
34.316667	1	0.116625
34.333333	1	0.115500
34.350000	1	0.113875
34.366667	1	0.112875
34.383333	1	0.110750
34.400000	1	0.109875
34.416667	1	0.108875
34.433333	1	0.108125
34.450000	1	0.106875
34.466667	1	0.106500
34.483333	1	0.106625
34.500000	1	0.106625
34.516667	1	0.107375
34.533333	1	0.107875
34.550000	1	0.109250
34.566667	1	0.110125
34.583333	1	0.111375
34.600000	1	0.112750
34.616667	1	0.113750
34.633333	1	0.115125
34.650000	1	0.117125
34.666667	1	0.118750
34.683333	1	0.120625
34.700000	1	0.123000
34.716667	1	0.125250
34.733333	1	0.127500
34.750000	1	0.130000
34.766667	1	0.132875
34.783333	1	0.134875
34.800000	1	0.137375
34.816667	1	0.140000
34.833333	1	0.142375
34.850000	1	0.144625
34.866667	1	0.147625
34.883333	1	0.150000
34.900000	1	0.152500
34.916667	1	0.155375
34.933333	1	0.158000
34.950000	1	0.160500
34.966667	1	0.162750
34.983333	1	0.165000
35.000000	1	0.167000
35.016667	1	0.168125
35.033333	1	0.169500
35.050000	1	0.170125
35.066667	1	0.171500
35.083333	1	0.173500
35.100000	1	0.173875
35.116667	1	0.174500
35.133333	1	0.175000
35.150000	1	0.175625
35.166667	1	0.176125
35.183333	1	0.177000
35.200000	1	0.176750
35.216667	1	0.176750
35.233333	1	0.176000
35.250000	1	0.175625
35.266667	1	0.175125
35.283333	1	0.175375
35.300000	1	0.174500
35.316667	1	0.174125
35.333333	1	0.173625
35.350000	1	0.173125
35.366667	1	0.173250
35.383333	1	0.173000
35.400000	1	0.172750
35.416667	1	0.172625
35.433333	1	0.173125
35.450000	1	0.173125
35.466667	1	0.172500
35.483333	1	0.172375
35.500000	1	0.171875
35.516667	1	0.172375
35.533333	1	0.173250
35.550000	1	0.173625
35.566667	1	0.174500
35.583333	1	0.174750
35.600000	1	0.174875
35.616667	1	0.174875
35.633333	1	0.175500
35.650000	1	0.175125
35.666667	1	0.175250
35.683333	1	0.175875
35.700000	1	0.176250
35.716667	1	0.176750
35.733333	1	0.176625
35.750000	1	0.176625
35.766667	1	0.176250
35.783333	1	0.176625
35.800000	1	0.177000
35.816667	1	0.177125
35.833333	1	0.176750
35.850000	1	0.176750
35.866667	1	0.176500
35.883333	1	0.177000
35.900000	1	0.176875
35.916667	1	0.176500
35.933333	1	0.176375
35.950000	1	0.176375
35.966667	1	0.175500
35.983333	1	0.175500
36.000000	1	0.175000
36.016667	1	0.174625
36.033333	1	0.174125
36.050000	1	0.173750
36.066667	1	0.173625
36.083333	1	0.173000
36.100000	1	0.172375
36.116667	1	0.171750
36.133333	1	0.171250
36.150000	1	0.170375
36.166667	1	0.170250
36.183333	1	0.169625
36.200000	1	0.168125
36.216667	1	0.167750
36.233333	1	0.167125
36.250000	1	0.166875
36.266667	1	0.166375
36.283333	1	0.165375
36.300000	1	0.164500
36.316667	1	0.163375
36.333333	1	0.162250
36.350000	1	0.161250
36.366667	1	0.160750
36.383333	1	0.159500
36.400000	1	0.158625
36.416667	1	0.157000
36.433333	1	0.155625
36.450000	1	0.154750
36.466667	1	0.153375
36.483333	1	0.152250
36.500000	1	0.151625
36.516667	1	0.150875
36.533333	1	0.150250
36.550000	1	0.148875
36.566667	1	0.147500
36.583333	1	0.146250
36.600000	1	0.145250
36.616667	1	0.144000
36.633333	1	0.143500
36.650000	1	0.142625
36.666667	1	0.142250
36.683333	1	0.141625
36.700000	1	0.141000
36.716667	1	0.140500
36.733333	1	0.140500
36.750000	1	0.139875
36.766667	1	0.139375
36.783333	1	0.139000
36.800000	1	0.138250
36.816667	1	0.138250
36.833333	1	0.138500
36.850000	1	0.138625
36.866667	1	0.138250
36.883333	1	0.138750
36.900000	1	0.138875
36.916667	1	0.138000
36.933333	1	0.137750
36.950000	1	0.137625
36.966667	1	0.136750
36.983333	1	0.135750
37.000000	1	0.135125
37.016667	1	0.134375
37.033333	1	0.133250
37.050000	1	0.131250
37.066667	1	0.129750
37.083333	1	0.128250
37.100000	1	0.126750
37.116667	1	0.124875
37.133333	1	0.122500
37.150000	1	0.120375
37.166667	1	0.117375
37.183333	1	0.115125
37.200000	1	0.112250
37.216667	1	0.109500
37.233333	1	0.105875
37.250000	1	0.102000
37.266667	1	0.099250
37.283333	1	0.096000
37.300000	1	0.092750
37.316667	1	0.089625
37.333333	1	0.086125
37.350000	1	0.082625
37.366667	1	0.078750
37.383333	1	0.075625
37.400000	1	0.071625
37.416667	1	0.068125
37.433333	1	0.064625
37.450000	1	0.061250
37.466667	1	0.057875
37.483333	1	0.055125
37.500000	1	0.052250
37.516667	1	0.049750
37.533333	1	0.046875
37.550000	1	0.044125
37.566667	1	0.042250
37.583333	1	0.039875
37.600000	1	0.038250
37.616667	1	0.036750
37.633333	1	0.035750
37.650000	1	0.034500
37.666667	1	0.033125
37.683333	1	0.032500
37.700000	1	0.032000
37.716667	1	0.031250
37.733333	1	0.031625
37.750000	1	0.031750
37.766667	1	0.032125
37.783333	1	0.032625
37.800000	1	0.032750
37.816667	1	0.033750
37.833333	1	0.034250
37.850000	1	0.035000
37.866667	1	0.036500
37.883333	1	0.037625
37.900000	1	0.038875
37.916667	1	0.039500
37.933333	1	0.040625
37.950000	1	0.041375
37.966667	1	0.042625
37.983333	1	0.043250
38.000000	1	0.043875
38.016667	1	0.043875
38.033333	1	0.044000
38.050000	1	0.044000
38.066667	1	0.043625
38.083333	1	0.044125
38.100000	1	0.043000
38.116667	1	0.043375
38.133333	1	0.043375
38.150000	1	0.043125
38.166667	1	0.042750
38.183333	1	0.042750
38.200000	1	0.041750
38.216667	1	0.041125
38.233333	1	0.040625
38.250000	1	0.040125
38.266667	1	0.039625
38.283333	1	0.039125
38.300000	1	0.038500
38.316667	1	0.037500
38.333333	1	0.037000
38.350000	1	0.036000
38.366667	1	0.035875
38.383333	1	0.035250
38.400000	1	0.035375
38.416667	1	0.035125
38.433333	1	0.034625
38.450000	1	0.034250
38.466667	1	0.033750
38.483333	1	0.033250
38.500000	1	0.033500
38.516667	1	0.033625
38.533333	1	0.034125
38.550000	1	0.034375
38.566667	1	0.034500
38.583333	1	0.034750
38.600000	1	0.035125
38.616667	1	0.034500
38.633333	1	0.034500
38.650000	1	0.035375
38.666667	1	0.036250
38.683333	1	0.036500
38.700000	1	0.037000
38.716667	1	0.038125
38.733333	1	0.038500
38.750000	1	0.039875
38.766667	1	0.041250
38.783333	1	0.042750
38.800000	1	0.043625
38.816667	1	0.044625
38.833333	1	0.046375
38.850000	1	0.048000
38.866667	1	0.049500
38.883333	1	0.051250
38.900000	1	0.052875
38.916667	1	0.054125
38.933333	1	0.055875
38.950000	1	0.057750
38.966667	1	0.059750
38.983333	1	0.061500
39.000000	1	0.063875
39.016667	1	0.065000
39.033333	1	0.066500
39.050000	1	0.067500
39.066667	1	0.068625
39.083333	1	0.068875
39.100000	1	0.069750
39.116667	1	0.070250
39.133333	1	0.070250
39.150000	1	0.069750
39.166667	1	0.069500
39.183333	1	0.068750
39.200000	1	0.067375
39.216667	1	0.066000
39.233333	1	0.063875
39.250000	1	0.061875
39.266667	1	0.059250
39.283333	1	0.056875
39.300000	1	0.054625
39.316667	1	0.052125
39.333333	1	0.049375
39.350000	1	0.047375
39.366667	1	0.044125
39.383333	1	0.041375
39.400000	1	0.038125
39.416667	1	0.035625
39.433333	1	0.032375
39.450000	1	0.029250
39.466667	1	0.026500
39.483333	1	0.023625
39.500000	1	0.020875
39.516667	1	0.018625
39.533333	1	0.017000
39.550000	1	0.015000
39.566667	1	0.012625
39.583333	1	0.010875
39.600000	1	0.008875
39.616667	1	0.008125
39.633333	1	0.006750
39.650000	1	0.006125
39.666667	1	0.005500
39.683333	1	0.005000
39.700000	1	0.004000
39.716667	1	0.003125
39.733333	1	0.003250
39.750000	1	0.003000
39.766667	1	0.003125
39.783333	1	0.003250
39.800000	1	0.003250
39.816667	1	0.003750
39.833333	1	0.004125
39.850000	1	0.005000
39.866667	1	0.006000
39.883333	1	0.006875
39.900000	1	0.008250
39.916667	1	0.008875
39.933333	1	0.009375
39.950000	1	0.009750
39.966667	1	0.009875
39.983333	1	0.010000
40.000000	1	0.010125
