URL	chrom://7040-86g6c92/XVault/Ultimate_3000/20/20240517_CMO_FP23_FP25_MarkusDeplate.seq/787.smp/RI_1.channel/RI_1.chm
Channel	RI_1

Injection Information:
Data Vault	XVault
Sequence	20240517_CMO_FP23_FP25_MarkusDeplate
Name	FP27_25_s6
Number	135
Position	BA1
Comment	
Processing Method	
Instrument Method	run_25B_method
Type	Unknown
Status	Finished
Inject Time	31.05.2024 15:18:44 +02:00
Volume (µl)	20.0000
Dilution Factor	1.0000
Weight	1.0000

Chromatogram Data Information:
Time Min. (min)	0.000000
Time Max. (min)	40.000000
Data Points	2401
Detector	RI
Generating Data System	Chromeleon 7.3.2.11814
Exporting Data System	Chromeleon 7.3.2.0
Operator	Instrument Controller
Signal Quantity	Refractive 
Signal Unit	µRIU
Signal Min.	-1.135250
Signal Max.	60.463625
Channel	RI_1
Driver Name	RID520Driver.dll
Channel Type	Evaluation
Min. Step (s)	1
Max. Step (s)	1
Average Step (s)	1

Signal Parameter Information:
Signal Info	

Chromatogram Data:
Time (min)	Step (s)	Value (µRIU)
0.000000	n.a.	-0.003125
0.016667	1	-0.002500
0.033333	1	-0.001000
0.050000	1	0.000000
0.066667	1	0.000750
0.083333	1	0.001500
0.100000	1	0.002125
0.116667	1	0.002625
0.133333	1	0.001875
0.150000	1	0.001875
0.166667	1	0.001375
0.183333	1	0.001000
0.200000	1	0.001000
0.216667	1	0.001000
0.233333	1	0.000500
0.250000	1	-0.000375
0.266667	1	-0.001250
0.283333	1	-0.002625
0.300000	1	-0.002375
0.316667	1	-0.003250
0.333333	1	-0.004250
0.350000	1	-0.005875
0.366667	1	-0.007250
0.383333	1	-0.008625
0.400000	1	-0.010375
0.416667	1	-0.011500
0.433333	1	-0.012250
0.450000	1	-0.013125
0.466667	1	-0.014500
0.483333	1	-0.015125
0.500000	1	-0.016250
0.516667	1	-0.017250
0.533333	1	-0.018000
0.550000	1	-0.018875
0.566667	1	-0.019500
0.583333	1	-0.020375
0.600000	1	-0.021250
0.616667	1	-0.021500
0.633333	1	-0.022250
0.650000	1	-0.022500
0.666667	1	-0.022000
0.683333	1	-0.021875
0.700000	1	-0.021500
0.716667	1	-0.021500
0.733333	1	-0.020750
0.750000	1	-0.020375
0.766667	1	-0.020125
0.783333	1	-0.019125
0.800000	1	-0.018750
0.816667	1	-0.017125
0.833333	1	-0.015875
0.850000	1	-0.014500
0.866667	1	-0.013000
0.883333	1	-0.011875
0.900000	1	-0.010750
0.916667	1	-0.009125
0.933333	1	-0.007250
0.950000	1	-0.006000
0.966667	1	-0.004750
0.983333	1	-0.003750
1.000000	1	-0.003375
1.016667	1	-0.002125
1.033333	1	-0.001375
1.050000	1	-0.000500
1.066667	1	0.000000
1.083333	1	0.000500
1.100000	1	0.000750
1.116667	1	0.000625
1.133333	1	0.001000
1.150000	1	0.001625
1.166667	1	0.001875
1.183333	1	0.002000
1.200000	1	0.002125
1.216667	1	0.002000
1.233333	1	0.002500
1.250000	1	0.002750
1.266667	1	0.003000
1.283333	1	0.002875
1.300000	1	0.002750
1.316667	1	0.002500
1.333333	1	0.002250
1.350000	1	0.002000
1.366667	1	0.002000
1.383333	1	0.001750
1.400000	1	0.001250
1.416667	1	0.001250
1.433333	1	0.001250
1.450000	1	0.001500
1.466667	1	0.001375
1.483333	1	0.001000
1.500000	1	0.001375
1.516667	1	0.001500
1.533333	1	0.001375
1.550000	1	0.000875
1.566667	1	0.001000
1.583333	1	0.000375
1.600000	1	0.000125
1.616667	1	-0.000250
1.633333	1	-0.000250
1.650000	1	0.000125
1.666667	1	0.000500
1.683333	1	0.000875
1.700000	1	0.000250
1.716667	1	0.000875
1.733333	1	0.000750
1.750000	1	0.001375
1.766667	1	0.001750
1.783333	1	0.001125
1.800000	1	0.001875
1.816667	1	0.002375
1.833333	1	0.002375
1.850000	1	0.003375
1.866667	1	0.004500
1.883333	1	0.005125
1.900000	1	0.005500
1.916667	1	0.005000
1.933333	1	0.005500
1.950000	1	0.006500
1.966667	1	0.006750
1.983333	1	0.006500
2.000000	1	0.006500
2.016667	1	0.006875
2.033333	1	0.007500
2.050000	1	0.007750
2.066667	1	0.008125
2.083333	1	0.008375
2.100000	1	0.008000
2.116667	1	0.007375
2.133333	1	0.006250
2.150000	1	0.005500
2.166667	1	0.004500
2.183333	1	0.003625
2.200000	1	0.002875
2.216667	1	0.002125
2.233333	1	0.000750
2.250000	1	-0.001125
2.266667	1	-0.002750
2.283333	1	-0.004500
2.300000	1	-0.006625
2.316667	1	-0.009250
2.333333	1	-0.011375
2.350000	1	-0.013125
2.366667	1	-0.015875
2.383333	1	-0.017875
2.400000	1	-0.019875
2.416667	1	-0.022125
2.433333	1	-0.024250
2.450000	1	-0.026125
2.466667	1	-0.028000
2.483333	1	-0.030000
2.500000	1	-0.031625
2.516667	1	-0.033875
2.533333	1	-0.035250
2.550000	1	-0.037125
2.566667	1	-0.038500
2.583333	1	-0.039875
2.600000	1	-0.040125
2.616667	1	-0.040875
2.633333	1	-0.041625
2.650000	1	-0.042500
2.666667	1	-0.042625
2.683333	1	-0.042500
2.700000	1	-0.042875
2.716667	1	-0.042625
2.733333	1	-0.042625
2.750000	1	-0.042750
2.766667	1	-0.042125
2.783333	1	-0.042000
2.800000	1	-0.041125
2.816667	1	-0.041375
2.833333	1	-0.040625
2.850000	1	-0.039875
2.866667	1	-0.038750
2.883333	1	-0.038375
2.900000	1	-0.038125
2.916667	1	-0.037125
2.933333	1	-0.037375
2.950000	1	-0.036125
2.966667	1	-0.036125
2.983333	1	-0.035750
3.000000	1	-0.036000
3.016667	1	-0.034875
3.033333	1	-0.034500
3.050000	1	-0.034000
3.066667	1	-0.034000
3.083333	1	-0.033500
3.100000	1	-0.033625
3.116667	1	-0.033625
3.133333	1	-0.033250
3.150000	1	-0.033000
3.166667	1	-0.032625
3.183333	1	-0.031875
3.200000	1	-0.031625
3.216667	1	-0.031125
3.233333	1	-0.030125
3.250000	1	-0.029125
3.266667	1	-0.028375
3.283333	1	-0.027250
3.300000	1	-0.026125
3.316667	1	-0.024875
3.333333	1	-0.023875
3.350000	1	-0.023125
3.366667	1	-0.021000
3.383333	1	-0.018875
3.400000	1	-0.016625
3.416667	1	-0.014500
3.433333	1	-0.012000
3.450000	1	-0.010125
3.466667	1	-0.008125
3.483333	1	-0.005750
3.500000	1	-0.003875
3.516667	1	-0.001250
3.533333	1	0.000500
3.550000	1	0.002750
3.566667	1	0.004875
3.583333	1	0.006625
3.600000	1	0.008375
3.616667	1	0.010625
3.633333	1	0.012375
3.650000	1	0.014125
3.666667	1	0.015375
3.683333	1	0.016500
3.700000	1	0.018250
3.716667	1	0.019000
3.733333	1	0.019625
3.750000	1	0.020250
3.766667	1	0.020125
3.783333	1	0.020375
3.800000	1	0.020625
3.816667	1	0.020875
3.833333	1	0.020750
3.850000	1	0.020375
3.866667	1	0.020250
3.883333	1	0.020375
3.900000	1	0.020250
3.916667	1	0.019500
3.933333	1	0.019125
3.950000	1	0.019000
3.966667	1	0.018125
3.983333	1	0.017625
4.000000	1	0.017625
4.016667	1	0.017125
4.033333	1	0.016500
4.050000	1	0.016375
4.066667	1	0.015625
4.083333	1	0.015250
4.100000	1	0.015250
4.116667	1	0.014250
4.133333	1	0.013750
4.150000	1	0.012750
4.166667	1	0.012375
4.183333	1	0.012000
4.200000	1	0.012000
4.216667	1	0.011500
4.233333	1	0.011250
4.250000	1	0.011625
4.266667	1	0.011375
4.283333	1	0.012000
4.300000	1	0.012250
4.316667	1	0.012750
4.333333	1	0.012250
4.350000	1	0.013250
4.366667	1	0.014250
4.383333	1	0.015125
4.400000	1	0.015250
4.416667	1	0.015750
4.433333	1	0.015875
4.450000	1	0.016000
4.466667	1	0.016375
4.483333	1	0.016500
4.500000	1	0.016250
4.516667	1	0.016500
4.533333	1	0.016750
4.550000	1	0.016750
4.566667	1	0.016625
4.583333	1	0.016625
4.600000	1	0.016500
4.616667	1	0.016500
4.633333	1	0.016875
4.650000	1	0.015625
4.666667	1	0.015375
4.683333	1	0.014875
4.700000	1	0.014750
4.716667	1	0.014500
4.733333	1	0.014125
4.750000	1	0.014125
4.766667	1	0.013750
4.783333	1	0.014125
4.800000	1	0.015000
4.816667	1	0.016000
4.833333	1	0.017250
4.850000	1	0.018125
4.866667	1	0.019875
4.883333	1	0.020750
4.900000	1	0.021625
4.916667	1	0.023250
4.933333	1	0.024875
4.950000	1	0.026750
4.966667	1	0.028500
4.983333	1	0.031500
5.000000	1	0.033375
5.016667	1	0.035500
5.033333	1	0.037875
5.050000	1	0.040875
5.066667	1	0.043875
5.083333	1	0.046500
5.100000	1	0.048750
5.116667	1	0.052500
5.133333	1	0.055625
5.150000	1	0.059250
5.166667	1	0.062375
5.183333	1	0.065375
5.200000	1	0.067875
5.216667	1	0.071750
5.233333	1	0.075375
5.250000	1	0.078625
5.266667	1	0.081625
5.283333	1	0.084875
5.300000	1	0.087625
5.316667	1	0.090625
5.333333	1	0.093750
5.350000	1	0.096250
5.366667	1	0.099500
5.383333	1	0.102500
5.400000	1	0.105500
5.416667	1	0.108250
5.433333	1	0.111375
5.450000	1	0.114125
5.466667	1	0.116250
5.483333	1	0.118500
5.500000	1	0.120375
5.516667	1	0.123500
5.533333	1	0.125875
5.550000	1	0.128125
5.566667	1	0.130500
5.583333	1	0.132375
5.600000	1	0.134625
5.616667	1	0.136625
5.633333	1	0.139125
5.650000	1	0.140875
5.666667	1	0.142875
5.683333	1	0.144875
5.700000	1	0.146125
5.716667	1	0.147125
5.733333	1	0.148000
5.750000	1	0.149250
5.766667	1	0.149625
5.783333	1	0.150250
5.800000	1	0.151000
5.816667	1	0.151500
5.833333	1	0.151750
5.850000	1	0.151375
5.866667	1	0.150000
5.883333	1	0.149250
5.900000	1	0.148250
5.916667	1	0.146500
5.933333	1	0.144500
5.950000	1	0.142375
5.966667	1	0.140750
5.983333	1	0.138000
6.000000	1	0.135125
6.016667	1	0.132250
6.033333	1	0.129375
6.050000	1	0.126625
6.066667	1	0.122875
6.083333	1	0.120125
6.100000	1	0.117125
6.116667	1	0.114375
6.133333	1	0.112125
6.150000	1	0.109375
6.166667	1	0.106625
6.183333	1	0.103375
6.200000	1	0.100250
6.216667	1	0.098375
6.233333	1	0.096250
6.250000	1	0.093500
6.266667	1	0.091125
6.283333	1	0.089750
6.300000	1	0.088125
6.316667	1	0.085750
6.333333	1	0.084375
6.350000	1	0.082625
6.366667	1	0.081500
6.383333	1	0.080125
6.400000	1	0.079125
6.416667	1	0.078000
6.433333	1	0.076875
6.450000	1	0.076000
6.466667	1	0.075125
6.483333	1	0.074625
6.500000	1	0.074000
6.516667	1	0.073250
6.533333	1	0.072250
6.550000	1	0.070875
6.566667	1	0.070125
6.583333	1	0.069000
6.600000	1	0.067625
6.616667	1	0.066625
6.633333	1	0.066000
6.650000	1	0.065125
6.666667	1	0.064000
6.683333	1	0.062875
6.700000	1	0.062125
6.716667	1	0.060625
6.733333	1	0.060250
6.750000	1	0.059500
6.766667	1	0.059750
6.783333	1	0.059250
6.800000	1	0.059125
6.816667	1	0.058500
6.833333	1	0.058000
6.850000	1	0.058000
6.866667	1	0.057625
6.883333	1	0.057625
6.900000	1	0.058625
6.916667	1	0.059250
6.933333	1	0.060000
6.950000	1	0.060375
6.966667	1	0.061875
6.983333	1	0.063500
7.000000	1	0.065250
7.016667	1	0.067125
7.033333	1	0.069000
7.050000	1	0.070875
7.066667	1	0.073625
7.083333	1	0.076500
7.100000	1	0.079250
7.116667	1	0.082000
7.133333	1	0.086250
7.150000	1	0.089500
7.166667	1	0.093750
7.183333	1	0.097625
7.200000	1	0.102000
7.216667	1	0.106625
7.233333	1	0.110750
7.250000	1	0.115125
7.266667	1	0.119375
7.283333	1	0.123875
7.300000	1	0.128250
7.316667	1	0.132500
7.333333	1	0.136750
7.350000	1	0.140750
7.366667	1	0.144750
7.383333	1	0.148125
7.400000	1	0.151750
7.416667	1	0.155250
7.433333	1	0.158500
7.450000	1	0.161125
7.466667	1	0.163500
7.483333	1	0.165250
7.500000	1	0.167375
7.516667	1	0.168750
7.533333	1	0.169875
7.550000	1	0.171250
7.566667	1	0.171875
7.583333	1	0.172875
7.600000	1	0.173250
7.616667	1	0.172500
7.633333	1	0.171625
7.650000	1	0.170750
7.666667	1	0.169500
7.683333	1	0.168000
7.700000	1	0.166375
7.716667	1	0.164500
7.733333	1	0.162750
7.750000	1	0.161000
7.766667	1	0.159250
7.783333	1	0.157125
7.800000	1	0.154500
7.816667	1	0.151875
7.833333	1	0.149250
7.850000	1	0.147750
7.866667	1	0.145125
7.883333	1	0.142500
7.900000	1	0.139500
7.916667	1	0.137375
7.933333	1	0.134250
7.950000	1	0.132000
7.966667	1	0.128875
7.983333	1	0.126375
8.000000	1	0.123500
8.016667	1	0.120125
8.033333	1	0.117250
8.050000	1	0.114625
8.066667	1	0.111500
8.083333	1	0.108375
8.100000	1	0.104750
8.116667	1	0.101875
8.133333	1	0.099125
8.150000	1	0.094875
8.166667	1	0.092250
8.183333	1	0.089125
8.200000	1	0.085000
8.216667	1	0.081750
8.233333	1	0.078500
8.250000	1	0.075375
8.266667	1	0.072250
8.283333	1	0.068250
8.300000	1	0.064875
8.316667	1	0.061375
8.333333	1	0.058250
8.350000	1	0.054875
8.366667	1	0.052000
8.383333	1	0.048625
8.400000	1	0.046125
8.416667	1	0.043875
8.433333	1	0.042000
8.450000	1	0.040500
8.466667	1	0.038375
8.483333	1	0.036500
8.500000	1	0.035500
8.516667	1	0.034750
8.533333	1	0.034375
8.550000	1	0.033750
8.566667	1	0.033375
8.583333	1	0.033500
8.600000	1	0.034000
8.616667	1	0.034750
8.633333	1	0.035250
8.650000	1	0.036750
8.666667	1	0.037625
8.683333	1	0.039125
8.700000	1	0.040625
8.716667	1	0.042875
8.733333	1	0.045500
8.750000	1	0.048250
8.766667	1	0.049750
8.783333	1	0.052250
8.800000	1	0.054250
8.816667	1	0.056125
8.833333	1	0.057750
8.850000	1	0.059250
8.866667	1	0.061125
8.883333	1	0.062875
8.900000	1	0.064500
8.916667	1	0.066375
8.933333	1	0.068875
8.950000	1	0.071125
8.966667	1	0.072500
8.983333	1	0.073750
9.000000	1	0.074750
9.016667	1	0.075375
9.033333	1	0.076500
9.050000	1	0.077250
9.066667	1	0.077875
9.083333	1	0.078875
9.100000	1	0.079625
9.116667	1	0.080750
9.133333	1	0.080875
9.150000	1	0.082000
9.166667	1	0.082375
9.183333	1	0.083250
9.200000	1	0.083500
9.216667	1	0.083625
9.233333	1	0.083375
9.250000	1	0.083125
9.266667	1	0.083125
9.283333	1	0.083000
9.300000	1	0.082250
9.316667	1	0.081625
9.333333	1	0.080625
9.350000	1	0.080000
9.366667	1	0.078375
9.383333	1	0.076750
9.400000	1	0.075750
9.416667	1	0.074750
9.433333	1	0.073375
9.450000	1	0.071750
9.466667	1	0.070625
9.483333	1	0.068625
9.500000	1	0.067250
9.516667	1	0.066000
9.533333	1	0.064625
9.550000	1	0.063625
9.566667	1	0.062250
9.583333	1	0.061000
9.600000	1	0.060125
9.616667	1	0.059125
9.633333	1	0.058375
9.650000	1	0.057875
9.666667	1	0.057750
9.683333	1	0.056625
9.700000	1	0.056750
9.716667	1	0.056375
9.733333	1	0.057250
9.750000	1	0.057750
9.766667	1	0.058375
9.783333	1	0.059250
9.800000	1	0.059875
9.816667	1	0.060375
9.833333	1	0.061500
9.850000	1	0.062625
9.866667	1	0.063875
9.883333	1	0.065250
9.900000	1	0.066500
9.916667	1	0.067125
9.933333	1	0.067750
9.950000	1	0.069625
9.966667	1	0.071875
9.983333	1	0.073750
10.000000	1	0.076125
10.016667	1	0.078750
10.033333	1	0.081375
10.050000	1	0.084375
10.066667	1	0.088625
10.083333	1	0.093500
10.100000	1	0.098250
10.116667	1	0.104375
10.133333	1	0.110250
10.150000	1	0.117625
10.166667	1	0.126000
10.183333	1	0.135000
10.200000	1	0.145375
10.216667	1	0.157000
10.233333	1	0.170500
10.250000	1	0.185625
10.266667	1	0.202875
10.283333	1	0.222750
10.300000	1	0.244875
10.316667	1	0.269750
10.333333	1	0.296250
10.350000	1	0.324125
10.366667	1	0.351125
10.383333	1	0.375750
10.400000	1	0.397250
10.416667	1	0.412625
10.433333	1	0.423250
10.450000	1	0.431500
10.466667	1	0.443625
10.483333	1	0.471500
10.500000	1	0.535875
10.516667	1	0.668250
10.533333	1	0.911000
10.550000	1	1.318625
10.566667	1	1.951250
10.583333	1	2.870875
10.600000	1	4.135500
10.616667	1	5.790750
10.633333	1	7.870000
10.650000	1	10.382000
10.666667	1	13.326875
10.683333	1	16.684250
10.700000	1	20.416500
10.716667	1	24.460750
10.733333	1	28.726125
10.750000	1	33.087250
10.766667	1	37.369750
10.783333	1	41.348375
10.800000	1	44.741000
10.816667	1	47.236125
10.833333	1	48.532250
10.850000	1	48.416250
10.866667	1	46.825875
10.883333	1	43.891875
10.900000	1	39.924375
10.916667	1	35.337500
10.933333	1	30.554375
10.950000	1	25.924875
10.966667	1	21.687500
10.983333	1	17.964500
11.000000	1	14.796500
11.016667	1	12.164375
11.033333	1	10.018875
11.050000	1	8.295500
11.066667	1	6.925375
11.083333	1	5.842875
11.100000	1	4.991375
11.116667	1	4.320375
11.133333	1	3.790875
11.150000	1	3.369125
11.166667	1	3.031375
11.183333	1	2.757250
11.200000	1	2.532500
11.216667	1	2.345500
11.233333	1	2.188500
11.250000	1	2.055000
11.266667	1	1.939250
11.283333	1	1.838375
11.300000	1	1.749500
11.316667	1	1.671625
11.333333	1	1.602500
11.350000	1	1.541250
11.366667	1	1.486625
11.383333	1	1.438250
11.400000	1	1.395000
11.416667	1	1.357875
11.433333	1	1.324000
11.450000	1	1.295000
11.466667	1	1.268875
11.483333	1	1.246125
11.500000	1	1.225375
11.516667	1	1.207250
11.533333	1	1.191125
11.550000	1	1.176625
11.566667	1	1.164125
11.583333	1	1.152750
11.600000	1	1.143875
11.616667	1	1.136250
11.633333	1	1.129750
11.650000	1	1.124375
11.666667	1	1.120625
11.683333	1	1.117875
11.700000	1	1.117000
11.716667	1	1.117250
11.733333	1	1.117875
11.750000	1	1.120375
11.766667	1	1.124000
11.783333	1	1.128000
11.800000	1	1.132625
11.816667	1	1.136250
11.833333	1	1.141625
11.850000	1	1.147125
11.866667	1	1.152500
11.883333	1	1.157625
11.900000	1	1.162125
11.916667	1	1.166375
11.933333	1	1.170250
11.950000	1	1.174125
11.966667	1	1.177625
11.983333	1	1.182125
12.000000	1	1.186000
12.016667	1	1.189750
12.033333	1	1.195000
12.050000	1	1.201000
12.066667	1	1.207250
12.083333	1	1.213750
12.100000	1	1.220375
12.116667	1	1.227250
12.133333	1	1.233875
12.150000	1	1.242000
12.166667	1	1.250500
12.183333	1	1.259625
12.200000	1	1.269125
12.216667	1	1.280250
12.233333	1	1.291875
12.250000	1	1.305250
12.266667	1	1.320375
12.283333	1	1.338625
12.300000	1	1.359500
12.316667	1	1.385000
12.333333	1	1.415375
12.350000	1	1.450875
12.366667	1	1.491750
12.383333	1	1.542250
12.400000	1	1.601500
12.416667	1	1.671000
12.433333	1	1.754625
12.450000	1	1.853125
12.466667	1	1.968750
12.483333	1	2.103000
12.500000	1	2.257375
12.516667	1	2.432375
12.533333	1	2.628500
12.550000	1	2.844750
12.566667	1	3.079500
12.583333	1	3.330625
12.600000	1	3.595250
12.616667	1	3.868375
12.633333	1	4.145250
12.650000	1	4.419750
12.666667	1	4.684125
12.683333	1	4.929875
12.700000	1	5.149125
12.716667	1	5.333000
12.733333	1	5.474750
12.750000	1	5.570125
12.766667	1	5.617250
12.783333	1	5.617125
12.800000	1	5.570625
12.816667	1	5.481750
12.833333	1	5.355375
12.850000	1	5.196750
12.866667	1	5.011500
12.883333	1	4.807250
12.900000	1	4.589625
12.916667	1	4.366875
12.933333	1	4.145875
12.950000	1	3.931625
12.966667	1	3.728625
12.983333	1	3.540125
13.000000	1	3.367875
13.016667	1	3.212500
13.033333	1	3.073750
13.050000	1	2.950500
13.066667	1	2.841250
13.083333	1	2.744625
13.100000	1	2.658750
13.116667	1	2.581625
13.133333	1	2.512875
13.150000	1	2.450875
13.166667	1	2.394250
13.183333	1	2.341500
13.200000	1	2.293250
13.216667	1	2.247500
13.233333	1	2.204750
13.250000	1	2.163625
13.266667	1	2.124500
13.283333	1	2.086125
13.300000	1	2.049875
13.316667	1	2.015375
13.333333	1	1.982000
13.350000	1	1.950000
13.366667	1	1.920250
13.383333	1	1.893000
13.400000	1	1.867000
13.416667	1	1.844250
13.433333	1	1.823375
13.450000	1	1.805000
13.466667	1	1.789500
13.483333	1	1.775750
13.500000	1	1.763875
13.516667	1	1.755750
13.533333	1	1.748125
13.550000	1	1.742000
13.566667	1	1.737500
13.583333	1	1.733500
13.600000	1	1.728875
13.616667	1	1.724250
13.633333	1	1.717625
13.650000	1	1.710375
13.666667	1	1.701000
13.683333	1	1.689875
13.700000	1	1.676625
13.716667	1	1.661625
13.733333	1	1.645375
13.750000	1	1.627750
13.766667	1	1.609250
13.783333	1	1.591375
13.800000	1	1.573500
13.816667	1	1.555500
13.833333	1	1.538250
13.850000	1	1.521250
13.866667	1	1.505250
13.883333	1	1.489500
13.900000	1	1.474500
13.916667	1	1.460375
13.933333	1	1.447125
13.950000	1	1.435250
13.966667	1	1.423125
13.983333	1	1.412625
14.000000	1	1.401625
14.016667	1	1.391500
14.033333	1	1.381625
14.050000	1	1.372250
14.066667	1	1.363875
14.083333	1	1.355750
14.100000	1	1.347625
14.116667	1	1.340500
14.133333	1	1.333750
14.150000	1	1.326875
14.166667	1	1.319875
14.183333	1	1.314500
14.200000	1	1.309625
14.216667	1	1.306000
14.233333	1	1.303250
14.250000	1	1.301750
14.266667	1	1.301750
14.283333	1	1.304500
14.300000	1	1.308625
14.316667	1	1.316000
14.333333	1	1.326750
14.350000	1	1.342500
14.366667	1	1.364250
14.383333	1	1.393250
14.400000	1	1.431500
14.416667	1	1.482125
14.433333	1	1.549875
14.450000	1	1.639625
14.466667	1	1.759375
14.483333	1	1.919000
14.500000	1	2.134750
14.516667	1	2.423125
14.533333	1	2.808375
14.550000	1	3.321125
14.566667	1	3.999250
14.583333	1	4.884125
14.600000	1	6.025000
14.616667	1	7.475625
14.633333	1	9.292000
14.650000	1	11.525250
14.666667	1	14.212875
14.683333	1	17.376625
14.700000	1	21.011250
14.716667	1	25.077500
14.733333	1	29.505250
14.750000	1	34.185375
14.766667	1	38.974875
14.783333	1	43.695625
14.800000	1	48.160250
14.816667	1	52.175625
14.833333	1	55.557000
14.850000	1	58.141125
14.866667	1	59.801625
14.883333	1	60.463625
14.900000	1	60.107125
14.916667	1	58.772125
14.933333	1	56.550500
14.950000	1	53.573250
14.966667	1	50.004125
14.983333	1	46.025250
15.000000	1	41.810125
15.016667	1	37.520000
15.033333	1	33.293625
15.050000	1	29.245000
15.066667	1	25.461500
15.083333	1	21.999625
15.100000	1	18.891500
15.116667	1	16.147000
15.133333	1	13.758000
15.150000	1	11.702250
15.166667	1	9.952125
15.183333	1	8.475000
15.200000	1	7.236875
15.216667	1	6.205250
15.233333	1	5.350250
15.250000	1	4.645500
15.266667	1	4.067375
15.283333	1	3.597625
15.300000	1	3.218000
15.316667	1	2.913750
15.333333	1	2.673375
15.350000	1	2.485500
15.366667	1	2.342250
15.383333	1	2.234875
15.400000	1	2.156375
15.416667	1	2.102000
15.433333	1	2.064375
15.450000	1	2.040250
15.466667	1	2.022500
15.483333	1	2.009500
15.500000	1	1.996500
15.516667	1	1.981875
15.533333	1	1.963000
15.550000	1	1.939250
15.566667	1	1.909750
15.583333	1	1.875375
15.600000	1	1.837000
15.616667	1	1.795125
15.633333	1	1.751000
15.650000	1	1.706125
15.666667	1	1.661750
15.683333	1	1.618875
15.700000	1	1.577375
15.716667	1	1.538500
15.733333	1	1.502250
15.750000	1	1.468375
15.766667	1	1.437375
15.783333	1	1.409000
15.800000	1	1.382375
15.816667	1	1.357750
15.833333	1	1.335000
15.850000	1	1.313625
15.866667	1	1.294000
15.883333	1	1.276375
15.900000	1	1.260000
15.916667	1	1.245000
15.933333	1	1.231875
15.950000	1	1.220750
15.966667	1	1.210875
15.983333	1	1.202875
16.000000	1	1.197500
16.016667	1	1.194000
16.033333	1	1.191750
16.050000	1	1.190125
16.066667	1	1.189375
16.083333	1	1.189250
16.100000	1	1.190000
16.116667	1	1.191125
16.133333	1	1.192625
16.150000	1	1.194625
16.166667	1	1.195375
16.183333	1	1.195625
16.200000	1	1.196250
16.216667	1	1.195750
16.233333	1	1.194250
16.250000	1	1.191750
16.266667	1	1.188250
16.283333	1	1.184625
16.300000	1	1.180250
16.316667	1	1.174750
16.333333	1	1.170500
16.350000	1	1.166750
16.366667	1	1.163125
16.383333	1	1.159500
16.400000	1	1.157125
16.416667	1	1.156000
16.433333	1	1.156500
16.450000	1	1.157000
16.466667	1	1.159875
16.483333	1	1.163375
16.500000	1	1.166750
16.516667	1	1.170375
16.533333	1	1.174625
16.550000	1	1.178000
16.566667	1	1.181000
16.583333	1	1.182375
16.600000	1	1.182875
16.616667	1	1.182500
16.633333	1	1.181125
16.650000	1	1.179375
16.666667	1	1.177000
16.683333	1	1.173875
16.700000	1	1.170750
16.716667	1	1.169000
16.733333	1	1.168250
16.750000	1	1.168500
16.766667	1	1.170625
16.783333	1	1.174500
16.800000	1	1.178750
16.816667	1	1.184875
16.833333	1	1.192000
16.850000	1	1.199750
16.866667	1	1.207000
16.883333	1	1.214375
16.900000	1	1.220125
16.916667	1	1.224875
16.933333	1	1.228250
16.950000	1	1.230000
16.966667	1	1.230000
16.983333	1	1.229000
17.000000	1	1.226875
17.016667	1	1.223375
17.033333	1	1.218250
17.050000	1	1.213250
17.066667	1	1.207250
17.083333	1	1.202250
17.100000	1	1.196750
17.116667	1	1.191500
17.133333	1	1.187375
17.150000	1	1.183750
17.166667	1	1.181500
17.183333	1	1.179750
17.200000	1	1.178375
17.216667	1	1.177375
17.233333	1	1.177875
17.250000	1	1.178750
17.266667	1	1.180250
17.283333	1	1.182500
17.300000	1	1.185625
17.316667	1	1.188000
17.333333	1	1.190750
17.350000	1	1.194250
17.366667	1	1.198375
17.383333	1	1.202000
17.400000	1	1.204875
17.416667	1	1.206750
17.433333	1	1.207500
17.450000	1	1.208125
17.466667	1	1.207750
17.483333	1	1.205750
17.500000	1	1.202125
17.516667	1	1.197750
17.533333	1	1.191500
17.550000	1	1.184500
17.566667	1	1.175750
17.583333	1	1.165375
17.600000	1	1.153875
17.616667	1	1.142250
17.633333	1	1.128875
17.650000	1	1.115375
17.666667	1	1.101625
17.683333	1	1.087125
17.700000	1	1.073125
17.716667	1	1.058500
17.733333	1	1.045000
17.750000	1	1.032125
17.766667	1	1.019875
17.783333	1	1.008375
17.800000	1	0.997500
17.816667	1	0.986875
17.833333	1	0.977750
17.850000	1	0.969125
17.866667	1	0.962125
17.883333	1	0.955750
17.900000	1	0.949750
17.916667	1	0.944375
17.933333	1	0.939875
17.950000	1	0.936125
17.966667	1	0.931625
17.983333	1	0.927250
18.000000	1	0.922875
18.016667	1	0.919125
18.033333	1	0.914625
18.050000	1	0.910375
18.066667	1	0.906250
18.083333	1	0.901500
18.100000	1	0.897625
18.116667	1	0.893250
18.133333	1	0.889125
18.150000	1	0.885875
18.166667	1	0.883625
18.183333	1	0.881875
18.200000	1	0.879625
18.216667	1	0.878375
18.233333	1	0.876750
18.250000	1	0.876500
18.266667	1	0.875875
18.283333	1	0.876375
18.300000	1	0.876375
18.316667	1	0.876625
18.333333	1	0.877500
18.350000	1	0.878500
18.366667	1	0.880750
18.383333	1	0.882625
18.400000	1	0.886375
18.416667	1	0.890750
18.433333	1	0.895750
18.450000	1	0.902375
18.466667	1	0.911125
18.483333	1	0.921500
18.500000	1	0.933375
18.516667	1	0.946500
18.533333	1	0.962250
18.550000	1	0.979000
18.566667	1	0.998000
18.583333	1	1.018875
18.600000	1	1.042000
18.616667	1	1.065625
18.633333	1	1.090750
18.650000	1	1.117875
18.666667	1	1.145375
18.683333	1	1.174250
18.700000	1	1.203750
18.716667	1	1.233375
18.733333	1	1.264500
18.750000	1	1.294875
18.766667	1	1.325250
18.783333	1	1.354375
18.800000	1	1.383000
18.816667	1	1.410000
18.833333	1	1.434750
18.850000	1	1.456375
18.866667	1	1.474125
18.883333	1	1.487750
18.900000	1	1.496875
18.916667	1	1.501125
18.933333	1	1.499625
18.950000	1	1.492500
18.966667	1	1.478875
18.983333	1	1.459750
19.000000	1	1.434250
19.016667	1	1.404125
19.033333	1	1.368875
19.050000	1	1.329875
19.066667	1	1.287625
19.083333	1	1.242500
19.100000	1	1.197250
19.116667	1	1.151000
19.133333	1	1.105000
19.150000	1	1.061000
19.166667	1	1.018750
19.183333	1	0.980000
19.200000	1	0.944750
19.216667	1	0.914000
19.233333	1	0.888375
19.250000	1	0.867375
19.266667	1	0.852250
19.283333	1	0.843125
19.300000	1	0.840375
19.316667	1	0.842125
19.333333	1	0.849875
19.350000	1	0.862750
19.366667	1	0.881000
19.383333	1	0.903750
19.400000	1	0.930875
19.416667	1	0.961125
19.433333	1	0.993500
19.450000	1	1.027500
19.466667	1	1.061500
19.483333	1	1.095125
19.500000	1	1.127750
19.516667	1	1.158125
19.533333	1	1.185000
19.550000	1	1.209000
19.566667	1	1.227875
19.583333	1	1.242750
19.600000	1	1.252250
19.616667	1	1.257000
19.633333	1	1.257125
19.650000	1	1.252375
19.666667	1	1.242875
19.683333	1	1.228750
19.700000	1	1.210750
19.716667	1	1.189000
19.733333	1	1.164375
19.750000	1	1.138250
19.766667	1	1.109375
19.783333	1	1.078250
19.800000	1	1.047125
19.816667	1	1.015375
19.833333	1	0.983375
19.850000	1	0.951625
19.866667	1	0.921875
19.883333	1	0.893500
19.900000	1	0.867500
19.916667	1	0.844125
19.933333	1	0.824375
19.950000	1	0.808250
19.966667	1	0.797750
19.983333	1	0.791500
20.000000	1	0.791750
20.016667	1	0.797875
20.033333	1	0.811125
20.050000	1	0.831250
20.066667	1	0.859875
20.083333	1	0.896250
20.100000	1	0.940375
20.116667	1	0.992250
20.133333	1	1.051500
20.150000	1	1.117125
20.166667	1	1.188000
20.183333	1	1.262625
20.200000	1	1.339375
20.216667	1	1.416875
20.233333	1	1.491375
20.250000	1	1.561500
20.266667	1	1.624500
20.283333	1	1.678875
20.300000	1	1.722125
20.316667	1	1.753000
20.333333	1	1.770625
20.350000	1	1.773625
20.366667	1	1.763625
20.383333	1	1.740000
20.400000	1	1.703750
20.416667	1	1.657000
20.433333	1	1.601125
20.450000	1	1.539875
20.466667	1	1.473500
20.483333	1	1.404750
20.500000	1	1.336375
20.516667	1	1.270375
20.533333	1	1.209250
20.550000	1	1.153750
20.566667	1	1.106500
20.583333	1	1.068375
20.600000	1	1.039500
20.616667	1	1.020750
20.633333	1	1.013750
20.650000	1	1.017625
20.666667	1	1.033375
20.683333	1	1.059125
20.700000	1	1.095375
20.716667	1	1.141250
20.733333	1	1.194500
20.750000	1	1.254375
20.766667	1	1.319000
20.783333	1	1.385625
20.800000	1	1.452750
20.816667	1	1.517500
20.833333	1	1.577000
20.850000	1	1.629625
20.866667	1	1.673750
20.883333	1	1.707250
20.900000	1	1.728875
20.916667	1	1.737125
20.933333	1	1.731500
20.950000	1	1.713375
20.966667	1	1.683125
20.983333	1	1.641000
21.000000	1	1.588750
21.016667	1	1.528250
21.033333	1	1.460875
21.050000	1	1.389750
21.066667	1	1.316250
21.083333	1	1.242125
21.100000	1	1.168250
21.116667	1	1.096625
21.133333	1	1.029000
21.150000	1	0.964375
21.166667	1	0.905000
21.183333	1	0.851125
21.200000	1	0.801500
21.216667	1	0.757250
21.233333	1	0.717750
21.250000	1	0.683000
21.266667	1	0.652750
21.283333	1	0.625750
21.300000	1	0.603250
21.316667	1	0.584375
21.333333	1	0.568500
21.350000	1	0.554625
21.366667	1	0.542875
21.383333	1	0.533250
21.400000	1	0.525250
21.416667	1	0.518000
21.433333	1	0.511375
21.450000	1	0.507125
21.466667	1	0.502750
21.483333	1	0.499125
21.500000	1	0.496375
21.516667	1	0.493750
21.533333	1	0.491250
21.550000	1	0.489000
21.566667	1	0.487625
21.583333	1	0.486750
21.600000	1	0.484000
21.616667	1	0.482375
21.633333	1	0.481250
21.650000	1	0.480625
21.666667	1	0.480250
21.683333	1	0.480250
21.700000	1	0.480125
21.716667	1	0.480000
21.733333	1	0.480125
21.750000	1	0.480625
21.766667	1	0.481000
21.783333	1	0.481625
21.800000	1	0.482500
21.816667	1	0.483125
21.833333	1	0.484500
21.850000	1	0.485875
21.866667	1	0.487000
21.883333	1	0.488500
21.900000	1	0.490500
21.916667	1	0.492375
21.933333	1	0.495000
21.950000	1	0.497625
21.966667	1	0.500125
21.983333	1	0.503125
22.000000	1	0.506500
22.016667	1	0.509875
22.033333	1	0.513750
22.050000	1	0.517250
22.066667	1	0.521875
22.083333	1	0.526000
22.100000	1	0.529500
22.116667	1	0.533375
22.133333	1	0.536125
22.150000	1	0.539125
22.166667	1	0.541250
22.183333	1	0.542625
22.200000	1	0.542250
22.216667	1	0.541625
22.233333	1	0.539375
22.250000	1	0.536500
22.266667	1	0.532125
22.283333	1	0.527125
22.300000	1	0.520750
22.316667	1	0.513000
22.333333	1	0.505500
22.350000	1	0.496625
22.366667	1	0.486250
22.383333	1	0.476250
22.400000	1	0.467000
22.416667	1	0.457000
22.433333	1	0.447000
22.450000	1	0.437125
22.466667	1	0.427125
22.483333	1	0.417875
22.500000	1	0.409125
22.516667	1	0.400750
22.533333	1	0.392875
22.550000	1	0.385875
22.566667	1	0.379875
22.583333	1	0.373500
22.600000	1	0.368500
22.616667	1	0.363625
22.633333	1	0.359250
22.650000	1	0.356125
22.666667	1	0.352500
22.683333	1	0.348875
22.700000	1	0.346250
22.716667	1	0.344000
22.733333	1	0.342000
22.750000	1	0.340250
22.766667	1	0.339250
22.783333	1	0.338625
22.800000	1	0.338000
22.816667	1	0.337625
22.833333	1	0.337375
22.850000	1	0.338000
22.866667	1	0.337875
22.883333	1	0.338750
22.900000	1	0.339875
22.916667	1	0.340875
22.933333	1	0.341625
22.950000	1	0.343250
22.966667	1	0.345250
22.983333	1	0.347750
23.000000	1	0.349750
23.016667	1	0.351750
23.033333	1	0.353125
23.050000	1	0.355750
23.066667	1	0.358500
23.083333	1	0.361250
23.100000	1	0.364000
23.116667	1	0.367375
23.133333	1	0.370125
23.150000	1	0.373375
23.166667	1	0.377000
23.183333	1	0.381125
23.200000	1	0.385875
23.216667	1	0.391375
23.233333	1	0.397000
23.250000	1	0.404500
23.266667	1	0.413250
23.283333	1	0.424500
23.300000	1	0.438375
23.316667	1	0.456125
23.333333	1	0.478125
23.350000	1	0.505875
23.366667	1	0.538750
23.383333	1	0.578875
23.400000	1	0.628125
23.416667	1	0.688000
23.433333	1	0.759625
23.450000	1	0.845250
23.466667	1	0.946250
23.483333	1	1.064500
23.500000	1	1.202625
23.516667	1	1.361375
23.533333	1	1.543250
23.550000	1	1.749875
23.566667	1	1.981750
23.583333	1	2.238375
23.600000	1	2.519625
23.616667	1	2.825250
23.633333	1	3.152500
23.650000	1	3.498750
23.666667	1	3.860250
23.683333	1	4.232375
23.700000	1	4.609750
23.716667	1	4.987500
23.733333	1	5.357000
23.750000	1	5.710625
23.766667	1	6.041500
23.783333	1	6.342125
23.800000	1	6.604625
23.816667	1	6.824750
23.833333	1	6.995625
23.850000	1	7.115750
23.866667	1	7.181625
23.883333	1	7.192250
23.900000	1	7.147750
23.916667	1	7.051250
23.933333	1	6.905250
23.950000	1	6.713750
23.966667	1	6.483125
23.983333	1	6.218625
24.000000	1	5.926500
24.016667	1	5.614000
24.033333	1	5.288500
24.050000	1	4.954000
24.066667	1	4.617750
24.083333	1	4.284250
24.100000	1	3.957000
24.116667	1	3.639500
24.133333	1	3.335875
24.150000	1	3.048375
24.166667	1	2.779000
24.183333	1	2.527625
24.200000	1	2.295625
24.216667	1	2.082375
24.233333	1	1.888250
24.250000	1	1.711625
24.266667	1	1.552250
24.283333	1	1.408875
24.300000	1	1.280875
24.316667	1	1.166125
24.333333	1	1.063500
24.350000	1	0.973625
24.366667	1	0.894750
24.383333	1	0.825000
24.400000	1	0.765250
24.416667	1	0.713500
24.433333	1	0.668750
24.450000	1	0.630500
24.466667	1	0.598125
24.483333	1	0.570250
24.500000	1	0.547500
24.516667	1	0.527625
24.533333	1	0.511125
24.550000	1	0.497625
24.566667	1	0.486250
24.583333	1	0.477000
24.600000	1	0.468375
24.616667	1	0.461500
24.633333	1	0.454875
24.650000	1	0.449625
24.666667	1	0.444250
24.683333	1	0.439125
24.700000	1	0.433875
24.716667	1	0.428500
24.733333	1	0.423375
24.750000	1	0.418125
24.766667	1	0.412000
24.783333	1	0.406500
24.800000	1	0.401375
24.816667	1	0.395875
24.833333	1	0.389875
24.850000	1	0.384500
24.866667	1	0.379125
24.883333	1	0.374625
24.900000	1	0.370500
24.916667	1	0.366875
24.933333	1	0.363500
24.950000	1	0.360750
24.966667	1	0.358000
24.983333	1	0.356375
25.000000	1	0.355750
25.016667	1	0.355750
25.033333	1	0.355875
25.050000	1	0.356625
25.066667	1	0.357625
25.083333	1	0.359625
25.100000	1	0.361875
25.116667	1	0.364250
25.133333	1	0.366375
25.150000	1	0.368375
25.166667	1	0.371000
25.183333	1	0.373750
25.200000	1	0.375625
25.216667	1	0.377125
25.233333	1	0.377875
25.250000	1	0.378125
25.266667	1	0.378125
25.283333	1	0.377250
25.300000	1	0.375750
25.316667	1	0.374000
25.333333	1	0.371375
25.350000	1	0.367125
25.366667	1	0.362625
25.383333	1	0.357375
25.400000	1	0.352000
25.416667	1	0.347500
25.433333	1	0.341750
25.450000	1	0.335750
25.466667	1	0.329750
25.483333	1	0.323250
25.500000	1	0.318250
25.516667	1	0.312625
25.533333	1	0.307750
25.550000	1	0.303375
25.566667	1	0.299125
25.583333	1	0.294875
25.600000	1	0.291250
25.616667	1	0.288250
25.633333	1	0.285125
25.650000	1	0.282625
25.666667	1	0.280750
25.683333	1	0.278500
25.700000	1	0.277125
25.716667	1	0.275500
25.733333	1	0.274125
25.750000	1	0.272375
25.766667	1	0.270500
25.783333	1	0.269250
25.800000	1	0.268125
25.816667	1	0.266750
25.833333	1	0.265750
25.850000	1	0.264375
25.866667	1	0.263375
25.883333	1	0.262750
25.900000	1	0.262125
25.916667	1	0.261000
25.933333	1	0.260875
25.950000	1	0.261125
25.966667	1	0.261000
25.983333	1	0.261250
26.000000	1	0.262125
26.016667	1	0.263125
26.033333	1	0.264750
26.050000	1	0.266250
26.066667	1	0.267750
26.083333	1	0.270125
26.100000	1	0.272750
26.116667	1	0.275750
26.133333	1	0.278875
26.150000	1	0.282750
26.166667	1	0.286375
26.183333	1	0.289750
26.200000	1	0.293125
26.216667	1	0.296875
26.233333	1	0.300375
26.250000	1	0.304500
26.266667	1	0.308625
26.283333	1	0.312125
26.300000	1	0.315625
26.316667	1	0.318875
26.333333	1	0.321125
26.350000	1	0.322750
26.366667	1	0.324375
26.383333	1	0.325375
26.400000	1	0.326000
26.416667	1	0.325625
26.433333	1	0.325750
26.450000	1	0.324125
26.466667	1	0.323125
26.483333	1	0.321250
26.500000	1	0.318125
26.516667	1	0.315000
26.533333	1	0.311625
26.550000	1	0.307375
26.566667	1	0.303125
26.583333	1	0.298750
26.600000	1	0.293500
26.616667	1	0.288750
26.633333	1	0.283500
26.650000	1	0.278375
26.666667	1	0.273250
26.683333	1	0.267875
26.700000	1	0.262125
26.716667	1	0.256625
26.733333	1	0.251750
26.750000	1	0.247375
26.766667	1	0.243125
26.783333	1	0.239375
26.800000	1	0.235875
26.816667	1	0.232375
26.833333	1	0.229875
26.850000	1	0.227250
26.866667	1	0.226000
26.883333	1	0.224750
26.900000	1	0.223875
26.916667	1	0.223125
26.933333	1	0.223375
26.950000	1	0.223875
26.966667	1	0.225250
26.983333	1	0.227375
27.000000	1	0.230125
27.016667	1	0.232875
27.033333	1	0.236500
27.050000	1	0.240750
27.066667	1	0.246125
27.083333	1	0.252250
27.100000	1	0.258250
27.116667	1	0.264625
27.133333	1	0.272625
27.150000	1	0.281625
27.166667	1	0.291750
27.183333	1	0.303375
27.200000	1	0.316000
27.216667	1	0.329875
27.233333	1	0.345500
27.250000	1	0.363250
27.266667	1	0.382625
27.283333	1	0.405250
27.300000	1	0.429625
27.316667	1	0.458250
27.333333	1	0.489875
27.350000	1	0.526125
27.366667	1	0.567125
27.383333	1	0.614375
27.400000	1	0.666750
27.416667	1	0.725250
27.433333	1	0.791000
27.450000	1	0.864250
27.466667	1	0.946625
27.483333	1	1.037500
27.500000	1	1.137250
27.516667	1	1.246625
27.533333	1	1.365750
27.550000	1	1.494250
27.566667	1	1.631875
27.583333	1	1.778250
27.600000	1	1.933375
27.616667	1	2.095250
27.633333	1	2.264000
27.650000	1	2.437375
27.666667	1	2.614750
27.683333	1	2.793375
27.700000	1	2.972125
27.716667	1	3.147875
27.733333	1	3.318125
27.750000	1	3.480375
27.766667	1	3.632125
27.783333	1	3.771125
27.800000	1	3.895000
27.816667	1	4.001000
27.833333	1	4.089000
27.850000	1	4.155875
27.866667	1	4.200250
27.883333	1	4.222375
27.900000	1	4.219875
27.916667	1	4.194250
27.933333	1	4.144750
27.950000	1	4.073125
27.966667	1	3.981500
27.983333	1	3.870000
28.000000	1	3.741750
28.016667	1	3.598125
28.033333	1	3.441375
28.050000	1	3.274375
28.066667	1	3.099250
28.083333	1	2.920000
28.100000	1	2.738500
28.116667	1	2.557375
28.133333	1	2.377625
28.150000	1	2.202250
28.166667	1	2.032500
28.183333	1	1.870000
28.200000	1	1.716125
28.216667	1	1.571125
28.233333	1	1.435500
28.250000	1	1.309250
28.266667	1	1.193875
28.283333	1	1.087375
28.300000	1	0.991000
28.316667	1	0.903875
28.333333	1	0.825875
28.350000	1	0.756625
28.366667	1	0.695500
28.383333	1	0.640750
28.400000	1	0.593375
28.416667	1	0.552500
28.433333	1	0.517625
28.450000	1	0.488500
28.466667	1	0.464250
28.483333	1	0.445000
28.500000	1	0.428500
28.516667	1	0.416625
28.533333	1	0.408250
28.550000	1	0.402375
28.566667	1	0.398625
28.583333	1	0.397125
28.600000	1	0.398375
28.616667	1	0.401750
28.633333	1	0.406500
28.650000	1	0.413250
28.666667	1	0.421000
28.683333	1	0.428750
28.700000	1	0.438000
28.716667	1	0.447000
28.733333	1	0.456125
28.750000	1	0.466000
28.766667	1	0.475750
28.783333	1	0.485250
28.800000	1	0.495375
28.816667	1	0.504750
28.833333	1	0.512625
28.850000	1	0.520750
28.866667	1	0.527375
28.883333	1	0.533250
28.900000	1	0.538250
28.916667	1	0.541750
28.933333	1	0.544125
28.950000	1	0.546000
28.966667	1	0.546500
28.983333	1	0.544750
29.000000	1	0.541750
29.016667	1	0.537125
29.033333	1	0.530625
29.050000	1	0.523250
29.066667	1	0.513500
29.083333	1	0.501500
29.100000	1	0.488125
29.116667	1	0.472875
29.133333	1	0.455625
29.150000	1	0.436125
29.166667	1	0.414625
29.183333	1	0.390750
29.200000	1	0.363875
29.216667	1	0.335500
29.233333	1	0.303500
29.250000	1	0.270250
29.266667	1	0.234000
29.283333	1	0.195375
29.300000	1	0.154125
29.316667	1	0.110250
29.333333	1	0.064250
29.350000	1	0.016500
29.366667	1	-0.034125
29.383333	1	-0.086375
29.400000	1	-0.141125
29.416667	1	-0.196875
29.433333	1	-0.255375
29.450000	1	-0.315000
29.466667	1	-0.375250
29.483333	1	-0.435125
29.500000	1	-0.495125
29.516667	1	-0.556000
29.533333	1	-0.615250
29.550000	1	-0.674375
29.566667	1	-0.731250
29.583333	1	-0.785875
29.600000	1	-0.837625
29.616667	1	-0.886250
29.633333	1	-0.931750
29.650000	1	-0.974500
29.666667	1	-1.012125
29.683333	1	-1.045500
29.700000	1	-1.074250
29.716667	1	-1.097500
29.733333	1	-1.115250
29.750000	1	-1.127500
29.766667	1	-1.134125
29.783333	1	-1.135250
29.800000	1	-1.131500
29.816667	1	-1.122000
29.833333	1	-1.107125
29.850000	1	-1.087625
29.866667	1	-1.063875
29.883333	1	-1.036000
29.900000	1	-1.004500
29.916667	1	-0.969500
29.933333	1	-0.931625
29.950000	1	-0.890750
29.966667	1	-0.848250
29.983333	1	-0.804500
30.000000	1	-0.759375
30.016667	1	-0.712875
30.033333	1	-0.666625
30.050000	1	-0.620375
30.066667	1	-0.574375
30.083333	1	-0.528750
30.100000	1	-0.484250
30.116667	1	-0.441000
30.133333	1	-0.399125
30.150000	1	-0.360625
30.166667	1	-0.322500
30.183333	1	-0.286250
30.200000	1	-0.251750
30.216667	1	-0.218625
30.233333	1	-0.187125
30.250000	1	-0.158125
30.266667	1	-0.131500
30.283333	1	-0.106375
30.300000	1	-0.081875
30.316667	1	-0.060500
30.333333	1	-0.039625
30.350000	1	-0.020875
30.366667	1	-0.002625
30.383333	1	0.013875
30.400000	1	0.030000
30.416667	1	0.045000
30.433333	1	0.058750
30.450000	1	0.070875
30.466667	1	0.083125
30.483333	1	0.094375
30.500000	1	0.105125
30.516667	1	0.115625
30.533333	1	0.124500
30.550000	1	0.134250
30.566667	1	0.143375
30.583333	1	0.152500
30.600000	1	0.161500
30.616667	1	0.170375
30.633333	1	0.178750
30.650000	1	0.188000
30.666667	1	0.196625
30.683333	1	0.206000
30.700000	1	0.214750
30.716667	1	0.224125
30.733333	1	0.233250
30.750000	1	0.243000
30.766667	1	0.253125
30.783333	1	0.263750
30.800000	1	0.275250
30.816667	1	0.287750
30.833333	1	0.301375
30.850000	1	0.315625
30.866667	1	0.331000
30.883333	1	0.347625
30.900000	1	0.365875
30.916667	1	0.387000
30.933333	1	0.409125
30.950000	1	0.434250
30.966667	1	0.462000
30.983333	1	0.494125
31.000000	1	0.530000
31.016667	1	0.568875
31.033333	1	0.615125
31.050000	1	0.665625
31.066667	1	0.722375
31.083333	1	0.786625
31.100000	1	0.858375
31.116667	1	0.938250
31.133333	1	1.027500
31.150000	1	1.126625
31.166667	1	1.236250
31.183333	1	1.356875
31.200000	1	1.489125
31.216667	1	1.634250
31.233333	1	1.791875
31.250000	1	1.961875
31.266667	1	2.144000
31.283333	1	2.338250
31.300000	1	2.543625
31.316667	1	2.760125
31.333333	1	2.984875
31.350000	1	3.217750
31.366667	1	3.457125
31.383333	1	3.701750
31.400000	1	3.948500
31.416667	1	4.195250
31.433333	1	4.440125
31.450000	1	4.679125
31.466667	1	4.909875
31.483333	1	5.130000
31.500000	1	5.336250
31.516667	1	5.526250
31.533333	1	5.697750
31.550000	1	5.848250
31.566667	1	5.976000
31.583333	1	6.079500
31.600000	1	6.157125
31.616667	1	6.208875
31.633333	1	6.232750
31.650000	1	6.228500
31.666667	1	6.198125
31.683333	1	6.141375
31.700000	1	6.059500
31.716667	1	5.953750
31.733333	1	5.826500
31.750000	1	5.678375
31.766667	1	5.512625
31.783333	1	5.331125
31.800000	1	5.136000
31.816667	1	4.929875
31.833333	1	4.715500
31.850000	1	4.494375
31.866667	1	4.269375
31.883333	1	4.042250
31.900000	1	3.816500
31.916667	1	3.592375
31.933333	1	3.371625
31.950000	1	3.156875
31.966667	1	2.947500
31.983333	1	2.744875
32.000000	1	2.549875
32.016667	1	2.363625
32.033333	1	2.186000
32.050000	1	2.017875
32.066667	1	1.858125
32.083333	1	1.709125
32.100000	1	1.569500
32.116667	1	1.438750
32.133333	1	1.316625
32.150000	1	1.202875
32.166667	1	1.097250
32.183333	1	0.998875
32.200000	1	0.908750
32.216667	1	0.825375
32.233333	1	0.748625
32.250000	1	0.678250
32.266667	1	0.612250
32.283333	1	0.552625
32.300000	1	0.497375
32.316667	1	0.447625
32.333333	1	0.403000
32.350000	1	0.361375
32.366667	1	0.323875
32.383333	1	0.289875
32.400000	1	0.258875
32.416667	1	0.229875
32.433333	1	0.203625
32.450000	1	0.180250
32.466667	1	0.160250
32.483333	1	0.141375
32.500000	1	0.125000
32.516667	1	0.110000
32.533333	1	0.096500
32.550000	1	0.084500
32.566667	1	0.073625
32.583333	1	0.064500
32.600000	1	0.056125
32.616667	1	0.048500
32.633333	1	0.042250
32.650000	1	0.036750
32.666667	1	0.032250
32.683333	1	0.027875
32.700000	1	0.023750
32.716667	1	0.020375
32.733333	1	0.018125
32.750000	1	0.015750
32.766667	1	0.014625
32.783333	1	0.013250
32.800000	1	0.012125
32.816667	1	0.011750
32.833333	1	0.011250
32.850000	1	0.010750
32.866667	1	0.009875
32.883333	1	0.009375
32.900000	1	0.008250
32.916667	1	0.007750
32.933333	1	0.007375
32.950000	1	0.007125
32.966667	1	0.007500
32.983333	1	0.007000
33.000000	1	0.006750
33.016667	1	0.006375
33.033333	1	0.005750
33.050000	1	0.004875
33.066667	1	0.004000
33.083333	1	0.002500
33.100000	1	0.002000
33.116667	1	0.000750
33.133333	1	0.000000
33.150000	1	-0.000375
33.166667	1	-0.001500
33.183333	1	-0.002375
33.200000	1	-0.002625
33.216667	1	-0.003375
33.233333	1	-0.003250
33.250000	1	-0.003625
33.266667	1	-0.004500
33.283333	1	-0.004500
33.300000	1	-0.004750
33.316667	1	-0.004250
33.333333	1	-0.004000
33.350000	1	-0.003500
33.366667	1	-0.003375
33.383333	1	-0.002750
33.400000	1	-0.001625
33.416667	1	0.000000
33.433333	1	0.001625
33.450000	1	0.003375
33.466667	1	0.004750
33.483333	1	0.006875
33.500000	1	0.009375
33.516667	1	0.011875
33.533333	1	0.013875
33.550000	1	0.017125
33.566667	1	0.019125
33.583333	1	0.022250
33.600000	1	0.024750
33.616667	1	0.027500
33.633333	1	0.030500
33.650000	1	0.033375
33.666667	1	0.036750
33.683333	1	0.039000
33.700000	1	0.041375
33.716667	1	0.043875
33.733333	1	0.047500
33.750000	1	0.050125
33.766667	1	0.053625
33.783333	1	0.056500
33.800000	1	0.059500
33.816667	1	0.062500
33.833333	1	0.066000
33.850000	1	0.069000
33.866667	1	0.072000
33.883333	1	0.074500
33.900000	1	0.077875
33.916667	1	0.081000
33.933333	1	0.084500
33.950000	1	0.087750
33.966667	1	0.091250
33.983333	1	0.094500
34.000000	1	0.098500
34.016667	1	0.101875
34.033333	1	0.105250
34.050000	1	0.108250
34.066667	1	0.110875
34.083333	1	0.114375
34.100000	1	0.116625
34.116667	1	0.119375
34.133333	1	0.122250
34.150000	1	0.125375
34.166667	1	0.127000
34.183333	1	0.129250
34.200000	1	0.131625
34.216667	1	0.134000
34.233333	1	0.135750
34.250000	1	0.137500
34.266667	1	0.139125
34.283333	1	0.140750
34.300000	1	0.141875
34.316667	1	0.143000
34.333333	1	0.143875
34.350000	1	0.144875
34.366667	1	0.144875
34.383333	1	0.145625
34.400000	1	0.146750
34.416667	1	0.146625
34.433333	1	0.146250
34.450000	1	0.146125
34.466667	1	0.145500
34.483333	1	0.144750
34.500000	1	0.145125
34.516667	1	0.144250
34.533333	1	0.142875
34.550000	1	0.141875
34.566667	1	0.141500
34.583333	1	0.139875
34.600000	1	0.138875
34.616667	1	0.137875
34.633333	1	0.136375
34.650000	1	0.135125
34.666667	1	0.132750
34.683333	1	0.131500
34.700000	1	0.129625
34.716667	1	0.128375
34.733333	1	0.126875
34.750000	1	0.125000
34.766667	1	0.122625
34.783333	1	0.121000
34.800000	1	0.119125
34.816667	1	0.117125
34.833333	1	0.115125
34.850000	1	0.112875
34.866667	1	0.110125
34.883333	1	0.107875
34.900000	1	0.105875
34.916667	1	0.104375
34.933333	1	0.101875
34.950000	1	0.100125
34.966667	1	0.098125
34.983333	1	0.096250
35.000000	1	0.093875
35.016667	1	0.091250
35.033333	1	0.089125
35.050000	1	0.086375
35.066667	1	0.084375
35.083333	1	0.081375
35.100000	1	0.078875
35.116667	1	0.076375
35.133333	1	0.073625
35.150000	1	0.071625
35.166667	1	0.069375
35.183333	1	0.066625
35.200000	1	0.064500
35.216667	1	0.062500
35.233333	1	0.060625
35.250000	1	0.059125
35.266667	1	0.058000
35.283333	1	0.056250
35.300000	1	0.055250
35.316667	1	0.054625
35.333333	1	0.054375
35.350000	1	0.054500
35.366667	1	0.054375
35.383333	1	0.055375
35.400000	1	0.055875
35.416667	1	0.056625
35.433333	1	0.057750
35.450000	1	0.059250
35.466667	1	0.060500
35.483333	1	0.062375
35.500000	1	0.064625
35.516667	1	0.067125
35.533333	1	0.068625
35.550000	1	0.070250
35.566667	1	0.072500
35.583333	1	0.075000
35.600000	1	0.076875
35.616667	1	0.078875
35.633333	1	0.080125
35.650000	1	0.082125
35.666667	1	0.084250
35.683333	1	0.086125
35.700000	1	0.087750
35.716667	1	0.088875
35.733333	1	0.090625
35.750000	1	0.091625
35.766667	1	0.092750
35.783333	1	0.094000
35.800000	1	0.095875
35.816667	1	0.096500
35.833333	1	0.097875
35.850000	1	0.099000
35.866667	1	0.100250
35.883333	1	0.101375
35.900000	1	0.101750
35.916667	1	0.102625
35.933333	1	0.103750
35.950000	1	0.104375
35.966667	1	0.105500
35.983333	1	0.106750
36.000000	1	0.107875
36.016667	1	0.109000
36.033333	1	0.110000
36.050000	1	0.110375
36.066667	1	0.110625
36.083333	1	0.111875
36.100000	1	0.112750
36.116667	1	0.113375
36.133333	1	0.113250
36.150000	1	0.113625
36.166667	1	0.114625
36.183333	1	0.114750
36.200000	1	0.115250
36.216667	1	0.115750
36.233333	1	0.115750
36.250000	1	0.115750
36.266667	1	0.115875
36.283333	1	0.115750
36.300000	1	0.115500
36.316667	1	0.115625
36.333333	1	0.115500
36.350000	1	0.116375
36.366667	1	0.116625
36.383333	1	0.116625
36.400000	1	0.117000
36.416667	1	0.117375
36.433333	1	0.117375
36.450000	1	0.117000
36.466667	1	0.116250
36.483333	1	0.116250
36.500000	1	0.116500
36.516667	1	0.116375
36.533333	1	0.116125
36.550000	1	0.116125
36.566667	1	0.115250
36.583333	1	0.115000
36.600000	1	0.114500
36.616667	1	0.112875
36.633333	1	0.111500
36.650000	1	0.110375
36.666667	1	0.109375
36.683333	1	0.108000
36.700000	1	0.106625
36.716667	1	0.104875
36.733333	1	0.102875
36.750000	1	0.100500
36.766667	1	0.098125
36.783333	1	0.095000
36.800000	1	0.091750
36.816667	1	0.088875
36.833333	1	0.086500
36.850000	1	0.083250
36.866667	1	0.080500
36.883333	1	0.077625
36.900000	1	0.074750
36.916667	1	0.072125
36.933333	1	0.069000
36.950000	1	0.066125
36.966667	1	0.063500
36.983333	1	0.061125
37.000000	1	0.058125
37.016667	1	0.056750
37.033333	1	0.054500
37.050000	1	0.052125
37.066667	1	0.050625
37.083333	1	0.050000
37.100000	1	0.048500
37.116667	1	0.047875
37.133333	1	0.047250
37.150000	1	0.047500
37.166667	1	0.048125
37.183333	1	0.048125
37.200000	1	0.049375
37.216667	1	0.050125
37.233333	1	0.051375
37.250000	1	0.053125
37.266667	1	0.055125
37.283333	1	0.056875
37.300000	1	0.059875
37.316667	1	0.062875
37.333333	1	0.065875
37.350000	1	0.068375
37.366667	1	0.070750
37.383333	1	0.073500
37.400000	1	0.077000
37.416667	1	0.080125
37.433333	1	0.084000
37.450000	1	0.087750
37.466667	1	0.092250
37.483333	1	0.096625
37.500000	1	0.100750
37.516667	1	0.105125
37.533333	1	0.109125
37.550000	1	0.114125
37.566667	1	0.118500
37.583333	1	0.122875
37.600000	1	0.127250
37.616667	1	0.131500
37.633333	1	0.136375
37.650000	1	0.141625
37.666667	1	0.146625
37.683333	1	0.151000
37.700000	1	0.155250
37.716667	1	0.160125
37.733333	1	0.165000
37.750000	1	0.170250
37.766667	1	0.175125
37.783333	1	0.180625
37.800000	1	0.185000
37.816667	1	0.189375
37.833333	1	0.193875
37.850000	1	0.198250
37.866667	1	0.203250
37.883333	1	0.207875
37.900000	1	0.212500
37.916667	1	0.217000
37.933333	1	0.221500
37.950000	1	0.226250
37.966667	1	0.230500
37.983333	1	0.234625
38.000000	1	0.238625
38.016667	1	0.241875
38.033333	1	0.245750
38.050000	1	0.248750
38.066667	1	0.252375
38.083333	1	0.256000
38.100000	1	0.259750
38.116667	1	0.262250
38.133333	1	0.265750
38.150000	1	0.268000
38.166667	1	0.270625
38.183333	1	0.273375
38.200000	1	0.275625
38.216667	1	0.277250
38.233333	1	0.278375
38.250000	1	0.280125
38.266667	1	0.282250
38.283333	1	0.284375
38.300000	1	0.284750
38.316667	1	0.285625
38.333333	1	0.285375
38.350000	1	0.286500
38.366667	1	0.286875
38.383333	1	0.286875
38.400000	1	0.287250
38.416667	1	0.287625
38.433333	1	0.287125
38.450000	1	0.287375
38.466667	1	0.287375
38.483333	1	0.287250
38.500000	1	0.286750
38.516667	1	0.286250
38.533333	1	0.285625
38.550000	1	0.285375
38.566667	1	0.284625
38.583333	1	0.283875
38.600000	1	0.283375
38.616667	1	0.282125
38.633333	1	0.281500
38.650000	1	0.281250
38.666667	1	0.280750
38.683333	1	0.280750
38.700000	1	0.280000
38.716667	1	0.279625
38.733333	1	0.278875
38.750000	1	0.278250
38.766667	1	0.276250
38.783333	1	0.275500
38.800000	1	0.274375
38.816667	1	0.273500
38.833333	1	0.272250
38.850000	1	0.270875
38.866667	1	0.269875
38.883333	1	0.267625
38.900000	1	0.265125
38.916667	1	0.262625
38.933333	1	0.259750
38.950000	1	0.256875
38.966667	1	0.253750
38.983333	1	0.250375
39.000000	1	0.246000
39.016667	1	0.241750
39.033333	1	0.237000
39.050000	1	0.232750
39.066667	1	0.227125
39.083333	1	0.222625
39.100000	1	0.217000
39.116667	1	0.211375
39.133333	1	0.204625
39.150000	1	0.198750
39.166667	1	0.192375
39.183333	1	0.185875
39.200000	1	0.180000
39.216667	1	0.174250
39.233333	1	0.167875
39.250000	1	0.161750
39.266667	1	0.156125
39.283333	1	0.150125
39.300000	1	0.144875
39.316667	1	0.140000
39.333333	1	0.134250
39.350000	1	0.129125
39.366667	1	0.125000
39.383333	1	0.119625
39.400000	1	0.115625
39.416667	1	0.111250
39.433333	1	0.108000
39.450000	1	0.105000
39.466667	1	0.101500
39.483333	1	0.098750
39.500000	1	0.096500
39.516667	1	0.093750
39.533333	1	0.090250
39.550000	1	0.088750
39.566667	1	0.086250
39.583333	1	0.083125
39.600000	1	0.080875
39.616667	1	0.079125
39.633333	1	0.078125
39.650000	1	0.076500
39.666667	1	0.074750
39.683333	1	0.073125
39.700000	1	0.071750
39.716667	1	0.070625
39.733333	1	0.068250
39.750000	1	0.066250
39.766667	1	0.064000
39.783333	1	0.062750
39.800000	1	0.060500
39.816667	1	0.058875
39.833333	1	0.056750
39.850000	1	0.054875
39.866667	1	0.052500
39.883333	1	0.050250
39.900000	1	0.048500
39.916667	1	0.046625
39.933333	1	0.045250
39.950000	1	0.042875
39.966667	1	0.040500
39.983333	1	0.037500
40.000000	1	0.035000
