URL	chrom://7040-86g6c92/XVault/Ultimate_3000/20/20240517_CMO_FP23_FP25_MarkusDeplate.seq/654.smp/RI_1.channel/RI_1.chm
Channel	RI_1

Injection Information:
Data Vault	XVault
Sequence	20240517_CMO_FP23_FP25_MarkusDeplate
Name	FP27_21_s4
Number	122
Position	BE4
Comment	
Processing Method	
Instrument Method	run_25B_method
Type	Unknown
Status	Finished
Inject Time	31.05.2024 05:58:33 +02:00
Volume (µl)	20.0000
Dilution Factor	1.0000
Weight	1.0000

Chromatogram Data Information:
Time Min. (min)	0.000000
Time Max. (min)	40.000000
Data Points	2401
Detector	RI
Generating Data System	Chromeleon 7.3.2.11814
Exporting Data System	Chromeleon 7.3.2.0
Operator	Instrument Controller
Signal Quantity	Refractive 
Signal Unit	µRIU
Signal Min.	-0.709875
Signal Max.	58.020250
Channel	RI_1
Driver Name	RID520Driver.dll
Channel Type	Evaluation
Min. Step (s)	1
Max. Step (s)	1
Average Step (s)	1

Signal Parameter Information:
Signal Info	

Chromatogram Data:
Time (min)	Step (s)	Value (µRIU)
0.000000	n.a.	0.044875
0.016667	1	0.042875
0.033333	1	0.040750
0.050000	1	0.037750
0.066667	1	0.034750
0.083333	1	0.031125
0.100000	1	0.028375
0.116667	1	0.025000
0.133333	1	0.021625
0.150000	1	0.019125
0.166667	1	0.016500
0.183333	1	0.014125
0.200000	1	0.011250
0.216667	1	0.008875
0.233333	1	0.006875
0.250000	1	0.005375
0.266667	1	0.003750
0.283333	1	0.003125
0.300000	1	0.002625
0.316667	1	0.002875
0.333333	1	0.003125
0.350000	1	0.003625
0.366667	1	0.003875
0.383333	1	0.004125
0.400000	1	0.005500
0.416667	1	0.007875
0.433333	1	0.010750
0.450000	1	0.014625
0.466667	1	0.018500
0.483333	1	0.023125
0.500000	1	0.026875
0.516667	1	0.031125
0.533333	1	0.035000
0.550000	1	0.038125
0.566667	1	0.040750
0.583333	1	0.042250
0.600000	1	0.044000
0.616667	1	0.045250
0.633333	1	0.046625
0.650000	1	0.049125
0.666667	1	0.052125
0.683333	1	0.054875
0.700000	1	0.057250
0.716667	1	0.059750
0.733333	1	0.062250
0.750000	1	0.063750
0.766667	1	0.065750
0.783333	1	0.067250
0.800000	1	0.068125
0.816667	1	0.069125
0.833333	1	0.070750
0.850000	1	0.071625
0.866667	1	0.072250
0.883333	1	0.072625
0.900000	1	0.072250
0.916667	1	0.072000
0.933333	1	0.071875
0.950000	1	0.071625
0.966667	1	0.071500
0.983333	1	0.070750
1.000000	1	0.070875
1.016667	1	0.070625
1.033333	1	0.070250
1.050000	1	0.070000
1.066667	1	0.069625
1.083333	1	0.069625
1.100000	1	0.069875
1.116667	1	0.069625
1.133333	1	0.069500
1.150000	1	0.070375
1.166667	1	0.071250
1.183333	1	0.071125
1.200000	1	0.071875
1.216667	1	0.072000
1.233333	1	0.072625
1.250000	1	0.072875
1.266667	1	0.074125
1.283333	1	0.074500
1.300000	1	0.074500
1.316667	1	0.075000
1.333333	1	0.075500
1.350000	1	0.075500
1.366667	1	0.075625
1.383333	1	0.075625
1.400000	1	0.075375
1.416667	1	0.075500
1.433333	1	0.075500
1.450000	1	0.075125
1.466667	1	0.074500
1.483333	1	0.073625
1.500000	1	0.072375
1.516667	1	0.071500
1.533333	1	0.071250
1.550000	1	0.069875
1.566667	1	0.068375
1.583333	1	0.067000
1.600000	1	0.065125
1.616667	1	0.063750
1.633333	1	0.062125
1.650000	1	0.061000
1.666667	1	0.059375
1.683333	1	0.057875
1.700000	1	0.056125
1.716667	1	0.054750
1.733333	1	0.053000
1.750000	1	0.051000
1.766667	1	0.049875
1.783333	1	0.048375
1.800000	1	0.046750
1.816667	1	0.045125
1.833333	1	0.043875
1.850000	1	0.042250
1.866667	1	0.040750
1.883333	1	0.039500
1.900000	1	0.038000
1.916667	1	0.036500
1.933333	1	0.034875
1.950000	1	0.033375
1.966667	1	0.032875
1.983333	1	0.031750
2.000000	1	0.030125
2.016667	1	0.028125
2.033333	1	0.026500
2.050000	1	0.025750
2.066667	1	0.024500
2.083333	1	0.022500
2.100000	1	0.020875
2.116667	1	0.019750
2.133333	1	0.018125
2.150000	1	0.016750
2.166667	1	0.015375
2.183333	1	0.014375
2.200000	1	0.013250
2.216667	1	0.011750
2.233333	1	0.010125
2.250000	1	0.009125
2.266667	1	0.008375
2.283333	1	0.007750
2.300000	1	0.006500
2.316667	1	0.005125
2.333333	1	0.003750
2.350000	1	0.003250
2.366667	1	0.002000
2.383333	1	0.001500
2.400000	1	0.001625
2.416667	1	0.001250
2.433333	1	0.001625
2.450000	1	0.002000
2.466667	1	0.002500
2.483333	1	0.003125
2.500000	1	0.004250
2.516667	1	0.004875
2.533333	1	0.006250
2.550000	1	0.007250
2.566667	1	0.008500
2.583333	1	0.009750
2.600000	1	0.010750
2.616667	1	0.011875
2.633333	1	0.013625
2.650000	1	0.015375
2.666667	1	0.017125
2.683333	1	0.018625
2.700000	1	0.019375
2.716667	1	0.020500
2.733333	1	0.021625
2.750000	1	0.022125
2.766667	1	0.022000
2.783333	1	0.021875
2.800000	1	0.021500
2.816667	1	0.020250
2.833333	1	0.020125
2.850000	1	0.019875
2.866667	1	0.019500
2.883333	1	0.018000
2.900000	1	0.017250
2.916667	1	0.016125
2.933333	1	0.015750
2.950000	1	0.015000
2.966667	1	0.013125
2.983333	1	0.011375
3.000000	1	0.009750
3.016667	1	0.008000
3.033333	1	0.007250
3.050000	1	0.006500
3.066667	1	0.005875
3.083333	1	0.005500
3.100000	1	0.004125
3.116667	1	0.003375
3.133333	1	0.002625
3.150000	1	0.002375
3.166667	1	0.002125
3.183333	1	0.002125
3.200000	1	0.002625
3.216667	1	0.002875
3.233333	1	0.003250
3.250000	1	0.003375
3.266667	1	0.003875
3.283333	1	0.004250
3.300000	1	0.004625
3.316667	1	0.005375
3.333333	1	0.006000
3.350000	1	0.006750
3.366667	1	0.007375
3.383333	1	0.008500
3.400000	1	0.009625
3.416667	1	0.010625
3.433333	1	0.012000
3.450000	1	0.013000
3.466667	1	0.014000
3.483333	1	0.014125
3.500000	1	0.015000
3.516667	1	0.015625
3.533333	1	0.017375
3.550000	1	0.018750
3.566667	1	0.019875
3.583333	1	0.019625
3.600000	1	0.020250
3.616667	1	0.021250
3.633333	1	0.022125
3.650000	1	0.022750
3.666667	1	0.024000
3.683333	1	0.025250
3.700000	1	0.026125
3.716667	1	0.027250
3.733333	1	0.028250
3.750000	1	0.029625
3.766667	1	0.030250
3.783333	1	0.032000
3.800000	1	0.033375
3.816667	1	0.034500
3.833333	1	0.036625
3.850000	1	0.038250
3.866667	1	0.039500
3.883333	1	0.041125
3.900000	1	0.042375
3.916667	1	0.043875
3.933333	1	0.045375
3.950000	1	0.046500
3.966667	1	0.048125
3.983333	1	0.049750
4.000000	1	0.050750
4.016667	1	0.052375
4.033333	1	0.053750
4.050000	1	0.054875
4.066667	1	0.055500
4.083333	1	0.056125
4.100000	1	0.057250
4.116667	1	0.057750
4.133333	1	0.058375
4.150000	1	0.059000
4.166667	1	0.060000
4.183333	1	0.060750
4.200000	1	0.061375
4.216667	1	0.061250
4.233333	1	0.061000
4.250000	1	0.060625
4.266667	1	0.060750
4.283333	1	0.061000
4.300000	1	0.061000
4.316667	1	0.060375
4.333333	1	0.059875
4.350000	1	0.059750
4.366667	1	0.059625
4.383333	1	0.060125
4.400000	1	0.060500
4.416667	1	0.060250
4.433333	1	0.061125
4.450000	1	0.062000
4.466667	1	0.062500
4.483333	1	0.063875
4.500000	1	0.064625
4.516667	1	0.066750
4.533333	1	0.068250
4.550000	1	0.070750
4.566667	1	0.072500
4.583333	1	0.075500
4.600000	1	0.077875
4.616667	1	0.081000
4.633333	1	0.084000
4.650000	1	0.087625
4.666667	1	0.091000
4.683333	1	0.093875
4.700000	1	0.097500
4.716667	1	0.100875
4.733333	1	0.104125
4.750000	1	0.107500
4.766667	1	0.110625
4.783333	1	0.114375
4.800000	1	0.118500
4.816667	1	0.122000
4.833333	1	0.126250
4.850000	1	0.130000
4.866667	1	0.134000
4.883333	1	0.138000
4.900000	1	0.141375
4.916667	1	0.144375
4.933333	1	0.147750
4.950000	1	0.152125
4.966667	1	0.155750
4.983333	1	0.159500
5.000000	1	0.162500
5.016667	1	0.165500
5.033333	1	0.169250
5.050000	1	0.172125
5.066667	1	0.176000
5.083333	1	0.179375
5.100000	1	0.182125
5.116667	1	0.184625
5.133333	1	0.187125
5.150000	1	0.191000
5.166667	1	0.194625
5.183333	1	0.198000
5.200000	1	0.200375
5.216667	1	0.203375
5.233333	1	0.206000
5.250000	1	0.210000
5.266667	1	0.213000
5.283333	1	0.216500
5.300000	1	0.218750
5.316667	1	0.221750
5.333333	1	0.224625
5.350000	1	0.227125
5.366667	1	0.229875
5.383333	1	0.232625
5.400000	1	0.236000
5.416667	1	0.239875
5.433333	1	0.243375
5.450000	1	0.246375
5.466667	1	0.249250
5.483333	1	0.252500
5.500000	1	0.255000
5.516667	1	0.258250
5.533333	1	0.261500
5.550000	1	0.265250
5.566667	1	0.268625
5.583333	1	0.271875
5.600000	1	0.275000
5.616667	1	0.278375
5.633333	1	0.281625
5.650000	1	0.284500
5.666667	1	0.287375
5.683333	1	0.289875
5.700000	1	0.292125
5.716667	1	0.293750
5.733333	1	0.296500
5.750000	1	0.299125
5.766667	1	0.300750
5.783333	1	0.301875
5.800000	1	0.303375
5.816667	1	0.303875
5.833333	1	0.304500
5.850000	1	0.304875
5.866667	1	0.304625
5.883333	1	0.304625
5.900000	1	0.304375
5.916667	1	0.303750
5.933333	1	0.302625
5.950000	1	0.302250
5.966667	1	0.301500
5.983333	1	0.300375
6.000000	1	0.297875
6.016667	1	0.296125
6.033333	1	0.294125
6.050000	1	0.291625
6.066667	1	0.288625
6.083333	1	0.285125
6.100000	1	0.281375
6.116667	1	0.278375
6.133333	1	0.275125
6.150000	1	0.272125
6.166667	1	0.268250
6.183333	1	0.263750
6.200000	1	0.260625
6.216667	1	0.256375
6.233333	1	0.251750
6.250000	1	0.247750
6.266667	1	0.243500
6.283333	1	0.238500
6.300000	1	0.234625
6.316667	1	0.229250
6.333333	1	0.225000
6.350000	1	0.220375
6.366667	1	0.216250
6.383333	1	0.212250
6.400000	1	0.208125
6.416667	1	0.203875
6.433333	1	0.199625
6.450000	1	0.195250
6.466667	1	0.191625
6.483333	1	0.188500
6.500000	1	0.185250
6.516667	1	0.182000
6.533333	1	0.179000
6.550000	1	0.177000
6.566667	1	0.174500
6.583333	1	0.172625
6.600000	1	0.171125
6.616667	1	0.169625
6.633333	1	0.167750
6.650000	1	0.166625
6.666667	1	0.164875
6.683333	1	0.163375
6.700000	1	0.162250
6.716667	1	0.161125
6.733333	1	0.159375
6.750000	1	0.158000
6.766667	1	0.157500
6.783333	1	0.156875
6.800000	1	0.155250
6.816667	1	0.154125
6.833333	1	0.152500
6.850000	1	0.150875
6.866667	1	0.149125
6.883333	1	0.147625
6.900000	1	0.146000
6.916667	1	0.144250
6.933333	1	0.143375
6.950000	1	0.142250
6.966667	1	0.141125
6.983333	1	0.139875
7.000000	1	0.138875
7.016667	1	0.137250
7.033333	1	0.136750
7.050000	1	0.136500
7.066667	1	0.136375
7.083333	1	0.136625
7.100000	1	0.137000
7.116667	1	0.138125
7.133333	1	0.139000
7.150000	1	0.140375
7.166667	1	0.141875
7.183333	1	0.143000
7.200000	1	0.145125
7.216667	1	0.147500
7.233333	1	0.149875
7.250000	1	0.153125
7.266667	1	0.155625
7.283333	1	0.158500
7.300000	1	0.162500
7.316667	1	0.165500
7.333333	1	0.169250
7.350000	1	0.173500
7.366667	1	0.178375
7.383333	1	0.183125
7.400000	1	0.187500
7.416667	1	0.192250
7.433333	1	0.196625
7.450000	1	0.201125
7.466667	1	0.205125
7.483333	1	0.209250
7.500000	1	0.212750
7.516667	1	0.216625
7.533333	1	0.220750
7.550000	1	0.224625
7.566667	1	0.228500
7.583333	1	0.231625
7.600000	1	0.234375
7.616667	1	0.236875
7.633333	1	0.239625
7.650000	1	0.241375
7.666667	1	0.243625
7.683333	1	0.244875
7.700000	1	0.246250
7.716667	1	0.246375
7.733333	1	0.246625
7.750000	1	0.246750
7.766667	1	0.246375
7.783333	1	0.245625
7.800000	1	0.244625
7.816667	1	0.242875
7.833333	1	0.240875
7.850000	1	0.238875
7.866667	1	0.236750
7.883333	1	0.233875
7.900000	1	0.230750
7.916667	1	0.227625
7.933333	1	0.223750
7.950000	1	0.219625
7.966667	1	0.216500
7.983333	1	0.212500
8.000000	1	0.208000
8.016667	1	0.202875
8.033333	1	0.198625
8.050000	1	0.194250
8.066667	1	0.189500
8.083333	1	0.185000
8.100000	1	0.180750
8.116667	1	0.177125
8.133333	1	0.172375
8.150000	1	0.168125
8.166667	1	0.164125
8.183333	1	0.160000
8.200000	1	0.155500
8.216667	1	0.151375
8.233333	1	0.146625
8.250000	1	0.142250
8.266667	1	0.138750
8.283333	1	0.135125
8.300000	1	0.130500
8.316667	1	0.126750
8.333333	1	0.123125
8.350000	1	0.119750
8.366667	1	0.116625
8.383333	1	0.112750
8.400000	1	0.109500
8.416667	1	0.105500
8.433333	1	0.102750
8.450000	1	0.100000
8.466667	1	0.097500
8.483333	1	0.095125
8.500000	1	0.092625
8.516667	1	0.090250
8.533333	1	0.088250
8.550000	1	0.085500
8.566667	1	0.083625
8.583333	1	0.082125
8.600000	1	0.080875
8.616667	1	0.080125
8.633333	1	0.079000
8.650000	1	0.078500
8.666667	1	0.078000
8.683333	1	0.077625
8.700000	1	0.077500
8.716667	1	0.077250
8.733333	1	0.077375
8.750000	1	0.077250
8.766667	1	0.077500
8.783333	1	0.077250
8.800000	1	0.077625
8.816667	1	0.078500
8.833333	1	0.078375
8.850000	1	0.079625
8.866667	1	0.080125
8.883333	1	0.081875
8.900000	1	0.082750
8.916667	1	0.083500
8.933333	1	0.084375
8.950000	1	0.085125
8.966667	1	0.086250
8.983333	1	0.087375
9.000000	1	0.088875
9.016667	1	0.090375
9.033333	1	0.091875
9.050000	1	0.093500
9.066667	1	0.094875
9.083333	1	0.096000
9.100000	1	0.097875
9.116667	1	0.099125
9.133333	1	0.101125
9.150000	1	0.102375
9.166667	1	0.103000
9.183333	1	0.104625
9.200000	1	0.105875
9.216667	1	0.107125
9.233333	1	0.108250
9.250000	1	0.108750
9.266667	1	0.109250
9.283333	1	0.110125
9.300000	1	0.110625
9.316667	1	0.110625
9.333333	1	0.110750
9.350000	1	0.110375
9.366667	1	0.110000
9.383333	1	0.110125
9.400000	1	0.110125
9.416667	1	0.109625
9.433333	1	0.108625
9.450000	1	0.107625
9.466667	1	0.106625
9.483333	1	0.105250
9.500000	1	0.104500
9.516667	1	0.103750
9.533333	1	0.103125
9.550000	1	0.103125
9.566667	1	0.102125
9.583333	1	0.101375
9.600000	1	0.100625
9.616667	1	0.100125
9.633333	1	0.100000
9.650000	1	0.099625
9.666667	1	0.099500
9.683333	1	0.099375
9.700000	1	0.099125
9.716667	1	0.099250
9.733333	1	0.100000
9.750000	1	0.100250
9.766667	1	0.101125
9.783333	1	0.101500
9.800000	1	0.101875
9.816667	1	0.101750
9.833333	1	0.103250
9.850000	1	0.103500
9.866667	1	0.104000
9.883333	1	0.104500
9.900000	1	0.105250
9.916667	1	0.105625
9.933333	1	0.105625
9.950000	1	0.105625
9.966667	1	0.106250
9.983333	1	0.105750
10.000000	1	0.105500
10.016667	1	0.105375
10.033333	1	0.105500
10.050000	1	0.105500
10.066667	1	0.106750
10.083333	1	0.108500
10.100000	1	0.110750
10.116667	1	0.113625
10.133333	1	0.117000
10.150000	1	0.122250
10.166667	1	0.128375
10.183333	1	0.135625
10.200000	1	0.143875
10.216667	1	0.153375
10.233333	1	0.164750
10.250000	1	0.178750
10.266667	1	0.195625
10.283333	1	0.214625
10.300000	1	0.237000
10.316667	1	0.261500
10.333333	1	0.289125
10.350000	1	0.319750
10.366667	1	0.351500
10.383333	1	0.384250
10.400000	1	0.414625
10.416667	1	0.437375
10.433333	1	0.446875
10.450000	1	0.435500
10.466667	1	0.399000
10.483333	1	0.342125
10.500000	1	0.284000
10.516667	1	0.261250
10.533333	1	0.333875
10.550000	1	0.575250
10.566667	1	1.069000
10.583333	1	1.899250
10.600000	1	3.139000
10.616667	1	4.847000
10.633333	1	7.061875
10.650000	1	9.800125
10.666667	1	13.064125
10.683333	1	16.832125
10.700000	1	21.062625
10.716667	1	25.679000
10.733333	1	30.563750
10.750000	1	35.541375
10.766667	1	40.361750
10.783333	1	44.706125
10.800000	1	48.194000
10.816667	1	50.434375
10.833333	1	51.125375
10.850000	1	50.145500
10.866667	1	47.598875
10.883333	1	43.803000
10.900000	1	39.199625
10.916667	1	34.254375
10.933333	1	29.355625
10.950000	1	24.778500
10.966667	1	20.682500
10.983333	1	17.137500
11.000000	1	14.146125
11.016667	1	11.673625
11.033333	1	9.665375
11.050000	1	8.053375
11.066667	1	6.770000
11.083333	1	5.754250
11.100000	1	4.950625
11.116667	1	4.313125
11.133333	1	3.805500
11.150000	1	3.397625
11.166667	1	3.066625
11.183333	1	2.794625
11.200000	1	2.568375
11.216667	1	2.377625
11.233333	1	2.216250
11.250000	1	2.076250
11.266667	1	1.955375
11.283333	1	1.849500
11.300000	1	1.755875
11.316667	1	1.673250
11.333333	1	1.600500
11.350000	1	1.535500
11.366667	1	1.477625
11.383333	1	1.425875
11.400000	1	1.378500
11.416667	1	1.337500
11.433333	1	1.300250
11.450000	1	1.266375
11.466667	1	1.236625
11.483333	1	1.209250
11.500000	1	1.184875
11.516667	1	1.162750
11.533333	1	1.142000
11.550000	1	1.123250
11.566667	1	1.106500
11.583333	1	1.091500
11.600000	1	1.078250
11.616667	1	1.066375
11.633333	1	1.055875
11.650000	1	1.046500
11.666667	1	1.038750
11.683333	1	1.032500
11.700000	1	1.026750
11.716667	1	1.022625
11.733333	1	1.020125
11.750000	1	1.018875
11.766667	1	1.018750
11.783333	1	1.019375
11.800000	1	1.021125
11.816667	1	1.023500
11.833333	1	1.027000
11.850000	1	1.030875
11.866667	1	1.034500
11.883333	1	1.038875
11.900000	1	1.043250
11.916667	1	1.048625
11.933333	1	1.054750
11.950000	1	1.060000
11.966667	1	1.066375
11.983333	1	1.072750
12.000000	1	1.080500
12.016667	1	1.088000
12.033333	1	1.095875
12.050000	1	1.103625
12.066667	1	1.111875
12.083333	1	1.119625
12.100000	1	1.127750
12.116667	1	1.135375
12.133333	1	1.142750
12.150000	1	1.149750
12.166667	1	1.156375
12.183333	1	1.163500
12.200000	1	1.170375
12.216667	1	1.177250
12.233333	1	1.184750
12.250000	1	1.193500
12.266667	1	1.203000
12.283333	1	1.214125
12.300000	1	1.226750
12.316667	1	1.241750
12.333333	1	1.259750
12.350000	1	1.282875
12.366667	1	1.313625
12.383333	1	1.354125
12.400000	1	1.408875
12.416667	1	1.483375
12.433333	1	1.584500
12.450000	1	1.719125
12.466667	1	1.894750
12.483333	1	2.117750
12.500000	1	2.394000
12.516667	1	2.724375
12.533333	1	3.108000
12.550000	1	3.538500
12.566667	1	4.006125
12.583333	1	4.498375
12.600000	1	4.997000
12.616667	1	5.485625
12.633333	1	5.945750
12.650000	1	6.360125
12.666667	1	6.713250
12.683333	1	6.993375
12.700000	1	7.193250
12.716667	1	7.309500
12.733333	1	7.343750
12.750000	1	7.301875
12.766667	1	7.191125
12.783333	1	7.024625
12.800000	1	6.814250
12.816667	1	6.571250
12.833333	1	6.307125
12.850000	1	6.030625
12.866667	1	5.748250
12.883333	1	5.465875
12.900000	1	5.188125
12.916667	1	4.918000
12.933333	1	4.659500
12.950000	1	4.414875
12.966667	1	4.186625
12.983333	1	3.976625
13.000000	1	3.784250
13.016667	1	3.611375
13.033333	1	3.455125
13.050000	1	3.315875
13.066667	1	3.190875
13.083333	1	3.078750
13.100000	1	2.978250
13.116667	1	2.888125
13.133333	1	2.805750
13.150000	1	2.730375
13.166667	1	2.661000
13.183333	1	2.597000
13.200000	1	2.537250
13.216667	1	2.481875
13.233333	1	2.429500
13.250000	1	2.380000
13.266667	1	2.331875
13.283333	1	2.286250
13.300000	1	2.242375
13.316667	1	2.201500
13.333333	1	2.161750
13.350000	1	2.123750
13.366667	1	2.088750
13.383333	1	2.055125
13.400000	1	2.024625
13.416667	1	1.996250
13.433333	1	1.971000
13.450000	1	1.947625
13.466667	1	1.926750
13.483333	1	1.908375
13.500000	1	1.892250
13.516667	1	1.878500
13.533333	1	1.866625
13.550000	1	1.856500
13.566667	1	1.846000
13.583333	1	1.836375
13.600000	1	1.825875
13.616667	1	1.815125
13.633333	1	1.802500
13.650000	1	1.788000
13.666667	1	1.771250
13.683333	1	1.753500
13.700000	1	1.733875
13.716667	1	1.713250
13.733333	1	1.691750
13.750000	1	1.669500
13.766667	1	1.647375
13.783333	1	1.625500
13.800000	1	1.604500
13.816667	1	1.583500
13.833333	1	1.563500
13.850000	1	1.543875
13.866667	1	1.525125
13.883333	1	1.508000
13.900000	1	1.491500
13.916667	1	1.475625
13.933333	1	1.460250
13.950000	1	1.445000
13.966667	1	1.431500
13.983333	1	1.418500
14.000000	1	1.406250
14.016667	1	1.393875
14.033333	1	1.382250
14.050000	1	1.371875
14.066667	1	1.361250
14.083333	1	1.350625
14.100000	1	1.340625
14.116667	1	1.331000
14.133333	1	1.322250
14.150000	1	1.313500
14.166667	1	1.304625
14.183333	1	1.297375
14.200000	1	1.290875
14.216667	1	1.286125
14.233333	1	1.281875
14.250000	1	1.278750
14.266667	1	1.277000
14.283333	1	1.277375
14.300000	1	1.278125
14.316667	1	1.281625
14.333333	1	1.286000
14.350000	1	1.292125
14.366667	1	1.301250
14.383333	1	1.313875
14.400000	1	1.329750
14.416667	1	1.351500
14.433333	1	1.382375
14.450000	1	1.426875
14.466667	1	1.494000
14.483333	1	1.595500
14.500000	1	1.748500
14.516667	1	1.975875
14.533333	1	2.308625
14.550000	1	2.785750
14.566667	1	3.456000
14.583333	1	4.373000
14.600000	1	5.598375
14.616667	1	7.196750
14.633333	1	9.231750
14.650000	1	11.752125
14.666667	1	14.790750
14.683333	1	18.345875
14.700000	1	22.381250
14.716667	1	26.817500
14.733333	1	31.540875
14.750000	1	36.395250
14.766667	1	41.192375
14.783333	1	45.722875
14.800000	1	49.783250
14.816667	1	53.180000
14.833333	1	55.754250
14.850000	1	57.388000
14.866667	1	58.020250
14.883333	1	57.650250
14.900000	1	56.335375
14.916667	1	54.185000
14.933333	1	51.343500
14.950000	1	47.978625
14.966667	1	44.263875
14.983333	1	40.366875
15.000000	1	36.428000
15.016667	1	32.569375
15.033333	1	28.882875
15.050000	1	25.436125
15.066667	1	22.271000
15.083333	1	19.409750
15.100000	1	16.857375
15.116667	1	14.604125
15.133333	1	12.632750
15.150000	1	10.918875
15.166667	1	9.439375
15.183333	1	8.167750
15.200000	1	7.079000
15.216667	1	6.149000
15.233333	1	5.360250
15.250000	1	4.693250
15.266667	1	4.133750
15.283333	1	3.667625
15.300000	1	3.283375
15.316667	1	2.969125
15.333333	1	2.716625
15.350000	1	2.516000
15.366667	1	2.360000
15.383333	1	2.240000
15.400000	1	2.149500
15.416667	1	2.083000
15.433333	1	2.033250
15.450000	1	1.994875
15.466667	1	1.963500
15.483333	1	1.935375
15.500000	1	1.907375
15.516667	1	1.877000
15.533333	1	1.844000
15.550000	1	1.807250
15.566667	1	1.766625
15.583333	1	1.723875
15.600000	1	1.679500
15.616667	1	1.634250
15.633333	1	1.589875
15.650000	1	1.546625
15.666667	1	1.505375
15.683333	1	1.467000
15.700000	1	1.432125
15.716667	1	1.399500
15.733333	1	1.369750
15.750000	1	1.342375
15.766667	1	1.317750
15.783333	1	1.295125
15.800000	1	1.275250
15.816667	1	1.256125
15.833333	1	1.240250
15.850000	1	1.226125
15.866667	1	1.213125
15.883333	1	1.202375
15.900000	1	1.193500
15.916667	1	1.186000
15.933333	1	1.180875
15.950000	1	1.176375
15.966667	1	1.173875
15.983333	1	1.173125
16.000000	1	1.173500
16.016667	1	1.175625
16.033333	1	1.177625
16.050000	1	1.180750
16.066667	1	1.184750
16.083333	1	1.188625
16.100000	1	1.192750
16.116667	1	1.196750
16.133333	1	1.200375
16.150000	1	1.204500
16.166667	1	1.207250
16.183333	1	1.210125
16.200000	1	1.212125
16.216667	1	1.212875
16.233333	1	1.212750
16.250000	1	1.211625
16.266667	1	1.209375
16.283333	1	1.206750
16.300000	1	1.203375
16.316667	1	1.199250
16.333333	1	1.195625
16.350000	1	1.192125
16.366667	1	1.188875
16.383333	1	1.186000
16.400000	1	1.184000
16.416667	1	1.183125
16.433333	1	1.183250
16.450000	1	1.184250
16.466667	1	1.184750
16.483333	1	1.186250
16.500000	1	1.187625
16.516667	1	1.188500
16.533333	1	1.189750
16.550000	1	1.189875
16.566667	1	1.189375
16.583333	1	1.188375
16.600000	1	1.186750
16.616667	1	1.184375
16.633333	1	1.182250
16.650000	1	1.180125
16.666667	1	1.177625
16.683333	1	1.175750
16.700000	1	1.175500
16.716667	1	1.176500
16.733333	1	1.178875
16.750000	1	1.182625
16.766667	1	1.187875
16.783333	1	1.194500
16.800000	1	1.201875
16.816667	1	1.209750
16.833333	1	1.217500
16.850000	1	1.224625
16.866667	1	1.230125
16.883333	1	1.234500
16.900000	1	1.237125
16.916667	1	1.237625
16.933333	1	1.236875
16.950000	1	1.233500
16.966667	1	1.228500
16.983333	1	1.221375
17.000000	1	1.213500
17.016667	1	1.204750
17.033333	1	1.194875
17.050000	1	1.184500
17.066667	1	1.174375
17.083333	1	1.164750
17.100000	1	1.155500
17.116667	1	1.146750
17.133333	1	1.138875
17.150000	1	1.130875
17.166667	1	1.124250
17.183333	1	1.118625
17.200000	1	1.113625
17.216667	1	1.109000
17.233333	1	1.105750
17.250000	1	1.103750
17.266667	1	1.101750
17.283333	1	1.100625
17.300000	1	1.100375
17.316667	1	1.101125
17.333333	1	1.103500
17.350000	1	1.106000
17.366667	1	1.109125
17.383333	1	1.111750
17.400000	1	1.114875
17.416667	1	1.117625
17.433333	1	1.120375
17.450000	1	1.121375
17.466667	1	1.122500
17.483333	1	1.122250
17.500000	1	1.121625
17.516667	1	1.120125
17.533333	1	1.117500
17.550000	1	1.113375
17.566667	1	1.108250
17.583333	1	1.102625
17.600000	1	1.095875
17.616667	1	1.088375
17.633333	1	1.080625
17.650000	1	1.073250
17.666667	1	1.065500
17.683333	1	1.057500
17.700000	1	1.049750
17.716667	1	1.042500
17.733333	1	1.034625
17.750000	1	1.027625
17.766667	1	1.020625
17.783333	1	1.014625
17.800000	1	1.008000
17.816667	1	1.002625
17.833333	1	0.997625
17.850000	1	0.992375
17.866667	1	0.987875
17.883333	1	0.983250
17.900000	1	0.977875
17.916667	1	0.972500
17.933333	1	0.967000
17.950000	1	0.961250
17.966667	1	0.955250
17.983333	1	0.949750
18.000000	1	0.943000
18.016667	1	0.936000
18.033333	1	0.929375
18.050000	1	0.921375
18.066667	1	0.914500
18.083333	1	0.907875
18.100000	1	0.901000
18.116667	1	0.894125
18.133333	1	0.888125
18.150000	1	0.881875
18.166667	1	0.877375
18.183333	1	0.872875
18.200000	1	0.868875
18.216667	1	0.865000
18.233333	1	0.861250
18.250000	1	0.857875
18.266667	1	0.854000
18.283333	1	0.850250
18.300000	1	0.846750
18.316667	1	0.843125
18.333333	1	0.839875
18.350000	1	0.836000
18.366667	1	0.832125
18.383333	1	0.829625
18.400000	1	0.827375
18.416667	1	0.825625
18.433333	1	0.825250
18.450000	1	0.824250
18.466667	1	0.824625
18.483333	1	0.826000
18.500000	1	0.828375
18.516667	1	0.830625
18.533333	1	0.833375
18.550000	1	0.837500
18.566667	1	0.841500
18.583333	1	0.845875
18.600000	1	0.850375
18.616667	1	0.855500
18.633333	1	0.861250
18.650000	1	0.866875
18.666667	1	0.872375
18.683333	1	0.877500
18.700000	1	0.882250
18.716667	1	0.887375
18.733333	1	0.891375
18.750000	1	0.895375
18.766667	1	0.898750
18.783333	1	0.901125
18.800000	1	0.902250
18.816667	1	0.903125
18.833333	1	0.903125
18.850000	1	0.901500
18.866667	1	0.899125
18.883333	1	0.894000
18.900000	1	0.888250
18.916667	1	0.880625
18.933333	1	0.872125
18.950000	1	0.862250
18.966667	1	0.851750
18.983333	1	0.839625
19.000000	1	0.827250
19.016667	1	0.813500
19.033333	1	0.800250
19.050000	1	0.787625
19.066667	1	0.775625
19.083333	1	0.765500
19.100000	1	0.756500
19.116667	1	0.751000
19.133333	1	0.748625
19.150000	1	0.751375
19.166667	1	0.759875
19.183333	1	0.775375
19.200000	1	0.798750
19.216667	1	0.831625
19.233333	1	0.874875
19.250000	1	0.929250
19.266667	1	0.995875
19.283333	1	1.075125
19.300000	1	1.167250
19.316667	1	1.272125
19.333333	1	1.387875
19.350000	1	1.513375
19.366667	1	1.646375
19.383333	1	1.783500
19.400000	1	1.922000
19.416667	1	2.057750
19.433333	1	2.187250
19.450000	1	2.306000
19.466667	1	2.411375
19.483333	1	2.500500
19.500000	1	2.570750
19.516667	1	2.620125
19.533333	1	2.646875
19.550000	1	2.652625
19.566667	1	2.638375
19.583333	1	2.603625
19.600000	1	2.550125
19.616667	1	2.482000
19.633333	1	2.401250
19.650000	1	2.310125
19.666667	1	2.212250
19.683333	1	2.109375
19.700000	1	2.004250
19.716667	1	1.899625
19.733333	1	1.796500
19.750000	1	1.696750
19.766667	1	1.599375
19.783333	1	1.507500
19.800000	1	1.420875
19.816667	1	1.340250
19.833333	1	1.266125
19.850000	1	1.198750
19.866667	1	1.138625
19.883333	1	1.085500
19.900000	1	1.041250
19.916667	1	1.005500
19.933333	1	0.979375
19.950000	1	0.963625
19.966667	1	0.960500
19.983333	1	0.970250
20.000000	1	0.994500
20.016667	1	1.034500
20.033333	1	1.091625
20.050000	1	1.166750
20.066667	1	1.261250
20.083333	1	1.375250
20.100000	1	1.506750
20.116667	1	1.655375
20.133333	1	1.819500
20.150000	1	1.995875
20.166667	1	2.180500
20.183333	1	2.369250
20.200000	1	2.556625
20.216667	1	2.737000
20.233333	1	2.903625
20.250000	1	3.052500
20.266667	1	3.178750
20.283333	1	3.277750
20.300000	1	3.346500
20.316667	1	3.383750
20.333333	1	3.388125
20.350000	1	3.360625
20.366667	1	3.302500
20.383333	1	3.217375
20.400000	1	3.108250
20.416667	1	2.980875
20.433333	1	2.839000
20.450000	1	2.688000
20.466667	1	2.532000
20.483333	1	2.375875
20.500000	1	2.223125
20.516667	1	2.078000
20.533333	1	1.943125
20.550000	1	1.820750
20.566667	1	1.711375
20.583333	1	1.617000
20.600000	1	1.539250
20.616667	1	1.478250
20.633333	1	1.434000
20.650000	1	1.406500
20.666667	1	1.395375
20.683333	1	1.399000
20.700000	1	1.415750
20.716667	1	1.444875
20.733333	1	1.483125
20.750000	1	1.528500
20.766667	1	1.579500
20.783333	1	1.632375
20.800000	1	1.683500
20.816667	1	1.731125
20.833333	1	1.772625
20.850000	1	1.806250
20.866667	1	1.830000
20.883333	1	1.841250
20.900000	1	1.839625
20.916667	1	1.826375
20.933333	1	1.800625
20.950000	1	1.764000
20.966667	1	1.716375
20.983333	1	1.660125
21.000000	1	1.598000
21.016667	1	1.531000
21.033333	1	1.460500
21.050000	1	1.388750
21.066667	1	1.317250
21.083333	1	1.247125
21.100000	1	1.179375
21.116667	1	1.114750
21.133333	1	1.054625
21.150000	1	0.999125
21.166667	1	0.947250
21.183333	1	0.900750
21.200000	1	0.857625
21.216667	1	0.819625
21.233333	1	0.785625
21.250000	1	0.755125
21.266667	1	0.728000
21.283333	1	0.704000
21.300000	1	0.682500
21.316667	1	0.663875
21.333333	1	0.648375
21.350000	1	0.634125
21.366667	1	0.622750
21.383333	1	0.612375
21.400000	1	0.603500
21.416667	1	0.596375
21.433333	1	0.590375
21.450000	1	0.585500
21.466667	1	0.582750
21.483333	1	0.580750
21.500000	1	0.580375
21.516667	1	0.581000
21.533333	1	0.583875
21.550000	1	0.588625
21.566667	1	0.595250
21.583333	1	0.603125
21.600000	1	0.613750
21.616667	1	0.626375
21.633333	1	0.642500
21.650000	1	0.661000
21.666667	1	0.683250
21.683333	1	0.708500
21.700000	1	0.736750
21.716667	1	0.767875
21.733333	1	0.801875
21.750000	1	0.838625
21.766667	1	0.877625
21.783333	1	0.917500
21.800000	1	0.958750
21.816667	1	0.999875
21.833333	1	1.041000
21.850000	1	1.081125
21.866667	1	1.117875
21.883333	1	1.151750
21.900000	1	1.181375
21.916667	1	1.208125
21.933333	1	1.230000
21.950000	1	1.245750
21.966667	1	1.257000
21.983333	1	1.262250
22.000000	1	1.262500
22.016667	1	1.257125
22.033333	1	1.247625
22.050000	1	1.233875
22.066667	1	1.216625
22.083333	1	1.195250
22.100000	1	1.171750
22.116667	1	1.146125
22.133333	1	1.119500
22.150000	1	1.090625
22.166667	1	1.061750
22.183333	1	1.031500
22.200000	1	1.001875
22.216667	1	0.971750
22.233333	1	0.942375
22.250000	1	0.913125
22.266667	1	0.884500
22.283333	1	0.856125
22.300000	1	0.828625
22.316667	1	0.802875
22.333333	1	0.778000
22.350000	1	0.753500
22.366667	1	0.729875
22.383333	1	0.707125
22.400000	1	0.684875
22.416667	1	0.664500
22.433333	1	0.645375
22.450000	1	0.627500
22.466667	1	0.610500
22.483333	1	0.595125
22.500000	1	0.581000
22.516667	1	0.567000
22.533333	1	0.554125
22.550000	1	0.542250
22.566667	1	0.531625
22.583333	1	0.521250
22.600000	1	0.511875
22.616667	1	0.503875
22.633333	1	0.496125
22.650000	1	0.488625
22.666667	1	0.481875
22.683333	1	0.475625
22.700000	1	0.470250
22.716667	1	0.464750
22.733333	1	0.459375
22.750000	1	0.455000
22.766667	1	0.450625
22.783333	1	0.446125
22.800000	1	0.442250
22.816667	1	0.438375
22.833333	1	0.434750
22.850000	1	0.431750
22.866667	1	0.429125
22.883333	1	0.427000
22.900000	1	0.424875
22.916667	1	0.423500
22.933333	1	0.422750
22.950000	1	0.422125
22.966667	1	0.422625
22.983333	1	0.422250
23.000000	1	0.422500
23.016667	1	0.422750
23.033333	1	0.424125
23.050000	1	0.425375
23.066667	1	0.427000
23.083333	1	0.428750
23.100000	1	0.430875
23.116667	1	0.432750
23.133333	1	0.434500
23.150000	1	0.436375
23.166667	1	0.439125
23.183333	1	0.441875
23.200000	1	0.443875
23.216667	1	0.445875
23.233333	1	0.448250
23.250000	1	0.450875
23.266667	1	0.454500
23.283333	1	0.459500
23.300000	1	0.466125
23.316667	1	0.474250
23.333333	1	0.486250
23.350000	1	0.501375
23.366667	1	0.520500
23.383333	1	0.546250
23.400000	1	0.579375
23.416667	1	0.621500
23.433333	1	0.674250
23.450000	1	0.739375
23.466667	1	0.818500
23.483333	1	0.913875
23.500000	1	1.027750
23.516667	1	1.161875
23.533333	1	1.318125
23.550000	1	1.496125
23.566667	1	1.697750
23.583333	1	1.922000
23.600000	1	2.168000
23.616667	1	2.434000
23.633333	1	2.716750
23.650000	1	3.012375
23.666667	1	3.317250
23.683333	1	3.626125
23.700000	1	3.932750
23.716667	1	4.232500
23.733333	1	4.517375
23.750000	1	4.781250
23.766667	1	5.017875
23.783333	1	5.221125
23.800000	1	5.387375
23.816667	1	5.513125
23.833333	1	5.594750
23.850000	1	5.632250
23.866667	1	5.625750
23.883333	1	5.577000
23.900000	1	5.486500
23.916667	1	5.359000
23.933333	1	5.197625
23.950000	1	5.007625
23.966667	1	4.793125
23.983333	1	4.560625
24.000000	1	4.315375
24.016667	1	4.061250
24.033333	1	3.803875
24.050000	1	3.546875
24.066667	1	3.294750
24.083333	1	3.049125
24.100000	1	2.813125
24.116667	1	2.586875
24.133333	1	2.373625
24.150000	1	2.173250
24.166667	1	1.987625
24.183333	1	1.815375
24.200000	1	1.657875
24.216667	1	1.513375
24.233333	1	1.382625
24.250000	1	1.263750
24.266667	1	1.157625
24.283333	1	1.061625
24.300000	1	0.976250
24.316667	1	0.900000
24.333333	1	0.833000
24.350000	1	0.774250
24.366667	1	0.723375
24.383333	1	0.678625
24.400000	1	0.641000
24.416667	1	0.608750
24.433333	1	0.581625
24.450000	1	0.559125
24.466667	1	0.540125
24.483333	1	0.525250
24.500000	1	0.513125
24.516667	1	0.503250
24.533333	1	0.495250
24.550000	1	0.489125
24.566667	1	0.484125
24.583333	1	0.480500
24.600000	1	0.477375
24.616667	1	0.474750
24.633333	1	0.472375
24.650000	1	0.470375
24.666667	1	0.468250
24.683333	1	0.466000
24.700000	1	0.463500
24.716667	1	0.461125
24.733333	1	0.458500
24.750000	1	0.455375
24.766667	1	0.452125
24.783333	1	0.448375
24.800000	1	0.445000
24.816667	1	0.440500
24.833333	1	0.436375
24.850000	1	0.432375
24.866667	1	0.428625
24.883333	1	0.425000
24.900000	1	0.421750
24.916667	1	0.418250
24.933333	1	0.414375
24.950000	1	0.410250
24.966667	1	0.407125
24.983333	1	0.404125
25.000000	1	0.401500
25.016667	1	0.398500
25.033333	1	0.395500
25.050000	1	0.393125
25.066667	1	0.391375
25.083333	1	0.389500
25.100000	1	0.387500
25.116667	1	0.385500
25.133333	1	0.383500
25.150000	1	0.382125
25.166667	1	0.380125
25.183333	1	0.378375
25.200000	1	0.376875
25.216667	1	0.375125
25.233333	1	0.374250
25.250000	1	0.373375
25.266667	1	0.372750
25.283333	1	0.372250
25.300000	1	0.371875
25.316667	1	0.373000
25.333333	1	0.372875
25.350000	1	0.373625
25.366667	1	0.374375
25.383333	1	0.375125
25.400000	1	0.376125
25.416667	1	0.377875
25.433333	1	0.380500
25.450000	1	0.382750
25.466667	1	0.385375
25.483333	1	0.388250
25.500000	1	0.390750
25.516667	1	0.393625
25.533333	1	0.397125
25.550000	1	0.399375
25.566667	1	0.401750
25.583333	1	0.403750
25.600000	1	0.405500
25.616667	1	0.407250
25.633333	1	0.409250
25.650000	1	0.410875
25.666667	1	0.412000
25.683333	1	0.411875
25.700000	1	0.411625
25.716667	1	0.411125
25.733333	1	0.409875
25.750000	1	0.408625
25.766667	1	0.406750
25.783333	1	0.403875
25.800000	1	0.401250
25.816667	1	0.398750
25.833333	1	0.395250
25.850000	1	0.391750
25.866667	1	0.388375
25.883333	1	0.385125
25.900000	1	0.381375
25.916667	1	0.377875
25.933333	1	0.373625
25.950000	1	0.369500
25.966667	1	0.366375
25.983333	1	0.363500
26.000000	1	0.360250
26.016667	1	0.357000
26.033333	1	0.354500
26.050000	1	0.351625
26.066667	1	0.349625
26.083333	1	0.348500
26.100000	1	0.347250
26.116667	1	0.347000
26.133333	1	0.345875
26.150000	1	0.345625
26.166667	1	0.345375
26.183333	1	0.345750
26.200000	1	0.346500
26.216667	1	0.347750
26.233333	1	0.349375
26.250000	1	0.350500
26.266667	1	0.352500
26.283333	1	0.354250
26.300000	1	0.356000
26.316667	1	0.358500
26.333333	1	0.360250
26.350000	1	0.361500
26.366667	1	0.363250
26.383333	1	0.364125
26.400000	1	0.365750
26.416667	1	0.366625
26.433333	1	0.367375
26.450000	1	0.368375
26.466667	1	0.368625
26.483333	1	0.368000
26.500000	1	0.368125
26.516667	1	0.367875
26.533333	1	0.366875
26.550000	1	0.365125
26.566667	1	0.364000
26.583333	1	0.362125
26.600000	1	0.360125
26.616667	1	0.358000
26.633333	1	0.355500
26.650000	1	0.353875
26.666667	1	0.352000
26.683333	1	0.349625
26.700000	1	0.347375
26.716667	1	0.345250
26.733333	1	0.343750
26.750000	1	0.342625
26.766667	1	0.341500
26.783333	1	0.340500
26.800000	1	0.339750
26.816667	1	0.338625
26.833333	1	0.338500
26.850000	1	0.337875
26.866667	1	0.338375
26.883333	1	0.338750
26.900000	1	0.339750
26.916667	1	0.340625
26.933333	1	0.342000
26.950000	1	0.343500
26.966667	1	0.345750
26.983333	1	0.348750
27.000000	1	0.351125
27.016667	1	0.353250
27.033333	1	0.356625
27.050000	1	0.360125
27.066667	1	0.364375
27.083333	1	0.369125
27.100000	1	0.374375
27.116667	1	0.379625
27.133333	1	0.384750
27.150000	1	0.390875
27.166667	1	0.397375
27.183333	1	0.405000
27.200000	1	0.414375
27.216667	1	0.424750
27.233333	1	0.436500
27.250000	1	0.451250
27.266667	1	0.467875
27.283333	1	0.488375
27.300000	1	0.512125
27.316667	1	0.540125
27.333333	1	0.573750
27.350000	1	0.613125
27.366667	1	0.659250
27.383333	1	0.713250
27.400000	1	0.776500
27.416667	1	0.849000
27.433333	1	0.933125
27.450000	1	1.028750
27.466667	1	1.137750
27.483333	1	1.259875
27.500000	1	1.395750
27.516667	1	1.546250
27.533333	1	1.711750
27.550000	1	1.892375
27.566667	1	2.086500
27.583333	1	2.293625
27.600000	1	2.513250
27.616667	1	2.743000
27.633333	1	2.982125
27.650000	1	3.228250
27.666667	1	3.478500
27.683333	1	3.730500
27.700000	1	3.980625
27.716667	1	4.224125
27.733333	1	4.458375
27.750000	1	4.679500
27.766667	1	4.884000
27.783333	1	5.068250
27.800000	1	5.230000
27.816667	1	5.365125
27.833333	1	5.472625
27.850000	1	5.549625
27.866667	1	5.595375
27.883333	1	5.608250
27.900000	1	5.589250
27.916667	1	5.538250
27.933333	1	5.456250
27.950000	1	5.345625
27.966667	1	5.209000
27.983333	1	5.049000
28.000000	1	4.868250
28.016667	1	4.672375
28.033333	1	4.461750
28.050000	1	4.241750
28.066667	1	4.014125
28.083333	1	3.783500
28.100000	1	3.552000
28.116667	1	3.323250
28.133333	1	3.099250
28.150000	1	2.882375
28.166667	1	2.673500
28.183333	1	2.474875
28.200000	1	2.286625
28.216667	1	2.109250
28.233333	1	1.943125
28.250000	1	1.788375
28.266667	1	1.644625
28.283333	1	1.512000
28.300000	1	1.390000
28.316667	1	1.278000
28.333333	1	1.176875
28.350000	1	1.084000
28.366667	1	1.000500
28.383333	1	0.924500
28.400000	1	0.855750
28.416667	1	0.793875
28.433333	1	0.739750
28.450000	1	0.690875
28.466667	1	0.646500
28.483333	1	0.607750
28.500000	1	0.573375
28.516667	1	0.543500
28.533333	1	0.516625
28.550000	1	0.493375
28.566667	1	0.473250
28.583333	1	0.456250
28.600000	1	0.441375
28.616667	1	0.429500
28.633333	1	0.419125
28.650000	1	0.410625
28.666667	1	0.403500
28.683333	1	0.398875
28.700000	1	0.394375
28.716667	1	0.390875
28.733333	1	0.387750
28.750000	1	0.386125
28.766667	1	0.384625
28.783333	1	0.384000
28.800000	1	0.383250
28.816667	1	0.383375
28.833333	1	0.383750
28.850000	1	0.383750
28.866667	1	0.384250
28.883333	1	0.384250
28.900000	1	0.384125
28.916667	1	0.383500
28.933333	1	0.382500
28.950000	1	0.381250
28.966667	1	0.379375
28.983333	1	0.377500
29.000000	1	0.375375
29.016667	1	0.372375
29.033333	1	0.368375
29.050000	1	0.363500
29.066667	1	0.357500
29.083333	1	0.351000
29.100000	1	0.344250
29.116667	1	0.335000
29.133333	1	0.325000
29.150000	1	0.313500
29.166667	1	0.301125
29.183333	1	0.287000
29.200000	1	0.271250
29.216667	1	0.254125
29.233333	1	0.235250
29.250000	1	0.214375
29.266667	1	0.191625
29.283333	1	0.167875
29.300000	1	0.142125
29.316667	1	0.114250
29.333333	1	0.084375
29.350000	1	0.052625
29.366667	1	0.019250
29.383333	1	-0.015875
29.400000	1	-0.052875
29.416667	1	-0.090375
29.433333	1	-0.130125
29.450000	1	-0.169750
29.466667	1	-0.210625
29.483333	1	-0.252000
29.500000	1	-0.293500
29.516667	1	-0.335000
29.533333	1	-0.375875
29.550000	1	-0.416375
29.566667	1	-0.455000
29.583333	1	-0.491250
29.600000	1	-0.526750
29.616667	1	-0.559250
29.633333	1	-0.589125
29.650000	1	-0.615625
29.666667	1	-0.639750
29.683333	1	-0.660250
29.700000	1	-0.677375
29.716667	1	-0.691125
29.733333	1	-0.701125
29.750000	1	-0.707375
29.766667	1	-0.709875
29.783333	1	-0.708625
29.800000	1	-0.703125
29.816667	1	-0.695375
29.833333	1	-0.684250
29.850000	1	-0.669750
29.866667	1	-0.652375
29.883333	1	-0.632375
29.900000	1	-0.610000
29.916667	1	-0.585375
29.933333	1	-0.559375
29.950000	1	-0.532375
29.966667	1	-0.504000
29.983333	1	-0.475000
30.000000	1	-0.445125
30.016667	1	-0.414625
30.033333	1	-0.385250
30.050000	1	-0.355250
30.066667	1	-0.325625
30.083333	1	-0.296250
30.100000	1	-0.268750
30.116667	1	-0.241625
30.133333	1	-0.215625
30.150000	1	-0.190125
30.166667	1	-0.166125
30.183333	1	-0.143000
30.200000	1	-0.121125
30.216667	1	-0.100750
30.233333	1	-0.082375
30.250000	1	-0.064250
30.266667	1	-0.047500
30.283333	1	-0.032000
30.300000	1	-0.017875
30.316667	1	-0.004625
30.333333	1	0.007750
30.350000	1	0.019375
30.366667	1	0.030125
30.383333	1	0.040125
30.400000	1	0.049625
30.416667	1	0.057875
30.433333	1	0.066000
30.450000	1	0.073375
30.466667	1	0.080500
30.483333	1	0.087125
30.500000	1	0.093875
30.516667	1	0.099875
30.533333	1	0.106000
30.550000	1	0.112750
30.566667	1	0.118875
30.583333	1	0.125625
30.600000	1	0.132000
30.616667	1	0.138125
30.633333	1	0.145250
30.650000	1	0.152000
30.666667	1	0.159250
30.683333	1	0.166875
30.700000	1	0.174875
30.716667	1	0.183125
30.733333	1	0.191000
30.750000	1	0.200125
30.766667	1	0.209250
30.783333	1	0.218625
30.800000	1	0.227875
30.816667	1	0.238000
30.833333	1	0.248375
30.850000	1	0.259750
30.866667	1	0.271375
30.883333	1	0.284375
30.900000	1	0.297500
30.916667	1	0.311375
30.933333	1	0.325875
30.950000	1	0.342000
30.966667	1	0.359500
30.983333	1	0.379875
31.000000	1	0.402250
31.016667	1	0.426375
31.033333	1	0.454000
31.050000	1	0.484625
31.066667	1	0.518750
31.083333	1	0.557500
31.100000	1	0.601500
31.116667	1	0.651125
31.133333	1	0.706000
31.150000	1	0.767250
31.166667	1	0.835375
31.183333	1	0.910000
31.200000	1	0.992625
31.216667	1	1.082750
31.233333	1	1.180500
31.250000	1	1.286500
31.266667	1	1.398625
31.283333	1	1.518000
31.300000	1	1.643750
31.316667	1	1.774375
31.333333	1	1.910250
31.350000	1	2.050500
31.366667	1	2.192500
31.383333	1	2.335625
31.400000	1	2.479125
31.416667	1	2.620875
31.433333	1	2.758500
31.450000	1	2.891125
31.466667	1	3.017125
31.483333	1	3.134625
31.500000	1	3.242000
31.516667	1	3.338250
31.533333	1	3.421500
31.550000	1	3.491750
31.566667	1	3.546500
31.583333	1	3.587000
31.600000	1	3.612000
31.616667	1	3.621750
31.633333	1	3.616500
31.650000	1	3.595375
31.666667	1	3.559875
31.683333	1	3.510625
31.700000	1	3.448500
31.716667	1	3.374375
31.733333	1	3.290500
31.750000	1	3.197375
31.766667	1	3.095875
31.783333	1	2.987375
31.800000	1	2.873750
31.816667	1	2.755500
31.833333	1	2.634375
31.850000	1	2.511625
31.866667	1	2.388125
31.883333	1	2.266125
31.900000	1	2.145000
31.916667	1	2.025500
31.933333	1	1.909875
31.950000	1	1.797625
31.966667	1	1.688375
31.983333	1	1.583500
32.000000	1	1.483250
32.016667	1	1.387000
32.033333	1	1.295250
32.050000	1	1.208250
32.066667	1	1.125625
32.083333	1	1.048125
32.100000	1	0.975375
32.116667	1	0.907000
32.133333	1	0.843250
32.150000	1	0.783250
32.166667	1	0.727375
32.183333	1	0.675250
32.200000	1	0.626375
32.216667	1	0.580500
32.233333	1	0.538250
32.250000	1	0.499375
32.266667	1	0.462750
32.283333	1	0.428625
32.300000	1	0.397125
32.316667	1	0.368375
32.333333	1	0.341875
32.350000	1	0.317375
32.366667	1	0.295250
32.383333	1	0.275500
32.400000	1	0.255750
32.416667	1	0.237500
32.433333	1	0.221250
32.450000	1	0.205500
32.466667	1	0.191375
32.483333	1	0.178250
32.500000	1	0.166500
32.516667	1	0.155500
32.533333	1	0.145625
32.550000	1	0.137000
32.566667	1	0.128000
32.583333	1	0.119750
32.600000	1	0.111875
32.616667	1	0.105125
32.633333	1	0.099375
32.650000	1	0.093375
32.666667	1	0.087375
32.683333	1	0.082250
32.700000	1	0.077375
32.716667	1	0.073375
32.733333	1	0.069750
32.750000	1	0.066125
32.766667	1	0.062625
32.783333	1	0.059750
32.800000	1	0.056375
32.816667	1	0.053625
32.833333	1	0.051125
32.850000	1	0.048500
32.866667	1	0.046125
32.883333	1	0.044750
32.900000	1	0.043000
32.916667	1	0.041625
32.933333	1	0.040375
32.950000	1	0.039000
32.966667	1	0.037750
32.983333	1	0.037000
33.000000	1	0.036625
33.016667	1	0.036250
33.033333	1	0.035500
33.050000	1	0.034625
33.066667	1	0.033625
33.083333	1	0.033125
33.100000	1	0.033500
33.116667	1	0.032875
33.133333	1	0.032875
33.150000	1	0.033500
33.166667	1	0.033375
33.183333	1	0.034125
33.200000	1	0.034750
33.216667	1	0.035250
33.233333	1	0.036000
33.250000	1	0.036625
33.266667	1	0.037750
33.283333	1	0.040000
33.300000	1	0.042250
33.316667	1	0.044250
33.333333	1	0.046250
33.350000	1	0.048000
33.366667	1	0.050875
33.383333	1	0.053500
33.400000	1	0.056250
33.416667	1	0.058750
33.433333	1	0.061500
33.450000	1	0.065125
33.466667	1	0.068875
33.483333	1	0.072500
33.500000	1	0.076000
33.516667	1	0.079875
33.533333	1	0.083000
33.550000	1	0.087250
33.566667	1	0.090625
33.583333	1	0.094500
33.600000	1	0.097750
33.616667	1	0.101125
33.633333	1	0.104250
33.650000	1	0.107875
33.666667	1	0.110375
33.683333	1	0.113375
33.700000	1	0.115875
33.716667	1	0.118500
33.733333	1	0.120875
33.750000	1	0.123125
33.766667	1	0.125125
33.783333	1	0.126875
33.800000	1	0.128375
33.816667	1	0.129500
33.833333	1	0.130250
33.850000	1	0.130375
33.866667	1	0.130875
33.883333	1	0.130375
33.900000	1	0.130000
33.916667	1	0.130500
33.933333	1	0.129875
33.950000	1	0.128625
33.966667	1	0.127375
33.983333	1	0.126500
34.000000	1	0.124875
34.016667	1	0.122625
34.033333	1	0.120375
34.050000	1	0.118125
34.066667	1	0.115875
34.083333	1	0.113375
34.100000	1	0.111125
34.116667	1	0.109000
34.133333	1	0.105875
34.150000	1	0.103500
34.166667	1	0.101000
34.183333	1	0.098375
34.200000	1	0.096375
34.216667	1	0.094625
34.233333	1	0.092500
34.250000	1	0.091000
34.266667	1	0.089125
34.283333	1	0.087250
34.300000	1	0.086250
34.316667	1	0.085375
34.333333	1	0.084000
34.350000	1	0.084000
34.366667	1	0.084000
34.383333	1	0.084250
34.400000	1	0.084375
34.416667	1	0.084875
34.433333	1	0.085750
34.450000	1	0.086250
34.466667	1	0.087250
34.483333	1	0.088000
34.500000	1	0.089125
34.516667	1	0.090375
34.533333	1	0.091000
34.550000	1	0.092125
34.566667	1	0.093625
34.583333	1	0.095000
34.600000	1	0.096125
34.616667	1	0.096875
34.633333	1	0.098500
34.650000	1	0.099125
34.666667	1	0.100250
34.683333	1	0.101000
34.700000	1	0.102250
34.716667	1	0.103000
34.733333	1	0.103125
34.750000	1	0.103750
34.766667	1	0.103750
34.783333	1	0.103250
34.800000	1	0.102875
34.816667	1	0.102750
34.833333	1	0.102125
34.850000	1	0.101625
34.866667	1	0.100750
34.883333	1	0.100125
34.900000	1	0.098875
34.916667	1	0.098250
34.933333	1	0.097250
34.950000	1	0.096750
34.966667	1	0.096000
34.983333	1	0.095000
35.000000	1	0.093500
35.016667	1	0.092000
35.033333	1	0.091000
35.050000	1	0.090125
35.066667	1	0.088625
35.083333	1	0.087125
35.100000	1	0.086000
35.116667	1	0.085375
35.133333	1	0.084125
35.150000	1	0.083125
35.166667	1	0.082750
35.183333	1	0.082000
35.200000	1	0.081125
35.216667	1	0.080125
35.233333	1	0.079750
35.250000	1	0.079250
35.266667	1	0.079000
35.283333	1	0.078375
35.300000	1	0.078375
35.316667	1	0.077750
35.333333	1	0.078000
35.350000	1	0.078125
35.366667	1	0.078625
35.383333	1	0.078750
35.400000	1	0.079875
35.416667	1	0.080625
35.433333	1	0.080625
35.450000	1	0.081250
35.466667	1	0.081875
35.483333	1	0.083250
35.500000	1	0.084375
35.516667	1	0.085500
35.533333	1	0.087000
35.550000	1	0.088875
35.566667	1	0.089875
35.583333	1	0.091500
35.600000	1	0.093125
35.616667	1	0.095375
35.633333	1	0.097000
35.650000	1	0.099250
35.666667	1	0.101000
35.683333	1	0.102500
35.700000	1	0.103750
35.716667	1	0.105250
35.733333	1	0.107750
35.750000	1	0.110000
35.766667	1	0.111375
35.783333	1	0.114000
35.800000	1	0.114875
35.816667	1	0.116375
35.833333	1	0.118625
35.850000	1	0.120250
35.866667	1	0.121375
35.883333	1	0.122250
35.900000	1	0.123500
35.916667	1	0.124000
35.933333	1	0.125000
35.950000	1	0.126500
35.966667	1	0.127500
35.983333	1	0.127250
36.000000	1	0.127375
36.016667	1	0.127250
36.033333	1	0.128000
36.050000	1	0.127625
36.066667	1	0.126875
36.083333	1	0.126625
36.100000	1	0.126375
36.116667	1	0.125875
36.133333	1	0.125750
36.150000	1	0.125375
36.166667	1	0.124875
36.183333	1	0.123750
36.200000	1	0.123750
36.216667	1	0.122750
36.233333	1	0.121875
36.250000	1	0.121875
36.266667	1	0.121375
36.283333	1	0.120875
36.300000	1	0.120000
36.316667	1	0.119000
36.333333	1	0.118250
36.350000	1	0.117875
36.366667	1	0.117500
36.383333	1	0.117500
36.400000	1	0.116625
36.416667	1	0.115875
36.433333	1	0.115250
36.450000	1	0.114875
36.466667	1	0.114125
36.483333	1	0.113625
36.500000	1	0.113000
36.516667	1	0.111250
36.533333	1	0.110625
36.550000	1	0.109250
36.566667	1	0.108125
36.583333	1	0.106875
36.600000	1	0.106000
36.616667	1	0.104000
36.633333	1	0.102750
36.650000	1	0.100750
36.666667	1	0.099000
36.683333	1	0.097000
36.700000	1	0.094875
36.716667	1	0.093250
36.733333	1	0.091125
36.750000	1	0.088000
36.766667	1	0.085750
36.783333	1	0.082000
36.800000	1	0.078875
36.816667	1	0.075500
36.833333	1	0.072375
36.850000	1	0.069125
36.866667	1	0.065750
36.883333	1	0.062625
36.900000	1	0.059375
36.916667	1	0.056750
36.933333	1	0.053875
36.950000	1	0.050750
36.966667	1	0.047625
36.983333	1	0.045000
37.000000	1	0.042375
37.016667	1	0.039500
37.033333	1	0.037125
37.050000	1	0.035500
37.066667	1	0.033000
37.083333	1	0.031875
37.100000	1	0.030250
37.116667	1	0.029375
37.133333	1	0.028375
37.150000	1	0.027875
37.166667	1	0.027250
37.183333	1	0.026625
37.200000	1	0.025625
37.216667	1	0.025625
37.233333	1	0.025500
37.250000	1	0.026125
37.266667	1	0.026375
37.283333	1	0.026750
37.300000	1	0.027375
37.316667	1	0.027500
37.333333	1	0.027875
37.350000	1	0.028000
37.366667	1	0.028125
37.383333	1	0.028375
37.400000	1	0.028375
37.416667	1	0.028250
37.433333	1	0.028250
37.450000	1	0.028125
37.466667	1	0.027875
37.483333	1	0.027875
37.500000	1	0.027750
37.516667	1	0.027250
37.533333	1	0.027000
37.550000	1	0.025875
37.566667	1	0.025000
37.583333	1	0.024250
37.600000	1	0.023500
37.616667	1	0.022625
37.633333	1	0.021250
37.650000	1	0.019875
37.666667	1	0.018750
37.683333	1	0.017875
37.700000	1	0.016875
37.716667	1	0.015500
37.733333	1	0.014750
37.750000	1	0.013625
37.766667	1	0.012375
37.783333	1	0.011250
37.800000	1	0.009625
37.816667	1	0.007625
37.833333	1	0.005750
37.850000	1	0.005000
37.866667	1	0.003500
37.883333	1	0.002000
37.900000	1	0.001375
37.916667	1	-0.000250
37.933333	1	-0.000750
37.950000	1	-0.001125
37.966667	1	-0.001750
37.983333	1	-0.002375
38.000000	1	-0.002500
38.016667	1	-0.002375
38.033333	1	-0.002750
38.050000	1	-0.002875
38.066667	1	-0.003000
38.083333	1	-0.002750
38.100000	1	-0.001500
38.116667	1	-0.001000
38.133333	1	-0.000500
38.150000	1	0.000125
38.166667	1	0.000750
38.183333	1	0.001500
38.200000	1	0.003375
38.216667	1	0.003750
38.233333	1	0.004750
38.250000	1	0.005750
38.266667	1	0.007750
38.283333	1	0.008750
38.300000	1	0.009375
38.316667	1	0.010000
38.333333	1	0.010500
38.350000	1	0.011000
38.366667	1	0.011500
38.383333	1	0.012375
38.400000	1	0.013375
38.416667	1	0.014000
38.433333	1	0.013875
38.450000	1	0.013750
38.466667	1	0.013750
38.483333	1	0.013875
38.500000	1	0.013500
38.516667	1	0.013625
38.533333	1	0.012750
38.550000	1	0.012000
38.566667	1	0.011500
38.583333	1	0.011250
38.600000	1	0.010375
38.616667	1	0.010375
38.633333	1	0.009875
38.650000	1	0.009250
38.666667	1	0.009250
38.683333	1	0.008375
38.700000	1	0.007875
38.716667	1	0.006750
38.733333	1	0.006625
38.750000	1	0.006000
38.766667	1	0.006000
38.783333	1	0.005875
38.800000	1	0.006250
38.816667	1	0.006500
38.833333	1	0.006875
38.850000	1	0.007125
38.866667	1	0.007125
38.883333	1	0.007500
38.900000	1	0.008125
38.916667	1	0.008625
38.933333	1	0.008750
38.950000	1	0.009125
38.966667	1	0.010250
38.983333	1	0.011250
39.000000	1	0.011250
39.016667	1	0.011500
39.033333	1	0.011500
39.050000	1	0.012625
39.066667	1	0.013750
39.083333	1	0.013875
39.100000	1	0.014250
39.116667	1	0.014875
39.133333	1	0.014875
39.150000	1	0.015000
39.166667	1	0.015375
39.183333	1	0.015375
39.200000	1	0.015750
39.216667	1	0.015000
39.233333	1	0.014125
39.250000	1	0.014125
39.266667	1	0.013125
39.283333	1	0.013125
39.300000	1	0.012375
39.316667	1	0.011625
39.333333	1	0.011000
39.350000	1	0.009375
39.366667	1	0.008375
39.383333	1	0.007750
39.400000	1	0.006625
39.416667	1	0.005750
39.433333	1	0.004875
39.450000	1	0.004250
39.466667	1	0.003500
39.483333	1	0.003125
39.500000	1	0.002250
39.516667	1	0.001375
39.533333	1	0.000250
39.550000	1	-0.001250
39.566667	1	-0.002875
39.583333	1	-0.003750
39.600000	1	-0.005000
39.616667	1	-0.006375
39.633333	1	-0.007625
39.650000	1	-0.008875
39.666667	1	-0.009500
39.683333	1	-0.010750
39.700000	1	-0.011750
39.716667	1	-0.013375
39.733333	1	-0.015125
39.750000	1	-0.017000
39.766667	1	-0.018125
39.783333	1	-0.020000
39.800000	1	-0.021750
39.816667	1	-0.023750
39.833333	1	-0.026250
39.850000	1	-0.027750
39.866667	1	-0.030875
39.883333	1	-0.033375
39.900000	1	-0.035500
39.916667	1	-0.038000
39.933333	1	-0.040750
39.950000	1	-0.043375
39.966667	1	-0.046500
39.983333	1	-0.049375
40.000000	1	-0.052125
