URL	chrom://7040-86g6c92/XVault/Ultimate_3000/20/20240517_CMO_FP23_FP25_MarkusDeplate.seq/100.smp/RI_1.channel/RI_1.chm
Channel	RI_1

Injection Information:
Data Vault	XVault
Sequence	20240517_CMO_FP23_FP25_MarkusDeplate
Name	FP28_22.1_s1
Number	136
Position	BA2
Comment	
Processing Method	
Instrument Method	run_25B_method
Type	Unknown
Status	Finished
Inject Time	31.05.2024 15:59:42 +02:00
Volume (µl)	20.0000
Dilution Factor	1.0000
Weight	1.0000

Chromatogram Data Information:
Time Min. (min)	0.000000
Time Max. (min)	40.000000
Data Points	2401
Detector	RI
Generating Data System	Chromeleon 7.3.2.11814
Exporting Data System	Chromeleon 7.3.2.0
Operator	Instrument Controller
Signal Quantity	Refractive 
Signal Unit	µRIU
Signal Min.	-1.450125
Signal Max.	55.814625
Channel	RI_1
Driver Name	RID520Driver.dll
Channel Type	Evaluation
Min. Step (s)	1
Max. Step (s)	1
Average Step (s)	1

Signal Parameter Information:
Signal Info	

Chromatogram Data:
Time (min)	Step (s)	Value (µRIU)
0.000000	n.a.	0.007875
0.016667	1	0.009125
0.033333	1	0.010500
0.050000	1	0.012250
0.066667	1	0.013875
0.083333	1	0.016625
0.100000	1	0.019000
0.116667	1	0.021375
0.133333	1	0.024125
0.150000	1	0.026250
0.166667	1	0.029375
0.183333	1	0.032500
0.200000	1	0.035375
0.216667	1	0.038125
0.233333	1	0.040875
0.250000	1	0.043750
0.266667	1	0.046375
0.283333	1	0.049750
0.300000	1	0.052625
0.316667	1	0.055500
0.333333	1	0.058375
0.350000	1	0.060375
0.366667	1	0.062000
0.383333	1	0.064125
0.400000	1	0.065500
0.416667	1	0.067250
0.433333	1	0.069250
0.450000	1	0.071625
0.466667	1	0.073250
0.483333	1	0.074375
0.500000	1	0.075250
0.516667	1	0.075750
0.533333	1	0.075500
0.550000	1	0.075375
0.566667	1	0.075125
0.583333	1	0.074500
0.600000	1	0.072625
0.616667	1	0.071375
0.633333	1	0.069625
0.650000	1	0.067875
0.666667	1	0.065625
0.683333	1	0.063500
0.700000	1	0.060750
0.716667	1	0.058875
0.733333	1	0.056375
0.750000	1	0.053250
0.766667	1	0.049875
0.783333	1	0.046625
0.800000	1	0.043000
0.816667	1	0.039375
0.833333	1	0.036250
0.850000	1	0.032625
0.866667	1	0.029250
0.883333	1	0.026000
0.900000	1	0.023125
0.916667	1	0.019750
0.933333	1	0.016625
0.950000	1	0.013750
0.966667	1	0.010875
0.983333	1	0.007625
1.000000	1	0.005000
1.016667	1	0.002375
1.033333	1	-0.000625
1.050000	1	-0.002750
1.066667	1	-0.004875
1.083333	1	-0.007250
1.100000	1	-0.009000
1.116667	1	-0.011750
1.133333	1	-0.013750
1.150000	1	-0.015250
1.166667	1	-0.017000
1.183333	1	-0.019375
1.200000	1	-0.021000
1.216667	1	-0.022750
1.233333	1	-0.023750
1.250000	1	-0.024250
1.266667	1	-0.025375
1.283333	1	-0.026625
1.300000	1	-0.027375
1.316667	1	-0.028250
1.333333	1	-0.028875
1.350000	1	-0.028875
1.366667	1	-0.028500
1.383333	1	-0.028125
1.400000	1	-0.027625
1.416667	1	-0.026625
1.433333	1	-0.025875
1.450000	1	-0.024750
1.466667	1	-0.023125
1.483333	1	-0.021875
1.500000	1	-0.020000
1.516667	1	-0.018250
1.533333	1	-0.016625
1.550000	1	-0.015000
1.566667	1	-0.013125
1.583333	1	-0.011000
1.600000	1	-0.009000
1.616667	1	-0.007750
1.633333	1	-0.006250
1.650000	1	-0.003750
1.666667	1	-0.001750
1.683333	1	0.000375
1.700000	1	0.001875
1.716667	1	0.003625
1.733333	1	0.006000
1.750000	1	0.007750
1.766667	1	0.008875
1.783333	1	0.010250
1.800000	1	0.011750
1.816667	1	0.013000
1.833333	1	0.014250
1.850000	1	0.015625
1.866667	1	0.016375
1.883333	1	0.017500
1.900000	1	0.018750
1.916667	1	0.020250
1.933333	1	0.020875
1.950000	1	0.021875
1.966667	1	0.022500
1.983333	1	0.022875
2.000000	1	0.023250
2.016667	1	0.024000
2.033333	1	0.024625
2.050000	1	0.025875
2.066667	1	0.026750
2.083333	1	0.027625
2.100000	1	0.028500
2.116667	1	0.028750
2.133333	1	0.029500
2.150000	1	0.030000
2.166667	1	0.030250
2.183333	1	0.030500
2.200000	1	0.030625
2.216667	1	0.031000
2.233333	1	0.031125
2.250000	1	0.031125
2.266667	1	0.030625
2.283333	1	0.030250
2.300000	1	0.029625
2.316667	1	0.028375
2.333333	1	0.027875
2.350000	1	0.026875
2.366667	1	0.025750
2.383333	1	0.024625
2.400000	1	0.023625
2.416667	1	0.022375
2.433333	1	0.021125
2.450000	1	0.019375
2.466667	1	0.018000
2.483333	1	0.016125
2.500000	1	0.014500
2.516667	1	0.013000
2.533333	1	0.011250
2.550000	1	0.009375
2.566667	1	0.008375
2.583333	1	0.007125
2.600000	1	0.005250
2.616667	1	0.003750
2.633333	1	0.002625
2.650000	1	0.001875
2.666667	1	0.000500
2.683333	1	-0.000875
2.700000	1	-0.001750
2.716667	1	-0.002000
2.733333	1	-0.001750
2.750000	1	-0.001375
2.766667	1	-0.001375
2.783333	1	-0.000875
2.800000	1	-0.000125
2.816667	1	0.000750
2.833333	1	0.001250
2.850000	1	0.001875
2.866667	1	0.002000
2.883333	1	0.003625
2.900000	1	0.004875
2.916667	1	0.005500
2.933333	1	0.006750
2.950000	1	0.008000
2.966667	1	0.009500
2.983333	1	0.010250
3.000000	1	0.011375
3.016667	1	0.012125
3.033333	1	0.012750
3.050000	1	0.013750
3.066667	1	0.014875
3.083333	1	0.015125
3.100000	1	0.015375
3.116667	1	0.016375
3.133333	1	0.016500
3.150000	1	0.017500
3.166667	1	0.017750
3.183333	1	0.018500
3.200000	1	0.018750
3.216667	1	0.018750
3.233333	1	0.018625
3.250000	1	0.019125
3.266667	1	0.019375
3.283333	1	0.019125
3.300000	1	0.019125
3.316667	1	0.019750
3.333333	1	0.020625
3.350000	1	0.021000
3.366667	1	0.021875
3.383333	1	0.022625
3.400000	1	0.023125
3.416667	1	0.024000
3.433333	1	0.024750
3.450000	1	0.025250
3.466667	1	0.025750
3.483333	1	0.026375
3.500000	1	0.027875
3.516667	1	0.028875
3.533333	1	0.029625
3.550000	1	0.031125
3.566667	1	0.032250
3.583333	1	0.033125
3.600000	1	0.033875
3.616667	1	0.035250
3.633333	1	0.036250
3.650000	1	0.036625
3.666667	1	0.038250
3.683333	1	0.039750
3.700000	1	0.041125
3.716667	1	0.042250
3.733333	1	0.043875
3.750000	1	0.044125
3.766667	1	0.044875
3.783333	1	0.045875
3.800000	1	0.047375
3.816667	1	0.048000
3.833333	1	0.048750
3.850000	1	0.049500
3.866667	1	0.049375
3.883333	1	0.049625
3.900000	1	0.049750
3.916667	1	0.050000
3.933333	1	0.050000
3.950000	1	0.050125
3.966667	1	0.049875
3.983333	1	0.049125
4.000000	1	0.048625
4.016667	1	0.048375
4.033333	1	0.048250
4.050000	1	0.048125
4.066667	1	0.047750
4.083333	1	0.047375
4.100000	1	0.046625
4.116667	1	0.046500
4.133333	1	0.045875
4.150000	1	0.045375
4.166667	1	0.045125
4.183333	1	0.044875
4.200000	1	0.044625
4.216667	1	0.044375
4.233333	1	0.044000
4.250000	1	0.043375
4.266667	1	0.042375
4.283333	1	0.042250
4.300000	1	0.041875
4.316667	1	0.042000
4.333333	1	0.041500
4.350000	1	0.041375
4.366667	1	0.041375
4.383333	1	0.041250
4.400000	1	0.041750
4.416667	1	0.041750
4.433333	1	0.042000
4.450000	1	0.041500
4.466667	1	0.041875
4.483333	1	0.041875
4.500000	1	0.041375
4.516667	1	0.041375
4.533333	1	0.041375
4.550000	1	0.042000
4.566667	1	0.041875
4.583333	1	0.042875
4.600000	1	0.043375
4.616667	1	0.043625
4.633333	1	0.044375
4.650000	1	0.045125
4.666667	1	0.046875
4.683333	1	0.047875
4.700000	1	0.048625
4.716667	1	0.050125
4.733333	1	0.051500
4.750000	1	0.053250
4.766667	1	0.055125
4.783333	1	0.056875
4.800000	1	0.059625
4.816667	1	0.061875
4.833333	1	0.064375
4.850000	1	0.066250
4.866667	1	0.068625
4.883333	1	0.071500
4.900000	1	0.073625
4.916667	1	0.075875
4.933333	1	0.078125
4.950000	1	0.081000
4.966667	1	0.084250
4.983333	1	0.087625
5.000000	1	0.090625
5.016667	1	0.093750
5.033333	1	0.097250
5.050000	1	0.100125
5.066667	1	0.103375
5.083333	1	0.106250
5.100000	1	0.109750
5.116667	1	0.112875
5.133333	1	0.116500
5.150000	1	0.119500
5.166667	1	0.123750
5.183333	1	0.127250
5.200000	1	0.130375
5.216667	1	0.133625
5.233333	1	0.137375
5.250000	1	0.140500
5.266667	1	0.143750
5.283333	1	0.146875
5.300000	1	0.150375
5.316667	1	0.153750
5.333333	1	0.156625
5.350000	1	0.160375
5.366667	1	0.163250
5.383333	1	0.166500
5.400000	1	0.169000
5.416667	1	0.172625
5.433333	1	0.175000
5.450000	1	0.177625
5.466667	1	0.180500
5.483333	1	0.182875
5.500000	1	0.185375
5.516667	1	0.188000
5.533333	1	0.190375
5.550000	1	0.192375
5.566667	1	0.194000
5.583333	1	0.196000
5.600000	1	0.197750
5.616667	1	0.199375
5.633333	1	0.201875
5.650000	1	0.203500
5.666667	1	0.204750
5.683333	1	0.206375
5.700000	1	0.207250
5.716667	1	0.208625
5.733333	1	0.210375
5.750000	1	0.211625
5.766667	1	0.212250
5.783333	1	0.213125
5.800000	1	0.214000
5.816667	1	0.214750
5.833333	1	0.215875
5.850000	1	0.215500
5.866667	1	0.215875
5.883333	1	0.216750
5.900000	1	0.216625
5.916667	1	0.216250
5.933333	1	0.216000
5.950000	1	0.215250
5.966667	1	0.214875
5.983333	1	0.214500
6.000000	1	0.213625
6.016667	1	0.212375
6.033333	1	0.211500
6.050000	1	0.210875
6.066667	1	0.209250
6.083333	1	0.208000
6.100000	1	0.206500
6.116667	1	0.204000
6.133333	1	0.202625
6.150000	1	0.201375
6.166667	1	0.198750
6.183333	1	0.197125
6.200000	1	0.194500
6.216667	1	0.192625
6.233333	1	0.190500
6.250000	1	0.188625
6.266667	1	0.186375
6.283333	1	0.183375
6.300000	1	0.181000
6.316667	1	0.178750
6.333333	1	0.176500
6.350000	1	0.174875
6.366667	1	0.172875
6.383333	1	0.171125
6.400000	1	0.169500
6.416667	1	0.166875
6.433333	1	0.165125
6.450000	1	0.163250
6.466667	1	0.162000
6.483333	1	0.160250
6.500000	1	0.159000
6.516667	1	0.157125
6.533333	1	0.156000
6.550000	1	0.155375
6.566667	1	0.154375
6.583333	1	0.153125
6.600000	1	0.152125
6.616667	1	0.151250
6.633333	1	0.150750
6.650000	1	0.150250
6.666667	1	0.149125
6.683333	1	0.148500
6.700000	1	0.147375
6.716667	1	0.146500
6.733333	1	0.146000
6.750000	1	0.145000
6.766667	1	0.143500
6.783333	1	0.142125
6.800000	1	0.141125
6.816667	1	0.139750
6.833333	1	0.138000
6.850000	1	0.136250
6.866667	1	0.134500
6.883333	1	0.134000
6.900000	1	0.132125
6.916667	1	0.130750
6.933333	1	0.129125
6.950000	1	0.128125
6.966667	1	0.126875
6.983333	1	0.125625
7.000000	1	0.124250
7.016667	1	0.123750
7.033333	1	0.123125
7.050000	1	0.123250
7.066667	1	0.123125
7.083333	1	0.123000
7.100000	1	0.122375
7.116667	1	0.122625
7.133333	1	0.123125
7.150000	1	0.124000
7.166667	1	0.125250
7.183333	1	0.126500
7.200000	1	0.128250
7.216667	1	0.129125
7.233333	1	0.131000
7.250000	1	0.132875
7.266667	1	0.134500
7.283333	1	0.136500
7.300000	1	0.139375
7.316667	1	0.142250
7.333333	1	0.145250
7.350000	1	0.147750
7.366667	1	0.151125
7.383333	1	0.154875
7.400000	1	0.157375
7.416667	1	0.159750
7.433333	1	0.162500
7.450000	1	0.164750
7.466667	1	0.167625
7.483333	1	0.170000
7.500000	1	0.172500
7.516667	1	0.175250
7.533333	1	0.177625
7.550000	1	0.180375
7.566667	1	0.182000
7.583333	1	0.184500
7.600000	1	0.186625
7.616667	1	0.188375
7.633333	1	0.189750
7.650000	1	0.190875
7.666667	1	0.191875
7.683333	1	0.193000
7.700000	1	0.193750
7.716667	1	0.193750
7.733333	1	0.193250
7.750000	1	0.193625
7.766667	1	0.193375
7.783333	1	0.192875
7.800000	1	0.191750
7.816667	1	0.190125
7.833333	1	0.188375
7.850000	1	0.186750
7.866667	1	0.184500
7.883333	1	0.181750
7.900000	1	0.179500
7.916667	1	0.176125
7.933333	1	0.173375
7.950000	1	0.169375
7.966667	1	0.165125
7.983333	1	0.160875
8.000000	1	0.156500
8.016667	1	0.151250
8.033333	1	0.145625
8.050000	1	0.140250
8.066667	1	0.136000
8.083333	1	0.130125
8.100000	1	0.124250
8.116667	1	0.118375
8.133333	1	0.112750
8.150000	1	0.107375
8.166667	1	0.101875
8.183333	1	0.096750
8.200000	1	0.091500
8.216667	1	0.086500
8.233333	1	0.081125
8.250000	1	0.076750
8.266667	1	0.072125
8.283333	1	0.067750
8.300000	1	0.063875
8.316667	1	0.060750
8.333333	1	0.057375
8.350000	1	0.054750
8.366667	1	0.052125
8.383333	1	0.050250
8.400000	1	0.048000
8.416667	1	0.045875
8.433333	1	0.044500
8.450000	1	0.043250
8.466667	1	0.042250
8.483333	1	0.041375
8.500000	1	0.041375
8.516667	1	0.040750
8.533333	1	0.040250
8.550000	1	0.039875
8.566667	1	0.039625
8.583333	1	0.039750
8.600000	1	0.040250
8.616667	1	0.040250
8.633333	1	0.040875
8.650000	1	0.041500
8.666667	1	0.042375
8.683333	1	0.043000
8.700000	1	0.044000
8.716667	1	0.044125
8.733333	1	0.044625
8.750000	1	0.045500
8.766667	1	0.046375
8.783333	1	0.047250
8.800000	1	0.048500
8.816667	1	0.049250
8.833333	1	0.050125
8.850000	1	0.051625
8.866667	1	0.053250
8.883333	1	0.054375
8.900000	1	0.055625
8.916667	1	0.057250
8.933333	1	0.058750
8.950000	1	0.060500
8.966667	1	0.062250
8.983333	1	0.063750
9.000000	1	0.065125
9.016667	1	0.067000
9.033333	1	0.068750
9.050000	1	0.070375
9.066667	1	0.071625
9.083333	1	0.073875
9.100000	1	0.075625
9.116667	1	0.078000
9.133333	1	0.080125
9.150000	1	0.082875
9.166667	1	0.084750
9.183333	1	0.086875
9.200000	1	0.087750
9.216667	1	0.089500
9.233333	1	0.091125
9.250000	1	0.092375
9.266667	1	0.093875
9.283333	1	0.094750
9.300000	1	0.095750
9.316667	1	0.096375
9.333333	1	0.097750
9.350000	1	0.097625
9.366667	1	0.097875
9.383333	1	0.098500
9.400000	1	0.099000
9.416667	1	0.099125
9.433333	1	0.098750
9.450000	1	0.098000
9.466667	1	0.097375
9.483333	1	0.096625
9.500000	1	0.096125
9.516667	1	0.096125
9.533333	1	0.094875
9.550000	1	0.094000
9.566667	1	0.093750
9.583333	1	0.092750
9.600000	1	0.091875
9.616667	1	0.090625
9.633333	1	0.089375
9.650000	1	0.088000
9.666667	1	0.086875
9.683333	1	0.086375
9.700000	1	0.086125
9.716667	1	0.085875
9.733333	1	0.085375
9.750000	1	0.085250
9.766667	1	0.085125
9.783333	1	0.085750
9.800000	1	0.085875
9.816667	1	0.085875
9.833333	1	0.086500
9.850000	1	0.087250
9.866667	1	0.088500
9.883333	1	0.089000
9.900000	1	0.089625
9.916667	1	0.090625
9.933333	1	0.090750
9.950000	1	0.090875
9.966667	1	0.090750
9.983333	1	0.090625
10.000000	1	0.089875
10.016667	1	0.089000
10.033333	1	0.088250
10.050000	1	0.087000
10.066667	1	0.085625
10.083333	1	0.084000
10.100000	1	0.082875
10.116667	1	0.082625
10.133333	1	0.083750
10.150000	1	0.084500
10.166667	1	0.087250
10.183333	1	0.091000
10.200000	1	0.096500
10.216667	1	0.103125
10.233333	1	0.112250
10.250000	1	0.124000
10.266667	1	0.138375
10.283333	1	0.156125
10.300000	1	0.176250
10.316667	1	0.198750
10.333333	1	0.223375
10.350000	1	0.250000
10.366667	1	0.276625
10.383333	1	0.301500
10.400000	1	0.322750
10.416667	1	0.339125
10.433333	1	0.350250
10.450000	1	0.357625
10.466667	1	0.367250
10.483333	1	0.390250
10.500000	1	0.445875
10.516667	1	0.565000
10.533333	1	0.789250
10.550000	1	1.170875
10.566667	1	1.769625
10.583333	1	2.647750
10.600000	1	3.864750
10.616667	1	5.469125
10.633333	1	7.494125
10.650000	1	9.954250
10.666667	1	12.849875
10.683333	1	16.162000
10.700000	1	19.854250
10.716667	1	23.865750
10.733333	1	28.107375
10.750000	1	32.454750
10.766667	1	36.737875
10.783333	1	40.733125
10.800000	1	44.166250
10.816667	1	46.724125
10.833333	1	48.108125
10.850000	1	48.098500
10.866667	1	46.627875
10.883333	1	43.815000
10.900000	1	39.958250
10.916667	1	35.462625
10.933333	1	30.747500
10.950000	1	26.161625
10.966667	1	21.946875
10.983333	1	18.229625
11.000000	1	15.052375
11.016667	1	12.402500
11.033333	1	10.235625
11.050000	1	8.489750
11.066667	1	7.098750
11.083333	1	5.998875
11.100000	1	5.133125
11.116667	1	4.451375
11.133333	1	3.910375
11.150000	1	3.480375
11.166667	1	3.135375
11.183333	1	2.855250
11.200000	1	2.624500
11.216667	1	2.432625
11.233333	1	2.270250
11.250000	1	2.132625
11.266667	1	2.013500
11.283333	1	1.909250
11.300000	1	1.817500
11.316667	1	1.736375
11.333333	1	1.664750
11.350000	1	1.600625
11.366667	1	1.544125
11.383333	1	1.493125
11.400000	1	1.448625
11.416667	1	1.408625
11.433333	1	1.373125
11.450000	1	1.341250
11.466667	1	1.312250
11.483333	1	1.286500
11.500000	1	1.263375
11.516667	1	1.241250
11.533333	1	1.221750
11.550000	1	1.203500
11.566667	1	1.187500
11.583333	1	1.172125
11.600000	1	1.158000
11.616667	1	1.145500
11.633333	1	1.134000
11.650000	1	1.123500
11.666667	1	1.114250
11.683333	1	1.106750
11.700000	1	1.100375
11.716667	1	1.094000
11.733333	1	1.089875
11.750000	1	1.087250
11.766667	1	1.085625
11.783333	1	1.085500
11.800000	1	1.085875
11.816667	1	1.087125
11.833333	1	1.088875
11.850000	1	1.090500
11.866667	1	1.092625
11.883333	1	1.094750
11.900000	1	1.096625
11.916667	1	1.098625
11.933333	1	1.101250
11.950000	1	1.103750
11.966667	1	1.106500
11.983333	1	1.109500
12.000000	1	1.112750
12.016667	1	1.116375
12.033333	1	1.120500
12.050000	1	1.126125
12.066667	1	1.132250
12.083333	1	1.138250
12.100000	1	1.145250
12.116667	1	1.152125
12.133333	1	1.160125
12.150000	1	1.168125
12.166667	1	1.177000
12.183333	1	1.186750
12.200000	1	1.197125
12.216667	1	1.209000
12.233333	1	1.222250
12.250000	1	1.236625
12.266667	1	1.254250
12.283333	1	1.274375
12.300000	1	1.298250
12.316667	1	1.326500
12.333333	1	1.360625
12.350000	1	1.403250
12.366667	1	1.455000
12.383333	1	1.518000
12.400000	1	1.596875
12.416667	1	1.693500
12.433333	1	1.812875
12.450000	1	1.959000
12.466667	1	2.138250
12.483333	1	2.356000
12.500000	1	2.614875
12.516667	1	2.919000
12.533333	1	3.268375
12.550000	1	3.660875
12.566667	1	4.090625
12.583333	1	4.549250
12.600000	1	5.024500
12.616667	1	5.501125
12.633333	1	5.962375
12.650000	1	6.391000
12.666667	1	6.770500
12.683333	1	7.085625
12.700000	1	7.322125
12.716667	1	7.473500
12.733333	1	7.536625
12.750000	1	7.513625
12.766667	1	7.413250
12.783333	1	7.243375
12.800000	1	7.017250
12.816667	1	6.746375
12.833333	1	6.444000
12.850000	1	6.119875
12.866667	1	5.785000
12.883333	1	5.446375
12.900000	1	5.113500
12.916667	1	4.792125
12.933333	1	4.487625
12.950000	1	4.204375
12.966667	1	3.944875
12.983333	1	3.710875
13.000000	1	3.501000
13.016667	1	3.316000
13.033333	1	3.152625
13.050000	1	3.010250
13.066667	1	2.885625
13.083333	1	2.777250
13.100000	1	2.682250
13.116667	1	2.598000
13.133333	1	2.523000
13.150000	1	2.456875
13.166667	1	2.397125
13.183333	1	2.344000
13.200000	1	2.294250
13.216667	1	2.248250
13.233333	1	2.205500
13.250000	1	2.165125
13.266667	1	2.126625
13.283333	1	2.089625
13.300000	1	2.054750
13.316667	1	2.021875
13.333333	1	1.989625
13.350000	1	1.959750
13.366667	1	1.931125
13.383333	1	1.904500
13.400000	1	1.880125
13.416667	1	1.857625
13.433333	1	1.837750
13.450000	1	1.820500
13.466667	1	1.805500
13.483333	1	1.793250
13.500000	1	1.783625
13.516667	1	1.776000
13.533333	1	1.769750
13.550000	1	1.765375
13.566667	1	1.761625
13.583333	1	1.758375
13.600000	1	1.755125
13.616667	1	1.750250
13.633333	1	1.744875
13.650000	1	1.736250
13.666667	1	1.726500
13.683333	1	1.714000
13.700000	1	1.699125
13.716667	1	1.682500
13.733333	1	1.663125
13.750000	1	1.643375
13.766667	1	1.622875
13.783333	1	1.601875
13.800000	1	1.580250
13.816667	1	1.559125
13.833333	1	1.539125
13.850000	1	1.520375
13.866667	1	1.501875
13.883333	1	1.484625
13.900000	1	1.467500
13.916667	1	1.452375
13.933333	1	1.437750
13.950000	1	1.424250
13.966667	1	1.411375
13.983333	1	1.399375
14.000000	1	1.389000
14.016667	1	1.378375
14.033333	1	1.368500
14.050000	1	1.359375
14.066667	1	1.350625
14.083333	1	1.342000
14.100000	1	1.334125
14.116667	1	1.326375
14.133333	1	1.319750
14.150000	1	1.312625
14.166667	1	1.306375
14.183333	1	1.300375
14.200000	1	1.296125
14.216667	1	1.293125
14.233333	1	1.291375
14.250000	1	1.290500
14.266667	1	1.291750
14.283333	1	1.294750
14.300000	1	1.300750
14.316667	1	1.309750
14.333333	1	1.322750
14.350000	1	1.339250
14.366667	1	1.361500
14.383333	1	1.389875
14.400000	1	1.426250
14.416667	1	1.473375
14.433333	1	1.534625
14.450000	1	1.615250
14.466667	1	1.721250
14.483333	1	1.863375
14.500000	1	2.053625
14.516667	1	2.310500
14.533333	1	2.653250
14.550000	1	3.111500
14.566667	1	3.718375
14.583333	1	4.512625
14.600000	1	5.539250
14.616667	1	6.848500
14.633333	1	8.491750
14.650000	1	10.516250
14.666667	1	12.958500
14.683333	1	15.840625
14.700000	1	19.160500
14.716667	1	22.884750
14.733333	1	26.950375
14.750000	1	31.257250
14.766667	1	35.675125
14.783333	1	40.041250
14.800000	1	44.184875
14.816667	1	47.926500
14.833333	1	51.095125
14.850000	1	53.537125
14.866667	1	55.134500
14.883333	1	55.814625
14.900000	1	55.556875
14.916667	1	54.393625
14.933333	1	52.406625
14.950000	1	49.714625
14.966667	1	46.465500
14.983333	1	42.826125
15.000000	1	38.956250
15.016667	1	35.006375
15.033333	1	31.104875
15.050000	1	27.360500
15.066667	1	23.854500
15.083333	1	20.641875
15.100000	1	17.752750
15.116667	1	15.199500
15.133333	1	12.973750
15.150000	1	11.056875
15.166667	1	9.423250
15.183333	1	8.043375
15.200000	1	6.885625
15.216667	1	5.920125
15.233333	1	5.118500
15.250000	1	4.458500
15.266667	1	3.917250
15.283333	1	3.476250
15.300000	1	3.120750
15.316667	1	2.836375
15.333333	1	2.611000
15.350000	1	2.435375
15.366667	1	2.302125
15.383333	1	2.202625
15.400000	1	2.131375
15.416667	1	2.081000
15.433333	1	2.047625
15.450000	1	2.025750
15.466667	1	2.011500
15.483333	1	1.999750
15.500000	1	1.988250
15.516667	1	1.974875
15.533333	1	1.957125
15.550000	1	1.933625
15.566667	1	1.905000
15.583333	1	1.871000
15.600000	1	1.832375
15.616667	1	1.790625
15.633333	1	1.746875
15.650000	1	1.701875
15.666667	1	1.657500
15.683333	1	1.613250
15.700000	1	1.571125
15.716667	1	1.531125
15.733333	1	1.494250
15.750000	1	1.460125
15.766667	1	1.428625
15.783333	1	1.400250
15.800000	1	1.373000
15.816667	1	1.348375
15.833333	1	1.325375
15.850000	1	1.303750
15.866667	1	1.284000
15.883333	1	1.266625
15.900000	1	1.250750
15.916667	1	1.236500
15.933333	1	1.223875
15.950000	1	1.213750
15.966667	1	1.205375
15.983333	1	1.199250
16.000000	1	1.194875
16.016667	1	1.192375
16.033333	1	1.191500
16.050000	1	1.191750
16.066667	1	1.193000
16.083333	1	1.195500
16.100000	1	1.198625
16.116667	1	1.201500
16.133333	1	1.205125
16.150000	1	1.208375
16.166667	1	1.211375
16.183333	1	1.213250
16.200000	1	1.215000
16.216667	1	1.215875
16.233333	1	1.215750
16.250000	1	1.214125
16.266667	1	1.212125
16.283333	1	1.208750
16.300000	1	1.205375
16.316667	1	1.200625
16.333333	1	1.196375
16.350000	1	1.191500
16.366667	1	1.187250
16.383333	1	1.182875
16.400000	1	1.180250
16.416667	1	1.178250
16.433333	1	1.177750
16.450000	1	1.178250
16.466667	1	1.179125
16.483333	1	1.181125
16.500000	1	1.183750
16.516667	1	1.186625
16.533333	1	1.189375
16.550000	1	1.192125
16.566667	1	1.193125
16.583333	1	1.193250
16.600000	1	1.191875
16.616667	1	1.189875
16.633333	1	1.187500
16.650000	1	1.184125
16.666667	1	1.179750
16.683333	1	1.174500
16.700000	1	1.170500
16.716667	1	1.166250
16.733333	1	1.163500
16.750000	1	1.161625
16.766667	1	1.161500
16.783333	1	1.163250
16.800000	1	1.166375
16.816667	1	1.169875
16.833333	1	1.175125
16.850000	1	1.180250
16.866667	1	1.186375
16.883333	1	1.191625
16.900000	1	1.196250
16.916667	1	1.199000
16.933333	1	1.200875
16.950000	1	1.200750
16.966667	1	1.200375
16.983333	1	1.198125
17.000000	1	1.195125
17.016667	1	1.190750
17.033333	1	1.185125
17.050000	1	1.179000
17.066667	1	1.172750
17.083333	1	1.165875
17.100000	1	1.159375
17.116667	1	1.153125
17.133333	1	1.147625
17.150000	1	1.142750
17.166667	1	1.138875
17.183333	1	1.136250
17.200000	1	1.133875
17.216667	1	1.132750
17.233333	1	1.132750
17.250000	1	1.133000
17.266667	1	1.135000
17.283333	1	1.136875
17.300000	1	1.139250
17.316667	1	1.142625
17.333333	1	1.146500
17.350000	1	1.150875
17.366667	1	1.155625
17.383333	1	1.160250
17.400000	1	1.164375
17.416667	1	1.167750
17.433333	1	1.170125
17.450000	1	1.172000
17.466667	1	1.172000
17.483333	1	1.171000
17.500000	1	1.168750
17.516667	1	1.164500
17.533333	1	1.159375
17.550000	1	1.151250
17.566667	1	1.142125
17.583333	1	1.131000
17.600000	1	1.118750
17.616667	1	1.105250
17.633333	1	1.090500
17.650000	1	1.075250
17.666667	1	1.058875
17.683333	1	1.043125
17.700000	1	1.027250
17.716667	1	1.011625
17.733333	1	0.995875
17.750000	1	0.980750
17.766667	1	0.966500
17.783333	1	0.953000
17.800000	1	0.940125
17.816667	1	0.928750
17.833333	1	0.918250
17.850000	1	0.909250
17.866667	1	0.900125
17.883333	1	0.892250
17.900000	1	0.884375
17.916667	1	0.877625
17.933333	1	0.870750
17.950000	1	0.865000
17.966667	1	0.858750
17.983333	1	0.852375
18.000000	1	0.845875
18.016667	1	0.840000
18.033333	1	0.833875
18.050000	1	0.827875
18.066667	1	0.822375
18.083333	1	0.817500
18.100000	1	0.812875
18.116667	1	0.808625
18.133333	1	0.805125
18.150000	1	0.802500
18.166667	1	0.801000
18.183333	1	0.800375
18.200000	1	0.800375
18.216667	1	0.801125
18.233333	1	0.803250
18.250000	1	0.805375
18.266667	1	0.808375
18.283333	1	0.811250
18.300000	1	0.815500
18.316667	1	0.819250
18.333333	1	0.823875
18.350000	1	0.829250
18.366667	1	0.835375
18.383333	1	0.841875
18.400000	1	0.849500
18.416667	1	0.857250
18.433333	1	0.866750
18.450000	1	0.876625
18.466667	1	0.887375
18.483333	1	0.900250
18.500000	1	0.915375
18.516667	1	0.930875
18.533333	1	0.947750
18.550000	1	0.967125
18.566667	1	0.988000
18.583333	1	1.010375
18.600000	1	1.033625
18.616667	1	1.058875
18.633333	1	1.084500
18.650000	1	1.112000
18.666667	1	1.139250
18.683333	1	1.167875
18.700000	1	1.197500
18.716667	1	1.227125
18.733333	1	1.256750
18.750000	1	1.286625
18.766667	1	1.315625
18.783333	1	1.344125
18.800000	1	1.370750
18.816667	1	1.395375
18.833333	1	1.418125
18.850000	1	1.436875
18.866667	1	1.452500
18.883333	1	1.464000
18.900000	1	1.470500
18.916667	1	1.472250
18.933333	1	1.468625
18.950000	1	1.459625
18.966667	1	1.445000
18.983333	1	1.423500
19.000000	1	1.396500
19.016667	1	1.364750
19.033333	1	1.328625
19.050000	1	1.287500
19.066667	1	1.244375
19.083333	1	1.198750
19.100000	1	1.151375
19.116667	1	1.103875
19.133333	1	1.056375
19.150000	1	1.011250
19.166667	1	0.969000
19.183333	1	0.928750
19.200000	1	0.893125
19.216667	1	0.861625
19.233333	1	0.834750
19.250000	1	0.813375
19.266667	1	0.796875
19.283333	1	0.786875
19.300000	1	0.782250
19.316667	1	0.783500
19.333333	1	0.790000
19.350000	1	0.802500
19.366667	1	0.819875
19.383333	1	0.841750
19.400000	1	0.866875
19.416667	1	0.895500
19.433333	1	0.926250
19.450000	1	0.957875
19.466667	1	0.990250
19.483333	1	1.022375
19.500000	1	1.052125
19.516667	1	1.080375
19.533333	1	1.106000
19.550000	1	1.127500
19.566667	1	1.144625
19.583333	1	1.157375
19.600000	1	1.165000
19.616667	1	1.168500
19.633333	1	1.166750
19.650000	1	1.160500
19.666667	1	1.150250
19.683333	1	1.135625
19.700000	1	1.117625
19.716667	1	1.096375
19.733333	1	1.072750
19.750000	1	1.046375
19.766667	1	1.018375
19.783333	1	0.989125
19.800000	1	0.959125
19.816667	1	0.929375
19.833333	1	0.899125
19.850000	1	0.869125
19.866667	1	0.840375
19.883333	1	0.812875
19.900000	1	0.787500
19.916667	1	0.763750
19.933333	1	0.741875
19.950000	1	0.723750
19.966667	1	0.707750
19.983333	1	0.695875
20.000000	1	0.687125
20.016667	1	0.682250
20.033333	1	0.680875
20.050000	1	0.684500
20.066667	1	0.691750
20.083333	1	0.703750
20.100000	1	0.719625
20.116667	1	0.739750
20.133333	1	0.764000
20.150000	1	0.792125
20.166667	1	0.822625
20.183333	1	0.854750
20.200000	1	0.888750
20.216667	1	0.923125
20.233333	1	0.956375
20.250000	1	0.987750
20.266667	1	1.016375
20.283333	1	1.040625
20.300000	1	1.059875
20.316667	1	1.074250
20.333333	1	1.082250
20.350000	1	1.082875
20.366667	1	1.078000
20.383333	1	1.065875
20.400000	1	1.048625
20.416667	1	1.026500
20.433333	1	1.000000
20.450000	1	0.971250
20.466667	1	0.941500
20.483333	1	0.910875
20.500000	1	0.881500
20.516667	1	0.854500
20.533333	1	0.830625
20.550000	1	0.811500
20.566667	1	0.797750
20.583333	1	0.790750
20.600000	1	0.791500
20.616667	1	0.800625
20.633333	1	0.817125
20.650000	1	0.842250
20.666667	1	0.876375
20.683333	1	0.919500
20.700000	1	0.970625
20.716667	1	1.029000
20.733333	1	1.093625
20.750000	1	1.163250
20.766667	1	1.236875
20.783333	1	1.311875
20.800000	1	1.386500
20.816667	1	1.457625
20.833333	1	1.523875
20.850000	1	1.582625
20.866667	1	1.631375
20.883333	1	1.669375
20.900000	1	1.695000
20.916667	1	1.708625
20.933333	1	1.707875
20.950000	1	1.693250
20.966667	1	1.666375
20.983333	1	1.627125
21.000000	1	1.577750
21.016667	1	1.521000
21.033333	1	1.457125
21.050000	1	1.388000
21.066667	1	1.316750
21.083333	1	1.243625
21.100000	1	1.171250
21.116667	1	1.100500
21.133333	1	1.033375
21.150000	1	0.969375
21.166667	1	0.910375
21.183333	1	0.854875
21.200000	1	0.804125
21.216667	1	0.758000
21.233333	1	0.717375
21.250000	1	0.680875
21.266667	1	0.648125
21.283333	1	0.620000
21.300000	1	0.594750
21.316667	1	0.573375
21.333333	1	0.554250
21.350000	1	0.537500
21.366667	1	0.523000
21.383333	1	0.510750
21.400000	1	0.500000
21.416667	1	0.491000
21.433333	1	0.482625
21.450000	1	0.476000
21.466667	1	0.470250
21.483333	1	0.466000
21.500000	1	0.462500
21.516667	1	0.460750
21.533333	1	0.459250
21.550000	1	0.459375
21.566667	1	0.460875
21.583333	1	0.463750
21.600000	1	0.467750
21.616667	1	0.473500
21.633333	1	0.481250
21.650000	1	0.490875
21.666667	1	0.502000
21.683333	1	0.515125
21.700000	1	0.530000
21.716667	1	0.546750
21.733333	1	0.566250
21.750000	1	0.586625
21.766667	1	0.609375
21.783333	1	0.633250
21.800000	1	0.658375
21.816667	1	0.683250
21.833333	1	0.709250
21.850000	1	0.735750
21.866667	1	0.760875
21.883333	1	0.785125
21.900000	1	0.808250
21.916667	1	0.828875
21.933333	1	0.846875
21.950000	1	0.862375
21.966667	1	0.874500
21.983333	1	0.883750
22.000000	1	0.890250
22.016667	1	0.892875
22.033333	1	0.892625
22.050000	1	0.889250
22.066667	1	0.882250
22.083333	1	0.873625
22.100000	1	0.862500
22.116667	1	0.849125
22.133333	1	0.834000
22.150000	1	0.818500
22.166667	1	0.800250
22.183333	1	0.782250
22.200000	1	0.763000
22.216667	1	0.743875
22.233333	1	0.724375
22.250000	1	0.704250
22.266667	1	0.685250
22.283333	1	0.666375
22.300000	1	0.647500
22.316667	1	0.629000
22.333333	1	0.610875
22.350000	1	0.593125
22.366667	1	0.576500
22.383333	1	0.560125
22.400000	1	0.545000
22.416667	1	0.530750
22.433333	1	0.517125
22.450000	1	0.504250
22.466667	1	0.493375
22.483333	1	0.482625
22.500000	1	0.472625
22.516667	1	0.463250
22.533333	1	0.454750
22.550000	1	0.447125
22.566667	1	0.440750
22.583333	1	0.433875
22.600000	1	0.427500
22.616667	1	0.421625
22.633333	1	0.415250
22.650000	1	0.409000
22.666667	1	0.403125
22.683333	1	0.397125
22.700000	1	0.390750
22.716667	1	0.384250
22.733333	1	0.377500
22.750000	1	0.370375
22.766667	1	0.363250
22.783333	1	0.356000
22.800000	1	0.348375
22.816667	1	0.340750
22.833333	1	0.333125
22.850000	1	0.325625
22.866667	1	0.318125
22.883333	1	0.311250
22.900000	1	0.304750
22.916667	1	0.297750
22.933333	1	0.292500
22.950000	1	0.287375
22.966667	1	0.282125
22.983333	1	0.277875
23.000000	1	0.273750
23.016667	1	0.271125
23.033333	1	0.270000
23.050000	1	0.269250
23.066667	1	0.268500
23.083333	1	0.268750
23.100000	1	0.270250
23.116667	1	0.270875
23.133333	1	0.272500
23.150000	1	0.275000
23.166667	1	0.278000
23.183333	1	0.282375
23.200000	1	0.287125
23.216667	1	0.292000
23.233333	1	0.297875
23.250000	1	0.304500
23.266667	1	0.313625
23.283333	1	0.322875
23.300000	1	0.334000
23.316667	1	0.347375
23.333333	1	0.363625
23.350000	1	0.383375
23.366667	1	0.407500
23.383333	1	0.435625
23.400000	1	0.470125
23.416667	1	0.511250
23.433333	1	0.560750
23.450000	1	0.618750
23.466667	1	0.687125
23.483333	1	0.767250
23.500000	1	0.859750
23.516667	1	0.967000
23.533333	1	1.088750
23.550000	1	1.228000
23.566667	1	1.383875
23.583333	1	1.556000
23.600000	1	1.744875
23.616667	1	1.951625
23.633333	1	2.171875
23.650000	1	2.405625
23.666667	1	2.649750
23.683333	1	2.901625
23.700000	1	3.158125
23.716667	1	3.415250
23.733333	1	3.667250
23.750000	1	3.909125
23.766667	1	4.137000
23.783333	1	4.344500
23.800000	1	4.527875
23.816667	1	4.681625
23.833333	1	4.804375
23.850000	1	4.892500
23.866667	1	4.944500
23.883333	1	4.959000
23.900000	1	4.937750
23.916667	1	4.880000
23.933333	1	4.788375
23.950000	1	4.666250
23.966667	1	4.517250
23.983333	1	4.343625
24.000000	1	4.151500
24.016667	1	3.944750
24.033333	1	3.728125
24.050000	1	3.505250
24.066667	1	3.280750
24.083333	1	3.057000
24.100000	1	2.837500
24.116667	1	2.624250
24.133333	1	2.419625
24.150000	1	2.225000
24.166667	1	2.041500
24.183333	1	1.869750
24.200000	1	1.711250
24.216667	1	1.564750
24.233333	1	1.430250
24.250000	1	1.308250
24.266667	1	1.197000
24.283333	1	1.097125
24.300000	1	1.006375
24.316667	1	0.924875
24.333333	1	0.852375
24.350000	1	0.787625
24.366667	1	0.730375
24.383333	1	0.679250
24.400000	1	0.634625
24.416667	1	0.595000
24.433333	1	0.560875
24.450000	1	0.531375
24.466667	1	0.505875
24.483333	1	0.483750
24.500000	1	0.464875
24.516667	1	0.448625
24.533333	1	0.434750
24.550000	1	0.422875
24.566667	1	0.412500
24.583333	1	0.403375
24.600000	1	0.395250
24.616667	1	0.388250
24.633333	1	0.382625
24.650000	1	0.377375
24.666667	1	0.373000
24.683333	1	0.368000
24.700000	1	0.363375
24.716667	1	0.359250
24.733333	1	0.354875
24.750000	1	0.350875
24.766667	1	0.346375
24.783333	1	0.342250
24.800000	1	0.338875
24.816667	1	0.334375
24.833333	1	0.330375
24.850000	1	0.326750
24.866667	1	0.322500
24.883333	1	0.318375
24.900000	1	0.315000
24.916667	1	0.311625
24.933333	1	0.308500
24.950000	1	0.305875
24.966667	1	0.302125
24.983333	1	0.299000
25.000000	1	0.296000
25.016667	1	0.293750
25.033333	1	0.291250
25.050000	1	0.288375
25.066667	1	0.286875
25.083333	1	0.284750
25.100000	1	0.282125
25.116667	1	0.279625
25.133333	1	0.277500
25.150000	1	0.275250
25.166667	1	0.273250
25.183333	1	0.270625
25.200000	1	0.269000
25.216667	1	0.267500
25.233333	1	0.265875
25.250000	1	0.263625
25.266667	1	0.262125
25.283333	1	0.260375
25.300000	1	0.259125
25.316667	1	0.257625
25.333333	1	0.257000
25.350000	1	0.256375
25.366667	1	0.255875
25.383333	1	0.255250
25.400000	1	0.255250
25.416667	1	0.254625
25.433333	1	0.254500
25.450000	1	0.255500
25.466667	1	0.256375
25.483333	1	0.257500
25.500000	1	0.259125
25.516667	1	0.261625
25.533333	1	0.264500
25.550000	1	0.266125
25.566667	1	0.268500
25.583333	1	0.271000
25.600000	1	0.273000
25.616667	1	0.275375
25.633333	1	0.277875
25.650000	1	0.280625
25.666667	1	0.283250
25.683333	1	0.285250
25.700000	1	0.287125
25.716667	1	0.289250
25.733333	1	0.290750
25.750000	1	0.292125
25.766667	1	0.293500
25.783333	1	0.293750
25.800000	1	0.294250
25.816667	1	0.294750
25.833333	1	0.295625
25.850000	1	0.295750
25.866667	1	0.295625
25.883333	1	0.296000
25.900000	1	0.296000
25.916667	1	0.296125
25.933333	1	0.295750
25.950000	1	0.295500
25.966667	1	0.295750
25.983333	1	0.295875
26.000000	1	0.296875
26.016667	1	0.298250
26.033333	1	0.299625
26.050000	1	0.300375
26.066667	1	0.302375
26.083333	1	0.305250
26.100000	1	0.308000
26.116667	1	0.310750
26.133333	1	0.314000
26.150000	1	0.317750
26.166667	1	0.320875
26.183333	1	0.324750
26.200000	1	0.328000
26.216667	1	0.332250
26.233333	1	0.336000
26.250000	1	0.340125
26.266667	1	0.343625
26.283333	1	0.345875
26.300000	1	0.348625
26.316667	1	0.351625
26.333333	1	0.353875
26.350000	1	0.354750
26.366667	1	0.355500
26.383333	1	0.355750
26.400000	1	0.355375
26.416667	1	0.354500
26.433333	1	0.352125
26.450000	1	0.349875
26.466667	1	0.347000
26.483333	1	0.343625
26.500000	1	0.339500
26.516667	1	0.334250
26.533333	1	0.328750
26.550000	1	0.322000
26.566667	1	0.316125
26.583333	1	0.309125
26.600000	1	0.302500
26.616667	1	0.294625
26.633333	1	0.286875
26.650000	1	0.279125
26.666667	1	0.271000
26.683333	1	0.262250
26.700000	1	0.254125
26.716667	1	0.245875
26.733333	1	0.238250
26.750000	1	0.230750
26.766667	1	0.222750
26.783333	1	0.215000
26.800000	1	0.207875
26.816667	1	0.201625
26.833333	1	0.195625
26.850000	1	0.190250
26.866667	1	0.184625
26.883333	1	0.179875
26.900000	1	0.175875
26.916667	1	0.172125
26.933333	1	0.169125
26.950000	1	0.166750
26.966667	1	0.164125
26.983333	1	0.162750
27.000000	1	0.162125
27.016667	1	0.162500
27.033333	1	0.162750
27.050000	1	0.163875
27.066667	1	0.166000
27.083333	1	0.168500
27.100000	1	0.172375
27.116667	1	0.176500
27.133333	1	0.182500
27.150000	1	0.189125
27.166667	1	0.196125
27.183333	1	0.204875
27.200000	1	0.215750
27.216667	1	0.227375
27.233333	1	0.241125
27.250000	1	0.256500
27.266667	1	0.274375
27.283333	1	0.295000
27.300000	1	0.318500
27.316667	1	0.345000
27.333333	1	0.375125
27.350000	1	0.409750
27.366667	1	0.449375
27.383333	1	0.493750
27.400000	1	0.543875
27.416667	1	0.601125
27.433333	1	0.665625
27.450000	1	0.737125
27.466667	1	0.816875
27.483333	1	0.905750
27.500000	1	1.003875
27.516667	1	1.111500
27.533333	1	1.228625
27.550000	1	1.355125
27.566667	1	1.490625
27.583333	1	1.635250
27.600000	1	1.788500
27.616667	1	1.949375
27.633333	1	2.116500
27.650000	1	2.288875
27.666667	1	2.465750
27.683333	1	2.644250
27.700000	1	2.822500
27.716667	1	2.998000
27.733333	1	3.168375
27.750000	1	3.331000
27.766667	1	3.482875
27.783333	1	3.622625
27.800000	1	3.747875
27.816667	1	3.855750
27.833333	1	3.945250
27.850000	1	4.014625
27.866667	1	4.061625
27.883333	1	4.085500
27.900000	1	4.086625
27.916667	1	4.063000
27.933333	1	4.016875
27.950000	1	3.948500
27.966667	1	3.860875
27.983333	1	3.752875
28.000000	1	3.627625
28.016667	1	3.487625
28.033333	1	3.335125
28.050000	1	3.172750
28.066667	1	3.002375
28.083333	1	2.827375
28.100000	1	2.649750
28.116667	1	2.472375
28.133333	1	2.296375
28.150000	1	2.125500
28.166667	1	1.959875
28.183333	1	1.801375
28.200000	1	1.651500
28.216667	1	1.509875
28.233333	1	1.377375
28.250000	1	1.255500
28.266667	1	1.142750
28.283333	1	1.039125
28.300000	1	0.945625
28.316667	1	0.860750
28.333333	1	0.785750
28.350000	1	0.718875
28.366667	1	0.659125
28.383333	1	0.607125
28.400000	1	0.562625
28.416667	1	0.524125
28.433333	1	0.490750
28.450000	1	0.463125
28.466667	1	0.440250
28.483333	1	0.421625
28.500000	1	0.406875
28.516667	1	0.396375
28.533333	1	0.388125
28.550000	1	0.383250
28.566667	1	0.381375
28.583333	1	0.382250
28.600000	1	0.384625
28.616667	1	0.388125
28.633333	1	0.393875
28.650000	1	0.401250
28.666667	1	0.409250
28.683333	1	0.418250
28.700000	1	0.426875
28.716667	1	0.436625
28.733333	1	0.446625
28.750000	1	0.456500
28.766667	1	0.466500
28.783333	1	0.475875
28.800000	1	0.484500
28.816667	1	0.492875
28.833333	1	0.501375
28.850000	1	0.508375
28.866667	1	0.514250
28.883333	1	0.518875
28.900000	1	0.522125
28.916667	1	0.524375
28.933333	1	0.524500
28.950000	1	0.523125
28.966667	1	0.520625
28.983333	1	0.516875
29.000000	1	0.511375
29.016667	1	0.504500
29.033333	1	0.495000
29.050000	1	0.483375
29.066667	1	0.469875
29.083333	1	0.454500
29.100000	1	0.437250
29.116667	1	0.418000
29.133333	1	0.395875
29.150000	1	0.371625
29.166667	1	0.344750
29.183333	1	0.315500
29.200000	1	0.283500
29.216667	1	0.249625
29.233333	1	0.212250
29.250000	1	0.172500
29.266667	1	0.129875
29.283333	1	0.084250
29.300000	1	0.035625
29.316667	1	-0.015000
29.333333	1	-0.068375
29.350000	1	-0.124750
29.366667	1	-0.184125
29.383333	1	-0.245625
29.400000	1	-0.309250
29.416667	1	-0.374625
29.433333	1	-0.442125
29.450000	1	-0.510875
29.466667	1	-0.580500
29.483333	1	-0.650250
29.500000	1	-0.720125
29.516667	1	-0.790500
29.533333	1	-0.860000
29.550000	1	-0.927875
29.566667	1	-0.993000
29.583333	1	-1.055500
29.600000	1	-1.115875
29.616667	1	-1.172250
29.633333	1	-1.225250
29.650000	1	-1.273000
29.666667	1	-1.316125
29.683333	1	-1.353125
29.700000	1	-1.385125
29.716667	1	-1.410625
29.733333	1	-1.430000
29.750000	1	-1.442750
29.766667	1	-1.450125
29.783333	1	-1.450000
29.800000	1	-1.443875
29.816667	1	-1.431750
29.833333	1	-1.413750
29.850000	1	-1.390375
29.866667	1	-1.361875
29.883333	1	-1.328625
29.900000	1	-1.291000
29.916667	1	-1.249250
29.933333	1	-1.204125
29.950000	1	-1.157000
29.966667	1	-1.107125
29.983333	1	-1.055750
30.000000	1	-1.001875
30.016667	1	-0.948250
30.033333	1	-0.894000
30.050000	1	-0.839875
30.066667	1	-0.785500
30.083333	1	-0.732000
30.100000	1	-0.679625
30.116667	1	-0.628625
30.133333	1	-0.579875
30.150000	1	-0.532125
30.166667	1	-0.487000
30.183333	1	-0.444000
30.200000	1	-0.402500
30.216667	1	-0.362750
30.233333	1	-0.325000
30.250000	1	-0.289625
30.266667	1	-0.257250
30.283333	1	-0.226000
30.300000	1	-0.197250
30.316667	1	-0.170250
30.333333	1	-0.145625
30.350000	1	-0.122250
30.366667	1	-0.100625
30.383333	1	-0.080375
30.400000	1	-0.062000
30.416667	1	-0.044750
30.433333	1	-0.029750
30.450000	1	-0.015250
30.466667	1	-0.001625
30.483333	1	0.010500
30.500000	1	0.021625
30.516667	1	0.032000
30.533333	1	0.042250
30.550000	1	0.052000
30.566667	1	0.061500
30.583333	1	0.069500
30.600000	1	0.078250
30.616667	1	0.087500
30.633333	1	0.096125
30.650000	1	0.104375
30.666667	1	0.113125
30.683333	1	0.121375
30.700000	1	0.129750
30.716667	1	0.139250
30.733333	1	0.149125
30.750000	1	0.159375
30.766667	1	0.170750
30.783333	1	0.183250
30.800000	1	0.196375
30.816667	1	0.209750
30.833333	1	0.225625
30.850000	1	0.242750
30.866667	1	0.261000
30.883333	1	0.281125
30.900000	1	0.303250
30.916667	1	0.327875
30.933333	1	0.355875
30.950000	1	0.386875
30.966667	1	0.421875
30.983333	1	0.460125
31.000000	1	0.503125
31.016667	1	0.553250
31.033333	1	0.608875
31.050000	1	0.671375
31.066667	1	0.741125
31.083333	1	0.818750
31.100000	1	0.906000
31.116667	1	1.004125
31.133333	1	1.111625
31.150000	1	1.231750
31.166667	1	1.363750
31.183333	1	1.508500
31.200000	1	1.667750
31.216667	1	1.841250
31.233333	1	2.029625
31.250000	1	2.231625
31.266667	1	2.449000
31.283333	1	2.679125
31.300000	1	2.922750
31.316667	1	3.177875
31.333333	1	3.444000
31.350000	1	3.718625
31.366667	1	4.000750
31.383333	1	4.287750
31.400000	1	4.577375
31.416667	1	4.866500
31.433333	1	5.152250
31.450000	1	5.430625
31.466667	1	5.699125
31.483333	1	5.954375
31.500000	1	6.193625
31.516667	1	6.413750
31.533333	1	6.610625
31.550000	1	6.783250
31.566667	1	6.929125
31.583333	1	7.046250
31.600000	1	7.132875
31.616667	1	7.188875
31.633333	1	7.212250
31.650000	1	7.204000
31.666667	1	7.164125
31.683333	1	7.093625
31.700000	1	6.992875
31.716667	1	6.865000
31.733333	1	6.711875
31.750000	1	6.536500
31.766667	1	6.339375
31.783333	1	6.125250
31.800000	1	5.894250
31.816667	1	5.650875
31.833333	1	5.398125
31.850000	1	5.137875
31.866667	1	4.873750
31.883333	1	4.607625
31.900000	1	4.342250
31.916667	1	4.080000
31.933333	1	3.821500
31.950000	1	3.569000
31.966667	1	3.323500
31.983333	1	3.086500
32.000000	1	2.859125
32.016667	1	2.642125
32.033333	1	2.435250
32.050000	1	2.239375
32.066667	1	2.055000
32.083333	1	1.881625
32.100000	1	1.719500
32.116667	1	1.568000
32.133333	1	1.426750
32.150000	1	1.296250
32.166667	1	1.175000
32.183333	1	1.063125
32.200000	1	0.959875
32.216667	1	0.865250
32.233333	1	0.777500
32.250000	1	0.697125
32.266667	1	0.623125
32.283333	1	0.556500
32.300000	1	0.495250
32.316667	1	0.439750
32.333333	1	0.388625
32.350000	1	0.342250
32.366667	1	0.299875
32.383333	1	0.262250
32.400000	1	0.227000
32.416667	1	0.196125
32.433333	1	0.167750
32.450000	1	0.142000
32.466667	1	0.119375
32.483333	1	0.098625
32.500000	1	0.080375
32.516667	1	0.064250
32.533333	1	0.049750
32.550000	1	0.036375
32.566667	1	0.024625
32.583333	1	0.014625
32.600000	1	0.006250
32.616667	1	-0.000875
32.633333	1	-0.007375
32.650000	1	-0.013000
32.666667	1	-0.017375
32.683333	1	-0.021000
32.700000	1	-0.024375
32.716667	1	-0.027625
32.733333	1	-0.030375
32.750000	1	-0.032250
32.766667	1	-0.034125
32.783333	1	-0.035375
32.800000	1	-0.036625
32.816667	1	-0.037000
32.833333	1	-0.038000
32.850000	1	-0.038750
32.866667	1	-0.039000
32.883333	1	-0.039250
32.900000	1	-0.040125
32.916667	1	-0.040250
32.933333	1	-0.040000
32.950000	1	-0.039625
32.966667	1	-0.040250
32.983333	1	-0.040125
33.000000	1	-0.040500
33.016667	1	-0.040625
33.033333	1	-0.041250
33.050000	1	-0.041000
33.066667	1	-0.042000
33.083333	1	-0.042250
33.100000	1	-0.042625
33.116667	1	-0.043000
33.133333	1	-0.043125
33.150000	1	-0.043125
33.166667	1	-0.043000
33.183333	1	-0.043375
33.200000	1	-0.042875
33.216667	1	-0.042125
33.233333	1	-0.042250
33.250000	1	-0.042500
33.266667	1	-0.042750
33.283333	1	-0.042750
33.300000	1	-0.042375
33.316667	1	-0.041500
33.333333	1	-0.040500
33.350000	1	-0.039750
33.366667	1	-0.038500
33.383333	1	-0.037000
33.400000	1	-0.034750
33.416667	1	-0.033375
33.433333	1	-0.031875
33.450000	1	-0.030500
33.466667	1	-0.028500
33.483333	1	-0.026750
33.500000	1	-0.024375
33.516667	1	-0.022000
33.533333	1	-0.019875
33.550000	1	-0.018000
33.566667	1	-0.015000
33.583333	1	-0.012375
33.600000	1	-0.009625
33.616667	1	-0.006125
33.633333	1	-0.002500
33.650000	1	0.000375
33.666667	1	0.004250
33.683333	1	0.007500
33.700000	1	0.011375
33.716667	1	0.014875
33.733333	1	0.019000
33.750000	1	0.023375
33.766667	1	0.027625
33.783333	1	0.032750
33.800000	1	0.037125
33.816667	1	0.041750
33.833333	1	0.046500
33.850000	1	0.051000
33.866667	1	0.055750
33.883333	1	0.060875
33.900000	1	0.065250
33.916667	1	0.070500
33.933333	1	0.075375
33.950000	1	0.080250
33.966667	1	0.085250
33.983333	1	0.090500
34.000000	1	0.095000
34.016667	1	0.099000
34.033333	1	0.102750
34.050000	1	0.106500
34.066667	1	0.109875
34.083333	1	0.113250
34.100000	1	0.116250
34.116667	1	0.119125
34.133333	1	0.122125
34.150000	1	0.124125
34.166667	1	0.126250
34.183333	1	0.127875
34.200000	1	0.129250
34.216667	1	0.130500
34.233333	1	0.131500
34.250000	1	0.132250
34.266667	1	0.132750
34.283333	1	0.133250
34.300000	1	0.133750
34.316667	1	0.133625
34.333333	1	0.133625
34.350000	1	0.133375
34.366667	1	0.133375
34.383333	1	0.133250
34.400000	1	0.133375
34.416667	1	0.133375
34.433333	1	0.132625
34.450000	1	0.132500
34.466667	1	0.131625
34.483333	1	0.130125
34.500000	1	0.129000
34.516667	1	0.128625
34.533333	1	0.128250
34.550000	1	0.128125
34.566667	1	0.127375
34.583333	1	0.126375
34.600000	1	0.125000
34.616667	1	0.124250
34.633333	1	0.123125
34.650000	1	0.122375
34.666667	1	0.120875
34.683333	1	0.119750
34.700000	1	0.117750
34.716667	1	0.117000
34.733333	1	0.115125
34.750000	1	0.113875
34.766667	1	0.112375
34.783333	1	0.110875
34.800000	1	0.108875
34.816667	1	0.106500
34.833333	1	0.104750
34.850000	1	0.102750
34.866667	1	0.100125
34.883333	1	0.098125
34.900000	1	0.095875
34.916667	1	0.093750
34.933333	1	0.091625
34.950000	1	0.088875
34.966667	1	0.086125
34.983333	1	0.083375
35.000000	1	0.080250
35.016667	1	0.077125
35.033333	1	0.073625
35.050000	1	0.070500
35.066667	1	0.066250
35.083333	1	0.063625
35.100000	1	0.060625
35.116667	1	0.057625
35.133333	1	0.054125
35.150000	1	0.050875
35.166667	1	0.048250
35.183333	1	0.045250
35.200000	1	0.042375
35.216667	1	0.039375
35.233333	1	0.036375
35.250000	1	0.033500
35.266667	1	0.031250
35.283333	1	0.029875
35.300000	1	0.027875
35.316667	1	0.026500
35.333333	1	0.025125
35.350000	1	0.024750
35.366667	1	0.023750
35.383333	1	0.023250
35.400000	1	0.022750
35.416667	1	0.022875
35.433333	1	0.023125
35.450000	1	0.023250
35.466667	1	0.024500
35.483333	1	0.025750
35.500000	1	0.027000
35.516667	1	0.028625
35.533333	1	0.030375
35.550000	1	0.032500
35.566667	1	0.034625
35.583333	1	0.036750
35.600000	1	0.039500
35.616667	1	0.042500
35.633333	1	0.045750
35.650000	1	0.048750
35.666667	1	0.052125
35.683333	1	0.055000
35.700000	1	0.058500
35.716667	1	0.062000
35.733333	1	0.065750
35.750000	1	0.069375
35.766667	1	0.072375
35.783333	1	0.075375
35.800000	1	0.078875
35.816667	1	0.082250
35.833333	1	0.085125
35.850000	1	0.088250
35.866667	1	0.092000
35.883333	1	0.095125
35.900000	1	0.097750
35.916667	1	0.101125
35.933333	1	0.103875
35.950000	1	0.107250
35.966667	1	0.109500
35.983333	1	0.112125
36.000000	1	0.114500
36.016667	1	0.116000
36.033333	1	0.117375
36.050000	1	0.118625
36.066667	1	0.120500
36.083333	1	0.122125
36.100000	1	0.122875
36.116667	1	0.124000
36.133333	1	0.124750
36.150000	1	0.125375
36.166667	1	0.125250
36.183333	1	0.125500
36.200000	1	0.124750
36.216667	1	0.125000
36.233333	1	0.124125
36.250000	1	0.124000
36.266667	1	0.123125
36.283333	1	0.121125
36.300000	1	0.119625
36.316667	1	0.118250
36.333333	1	0.116625
36.350000	1	0.114875
36.366667	1	0.113375
36.383333	1	0.112125
36.400000	1	0.109625
36.416667	1	0.106750
36.433333	1	0.104750
36.450000	1	0.102250
36.466667	1	0.099500
36.483333	1	0.097625
36.500000	1	0.095500
36.516667	1	0.093750
36.533333	1	0.091750
36.550000	1	0.089875
36.566667	1	0.087375
36.583333	1	0.085375
36.600000	1	0.083250
36.616667	1	0.081750
36.633333	1	0.079625
36.650000	1	0.078250
36.666667	1	0.076750
36.683333	1	0.075750
36.700000	1	0.075000
36.716667	1	0.074875
36.733333	1	0.073750
36.750000	1	0.073375
36.766667	1	0.072875
36.783333	1	0.072625
36.800000	1	0.072250
36.816667	1	0.071875
36.833333	1	0.071500
36.850000	1	0.071125
36.866667	1	0.071000
36.883333	1	0.071125
36.900000	1	0.071375
36.916667	1	0.072250
36.933333	1	0.072750
36.950000	1	0.073625
36.966667	1	0.073750
36.983333	1	0.074875
37.000000	1	0.076125
37.016667	1	0.077000
37.033333	1	0.078000
37.050000	1	0.079625
37.066667	1	0.081125
37.083333	1	0.082375
37.100000	1	0.083500
37.116667	1	0.085125
37.133333	1	0.086875
37.150000	1	0.089000
37.166667	1	0.091625
37.183333	1	0.093875
37.200000	1	0.096375
37.216667	1	0.098500
37.233333	1	0.100875
37.250000	1	0.103500
37.266667	1	0.106375
37.283333	1	0.109625
37.300000	1	0.112250
37.316667	1	0.114875
37.333333	1	0.116500
37.350000	1	0.119500
37.366667	1	0.122250
37.383333	1	0.125750
37.400000	1	0.129250
37.416667	1	0.132000
37.433333	1	0.134500
37.450000	1	0.137500
37.466667	1	0.139750
37.483333	1	0.143500
37.500000	1	0.146125
37.516667	1	0.149500
37.533333	1	0.152625
37.550000	1	0.155125
37.566667	1	0.157875
37.583333	1	0.160250
37.600000	1	0.162875
37.616667	1	0.165625
37.633333	1	0.168750
37.650000	1	0.171750
37.666667	1	0.174125
37.683333	1	0.176625
37.700000	1	0.178875
37.716667	1	0.180875
37.733333	1	0.183000
37.750000	1	0.185125
37.766667	1	0.187125
37.783333	1	0.189625
37.800000	1	0.191250
37.816667	1	0.193250
37.833333	1	0.195000
37.850000	1	0.196625
37.866667	1	0.199000
37.883333	1	0.201000
37.900000	1	0.202500
37.916667	1	0.204875
37.933333	1	0.207125
37.950000	1	0.210000
37.966667	1	0.212000
37.983333	1	0.214625
38.000000	1	0.217375
38.016667	1	0.220750
38.033333	1	0.224500
38.050000	1	0.227375
38.066667	1	0.230500
38.083333	1	0.234000
38.100000	1	0.237500
38.116667	1	0.241625
38.133333	1	0.245875
38.150000	1	0.249875
38.166667	1	0.253625
38.183333	1	0.257125
38.200000	1	0.261625
38.216667	1	0.265625
38.233333	1	0.269625
38.250000	1	0.273875
38.266667	1	0.278125
38.283333	1	0.281875
38.300000	1	0.285000
38.316667	1	0.288000
38.333333	1	0.291000
38.350000	1	0.294250
38.366667	1	0.296000
38.383333	1	0.297250
38.400000	1	0.298750
38.416667	1	0.299625
38.433333	1	0.301000
38.450000	1	0.301250
38.466667	1	0.301625
38.483333	1	0.301000
38.500000	1	0.299750
38.516667	1	0.298875
38.533333	1	0.297000
38.550000	1	0.294875
38.566667	1	0.292625
38.583333	1	0.290375
38.600000	1	0.287125
38.616667	1	0.283625
38.633333	1	0.280250
38.650000	1	0.276750
38.666667	1	0.273375
38.683333	1	0.269375
38.700000	1	0.265625
38.716667	1	0.261500
38.733333	1	0.256750
38.750000	1	0.252250
38.766667	1	0.247750
38.783333	1	0.243250
38.800000	1	0.238750
38.816667	1	0.233875
38.833333	1	0.229625
38.850000	1	0.224375
38.866667	1	0.220125
38.883333	1	0.215625
38.900000	1	0.210375
38.916667	1	0.206000
38.933333	1	0.201375
38.950000	1	0.196875
38.966667	1	0.192375
38.983333	1	0.188000
39.000000	1	0.183750
39.016667	1	0.179500
39.033333	1	0.174875
39.050000	1	0.170250
39.066667	1	0.166000
39.083333	1	0.161375
39.100000	1	0.157375
39.116667	1	0.153250
39.133333	1	0.148625
39.150000	1	0.143875
39.166667	1	0.140000
39.183333	1	0.135000
39.200000	1	0.130875
39.216667	1	0.126875
39.233333	1	0.122625
39.250000	1	0.119125
39.266667	1	0.115125
39.283333	1	0.111125
39.300000	1	0.108125
39.316667	1	0.104500
39.333333	1	0.101500
39.350000	1	0.098125
39.366667	1	0.094625
39.383333	1	0.091625
39.400000	1	0.088625
39.416667	1	0.085875
39.433333	1	0.084000
39.450000	1	0.081250
39.466667	1	0.078875
39.483333	1	0.077000
39.500000	1	0.074000
39.516667	1	0.072000
39.533333	1	0.070250
39.550000	1	0.068875
39.566667	1	0.066500
39.583333	1	0.064750
39.600000	1	0.062875
39.616667	1	0.061000
39.633333	1	0.059250
39.650000	1	0.057250
39.666667	1	0.054625
39.683333	1	0.052750
39.700000	1	0.050125
39.716667	1	0.047625
39.733333	1	0.044750
39.750000	1	0.041125
39.766667	1	0.039375
39.783333	1	0.036125
39.800000	1	0.033125
39.816667	1	0.029875
39.833333	1	0.027000
39.850000	1	0.023375
39.866667	1	0.020625
39.883333	1	0.017750
39.900000	1	0.014625
39.916667	1	0.011125
39.933333	1	0.008625
39.950000	1	0.004875
39.966667	1	0.001625
39.983333	1	-0.001750
40.000000	1	-0.004375
