URL	chrom://bioreactor/micro_cm7/HPLC_Ultimate_3000/Users/markusar/20240517_CMO_FP23_FP25_MarkusDeplate.seq/767.smp/RI_1.channel/RI_1.chm
Channel	RI_1

Injection Information:
Data Vault	micro_cm7
Sequence	20240517_CMO_FP23_FP25_MarkusDeplate
Name	FP28_22.4_s2
Number	157
Position	BB11
Comment	
Processing Method	
Instrument Method	run_25B_method
Type	Unknown
Status	Finished
Inject Time	01.06.2024 06:20:08 +02:00
Volume (µl)	20.0000
Dilution Factor	1.0000
Weight	1.0000

Chromatogram Data Information:
Time Min. (min)	0.000000
Time Max. (min)	40.000000
Data Points	2401
Detector	RI
Generating Data System	Chromeleon 7.3.2.11814
Exporting Data System	Chromeleon 7.3.2.0
Operator	Instrument Controller
Signal Quantity	Refractive 
Signal Unit	µRIU
Signal Min.	-0.918500
Signal Max.	57.883875
Channel	RI_1
Driver Name	RID520Driver.dll
Channel Type	Evaluation
Min. Step (s)	1
Max. Step (s)	1
Average Step (s)	1

Signal Parameter Information:
Signal Info	

Chromatogram Data:
Time (min)	Step (s)	Value (µRIU)
0.000000	n.a.	0.033250
0.016667	1	0.033125
0.033333	1	0.033250
0.050000	1	0.033625
0.066667	1	0.034125
0.083333	1	0.034750
0.100000	1	0.035875
0.116667	1	0.036625
0.133333	1	0.036875
0.150000	1	0.037375
0.166667	1	0.037875
0.183333	1	0.038000
0.200000	1	0.038125
0.216667	1	0.038500
0.233333	1	0.038125
0.250000	1	0.038625
0.266667	1	0.038750
0.283333	1	0.039125
0.300000	1	0.039125
0.316667	1	0.039375
0.333333	1	0.038875
0.350000	1	0.038750
0.366667	1	0.037750
0.383333	1	0.036500
0.400000	1	0.035625
0.416667	1	0.035375
0.433333	1	0.034500
0.450000	1	0.034000
0.466667	1	0.033625
0.483333	1	0.033000
0.500000	1	0.031750
0.516667	1	0.031125
0.533333	1	0.030250
0.550000	1	0.029000
0.566667	1	0.028375
0.583333	1	0.026375
0.600000	1	0.024500
0.616667	1	0.023125
0.633333	1	0.022000
0.650000	1	0.020375
0.666667	1	0.019875
0.683333	1	0.018875
0.700000	1	0.017625
0.716667	1	0.016125
0.733333	1	0.015250
0.750000	1	0.014375
0.766667	1	0.013375
0.783333	1	0.012125
0.800000	1	0.010750
0.816667	1	0.010250
0.833333	1	0.009625
0.850000	1	0.009000
0.866667	1	0.008625
0.883333	1	0.008375
0.900000	1	0.008125
0.916667	1	0.008000
0.933333	1	0.007375
0.950000	1	0.007000
0.966667	1	0.007375
0.983333	1	0.008000
1.000000	1	0.008500
1.016667	1	0.010125
1.033333	1	0.011000
1.050000	1	0.011875
1.066667	1	0.013000
1.083333	1	0.015000
1.100000	1	0.016250
1.116667	1	0.018250
1.133333	1	0.019875
1.150000	1	0.021500
1.166667	1	0.024250
1.183333	1	0.026250
1.200000	1	0.027750
1.216667	1	0.029625
1.233333	1	0.031250
1.250000	1	0.032250
1.266667	1	0.034625
1.283333	1	0.036250
1.300000	1	0.037250
1.316667	1	0.038250
1.333333	1	0.040250
1.350000	1	0.041000
1.366667	1	0.042375
1.383333	1	0.043375
1.400000	1	0.044125
1.416667	1	0.045125
1.433333	1	0.046375
1.450000	1	0.046125
1.466667	1	0.046500
1.483333	1	0.046375
1.500000	1	0.046125
1.516667	1	0.045625
1.533333	1	0.044250
1.550000	1	0.042875
1.566667	1	0.042500
1.583333	1	0.041500
1.600000	1	0.040250
1.616667	1	0.038875
1.633333	1	0.037375
1.650000	1	0.035250
1.666667	1	0.033750
1.683333	1	0.032625
1.700000	1	0.030875
1.716667	1	0.029500
1.733333	1	0.027375
1.750000	1	0.025625
1.766667	1	0.023375
1.783333	1	0.021375
1.800000	1	0.019250
1.816667	1	0.017125
1.833333	1	0.015000
1.850000	1	0.014125
1.866667	1	0.011500
1.883333	1	0.009875
1.900000	1	0.008125
1.916667	1	0.006375
1.933333	1	0.005125
1.950000	1	0.003875
1.966667	1	0.002000
1.983333	1	0.001000
2.000000	1	0.000250
2.016667	1	-0.000625
2.033333	1	-0.000875
2.050000	1	-0.001625
2.066667	1	-0.002250
2.083333	1	-0.003250
2.100000	1	-0.003000
2.116667	1	-0.003750
2.133333	1	-0.004625
2.150000	1	-0.005125
2.166667	1	-0.005625
2.183333	1	-0.005875
2.200000	1	-0.006250
2.216667	1	-0.006375
2.233333	1	-0.006500
2.250000	1	-0.006750
2.266667	1	-0.006125
2.283333	1	-0.006125
2.300000	1	-0.006750
2.316667	1	-0.007000
2.333333	1	-0.007375
2.350000	1	-0.007625
2.366667	1	-0.007625
2.383333	1	-0.007250
2.400000	1	-0.007000
2.416667	1	-0.006500
2.433333	1	-0.005875
2.450000	1	-0.005125
2.466667	1	-0.005000
2.483333	1	-0.005250
2.500000	1	-0.005625
2.516667	1	-0.004625
2.533333	1	-0.003625
2.550000	1	-0.003375
2.566667	1	-0.002125
2.583333	1	-0.001375
2.600000	1	-0.000500
2.616667	1	-0.000125
2.633333	1	0.001000
2.650000	1	0.002500
2.666667	1	0.004000
2.683333	1	0.005375
2.700000	1	0.006875
2.716667	1	0.008625
2.733333	1	0.010750
2.750000	1	0.012250
2.766667	1	0.014500
2.783333	1	0.017500
2.800000	1	0.020250
2.816667	1	0.022250
2.833333	1	0.025125
2.850000	1	0.027625
2.866667	1	0.030625
2.883333	1	0.032625
2.900000	1	0.035875
2.916667	1	0.039375
2.933333	1	0.042375
2.950000	1	0.045125
2.966667	1	0.047750
2.983333	1	0.050875
3.000000	1	0.053375
3.016667	1	0.055875
3.033333	1	0.059125
3.050000	1	0.062375
3.066667	1	0.065250
3.083333	1	0.067500
3.100000	1	0.070250
3.116667	1	0.073125
3.133333	1	0.076000
3.150000	1	0.079000
3.166667	1	0.081500
3.183333	1	0.084125
3.200000	1	0.085750
3.216667	1	0.088000
3.233333	1	0.090125
3.250000	1	0.091750
3.266667	1	0.093500
3.283333	1	0.095750
3.300000	1	0.097750
3.316667	1	0.100125
3.333333	1	0.101875
3.350000	1	0.103875
3.366667	1	0.105750
3.383333	1	0.108750
3.400000	1	0.110875
3.416667	1	0.113125
3.433333	1	0.115875
3.450000	1	0.118375
3.466667	1	0.120625
3.483333	1	0.122750
3.500000	1	0.124875
3.516667	1	0.126875
3.533333	1	0.129500
3.550000	1	0.130500
3.566667	1	0.132500
3.583333	1	0.134375
3.600000	1	0.135625
3.616667	1	0.137000
3.633333	1	0.138750
3.650000	1	0.139375
3.666667	1	0.140625
3.683333	1	0.140875
3.700000	1	0.141250
3.716667	1	0.141625
3.733333	1	0.142000
3.750000	1	0.141250
3.766667	1	0.140625
3.783333	1	0.140375
3.800000	1	0.139750
3.816667	1	0.138875
3.833333	1	0.137750
3.850000	1	0.136875
3.866667	1	0.135250
3.883333	1	0.133125
3.900000	1	0.132000
3.916667	1	0.129750
3.933333	1	0.127375
3.950000	1	0.126125
3.966667	1	0.124625
3.983333	1	0.122625
4.000000	1	0.120500
4.016667	1	0.118125
4.033333	1	0.116375
4.050000	1	0.114500
4.066667	1	0.114000
4.083333	1	0.113125
4.100000	1	0.112375
4.116667	1	0.110750
4.133333	1	0.110000
4.150000	1	0.109125
4.166667	1	0.108625
4.183333	1	0.108250
4.200000	1	0.108500
4.216667	1	0.108500
4.233333	1	0.108250
4.250000	1	0.108750
4.266667	1	0.109250
4.283333	1	0.109875
4.300000	1	0.111125
4.316667	1	0.112250
4.333333	1	0.113125
4.350000	1	0.114000
4.366667	1	0.115375
4.383333	1	0.117625
4.400000	1	0.119125
4.416667	1	0.120750
4.433333	1	0.122750
4.450000	1	0.124250
4.466667	1	0.126875
4.483333	1	0.129000
4.500000	1	0.130250
4.516667	1	0.132625
4.533333	1	0.135125
4.550000	1	0.137125
4.566667	1	0.139000
4.583333	1	0.141750
4.600000	1	0.144125
4.616667	1	0.147000
4.633333	1	0.149000
4.650000	1	0.151125
4.666667	1	0.153125
4.683333	1	0.155500
4.700000	1	0.157375
4.716667	1	0.159125
4.733333	1	0.161250
4.750000	1	0.163500
4.766667	1	0.165750
4.783333	1	0.168125
4.800000	1	0.170250
4.816667	1	0.172750
4.833333	1	0.174875
4.850000	1	0.177875
4.866667	1	0.180125
4.883333	1	0.181875
4.900000	1	0.183625
4.916667	1	0.185750
4.933333	1	0.188625
4.950000	1	0.191000
4.966667	1	0.193875
4.983333	1	0.195750
5.000000	1	0.198375
5.016667	1	0.200000
5.033333	1	0.201750
5.050000	1	0.202875
5.066667	1	0.204750
5.083333	1	0.206250
5.100000	1	0.207750
5.116667	1	0.210000
5.133333	1	0.211375
5.150000	1	0.212625
5.166667	1	0.214250
5.183333	1	0.216000
5.200000	1	0.217000
5.216667	1	0.217875
5.233333	1	0.219625
5.250000	1	0.220625
5.266667	1	0.221250
5.283333	1	0.222375
5.300000	1	0.223625
5.316667	1	0.224875
5.333333	1	0.227000
5.350000	1	0.228750
5.366667	1	0.229750
5.383333	1	0.231125
5.400000	1	0.233125
5.416667	1	0.235625
5.433333	1	0.238000
5.450000	1	0.240875
5.466667	1	0.243750
5.483333	1	0.246375
5.500000	1	0.249250
5.516667	1	0.252125
5.533333	1	0.255250
5.550000	1	0.257750
5.566667	1	0.260875
5.583333	1	0.263875
5.600000	1	0.267750
5.616667	1	0.271125
5.633333	1	0.274500
5.650000	1	0.278125
5.666667	1	0.281000
5.683333	1	0.284000
5.700000	1	0.287625
5.716667	1	0.290500
5.733333	1	0.292750
5.750000	1	0.295125
5.766667	1	0.298000
5.783333	1	0.299625
5.800000	1	0.301875
5.816667	1	0.303125
5.833333	1	0.304750
5.850000	1	0.305500
5.866667	1	0.306000
5.883333	1	0.306500
5.900000	1	0.306000
5.916667	1	0.305125
5.933333	1	0.304625
5.950000	1	0.303500
5.966667	1	0.302375
5.983333	1	0.301000
6.000000	1	0.298500
6.016667	1	0.296125
6.033333	1	0.293500
6.050000	1	0.290500
6.066667	1	0.287000
6.083333	1	0.283875
6.100000	1	0.280000
6.116667	1	0.276500
6.133333	1	0.272250
6.150000	1	0.268250
6.166667	1	0.264125
6.183333	1	0.260125
6.200000	1	0.255500
6.216667	1	0.251125
6.233333	1	0.246750
6.250000	1	0.241875
6.266667	1	0.237625
6.283333	1	0.232875
6.300000	1	0.228375
6.316667	1	0.224750
6.333333	1	0.220625
6.350000	1	0.217125
6.366667	1	0.214000
6.383333	1	0.210875
6.400000	1	0.207000
6.416667	1	0.204250
6.433333	1	0.200875
6.450000	1	0.197875
6.466667	1	0.195000
6.483333	1	0.192625
6.500000	1	0.190625
6.516667	1	0.188250
6.533333	1	0.186125
6.550000	1	0.184000
6.566667	1	0.182625
6.583333	1	0.180375
6.600000	1	0.178500
6.616667	1	0.176750
6.633333	1	0.174500
6.650000	1	0.173125
6.666667	1	0.170875
6.683333	1	0.168875
6.700000	1	0.167125
6.716667	1	0.165375
6.733333	1	0.163125
6.750000	1	0.161375
6.766667	1	0.159875
6.783333	1	0.158125
6.800000	1	0.156625
6.816667	1	0.155125
6.833333	1	0.153500
6.850000	1	0.151750
6.866667	1	0.149750
6.883333	1	0.148375
6.900000	1	0.147000
6.916667	1	0.145500
6.933333	1	0.144625
6.950000	1	0.143875
6.966667	1	0.143125
6.983333	1	0.142750
7.000000	1	0.142125
7.016667	1	0.141500
7.033333	1	0.142000
7.050000	1	0.142000
7.066667	1	0.142125
7.083333	1	0.142500
7.100000	1	0.143375
7.116667	1	0.143750
7.133333	1	0.144250
7.150000	1	0.145125
7.166667	1	0.146625
7.183333	1	0.148875
7.200000	1	0.150125
7.216667	1	0.152000
7.233333	1	0.154375
7.250000	1	0.155500
7.266667	1	0.157625
7.283333	1	0.159375
7.300000	1	0.161625
7.316667	1	0.164625
7.333333	1	0.166875
7.350000	1	0.170250
7.366667	1	0.173500
7.383333	1	0.176500
7.400000	1	0.180500
7.416667	1	0.183875
7.433333	1	0.187750
7.450000	1	0.191500
7.466667	1	0.194750
7.483333	1	0.199000
7.500000	1	0.203000
7.516667	1	0.206875
7.533333	1	0.210500
7.550000	1	0.214500
7.566667	1	0.218750
7.583333	1	0.222875
7.600000	1	0.227500
7.616667	1	0.231250
7.633333	1	0.235000
7.650000	1	0.238500
7.666667	1	0.241500
7.683333	1	0.244375
7.700000	1	0.247000
7.716667	1	0.248625
7.733333	1	0.251250
7.750000	1	0.252500
7.766667	1	0.253375
7.783333	1	0.254250
7.800000	1	0.254875
7.816667	1	0.254125
7.833333	1	0.253500
7.850000	1	0.252750
7.866667	1	0.250625
7.883333	1	0.248000
7.900000	1	0.245500
7.916667	1	0.242375
7.933333	1	0.239250
7.950000	1	0.235250
7.966667	1	0.231625
7.983333	1	0.227750
8.000000	1	0.223125
8.016667	1	0.217875
8.033333	1	0.212500
8.050000	1	0.207375
8.066667	1	0.202000
8.083333	1	0.196125
8.100000	1	0.190875
8.116667	1	0.186000
8.133333	1	0.180375
8.150000	1	0.175250
8.166667	1	0.169625
8.183333	1	0.164750
8.200000	1	0.159375
8.216667	1	0.153625
8.233333	1	0.148875
8.250000	1	0.144375
8.266667	1	0.140250
8.283333	1	0.135625
8.300000	1	0.131000
8.316667	1	0.126125
8.333333	1	0.122250
8.350000	1	0.118250
8.366667	1	0.114125
8.383333	1	0.109500
8.400000	1	0.106250
8.416667	1	0.102000
8.433333	1	0.098250
8.450000	1	0.094375
8.466667	1	0.090750
8.483333	1	0.086625
8.500000	1	0.082625
8.516667	1	0.079750
8.533333	1	0.076625
8.550000	1	0.074250
8.566667	1	0.070625
8.583333	1	0.067250
8.600000	1	0.063875
8.616667	1	0.061125
8.633333	1	0.058375
8.650000	1	0.056250
8.666667	1	0.054000
8.683333	1	0.052000
8.700000	1	0.049875
8.716667	1	0.048875
8.733333	1	0.047250
8.750000	1	0.046625
8.766667	1	0.045375
8.783333	1	0.044875
8.800000	1	0.045000
8.816667	1	0.045375
8.833333	1	0.045125
8.850000	1	0.045625
8.866667	1	0.046000
8.883333	1	0.046750
8.900000	1	0.047750
8.916667	1	0.048875
8.933333	1	0.050625
8.950000	1	0.052125
8.966667	1	0.054000
8.983333	1	0.056250
9.000000	1	0.058750
9.016667	1	0.060500
9.033333	1	0.062500
9.050000	1	0.064875
9.066667	1	0.067625
9.083333	1	0.070375
9.100000	1	0.072250
9.116667	1	0.074750
9.133333	1	0.078125
9.150000	1	0.081000
9.166667	1	0.084125
9.183333	1	0.087125
9.200000	1	0.090250
9.216667	1	0.092875
9.233333	1	0.095375
9.250000	1	0.098375
9.266667	1	0.100750
9.283333	1	0.104000
9.300000	1	0.106375
9.316667	1	0.109000
9.333333	1	0.111250
9.350000	1	0.113125
9.366667	1	0.114750
9.383333	1	0.116000
9.400000	1	0.118000
9.416667	1	0.119750
9.433333	1	0.121250
9.450000	1	0.123375
9.466667	1	0.124500
9.483333	1	0.126125
9.500000	1	0.127625
9.516667	1	0.129125
9.533333	1	0.130500
9.550000	1	0.132125
9.566667	1	0.132875
9.583333	1	0.133875
9.600000	1	0.134250
9.616667	1	0.134875
9.633333	1	0.135250
9.650000	1	0.136500
9.666667	1	0.136625
9.683333	1	0.136875
9.700000	1	0.137250
9.716667	1	0.137750
9.733333	1	0.138000
9.750000	1	0.138250
9.766667	1	0.138875
9.783333	1	0.139250
9.800000	1	0.139500
9.816667	1	0.139125
9.833333	1	0.139125
9.850000	1	0.138625
9.866667	1	0.138000
9.883333	1	0.137875
9.900000	1	0.137500
9.916667	1	0.137125
9.933333	1	0.137000
9.950000	1	0.136125
9.966667	1	0.135500
9.983333	1	0.135125
10.000000	1	0.134125
10.016667	1	0.133250
10.033333	1	0.132500
10.050000	1	0.131875
10.066667	1	0.132125
10.083333	1	0.132625
10.100000	1	0.133625
10.116667	1	0.135250
10.133333	1	0.137500
10.150000	1	0.140500
10.166667	1	0.145375
10.183333	1	0.151625
10.200000	1	0.159000
10.216667	1	0.168750
10.233333	1	0.179625
10.250000	1	0.192625
10.266667	1	0.208250
10.283333	1	0.226375
10.300000	1	0.247375
10.316667	1	0.270000
10.333333	1	0.294375
10.350000	1	0.320250
10.366667	1	0.344250
10.383333	1	0.365000
10.400000	1	0.381750
10.416667	1	0.392625
10.433333	1	0.399500
10.450000	1	0.405125
10.466667	1	0.419000
10.483333	1	0.453500
10.500000	1	0.530125
10.516667	1	0.679875
10.533333	1	0.943000
10.550000	1	1.370750
10.566667	1	2.020875
10.583333	1	2.952875
10.600000	1	4.223750
10.616667	1	5.881000
10.633333	1	7.956875
10.650000	1	10.464500
10.666667	1	13.407125
10.683333	1	16.765375
10.700000	1	20.506125
10.716667	1	24.567500
10.733333	1	28.862625
10.750000	1	33.264875
10.766667	1	37.605625
10.783333	1	41.659500
10.800000	1	45.150625
10.816667	1	47.766125
10.833333	1	49.207750
10.850000	1	49.253125
10.866667	1	47.826000
10.883333	1	45.036625
10.900000	1	41.170500
10.916667	1	36.629375
10.933333	1	31.835000
10.950000	1	27.147375
10.966667	1	22.819375
10.983333	1	18.990000
11.000000	1	15.706875
11.016667	1	12.961625
11.033333	1	10.711625
11.050000	1	8.894625
11.066667	1	7.443625
11.083333	1	6.294125
11.100000	1	5.385500
11.116667	1	4.669250
11.133333	1	4.101375
11.150000	1	3.648250
11.166667	1	3.283000
11.183333	1	2.986125
11.200000	1	2.741250
11.216667	1	2.537250
11.233333	1	2.364500
11.250000	1	2.217000
11.266667	1	2.089375
11.283333	1	1.977875
11.300000	1	1.879375
11.316667	1	1.791875
11.333333	1	1.714375
11.350000	1	1.644375
11.366667	1	1.582125
11.383333	1	1.526375
11.400000	1	1.477125
11.416667	1	1.432875
11.433333	1	1.393375
11.450000	1	1.357750
11.466667	1	1.325750
11.483333	1	1.297500
11.500000	1	1.272250
11.516667	1	1.249250
11.533333	1	1.228000
11.550000	1	1.208750
11.566667	1	1.192250
11.583333	1	1.177000
11.600000	1	1.163000
11.616667	1	1.150875
11.633333	1	1.139750
11.650000	1	1.131375
11.666667	1	1.124375
11.683333	1	1.118625
11.700000	1	1.114375
11.716667	1	1.111000
11.733333	1	1.109875
11.750000	1	1.110250
11.766667	1	1.112125
11.783333	1	1.114750
11.800000	1	1.118375
11.816667	1	1.123250
11.833333	1	1.128500
11.850000	1	1.133375
11.866667	1	1.138875
11.883333	1	1.144125
11.900000	1	1.150000
11.916667	1	1.155375
11.933333	1	1.161000
11.950000	1	1.166250
11.966667	1	1.172000
11.983333	1	1.177375
12.000000	1	1.183500
12.016667	1	1.190125
12.033333	1	1.197375
12.050000	1	1.204750
12.066667	1	1.212500
12.083333	1	1.221625
12.100000	1	1.229875
12.116667	1	1.239000
12.133333	1	1.248250
12.150000	1	1.259375
12.166667	1	1.270125
12.183333	1	1.281250
12.200000	1	1.293625
12.216667	1	1.307750
12.233333	1	1.323375
12.250000	1	1.341375
12.266667	1	1.362000
12.283333	1	1.385625
12.300000	1	1.412000
12.316667	1	1.444250
12.333333	1	1.482625
12.350000	1	1.528625
12.366667	1	1.584500
12.383333	1	1.651625
12.400000	1	1.733250
12.416667	1	1.832750
12.433333	1	1.955000
12.450000	1	2.103250
12.466667	1	2.283000
12.483333	1	2.497375
12.500000	1	2.750625
12.516667	1	3.044625
12.533333	1	3.378125
12.550000	1	3.747625
12.566667	1	4.146625
12.583333	1	4.563250
12.600000	1	4.985625
12.616667	1	5.396500
12.633333	1	5.779875
12.650000	1	6.119750
12.666667	1	6.401875
12.683333	1	6.613000
12.700000	1	6.746875
12.716667	1	6.799625
12.733333	1	6.774625
12.750000	1	6.678500
12.766667	1	6.519875
12.783333	1	6.311500
12.800000	1	6.064875
12.816667	1	5.791750
12.833333	1	5.504375
12.850000	1	5.212750
12.866667	1	4.924500
12.883333	1	4.645500
12.900000	1	4.381750
12.916667	1	4.134875
12.933333	1	3.909375
12.950000	1	3.705250
12.966667	1	3.521875
12.983333	1	3.358500
13.000000	1	3.214125
13.016667	1	3.086750
13.033333	1	2.974500
13.050000	1	2.875750
13.066667	1	2.788000
13.083333	1	2.709250
13.100000	1	2.638625
13.116667	1	2.575000
13.133333	1	2.517500
13.150000	1	2.465125
13.166667	1	2.416875
13.183333	1	2.371500
13.200000	1	2.328750
13.216667	1	2.288875
13.233333	1	2.251375
13.250000	1	2.214875
13.266667	1	2.179750
13.283333	1	2.145500
13.300000	1	2.113250
13.316667	1	2.082875
13.333333	1	2.053625
13.350000	1	2.025875
13.366667	1	2.000500
13.383333	1	1.975625
13.400000	1	1.954000
13.416667	1	1.933750
13.433333	1	1.917125
13.450000	1	1.902500
13.466667	1	1.889625
13.483333	1	1.878875
13.500000	1	1.870250
13.516667	1	1.864250
13.533333	1	1.858875
13.550000	1	1.854875
13.566667	1	1.851625
13.583333	1	1.849000
13.600000	1	1.845625
13.616667	1	1.840875
13.633333	1	1.833625
13.650000	1	1.825000
13.666667	1	1.813875
13.683333	1	1.799375
13.700000	1	1.781750
13.716667	1	1.763125
13.733333	1	1.742250
13.750000	1	1.719375
13.766667	1	1.696875
13.783333	1	1.674000
13.800000	1	1.650500
13.816667	1	1.627375
13.833333	1	1.605625
13.850000	1	1.584375
13.866667	1	1.564250
13.883333	1	1.545750
13.900000	1	1.528125
13.916667	1	1.512000
13.933333	1	1.496750
13.950000	1	1.482750
13.966667	1	1.469750
13.983333	1	1.457625
14.000000	1	1.447000
14.016667	1	1.437250
14.033333	1	1.428250
14.050000	1	1.419875
14.066667	1	1.412375
14.083333	1	1.406375
14.100000	1	1.400500
14.116667	1	1.394750
14.133333	1	1.390625
14.150000	1	1.386625
14.166667	1	1.384125
14.183333	1	1.382625
14.200000	1	1.381375
14.216667	1	1.382250
14.233333	1	1.384250
14.250000	1	1.387500
14.266667	1	1.393125
14.283333	1	1.400750
14.300000	1	1.410750
14.316667	1	1.424125
14.333333	1	1.440750
14.350000	1	1.462875
14.366667	1	1.490000
14.383333	1	1.524500
14.400000	1	1.568000
14.416667	1	1.624500
14.433333	1	1.696875
14.450000	1	1.793125
14.466667	1	1.920375
14.483333	1	2.090125
14.500000	1	2.319000
14.516667	1	2.624625
14.533333	1	3.034125
14.550000	1	3.577250
14.566667	1	4.293000
14.583333	1	5.221625
14.600000	1	6.411000
14.616667	1	7.911875
14.633333	1	9.774500
14.650000	1	12.042125
14.666667	1	14.746250
14.683333	1	17.897000
14.700000	1	21.480375
14.716667	1	25.448500
14.733333	1	29.724375
14.750000	1	34.196250
14.766667	1	38.721875
14.783333	1	43.132000
14.800000	1	47.250750
14.816667	1	50.899125
14.833333	1	53.910625
14.850000	1	56.140875
14.866667	1	57.485625
14.883333	1	57.883875
14.900000	1	57.330750
14.916667	1	55.875625
14.933333	1	53.609125
14.950000	1	50.662875
14.966667	1	47.191750
14.983333	1	43.365750
15.000000	1	39.344375
15.016667	1	35.275625
15.033333	1	31.285250
15.050000	1	27.477375
15.066667	1	23.928125
15.083333	1	20.690250
15.100000	1	17.789750
15.116667	1	15.234000
15.133333	1	13.010875
15.150000	1	11.099375
15.166667	1	9.473000
15.183333	1	8.101125
15.200000	1	6.950875
15.216667	1	5.992000
15.233333	1	5.197875
15.250000	1	4.543250
15.266667	1	4.006250
15.283333	1	3.569625
15.300000	1	3.217750
15.316667	1	2.936625
15.333333	1	2.715875
15.350000	1	2.544250
15.366667	1	2.413750
15.383333	1	2.316500
15.400000	1	2.246500
15.416667	1	2.197250
15.433333	1	2.163625
15.450000	1	2.140000
15.466667	1	2.123375
15.483333	1	2.109125
15.500000	1	2.094375
15.516667	1	2.076375
15.533333	1	2.054375
15.550000	1	2.027375
15.566667	1	1.995125
15.583333	1	1.957500
15.600000	1	1.916000
15.616667	1	1.871625
15.633333	1	1.825375
15.650000	1	1.778750
15.666667	1	1.733000
15.683333	1	1.689250
15.700000	1	1.647250
15.716667	1	1.607250
15.733333	1	1.570250
15.750000	1	1.536250
15.766667	1	1.505375
15.783333	1	1.476875
15.800000	1	1.450125
15.816667	1	1.425500
15.833333	1	1.403125
15.850000	1	1.382125
15.866667	1	1.362625
15.883333	1	1.345500
15.900000	1	1.330250
15.916667	1	1.316250
15.933333	1	1.304500
15.950000	1	1.294000
15.966667	1	1.286625
15.983333	1	1.280500
16.000000	1	1.276375
16.016667	1	1.273500
16.033333	1	1.272500
16.050000	1	1.272000
16.066667	1	1.272500
16.083333	1	1.273875
16.100000	1	1.276125
16.116667	1	1.278375
16.133333	1	1.280375
16.150000	1	1.282250
16.166667	1	1.284500
16.183333	1	1.285250
16.200000	1	1.285500
16.216667	1	1.285375
16.233333	1	1.284875
16.250000	1	1.283125
16.266667	1	1.280000
16.283333	1	1.277500
16.300000	1	1.274375
16.316667	1	1.270750
16.333333	1	1.266500
16.350000	1	1.263500
16.366667	1	1.260250
16.383333	1	1.258250
16.400000	1	1.257250
16.416667	1	1.257125
16.433333	1	1.257625
16.450000	1	1.259375
16.466667	1	1.262375
16.483333	1	1.265625
16.500000	1	1.269250
16.516667	1	1.274250
16.533333	1	1.278625
16.550000	1	1.282000
16.566667	1	1.284750
16.583333	1	1.287000
16.600000	1	1.287750
16.616667	1	1.286750
16.633333	1	1.285250
16.650000	1	1.283500
16.666667	1	1.281250
16.683333	1	1.278250
16.700000	1	1.276125
16.716667	1	1.274500
16.733333	1	1.273750
16.750000	1	1.274125
16.766667	1	1.275375
16.783333	1	1.278375
16.800000	1	1.282750
16.816667	1	1.288625
16.833333	1	1.294000
16.850000	1	1.299750
16.866667	1	1.305375
16.883333	1	1.310250
16.900000	1	1.314625
16.916667	1	1.318000
16.933333	1	1.319125
16.950000	1	1.319875
16.966667	1	1.318250
16.983333	1	1.314875
17.000000	1	1.310375
17.016667	1	1.305750
17.033333	1	1.299875
17.050000	1	1.293500
17.066667	1	1.286875
17.083333	1	1.281000
17.100000	1	1.275750
17.116667	1	1.270000
17.133333	1	1.265875
17.150000	1	1.263000
17.166667	1	1.260875
17.183333	1	1.258875
17.200000	1	1.257875
17.216667	1	1.257375
17.233333	1	1.257875
17.250000	1	1.259125
17.266667	1	1.261125
17.283333	1	1.263125
17.300000	1	1.266625
17.316667	1	1.269625
17.333333	1	1.273375
17.350000	1	1.276625
17.366667	1	1.279875
17.383333	1	1.283500
17.400000	1	1.286000
17.416667	1	1.287500
17.433333	1	1.289375
17.450000	1	1.289500
17.466667	1	1.287625
17.483333	1	1.284375
17.500000	1	1.279875
17.516667	1	1.273250
17.533333	1	1.265375
17.550000	1	1.255250
17.566667	1	1.244125
17.583333	1	1.231625
17.600000	1	1.218000
17.616667	1	1.203250
17.633333	1	1.188000
17.650000	1	1.172000
17.666667	1	1.156375
17.683333	1	1.140875
17.700000	1	1.124750
17.716667	1	1.110000
17.733333	1	1.095375
17.750000	1	1.082375
17.766667	1	1.070750
17.783333	1	1.059500
17.800000	1	1.049625
17.816667	1	1.040875
17.833333	1	1.032500
17.850000	1	1.025250
17.866667	1	1.018500
17.883333	1	1.012875
17.900000	1	1.007500
17.916667	1	1.002375
17.933333	1	0.997375
17.950000	1	0.992500
17.966667	1	0.987000
17.983333	1	0.982375
18.000000	1	0.976875
18.016667	1	0.970875
18.033333	1	0.965625
18.050000	1	0.959375
18.066667	1	0.953750
18.083333	1	0.947375
18.100000	1	0.941000
18.116667	1	0.935000
18.133333	1	0.929625
18.150000	1	0.924250
18.166667	1	0.919250
18.183333	1	0.914750
18.200000	1	0.910625
18.216667	1	0.907000
18.233333	1	0.903500
18.250000	1	0.900750
18.266667	1	0.897750
18.283333	1	0.895875
18.300000	1	0.894375
18.316667	1	0.893750
18.333333	1	0.892750
18.350000	1	0.892875
18.366667	1	0.893125
18.383333	1	0.895250
18.400000	1	0.897625
18.416667	1	0.902000
18.433333	1	0.906625
18.450000	1	0.913375
18.466667	1	0.921250
18.483333	1	0.931750
18.500000	1	0.944500
18.516667	1	0.959000
18.533333	1	0.975000
18.550000	1	0.993125
18.566667	1	1.013500
18.583333	1	1.036000
18.600000	1	1.059875
18.616667	1	1.086625
18.633333	1	1.114250
18.650000	1	1.143625
18.666667	1	1.174750
18.683333	1	1.206125
18.700000	1	1.238125
18.716667	1	1.270875
18.733333	1	1.304750
18.750000	1	1.338000
18.766667	1	1.370875
18.783333	1	1.402875
18.800000	1	1.433875
18.816667	1	1.462875
18.833333	1	1.488625
18.850000	1	1.511250
18.866667	1	1.530750
18.883333	1	1.544375
18.900000	1	1.553250
18.916667	1	1.557375
18.933333	1	1.556375
18.950000	1	1.549500
18.966667	1	1.536500
18.983333	1	1.517500
19.000000	1	1.492625
19.016667	1	1.462875
19.033333	1	1.429500
19.050000	1	1.391625
19.066667	1	1.350750
19.083333	1	1.307750
19.100000	1	1.264000
19.116667	1	1.220125
19.133333	1	1.176500
19.150000	1	1.135125
19.166667	1	1.096375
19.183333	1	1.060375
19.200000	1	1.028250
19.216667	1	1.000625
19.233333	1	0.977875
19.250000	1	0.960875
19.266667	1	0.948625
19.283333	1	0.942250
19.300000	1	0.941250
19.316667	1	0.946000
19.333333	1	0.956125
19.350000	1	0.971000
19.366667	1	0.990250
19.383333	1	1.014375
19.400000	1	1.041375
19.416667	1	1.072000
19.433333	1	1.104000
19.450000	1	1.136500
19.466667	1	1.169000
19.483333	1	1.200750
19.500000	1	1.231250
19.516667	1	1.259250
19.533333	1	1.283500
19.550000	1	1.303750
19.566667	1	1.320375
19.583333	1	1.331375
19.600000	1	1.337875
19.616667	1	1.339125
19.633333	1	1.335125
19.650000	1	1.326000
19.666667	1	1.312750
19.683333	1	1.296125
19.700000	1	1.275625
19.716667	1	1.251125
19.733333	1	1.223875
19.750000	1	1.194625
19.766667	1	1.163625
19.783333	1	1.131000
19.800000	1	1.097500
19.816667	1	1.063625
19.833333	1	1.029875
19.850000	1	0.997375
19.866667	1	0.965125
19.883333	1	0.933875
19.900000	1	0.904125
19.916667	1	0.876625
19.933333	1	0.851875
19.950000	1	0.830000
19.966667	1	0.811000
19.983333	1	0.795625
20.000000	1	0.783000
20.016667	1	0.775375
20.033333	1	0.770750
20.050000	1	0.770750
20.066667	1	0.774500
20.083333	1	0.782500
20.100000	1	0.794500
20.116667	1	0.810500
20.133333	1	0.830500
20.150000	1	0.853875
20.166667	1	0.879750
20.183333	1	0.908000
20.200000	1	0.937625
20.216667	1	0.966625
20.233333	1	0.994000
20.250000	1	1.019125
20.266667	1	1.042000
20.283333	1	1.061000
20.300000	1	1.075250
20.316667	1	1.084500
20.333333	1	1.087875
20.350000	1	1.085125
20.366667	1	1.076875
20.383333	1	1.063375
20.400000	1	1.045875
20.416667	1	1.024250
20.433333	1	0.999375
20.450000	1	0.972875
20.466667	1	0.945375
20.483333	1	0.918625
20.500000	1	0.893500
20.516667	1	0.872500
20.533333	1	0.855500
20.550000	1	0.843625
20.566667	1	0.837500
20.583333	1	0.838750
20.600000	1	0.846375
20.616667	1	0.862625
20.633333	1	0.887750
20.650000	1	0.921375
20.666667	1	0.962750
20.683333	1	1.012375
20.700000	1	1.069000
20.716667	1	1.131875
20.733333	1	1.201000
20.750000	1	1.272250
20.766667	1	1.347250
20.783333	1	1.420875
20.800000	1	1.492625
20.816667	1	1.560750
20.833333	1	1.622000
20.850000	1	1.674125
20.866667	1	1.716375
20.883333	1	1.747375
20.900000	1	1.765125
20.916667	1	1.770250
20.933333	1	1.762500
20.950000	1	1.741375
20.966667	1	1.708750
20.983333	1	1.664500
21.000000	1	1.611500
21.016667	1	1.550875
21.033333	1	1.484500
21.050000	1	1.414500
21.066667	1	1.342500
21.083333	1	1.270000
21.100000	1	1.199500
21.116667	1	1.130875
21.133333	1	1.064875
21.150000	1	1.003375
21.166667	1	0.946125
21.183333	1	0.893375
21.200000	1	0.845125
21.216667	1	0.802000
21.233333	1	0.763500
21.250000	1	0.729125
21.266667	1	0.698750
21.283333	1	0.672750
21.300000	1	0.649625
21.316667	1	0.629125
21.333333	1	0.611750
21.350000	1	0.596625
21.366667	1	0.584000
21.383333	1	0.572750
21.400000	1	0.564000
21.416667	1	0.556250
21.433333	1	0.550250
21.450000	1	0.544375
21.466667	1	0.539750
21.483333	1	0.537125
21.500000	1	0.536375
21.516667	1	0.536500
21.533333	1	0.537125
21.550000	1	0.539250
21.566667	1	0.543125
21.583333	1	0.547625
21.600000	1	0.553875
21.616667	1	0.561750
21.633333	1	0.570750
21.650000	1	0.581125
21.666667	1	0.593375
21.683333	1	0.607875
21.700000	1	0.624500
21.716667	1	0.642500
21.733333	1	0.662625
21.750000	1	0.682875
21.766667	1	0.705750
21.783333	1	0.729250
21.800000	1	0.753250
21.816667	1	0.777375
21.833333	1	0.801625
21.850000	1	0.825750
21.866667	1	0.848625
21.883333	1	0.870250
21.900000	1	0.889750
21.916667	1	0.908125
21.933333	1	0.923000
21.950000	1	0.935375
21.966667	1	0.945000
21.983333	1	0.951000
22.000000	1	0.953500
22.016667	1	0.953375
22.033333	1	0.949375
22.050000	1	0.942375
22.066667	1	0.933000
22.083333	1	0.920625
22.100000	1	0.906000
22.116667	1	0.889000
22.133333	1	0.870750
22.150000	1	0.850500
22.166667	1	0.830000
22.183333	1	0.808125
22.200000	1	0.784625
22.216667	1	0.762125
22.233333	1	0.738125
22.250000	1	0.714250
22.266667	1	0.690125
22.283333	1	0.666500
22.300000	1	0.643625
22.316667	1	0.621250
22.333333	1	0.599000
22.350000	1	0.577375
22.366667	1	0.556375
22.383333	1	0.537000
22.400000	1	0.518375
22.416667	1	0.500500
22.433333	1	0.483375
22.450000	1	0.467375
22.466667	1	0.452875
22.483333	1	0.439375
22.500000	1	0.428000
22.516667	1	0.417125
22.533333	1	0.408000
22.550000	1	0.399500
22.566667	1	0.391250
22.583333	1	0.384375
22.600000	1	0.378125
22.616667	1	0.373000
22.633333	1	0.367750
22.650000	1	0.364000
22.666667	1	0.359250
22.683333	1	0.355125
22.700000	1	0.351125
22.716667	1	0.347500
22.733333	1	0.344125
22.750000	1	0.340375
22.766667	1	0.337500
22.783333	1	0.334875
22.800000	1	0.332250
22.816667	1	0.329625
22.833333	1	0.326750
22.850000	1	0.323500
22.866667	1	0.320625
22.883333	1	0.318500
22.900000	1	0.316250
22.916667	1	0.313875
22.933333	1	0.313000
22.950000	1	0.312000
22.966667	1	0.311750
22.983333	1	0.311750
23.000000	1	0.311750
23.016667	1	0.312000
23.033333	1	0.312750
23.050000	1	0.313625
23.066667	1	0.315500
23.083333	1	0.317375
23.100000	1	0.320125
23.116667	1	0.323000
23.133333	1	0.327125
23.150000	1	0.330500
23.166667	1	0.334625
23.183333	1	0.339250
23.200000	1	0.344125
23.216667	1	0.350375
23.233333	1	0.358500
23.250000	1	0.366125
23.266667	1	0.376125
23.283333	1	0.387125
23.300000	1	0.401000
23.316667	1	0.417375
23.333333	1	0.437000
23.350000	1	0.461125
23.366667	1	0.490000
23.383333	1	0.524125
23.400000	1	0.564750
23.416667	1	0.613625
23.433333	1	0.670750
23.450000	1	0.738125
23.466667	1	0.815875
23.483333	1	0.906625
23.500000	1	1.011250
23.516667	1	1.130625
23.533333	1	1.265625
23.550000	1	1.417000
23.566667	1	1.585125
23.583333	1	1.769750
23.600000	1	1.969875
23.616667	1	2.184875
23.633333	1	2.414250
23.650000	1	2.654125
23.666667	1	2.901375
23.683333	1	3.154500
23.700000	1	3.409250
23.716667	1	3.660875
23.733333	1	3.906125
23.750000	1	4.138250
23.766667	1	4.352750
23.783333	1	4.545125
23.800000	1	4.711500
23.816667	1	4.848000
23.833333	1	4.951375
23.850000	1	5.020625
23.866667	1	5.054000
23.883333	1	5.050375
23.900000	1	5.011375
23.916667	1	4.937000
23.933333	1	4.831250
23.950000	1	4.696000
23.966667	1	4.535250
23.983333	1	4.353875
24.000000	1	4.155125
24.016667	1	3.943375
24.033333	1	3.723000
24.050000	1	3.498875
24.066667	1	3.273625
24.083333	1	3.050750
24.100000	1	2.832375
24.116667	1	2.622000
24.133333	1	2.420250
24.150000	1	2.228875
24.166667	1	2.048500
24.183333	1	1.880875
24.200000	1	1.724625
24.216667	1	1.581250
24.233333	1	1.450250
24.250000	1	1.330500
24.266667	1	1.222250
24.283333	1	1.124625
24.300000	1	1.036875
24.316667	1	0.958125
24.333333	1	0.888250
24.350000	1	0.824625
24.366667	1	0.769375
24.383333	1	0.721000
24.400000	1	0.678625
24.416667	1	0.642375
24.433333	1	0.610875
24.450000	1	0.584125
24.466667	1	0.560875
24.483333	1	0.541250
24.500000	1	0.525000
24.516667	1	0.510875
24.533333	1	0.499625
24.550000	1	0.490625
24.566667	1	0.483375
24.583333	1	0.476750
24.600000	1	0.470000
24.616667	1	0.464625
24.633333	1	0.460250
24.650000	1	0.456250
24.666667	1	0.451750
24.683333	1	0.447500
24.700000	1	0.443875
24.716667	1	0.440125
24.733333	1	0.435875
24.750000	1	0.431375
24.766667	1	0.426250
24.783333	1	0.421375
24.800000	1	0.416625
24.816667	1	0.411750
24.833333	1	0.407000
24.850000	1	0.402125
24.866667	1	0.396625
24.883333	1	0.392000
24.900000	1	0.387625
24.916667	1	0.383000
24.933333	1	0.378625
24.950000	1	0.374250
24.966667	1	0.370375
24.983333	1	0.366625
25.000000	1	0.363250
25.016667	1	0.360125
25.033333	1	0.357250
25.050000	1	0.354375
25.066667	1	0.352250
25.083333	1	0.349250
25.100000	1	0.346750
25.116667	1	0.343875
25.133333	1	0.340875
25.150000	1	0.338125
25.166667	1	0.335875
25.183333	1	0.333250
25.200000	1	0.331250
25.216667	1	0.328875
25.233333	1	0.325625
25.250000	1	0.322875
25.266667	1	0.319625
25.283333	1	0.317625
25.300000	1	0.315125
25.316667	1	0.312625
25.333333	1	0.310250
25.350000	1	0.308500
25.366667	1	0.306500
25.383333	1	0.304375
25.400000	1	0.302000
25.416667	1	0.300250
25.433333	1	0.298750
25.450000	1	0.297500
25.466667	1	0.297125
25.483333	1	0.295500
25.500000	1	0.294375
25.516667	1	0.293125
25.533333	1	0.292875
25.550000	1	0.292250
25.566667	1	0.292375
25.583333	1	0.292500
25.600000	1	0.292875
25.616667	1	0.292875
25.633333	1	0.292875
25.650000	1	0.293750
25.666667	1	0.293500
25.683333	1	0.293500
25.700000	1	0.294125
25.716667	1	0.294500
25.733333	1	0.295125
25.750000	1	0.295750
25.766667	1	0.296000
25.783333	1	0.296375
25.800000	1	0.296875
25.816667	1	0.297125
25.833333	1	0.297750
25.850000	1	0.298125
25.866667	1	0.298875
25.883333	1	0.300500
25.900000	1	0.301625
25.916667	1	0.304000
25.933333	1	0.305750
25.950000	1	0.307250
25.966667	1	0.310000
25.983333	1	0.312750
26.000000	1	0.315875
26.016667	1	0.319125
26.033333	1	0.322500
26.050000	1	0.326750
26.066667	1	0.331000
26.083333	1	0.335750
26.100000	1	0.340500
26.116667	1	0.345125
26.133333	1	0.350375
26.150000	1	0.356500
26.166667	1	0.361125
26.183333	1	0.366375
26.200000	1	0.371125
26.216667	1	0.376375
26.233333	1	0.381375
26.250000	1	0.386000
26.266667	1	0.390000
26.283333	1	0.394250
26.300000	1	0.398000
26.316667	1	0.400500
26.333333	1	0.402500
26.350000	1	0.404375
26.366667	1	0.405375
26.383333	1	0.406125
26.400000	1	0.406750
26.416667	1	0.405250
26.433333	1	0.403875
26.450000	1	0.401625
26.466667	1	0.399000
26.483333	1	0.396125
26.500000	1	0.391875
26.516667	1	0.388000
26.533333	1	0.382875
26.550000	1	0.377000
26.566667	1	0.371500
26.583333	1	0.365375
26.600000	1	0.358625
26.616667	1	0.351625
26.633333	1	0.344375
26.650000	1	0.337625
26.666667	1	0.331000
26.683333	1	0.324250
26.700000	1	0.317625
26.716667	1	0.311375
26.733333	1	0.304250
26.750000	1	0.297625
26.766667	1	0.291125
26.783333	1	0.285500
26.800000	1	0.279250
26.816667	1	0.273750
26.833333	1	0.268625
26.850000	1	0.264250
26.866667	1	0.259750
26.883333	1	0.255500
26.900000	1	0.251750
26.916667	1	0.248375
26.933333	1	0.245125
26.950000	1	0.242250
26.966667	1	0.240375
26.983333	1	0.239250
27.000000	1	0.237625
27.016667	1	0.237375
27.033333	1	0.237875
27.050000	1	0.238750
27.066667	1	0.240500
27.083333	1	0.242875
27.100000	1	0.247125
27.116667	1	0.251750
27.133333	1	0.257500
27.150000	1	0.263625
27.166667	1	0.272000
27.183333	1	0.281750
27.200000	1	0.293875
27.216667	1	0.307375
27.233333	1	0.323250
27.250000	1	0.341500
27.266667	1	0.362125
27.283333	1	0.385625
27.300000	1	0.413625
27.316667	1	0.444500
27.333333	1	0.480500
27.350000	1	0.520750
27.366667	1	0.566000
27.383333	1	0.617375
27.400000	1	0.676250
27.416667	1	0.741000
27.433333	1	0.813000
27.450000	1	0.894000
27.466667	1	0.983375
27.483333	1	1.082000
27.500000	1	1.189250
27.516667	1	1.306625
27.533333	1	1.432750
27.550000	1	1.568125
27.566667	1	1.712375
27.583333	1	1.864750
27.600000	1	2.024000
27.616667	1	2.190000
27.633333	1	2.361750
27.650000	1	2.537000
27.666667	1	2.714750
27.683333	1	2.892250
27.700000	1	3.068250
27.716667	1	3.240125
27.733333	1	3.405125
27.750000	1	3.560875
27.766667	1	3.704000
27.783333	1	3.833500
27.800000	1	3.947750
27.816667	1	4.044000
27.833333	1	4.120500
27.850000	1	4.174875
27.866667	1	4.208500
27.883333	1	4.218750
27.900000	1	4.206000
27.916667	1	4.170625
27.933333	1	4.112875
27.950000	1	4.033250
27.966667	1	3.934125
27.983333	1	3.816875
28.000000	1	3.684625
28.016667	1	3.538125
28.033333	1	3.380500
28.050000	1	3.213625
28.066667	1	3.040125
28.083333	1	2.863500
28.100000	1	2.685250
28.116667	1	2.506375
28.133333	1	2.331000
28.150000	1	2.161500
28.166667	1	1.998000
28.183333	1	1.841625
28.200000	1	1.693875
28.216667	1	1.555500
28.233333	1	1.426125
28.250000	1	1.306125
28.266667	1	1.195875
28.283333	1	1.095625
28.300000	1	1.004125
28.316667	1	0.921375
28.333333	1	0.847750
28.350000	1	0.782625
28.366667	1	0.725625
28.383333	1	0.674875
28.400000	1	0.631000
28.416667	1	0.593375
28.433333	1	0.561000
28.450000	1	0.533625
28.466667	1	0.512000
28.483333	1	0.493250
28.500000	1	0.478750
28.516667	1	0.467500
28.533333	1	0.459625
28.550000	1	0.454125
28.566667	1	0.451125
28.583333	1	0.450375
28.600000	1	0.452125
28.616667	1	0.454875
28.633333	1	0.459125
28.650000	1	0.464250
28.666667	1	0.470125
28.683333	1	0.476750
28.700000	1	0.484250
28.716667	1	0.492250
28.733333	1	0.500000
28.750000	1	0.508000
28.766667	1	0.515125
28.783333	1	0.522375
28.800000	1	0.528875
28.816667	1	0.535750
28.833333	1	0.541875
28.850000	1	0.547250
28.866667	1	0.550500
28.883333	1	0.553750
28.900000	1	0.556000
28.916667	1	0.557250
28.933333	1	0.556875
28.950000	1	0.555375
28.966667	1	0.552625
28.983333	1	0.548500
29.000000	1	0.543000
29.016667	1	0.535500
29.033333	1	0.527000
29.050000	1	0.517250
29.066667	1	0.506000
29.083333	1	0.492500
29.100000	1	0.477750
29.116667	1	0.460750
29.133333	1	0.442625
29.150000	1	0.422875
29.166667	1	0.401000
29.183333	1	0.377625
29.200000	1	0.351750
29.216667	1	0.324500
29.233333	1	0.295375
29.250000	1	0.263500
29.266667	1	0.229750
29.283333	1	0.194625
29.300000	1	0.157000
29.316667	1	0.117750
29.333333	1	0.076250
29.350000	1	0.032875
29.366667	1	-0.011250
29.383333	1	-0.056500
29.400000	1	-0.103875
29.416667	1	-0.152500
29.433333	1	-0.202375
29.450000	1	-0.252625
29.466667	1	-0.303250
29.483333	1	-0.354250
29.500000	1	-0.405625
29.516667	1	-0.456125
29.533333	1	-0.505375
29.550000	1	-0.553625
29.566667	1	-0.600375
29.583333	1	-0.644750
29.600000	1	-0.687500
29.616667	1	-0.727250
29.633333	1	-0.764000
29.650000	1	-0.796875
29.666667	1	-0.826875
29.683333	1	-0.853250
29.700000	1	-0.874500
29.716667	1	-0.892125
29.733333	1	-0.905750
29.750000	1	-0.914500
29.766667	1	-0.918500
29.783333	1	-0.918125
29.800000	1	-0.914375
29.816667	1	-0.906375
29.833333	1	-0.893500
29.850000	1	-0.877875
29.866667	1	-0.857625
29.883333	1	-0.834500
29.900000	1	-0.807625
29.916667	1	-0.779375
29.933333	1	-0.748750
29.950000	1	-0.716500
29.966667	1	-0.681625
29.983333	1	-0.645125
30.000000	1	-0.608375
30.016667	1	-0.570750
30.033333	1	-0.532500
30.050000	1	-0.494875
30.066667	1	-0.457250
30.083333	1	-0.420375
30.100000	1	-0.383625
30.116667	1	-0.348125
30.133333	1	-0.313875
30.150000	1	-0.281500
30.166667	1	-0.250250
30.183333	1	-0.219875
30.200000	1	-0.191500
30.216667	1	-0.164250
30.233333	1	-0.139625
30.250000	1	-0.116375
30.266667	1	-0.093875
30.283333	1	-0.073750
30.300000	1	-0.055500
30.316667	1	-0.038250
30.333333	1	-0.022625
30.350000	1	-0.008250
30.366667	1	0.004125
30.383333	1	0.015500
30.400000	1	0.025500
30.416667	1	0.035250
30.433333	1	0.044500
30.450000	1	0.052250
30.466667	1	0.059750
30.483333	1	0.066125
30.500000	1	0.072125
30.516667	1	0.077750
30.533333	1	0.082875
30.550000	1	0.087500
30.566667	1	0.093000
30.583333	1	0.097750
30.600000	1	0.103375
30.616667	1	0.108875
30.633333	1	0.114000
30.650000	1	0.120000
30.666667	1	0.126375
30.683333	1	0.133000
30.700000	1	0.140375
30.716667	1	0.147750
30.733333	1	0.155500
30.750000	1	0.164375
30.766667	1	0.173250
30.783333	1	0.183250
30.800000	1	0.194625
30.816667	1	0.207250
30.833333	1	0.219625
30.850000	1	0.233750
30.866667	1	0.248625
30.883333	1	0.264375
30.900000	1	0.281625
30.916667	1	0.301250
30.933333	1	0.322625
30.950000	1	0.345375
30.966667	1	0.370875
30.983333	1	0.398750
31.000000	1	0.429750
31.016667	1	0.464500
31.033333	1	0.502125
31.050000	1	0.543500
31.066667	1	0.588750
31.083333	1	0.639375
31.100000	1	0.694500
31.116667	1	0.755125
31.133333	1	0.822250
31.150000	1	0.895250
31.166667	1	0.975125
31.183333	1	1.061750
31.200000	1	1.155500
31.216667	1	1.257125
31.233333	1	1.366125
31.250000	1	1.482375
31.266667	1	1.605500
31.283333	1	1.734625
31.300000	1	1.870125
31.316667	1	2.010250
31.333333	1	2.155125
31.350000	1	2.303375
31.366667	1	2.454000
31.383333	1	2.604750
31.400000	1	2.756750
31.416667	1	2.906375
31.433333	1	3.052500
31.450000	1	3.193750
31.466667	1	3.328125
31.483333	1	3.453625
31.500000	1	3.569750
31.516667	1	3.674000
31.533333	1	3.765250
31.550000	1	3.843625
31.566667	1	3.907250
31.583333	1	3.955000
31.600000	1	3.985875
31.616667	1	4.000750
31.633333	1	3.998625
31.650000	1	3.980375
31.666667	1	3.945000
31.683333	1	3.894625
31.700000	1	3.829125
31.716667	1	3.749250
31.733333	1	3.658250
31.750000	1	3.555250
31.766667	1	3.442875
31.783333	1	3.321500
31.800000	1	3.193125
31.816667	1	3.058375
31.833333	1	2.919750
31.850000	1	2.777750
31.866667	1	2.634875
31.883333	1	2.491750
31.900000	1	2.350125
31.916667	1	2.210000
31.933333	1	2.073125
31.950000	1	1.939375
31.966667	1	1.810375
31.983333	1	1.685500
32.000000	1	1.566000
32.016667	1	1.451750
32.033333	1	1.343000
32.050000	1	1.240250
32.066667	1	1.143250
32.083333	1	1.052125
32.100000	1	0.967250
32.116667	1	0.887625
32.133333	1	0.813250
32.150000	1	0.744750
32.166667	1	0.680500
32.183333	1	0.621375
32.200000	1	0.566250
32.216667	1	0.515750
32.233333	1	0.468000
32.250000	1	0.424625
32.266667	1	0.384250
32.283333	1	0.346625
32.300000	1	0.312750
32.316667	1	0.281375
32.333333	1	0.252750
32.350000	1	0.226625
32.366667	1	0.202250
32.383333	1	0.179625
32.400000	1	0.159125
32.416667	1	0.140750
32.433333	1	0.123125
32.450000	1	0.107250
32.466667	1	0.093125
32.483333	1	0.080125
32.500000	1	0.068125
32.516667	1	0.057000
32.533333	1	0.046875
32.550000	1	0.037625
32.566667	1	0.030125
32.583333	1	0.023250
32.600000	1	0.017000
32.616667	1	0.010500
32.633333	1	0.005000
32.650000	1	0.000750
32.666667	1	-0.002875
32.683333	1	-0.006500
32.700000	1	-0.009125
32.716667	1	-0.011500
32.733333	1	-0.013000
32.750000	1	-0.014250
32.766667	1	-0.014750
32.783333	1	-0.015375
32.800000	1	-0.015250
32.816667	1	-0.015250
32.833333	1	-0.015250
32.850000	1	-0.013875
32.866667	1	-0.013250
32.883333	1	-0.011875
32.900000	1	-0.010875
32.916667	1	-0.008875
32.933333	1	-0.007250
32.950000	1	-0.005375
32.966667	1	-0.003625
32.983333	1	-0.001375
33.000000	1	0.001500
33.016667	1	0.004250
33.033333	1	0.005875
33.050000	1	0.008375
33.066667	1	0.010000
33.083333	1	0.012375
33.100000	1	0.014875
33.116667	1	0.016500
33.133333	1	0.018750
33.150000	1	0.020125
33.166667	1	0.021750
33.183333	1	0.023625
33.200000	1	0.025750
33.216667	1	0.027375
33.233333	1	0.028625
33.250000	1	0.029625
33.266667	1	0.030750
33.283333	1	0.031875
33.300000	1	0.033125
33.316667	1	0.034125
33.333333	1	0.035500
33.350000	1	0.036250
33.366667	1	0.037375
33.383333	1	0.038500
33.400000	1	0.040000
33.416667	1	0.040625
33.433333	1	0.041375
33.450000	1	0.042625
33.466667	1	0.043875
33.483333	1	0.045375
33.500000	1	0.047125
33.516667	1	0.048500
33.533333	1	0.050125
33.550000	1	0.052125
33.566667	1	0.054000
33.583333	1	0.056875
33.600000	1	0.059000
33.616667	1	0.060750
33.633333	1	0.062875
33.650000	1	0.064750
33.666667	1	0.066125
33.683333	1	0.068750
33.700000	1	0.071250
33.716667	1	0.073250
33.733333	1	0.074875
33.750000	1	0.076875
33.766667	1	0.079125
33.783333	1	0.081625
33.800000	1	0.083250
33.816667	1	0.085000
33.833333	1	0.087000
33.850000	1	0.089000
33.866667	1	0.091250
33.883333	1	0.092750
33.900000	1	0.094250
33.916667	1	0.095250
33.933333	1	0.096875
33.950000	1	0.098375
33.966667	1	0.100125
33.983333	1	0.101250
34.000000	1	0.102625
34.016667	1	0.104125
34.033333	1	0.105250
34.050000	1	0.106875
34.066667	1	0.108000
34.083333	1	0.108625
34.100000	1	0.110125
34.116667	1	0.111000
34.133333	1	0.112250
34.150000	1	0.113250
34.166667	1	0.114625
34.183333	1	0.115250
34.200000	1	0.115750
34.216667	1	0.117500
34.233333	1	0.118625
34.250000	1	0.118750
34.266667	1	0.118500
34.283333	1	0.118250
34.300000	1	0.118125
34.316667	1	0.117500
34.333333	1	0.117375
34.350000	1	0.116750
34.366667	1	0.115750
34.383333	1	0.114750
34.400000	1	0.113125
34.416667	1	0.111875
34.433333	1	0.110125
34.450000	1	0.108625
34.466667	1	0.107250
34.483333	1	0.105375
34.500000	1	0.102750
34.516667	1	0.101625
34.533333	1	0.099500
34.550000	1	0.097500
34.566667	1	0.095875
34.583333	1	0.094000
34.600000	1	0.092750
34.616667	1	0.090625
34.633333	1	0.089000
34.650000	1	0.088375
34.666667	1	0.087375
34.683333	1	0.086500
34.700000	1	0.085625
34.716667	1	0.085500
34.733333	1	0.085125
34.750000	1	0.085000
34.766667	1	0.085000
34.783333	1	0.084250
34.800000	1	0.084875
34.816667	1	0.085250
34.833333	1	0.085500
34.850000	1	0.086125
34.866667	1	0.087125
34.883333	1	0.087125
34.900000	1	0.087875
34.916667	1	0.087875
34.933333	1	0.088375
34.950000	1	0.088750
34.966667	1	0.089500
34.983333	1	0.089875
35.000000	1	0.090000
35.016667	1	0.090875
35.033333	1	0.090500
35.050000	1	0.090875
35.066667	1	0.090875
35.083333	1	0.090750
35.100000	1	0.090375
35.116667	1	0.090500
35.133333	1	0.089875
35.150000	1	0.089250
35.166667	1	0.088375
35.183333	1	0.088125
35.200000	1	0.086875
35.216667	1	0.086125
35.233333	1	0.085250
35.250000	1	0.085000
35.266667	1	0.083750
35.283333	1	0.082625
35.300000	1	0.081375
35.316667	1	0.080625
35.333333	1	0.079625
35.350000	1	0.078875
35.366667	1	0.077625
35.383333	1	0.076250
35.400000	1	0.075000
35.416667	1	0.073625
35.433333	1	0.073000
35.450000	1	0.072875
35.466667	1	0.072375
35.483333	1	0.071875
35.500000	1	0.072125
35.516667	1	0.071500
35.533333	1	0.071250
35.550000	1	0.070625
35.566667	1	0.071125
35.583333	1	0.071250
35.600000	1	0.071250
35.616667	1	0.071500
35.633333	1	0.071875
35.650000	1	0.071750
35.666667	1	0.072125
35.683333	1	0.072625
35.700000	1	0.073375
35.716667	1	0.074375
35.733333	1	0.074875
35.750000	1	0.075500
35.766667	1	0.075875
35.783333	1	0.077000
35.800000	1	0.077250
35.816667	1	0.077875
35.833333	1	0.078750
35.850000	1	0.079250
35.866667	1	0.080000
35.883333	1	0.080875
35.900000	1	0.082375
35.916667	1	0.083125
35.933333	1	0.083500
35.950000	1	0.084625
35.966667	1	0.085000
35.983333	1	0.086000
36.000000	1	0.086750
36.016667	1	0.087000
36.033333	1	0.087500
36.050000	1	0.088625
36.066667	1	0.089375
36.083333	1	0.089750
36.100000	1	0.090750
36.116667	1	0.091000
36.133333	1	0.091375
36.150000	1	0.091250
36.166667	1	0.092000
36.183333	1	0.092875
36.200000	1	0.093500
36.216667	1	0.094500
36.233333	1	0.094750
36.250000	1	0.095250
36.266667	1	0.096125
36.283333	1	0.097375
36.300000	1	0.099000
36.316667	1	0.100250
36.333333	1	0.101250
36.350000	1	0.103125
36.366667	1	0.104625
36.383333	1	0.106250
36.400000	1	0.107000
36.416667	1	0.108750
36.433333	1	0.110125
36.450000	1	0.111375
36.466667	1	0.112500
36.483333	1	0.114375
36.500000	1	0.116250
36.516667	1	0.117500
36.533333	1	0.118625
36.550000	1	0.120375
36.566667	1	0.121000
36.583333	1	0.121625
36.600000	1	0.121625
36.616667	1	0.122250
36.633333	1	0.123000
36.650000	1	0.122250
36.666667	1	0.122125
36.683333	1	0.121375
36.700000	1	0.121000
36.716667	1	0.120000
36.733333	1	0.119250
36.750000	1	0.118250
36.766667	1	0.117000
36.783333	1	0.115750
36.800000	1	0.114000
36.816667	1	0.111750
36.833333	1	0.109500
36.850000	1	0.107375
36.866667	1	0.105125
36.883333	1	0.102625
36.900000	1	0.100250
36.916667	1	0.097750
36.933333	1	0.095500
36.950000	1	0.092625
36.966667	1	0.090500
36.983333	1	0.087125
37.000000	1	0.084000
37.016667	1	0.081875
37.033333	1	0.079375
37.050000	1	0.077000
37.066667	1	0.074625
37.083333	1	0.072625
37.100000	1	0.070500
37.116667	1	0.068875
37.133333	1	0.067250
37.150000	1	0.066125
37.166667	1	0.064875
37.183333	1	0.063875
37.200000	1	0.062750
37.216667	1	0.061875
37.233333	1	0.060500
37.250000	1	0.060000
37.266667	1	0.059250
37.283333	1	0.058875
37.300000	1	0.057750
37.316667	1	0.057500
37.333333	1	0.057250
37.350000	1	0.056375
37.366667	1	0.055875
37.383333	1	0.055500
37.400000	1	0.055250
37.416667	1	0.055000
37.433333	1	0.054750
37.450000	1	0.053500
37.466667	1	0.052875
37.483333	1	0.052375
37.500000	1	0.051500
37.516667	1	0.051125
37.533333	1	0.050625
37.550000	1	0.049375
37.566667	1	0.048375
37.583333	1	0.046250
37.600000	1	0.044750
37.616667	1	0.043625
37.633333	1	0.042125
37.650000	1	0.041000
37.666667	1	0.039000
37.683333	1	0.038000
37.700000	1	0.036500
37.716667	1	0.035000
37.733333	1	0.033375
37.750000	1	0.032125
37.766667	1	0.030875
37.783333	1	0.030375
37.800000	1	0.028625
37.816667	1	0.027000
37.833333	1	0.026375
37.850000	1	0.025500
37.866667	1	0.024500
37.883333	1	0.023875
37.900000	1	0.023250
37.916667	1	0.022625
37.933333	1	0.022125
37.950000	1	0.021500
37.966667	1	0.020500
37.983333	1	0.020500
38.000000	1	0.019625
38.016667	1	0.019000
38.033333	1	0.018500
38.050000	1	0.018750
38.066667	1	0.018875
38.083333	1	0.018375
38.100000	1	0.019000
38.116667	1	0.019250
38.133333	1	0.019500
38.150000	1	0.020125
38.166667	1	0.020625
38.183333	1	0.020500
38.200000	1	0.021250
38.216667	1	0.022000
38.233333	1	0.023125
38.250000	1	0.024250
38.266667	1	0.024875
38.283333	1	0.025875
38.300000	1	0.027000
38.316667	1	0.027500
38.333333	1	0.029000
38.350000	1	0.030375
38.366667	1	0.030875
38.383333	1	0.032000
38.400000	1	0.032875
38.416667	1	0.033500
38.433333	1	0.034375
38.450000	1	0.035500
38.466667	1	0.035750
38.483333	1	0.036125
38.500000	1	0.036875
38.516667	1	0.037250
38.533333	1	0.037625
38.550000	1	0.038000
38.566667	1	0.037375
38.583333	1	0.037750
38.600000	1	0.037000
38.616667	1	0.036750
38.633333	1	0.036125
38.650000	1	0.036000
38.666667	1	0.035375
38.683333	1	0.034000
38.700000	1	0.033500
38.716667	1	0.032250
38.733333	1	0.030875
38.750000	1	0.029750
38.766667	1	0.027750
38.783333	1	0.026375
38.800000	1	0.024875
38.816667	1	0.023625
38.833333	1	0.021625
38.850000	1	0.019375
38.866667	1	0.018250
38.883333	1	0.017000
38.900000	1	0.015375
38.916667	1	0.014250
38.933333	1	0.012125
38.950000	1	0.010125
38.966667	1	0.008375
38.983333	1	0.006500
39.000000	1	0.004875
39.016667	1	0.002875
39.033333	1	0.000750
39.050000	1	-0.001250
39.066667	1	-0.002875
39.083333	1	-0.005000
39.100000	1	-0.006000
39.116667	1	-0.007000
39.133333	1	-0.008375
39.150000	1	-0.009500
39.166667	1	-0.011000
39.183333	1	-0.011750
39.200000	1	-0.012500
39.216667	1	-0.012500
39.233333	1	-0.013125
39.250000	1	-0.013500
39.266667	1	-0.013500
39.283333	1	-0.013000
39.300000	1	-0.011875
39.316667	1	-0.011000
39.333333	1	-0.009875
39.350000	1	-0.008125
39.366667	1	-0.006500
39.383333	1	-0.004875
39.400000	1	-0.003250
39.416667	1	-0.001000
39.433333	1	0.001250
39.450000	1	0.003500
39.466667	1	0.005500
39.483333	1	0.007875
39.500000	1	0.009875
39.516667	1	0.012125
39.533333	1	0.014500
39.550000	1	0.016250
39.566667	1	0.018625
39.583333	1	0.020250
39.600000	1	0.021625
39.616667	1	0.023125
39.633333	1	0.024500
39.650000	1	0.025375
39.666667	1	0.026500
39.683333	1	0.026875
39.700000	1	0.026875
39.716667	1	0.027250
39.733333	1	0.027500
39.750000	1	0.027250
39.766667	1	0.027625
39.783333	1	0.027375
39.800000	1	0.027125
39.816667	1	0.026250
39.833333	1	0.025750
39.850000	1	0.026000
39.866667	1	0.025750
39.883333	1	0.025750
39.900000	1	0.025250
39.916667	1	0.024625
39.933333	1	0.024000
39.950000	1	0.023500
39.966667	1	0.023625
39.983333	1	0.023375
40.000000	1	0.023000
