URL	chrom://bioreactor/micro_cm7/HPLC_Ultimate_3000/Users/markusar/20240517_CMO_FP23_FP25_MarkusDeplate.seq/800.smp/RI_1.channel/RI_1.chm
Channel	RI_1

Injection Information:
Data Vault	micro_cm7
Sequence	20240517_CMO_FP23_FP25_MarkusDeplate
Name	FP28_22.4_s6
Number	161
Position	BC3
Comment	
Processing Method	
Instrument Method	run_25B_method
Type	Unknown
Status	Finished
Inject Time	01.06.2024 09:04:01 +02:00
Volume (µl)	20.0000
Dilution Factor	1.0000
Weight	1.0000

Chromatogram Data Information:
Time Min. (min)	0.000000
Time Max. (min)	40.000000
Data Points	2401
Detector	RI
Generating Data System	Chromeleon 7.3.2.11814
Exporting Data System	Chromeleon 7.3.2.0
Operator	Instrument Controller
Signal Quantity	Refractive 
Signal Unit	µRIU
Signal Min.	-0.860125
Signal Max.	49.499625
Channel	RI_1
Driver Name	RID520Driver.dll
Channel Type	Evaluation
Min. Step (s)	1
Max. Step (s)	1
Average Step (s)	1

Signal Parameter Information:
Signal Info	

Chromatogram Data:
Time (min)	Step (s)	Value (µRIU)
0.000000	n.a.	-0.001500
0.016667	1	-0.000125
0.033333	1	0.001500
0.050000	1	0.003000
0.066667	1	0.004500
0.083333	1	0.006750
0.100000	1	0.008250
0.116667	1	0.009625
0.133333	1	0.010500
0.150000	1	0.012375
0.166667	1	0.012875
0.183333	1	0.013250
0.200000	1	0.013750
0.216667	1	0.014250
0.233333	1	0.015125
0.250000	1	0.015375
0.266667	1	0.016500
0.283333	1	0.017000
0.300000	1	0.017500
0.316667	1	0.016875
0.333333	1	0.016250
0.350000	1	0.015875
0.366667	1	0.015000
0.383333	1	0.014500
0.400000	1	0.013250
0.416667	1	0.013000
0.433333	1	0.012000
0.450000	1	0.011250
0.466667	1	0.010750
0.483333	1	0.009875
0.500000	1	0.009250
0.516667	1	0.008250
0.533333	1	0.006000
0.550000	1	0.004750
0.566667	1	0.003000
0.583333	1	0.001375
0.600000	1	-0.000125
0.616667	1	-0.001875
0.633333	1	-0.003625
0.650000	1	-0.005375
0.666667	1	-0.006750
0.683333	1	-0.007500
0.700000	1	-0.008875
0.716667	1	-0.010375
0.733333	1	-0.011875
0.750000	1	-0.012875
0.766667	1	-0.014000
0.783333	1	-0.015250
0.800000	1	-0.016375
0.816667	1	-0.017875
0.833333	1	-0.018625
0.850000	1	-0.020125
0.866667	1	-0.021375
0.883333	1	-0.022625
0.900000	1	-0.022750
0.916667	1	-0.023500
0.933333	1	-0.023750
0.950000	1	-0.024375
0.966667	1	-0.025000
0.983333	1	-0.025375
1.000000	1	-0.025750
1.016667	1	-0.025250
1.033333	1	-0.024625
1.050000	1	-0.024500
1.066667	1	-0.023750
1.083333	1	-0.023000
1.100000	1	-0.022125
1.116667	1	-0.021250
1.133333	1	-0.019875
1.150000	1	-0.019375
1.166667	1	-0.018250
1.183333	1	-0.016625
1.200000	1	-0.015500
1.216667	1	-0.014625
1.233333	1	-0.013500
1.250000	1	-0.012625
1.266667	1	-0.012125
1.283333	1	-0.011750
1.300000	1	-0.011375
1.316667	1	-0.010625
1.333333	1	-0.010375
1.350000	1	-0.009750
1.366667	1	-0.009750
1.383333	1	-0.009750
1.400000	1	-0.009500
1.416667	1	-0.009875
1.433333	1	-0.010000
1.450000	1	-0.009750
1.466667	1	-0.010000
1.483333	1	-0.010125
1.500000	1	-0.010625
1.516667	1	-0.010500
1.533333	1	-0.011125
1.550000	1	-0.010625
1.566667	1	-0.011000
1.583333	1	-0.011250
1.600000	1	-0.011375
1.616667	1	-0.011625
1.633333	1	-0.011500
1.650000	1	-0.011125
1.666667	1	-0.010750
1.683333	1	-0.010875
1.700000	1	-0.010750
1.716667	1	-0.010875
1.733333	1	-0.010500
1.750000	1	-0.010250
1.766667	1	-0.010125
1.783333	1	-0.010250
1.800000	1	-0.010000
1.816667	1	-0.009375
1.833333	1	-0.008875
1.850000	1	-0.009375
1.866667	1	-0.009250
1.883333	1	-0.008750
1.900000	1	-0.008000
1.916667	1	-0.008500
1.933333	1	-0.008625
1.950000	1	-0.008875
1.966667	1	-0.009125
1.983333	1	-0.008875
2.000000	1	-0.009500
2.016667	1	-0.009625
2.033333	1	-0.009500
2.050000	1	-0.009375
2.066667	1	-0.009750
2.083333	1	-0.010125
2.100000	1	-0.009875
2.116667	1	-0.010750
2.133333	1	-0.011500
2.150000	1	-0.011875
2.166667	1	-0.012875
2.183333	1	-0.013000
2.200000	1	-0.014250
2.216667	1	-0.015000
2.233333	1	-0.016000
2.250000	1	-0.015750
2.266667	1	-0.016875
2.283333	1	-0.018500
2.300000	1	-0.019000
2.316667	1	-0.019875
2.333333	1	-0.020000
2.350000	1	-0.020500
2.366667	1	-0.021250
2.383333	1	-0.021875
2.400000	1	-0.023000
2.416667	1	-0.023250
2.433333	1	-0.023000
2.450000	1	-0.023875
2.466667	1	-0.023750
2.483333	1	-0.024000
2.500000	1	-0.024250
2.516667	1	-0.024250
2.533333	1	-0.024250
2.550000	1	-0.024750
2.566667	1	-0.025125
2.583333	1	-0.025000
2.600000	1	-0.024625
2.616667	1	-0.023875
2.633333	1	-0.023250
2.650000	1	-0.022750
2.666667	1	-0.022250
2.683333	1	-0.021750
2.700000	1	-0.020875
2.716667	1	-0.020375
2.733333	1	-0.020125
2.750000	1	-0.019875
2.766667	1	-0.019250
2.783333	1	-0.018625
2.800000	1	-0.017250
2.816667	1	-0.016500
2.833333	1	-0.016250
2.850000	1	-0.015250
2.866667	1	-0.013750
2.883333	1	-0.012500
2.900000	1	-0.011750
2.916667	1	-0.010750
2.933333	1	-0.010250
2.950000	1	-0.009375
2.966667	1	-0.008500
2.983333	1	-0.008000
3.000000	1	-0.007875
3.016667	1	-0.007000
3.033333	1	-0.006125
3.050000	1	-0.006500
3.066667	1	-0.006500
3.083333	1	-0.006375
3.100000	1	-0.006250
3.116667	1	-0.007000
3.133333	1	-0.006875
3.150000	1	-0.006750
3.166667	1	-0.007125
3.183333	1	-0.007750
3.200000	1	-0.007875
3.216667	1	-0.008375
3.233333	1	-0.008875
3.250000	1	-0.009500
3.266667	1	-0.009625
3.283333	1	-0.008750
3.300000	1	-0.008875
3.316667	1	-0.009000
3.333333	1	-0.008750
3.350000	1	-0.008500
3.366667	1	-0.008875
3.383333	1	-0.007750
3.400000	1	-0.006875
3.416667	1	-0.005500
3.433333	1	-0.004875
3.450000	1	-0.003625
3.466667	1	-0.002375
3.483333	1	-0.001000
3.500000	1	0.000375
3.516667	1	0.002375
3.533333	1	0.004000
3.550000	1	0.005250
3.566667	1	0.006875
3.583333	1	0.008250
3.600000	1	0.009875
3.616667	1	0.010750
3.633333	1	0.012125
3.650000	1	0.013750
3.666667	1	0.015500
3.683333	1	0.016250
3.700000	1	0.016875
3.716667	1	0.017500
3.733333	1	0.018875
3.750000	1	0.019625
3.766667	1	0.019750
3.783333	1	0.020125
3.800000	1	0.021125
3.816667	1	0.021250
3.833333	1	0.021750
3.850000	1	0.021875
3.866667	1	0.022875
3.883333	1	0.023000
3.900000	1	0.023375
3.916667	1	0.023500
3.933333	1	0.022875
3.950000	1	0.022875
3.966667	1	0.023125
3.983333	1	0.024375
4.000000	1	0.025250
4.016667	1	0.025750
4.033333	1	0.026625
4.050000	1	0.027500
4.066667	1	0.028000
4.083333	1	0.029250
4.100000	1	0.030000
4.116667	1	0.031125
4.133333	1	0.033000
4.150000	1	0.034375
4.166667	1	0.035875
4.183333	1	0.037875
4.200000	1	0.039500
4.216667	1	0.041125
4.233333	1	0.042750
4.250000	1	0.045125
4.266667	1	0.046000
4.283333	1	0.048375
4.300000	1	0.050250
4.316667	1	0.052250
4.333333	1	0.054375
4.350000	1	0.055750
4.366667	1	0.057375
4.383333	1	0.059750
4.400000	1	0.061375
4.416667	1	0.063250
4.433333	1	0.065375
4.450000	1	0.067125
4.466667	1	0.068500
4.483333	1	0.069125
4.500000	1	0.070125
4.516667	1	0.071750
4.533333	1	0.073125
4.550000	1	0.074750
4.566667	1	0.075875
4.583333	1	0.077250
4.600000	1	0.079500
4.616667	1	0.081750
4.633333	1	0.083750
4.650000	1	0.086000
4.666667	1	0.088375
4.683333	1	0.089625
4.700000	1	0.092250
4.716667	1	0.095000
4.733333	1	0.097000
4.750000	1	0.100125
4.766667	1	0.103125
4.783333	1	0.106000
4.800000	1	0.109125
4.816667	1	0.111875
4.833333	1	0.115125
4.850000	1	0.117750
4.866667	1	0.120875
4.883333	1	0.124000
4.900000	1	0.126875
4.916667	1	0.130375
4.933333	1	0.134125
4.950000	1	0.137625
4.966667	1	0.140750
4.983333	1	0.144750
5.000000	1	0.147875
5.016667	1	0.151500
5.033333	1	0.154875
5.050000	1	0.158375
5.066667	1	0.161750
5.083333	1	0.165250
5.100000	1	0.168375
5.116667	1	0.171750
5.133333	1	0.175625
5.150000	1	0.179750
5.166667	1	0.183250
5.183333	1	0.187625
5.200000	1	0.192250
5.216667	1	0.196000
5.233333	1	0.200250
5.250000	1	0.204125
5.266667	1	0.208125
5.283333	1	0.212500
5.300000	1	0.216500
5.316667	1	0.220625
5.333333	1	0.224375
5.350000	1	0.228875
5.366667	1	0.232375
5.383333	1	0.235500
5.400000	1	0.239375
5.416667	1	0.242875
5.433333	1	0.246875
5.450000	1	0.249750
5.466667	1	0.252750
5.483333	1	0.255625
5.500000	1	0.257875
5.516667	1	0.260500
5.533333	1	0.262625
5.550000	1	0.264250
5.566667	1	0.265625
5.583333	1	0.266250
5.600000	1	0.267375
5.616667	1	0.268000
5.633333	1	0.267375
5.650000	1	0.266750
5.666667	1	0.266000
5.683333	1	0.265375
5.700000	1	0.264750
5.716667	1	0.263750
5.733333	1	0.261875
5.750000	1	0.260375
5.766667	1	0.258375
5.783333	1	0.255750
5.800000	1	0.252500
5.816667	1	0.249250
5.833333	1	0.246125
5.850000	1	0.242625
5.866667	1	0.239875
5.883333	1	0.237000
5.900000	1	0.233000
5.916667	1	0.229000
5.933333	1	0.225375
5.950000	1	0.221250
5.966667	1	0.217250
5.983333	1	0.212875
6.000000	1	0.209125
6.016667	1	0.205250
6.033333	1	0.201750
6.050000	1	0.197250
6.066667	1	0.193000
6.083333	1	0.188875
6.100000	1	0.184500
6.116667	1	0.180625
6.133333	1	0.176625
6.150000	1	0.172250
6.166667	1	0.167875
6.183333	1	0.163625
6.200000	1	0.159500
6.216667	1	0.155875
6.233333	1	0.152500
6.250000	1	0.149000
6.266667	1	0.145000
6.283333	1	0.141250
6.300000	1	0.137875
6.316667	1	0.134375
6.333333	1	0.131250
6.350000	1	0.128750
6.366667	1	0.126000
6.383333	1	0.123125
6.400000	1	0.121250
6.416667	1	0.119000
6.433333	1	0.116875
6.450000	1	0.115625
6.466667	1	0.113625
6.483333	1	0.111875
6.500000	1	0.111000
6.516667	1	0.110250
6.533333	1	0.108875
6.550000	1	0.108375
6.566667	1	0.107500
6.583333	1	0.107125
6.600000	1	0.106875
6.616667	1	0.107125
6.633333	1	0.106625
6.650000	1	0.106625
6.666667	1	0.107000
6.683333	1	0.107250
6.700000	1	0.107500
6.716667	1	0.107000
6.733333	1	0.107750
6.750000	1	0.107875
6.766667	1	0.108625
6.783333	1	0.108750
6.800000	1	0.109500
6.816667	1	0.109750
6.833333	1	0.109875
6.850000	1	0.110625
6.866667	1	0.110875
6.883333	1	0.111625
6.900000	1	0.111875
6.916667	1	0.112000
6.933333	1	0.112125
6.950000	1	0.113000
6.966667	1	0.112875
6.983333	1	0.113750
7.000000	1	0.114125
7.016667	1	0.114500
7.033333	1	0.114500
7.050000	1	0.115250
7.066667	1	0.116125
7.083333	1	0.116750
7.100000	1	0.117375
7.116667	1	0.118500
7.133333	1	0.119000
7.150000	1	0.119625
7.166667	1	0.120625
7.183333	1	0.121250
7.200000	1	0.122125
7.216667	1	0.123500
7.233333	1	0.124250
7.250000	1	0.125625
7.266667	1	0.126375
7.283333	1	0.126875
7.300000	1	0.128125
7.316667	1	0.129000
7.333333	1	0.130375
7.350000	1	0.131750
7.366667	1	0.133625
7.383333	1	0.134500
7.400000	1	0.135625
7.416667	1	0.137125
7.433333	1	0.138875
7.450000	1	0.139500
7.466667	1	0.140875
7.483333	1	0.141375
7.500000	1	0.142375
7.516667	1	0.142500
7.533333	1	0.143375
7.550000	1	0.143625
7.566667	1	0.143750
7.583333	1	0.144000
7.600000	1	0.143750
7.616667	1	0.143875
7.633333	1	0.142875
7.650000	1	0.142500
7.666667	1	0.141625
7.683333	1	0.140750
7.700000	1	0.138250
7.716667	1	0.136375
7.733333	1	0.134750
7.750000	1	0.132375
7.766667	1	0.130375
7.783333	1	0.127500
7.800000	1	0.125125
7.816667	1	0.122375
7.833333	1	0.119625
7.850000	1	0.116875
7.866667	1	0.114000
7.883333	1	0.111000
7.900000	1	0.107500
7.916667	1	0.104125
7.933333	1	0.101375
7.950000	1	0.098375
7.966667	1	0.095250
7.983333	1	0.092625
8.000000	1	0.089625
8.016667	1	0.086500
8.033333	1	0.083625
8.050000	1	0.081500
8.066667	1	0.079000
8.083333	1	0.075750
8.100000	1	0.073375
8.116667	1	0.071125
8.133333	1	0.068875
8.150000	1	0.068000
8.166667	1	0.066625
8.183333	1	0.065750
8.200000	1	0.064875
8.216667	1	0.063125
8.233333	1	0.062250
8.250000	1	0.061250
8.266667	1	0.060375
8.283333	1	0.059375
8.300000	1	0.059000
8.316667	1	0.058375
8.333333	1	0.058875
8.350000	1	0.058750
8.366667	1	0.058750
8.383333	1	0.059375
8.400000	1	0.058875
8.416667	1	0.059375
8.433333	1	0.060000
8.450000	1	0.061500
8.466667	1	0.062000
8.483333	1	0.062875
8.500000	1	0.063250
8.516667	1	0.064500
8.533333	1	0.065625
8.550000	1	0.066875
8.566667	1	0.067750
8.583333	1	0.069000
8.600000	1	0.070625
8.616667	1	0.072125
8.633333	1	0.073500
8.650000	1	0.075000
8.666667	1	0.076500
8.683333	1	0.078250
8.700000	1	0.080125
8.716667	1	0.081875
8.733333	1	0.083500
8.750000	1	0.085125
8.766667	1	0.087000
8.783333	1	0.088500
8.800000	1	0.090375
8.816667	1	0.090625
8.833333	1	0.092000
8.850000	1	0.093000
8.866667	1	0.093000
8.883333	1	0.093750
8.900000	1	0.094250
8.916667	1	0.094750
8.933333	1	0.094625
8.950000	1	0.094500
8.966667	1	0.094250
8.983333	1	0.093750
9.000000	1	0.093625
9.016667	1	0.092750
9.033333	1	0.092625
9.050000	1	0.091875
9.066667	1	0.090875
9.083333	1	0.090125
9.100000	1	0.088750
9.116667	1	0.088500
9.133333	1	0.087375
9.150000	1	0.086625
9.166667	1	0.085125
9.183333	1	0.083875
9.200000	1	0.082875
9.216667	1	0.081500
9.233333	1	0.080375
9.250000	1	0.078750
9.266667	1	0.076875
9.283333	1	0.075375
9.300000	1	0.073875
9.316667	1	0.072250
9.333333	1	0.070500
9.350000	1	0.069500
9.366667	1	0.067875
9.383333	1	0.066250
9.400000	1	0.064625
9.416667	1	0.063250
9.433333	1	0.062250
9.450000	1	0.061375
9.466667	1	0.060625
9.483333	1	0.059500
9.500000	1	0.058375
9.516667	1	0.057375
9.533333	1	0.056750
9.550000	1	0.056000
9.566667	1	0.055875
9.583333	1	0.056000
9.600000	1	0.055250
9.616667	1	0.054875
9.633333	1	0.055000
9.650000	1	0.054750
9.666667	1	0.055500
9.683333	1	0.055125
9.700000	1	0.055375
9.716667	1	0.055500
9.733333	1	0.055750
9.750000	1	0.055750
9.766667	1	0.056875
9.783333	1	0.057125
9.800000	1	0.057875
9.816667	1	0.058250
9.833333	1	0.058500
9.850000	1	0.058750
9.866667	1	0.059250
9.883333	1	0.060000
9.900000	1	0.060375
9.916667	1	0.061125
9.933333	1	0.061125
9.950000	1	0.061750
9.966667	1	0.062625
9.983333	1	0.063375
10.000000	1	0.065125
10.016667	1	0.066375
10.033333	1	0.068250
10.050000	1	0.070000
10.066667	1	0.073000
10.083333	1	0.076375
10.100000	1	0.080500
10.116667	1	0.085500
10.133333	1	0.090375
10.150000	1	0.096750
10.166667	1	0.104750
10.183333	1	0.114250
10.200000	1	0.125000
10.216667	1	0.136375
10.233333	1	0.149625
10.250000	1	0.166125
10.266667	1	0.184625
10.283333	1	0.205500
10.300000	1	0.229375
10.316667	1	0.255250
10.333333	1	0.282500
10.350000	1	0.310125
10.366667	1	0.336500
10.383333	1	0.359375
10.400000	1	0.376750
10.416667	1	0.389375
10.433333	1	0.398250
10.450000	1	0.408125
10.466667	1	0.429500
10.483333	1	0.478000
10.500000	1	0.578125
10.516667	1	0.761875
10.533333	1	1.073000
10.550000	1	1.564125
10.566667	1	2.293750
10.583333	1	3.320625
10.600000	1	4.697375
10.616667	1	6.468750
10.633333	1	8.659500
10.650000	1	11.280250
10.666667	1	14.327500
10.683333	1	17.780375
10.700000	1	21.597000
10.716667	1	25.712500
10.733333	1	30.030125
10.750000	1	34.419375
10.766667	1	38.698750
10.783333	1	42.636500
10.800000	1	45.951750
10.816667	1	48.334375
10.833333	1	49.499625
10.850000	1	49.251375
10.866667	1	47.548250
10.883333	1	44.530125
10.900000	1	40.510375
10.916667	1	35.898750
10.933333	1	31.108875
10.950000	1	26.479875
10.966667	1	22.241500
10.983333	1	18.512250
11.000000	1	15.327625
11.016667	1	12.670375
11.033333	1	10.495375
11.050000	1	8.740625
11.066667	1	7.339875
11.083333	1	6.228875
11.100000	1	5.351625
11.116667	1	4.658125
11.133333	1	4.106875
11.150000	1	3.664125
11.166667	1	3.305625
11.183333	1	3.011375
11.200000	1	2.767125
11.216667	1	2.562000
11.233333	1	2.387125
11.250000	1	2.237875
11.266667	1	2.108000
11.283333	1	1.994250
11.300000	1	1.894625
11.316667	1	1.806125
11.333333	1	1.727000
11.350000	1	1.656875
11.366667	1	1.594125
11.383333	1	1.538500
11.400000	1	1.489500
11.416667	1	1.445500
11.433333	1	1.406250
11.450000	1	1.371250
11.466667	1	1.340250
11.483333	1	1.312250
11.500000	1	1.287750
11.516667	1	1.265375
11.533333	1	1.245125
11.550000	1	1.227125
11.566667	1	1.212125
11.583333	1	1.197875
11.600000	1	1.186000
11.616667	1	1.175375
11.633333	1	1.166375
11.650000	1	1.158750
11.666667	1	1.153875
11.683333	1	1.149750
11.700000	1	1.146750
11.716667	1	1.146000
11.733333	1	1.146500
11.750000	1	1.148125
11.766667	1	1.151000
11.783333	1	1.154625
11.800000	1	1.158625
11.816667	1	1.164250
11.833333	1	1.169750
11.850000	1	1.175500
11.866667	1	1.180125
11.883333	1	1.186500
11.900000	1	1.191375
11.916667	1	1.196500
11.933333	1	1.201375
11.950000	1	1.206750
11.966667	1	1.211625
11.983333	1	1.215125
12.000000	1	1.219500
12.016667	1	1.224500
12.033333	1	1.229500
12.050000	1	1.234375
12.066667	1	1.240000
12.083333	1	1.244875
12.100000	1	1.249875
12.116667	1	1.255000
12.133333	1	1.260000
12.150000	1	1.265875
12.166667	1	1.272625
12.183333	1	1.279625
12.200000	1	1.288250
12.216667	1	1.297375
12.233333	1	1.308250
12.250000	1	1.321500
12.266667	1	1.338000
12.283333	1	1.357625
12.300000	1	1.381375
12.316667	1	1.411250
12.333333	1	1.447000
12.350000	1	1.491125
12.366667	1	1.546625
12.383333	1	1.614250
12.400000	1	1.696875
12.416667	1	1.798625
12.433333	1	1.923375
12.450000	1	2.076000
12.466667	1	2.260125
12.483333	1	2.480625
12.500000	1	2.740125
12.516667	1	3.038250
12.533333	1	3.375000
12.550000	1	3.745375
12.566667	1	4.141875
12.583333	1	4.552875
12.600000	1	4.964125
12.616667	1	5.359750
12.633333	1	5.722750
12.650000	1	6.038125
12.666667	1	6.292625
12.683333	1	6.475875
12.700000	1	6.581500
12.716667	1	6.608000
12.733333	1	6.559750
12.750000	1	6.443375
12.766667	1	6.269250
12.783333	1	6.048375
12.800000	1	5.793000
12.816667	1	5.516375
12.833333	1	5.228750
12.850000	1	4.939500
12.866667	1	4.656500
12.883333	1	4.385875
12.900000	1	4.131500
12.916667	1	3.896875
12.933333	1	3.683250
12.950000	1	3.491500
12.966667	1	3.320750
12.983333	1	3.170125
13.000000	1	3.038125
13.016667	1	2.921625
13.033333	1	2.819250
13.050000	1	2.729750
13.066667	1	2.650125
13.083333	1	2.580250
13.100000	1	2.518000
13.116667	1	2.461875
13.133333	1	2.411250
13.150000	1	2.364500
13.166667	1	2.321500
13.183333	1	2.281875
13.200000	1	2.243875
13.216667	1	2.208750
13.233333	1	2.175125
13.250000	1	2.143375
13.266667	1	2.111625
13.283333	1	2.080875
13.300000	1	2.051500
13.316667	1	2.023125
13.333333	1	1.995875
13.350000	1	1.970250
13.366667	1	1.946125
13.383333	1	1.924000
13.400000	1	1.903375
13.416667	1	1.885375
13.433333	1	1.869000
13.450000	1	1.856000
13.466667	1	1.845375
13.483333	1	1.836625
13.500000	1	1.830500
13.516667	1	1.827000
13.533333	1	1.824750
13.550000	1	1.824250
13.566667	1	1.824375
13.583333	1	1.824875
13.600000	1	1.823625
13.616667	1	1.821750
13.633333	1	1.818125
13.650000	1	1.810750
13.666667	1	1.801625
13.683333	1	1.789750
13.700000	1	1.775000
13.716667	1	1.757625
13.733333	1	1.738625
13.750000	1	1.719125
13.766667	1	1.697875
13.783333	1	1.676000
13.800000	1	1.655375
13.816667	1	1.634750
13.833333	1	1.615250
13.850000	1	1.597375
13.866667	1	1.580500
13.883333	1	1.565000
13.900000	1	1.550375
13.916667	1	1.537125
13.933333	1	1.524750
13.950000	1	1.514125
13.966667	1	1.504375
13.983333	1	1.495875
14.000000	1	1.487750
14.016667	1	1.480000
14.033333	1	1.473250
14.050000	1	1.467125
14.066667	1	1.461625
14.083333	1	1.455125
14.100000	1	1.450125
14.116667	1	1.445375
14.133333	1	1.441500
14.150000	1	1.437875
14.166667	1	1.434625
14.183333	1	1.432000
14.200000	1	1.431375
14.216667	1	1.430875
14.233333	1	1.433125
14.250000	1	1.436250
14.266667	1	1.441500
14.283333	1	1.448750
14.300000	1	1.459625
14.316667	1	1.473250
14.333333	1	1.491125
14.350000	1	1.512000
14.366667	1	1.539750
14.383333	1	1.572750
14.400000	1	1.614500
14.416667	1	1.667250
14.433333	1	1.735000
14.450000	1	1.822625
14.466667	1	1.938375
14.483333	1	2.092250
14.500000	1	2.297500
14.516667	1	2.570750
14.533333	1	2.935000
14.550000	1	3.417125
14.566667	1	4.048875
14.583333	1	4.864750
14.600000	1	5.902500
14.616667	1	7.204875
14.633333	1	8.810000
14.650000	1	10.750875
14.666667	1	13.047875
14.683333	1	15.706500
14.700000	1	18.706500
14.716667	1	22.002750
14.733333	1	25.526625
14.750000	1	29.180750
14.766667	1	32.842750
14.783333	1	36.371125
14.800000	1	39.624625
14.816667	1	42.460250
14.833333	1	44.746500
14.850000	1	46.373875
14.866667	1	47.267250
14.883333	1	47.388375
14.900000	1	46.742375
14.916667	1	45.375625
14.933333	1	43.374500
14.950000	1	40.849750
14.966667	1	37.933375
14.983333	1	34.762000
15.000000	1	31.463250
15.016667	1	28.152250
15.033333	1	24.928375
15.050000	1	21.870375
15.066667	1	19.035875
15.083333	1	16.461250
15.100000	1	14.163750
15.116667	1	12.144750
15.133333	1	10.393625
15.150000	1	8.892125
15.166667	1	7.616375
15.183333	1	6.543375
15.200000	1	5.644750
15.216667	1	4.897750
15.233333	1	4.280125
15.250000	1	3.773000
15.266667	1	3.358500
15.283333	1	3.023500
15.300000	1	2.755125
15.316667	1	2.543500
15.333333	1	2.378750
15.350000	1	2.253500
15.366667	1	2.160750
15.383333	1	2.094875
15.400000	1	2.050500
15.416667	1	2.022875
15.433333	1	2.006000
15.450000	1	1.996625
15.466667	1	1.990750
15.483333	1	1.985500
15.500000	1	1.977750
15.516667	1	1.965500
15.533333	1	1.948500
15.550000	1	1.925250
15.566667	1	1.896000
15.583333	1	1.861250
15.600000	1	1.822750
15.616667	1	1.781250
15.633333	1	1.738000
15.650000	1	1.693250
15.666667	1	1.650125
15.683333	1	1.608125
15.700000	1	1.567500
15.716667	1	1.529250
15.733333	1	1.495000
15.750000	1	1.462375
15.766667	1	1.432000
15.783333	1	1.404750
15.800000	1	1.379250
15.816667	1	1.355375
15.833333	1	1.333625
15.850000	1	1.314250
15.866667	1	1.296250
15.883333	1	1.279875
15.900000	1	1.265250
15.916667	1	1.252625
15.933333	1	1.241750
15.950000	1	1.232875
15.966667	1	1.225500
15.983333	1	1.220125
16.000000	1	1.216875
16.016667	1	1.215375
16.033333	1	1.215500
16.050000	1	1.217125
16.066667	1	1.219000
16.083333	1	1.221375
16.100000	1	1.224375
16.116667	1	1.227750
16.133333	1	1.231250
16.150000	1	1.233750
16.166667	1	1.235750
16.183333	1	1.237375
16.200000	1	1.238625
16.216667	1	1.238875
16.233333	1	1.238625
16.250000	1	1.237250
16.266667	1	1.235000
16.283333	1	1.232125
16.300000	1	1.228875
16.316667	1	1.225625
16.333333	1	1.222250
16.350000	1	1.219250
16.366667	1	1.216500
16.383333	1	1.214125
16.400000	1	1.213500
16.416667	1	1.213875
16.433333	1	1.215625
16.450000	1	1.218625
16.466667	1	1.222750
16.483333	1	1.226250
16.500000	1	1.231375
16.516667	1	1.237000
16.533333	1	1.241875
16.550000	1	1.246625
16.566667	1	1.250000
16.583333	1	1.253500
16.600000	1	1.255000
16.616667	1	1.257125
16.633333	1	1.256500
16.650000	1	1.256250
16.666667	1	1.255000
16.683333	1	1.255250
16.700000	1	1.255750
16.716667	1	1.256625
16.733333	1	1.257625
16.750000	1	1.260250
16.766667	1	1.264250
16.783333	1	1.270250
16.800000	1	1.277000
16.816667	1	1.285125
16.833333	1	1.293500
16.850000	1	1.301125
16.866667	1	1.308875
16.883333	1	1.315625
16.900000	1	1.321875
16.916667	1	1.326375
16.933333	1	1.329750
16.950000	1	1.331250
16.966667	1	1.331125
16.983333	1	1.330250
17.000000	1	1.328000
17.016667	1	1.324625
17.033333	1	1.320875
17.050000	1	1.316250
17.066667	1	1.311500
17.083333	1	1.306875
17.100000	1	1.301875
17.116667	1	1.298125
17.133333	1	1.295125
17.150000	1	1.292000
17.166667	1	1.290625
17.183333	1	1.289625
17.200000	1	1.288750
17.216667	1	1.289000
17.233333	1	1.290250
17.250000	1	1.292250
17.266667	1	1.295000
17.283333	1	1.297875
17.300000	1	1.300500
17.316667	1	1.304500
17.333333	1	1.308250
17.350000	1	1.313000
17.366667	1	1.316750
17.383333	1	1.320000
17.400000	1	1.322875
17.416667	1	1.324875
17.433333	1	1.326625
17.450000	1	1.326875
17.466667	1	1.326000
17.483333	1	1.323375
17.500000	1	1.318875
17.516667	1	1.313250
17.533333	1	1.305875
17.550000	1	1.296625
17.566667	1	1.286125
17.583333	1	1.274500
17.600000	1	1.261125
17.616667	1	1.246875
17.633333	1	1.231750
17.650000	1	1.216875
17.666667	1	1.201875
17.683333	1	1.185750
17.700000	1	1.170500
17.716667	1	1.154750
17.733333	1	1.140250
17.750000	1	1.126750
17.766667	1	1.113625
17.783333	1	1.101500
17.800000	1	1.090250
17.816667	1	1.079250
17.833333	1	1.069000
17.850000	1	1.059250
17.866667	1	1.050500
17.883333	1	1.042250
17.900000	1	1.034375
17.916667	1	1.026875
17.933333	1	1.019750
17.950000	1	1.012875
17.966667	1	1.005125
17.983333	1	0.997750
18.000000	1	0.989750
18.016667	1	0.982250
18.033333	1	0.973875
18.050000	1	0.965875
18.066667	1	0.957125
18.083333	1	0.949125
18.100000	1	0.941375
18.116667	1	0.933750
18.133333	1	0.926375
18.150000	1	0.919750
18.166667	1	0.914000
18.183333	1	0.908250
18.200000	1	0.904250
18.216667	1	0.900750
18.233333	1	0.898000
18.250000	1	0.895125
18.266667	1	0.892875
18.283333	1	0.890625
18.300000	1	0.888750
18.316667	1	0.887875
18.333333	1	0.887500
18.350000	1	0.888000
18.366667	1	0.890750
18.383333	1	0.892875
18.400000	1	0.896750
18.416667	1	0.901625
18.433333	1	0.907875
18.450000	1	0.916250
18.466667	1	0.925625
18.483333	1	0.937750
18.500000	1	0.951000
18.516667	1	0.966750
18.533333	1	0.985125
18.550000	1	1.005625
18.566667	1	1.028375
18.583333	1	1.052625
18.600000	1	1.078750
18.616667	1	1.105500
18.633333	1	1.135000
18.650000	1	1.164750
18.666667	1	1.196125
18.683333	1	1.228125
18.700000	1	1.261000
18.716667	1	1.294625
18.733333	1	1.327625
18.750000	1	1.360875
18.766667	1	1.393375
18.783333	1	1.424750
18.800000	1	1.454750
18.816667	1	1.482500
18.833333	1	1.507500
18.850000	1	1.529125
18.866667	1	1.547000
18.883333	1	1.560000
18.900000	1	1.567875
18.916667	1	1.570625
18.933333	1	1.566875
18.950000	1	1.557375
18.966667	1	1.542750
18.983333	1	1.523500
19.000000	1	1.498000
19.016667	1	1.467375
19.033333	1	1.432125
19.050000	1	1.393500
19.066667	1	1.352500
19.083333	1	1.308875
19.100000	1	1.265000
19.116667	1	1.220625
19.133333	1	1.178250
19.150000	1	1.137250
19.166667	1	1.099250
19.183333	1	1.063875
19.200000	1	1.033125
19.216667	1	1.007500
19.233333	1	0.986375
19.250000	1	0.970250
19.266667	1	0.959625
19.283333	1	0.954500
19.300000	1	0.954750
19.316667	1	0.961000
19.333333	1	0.972125
19.350000	1	0.987875
19.366667	1	1.009000
19.383333	1	1.033625
19.400000	1	1.061000
19.416667	1	1.091375
19.433333	1	1.122250
19.450000	1	1.154625
19.466667	1	1.186375
19.483333	1	1.217000
19.500000	1	1.245875
19.516667	1	1.271875
19.533333	1	1.294125
19.550000	1	1.312375
19.566667	1	1.326125
19.583333	1	1.335250
19.600000	1	1.338125
19.616667	1	1.336500
19.633333	1	1.329625
19.650000	1	1.318375
19.666667	1	1.303250
19.683333	1	1.284000
19.700000	1	1.261250
19.716667	1	1.235375
19.733333	1	1.206750
19.750000	1	1.176500
19.766667	1	1.144500
19.783333	1	1.111875
19.800000	1	1.079000
19.816667	1	1.045625
19.833333	1	1.013625
19.850000	1	0.981125
19.866667	1	0.950250
19.883333	1	0.921375
19.900000	1	0.894875
19.916667	1	0.871250
19.933333	1	0.850750
19.950000	1	0.833375
19.966667	1	0.819375
19.983333	1	0.808875
20.000000	1	0.803500
20.016667	1	0.802750
20.033333	1	0.806625
20.050000	1	0.815500
20.066667	1	0.829000
20.083333	1	0.848000
20.100000	1	0.872750
20.116667	1	0.902000
20.133333	1	0.935000
20.150000	1	0.972375
20.166667	1	1.012375
20.183333	1	1.054500
20.200000	1	1.096875
20.216667	1	1.138750
20.233333	1	1.178125
20.250000	1	1.214625
20.266667	1	1.246250
20.283333	1	1.271625
20.300000	1	1.289625
20.316667	1	1.300375
20.333333	1	1.303750
20.350000	1	1.298625
20.366667	1	1.285000
20.383333	1	1.264375
20.400000	1	1.237250
20.416667	1	1.204750
20.433333	1	1.167750
20.450000	1	1.127750
20.466667	1	1.087250
20.483333	1	1.046625
20.500000	1	1.008125
20.516667	1	0.972500
20.533333	1	0.942875
20.550000	1	0.918500
20.566667	1	0.901375
20.583333	1	0.891500
20.600000	1	0.890625
20.616667	1	0.898125
20.633333	1	0.914750
20.650000	1	0.940875
20.666667	1	0.975500
20.683333	1	1.018875
20.700000	1	1.069875
20.716667	1	1.127000
20.733333	1	1.190000
20.750000	1	1.256625
20.766667	1	1.324625
20.783333	1	1.393500
20.800000	1	1.459875
20.816667	1	1.521625
20.833333	1	1.576500
20.850000	1	1.623375
20.866667	1	1.659875
20.883333	1	1.685125
20.900000	1	1.698250
20.916667	1	1.698875
20.933333	1	1.686250
20.950000	1	1.661500
20.966667	1	1.626000
20.983333	1	1.579375
21.000000	1	1.525375
21.016667	1	1.463750
21.033333	1	1.396875
21.050000	1	1.328000
21.066667	1	1.256625
21.083333	1	1.186375
21.100000	1	1.117375
21.116667	1	1.050875
21.133333	1	0.987750
21.150000	1	0.928375
21.166667	1	0.873750
21.183333	1	0.824500
21.200000	1	0.779875
21.216667	1	0.740000
21.233333	1	0.704375
21.250000	1	0.672750
21.266667	1	0.644500
21.283333	1	0.619875
21.300000	1	0.598875
21.316667	1	0.581250
21.333333	1	0.565875
21.350000	1	0.553250
21.366667	1	0.542250
21.383333	1	0.533375
21.400000	1	0.525500
21.416667	1	0.518750
21.433333	1	0.514250
21.450000	1	0.511625
21.466667	1	0.509625
21.483333	1	0.509250
21.500000	1	0.510625
21.516667	1	0.513875
21.533333	1	0.517500
21.550000	1	0.523750
21.566667	1	0.531125
21.583333	1	0.540750
21.600000	1	0.551500
21.616667	1	0.565375
21.633333	1	0.581875
21.650000	1	0.600375
21.666667	1	0.621375
21.683333	1	0.645250
21.700000	1	0.673000
21.716667	1	0.702750
21.733333	1	0.734875
21.750000	1	0.769500
21.766667	1	0.806250
21.783333	1	0.843750
21.800000	1	0.883125
21.816667	1	0.922125
21.833333	1	0.961500
21.850000	1	1.000875
21.866667	1	1.037750
21.883333	1	1.071500
21.900000	1	1.103375
21.916667	1	1.130375
21.933333	1	1.152375
21.950000	1	1.170125
21.966667	1	1.183375
21.983333	1	1.190750
22.000000	1	1.192000
22.016667	1	1.187125
22.033333	1	1.177125
22.050000	1	1.163000
22.066667	1	1.144625
22.083333	1	1.121875
22.100000	1	1.095625
22.116667	1	1.066500
22.133333	1	1.035625
22.150000	1	1.003125
22.166667	1	0.970125
22.183333	1	0.936000
22.200000	1	0.901625
22.216667	1	0.868000
22.233333	1	0.834625
22.250000	1	0.802125
22.266667	1	0.770375
22.283333	1	0.740875
22.300000	1	0.712625
22.316667	1	0.686250
22.333333	1	0.661000
22.350000	1	0.637375
22.366667	1	0.616000
22.383333	1	0.595500
22.400000	1	0.577375
22.416667	1	0.560750
22.433333	1	0.545625
22.450000	1	0.532375
22.466667	1	0.520375
22.483333	1	0.510500
22.500000	1	0.501875
22.516667	1	0.494125
22.533333	1	0.487750
22.550000	1	0.481875
22.566667	1	0.476500
22.583333	1	0.471625
22.600000	1	0.467500
22.616667	1	0.462875
22.633333	1	0.459125
22.650000	1	0.455000
22.666667	1	0.451000
22.683333	1	0.447000
22.700000	1	0.442000
22.716667	1	0.437000
22.733333	1	0.432125
22.750000	1	0.426125
22.766667	1	0.419875
22.783333	1	0.413000
22.800000	1	0.406500
22.816667	1	0.399250
22.833333	1	0.392500
22.850000	1	0.385875
22.866667	1	0.378125
22.883333	1	0.371375
22.900000	1	0.365500
22.916667	1	0.359250
22.933333	1	0.353500
22.950000	1	0.348125
22.966667	1	0.343375
22.983333	1	0.339875
23.000000	1	0.336375
23.016667	1	0.333750
23.033333	1	0.331125
23.050000	1	0.329625
23.066667	1	0.328750
23.083333	1	0.328750
23.100000	1	0.329000
23.116667	1	0.330375
23.133333	1	0.332125
23.150000	1	0.334000
23.166667	1	0.337500
23.183333	1	0.341625
23.200000	1	0.346000
23.216667	1	0.351875
23.233333	1	0.358625
23.250000	1	0.366875
23.266667	1	0.377000
23.283333	1	0.389125
23.300000	1	0.405125
23.316667	1	0.422750
23.333333	1	0.445250
23.350000	1	0.472000
23.366667	1	0.504500
23.383333	1	0.543000
23.400000	1	0.589250
23.416667	1	0.642875
23.433333	1	0.706375
23.450000	1	0.780750
23.466667	1	0.867500
23.483333	1	0.967375
23.500000	1	1.082250
23.516667	1	1.213000
23.533333	1	1.360250
23.550000	1	1.524125
23.566667	1	1.705500
23.583333	1	1.903750
23.600000	1	2.118625
23.616667	1	2.348250
23.633333	1	2.590625
23.650000	1	2.843250
23.666667	1	3.103375
23.683333	1	3.368500
23.700000	1	3.632625
23.716667	1	3.893125
23.733333	1	4.143000
23.750000	1	4.379250
23.766667	1	4.595250
23.783333	1	4.787375
23.800000	1	4.951875
23.816667	1	5.084125
23.833333	1	5.181750
23.850000	1	5.243000
23.866667	1	5.266250
23.883333	1	5.252375
23.900000	1	5.201625
23.916667	1	5.115750
23.933333	1	4.998000
23.950000	1	4.850750
23.966667	1	4.678500
23.983333	1	4.484875
24.000000	1	4.275125
24.016667	1	4.052875
24.033333	1	3.822750
24.050000	1	3.589500
24.066667	1	3.356125
24.083333	1	3.125875
24.100000	1	2.901000
24.116667	1	2.684000
24.133333	1	2.476500
24.150000	1	2.281125
24.166667	1	2.096875
24.183333	1	1.925500
24.200000	1	1.766875
24.216667	1	1.620875
24.233333	1	1.487875
24.250000	1	1.366500
24.266667	1	1.256375
24.283333	1	1.156750
24.300000	1	1.066875
24.316667	1	0.986125
24.333333	1	0.914250
24.350000	1	0.850250
24.366667	1	0.793375
24.383333	1	0.743125
24.400000	1	0.698875
24.416667	1	0.660250
24.433333	1	0.626875
24.450000	1	0.598500
24.466667	1	0.573375
24.483333	1	0.551875
24.500000	1	0.533500
24.516667	1	0.517625
24.533333	1	0.504500
24.550000	1	0.492250
24.566667	1	0.482625
24.583333	1	0.474500
24.600000	1	0.466250
24.616667	1	0.459250
24.633333	1	0.452875
24.650000	1	0.446875
24.666667	1	0.441375
24.683333	1	0.435500
24.700000	1	0.430625
24.716667	1	0.424750
24.733333	1	0.419250
24.750000	1	0.413625
24.766667	1	0.407750
24.783333	1	0.402500
24.800000	1	0.396250
24.816667	1	0.390250
24.833333	1	0.385000
24.850000	1	0.379375
24.866667	1	0.374125
24.883333	1	0.369375
24.900000	1	0.364125
24.916667	1	0.359375
24.933333	1	0.354625
24.950000	1	0.350250
24.966667	1	0.345875
24.983333	1	0.342250
25.000000	1	0.338125
25.016667	1	0.334625
25.033333	1	0.330625
25.050000	1	0.326875
25.066667	1	0.323875
25.083333	1	0.320750
25.100000	1	0.317500
25.116667	1	0.314625
25.133333	1	0.311125
25.150000	1	0.308250
25.166667	1	0.304750
25.183333	1	0.301625
25.200000	1	0.299000
25.216667	1	0.295875
25.233333	1	0.293000
25.250000	1	0.289500
25.266667	1	0.287500
25.283333	1	0.284875
25.300000	1	0.283250
25.316667	1	0.280625
25.333333	1	0.278625
25.350000	1	0.277250
25.366667	1	0.275375
25.383333	1	0.274250
25.400000	1	0.272875
25.416667	1	0.271750
25.433333	1	0.271250
25.450000	1	0.271125
25.466667	1	0.270125
25.483333	1	0.270125
25.500000	1	0.270500
25.516667	1	0.271500
25.533333	1	0.272625
25.550000	1	0.274000
25.566667	1	0.275625
25.583333	1	0.277250
25.600000	1	0.278750
25.616667	1	0.280375
25.633333	1	0.282500
25.650000	1	0.284500
25.666667	1	0.286750
25.683333	1	0.289500
25.700000	1	0.291750
25.716667	1	0.293750
25.733333	1	0.295500
25.750000	1	0.298000
25.766667	1	0.299750
25.783333	1	0.301625
25.800000	1	0.304375
25.816667	1	0.306375
25.833333	1	0.308875
25.850000	1	0.311375
25.866667	1	0.313750
25.883333	1	0.315750
25.900000	1	0.318500
25.916667	1	0.320125
25.933333	1	0.322625
25.950000	1	0.325125
25.966667	1	0.328000
25.983333	1	0.331125
26.000000	1	0.335000
26.016667	1	0.338250
26.033333	1	0.342250
26.050000	1	0.346000
26.066667	1	0.349750
26.083333	1	0.354000
26.100000	1	0.358250
26.116667	1	0.362375
26.133333	1	0.366750
26.150000	1	0.372000
26.166667	1	0.376250
26.183333	1	0.380375
26.200000	1	0.385000
26.216667	1	0.389000
26.233333	1	0.393625
26.250000	1	0.398375
26.266667	1	0.402625
26.283333	1	0.406125
26.300000	1	0.409750
26.316667	1	0.411625
26.333333	1	0.413875
26.350000	1	0.415375
26.366667	1	0.415625
26.383333	1	0.415875
26.400000	1	0.415750
26.416667	1	0.414125
26.433333	1	0.411750
26.450000	1	0.409375
26.466667	1	0.406375
26.483333	1	0.402625
26.500000	1	0.397875
26.516667	1	0.392750
26.533333	1	0.387625
26.550000	1	0.381875
26.566667	1	0.376000
26.583333	1	0.369375
26.600000	1	0.362500
26.616667	1	0.355125
26.633333	1	0.348500
26.650000	1	0.340625
26.666667	1	0.334375
26.683333	1	0.327125
26.700000	1	0.320500
26.716667	1	0.314250
26.733333	1	0.308250
26.750000	1	0.302875
26.766667	1	0.297625
26.783333	1	0.292250
26.800000	1	0.287000
26.816667	1	0.282750
26.833333	1	0.279625
26.850000	1	0.276500
26.866667	1	0.273750
26.883333	1	0.271875
26.900000	1	0.269750
26.916667	1	0.269125
26.933333	1	0.269500
26.950000	1	0.269125
26.966667	1	0.269125
26.983333	1	0.270000
27.000000	1	0.271375
27.016667	1	0.273250
27.033333	1	0.276250
27.050000	1	0.279125
27.066667	1	0.282750
27.083333	1	0.288000
27.100000	1	0.292875
27.116667	1	0.299375
27.133333	1	0.306375
27.150000	1	0.314250
27.166667	1	0.323625
27.183333	1	0.334125
27.200000	1	0.346875
27.216667	1	0.360750
27.233333	1	0.376625
27.250000	1	0.394875
27.266667	1	0.416625
27.283333	1	0.440625
27.300000	1	0.468625
27.316667	1	0.500375
27.333333	1	0.536250
27.350000	1	0.577000
27.366667	1	0.622750
27.383333	1	0.675250
27.400000	1	0.734500
27.416667	1	0.800750
27.433333	1	0.874375
27.450000	1	0.956625
27.466667	1	1.048000
27.483333	1	1.148250
27.500000	1	1.257625
27.516667	1	1.377125
27.533333	1	1.505750
27.550000	1	1.643000
27.566667	1	1.788375
27.583333	1	1.941500
27.600000	1	2.102125
27.616667	1	2.269250
27.633333	1	2.440375
27.650000	1	2.615875
27.666667	1	2.792625
27.683333	1	2.969375
27.700000	1	3.142750
27.716667	1	3.312000
27.733333	1	3.472625
27.750000	1	3.624375
27.766667	1	3.762375
27.783333	1	3.886125
27.800000	1	3.993750
27.816667	1	4.083375
27.833333	1	4.153250
27.850000	1	4.201500
27.866667	1	4.227625
27.883333	1	4.230625
27.900000	1	4.211250
27.916667	1	4.168500
27.933333	1	4.104250
27.950000	1	4.019875
27.966667	1	3.915500
27.983333	1	3.793750
28.000000	1	3.657375
28.016667	1	3.506875
28.033333	1	3.346625
28.050000	1	3.177625
28.066667	1	3.002875
28.083333	1	2.824750
28.100000	1	2.645875
28.116667	1	2.468125
28.133333	1	2.294625
28.150000	1	2.124750
28.166667	1	1.961375
28.183333	1	1.805750
28.200000	1	1.659250
28.216667	1	1.520750
28.233333	1	1.391625
28.250000	1	1.272125
28.266667	1	1.162375
28.283333	1	1.061750
28.300000	1	0.970000
28.316667	1	0.887125
28.333333	1	0.813250
28.350000	1	0.747250
28.366667	1	0.688125
28.383333	1	0.636625
28.400000	1	0.592000
28.416667	1	0.553250
28.433333	1	0.519750
28.450000	1	0.491500
28.466667	1	0.467875
28.483333	1	0.448500
28.500000	1	0.432875
28.516667	1	0.421750
28.533333	1	0.413375
28.550000	1	0.408125
28.566667	1	0.405250
28.583333	1	0.405500
28.600000	1	0.406875
28.616667	1	0.410000
28.633333	1	0.416000
28.650000	1	0.423000
28.666667	1	0.431000
28.683333	1	0.439500
28.700000	1	0.449500
28.716667	1	0.459375
28.733333	1	0.469500
28.750000	1	0.480125
28.766667	1	0.491000
28.783333	1	0.501250
28.800000	1	0.511375
28.816667	1	0.520875
28.833333	1	0.529875
28.850000	1	0.538125
28.866667	1	0.545125
28.883333	1	0.551750
28.900000	1	0.556250
28.916667	1	0.559750
28.933333	1	0.562500
28.950000	1	0.562875
28.966667	1	0.561875
28.983333	1	0.559000
29.000000	1	0.554500
29.016667	1	0.548625
29.033333	1	0.540500
29.050000	1	0.531125
29.066667	1	0.519000
29.083333	1	0.505125
29.100000	1	0.489000
29.116667	1	0.472000
29.133333	1	0.452500
29.150000	1	0.431125
29.166667	1	0.407625
29.183333	1	0.382125
29.200000	1	0.354875
29.216667	1	0.325250
29.233333	1	0.294000
29.250000	1	0.260250
29.266667	1	0.225000
29.283333	1	0.187625
29.300000	1	0.148250
29.316667	1	0.107500
29.333333	1	0.065625
29.350000	1	0.022000
29.366667	1	-0.022875
29.383333	1	-0.068250
29.400000	1	-0.114375
29.416667	1	-0.161625
29.433333	1	-0.210125
29.450000	1	-0.259125
29.466667	1	-0.308625
29.483333	1	-0.357500
29.500000	1	-0.405250
29.516667	1	-0.452750
29.533333	1	-0.498875
29.550000	1	-0.542500
29.566667	1	-0.585250
29.583333	1	-0.626125
29.600000	1	-0.663750
29.616667	1	-0.699250
29.633333	1	-0.731500
29.650000	1	-0.760250
29.666667	1	-0.786125
29.683333	1	-0.808000
29.700000	1	-0.827000
29.716667	1	-0.841375
29.733333	1	-0.851625
29.750000	1	-0.857500
29.766667	1	-0.860125
29.783333	1	-0.858750
29.800000	1	-0.853750
29.816667	1	-0.845125
29.833333	1	-0.832250
29.850000	1	-0.816000
29.866667	1	-0.797250
29.883333	1	-0.775500
29.900000	1	-0.751875
29.916667	1	-0.724875
29.933333	1	-0.695875
29.950000	1	-0.666125
29.966667	1	-0.634625
29.983333	1	-0.601625
30.000000	1	-0.567625
30.016667	1	-0.534000
30.033333	1	-0.500500
30.050000	1	-0.467000
30.066667	1	-0.433250
30.083333	1	-0.400875
30.100000	1	-0.367625
30.116667	1	-0.335875
30.133333	1	-0.305250
30.150000	1	-0.277000
30.166667	1	-0.248875
30.183333	1	-0.222750
30.200000	1	-0.197375
30.216667	1	-0.173750
30.233333	1	-0.151000
30.250000	1	-0.129375
30.266667	1	-0.110375
30.283333	1	-0.092375
30.300000	1	-0.075750
30.316667	1	-0.060375
30.333333	1	-0.045625
30.350000	1	-0.032125
30.366667	1	-0.019875
30.383333	1	-0.008250
30.400000	1	0.002500
30.416667	1	0.012625
30.433333	1	0.022375
30.450000	1	0.031000
30.466667	1	0.039000
30.483333	1	0.047000
30.500000	1	0.054000
30.516667	1	0.061625
30.533333	1	0.068625
30.550000	1	0.075875
30.566667	1	0.083375
30.583333	1	0.090750
30.600000	1	0.098375
30.616667	1	0.105375
30.633333	1	0.112500
30.650000	1	0.119875
30.666667	1	0.127875
30.683333	1	0.136000
30.700000	1	0.144875
30.716667	1	0.153125
30.733333	1	0.162375
30.750000	1	0.172000
30.766667	1	0.182125
30.783333	1	0.193000
30.800000	1	0.204500
30.816667	1	0.216500
30.833333	1	0.229375
30.850000	1	0.243750
30.866667	1	0.259375
30.883333	1	0.275500
30.900000	1	0.292750
30.916667	1	0.311000
30.933333	1	0.332000
30.950000	1	0.354625
30.966667	1	0.379500
30.983333	1	0.407125
31.000000	1	0.437625
31.016667	1	0.470750
31.033333	1	0.507500
31.050000	1	0.547625
31.066667	1	0.592125
31.083333	1	0.642000
31.100000	1	0.696000
31.116667	1	0.755375
31.133333	1	0.821125
31.150000	1	0.893125
31.166667	1	0.971375
31.183333	1	1.056500
31.200000	1	1.148000
31.216667	1	1.246375
31.233333	1	1.351375
31.250000	1	1.462500
31.266667	1	1.579875
31.283333	1	1.703750
31.300000	1	1.833000
31.316667	1	1.967000
31.333333	1	2.103875
31.350000	1	2.244250
31.366667	1	2.385500
31.383333	1	2.527625
31.400000	1	2.669250
31.416667	1	2.808250
31.433333	1	2.943875
31.450000	1	3.073375
31.466667	1	3.195875
31.483333	1	3.308375
31.500000	1	3.411750
31.516667	1	3.504500
31.533333	1	3.584250
31.550000	1	3.650375
31.566667	1	3.702125
31.583333	1	3.739375
31.600000	1	3.760250
31.616667	1	3.766000
31.633333	1	3.755250
31.650000	1	3.728500
31.666667	1	3.687250
31.683333	1	3.631375
31.700000	1	3.561625
31.716667	1	3.479500
31.733333	1	3.386250
31.750000	1	3.283375
31.766667	1	3.171000
31.783333	1	3.051125
31.800000	1	2.924125
31.816667	1	2.793750
31.833333	1	2.659000
31.850000	1	2.523250
31.866667	1	2.386250
31.883333	1	2.250000
31.900000	1	2.115000
31.916667	1	1.982500
31.933333	1	1.853500
31.950000	1	1.728750
31.966667	1	1.607875
31.983333	1	1.491000
32.000000	1	1.380375
32.016667	1	1.274875
32.033333	1	1.174750
32.050000	1	1.079875
32.066667	1	0.991125
32.083333	1	0.907750
32.100000	1	0.829125
32.116667	1	0.756250
32.133333	1	0.688625
32.150000	1	0.624750
32.166667	1	0.566375
32.183333	1	0.512000
32.200000	1	0.462500
32.216667	1	0.415750
32.233333	1	0.372375
32.250000	1	0.332250
32.266667	1	0.295750
32.283333	1	0.261750
32.300000	1	0.230875
32.316667	1	0.202250
32.333333	1	0.176250
32.350000	1	0.151500
32.366667	1	0.129125
32.383333	1	0.109000
32.400000	1	0.090625
32.416667	1	0.073625
32.433333	1	0.057000
32.450000	1	0.041875
32.466667	1	0.028625
32.483333	1	0.016375
32.500000	1	0.005375
32.516667	1	-0.004875
32.533333	1	-0.014375
32.550000	1	-0.022875
32.566667	1	-0.030875
32.583333	1	-0.037625
32.600000	1	-0.044750
32.616667	1	-0.051250
32.633333	1	-0.057000
32.650000	1	-0.062250
32.666667	1	-0.067125
32.683333	1	-0.071375
32.700000	1	-0.075250
32.716667	1	-0.078500
32.733333	1	-0.081250
32.750000	1	-0.083500
32.766667	1	-0.085250
32.783333	1	-0.087000
32.800000	1	-0.088250
32.816667	1	-0.089375
32.833333	1	-0.090125
32.850000	1	-0.090750
32.866667	1	-0.091000
32.883333	1	-0.091125
32.900000	1	-0.091125
32.916667	1	-0.090500
32.933333	1	-0.089625
32.950000	1	-0.088125
32.966667	1	-0.087250
32.983333	1	-0.086250
33.000000	1	-0.084500
33.016667	1	-0.082875
33.033333	1	-0.081000
33.050000	1	-0.079125
33.066667	1	-0.077875
33.083333	1	-0.076250
33.100000	1	-0.074000
33.116667	1	-0.071625
33.133333	1	-0.068625
33.150000	1	-0.066125
33.166667	1	-0.063625
33.183333	1	-0.061375
33.200000	1	-0.058500
33.216667	1	-0.055500
33.233333	1	-0.052500
33.250000	1	-0.049500
33.266667	1	-0.046125
33.283333	1	-0.042875
33.300000	1	-0.040125
33.316667	1	-0.037250
33.333333	1	-0.034250
33.350000	1	-0.031125
33.366667	1	-0.027750
33.383333	1	-0.025000
33.400000	1	-0.021500
33.416667	1	-0.019000
33.433333	1	-0.016250
33.450000	1	-0.013250
33.466667	1	-0.010750
33.483333	1	-0.008250
33.500000	1	-0.005250
33.516667	1	-0.002750
33.533333	1	-0.000250
33.550000	1	0.001500
33.566667	1	0.004625
33.583333	1	0.007625
33.600000	1	0.010500
33.616667	1	0.013375
33.633333	1	0.015250
33.650000	1	0.017250
33.666667	1	0.019250
33.683333	1	0.021625
33.700000	1	0.023750
33.716667	1	0.026250
33.733333	1	0.028625
33.750000	1	0.030750
33.766667	1	0.033625
33.783333	1	0.036375
33.800000	1	0.038625
33.816667	1	0.041000
33.833333	1	0.043250
33.850000	1	0.045875
33.866667	1	0.047875
33.883333	1	0.050000
33.900000	1	0.051625
33.916667	1	0.053625
33.933333	1	0.055750
33.950000	1	0.057000
33.966667	1	0.058875
33.983333	1	0.060250
34.000000	1	0.062000
34.016667	1	0.062375
34.033333	1	0.063000
34.050000	1	0.063000
34.066667	1	0.063500
34.083333	1	0.063125
34.100000	1	0.062875
34.116667	1	0.062500
34.133333	1	0.062250
34.150000	1	0.061875
34.166667	1	0.061625
34.183333	1	0.061125
34.200000	1	0.060000
34.216667	1	0.058750
34.233333	1	0.057750
34.250000	1	0.057500
34.266667	1	0.057625
34.283333	1	0.057750
34.300000	1	0.057375
34.316667	1	0.057625
34.333333	1	0.058125
34.350000	1	0.059375
34.366667	1	0.060875
34.383333	1	0.062000
34.400000	1	0.063375
34.416667	1	0.065125
34.433333	1	0.066625
34.450000	1	0.068250
34.466667	1	0.070375
34.483333	1	0.072750
34.500000	1	0.075375
34.516667	1	0.077875
34.533333	1	0.080250
34.550000	1	0.083125
34.566667	1	0.085750
34.583333	1	0.087500
34.600000	1	0.088750
34.616667	1	0.090875
34.633333	1	0.092250
34.650000	1	0.094250
34.666667	1	0.094875
34.683333	1	0.095375
34.700000	1	0.096250
34.716667	1	0.096875
34.733333	1	0.096875
34.750000	1	0.096500
34.766667	1	0.096875
34.783333	1	0.095625
34.800000	1	0.094500
34.816667	1	0.092625
34.833333	1	0.091125
34.850000	1	0.088375
34.866667	1	0.085250
34.883333	1	0.083125
34.900000	1	0.080750
34.916667	1	0.078250
34.933333	1	0.075250
34.950000	1	0.072750
34.966667	1	0.070500
34.983333	1	0.067375
35.000000	1	0.063625
35.016667	1	0.060125
35.033333	1	0.056750
35.050000	1	0.053625
35.066667	1	0.050125
35.083333	1	0.047000
35.100000	1	0.043750
35.116667	1	0.040750
35.133333	1	0.038625
35.150000	1	0.035750
35.166667	1	0.032750
35.183333	1	0.030125
35.200000	1	0.027750
35.216667	1	0.024500
35.233333	1	0.021500
35.250000	1	0.019500
35.266667	1	0.016750
35.283333	1	0.014750
35.300000	1	0.012375
35.316667	1	0.010375
35.333333	1	0.007875
35.350000	1	0.006375
35.366667	1	0.004125
35.383333	1	0.002250
35.400000	1	0.000750
35.416667	1	-0.000125
35.433333	1	-0.002000
35.450000	1	-0.003125
35.466667	1	-0.004500
35.483333	1	-0.005500
35.500000	1	-0.005500
35.516667	1	-0.005625
35.533333	1	-0.005500
35.550000	1	-0.005500
35.566667	1	-0.004625
35.583333	1	-0.004625
35.600000	1	-0.003625
35.616667	1	-0.003500
35.633333	1	-0.002375
35.650000	1	-0.001375
35.666667	1	-0.000375
35.683333	1	0.001125
35.700000	1	0.003125
35.716667	1	0.004375
35.733333	1	0.006625
35.750000	1	0.008125
35.766667	1	0.010625
35.783333	1	0.012625
35.800000	1	0.014500
35.816667	1	0.015750
35.833333	1	0.017500
35.850000	1	0.019250
35.866667	1	0.021125
35.883333	1	0.023250
35.900000	1	0.024375
35.916667	1	0.025625
35.933333	1	0.027125
35.950000	1	0.028750
35.966667	1	0.030500
35.983333	1	0.033000
36.000000	1	0.034000
36.016667	1	0.035000
36.033333	1	0.035875
36.050000	1	0.036375
36.066667	1	0.037000
36.083333	1	0.037250
36.100000	1	0.038125
36.116667	1	0.038625
36.133333	1	0.039375
36.150000	1	0.039500
36.166667	1	0.039625
36.183333	1	0.039875
36.200000	1	0.040375
36.216667	1	0.040250
36.233333	1	0.040750
36.250000	1	0.041750
36.266667	1	0.042375
36.283333	1	0.042875
36.300000	1	0.043875
36.316667	1	0.044125
36.333333	1	0.045375
36.350000	1	0.046750
36.366667	1	0.047500
36.383333	1	0.047875
36.400000	1	0.049625
36.416667	1	0.050875
36.433333	1	0.052875
36.450000	1	0.054375
36.466667	1	0.055625
36.483333	1	0.056625
36.500000	1	0.057500
36.516667	1	0.058250
36.533333	1	0.058375
36.550000	1	0.059125
36.566667	1	0.059375
36.583333	1	0.059125
36.600000	1	0.058875
36.616667	1	0.058375
36.633333	1	0.057375
36.650000	1	0.056250
36.666667	1	0.054875
36.683333	1	0.053750
36.700000	1	0.052375
36.716667	1	0.050250
36.733333	1	0.047875
36.750000	1	0.045750
36.766667	1	0.042375
36.783333	1	0.039375
36.800000	1	0.036125
36.816667	1	0.033250
36.833333	1	0.030000
36.850000	1	0.026125
36.866667	1	0.023000
36.883333	1	0.020000
36.900000	1	0.016250
36.916667	1	0.013250
36.933333	1	0.010250
36.950000	1	0.007500
36.966667	1	0.004500
36.983333	1	0.001625
37.000000	1	-0.001625
37.016667	1	-0.004125
37.033333	1	-0.006500
37.050000	1	-0.008750
37.066667	1	-0.010000
37.083333	1	-0.011750
37.100000	1	-0.013250
37.116667	1	-0.015125
37.133333	1	-0.015875
37.150000	1	-0.016125
37.166667	1	-0.017625
37.183333	1	-0.018750
37.200000	1	-0.019625
37.216667	1	-0.020500
37.233333	1	-0.021750
37.250000	1	-0.022625
37.266667	1	-0.023375
37.283333	1	-0.023875
37.300000	1	-0.025125
37.316667	1	-0.026750
37.333333	1	-0.028375
37.350000	1	-0.029500
37.366667	1	-0.031625
37.383333	1	-0.033125
37.400000	1	-0.034750
37.416667	1	-0.036125
37.433333	1	-0.037875
37.450000	1	-0.039750
37.466667	1	-0.042500
37.483333	1	-0.044375
37.500000	1	-0.047125
37.516667	1	-0.049250
37.533333	1	-0.051875
37.550000	1	-0.054375
37.566667	1	-0.057125
37.583333	1	-0.060000
37.600000	1	-0.063375
37.616667	1	-0.066375
37.633333	1	-0.068375
37.650000	1	-0.070625
37.666667	1	-0.073000
37.683333	1	-0.075625
37.700000	1	-0.078875
37.716667	1	-0.081000
37.733333	1	-0.082750
37.750000	1	-0.085125
37.766667	1	-0.087500
37.783333	1	-0.089750
37.800000	1	-0.092125
37.816667	1	-0.094250
37.833333	1	-0.096500
37.850000	1	-0.098250
37.866667	1	-0.099250
37.883333	1	-0.101125
37.900000	1	-0.102375
37.916667	1	-0.103000
37.933333	1	-0.103500
37.950000	1	-0.104750
37.966667	1	-0.106250
37.983333	1	-0.107000
38.000000	1	-0.107250
38.016667	1	-0.107250
38.033333	1	-0.107625
38.050000	1	-0.107375
38.066667	1	-0.106625
38.083333	1	-0.106125
38.100000	1	-0.106000
38.116667	1	-0.105125
38.133333	1	-0.104625
38.150000	1	-0.103250
38.166667	1	-0.102250
38.183333	1	-0.101000
38.200000	1	-0.100125
38.216667	1	-0.098750
38.233333	1	-0.098000
38.250000	1	-0.096375
38.266667	1	-0.095250
38.283333	1	-0.094125
38.300000	1	-0.092750
38.316667	1	-0.091125
38.333333	1	-0.090000
38.350000	1	-0.088375
38.366667	1	-0.087375
38.383333	1	-0.086375
38.400000	1	-0.085375
38.416667	1	-0.083875
38.433333	1	-0.082875
38.450000	1	-0.081500
38.466667	1	-0.080875
38.483333	1	-0.080125
38.500000	1	-0.079125
38.516667	1	-0.077875
38.533333	1	-0.076250
38.550000	1	-0.076125
38.566667	1	-0.075250
38.583333	1	-0.074875
38.600000	1	-0.074500
38.616667	1	-0.073000
38.633333	1	-0.072125
38.650000	1	-0.071000
38.666667	1	-0.070000
38.683333	1	-0.069625
38.700000	1	-0.069125
38.716667	1	-0.067750
38.733333	1	-0.067000
38.750000	1	-0.066375
38.766667	1	-0.065875
38.783333	1	-0.064750
38.800000	1	-0.063625
38.816667	1	-0.062875
38.833333	1	-0.062250
38.850000	1	-0.062000
38.866667	1	-0.061500
38.883333	1	-0.061500
38.900000	1	-0.061500
38.916667	1	-0.061000
38.933333	1	-0.061125
38.950000	1	-0.061125
38.966667	1	-0.061000
38.983333	1	-0.062000
39.000000	1	-0.062500
39.016667	1	-0.063250
39.033333	1	-0.063125
39.050000	1	-0.063000
39.066667	1	-0.063000
39.083333	1	-0.063875
39.100000	1	-0.064500
39.116667	1	-0.064750
39.133333	1	-0.065750
39.150000	1	-0.067250
39.166667	1	-0.068000
39.183333	1	-0.069000
39.200000	1	-0.069625
39.216667	1	-0.070875
39.233333	1	-0.071875
39.250000	1	-0.073000
39.266667	1	-0.073125
39.283333	1	-0.074000
39.300000	1	-0.075250
39.316667	1	-0.075875
39.333333	1	-0.077125
39.350000	1	-0.078625
39.366667	1	-0.080625
39.383333	1	-0.081625
39.400000	1	-0.082750
39.416667	1	-0.083625
39.433333	1	-0.084125
39.450000	1	-0.085500
39.466667	1	-0.086125
39.483333	1	-0.086500
39.500000	1	-0.087000
39.516667	1	-0.087500
39.533333	1	-0.088000
39.550000	1	-0.089000
39.566667	1	-0.089500
39.583333	1	-0.089875
39.600000	1	-0.091000
39.616667	1	-0.091125
39.633333	1	-0.091750
39.650000	1	-0.092125
39.666667	1	-0.092500
39.683333	1	-0.092625
39.700000	1	-0.092750
39.716667	1	-0.093375
39.733333	1	-0.094250
39.750000	1	-0.093500
39.766667	1	-0.093500
39.783333	1	-0.093625
39.800000	1	-0.093750
39.816667	1	-0.093750
39.833333	1	-0.093750
39.850000	1	-0.093750
39.866667	1	-0.093250
39.883333	1	-0.093125
39.900000	1	-0.093125
39.916667	1	-0.093125
39.933333	1	-0.092875
39.950000	1	-0.092625
39.966667	1	-0.092000
39.983333	1	-0.091875
40.000000	1	-0.091500
