URL	chrom://bioreactor/micro_cm7/HPLC_Ultimate_3000/Users/markusar/20240517_CMO_FP23_FP25_MarkusDeplate.seq/144.smp/RI_1.channel/RI_1.chm
Channel	RI_1

Injection Information:
Data Vault	micro_cm7
Sequence	20240517_CMO_FP23_FP25_MarkusDeplate
Name	FP28_22.3_s3
Number	152
Position	BB6
Comment	
Processing Method	
Instrument Method	run_25B_method
Type	Unknown
Status	Finished
Inject Time	01.06.2024 02:55:16 +02:00
Volume (µl)	20.0000
Dilution Factor	1.0000
Weight	1.0000

Chromatogram Data Information:
Time Min. (min)	0.000000
Time Max. (min)	40.000000
Data Points	2401
Detector	RI
Generating Data System	Chromeleon 7.3.2.11814
Exporting Data System	Chromeleon 7.3.2.0
Operator	Instrument Controller
Signal Quantity	Refractive 
Signal Unit	µRIU
Signal Min.	-1.020500
Signal Max.	58.831375
Channel	RI_1
Driver Name	RID520Driver.dll
Channel Type	Evaluation
Min. Step (s)	1
Max. Step (s)	1
Average Step (s)	1

Signal Parameter Information:
Signal Info	

Chromatogram Data:
Time (min)	Step (s)	Value (µRIU)
0.000000	n.a.	-0.020750
0.016667	1	-0.022875
0.033333	1	-0.024500
0.050000	1	-0.026250
0.066667	1	-0.027250
0.083333	1	-0.028125
0.100000	1	-0.029125
0.116667	1	-0.029250
0.133333	1	-0.029500
0.150000	1	-0.029875
0.166667	1	-0.030375
0.183333	1	-0.030000
0.200000	1	-0.030000
0.216667	1	-0.029625
0.233333	1	-0.029000
0.250000	1	-0.027875
0.266667	1	-0.027375
0.283333	1	-0.025750
0.300000	1	-0.024750
0.316667	1	-0.022750
0.333333	1	-0.021125
0.350000	1	-0.019000
0.366667	1	-0.017125
0.383333	1	-0.015500
0.400000	1	-0.014125
0.416667	1	-0.012250
0.433333	1	-0.010125
0.450000	1	-0.008250
0.466667	1	-0.006625
0.483333	1	-0.004250
0.500000	1	-0.002625
0.516667	1	-0.000375
0.533333	1	0.001375
0.550000	1	0.002500
0.566667	1	0.004000
0.583333	1	0.004750
0.600000	1	0.005500
0.616667	1	0.006625
0.633333	1	0.007125
0.650000	1	0.008375
0.666667	1	0.008875
0.683333	1	0.009250
0.700000	1	0.010125
0.716667	1	0.011000
0.733333	1	0.012000
0.750000	1	0.013000
0.766667	1	0.013375
0.783333	1	0.013875
0.800000	1	0.014500
0.816667	1	0.015750
0.833333	1	0.017125
0.850000	1	0.017750
0.866667	1	0.018250
0.883333	1	0.019625
0.900000	1	0.020625
0.916667	1	0.020875
0.933333	1	0.021375
0.950000	1	0.021500
0.966667	1	0.021875
0.983333	1	0.022000
1.000000	1	0.021250
1.016667	1	0.021625
1.033333	1	0.021750
1.050000	1	0.021625
1.066667	1	0.021000
1.083333	1	0.020750
1.100000	1	0.020125
1.116667	1	0.019750
1.133333	1	0.018750
1.150000	1	0.017750
1.166667	1	0.017375
1.183333	1	0.016500
1.200000	1	0.016250
1.216667	1	0.015250
1.233333	1	0.015500
1.250000	1	0.014750
1.266667	1	0.014125
1.283333	1	0.014125
1.300000	1	0.014250
1.316667	1	0.013625
1.333333	1	0.013250
1.350000	1	0.012875
1.366667	1	0.013000
1.383333	1	0.012500
1.400000	1	0.012750
1.416667	1	0.013250
1.433333	1	0.013500
1.450000	1	0.014250
1.466667	1	0.015125
1.483333	1	0.015750
1.500000	1	0.016375
1.516667	1	0.017250
1.533333	1	0.018375
1.550000	1	0.019000
1.566667	1	0.019625
1.583333	1	0.021250
1.600000	1	0.022250
1.616667	1	0.023375
1.633333	1	0.024750
1.650000	1	0.025750
1.666667	1	0.027250
1.683333	1	0.028375
1.700000	1	0.029750
1.716667	1	0.031000
1.733333	1	0.032125
1.750000	1	0.032875
1.766667	1	0.033875
1.783333	1	0.034750
1.800000	1	0.035125
1.816667	1	0.035875
1.833333	1	0.036500
1.850000	1	0.036500
1.866667	1	0.036250
1.883333	1	0.036000
1.900000	1	0.035250
1.916667	1	0.034250
1.933333	1	0.034000
1.950000	1	0.032125
1.966667	1	0.031125
1.983333	1	0.030125
2.000000	1	0.028500
2.016667	1	0.026875
2.033333	1	0.025375
2.050000	1	0.024125
2.066667	1	0.022375
2.083333	1	0.021000
2.100000	1	0.019125
2.116667	1	0.017875
2.133333	1	0.016750
2.150000	1	0.016000
2.166667	1	0.014750
2.183333	1	0.013375
2.200000	1	0.012625
2.216667	1	0.012375
2.233333	1	0.011750
2.250000	1	0.011875
2.266667	1	0.011250
2.283333	1	0.011750
2.300000	1	0.010875
2.316667	1	0.011000
2.333333	1	0.011375
2.350000	1	0.011625
2.366667	1	0.012125
2.383333	1	0.012625
2.400000	1	0.012500
2.416667	1	0.013250
2.433333	1	0.013625
2.450000	1	0.014375
2.466667	1	0.014750
2.483333	1	0.015875
2.500000	1	0.016125
2.516667	1	0.016375
2.533333	1	0.016250
2.550000	1	0.016875
2.566667	1	0.016625
2.583333	1	0.016000
2.600000	1	0.016000
2.616667	1	0.016125
2.633333	1	0.015750
2.650000	1	0.015375
2.666667	1	0.015250
2.683333	1	0.015000
2.700000	1	0.014500
2.716667	1	0.014625
2.733333	1	0.014375
2.750000	1	0.014000
2.766667	1	0.013125
2.783333	1	0.012000
2.800000	1	0.010875
2.816667	1	0.010250
2.833333	1	0.010500
2.850000	1	0.010000
2.866667	1	0.009125
2.883333	1	0.008750
2.900000	1	0.008000
2.916667	1	0.007375
2.933333	1	0.006500
2.950000	1	0.006250
2.966667	1	0.006375
2.983333	1	0.006125
3.000000	1	0.006125
3.016667	1	0.006625
3.033333	1	0.006000
3.050000	1	0.006250
3.066667	1	0.006250
3.083333	1	0.006750
3.100000	1	0.007000
3.116667	1	0.008000
3.133333	1	0.008625
3.150000	1	0.008875
3.166667	1	0.009625
3.183333	1	0.010500
3.200000	1	0.010875
3.216667	1	0.011875
3.233333	1	0.013375
3.250000	1	0.014750
3.266667	1	0.016125
3.283333	1	0.017375
3.300000	1	0.018500
3.316667	1	0.020250
3.333333	1	0.021625
3.350000	1	0.023500
3.366667	1	0.025625
3.383333	1	0.027750
3.400000	1	0.029250
3.416667	1	0.032125
3.433333	1	0.034375
3.450000	1	0.036375
3.466667	1	0.039375
3.483333	1	0.041250
3.500000	1	0.043750
3.516667	1	0.046875
3.533333	1	0.048875
3.550000	1	0.051250
3.566667	1	0.053625
3.583333	1	0.056000
3.600000	1	0.059250
3.616667	1	0.061750
3.633333	1	0.064875
3.650000	1	0.068000
3.666667	1	0.070500
3.683333	1	0.073125
3.700000	1	0.075375
3.716667	1	0.077875
3.733333	1	0.080500
3.750000	1	0.083000
3.766667	1	0.085000
3.783333	1	0.087125
3.800000	1	0.089500
3.816667	1	0.092000
3.833333	1	0.093375
3.850000	1	0.095375
3.866667	1	0.096875
3.883333	1	0.098750
3.900000	1	0.100250
3.916667	1	0.102625
3.933333	1	0.104250
3.950000	1	0.105500
3.966667	1	0.106750
3.983333	1	0.107625
4.000000	1	0.109250
4.016667	1	0.110000
4.033333	1	0.111125
4.050000	1	0.111875
4.066667	1	0.112250
4.083333	1	0.112500
4.100000	1	0.113000
4.116667	1	0.113375
4.133333	1	0.114125
4.150000	1	0.114375
4.166667	1	0.114500
4.183333	1	0.114375
4.200000	1	0.114750
4.216667	1	0.115250
4.233333	1	0.116375
4.250000	1	0.116625
4.266667	1	0.117000
4.283333	1	0.118000
4.300000	1	0.117875
4.316667	1	0.118625
4.333333	1	0.119000
4.350000	1	0.119875
4.366667	1	0.121250
4.383333	1	0.121625
4.400000	1	0.122750
4.416667	1	0.123750
4.433333	1	0.124500
4.450000	1	0.125125
4.466667	1	0.125250
4.483333	1	0.126375
4.500000	1	0.127250
4.516667	1	0.127875
4.533333	1	0.128000
4.550000	1	0.127875
4.566667	1	0.128000
4.583333	1	0.127500
4.600000	1	0.127375
4.616667	1	0.126875
4.633333	1	0.126375
4.650000	1	0.126000
4.666667	1	0.125750
4.683333	1	0.125750
4.700000	1	0.124875
4.716667	1	0.124125
4.733333	1	0.123750
4.750000	1	0.124000
4.766667	1	0.124000
4.783333	1	0.123875
4.800000	1	0.123125
4.816667	1	0.123250
4.833333	1	0.124250
4.850000	1	0.124625
4.866667	1	0.125625
4.883333	1	0.127500
4.900000	1	0.128875
4.916667	1	0.130750
4.933333	1	0.132750
4.950000	1	0.134000
4.966667	1	0.136250
4.983333	1	0.139125
5.000000	1	0.142000
5.016667	1	0.144875
5.033333	1	0.147750
5.050000	1	0.151250
5.066667	1	0.154625
5.083333	1	0.158125
5.100000	1	0.161750
5.116667	1	0.165000
5.133333	1	0.168750
5.150000	1	0.172500
5.166667	1	0.176875
5.183333	1	0.180625
5.200000	1	0.184125
5.216667	1	0.188250
5.233333	1	0.192250
5.250000	1	0.196375
5.266667	1	0.200250
5.283333	1	0.204875
5.300000	1	0.208625
5.316667	1	0.212000
5.333333	1	0.215750
5.350000	1	0.219625
5.366667	1	0.223875
5.383333	1	0.227500
5.400000	1	0.231500
5.416667	1	0.235500
5.433333	1	0.239125
5.450000	1	0.242750
5.466667	1	0.246250
5.483333	1	0.249750
5.500000	1	0.253125
5.516667	1	0.256625
5.533333	1	0.259000
5.550000	1	0.262375
5.566667	1	0.265625
5.583333	1	0.267750
5.600000	1	0.270125
5.616667	1	0.272375
5.633333	1	0.274250
5.650000	1	0.275625
5.666667	1	0.277125
5.683333	1	0.278250
5.700000	1	0.279750
5.716667	1	0.280625
5.733333	1	0.281250
5.750000	1	0.281500
5.766667	1	0.281500
5.783333	1	0.281125
5.800000	1	0.280750
5.816667	1	0.279750
5.833333	1	0.279250
5.850000	1	0.277875
5.866667	1	0.276625
5.883333	1	0.275625
5.900000	1	0.273250
5.916667	1	0.271500
5.933333	1	0.269625
5.950000	1	0.267375
5.966667	1	0.264375
5.983333	1	0.262500
6.000000	1	0.259375
6.016667	1	0.256750
6.033333	1	0.253375
6.050000	1	0.250500
6.066667	1	0.247375
6.083333	1	0.244750
6.100000	1	0.240875
6.116667	1	0.237750
6.133333	1	0.234375
6.150000	1	0.230625
6.166667	1	0.228375
6.183333	1	0.225250
6.200000	1	0.222125
6.216667	1	0.219000
6.233333	1	0.215625
6.250000	1	0.212625
6.266667	1	0.209625
6.283333	1	0.206125
6.300000	1	0.203000
6.316667	1	0.200125
6.333333	1	0.197750
6.350000	1	0.195500
6.366667	1	0.192625
6.383333	1	0.189750
6.400000	1	0.186875
6.416667	1	0.183625
6.433333	1	0.180625
6.450000	1	0.176625
6.466667	1	0.172875
6.483333	1	0.169500
6.500000	1	0.165375
6.516667	1	0.161875
6.533333	1	0.158000
6.550000	1	0.153750
6.566667	1	0.149625
6.583333	1	0.145250
6.600000	1	0.141500
6.616667	1	0.137375
6.633333	1	0.133000
6.650000	1	0.128750
6.666667	1	0.124125
6.683333	1	0.119625
6.700000	1	0.115375
6.716667	1	0.111500
6.733333	1	0.107750
6.750000	1	0.104500
6.766667	1	0.100750
6.783333	1	0.097500
6.800000	1	0.095125
6.816667	1	0.093125
6.833333	1	0.090125
6.850000	1	0.088500
6.866667	1	0.086875
6.883333	1	0.085500
6.900000	1	0.084625
6.916667	1	0.084375
6.933333	1	0.084750
6.950000	1	0.084875
6.966667	1	0.086250
6.983333	1	0.088375
7.000000	1	0.090500
7.016667	1	0.092250
7.033333	1	0.094875
7.050000	1	0.097375
7.066667	1	0.101250
7.083333	1	0.104500
7.100000	1	0.108125
7.116667	1	0.111750
7.133333	1	0.115875
7.150000	1	0.119875
7.166667	1	0.124375
7.183333	1	0.128625
7.200000	1	0.133500
7.216667	1	0.137875
7.233333	1	0.141875
7.250000	1	0.145625
7.266667	1	0.150125
7.283333	1	0.154250
7.300000	1	0.157750
7.316667	1	0.161500
7.333333	1	0.165500
7.350000	1	0.169375
7.366667	1	0.172750
7.383333	1	0.176250
7.400000	1	0.179250
7.416667	1	0.182000
7.433333	1	0.185125
7.450000	1	0.186750
7.466667	1	0.188875
7.483333	1	0.190750
7.500000	1	0.191875
7.516667	1	0.193000
7.533333	1	0.193875
7.550000	1	0.194875
7.566667	1	0.194750
7.583333	1	0.194250
7.600000	1	0.194375
7.616667	1	0.194375
7.633333	1	0.193750
7.650000	1	0.192875
7.666667	1	0.191250
7.683333	1	0.189750
7.700000	1	0.188500
7.716667	1	0.186500
7.733333	1	0.185000
7.750000	1	0.183000
7.766667	1	0.181000
7.783333	1	0.178625
7.800000	1	0.176375
7.816667	1	0.174250
7.833333	1	0.171875
7.850000	1	0.169875
7.866667	1	0.167875
7.883333	1	0.165375
7.900000	1	0.162625
7.916667	1	0.160750
7.933333	1	0.159125
7.950000	1	0.157000
7.966667	1	0.155375
7.983333	1	0.153875
8.000000	1	0.152375
8.016667	1	0.151000
8.033333	1	0.149250
8.050000	1	0.147375
8.066667	1	0.145625
8.083333	1	0.144500
8.100000	1	0.142625
8.116667	1	0.141500
8.133333	1	0.139625
8.150000	1	0.137875
8.166667	1	0.136375
8.183333	1	0.134000
8.200000	1	0.131750
8.216667	1	0.130250
8.233333	1	0.128250
8.250000	1	0.126125
8.266667	1	0.124125
8.283333	1	0.120750
8.300000	1	0.118625
8.316667	1	0.116250
8.333333	1	0.113375
8.350000	1	0.110625
8.366667	1	0.107500
8.383333	1	0.104875
8.400000	1	0.101875
8.416667	1	0.098625
8.433333	1	0.095875
8.450000	1	0.092500
8.466667	1	0.089500
8.483333	1	0.086000
8.500000	1	0.083375
8.516667	1	0.080750
8.533333	1	0.078000
8.550000	1	0.075625
8.566667	1	0.072875
8.583333	1	0.070875
8.600000	1	0.069500
8.616667	1	0.068750
8.633333	1	0.067625
8.650000	1	0.066375
8.666667	1	0.065250
8.683333	1	0.064375
8.700000	1	0.063875
8.716667	1	0.063750
8.733333	1	0.063750
8.750000	1	0.064000
8.766667	1	0.065375
8.783333	1	0.066125
8.800000	1	0.067875
8.816667	1	0.069875
8.833333	1	0.070875
8.850000	1	0.072875
8.866667	1	0.074250
8.883333	1	0.076250
8.900000	1	0.078000
8.916667	1	0.080375
8.933333	1	0.083500
8.950000	1	0.087000
8.966667	1	0.090125
8.983333	1	0.092625
9.000000	1	0.095375
9.016667	1	0.097750
9.033333	1	0.100875
9.050000	1	0.103500
9.066667	1	0.107000
9.083333	1	0.110875
9.100000	1	0.114250
9.116667	1	0.118000
9.133333	1	0.121250
9.150000	1	0.123750
9.166667	1	0.127375
9.183333	1	0.129500
9.200000	1	0.132500
9.216667	1	0.135750
9.233333	1	0.138750
9.250000	1	0.141500
9.266667	1	0.143500
9.283333	1	0.145750
9.300000	1	0.148875
9.316667	1	0.151125
9.333333	1	0.153625
9.350000	1	0.155375
9.366667	1	0.157250
9.383333	1	0.159250
9.400000	1	0.161125
9.416667	1	0.162375
9.433333	1	0.164250
9.450000	1	0.165125
9.466667	1	0.165875
9.483333	1	0.166750
9.500000	1	0.167500
9.516667	1	0.167750
9.533333	1	0.168625
9.550000	1	0.169125
9.566667	1	0.168875
9.583333	1	0.168875
9.600000	1	0.169000
9.616667	1	0.169125
9.633333	1	0.169000
9.650000	1	0.168250
9.666667	1	0.167750
9.683333	1	0.166750
9.700000	1	0.166250
9.716667	1	0.165875
9.733333	1	0.164875
9.750000	1	0.164375
9.766667	1	0.163750
9.783333	1	0.163125
9.800000	1	0.162125
9.816667	1	0.160875
9.833333	1	0.159750
9.850000	1	0.158000
9.866667	1	0.156875
9.883333	1	0.155625
9.900000	1	0.154125
9.916667	1	0.152250
9.933333	1	0.150250
9.950000	1	0.148625
9.966667	1	0.146125
9.983333	1	0.144000
10.000000	1	0.142000
10.016667	1	0.140250
10.033333	1	0.138625
10.050000	1	0.137375
10.066667	1	0.136625
10.083333	1	0.136125
10.100000	1	0.136000
10.116667	1	0.136750
10.133333	1	0.139125
10.150000	1	0.143000
10.166667	1	0.146625
10.183333	1	0.152500
10.200000	1	0.160125
10.216667	1	0.169250
10.233333	1	0.180875
10.250000	1	0.194000
10.266667	1	0.209375
10.283333	1	0.227375
10.300000	1	0.248000
10.316667	1	0.271625
10.333333	1	0.296625
10.350000	1	0.322875
10.366667	1	0.348250
10.383333	1	0.371750
10.400000	1	0.390625
10.416667	1	0.404000
10.433333	1	0.412625
10.450000	1	0.419000
10.466667	1	0.429250
10.483333	1	0.456750
10.500000	1	0.520125
10.516667	1	0.649000
10.533333	1	0.884625
10.550000	1	1.277500
10.566667	1	1.887125
10.583333	1	2.774875
10.600000	1	4.001125
10.616667	1	5.616375
10.633333	1	7.657000
10.650000	1	10.138750
10.666667	1	13.067000
10.683333	1	16.427750
10.700000	1	20.187000
10.716667	1	24.286625
10.733333	1	28.639125
10.750000	1	33.121500
10.766667	1	37.563375
10.783333	1	41.738125
10.800000	1	45.366375
10.816667	1	48.128875
10.833333	1	49.712875
10.850000	1	49.883750
10.866667	1	48.552750
10.883333	1	45.819500
10.900000	1	41.967375
10.916667	1	37.401000
10.933333	1	32.552625
10.950000	1	27.791875
10.966667	1	23.383375
10.983333	1	19.471750
11.000000	1	16.111750
11.016667	1	13.297750
11.033333	1	10.987500
11.050000	1	9.119875
11.066667	1	7.626875
11.083333	1	6.441750
11.100000	1	5.505750
11.116667	1	4.766500
11.133333	1	4.180625
11.150000	1	3.713000
11.166667	1	3.336500
11.183333	1	3.030250
11.200000	1	2.778375
11.216667	1	2.568125
11.233333	1	2.391500
11.250000	1	2.238875
11.266667	1	2.107625
11.283333	1	1.992625
11.300000	1	1.891000
11.316667	1	1.801750
11.333333	1	1.720500
11.350000	1	1.648750
11.366667	1	1.584375
11.383333	1	1.527750
11.400000	1	1.477000
11.416667	1	1.431250
11.433333	1	1.390500
11.450000	1	1.354375
11.466667	1	1.321625
11.483333	1	1.292625
11.500000	1	1.266250
11.516667	1	1.243125
11.533333	1	1.221750
11.550000	1	1.203750
11.566667	1	1.186500
11.583333	1	1.171750
11.600000	1	1.158875
11.616667	1	1.147625
11.633333	1	1.137125
11.650000	1	1.128625
11.666667	1	1.122875
11.683333	1	1.117625
11.700000	1	1.114500
11.716667	1	1.113125
11.733333	1	1.112375
11.750000	1	1.113750
11.766667	1	1.116375
11.783333	1	1.120250
11.800000	1	1.125500
11.816667	1	1.131500
11.833333	1	1.137875
11.850000	1	1.143750
11.866667	1	1.150375
11.883333	1	1.156750
11.900000	1	1.162875
11.916667	1	1.169250
11.933333	1	1.175875
11.950000	1	1.181750
11.966667	1	1.187500
11.983333	1	1.192250
12.000000	1	1.198375
12.016667	1	1.204500
12.033333	1	1.211375
12.050000	1	1.218750
12.066667	1	1.226375
12.083333	1	1.233875
12.100000	1	1.241625
12.116667	1	1.250250
12.133333	1	1.258750
12.150000	1	1.267625
12.166667	1	1.277125
12.183333	1	1.287625
12.200000	1	1.298250
12.216667	1	1.310375
12.233333	1	1.323750
12.250000	1	1.339125
12.266667	1	1.356750
12.283333	1	1.376875
12.300000	1	1.401500
12.316667	1	1.431125
12.333333	1	1.465875
12.350000	1	1.508625
12.366667	1	1.560375
12.383333	1	1.624000
12.400000	1	1.701875
12.416667	1	1.797500
12.433333	1	1.915250
12.450000	1	2.059250
12.466667	1	2.233875
12.483333	1	2.444250
12.500000	1	2.693750
12.516667	1	2.985000
12.533333	1	3.316625
12.550000	1	3.686375
12.566667	1	4.087625
12.583333	1	4.509625
12.600000	1	4.939500
12.616667	1	5.362375
12.633333	1	5.760125
12.650000	1	6.115750
12.666667	1	6.415125
12.683333	1	6.645000
12.700000	1	6.797750
12.716667	1	6.870250
12.733333	1	6.863125
12.750000	1	6.782625
12.766667	1	6.636625
12.783333	1	6.437750
12.800000	1	6.198125
12.816667	1	5.929375
12.833333	1	5.644125
12.850000	1	5.351000
12.866667	1	5.058625
12.883333	1	4.774375
12.900000	1	4.502000
12.916667	1	4.247375
12.933333	1	4.011250
12.950000	1	3.796375
12.966667	1	3.603125
12.983333	1	3.430500
13.000000	1	3.277000
13.016667	1	3.142375
13.033333	1	3.022750
13.050000	1	2.918375
13.066667	1	2.826500
13.083333	1	2.745125
13.100000	1	2.672625
13.116667	1	2.608250
13.133333	1	2.549750
13.150000	1	2.497625
13.166667	1	2.449500
13.183333	1	2.405375
13.200000	1	2.364250
13.216667	1	2.325500
13.233333	1	2.289875
13.250000	1	2.255500
13.266667	1	2.222500
13.283333	1	2.191500
13.300000	1	2.161500
13.316667	1	2.132375
13.333333	1	2.105375
13.350000	1	2.079375
13.366667	1	2.055500
13.383333	1	2.033375
13.400000	1	2.013625
13.416667	1	1.996000
13.433333	1	1.979875
13.450000	1	1.966500
13.466667	1	1.955875
13.483333	1	1.947375
13.500000	1	1.941625
13.516667	1	1.937000
13.533333	1	1.934125
13.550000	1	1.932750
13.566667	1	1.932125
13.583333	1	1.931000
13.600000	1	1.929875
13.616667	1	1.928000
13.633333	1	1.924625
13.650000	1	1.919125
13.666667	1	1.910375
13.683333	1	1.898875
13.700000	1	1.885000
13.716667	1	1.869125
13.733333	1	1.851875
13.750000	1	1.833125
13.766667	1	1.812250
13.783333	1	1.790750
13.800000	1	1.770125
13.816667	1	1.749000
13.833333	1	1.727375
13.850000	1	1.707125
13.866667	1	1.687500
13.883333	1	1.668250
13.900000	1	1.650125
13.916667	1	1.632500
13.933333	1	1.615250
13.950000	1	1.599125
13.966667	1	1.584125
13.983333	1	1.569500
14.000000	1	1.554625
14.016667	1	1.539875
14.033333	1	1.526000
14.050000	1	1.513125
14.066667	1	1.500625
14.083333	1	1.487750
14.100000	1	1.475500
14.116667	1	1.464000
14.133333	1	1.451500
14.150000	1	1.440500
14.166667	1	1.429750
14.183333	1	1.420750
14.200000	1	1.411500
14.216667	1	1.405125
14.233333	1	1.399500
14.250000	1	1.395375
14.266667	1	1.393125
14.283333	1	1.394000
14.300000	1	1.396625
14.316667	1	1.403125
14.333333	1	1.413750
14.350000	1	1.429125
14.366667	1	1.449875
14.383333	1	1.478000
14.400000	1	1.514750
14.416667	1	1.564375
14.433333	1	1.630625
14.450000	1	1.717625
14.466667	1	1.835875
14.483333	1	1.995500
14.500000	1	2.212375
14.516667	1	2.505125
14.533333	1	2.897500
14.550000	1	3.422625
14.566667	1	4.117500
14.583333	1	5.025125
14.600000	1	6.192375
14.616667	1	7.673125
14.633333	1	9.519500
14.650000	1	11.777625
14.666667	1	14.482750
14.683333	1	17.648375
14.700000	1	21.263500
14.716667	1	25.281625
14.733333	1	29.626875
14.750000	1	34.187500
14.766667	1	38.820500
14.783333	1	43.351125
14.800000	1	47.598750
14.816667	1	51.381875
14.833333	1	54.526375
14.850000	1	56.883000
14.866667	1	58.338500
14.883333	1	58.831375
14.900000	1	58.351000
14.916667	1	56.945375
14.933333	1	54.705500
14.950000	1	51.762375
14.966667	1	48.274250
14.983333	1	44.414375
15.000000	1	40.345250
15.016667	1	36.216875
15.033333	1	32.159875
15.050000	1	28.280750
15.066667	1	24.659625
15.083333	1	21.348875
15.100000	1	18.377625
15.116667	1	15.752375
15.133333	1	13.465125
15.150000	1	11.494125
15.166667	1	9.813500
15.183333	1	8.392125
15.200000	1	7.197875
15.216667	1	6.200625
15.233333	1	5.371250
15.250000	1	4.685625
15.266667	1	4.122875
15.283333	1	3.663750
15.300000	1	3.292375
15.316667	1	2.994625
15.333333	1	2.759125
15.350000	1	2.574875
15.366667	1	2.434250
15.383333	1	2.328500
15.400000	1	2.251750
15.416667	1	2.197250
15.433333	1	2.159500
15.450000	1	2.133875
15.466667	1	2.114875
15.483333	1	2.099875
15.500000	1	2.085125
15.516667	1	2.068375
15.533333	1	2.046250
15.550000	1	2.019625
15.566667	1	1.987250
15.583333	1	1.950125
15.600000	1	1.909750
15.616667	1	1.866125
15.633333	1	1.820625
15.650000	1	1.774500
15.666667	1	1.728875
15.683333	1	1.685250
15.700000	1	1.642500
15.716667	1	1.602875
15.733333	1	1.566250
15.750000	1	1.532250
15.766667	1	1.501625
15.783333	1	1.473500
15.800000	1	1.447000
15.816667	1	1.422750
15.833333	1	1.399750
15.850000	1	1.379000
15.866667	1	1.360875
15.883333	1	1.343625
15.900000	1	1.328500
15.916667	1	1.314750
15.933333	1	1.304250
15.950000	1	1.294000
15.966667	1	1.287250
15.983333	1	1.281750
16.000000	1	1.278375
16.016667	1	1.276500
16.033333	1	1.276750
16.050000	1	1.278250
16.066667	1	1.280000
16.083333	1	1.282625
16.100000	1	1.285750
16.116667	1	1.289125
16.133333	1	1.293000
16.150000	1	1.296750
16.166667	1	1.299125
16.183333	1	1.301125
16.200000	1	1.303000
16.216667	1	1.303125
16.233333	1	1.302500
16.250000	1	1.301500
16.266667	1	1.299125
16.283333	1	1.295875
16.300000	1	1.291875
16.316667	1	1.287500
16.333333	1	1.282875
16.350000	1	1.278750
16.366667	1	1.274250
16.383333	1	1.271625
16.400000	1	1.268875
16.416667	1	1.267000
16.433333	1	1.266125
16.450000	1	1.266625
16.466667	1	1.268625
16.483333	1	1.270000
16.500000	1	1.271750
16.516667	1	1.274500
16.533333	1	1.277250
16.550000	1	1.279500
16.566667	1	1.280500
16.583333	1	1.280875
16.600000	1	1.280125
16.616667	1	1.278250
16.633333	1	1.276000
16.650000	1	1.272500
16.666667	1	1.269000
16.683333	1	1.265375
16.700000	1	1.261500
16.716667	1	1.258125
16.733333	1	1.256625
16.750000	1	1.256375
16.766667	1	1.257500
16.783333	1	1.259250
16.800000	1	1.262875
16.816667	1	1.267250
16.833333	1	1.272875
16.850000	1	1.278750
16.866667	1	1.284250
16.883333	1	1.289875
16.900000	1	1.293750
16.916667	1	1.296750
16.933333	1	1.298250
16.950000	1	1.298375
16.966667	1	1.297250
16.983333	1	1.294750
17.000000	1	1.290625
17.016667	1	1.286875
17.033333	1	1.282375
17.050000	1	1.277500
17.066667	1	1.271500
17.083333	1	1.266625
17.100000	1	1.261625
17.116667	1	1.257000
17.133333	1	1.252125
17.150000	1	1.249375
17.166667	1	1.247125
17.183333	1	1.246000
17.200000	1	1.246000
17.216667	1	1.246625
17.233333	1	1.247750
17.250000	1	1.249250
17.266667	1	1.251625
17.283333	1	1.255500
17.300000	1	1.259750
17.316667	1	1.264000
17.333333	1	1.268750
17.350000	1	1.273375
17.366667	1	1.278625
17.383333	1	1.283125
17.400000	1	1.287750
17.416667	1	1.291125
17.433333	1	1.294250
17.450000	1	1.295250
17.466667	1	1.295375
17.483333	1	1.293875
17.500000	1	1.290625
17.516667	1	1.285375
17.533333	1	1.278250
17.550000	1	1.269625
17.566667	1	1.259625
17.583333	1	1.247875
17.600000	1	1.234750
17.616667	1	1.220500
17.633333	1	1.205250
17.650000	1	1.189375
17.666667	1	1.172875
17.683333	1	1.156000
17.700000	1	1.139625
17.716667	1	1.124125
17.733333	1	1.108750
17.750000	1	1.093625
17.766667	1	1.079375
17.783333	1	1.066500
17.800000	1	1.054375
17.816667	1	1.043125
17.833333	1	1.032250
17.850000	1	1.023500
17.866667	1	1.014375
17.883333	1	1.006250
17.900000	1	0.998250
17.916667	1	0.991625
17.933333	1	0.984375
17.950000	1	0.977500
17.966667	1	0.970875
17.983333	1	0.964000
18.000000	1	0.957375
18.016667	1	0.950375
18.033333	1	0.943625
18.050000	1	0.937125
18.066667	1	0.930250
18.083333	1	0.923625
18.100000	1	0.918000
18.116667	1	0.912375
18.133333	1	0.907750
18.150000	1	0.903250
18.166667	1	0.899875
18.183333	1	0.897375
18.200000	1	0.896000
18.216667	1	0.894750
18.233333	1	0.894500
18.250000	1	0.894875
18.266667	1	0.896375
18.283333	1	0.897625
18.300000	1	0.899375
18.316667	1	0.901500
18.333333	1	0.904250
18.350000	1	0.907875
18.366667	1	0.912250
18.383333	1	0.916750
18.400000	1	0.922625
18.416667	1	0.929000
18.433333	1	0.936125
18.450000	1	0.945875
18.466667	1	0.956750
18.483333	1	0.970000
18.500000	1	0.984000
18.516667	1	1.000125
18.533333	1	1.017000
18.550000	1	1.035875
18.566667	1	1.056250
18.583333	1	1.078750
18.600000	1	1.103625
18.616667	1	1.129125
18.633333	1	1.156375
18.650000	1	1.184375
18.666667	1	1.214125
18.683333	1	1.244500
18.700000	1	1.275000
18.716667	1	1.306125
18.733333	1	1.338000
18.750000	1	1.369875
18.766667	1	1.401250
18.783333	1	1.431750
18.800000	1	1.460250
18.816667	1	1.487000
18.833333	1	1.511375
18.850000	1	1.531875
18.866667	1	1.549875
18.883333	1	1.563250
18.900000	1	1.571125
18.916667	1	1.574500
18.933333	1	1.572125
18.950000	1	1.565000
18.966667	1	1.551500
18.983333	1	1.532000
19.000000	1	1.506625
19.016667	1	1.476125
19.033333	1	1.441750
19.050000	1	1.403875
19.066667	1	1.362375
19.083333	1	1.319875
19.100000	1	1.275375
19.116667	1	1.231125
19.133333	1	1.187250
19.150000	1	1.145500
19.166667	1	1.105750
19.183333	1	1.068750
19.200000	1	1.035250
19.216667	1	1.006625
19.233333	1	0.982750
19.250000	1	0.964500
19.266667	1	0.951875
19.283333	1	0.943875
19.300000	1	0.941500
19.316667	1	0.945500
19.333333	1	0.954375
19.350000	1	0.968500
19.366667	1	0.988125
19.383333	1	1.011500
19.400000	1	1.037500
19.416667	1	1.065875
19.433333	1	1.097875
19.450000	1	1.129750
19.466667	1	1.162250
19.483333	1	1.192750
19.500000	1	1.223375
19.516667	1	1.251625
19.533333	1	1.276250
19.550000	1	1.296875
19.566667	1	1.313750
19.583333	1	1.325500
19.600000	1	1.332375
19.616667	1	1.334375
19.633333	1	1.330875
19.650000	1	1.322625
19.666667	1	1.310500
19.683333	1	1.293500
19.700000	1	1.272875
19.716667	1	1.249250
19.733333	1	1.222750
19.750000	1	1.194250
19.766667	1	1.163250
19.783333	1	1.130875
19.800000	1	1.097125
19.816667	1	1.063500
19.833333	1	1.029375
19.850000	1	0.996500
19.866667	1	0.964125
19.883333	1	0.932375
19.900000	1	0.902875
19.916667	1	0.875625
19.933333	1	0.850500
19.950000	1	0.828750
19.966667	1	0.809750
19.983333	1	0.793750
20.000000	1	0.781375
20.016667	1	0.772750
20.033333	1	0.768500
20.050000	1	0.768250
20.066667	1	0.772875
20.083333	1	0.780875
20.100000	1	0.794375
20.116667	1	0.811000
20.133333	1	0.831625
20.150000	1	0.855625
20.166667	1	0.882500
20.183333	1	0.911000
20.200000	1	0.940875
20.216667	1	0.970625
20.233333	1	0.998625
20.250000	1	1.024875
20.266667	1	1.048375
20.283333	1	1.067875
20.300000	1	1.082250
20.316667	1	1.092000
20.333333	1	1.096375
20.350000	1	1.094625
20.366667	1	1.086625
20.383333	1	1.073500
20.400000	1	1.055125
20.416667	1	1.033125
20.433333	1	1.007250
20.450000	1	0.980625
20.466667	1	0.952500
20.483333	1	0.924625
20.500000	1	0.898500
20.516667	1	0.875375
20.533333	1	0.855750
20.550000	1	0.840875
20.566667	1	0.831250
20.583333	1	0.828750
20.600000	1	0.833500
20.616667	1	0.846750
20.633333	1	0.867625
20.650000	1	0.897000
20.666667	1	0.935125
20.683333	1	0.980250
20.700000	1	1.033250
20.716667	1	1.092375
20.733333	1	1.158000
20.750000	1	1.227125
20.766667	1	1.298625
20.783333	1	1.370500
20.800000	1	1.440750
20.816667	1	1.506750
20.833333	1	1.567000
20.850000	1	1.618500
20.866667	1	1.660375
20.883333	1	1.690375
20.900000	1	1.708625
20.916667	1	1.714125
20.933333	1	1.706625
20.950000	1	1.686375
20.966667	1	1.654625
20.983333	1	1.611250
21.000000	1	1.559125
21.016667	1	1.499875
21.033333	1	1.434375
21.050000	1	1.365625
21.066667	1	1.294500
21.083333	1	1.223000
21.100000	1	1.153125
21.116667	1	1.085375
21.133333	1	1.020000
21.150000	1	0.959500
21.166667	1	0.903375
21.183333	1	0.851500
21.200000	1	0.804750
21.216667	1	0.762625
21.233333	1	0.725000
21.250000	1	0.691875
21.266667	1	0.662750
21.283333	1	0.637000
21.300000	1	0.615375
21.316667	1	0.596250
21.333333	1	0.580125
21.350000	1	0.566750
21.366667	1	0.555000
21.383333	1	0.545500
21.400000	1	0.537625
21.416667	1	0.531250
21.433333	1	0.526375
21.450000	1	0.522875
21.466667	1	0.520250
21.483333	1	0.517875
21.500000	1	0.517250
21.516667	1	0.517125
21.533333	1	0.518500
21.550000	1	0.521125
21.566667	1	0.524875
21.583333	1	0.529500
21.600000	1	0.535625
21.616667	1	0.543500
21.633333	1	0.553375
21.650000	1	0.564875
21.666667	1	0.576875
21.683333	1	0.591250
21.700000	1	0.607375
21.716667	1	0.625500
21.733333	1	0.644500
21.750000	1	0.665375
21.766667	1	0.687375
21.783333	1	0.710625
21.800000	1	0.733750
21.816667	1	0.757875
21.833333	1	0.781750
21.850000	1	0.805000
21.866667	1	0.827125
21.883333	1	0.847875
21.900000	1	0.867625
21.916667	1	0.885875
21.933333	1	0.900750
21.950000	1	0.913375
21.966667	1	0.923000
21.983333	1	0.929875
22.000000	1	0.933250
22.016667	1	0.933750
22.033333	1	0.931000
22.050000	1	0.926125
22.066667	1	0.918000
22.083333	1	0.907500
22.100000	1	0.894750
22.116667	1	0.881000
22.133333	1	0.865625
22.150000	1	0.849125
22.166667	1	0.831375
22.183333	1	0.812625
22.200000	1	0.793250
22.216667	1	0.773750
22.233333	1	0.754000
22.250000	1	0.734125
22.266667	1	0.713750
22.283333	1	0.693500
22.300000	1	0.673500
22.316667	1	0.654625
22.333333	1	0.635625
22.350000	1	0.616375
22.366667	1	0.599000
22.383333	1	0.581875
22.400000	1	0.565625
22.416667	1	0.550125
22.433333	1	0.535500
22.450000	1	0.521750
22.466667	1	0.509000
22.483333	1	0.497000
22.500000	1	0.486125
22.516667	1	0.476000
22.533333	1	0.466875
22.550000	1	0.457875
22.566667	1	0.450375
22.583333	1	0.443250
22.600000	1	0.436125
22.616667	1	0.429750
22.633333	1	0.423750
22.650000	1	0.418000
22.666667	1	0.412125
22.683333	1	0.406500
22.700000	1	0.400250
22.716667	1	0.394375
22.733333	1	0.389125
22.750000	1	0.383125
22.766667	1	0.377625
22.783333	1	0.371625
22.800000	1	0.364750
22.816667	1	0.358875
22.833333	1	0.353125
22.850000	1	0.347250
22.866667	1	0.342000
22.883333	1	0.336250
22.900000	1	0.331250
22.916667	1	0.326875
22.933333	1	0.322625
22.950000	1	0.318625
22.966667	1	0.315250
22.983333	1	0.311625
23.000000	1	0.310125
23.016667	1	0.307750
23.033333	1	0.305500
23.050000	1	0.304375
23.066667	1	0.303875
23.083333	1	0.303875
23.100000	1	0.305000
23.116667	1	0.306125
23.133333	1	0.308000
23.150000	1	0.310625
23.166667	1	0.314000
23.183333	1	0.318125
23.200000	1	0.323125
23.216667	1	0.329625
23.233333	1	0.336250
23.250000	1	0.344750
23.266667	1	0.354500
23.283333	1	0.366250
23.300000	1	0.380875
23.316667	1	0.398125
23.333333	1	0.418875
23.350000	1	0.443750
23.366667	1	0.473250
23.383333	1	0.508000
23.400000	1	0.549000
23.416667	1	0.597875
23.433333	1	0.655500
23.450000	1	0.722750
23.466667	1	0.801625
23.483333	1	0.892875
23.500000	1	0.998000
23.516667	1	1.117500
23.533333	1	1.253000
23.550000	1	1.405125
23.566667	1	1.573750
23.583333	1	1.759375
23.600000	1	1.962000
23.616667	1	2.179875
23.633333	1	2.411125
23.650000	1	2.654125
23.666667	1	2.906250
23.683333	1	3.163625
23.700000	1	3.423375
23.716667	1	3.680500
23.733333	1	3.930000
23.750000	1	4.167375
23.766667	1	4.388250
23.783333	1	4.586125
23.800000	1	4.758250
23.816667	1	4.900125
23.833333	1	5.008625
23.850000	1	5.081375
23.866667	1	5.118375
23.883333	1	5.118125
23.900000	1	5.080875
23.916667	1	5.009375
23.933333	1	4.904625
23.950000	1	4.770875
23.966667	1	4.610500
23.983333	1	4.428375
24.000000	1	4.228500
24.016667	1	4.015250
24.033333	1	3.793125
24.050000	1	3.566500
24.066667	1	3.338500
24.083333	1	3.112625
24.100000	1	2.891250
24.116667	1	2.677375
24.133333	1	2.471500
24.150000	1	2.276875
24.166667	1	2.094000
24.183333	1	1.922250
24.200000	1	1.764625
24.216667	1	1.618500
24.233333	1	1.484500
24.250000	1	1.362125
24.266667	1	1.251125
24.283333	1	1.150875
24.300000	1	1.061000
24.316667	1	0.980250
24.333333	1	0.907625
24.350000	1	0.844000
24.366667	1	0.788625
24.383333	1	0.738750
24.400000	1	0.695750
24.416667	1	0.658375
24.433333	1	0.626125
24.450000	1	0.598875
24.466667	1	0.575500
24.483333	1	0.556250
24.500000	1	0.540125
24.516667	1	0.526625
24.533333	1	0.515125
24.550000	1	0.506125
24.566667	1	0.498250
24.583333	1	0.491625
24.600000	1	0.486500
24.616667	1	0.482500
24.633333	1	0.478125
24.650000	1	0.474375
24.666667	1	0.470625
24.683333	1	0.467500
24.700000	1	0.464250
24.716667	1	0.460250
24.733333	1	0.456625
24.750000	1	0.452250
24.766667	1	0.446500
24.783333	1	0.442125
24.800000	1	0.437250
24.816667	1	0.432500
24.833333	1	0.427125
24.850000	1	0.421375
24.866667	1	0.415625
24.883333	1	0.410125
24.900000	1	0.405750
24.916667	1	0.399750
24.933333	1	0.394750
24.950000	1	0.389625
24.966667	1	0.384875
24.983333	1	0.379000
25.000000	1	0.374750
25.016667	1	0.370000
25.033333	1	0.365000
25.050000	1	0.360750
25.066667	1	0.357125
25.083333	1	0.353125
25.100000	1	0.349125
25.116667	1	0.345250
25.133333	1	0.341750
25.150000	1	0.338500
25.166667	1	0.334875
25.183333	1	0.331250
25.200000	1	0.327375
25.216667	1	0.324250
25.233333	1	0.321250
25.250000	1	0.318375
25.266667	1	0.316375
25.283333	1	0.313875
25.300000	1	0.312000
25.316667	1	0.310500
25.333333	1	0.308750
25.350000	1	0.307625
25.366667	1	0.306750
25.383333	1	0.306500
25.400000	1	0.306000
25.416667	1	0.306125
25.433333	1	0.306625
25.450000	1	0.307250
25.466667	1	0.308000
25.483333	1	0.309000
25.500000	1	0.310750
25.516667	1	0.312500
25.533333	1	0.313875
25.550000	1	0.315500
25.566667	1	0.317625
25.583333	1	0.319375
25.600000	1	0.320875
25.616667	1	0.321500
25.633333	1	0.323500
25.650000	1	0.324375
25.666667	1	0.326125
25.683333	1	0.326375
25.700000	1	0.327250
25.716667	1	0.327625
25.733333	1	0.327625
25.750000	1	0.327250
25.766667	1	0.327125
25.783333	1	0.326500
25.800000	1	0.326000
25.816667	1	0.325250
25.833333	1	0.324375
25.850000	1	0.323250
25.866667	1	0.322875
25.883333	1	0.322250
25.900000	1	0.322000
25.916667	1	0.322125
25.933333	1	0.322125
25.950000	1	0.322750
25.966667	1	0.322625
25.983333	1	0.323625
26.000000	1	0.324500
26.016667	1	0.326750
26.033333	1	0.328875
26.050000	1	0.331500
26.066667	1	0.335250
26.083333	1	0.338250
26.100000	1	0.341625
26.116667	1	0.345375
26.133333	1	0.349750
26.150000	1	0.354250
26.166667	1	0.358750
26.183333	1	0.363375
26.200000	1	0.368000
26.216667	1	0.373125
26.233333	1	0.377625
26.250000	1	0.382500
26.266667	1	0.386125
26.283333	1	0.389375
26.300000	1	0.392125
26.316667	1	0.394500
26.333333	1	0.396250
26.350000	1	0.397125
26.366667	1	0.397125
26.383333	1	0.396750
26.400000	1	0.396000
26.416667	1	0.393625
26.433333	1	0.390375
26.450000	1	0.386750
26.466667	1	0.382125
26.483333	1	0.376875
26.500000	1	0.371375
26.516667	1	0.364875
26.533333	1	0.358125
26.550000	1	0.351250
26.566667	1	0.343500
26.583333	1	0.335875
26.600000	1	0.327250
26.616667	1	0.319500
26.633333	1	0.311125
26.650000	1	0.303250
26.666667	1	0.295000
26.683333	1	0.287125
26.700000	1	0.279625
26.716667	1	0.271750
26.733333	1	0.264250
26.750000	1	0.258375
26.766667	1	0.251750
26.783333	1	0.245375
26.800000	1	0.239625
26.816667	1	0.235125
26.833333	1	0.230625
26.850000	1	0.226500
26.866667	1	0.223375
26.883333	1	0.221000
26.900000	1	0.218875
26.916667	1	0.217250
26.933333	1	0.215625
26.950000	1	0.215125
26.966667	1	0.215500
26.983333	1	0.215750
27.000000	1	0.217125
27.016667	1	0.219625
27.033333	1	0.222250
27.050000	1	0.225875
27.066667	1	0.230375
27.083333	1	0.235250
27.100000	1	0.240875
27.116667	1	0.247250
27.133333	1	0.254375
27.150000	1	0.262250
27.166667	1	0.271625
27.183333	1	0.282625
27.200000	1	0.294875
27.216667	1	0.308875
27.233333	1	0.324375
27.250000	1	0.342125
27.266667	1	0.362625
27.283333	1	0.385250
27.300000	1	0.411875
27.316667	1	0.442125
27.333333	1	0.476000
27.350000	1	0.515375
27.366667	1	0.559500
27.383333	1	0.608750
27.400000	1	0.664750
27.416667	1	0.727750
27.433333	1	0.797875
27.450000	1	0.876250
27.466667	1	0.963250
27.483333	1	1.059875
27.500000	1	1.166375
27.516667	1	1.281000
27.533333	1	1.405875
27.550000	1	1.540250
27.566667	1	1.684250
27.583333	1	1.836500
27.600000	1	1.996625
27.616667	1	2.163500
27.633333	1	2.336500
27.650000	1	2.513500
27.666667	1	2.693750
27.683333	1	2.874000
27.700000	1	3.053250
27.716667	1	3.227375
27.733333	1	3.396000
27.750000	1	3.555875
27.766667	1	3.704500
27.783333	1	3.839375
27.800000	1	3.958250
27.816667	1	4.058625
27.833333	1	4.140250
27.850000	1	4.201375
27.866667	1	4.240625
27.883333	1	4.256500
27.900000	1	4.248625
27.916667	1	4.217875
27.933333	1	4.163875
27.950000	1	4.088125
27.966667	1	3.992375
27.983333	1	3.878625
28.000000	1	3.748125
28.016667	1	3.603875
28.033333	1	3.447125
28.050000	1	3.281250
28.066667	1	3.108125
28.083333	1	2.932000
28.100000	1	2.753000
28.116667	1	2.574500
28.133333	1	2.399125
28.150000	1	2.228375
28.166667	1	2.062875
28.183333	1	1.905000
28.200000	1	1.755125
28.216667	1	1.614750
28.233333	1	1.483750
28.250000	1	1.361000
28.266667	1	1.248125
28.283333	1	1.144750
28.300000	1	1.050875
28.316667	1	0.965250
28.333333	1	0.889000
28.350000	1	0.820625
28.366667	1	0.759750
28.383333	1	0.706000
28.400000	1	0.659000
28.416667	1	0.618375
28.433333	1	0.583375
28.450000	1	0.552875
28.466667	1	0.527875
28.483333	1	0.507125
28.500000	1	0.490375
28.516667	1	0.476250
28.533333	1	0.466250
28.550000	1	0.459375
28.566667	1	0.454875
28.583333	1	0.453500
28.600000	1	0.453625
28.616667	1	0.455500
28.633333	1	0.459000
28.650000	1	0.464250
28.666667	1	0.470000
28.683333	1	0.477875
28.700000	1	0.485750
28.716667	1	0.494875
28.733333	1	0.503000
28.750000	1	0.511250
28.766667	1	0.520000
28.783333	1	0.528250
28.800000	1	0.536875
28.816667	1	0.544625
28.833333	1	0.551375
28.850000	1	0.557625
28.866667	1	0.563125
28.883333	1	0.568000
28.900000	1	0.571250
28.916667	1	0.573500
28.933333	1	0.574750
28.950000	1	0.574000
28.966667	1	0.572500
28.983333	1	0.569500
29.000000	1	0.563875
29.016667	1	0.557375
29.033333	1	0.549750
29.050000	1	0.540375
29.066667	1	0.528375
29.083333	1	0.515000
29.100000	1	0.499500
29.116667	1	0.482500
29.133333	1	0.463000
29.150000	1	0.441375
29.166667	1	0.419125
29.183333	1	0.393500
29.200000	1	0.366000
29.216667	1	0.335625
29.233333	1	0.303000
29.250000	1	0.269250
29.266667	1	0.232625
29.283333	1	0.193250
29.300000	1	0.151625
29.316667	1	0.108500
29.333333	1	0.063500
29.350000	1	0.016000
29.366667	1	-0.033250
29.383333	1	-0.084000
29.400000	1	-0.136500
29.416667	1	-0.190250
29.433333	1	-0.245125
29.450000	1	-0.300625
29.466667	1	-0.357000
29.483333	1	-0.413000
29.500000	1	-0.469375
29.516667	1	-0.525500
29.533333	1	-0.579500
29.550000	1	-0.632250
29.566667	1	-0.683375
29.583333	1	-0.732500
29.600000	1	-0.778625
29.616667	1	-0.821125
29.633333	1	-0.860750
29.650000	1	-0.895750
29.666667	1	-0.927750
29.683333	1	-0.954750
29.700000	1	-0.977500
29.716667	1	-0.996000
29.733333	1	-1.008875
29.750000	1	-1.017375
29.766667	1	-1.020500
29.783333	1	-1.019625
29.800000	1	-1.012875
29.816667	1	-1.001875
29.833333	1	-0.986750
29.850000	1	-0.967500
29.866667	1	-0.944125
29.883333	1	-0.917625
29.900000	1	-0.888750
29.916667	1	-0.856375
29.933333	1	-0.821500
29.950000	1	-0.784500
29.966667	1	-0.746250
29.983333	1	-0.706625
30.000000	1	-0.665375
30.016667	1	-0.624250
30.033333	1	-0.582125
30.050000	1	-0.539875
30.066667	1	-0.498875
30.083333	1	-0.458625
30.100000	1	-0.419875
30.116667	1	-0.381000
30.133333	1	-0.344125
30.150000	1	-0.308000
30.166667	1	-0.273875
30.183333	1	-0.241500
30.200000	1	-0.211625
30.216667	1	-0.182875
30.233333	1	-0.156125
30.250000	1	-0.131000
30.266667	1	-0.108125
30.283333	1	-0.086750
30.300000	1	-0.067125
30.316667	1	-0.048625
30.333333	1	-0.032500
30.350000	1	-0.017750
30.366667	1	-0.003750
30.383333	1	0.008500
30.400000	1	0.019500
30.416667	1	0.030500
30.433333	1	0.040250
30.450000	1	0.048875
30.466667	1	0.056875
30.483333	1	0.063625
30.500000	1	0.070375
30.516667	1	0.076250
30.533333	1	0.081750
30.550000	1	0.087125
30.566667	1	0.093250
30.583333	1	0.099000
30.600000	1	0.104750
30.616667	1	0.110750
30.633333	1	0.117250
30.650000	1	0.123000
30.666667	1	0.128875
30.683333	1	0.135875
30.700000	1	0.143375
30.716667	1	0.151000
30.733333	1	0.158750
30.750000	1	0.167250
30.766667	1	0.175875
30.783333	1	0.184750
30.800000	1	0.194500
30.816667	1	0.205750
30.833333	1	0.217000
30.850000	1	0.228375
30.866667	1	0.240375
30.883333	1	0.254125
30.900000	1	0.268125
30.916667	1	0.283125
30.933333	1	0.299250
30.950000	1	0.316875
30.966667	1	0.336000
30.983333	1	0.357375
31.000000	1	0.380625
31.016667	1	0.405500
31.033333	1	0.433000
31.050000	1	0.463500
31.066667	1	0.497250
31.083333	1	0.533625
31.100000	1	0.574125
31.116667	1	0.617875
31.133333	1	0.666625
31.150000	1	0.719500
31.166667	1	0.776875
31.183333	1	0.839000
31.200000	1	0.906875
31.216667	1	0.979125
31.233333	1	1.058250
31.250000	1	1.142375
31.266667	1	1.230250
31.283333	1	1.323250
31.300000	1	1.421875
31.316667	1	1.524750
31.333333	1	1.629750
31.350000	1	1.738625
31.366667	1	1.848375
31.383333	1	1.958500
31.400000	1	2.069750
31.416667	1	2.179875
31.433333	1	2.288375
31.450000	1	2.392500
31.466667	1	2.491875
31.483333	1	2.585625
31.500000	1	2.671750
31.516667	1	2.750000
31.533333	1	2.818500
31.550000	1	2.877750
31.566667	1	2.925875
31.583333	1	2.962875
31.600000	1	2.987875
31.616667	1	2.999875
31.633333	1	2.999750
31.650000	1	2.987000
31.666667	1	2.962875
31.683333	1	2.927125
31.700000	1	2.879500
31.716667	1	2.821375
31.733333	1	2.754500
31.750000	1	2.678875
31.766667	1	2.595750
31.783333	1	2.506125
31.800000	1	2.410625
31.816667	1	2.311500
31.833333	1	2.209250
31.850000	1	2.104250
31.866667	1	1.998375
31.883333	1	1.892375
31.900000	1	1.787500
31.916667	1	1.683875
31.933333	1	1.582750
31.950000	1	1.485000
31.966667	1	1.390375
31.983333	1	1.298375
32.000000	1	1.210375
32.016667	1	1.126500
32.033333	1	1.046375
32.050000	1	0.970750
32.066667	1	0.900125
32.083333	1	0.832625
32.100000	1	0.770000
32.116667	1	0.710375
32.133333	1	0.656000
32.150000	1	0.604625
32.166667	1	0.556875
32.183333	1	0.512500
32.200000	1	0.470375
32.216667	1	0.431500
32.233333	1	0.395750
32.250000	1	0.361750
32.266667	1	0.330375
32.283333	1	0.300250
32.300000	1	0.272875
32.316667	1	0.247500
32.333333	1	0.224125
32.350000	1	0.202125
32.366667	1	0.181250
32.383333	1	0.162500
32.400000	1	0.144625
32.416667	1	0.127625
32.433333	1	0.112125
32.450000	1	0.097750
32.466667	1	0.084250
32.483333	1	0.071125
32.500000	1	0.059750
32.516667	1	0.048875
32.533333	1	0.038750
32.550000	1	0.029250
32.566667	1	0.020875
32.583333	1	0.014000
32.600000	1	0.008250
32.616667	1	0.001875
32.633333	1	-0.003750
32.650000	1	-0.009250
32.666667	1	-0.013875
32.683333	1	-0.018125
32.700000	1	-0.021625
32.716667	1	-0.025000
32.733333	1	-0.027375
32.750000	1	-0.029500
32.766667	1	-0.030500
32.783333	1	-0.031625
32.800000	1	-0.032375
32.816667	1	-0.033000
32.833333	1	-0.033500
32.850000	1	-0.033250
32.866667	1	-0.033125
32.883333	1	-0.032500
32.900000	1	-0.032125
32.916667	1	-0.031125
32.933333	1	-0.030000
32.950000	1	-0.028625
32.966667	1	-0.027625
32.983333	1	-0.026125
33.000000	1	-0.024500
33.016667	1	-0.023375
33.033333	1	-0.021500
33.050000	1	-0.019625
33.066667	1	-0.017625
33.083333	1	-0.015750
33.100000	1	-0.014375
33.116667	1	-0.012250
33.133333	1	-0.010125
33.150000	1	-0.008750
33.166667	1	-0.006875
33.183333	1	-0.005625
33.200000	1	-0.004125
33.216667	1	-0.002375
33.233333	1	-0.000500
33.250000	1	0.000750
33.266667	1	0.002250
33.283333	1	0.004125
33.300000	1	0.006500
33.316667	1	0.007875
33.333333	1	0.010500
33.350000	1	0.012375
33.366667	1	0.013375
33.383333	1	0.015000
33.400000	1	0.017125
33.416667	1	0.019000
33.433333	1	0.020375
33.450000	1	0.021500
33.466667	1	0.022875
33.483333	1	0.024375
33.500000	1	0.025500
33.516667	1	0.026500
33.533333	1	0.027875
33.550000	1	0.029500
33.566667	1	0.030375
33.583333	1	0.031750
33.600000	1	0.032750
33.616667	1	0.033875
33.633333	1	0.035125
33.650000	1	0.036750
33.666667	1	0.038250
33.683333	1	0.039500
33.700000	1	0.041375
33.716667	1	0.043375
33.733333	1	0.045125
33.750000	1	0.047000
33.766667	1	0.050375
33.783333	1	0.053125
33.800000	1	0.055625
33.816667	1	0.059125
33.833333	1	0.062250
33.850000	1	0.065375
33.866667	1	0.068250
33.883333	1	0.072125
33.900000	1	0.075250
33.916667	1	0.078000
33.933333	1	0.081250
33.950000	1	0.084625
33.966667	1	0.088125
33.983333	1	0.090500
34.000000	1	0.093250
34.016667	1	0.095500
34.033333	1	0.097500
34.050000	1	0.099375
34.066667	1	0.100875
34.083333	1	0.101625
34.100000	1	0.101875
34.116667	1	0.102250
34.133333	1	0.103250
34.150000	1	0.103625
34.166667	1	0.103625
34.183333	1	0.103875
34.200000	1	0.103500
34.216667	1	0.102750
34.233333	1	0.101875
34.250000	1	0.100750
34.266667	1	0.099000
34.283333	1	0.097500
34.300000	1	0.096000
34.316667	1	0.094875
34.333333	1	0.093625
34.350000	1	0.093250
34.366667	1	0.091750
34.383333	1	0.090125
34.400000	1	0.089625
34.416667	1	0.089000
34.433333	1	0.088500
34.450000	1	0.087500
34.466667	1	0.087375
34.483333	1	0.087000
34.500000	1	0.087375
34.516667	1	0.087750
34.533333	1	0.088375
34.550000	1	0.088500
34.566667	1	0.089125
34.583333	1	0.089375
34.600000	1	0.090500
34.616667	1	0.090375
34.633333	1	0.092000
34.650000	1	0.093000
34.666667	1	0.094375
34.683333	1	0.094875
34.700000	1	0.096375
34.716667	1	0.098250
34.733333	1	0.099500
34.750000	1	0.101375
34.766667	1	0.102625
34.783333	1	0.104125
34.800000	1	0.106125
34.816667	1	0.108625
34.833333	1	0.110500
34.850000	1	0.111375
34.866667	1	0.114000
34.883333	1	0.115750
34.900000	1	0.117625
34.916667	1	0.119375
34.933333	1	0.120375
34.950000	1	0.121625
34.966667	1	0.123125
34.983333	1	0.124625
35.000000	1	0.125750
35.016667	1	0.125875
35.033333	1	0.126125
35.050000	1	0.126125
35.066667	1	0.126375
35.083333	1	0.126625
35.100000	1	0.125875
35.116667	1	0.125500
35.133333	1	0.124875
35.150000	1	0.123750
35.166667	1	0.122125
35.183333	1	0.120500
35.200000	1	0.119000
35.216667	1	0.117375
35.233333	1	0.115000
35.250000	1	0.113000
35.266667	1	0.110375
35.283333	1	0.108500
35.300000	1	0.106375
35.316667	1	0.104000
35.333333	1	0.101875
35.350000	1	0.099500
35.366667	1	0.097375
35.383333	1	0.095250
35.400000	1	0.093125
35.416667	1	0.090625
35.433333	1	0.088875
35.450000	1	0.086125
35.466667	1	0.084125
35.483333	1	0.081500
35.500000	1	0.080000
35.516667	1	0.078625
35.533333	1	0.077125
35.550000	1	0.074875
35.566667	1	0.073250
35.583333	1	0.071500
35.600000	1	0.070000
35.616667	1	0.067500
35.633333	1	0.065875
35.650000	1	0.064625
35.666667	1	0.063500
35.683333	1	0.062375
35.700000	1	0.061250
35.716667	1	0.060750
35.733333	1	0.059750
35.750000	1	0.059625
35.766667	1	0.058500
35.783333	1	0.057875
35.800000	1	0.057250
35.816667	1	0.056250
35.833333	1	0.055625
35.850000	1	0.054625
35.866667	1	0.054125
35.883333	1	0.053875
35.900000	1	0.054125
35.916667	1	0.054000
35.933333	1	0.053375
35.950000	1	0.053000
35.966667	1	0.053000
35.983333	1	0.052500
36.000000	1	0.052500
36.016667	1	0.052875
36.033333	1	0.052750
36.050000	1	0.052000
36.066667	1	0.052250
36.083333	1	0.051625
36.100000	1	0.051875
36.116667	1	0.052000
36.133333	1	0.052250
36.150000	1	0.051625
36.166667	1	0.051750
36.183333	1	0.053000
36.200000	1	0.053375
36.216667	1	0.053750
36.233333	1	0.054250
36.250000	1	0.054875
36.266667	1	0.055625
36.283333	1	0.056750
36.300000	1	0.058125
36.316667	1	0.059500
36.333333	1	0.060750
36.350000	1	0.062125
36.366667	1	0.064375
36.383333	1	0.066125
36.400000	1	0.067875
36.416667	1	0.069625
36.433333	1	0.071750
36.450000	1	0.073125
36.466667	1	0.074875
36.483333	1	0.076375
36.500000	1	0.077625
36.516667	1	0.079375
36.533333	1	0.081250
36.550000	1	0.082375
36.566667	1	0.083875
36.583333	1	0.085500
36.600000	1	0.086375
36.616667	1	0.087250
36.633333	1	0.088000
36.650000	1	0.088875
36.666667	1	0.089500
36.683333	1	0.089125
36.700000	1	0.089125
36.716667	1	0.089250
36.733333	1	0.089375
36.750000	1	0.089250
36.766667	1	0.089000
36.783333	1	0.088000
36.800000	1	0.087875
36.816667	1	0.087125
36.833333	1	0.086625
36.850000	1	0.085500
36.866667	1	0.084375
36.883333	1	0.083000
36.900000	1	0.081875
36.916667	1	0.079875
36.933333	1	0.078375
36.950000	1	0.076750
36.966667	1	0.075500
36.983333	1	0.073750
37.000000	1	0.072000
37.016667	1	0.070500
37.033333	1	0.068625
37.050000	1	0.066625
37.066667	1	0.065500
37.083333	1	0.064250
37.100000	1	0.062500
37.116667	1	0.060875
37.133333	1	0.059875
37.150000	1	0.059000
37.166667	1	0.058000
37.183333	1	0.057375
37.200000	1	0.056250
37.216667	1	0.055625
37.233333	1	0.055250
37.250000	1	0.054750
37.266667	1	0.054375
37.283333	1	0.054750
37.300000	1	0.055125
37.316667	1	0.055750
37.333333	1	0.056375
37.350000	1	0.057500
37.366667	1	0.057875
37.383333	1	0.058375
37.400000	1	0.059000
37.416667	1	0.060250
37.433333	1	0.061875
37.450000	1	0.063375
37.466667	1	0.064875
37.483333	1	0.065375
37.500000	1	0.066500
37.516667	1	0.067375
37.533333	1	0.068500
37.550000	1	0.069250
37.566667	1	0.069375
37.583333	1	0.069375
37.600000	1	0.069500
37.616667	1	0.069750
37.633333	1	0.069625
37.650000	1	0.069000
37.666667	1	0.068125
37.683333	1	0.067250
37.700000	1	0.066125
37.716667	1	0.065250
37.733333	1	0.063625
37.750000	1	0.062500
37.766667	1	0.061000
37.783333	1	0.059000
37.800000	1	0.057125
37.816667	1	0.054625
37.833333	1	0.052250
37.850000	1	0.049875
37.866667	1	0.047375
37.883333	1	0.045000
37.900000	1	0.042875
37.916667	1	0.041125
37.933333	1	0.038750
37.950000	1	0.036625
37.966667	1	0.034875
37.983333	1	0.033500
38.000000	1	0.032000
38.016667	1	0.030625
38.033333	1	0.029250
38.050000	1	0.028625
38.066667	1	0.029000
38.083333	1	0.028375
38.100000	1	0.029125
38.116667	1	0.029000
38.133333	1	0.028875
38.150000	1	0.029500
38.166667	1	0.030500
38.183333	1	0.031250
38.200000	1	0.032750
38.216667	1	0.034500
38.233333	1	0.035625
38.250000	1	0.037250
38.266667	1	0.039000
38.283333	1	0.040750
38.300000	1	0.042500
38.316667	1	0.044500
38.333333	1	0.045750
38.350000	1	0.047375
38.366667	1	0.048875
38.383333	1	0.050125
38.400000	1	0.051750
38.416667	1	0.053000
38.433333	1	0.054500
38.450000	1	0.055250
38.466667	1	0.056125
38.483333	1	0.056750
38.500000	1	0.057500
38.516667	1	0.058875
38.533333	1	0.059000
38.550000	1	0.059500
38.566667	1	0.060000
38.583333	1	0.060500
38.600000	1	0.060375
38.616667	1	0.061250
38.633333	1	0.060625
38.650000	1	0.061375
38.666667	1	0.061750
38.683333	1	0.061875
38.700000	1	0.062125
38.716667	1	0.061875
38.733333	1	0.061625
38.750000	1	0.061750
38.766667	1	0.062125
38.783333	1	0.062000
38.800000	1	0.061750
38.816667	1	0.061750
38.833333	1	0.062375
38.850000	1	0.062375
38.866667	1	0.062250
38.883333	1	0.062375
38.900000	1	0.062000
38.916667	1	0.062000
38.933333	1	0.062125
38.950000	1	0.060875
38.966667	1	0.060125
38.983333	1	0.059625
39.000000	1	0.058000
39.016667	1	0.055875
39.033333	1	0.053625
39.050000	1	0.052375
39.066667	1	0.050750
39.083333	1	0.048375
39.100000	1	0.046375
39.116667	1	0.043750
39.133333	1	0.041250
39.150000	1	0.039125
39.166667	1	0.036625
39.183333	1	0.033750
39.200000	1	0.031375
39.216667	1	0.028750
39.233333	1	0.025375
39.250000	1	0.022875
39.266667	1	0.020500
39.283333	1	0.018375
39.300000	1	0.015125
39.316667	1	0.012875
39.333333	1	0.010750
39.350000	1	0.008500
39.366667	1	0.005750
39.383333	1	0.003500
39.400000	1	0.001375
39.416667	1	-0.000250
39.433333	1	-0.001875
39.450000	1	-0.002750
39.466667	1	-0.003875
39.483333	1	-0.004625
39.500000	1	-0.005750
39.516667	1	-0.005625
39.533333	1	-0.005625
39.550000	1	-0.006125
39.566667	1	-0.006375
39.583333	1	-0.006625
39.600000	1	-0.006125
39.616667	1	-0.006625
39.633333	1	-0.006000
39.650000	1	-0.005875
39.666667	1	-0.004375
39.683333	1	-0.003875
39.700000	1	-0.002625
39.716667	1	-0.002375
39.733333	1	-0.002000
39.750000	1	-0.001750
39.766667	1	-0.001125
39.783333	1	-0.000500
39.800000	1	0.000000
39.816667	1	0.000125
39.833333	1	0.000375
39.850000	1	0.001125
39.866667	1	0.001750
39.883333	1	0.002375
39.900000	1	0.003000
39.916667	1	0.003375
39.933333	1	0.003500
39.950000	1	0.004125
39.966667	1	0.004125
39.983333	1	0.003875
40.000000	1	0.003750
