URL	chrom://bioreactor/micro_cm7/HPLC_Ultimate_3000/Users/markusar/20240517_CMO_FP23_FP25_MarkusDeplate.seq/481.smp/RI_1.channel/RI_1.chm
Channel	RI_1

Injection Information:
Data Vault	micro_cm7
Sequence	20240517_CMO_FP23_FP25_MarkusDeplate
Name	FP28_22.4_s5
Number	160
Position	BC2
Comment	
Processing Method	
Instrument Method	run_25B_method
Type	Unknown
Status	Finished
Inject Time	01.06.2024 08:23:03 +02:00
Volume (µl)	20.0000
Dilution Factor	1.0000
Weight	1.0000

Chromatogram Data Information:
Time Min. (min)	0.000000
Time Max. (min)	40.000000
Data Points	2401
Detector	RI
Generating Data System	Chromeleon 7.3.2.11814
Exporting Data System	Chromeleon 7.3.2.0
Operator	Instrument Controller
Signal Quantity	Refractive 
Signal Unit	µRIU
Signal Min.	-0.822000
Signal Max.	50.110875
Channel	RI_1
Driver Name	RID520Driver.dll
Channel Type	Evaluation
Min. Step (s)	1
Max. Step (s)	1
Average Step (s)	1

Signal Parameter Information:
Signal Info	

Chromatogram Data:
Time (min)	Step (s)	Value (µRIU)
0.000000	n.a.	0.009500
0.016667	1	0.008750
0.033333	1	0.008625
0.050000	1	0.008375
0.066667	1	0.008375
0.083333	1	0.008375
0.100000	1	0.007625
0.116667	1	0.007125
0.133333	1	0.006875
0.150000	1	0.006875
0.166667	1	0.006625
0.183333	1	0.006375
0.200000	1	0.005875
0.216667	1	0.005875
0.233333	1	0.005500
0.250000	1	0.006125
0.266667	1	0.006000
0.283333	1	0.006750
0.300000	1	0.006500
0.316667	1	0.006375
0.333333	1	0.006375
0.350000	1	0.006625
0.366667	1	0.006625
0.383333	1	0.006750
0.400000	1	0.006500
0.416667	1	0.006625
0.433333	1	0.006250
0.450000	1	0.006500
0.466667	1	0.006875
0.483333	1	0.006000
0.500000	1	0.006125
0.516667	1	0.005375
0.533333	1	0.004375
0.550000	1	0.003875
0.566667	1	0.003875
0.583333	1	0.003125
0.600000	1	0.002625
0.616667	1	0.001875
0.633333	1	0.001250
0.650000	1	0.000875
0.666667	1	0.000500
0.683333	1	0.000375
0.700000	1	0.000000
0.716667	1	-0.000875
0.733333	1	-0.001500
0.750000	1	-0.001625
0.766667	1	-0.001625
0.783333	1	-0.002500
0.800000	1	-0.002750
0.816667	1	-0.002875
0.833333	1	-0.003125
0.850000	1	-0.003375
0.866667	1	-0.003625
0.883333	1	-0.003250
0.900000	1	-0.003125
0.916667	1	-0.003250
0.933333	1	-0.003625
0.950000	1	-0.002875
0.966667	1	-0.002875
0.983333	1	-0.002500
1.000000	1	-0.002750
1.016667	1	-0.002000
1.033333	1	-0.001500
1.050000	1	-0.001750
1.066667	1	-0.001750
1.083333	1	-0.001375
1.100000	1	-0.001000
1.116667	1	-0.000625
1.133333	1	-0.000500
1.150000	1	-0.000250
1.166667	1	0.000250
1.183333	1	0.000000
1.200000	1	0.000375
1.216667	1	0.000000
1.233333	1	0.000125
1.250000	1	0.000375
1.266667	1	0.000375
1.283333	1	0.000250
1.300000	1	0.000500
1.316667	1	-0.000375
1.333333	1	-0.000375
1.350000	1	-0.001375
1.366667	1	-0.001125
1.383333	1	-0.002375
1.400000	1	-0.002625
1.416667	1	-0.002875
1.433333	1	-0.003250
1.450000	1	-0.003875
1.466667	1	-0.005125
1.483333	1	-0.005500
1.500000	1	-0.006250
1.516667	1	-0.006875
1.533333	1	-0.007625
1.550000	1	-0.007875
1.566667	1	-0.008250
1.583333	1	-0.008375
1.600000	1	-0.008500
1.616667	1	-0.008375
1.633333	1	-0.008375
1.650000	1	-0.007625
1.666667	1	-0.006875
1.683333	1	-0.005750
1.700000	1	-0.005625
1.716667	1	-0.004500
1.733333	1	-0.004250
1.750000	1	-0.004125
1.766667	1	-0.003000
1.783333	1	-0.002250
1.800000	1	-0.001500
1.816667	1	-0.000750
1.833333	1	-0.000375
1.850000	1	0.000000
1.866667	1	0.000375
1.883333	1	0.001000
1.900000	1	0.002125
1.916667	1	0.002250
1.933333	1	0.003125
1.950000	1	0.003625
1.966667	1	0.004125
1.983333	1	0.004500
2.000000	1	0.005250
2.016667	1	0.005875
2.033333	1	0.007125
2.050000	1	0.008250
2.066667	1	0.009625
2.083333	1	0.010875
2.100000	1	0.012375
2.116667	1	0.013750
2.133333	1	0.015250
2.150000	1	0.016500
2.166667	1	0.018125
2.183333	1	0.019750
2.200000	1	0.021750
2.216667	1	0.023000
2.233333	1	0.024875
2.250000	1	0.027000
2.266667	1	0.028875
2.283333	1	0.030750
2.300000	1	0.032500
2.316667	1	0.034125
2.333333	1	0.035625
2.350000	1	0.037250
2.366667	1	0.038875
2.383333	1	0.040875
2.400000	1	0.042375
2.416667	1	0.044250
2.433333	1	0.045125
2.450000	1	0.046375
2.466667	1	0.048250
2.483333	1	0.049375
2.500000	1	0.050375
2.516667	1	0.051500
2.533333	1	0.052125
2.550000	1	0.053000
2.566667	1	0.052875
2.583333	1	0.053125
2.600000	1	0.053625
2.616667	1	0.054250
2.633333	1	0.055625
2.650000	1	0.055750
2.666667	1	0.055750
2.683333	1	0.055250
2.700000	1	0.055875
2.716667	1	0.056250
2.733333	1	0.056500
2.750000	1	0.056375
2.766667	1	0.056250
2.783333	1	0.056375
2.800000	1	0.056000
2.816667	1	0.055875
2.833333	1	0.055500
2.850000	1	0.055000
2.866667	1	0.054375
2.883333	1	0.054000
2.900000	1	0.053250
2.916667	1	0.052250
2.933333	1	0.051250
2.950000	1	0.050625
2.966667	1	0.049125
2.983333	1	0.048750
3.000000	1	0.048000
3.016667	1	0.047625
3.033333	1	0.046625
3.050000	1	0.046000
3.066667	1	0.045000
3.083333	1	0.043875
3.100000	1	0.043750
3.116667	1	0.043250
3.133333	1	0.042250
3.150000	1	0.041375
3.166667	1	0.040875
3.183333	1	0.040750
3.200000	1	0.039625
3.216667	1	0.039625
3.233333	1	0.039250
3.250000	1	0.039875
3.266667	1	0.040500
3.283333	1	0.041375
3.300000	1	0.042250
3.316667	1	0.042750
3.333333	1	0.043875
3.350000	1	0.045250
3.366667	1	0.046875
3.383333	1	0.048375
3.400000	1	0.050125
3.416667	1	0.052625
3.433333	1	0.055375
3.450000	1	0.057375
3.466667	1	0.059750
3.483333	1	0.062625
3.500000	1	0.065125
3.516667	1	0.067625
3.533333	1	0.070250
3.550000	1	0.073125
3.566667	1	0.075750
3.583333	1	0.078125
3.600000	1	0.080875
3.616667	1	0.083000
3.633333	1	0.085000
3.650000	1	0.086875
3.666667	1	0.088625
3.683333	1	0.089750
3.700000	1	0.090750
3.716667	1	0.091125
3.733333	1	0.091500
3.750000	1	0.091875
3.766667	1	0.091375
3.783333	1	0.092125
3.800000	1	0.092125
3.816667	1	0.091875
3.833333	1	0.090375
3.850000	1	0.089000
3.866667	1	0.087250
3.883333	1	0.085500
3.900000	1	0.083500
3.916667	1	0.081250
3.933333	1	0.078125
3.950000	1	0.075250
3.966667	1	0.072375
3.983333	1	0.069000
4.000000	1	0.066375
4.016667	1	0.063000
4.033333	1	0.060625
4.050000	1	0.057750
4.066667	1	0.055000
4.083333	1	0.052125
4.100000	1	0.049375
4.116667	1	0.046250
4.133333	1	0.042750
4.150000	1	0.039875
4.166667	1	0.037500
4.183333	1	0.035125
4.200000	1	0.033500
4.216667	1	0.032750
4.233333	1	0.031500
4.250000	1	0.029875
4.266667	1	0.029000
4.283333	1	0.028000
4.300000	1	0.027500
4.316667	1	0.026875
4.333333	1	0.026625
4.350000	1	0.027125
4.366667	1	0.027375
4.383333	1	0.027875
4.400000	1	0.029250
4.416667	1	0.030750
4.433333	1	0.031750
4.450000	1	0.034250
4.466667	1	0.035375
4.483333	1	0.037875
4.500000	1	0.039375
4.516667	1	0.040875
4.533333	1	0.042750
4.550000	1	0.045000
4.566667	1	0.047375
4.583333	1	0.049750
4.600000	1	0.052000
4.616667	1	0.054750
4.633333	1	0.056375
4.650000	1	0.058375
4.666667	1	0.061125
4.683333	1	0.063000
4.700000	1	0.065125
4.716667	1	0.067625
4.733333	1	0.069625
4.750000	1	0.072625
4.766667	1	0.075500
4.783333	1	0.077625
4.800000	1	0.081125
4.816667	1	0.083875
4.833333	1	0.086750
4.850000	1	0.089625
4.866667	1	0.092375
4.883333	1	0.095125
4.900000	1	0.098000
4.916667	1	0.101750
4.933333	1	0.105000
4.950000	1	0.108750
4.966667	1	0.113125
4.983333	1	0.117625
5.000000	1	0.123000
5.016667	1	0.129250
5.033333	1	0.134250
5.050000	1	0.138375
5.066667	1	0.143250
5.083333	1	0.148625
5.100000	1	0.154250
5.116667	1	0.160750
5.133333	1	0.167125
5.150000	1	0.173250
5.166667	1	0.179625
5.183333	1	0.185875
5.200000	1	0.192750
5.216667	1	0.199750
5.233333	1	0.206875
5.250000	1	0.213250
5.266667	1	0.219625
5.283333	1	0.226000
5.300000	1	0.232375
5.316667	1	0.239000
5.333333	1	0.245250
5.350000	1	0.251250
5.366667	1	0.255875
5.383333	1	0.261250
5.400000	1	0.266375
5.416667	1	0.271500
5.433333	1	0.276250
5.450000	1	0.280000
5.466667	1	0.283500
5.483333	1	0.286750
5.500000	1	0.290125
5.516667	1	0.292625
5.533333	1	0.295500
5.550000	1	0.297250
5.566667	1	0.299250
5.583333	1	0.300500
5.600000	1	0.302000
5.616667	1	0.302750
5.633333	1	0.303375
5.650000	1	0.304000
5.666667	1	0.304375
5.683333	1	0.304500
5.700000	1	0.303750
5.716667	1	0.303500
5.733333	1	0.303250
5.750000	1	0.303000
5.766667	1	0.302375
5.783333	1	0.301125
5.800000	1	0.300500
5.816667	1	0.299375
5.833333	1	0.298125
5.850000	1	0.297000
5.866667	1	0.295375
5.883333	1	0.293875
5.900000	1	0.291875
5.916667	1	0.290250
5.933333	1	0.289250
5.950000	1	0.287375
5.966667	1	0.285625
5.983333	1	0.284125
6.000000	1	0.282375
6.016667	1	0.280625
6.033333	1	0.278500
6.050000	1	0.276625
6.066667	1	0.274500
6.083333	1	0.273000
6.100000	1	0.270625
6.116667	1	0.268000
6.133333	1	0.266000
6.150000	1	0.263250
6.166667	1	0.260500
6.183333	1	0.258250
6.200000	1	0.255375
6.216667	1	0.252875
6.233333	1	0.250750
6.250000	1	0.247875
6.266667	1	0.245500
6.283333	1	0.242250
6.300000	1	0.239125
6.316667	1	0.235875
6.333333	1	0.233000
6.350000	1	0.229875
6.366667	1	0.226625
6.383333	1	0.223250
6.400000	1	0.219625
6.416667	1	0.215750
6.433333	1	0.211375
6.450000	1	0.207000
6.466667	1	0.203250
6.483333	1	0.199375
6.500000	1	0.194500
6.516667	1	0.189875
6.533333	1	0.184875
6.550000	1	0.181000
6.566667	1	0.175875
6.583333	1	0.171875
6.600000	1	0.167500
6.616667	1	0.163250
6.633333	1	0.159250
6.650000	1	0.154875
6.666667	1	0.150625
6.683333	1	0.146000
6.700000	1	0.141750
6.716667	1	0.137625
6.733333	1	0.133750
6.750000	1	0.130375
6.766667	1	0.128000
6.783333	1	0.125000
6.800000	1	0.123000
6.816667	1	0.120875
6.833333	1	0.118750
6.850000	1	0.117375
6.866667	1	0.116375
6.883333	1	0.115750
6.900000	1	0.115625
6.916667	1	0.115500
6.933333	1	0.116375
6.950000	1	0.116750
6.966667	1	0.117625
6.983333	1	0.119625
7.000000	1	0.120625
7.016667	1	0.122250
7.033333	1	0.124250
7.050000	1	0.128000
7.066667	1	0.131000
7.083333	1	0.134250
7.100000	1	0.137125
7.116667	1	0.139875
7.133333	1	0.143875
7.150000	1	0.147750
7.166667	1	0.151375
7.183333	1	0.155375
7.200000	1	0.159375
7.216667	1	0.163375
7.233333	1	0.166875
7.250000	1	0.171000
7.266667	1	0.174375
7.283333	1	0.178250
7.300000	1	0.181375
7.316667	1	0.185500
7.333333	1	0.188625
7.350000	1	0.192250
7.366667	1	0.194750
7.383333	1	0.198000
7.400000	1	0.201125
7.416667	1	0.203875
7.433333	1	0.206125
7.450000	1	0.208875
7.466667	1	0.210500
7.483333	1	0.212125
7.500000	1	0.213625
7.516667	1	0.214625
7.533333	1	0.215750
7.550000	1	0.216000
7.566667	1	0.215875
7.583333	1	0.215875
7.600000	1	0.216375
7.616667	1	0.215875
7.633333	1	0.215375
7.650000	1	0.214125
7.666667	1	0.213125
7.683333	1	0.211125
7.700000	1	0.209750
7.716667	1	0.207375
7.733333	1	0.205000
7.750000	1	0.203250
7.766667	1	0.200375
7.783333	1	0.197875
7.800000	1	0.195125
7.816667	1	0.191750
7.833333	1	0.188500
7.850000	1	0.184625
7.866667	1	0.180625
7.883333	1	0.177625
7.900000	1	0.174000
7.916667	1	0.170500
7.933333	1	0.167375
7.950000	1	0.163625
7.966667	1	0.160500
7.983333	1	0.157250
8.000000	1	0.153750
8.016667	1	0.149875
8.033333	1	0.146125
8.050000	1	0.142875
8.066667	1	0.139625
8.083333	1	0.136000
8.100000	1	0.132500
8.116667	1	0.129000
8.133333	1	0.126375
8.150000	1	0.123250
8.166667	1	0.119250
8.183333	1	0.115875
8.200000	1	0.113250
8.216667	1	0.110125
8.233333	1	0.107375
8.250000	1	0.104875
8.266667	1	0.102750
8.283333	1	0.100250
8.300000	1	0.097625
8.316667	1	0.095125
8.333333	1	0.093250
8.350000	1	0.091500
8.366667	1	0.089250
8.383333	1	0.087000
8.400000	1	0.085500
8.416667	1	0.083750
8.433333	1	0.082625
8.450000	1	0.080875
8.466667	1	0.079125
8.483333	1	0.077625
8.500000	1	0.076875
8.516667	1	0.075875
8.533333	1	0.074750
8.550000	1	0.073875
8.566667	1	0.073875
8.583333	1	0.073250
8.600000	1	0.072375
8.616667	1	0.072125
8.633333	1	0.071500
8.650000	1	0.070750
8.666667	1	0.070375
8.683333	1	0.069625
8.700000	1	0.069000
8.716667	1	0.068625
8.733333	1	0.068750
8.750000	1	0.068750
8.766667	1	0.069250
8.783333	1	0.069875
8.800000	1	0.070000
8.816667	1	0.069875
8.833333	1	0.070250
8.850000	1	0.070750
8.866667	1	0.071625
8.883333	1	0.073000
8.900000	1	0.074125
8.916667	1	0.075625
8.933333	1	0.076125
8.950000	1	0.077875
8.966667	1	0.079500
8.983333	1	0.081250
9.000000	1	0.083125
9.016667	1	0.084500
9.033333	1	0.086750
9.050000	1	0.089000
9.066667	1	0.091375
9.083333	1	0.093250
9.100000	1	0.095375
9.116667	1	0.097500
9.133333	1	0.100500
9.150000	1	0.102375
9.166667	1	0.104250
9.183333	1	0.106375
9.200000	1	0.108375
9.216667	1	0.110375
9.233333	1	0.111750
9.250000	1	0.112875
9.266667	1	0.114125
9.283333	1	0.115375
9.300000	1	0.116625
9.316667	1	0.118000
9.333333	1	0.118500
9.350000	1	0.119250
9.366667	1	0.118625
9.383333	1	0.118750
9.400000	1	0.118500
9.416667	1	0.118000
9.433333	1	0.117375
9.450000	1	0.116875
9.466667	1	0.116125
9.483333	1	0.115250
9.500000	1	0.113375
9.516667	1	0.112375
9.533333	1	0.110625
9.550000	1	0.109375
9.566667	1	0.107500
9.583333	1	0.105250
9.600000	1	0.103375
9.616667	1	0.100875
9.633333	1	0.099250
9.650000	1	0.097625
9.666667	1	0.095625
9.683333	1	0.093500
9.700000	1	0.091375
9.716667	1	0.088625
9.733333	1	0.087375
9.750000	1	0.085750
9.766667	1	0.083500
9.783333	1	0.081125
9.800000	1	0.078250
9.816667	1	0.076375
9.833333	1	0.074750
9.850000	1	0.072625
9.866667	1	0.071750
9.883333	1	0.069875
9.900000	1	0.069000
9.916667	1	0.067500
9.933333	1	0.066500
9.950000	1	0.066375
9.966667	1	0.067125
9.983333	1	0.067500
10.000000	1	0.069000
10.016667	1	0.070500
10.033333	1	0.073625
10.050000	1	0.077375
10.066667	1	0.081750
10.083333	1	0.086750
10.100000	1	0.093000
10.116667	1	0.100250
10.133333	1	0.107750
10.150000	1	0.116375
10.166667	1	0.125125
10.183333	1	0.135875
10.200000	1	0.147500
10.216667	1	0.161250
10.233333	1	0.175625
10.250000	1	0.192000
10.266667	1	0.211000
10.283333	1	0.232750
10.300000	1	0.256875
10.316667	1	0.282375
10.333333	1	0.309875
10.350000	1	0.337125
10.366667	1	0.364000
10.383333	1	0.387875
10.400000	1	0.406375
10.416667	1	0.420125
10.433333	1	0.430625
10.450000	1	0.442250
10.466667	1	0.463375
10.483333	1	0.510375
10.500000	1	0.605000
10.516667	1	0.780625
10.533333	1	1.079500
10.550000	1	1.554500
10.566667	1	2.262500
10.583333	1	3.263750
10.600000	1	4.612875
10.616667	1	6.354875
10.633333	1	8.518875
10.650000	1	11.116625
10.666667	1	14.147625
10.683333	1	17.591875
10.700000	1	21.413250
10.716667	1	25.546625
10.733333	1	29.901500
10.750000	1	34.349250
10.766667	1	38.713875
10.783333	1	42.766250
10.800000	1	46.224000
10.816667	1	48.772625
10.833333	1	50.110875
10.850000	1	50.024875
10.866667	1	48.451000
10.883333	1	45.514375
10.900000	1	41.516875
10.916667	1	36.873500
10.933333	1	32.007250
10.950000	1	27.277625
10.966667	1	22.929625
10.983333	1	19.091750
11.000000	1	15.807875
11.016667	1	13.064875
11.033333	1	10.816750
11.050000	1	9.002625
11.066667	1	7.553625
11.083333	1	6.404750
11.100000	1	5.498000
11.116667	1	4.781250
11.133333	1	4.212875
11.150000	1	3.757750
11.166667	1	3.389750
11.183333	1	3.087250
11.200000	1	2.837875
11.216667	1	2.628125
11.233333	1	2.450500
11.250000	1	2.298000
11.266667	1	2.165875
11.283333	1	2.050125
11.300000	1	1.948000
11.316667	1	1.857750
11.333333	1	1.778125
11.350000	1	1.707500
11.366667	1	1.644125
11.383333	1	1.587875
11.400000	1	1.537875
11.416667	1	1.493875
11.433333	1	1.454250
11.450000	1	1.418875
11.466667	1	1.387000
11.483333	1	1.358625
11.500000	1	1.334125
11.516667	1	1.312000
11.533333	1	1.292125
11.550000	1	1.274500
11.566667	1	1.258750
11.583333	1	1.245000
11.600000	1	1.233500
11.616667	1	1.223625
11.633333	1	1.214500
11.650000	1	1.207500
11.666667	1	1.202500
11.683333	1	1.198500
11.700000	1	1.195500
11.716667	1	1.194875
11.733333	1	1.194625
11.750000	1	1.196000
11.766667	1	1.198875
11.783333	1	1.201750
11.800000	1	1.206625
11.816667	1	1.211875
11.833333	1	1.217000
11.850000	1	1.221625
11.866667	1	1.227625
11.883333	1	1.232750
11.900000	1	1.238000
11.916667	1	1.242625
11.933333	1	1.246500
11.950000	1	1.250000
11.966667	1	1.253625
11.983333	1	1.257250
12.000000	1	1.261375
12.016667	1	1.264875
12.033333	1	1.268750
12.050000	1	1.273250
12.066667	1	1.277125
12.083333	1	1.281375
12.100000	1	1.286000
12.116667	1	1.290875
12.133333	1	1.296500
12.150000	1	1.302500
12.166667	1	1.308000
12.183333	1	1.315750
12.200000	1	1.324125
12.216667	1	1.334250
12.233333	1	1.345125
12.250000	1	1.359375
12.266667	1	1.376000
12.283333	1	1.396375
12.300000	1	1.421375
12.316667	1	1.452125
12.333333	1	1.489125
12.350000	1	1.533500
12.366667	1	1.588750
12.383333	1	1.656750
12.400000	1	1.740000
12.416667	1	1.842000
12.433333	1	1.967625
12.450000	1	2.120375
12.466667	1	2.305500
12.483333	1	2.526625
12.500000	1	2.787625
12.516667	1	3.088125
12.533333	1	3.428500
12.550000	1	3.803375
12.566667	1	4.205750
12.583333	1	4.624125
12.600000	1	5.044500
12.616667	1	5.450375
12.633333	1	5.826000
12.650000	1	6.154250
12.666667	1	6.421500
12.683333	1	6.616625
12.700000	1	6.732500
12.716667	1	6.768750
12.733333	1	6.728500
12.750000	1	6.618000
12.766667	1	6.448375
12.783333	1	6.230375
12.800000	1	5.976500
12.816667	1	5.700125
12.833333	1	5.412000
12.850000	1	5.120875
12.866667	1	4.834375
12.883333	1	4.560125
12.900000	1	4.301625
12.916667	1	4.062000
12.933333	1	3.843250
12.950000	1	3.645250
12.966667	1	3.468875
12.983333	1	3.312125
13.000000	1	3.174125
13.016667	1	3.052500
13.033333	1	2.945000
13.050000	1	2.850000
13.066667	1	2.766500
13.083333	1	2.692125
13.100000	1	2.625375
13.116667	1	2.564875
13.133333	1	2.510375
13.150000	1	2.461000
13.166667	1	2.414375
13.183333	1	2.371250
13.200000	1	2.330625
13.216667	1	2.292000
13.233333	1	2.254875
13.250000	1	2.220250
13.266667	1	2.187000
13.283333	1	2.154500
13.300000	1	2.123125
13.316667	1	2.093250
13.333333	1	2.065625
13.350000	1	2.038750
13.366667	1	2.014625
13.383333	1	1.992375
13.400000	1	1.971750
13.416667	1	1.953500
13.433333	1	1.937875
13.450000	1	1.925375
13.466667	1	1.915250
13.483333	1	1.907750
13.500000	1	1.902750
13.516667	1	1.900000
13.533333	1	1.898375
13.550000	1	1.898500
13.566667	1	1.899125
13.583333	1	1.900125
13.600000	1	1.900750
13.616667	1	1.899625
13.633333	1	1.896125
13.650000	1	1.890250
13.666667	1	1.880875
13.683333	1	1.868625
13.700000	1	1.853625
13.716667	1	1.835500
13.733333	1	1.814750
13.750000	1	1.792750
13.766667	1	1.769375
13.783333	1	1.746125
13.800000	1	1.723125
13.816667	1	1.700250
13.833333	1	1.678000
13.850000	1	1.657000
13.866667	1	1.636000
13.883333	1	1.617250
13.900000	1	1.599875
13.916667	1	1.582375
13.933333	1	1.567250
13.950000	1	1.553500
13.966667	1	1.539000
13.983333	1	1.526750
14.000000	1	1.515125
14.016667	1	1.504000
14.033333	1	1.493750
14.050000	1	1.484000
14.066667	1	1.475000
14.083333	1	1.466750
14.100000	1	1.458750
14.116667	1	1.452125
14.133333	1	1.445500
14.150000	1	1.439750
14.166667	1	1.434125
14.183333	1	1.430250
14.200000	1	1.427875
14.216667	1	1.427375
14.233333	1	1.427500
14.250000	1	1.429875
14.266667	1	1.434250
14.283333	1	1.441375
14.300000	1	1.451875
14.316667	1	1.465875
14.333333	1	1.483500
14.350000	1	1.505875
14.366667	1	1.533000
14.383333	1	1.566750
14.400000	1	1.609000
14.416667	1	1.662500
14.433333	1	1.731250
14.450000	1	1.821500
14.466667	1	1.939250
14.483333	1	2.095250
14.500000	1	2.304125
14.516667	1	2.583250
14.533333	1	2.955500
14.550000	1	3.448500
14.566667	1	4.095500
14.583333	1	4.931875
14.600000	1	5.999500
14.616667	1	7.341625
14.633333	1	8.999125
14.650000	1	11.007000
14.666667	1	13.390625
14.683333	1	16.154500
14.700000	1	19.281375
14.716667	1	22.726125
14.733333	1	26.416125
14.750000	1	30.251875
14.766667	1	34.107125
14.783333	1	37.835875
14.800000	1	41.286250
14.816667	1	44.307000
14.833333	1	46.756875
14.850000	1	48.518875
14.866667	1	49.509500
14.883333	1	49.688625
14.900000	1	49.058250
14.916667	1	47.670875
14.933333	1	45.608625
14.950000	1	42.988750
14.966667	1	39.946000
14.983333	1	36.626375
15.000000	1	33.164500
15.016667	1	29.683250
15.033333	1	26.287500
15.050000	1	23.062250
15.066667	1	20.070750
15.083333	1	17.351625
15.100000	1	14.924875
15.116667	1	12.792375
15.133333	1	10.944125
15.150000	1	9.358500
15.166667	1	8.012500
15.183333	1	6.879250
15.200000	1	5.932000
15.216667	1	5.145125
15.233333	1	4.495500
15.250000	1	3.961750
15.266667	1	3.527375
15.283333	1	3.175750
15.300000	1	2.895500
15.316667	1	2.674500
15.333333	1	2.502625
15.350000	1	2.372500
15.366667	1	2.276125
15.383333	1	2.207500
15.400000	1	2.162250
15.416667	1	2.133500
15.433333	1	2.117125
15.450000	1	2.108625
15.466667	1	2.103750
15.483333	1	2.099875
15.500000	1	2.093625
15.516667	1	2.083625
15.533333	1	2.067875
15.550000	1	2.045625
15.566667	1	2.017375
15.583333	1	1.983375
15.600000	1	1.945250
15.616667	1	1.903125
15.633333	1	1.859250
15.650000	1	1.814875
15.666667	1	1.770250
15.683333	1	1.727500
15.700000	1	1.686625
15.716667	1	1.647125
15.733333	1	1.610125
15.750000	1	1.576250
15.766667	1	1.544750
15.783333	1	1.515625
15.800000	1	1.488500
15.816667	1	1.463000
15.833333	1	1.439250
15.850000	1	1.417375
15.866667	1	1.397125
15.883333	1	1.378625
15.900000	1	1.362500
15.916667	1	1.347500
15.933333	1	1.334250
15.950000	1	1.322625
15.966667	1	1.313500
15.983333	1	1.305625
16.000000	1	1.300375
16.016667	1	1.296625
16.033333	1	1.294500
16.050000	1	1.293125
16.066667	1	1.293000
16.083333	1	1.292875
16.100000	1	1.293750
16.116667	1	1.294875
16.133333	1	1.296250
16.150000	1	1.297500
16.166667	1	1.298125
16.183333	1	1.298750
16.200000	1	1.298875
16.216667	1	1.298500
16.233333	1	1.296750
16.250000	1	1.294000
16.266667	1	1.290625
16.283333	1	1.286875
16.300000	1	1.283250
16.316667	1	1.279125
16.333333	1	1.274750
16.350000	1	1.271125
16.366667	1	1.268375
16.383333	1	1.267250
16.400000	1	1.266250
16.416667	1	1.265625
16.433333	1	1.267000
16.450000	1	1.269250
16.466667	1	1.272375
16.483333	1	1.276125
16.500000	1	1.280250
16.516667	1	1.284375
16.533333	1	1.288375
16.550000	1	1.291500
16.566667	1	1.293750
16.583333	1	1.294500
16.600000	1	1.294625
16.616667	1	1.293000
16.633333	1	1.290875
16.650000	1	1.288125
16.666667	1	1.285125
16.683333	1	1.281500
16.700000	1	1.278000
16.716667	1	1.275625
16.733333	1	1.274750
16.750000	1	1.274500
16.766667	1	1.276250
16.783333	1	1.279500
16.800000	1	1.284375
16.816667	1	1.289875
16.833333	1	1.296125
16.850000	1	1.302750
16.866667	1	1.309000
16.883333	1	1.314500
16.900000	1	1.319500
16.916667	1	1.323625
16.933333	1	1.326500
16.950000	1	1.329000
16.966667	1	1.329625
16.983333	1	1.329250
17.000000	1	1.327875
17.016667	1	1.325375
17.033333	1	1.322000
17.050000	1	1.319000
17.066667	1	1.316000
17.083333	1	1.313375
17.100000	1	1.310500
17.116667	1	1.308250
17.133333	1	1.306625
17.150000	1	1.305875
17.166667	1	1.306250
17.183333	1	1.306750
17.200000	1	1.308500
17.216667	1	1.310875
17.233333	1	1.314000
17.250000	1	1.317000
17.266667	1	1.320375
17.283333	1	1.323875
17.300000	1	1.328500
17.316667	1	1.332000
17.333333	1	1.335625
17.350000	1	1.339000
17.366667	1	1.343250
17.383333	1	1.346375
17.400000	1	1.349250
17.416667	1	1.350250
17.433333	1	1.350500
17.450000	1	1.349250
17.466667	1	1.346375
17.483333	1	1.341875
17.500000	1	1.336125
17.516667	1	1.327625
17.533333	1	1.317750
17.550000	1	1.306625
17.566667	1	1.294375
17.583333	1	1.281000
17.600000	1	1.266250
17.616667	1	1.250250
17.633333	1	1.233875
17.650000	1	1.216750
17.666667	1	1.199625
17.683333	1	1.183875
17.700000	1	1.167125
17.716667	1	1.152000
17.733333	1	1.136875
17.750000	1	1.123750
17.766667	1	1.110750
17.783333	1	1.099500
17.800000	1	1.089125
17.816667	1	1.079500
17.833333	1	1.070875
17.850000	1	1.064250
17.866667	1	1.058000
17.883333	1	1.051750
17.900000	1	1.046125
17.916667	1	1.040625
17.933333	1	1.036250
17.950000	1	1.031750
17.966667	1	1.027250
17.983333	1	1.022625
18.000000	1	1.018000
18.016667	1	1.012625
18.033333	1	1.007500
18.050000	1	1.001625
18.066667	1	0.996500
18.083333	1	0.991125
18.100000	1	0.986250
18.116667	1	0.981500
18.133333	1	0.977125
18.150000	1	0.973000
18.166667	1	0.968750
18.183333	1	0.965750
18.200000	1	0.962125
18.216667	1	0.959250
18.233333	1	0.956500
18.250000	1	0.954500
18.266667	1	0.952500
18.283333	1	0.950750
18.300000	1	0.949625
18.316667	1	0.948875
18.333333	1	0.947750
18.350000	1	0.947375
18.366667	1	0.947750
18.383333	1	0.949500
18.400000	1	0.951750
18.416667	1	0.955500
18.433333	1	0.961125
18.450000	1	0.967375
18.466667	1	0.975500
18.483333	1	0.985875
18.500000	1	0.998250
18.516667	1	1.012875
18.533333	1	1.029875
18.550000	1	1.048750
18.566667	1	1.069500
18.583333	1	1.092750
18.600000	1	1.117875
18.616667	1	1.144375
18.633333	1	1.173000
18.650000	1	1.202750
18.666667	1	1.233875
18.683333	1	1.265125
18.700000	1	1.298375
18.716667	1	1.332000
18.733333	1	1.365875
18.750000	1	1.398625
18.766667	1	1.431375
18.783333	1	1.462750
18.800000	1	1.492500
18.816667	1	1.520500
18.833333	1	1.546000
18.850000	1	1.566500
18.866667	1	1.584250
18.883333	1	1.597250
18.900000	1	1.605000
18.916667	1	1.607500
18.933333	1	1.603500
18.950000	1	1.594625
18.966667	1	1.579000
18.983333	1	1.558250
19.000000	1	1.531375
19.016667	1	1.500250
19.033333	1	1.462875
19.050000	1	1.423625
19.066667	1	1.381000
19.083333	1	1.337375
19.100000	1	1.292750
19.116667	1	1.248750
19.133333	1	1.205250
19.150000	1	1.163500
19.166667	1	1.125000
19.183333	1	1.090375
19.200000	1	1.059625
19.216667	1	1.033625
19.233333	1	1.011250
19.250000	1	0.995750
19.266667	1	0.985375
19.283333	1	0.981625
19.300000	1	0.982750
19.316667	1	0.989250
19.333333	1	1.001625
19.350000	1	1.018500
19.366667	1	1.040250
19.383333	1	1.066125
19.400000	1	1.095750
19.416667	1	1.127500
19.433333	1	1.161250
19.450000	1	1.194875
19.466667	1	1.228750
19.483333	1	1.261000
19.500000	1	1.291000
19.516667	1	1.318500
19.533333	1	1.343000
19.550000	1	1.363000
19.566667	1	1.378125
19.583333	1	1.388500
19.600000	1	1.394250
19.616667	1	1.395000
19.633333	1	1.389750
19.650000	1	1.380625
19.666667	1	1.366375
19.683333	1	1.348125
19.700000	1	1.325500
19.716667	1	1.300500
19.733333	1	1.273000
19.750000	1	1.243875
19.766667	1	1.213000
19.783333	1	1.180125
19.800000	1	1.146875
19.816667	1	1.113500
19.833333	1	1.080250
19.850000	1	1.048375
19.866667	1	1.016375
19.883333	1	0.986125
19.900000	1	0.958750
19.916667	1	0.933000
19.933333	1	0.910250
19.950000	1	0.890500
19.966667	1	0.874125
19.983333	1	0.861875
20.000000	1	0.854000
20.016667	1	0.849625
20.033333	1	0.849625
20.050000	1	0.854500
20.066667	1	0.865125
20.083333	1	0.880875
20.100000	1	0.901875
20.116667	1	0.927500
20.133333	1	0.957375
20.150000	1	0.990375
20.166667	1	1.026375
20.183333	1	1.064625
20.200000	1	1.104250
20.216667	1	1.142000
20.233333	1	1.179000
20.250000	1	1.212750
20.266667	1	1.242750
20.283333	1	1.267125
20.300000	1	1.284500
20.316667	1	1.295125
20.333333	1	1.298875
20.350000	1	1.294750
20.366667	1	1.282875
20.383333	1	1.263875
20.400000	1	1.238375
20.416667	1	1.208375
20.433333	1	1.173375
20.450000	1	1.136625
20.466667	1	1.098500
20.483333	1	1.061375
20.500000	1	1.026000
20.516667	1	0.994375
20.533333	1	0.967375
20.550000	1	0.946250
20.566667	1	0.931375
20.583333	1	0.924500
20.600000	1	0.926250
20.616667	1	0.936500
20.633333	1	0.954750
20.650000	1	0.983250
20.666667	1	1.020875
20.683333	1	1.066875
20.700000	1	1.119875
20.716667	1	1.180000
20.733333	1	1.244875
20.750000	1	1.313750
20.766667	1	1.384875
20.783333	1	1.455375
20.800000	1	1.524000
20.816667	1	1.587125
20.833333	1	1.643875
20.850000	1	1.692000
20.866667	1	1.730500
20.883333	1	1.756375
20.900000	1	1.770875
20.916667	1	1.772625
20.933333	1	1.760625
20.950000	1	1.736500
20.966667	1	1.700750
20.983333	1	1.654375
21.000000	1	1.599250
21.016667	1	1.537250
21.033333	1	1.470750
21.050000	1	1.400750
21.066667	1	1.329625
21.083333	1	1.259375
21.100000	1	1.190125
21.116667	1	1.124000
21.133333	1	1.061000
21.150000	1	1.002750
21.166667	1	0.948875
21.183333	1	0.900250
21.200000	1	0.855625
21.216667	1	0.816500
21.233333	1	0.781375
21.250000	1	0.750750
21.266667	1	0.724250
21.283333	1	0.700625
21.300000	1	0.680875
21.316667	1	0.663250
21.333333	1	0.649000
21.350000	1	0.636375
21.366667	1	0.625750
21.383333	1	0.616000
21.400000	1	0.607750
21.416667	1	0.600750
21.433333	1	0.595125
21.450000	1	0.590625
21.466667	1	0.587375
21.483333	1	0.584750
21.500000	1	0.584250
21.516667	1	0.584375
21.533333	1	0.585875
21.550000	1	0.588875
21.566667	1	0.593875
21.583333	1	0.601000
21.600000	1	0.610250
21.616667	1	0.621000
21.633333	1	0.634875
21.650000	1	0.651000
21.666667	1	0.670250
21.683333	1	0.692125
21.700000	1	0.716875
21.716667	1	0.743625
21.733333	1	0.773625
21.750000	1	0.806125
21.766667	1	0.840875
21.783333	1	0.877625
21.800000	1	0.914875
21.816667	1	0.953125
21.833333	1	0.991000
21.850000	1	1.029125
21.866667	1	1.064500
21.883333	1	1.098000
21.900000	1	1.129000
21.916667	1	1.155875
21.933333	1	1.179250
21.950000	1	1.197625
21.966667	1	1.211000
21.983333	1	1.219750
22.000000	1	1.223125
22.016667	1	1.220375
22.033333	1	1.212500
22.050000	1	1.200250
22.066667	1	1.183750
22.083333	1	1.162500
22.100000	1	1.139000
22.116667	1	1.112625
22.133333	1	1.084375
22.150000	1	1.054125
22.166667	1	1.023000
22.183333	1	0.990500
22.200000	1	0.958875
22.216667	1	0.927375
22.233333	1	0.896375
22.250000	1	0.865625
22.266667	1	0.835625
22.283333	1	0.807000
22.300000	1	0.780000
22.316667	1	0.754500
22.333333	1	0.730625
22.350000	1	0.707500
22.366667	1	0.686500
22.383333	1	0.666500
22.400000	1	0.648500
22.416667	1	0.632000
22.433333	1	0.617250
22.450000	1	0.603750
22.466667	1	0.591250
22.483333	1	0.581000
22.500000	1	0.572125
22.516667	1	0.564000
22.533333	1	0.557375
22.550000	1	0.551000
22.566667	1	0.545250
22.583333	1	0.540125
22.600000	1	0.535500
22.616667	1	0.531250
22.633333	1	0.527125
22.650000	1	0.523125
22.666667	1	0.518625
22.683333	1	0.514125
22.700000	1	0.508750
22.716667	1	0.503875
22.733333	1	0.497625
22.750000	1	0.491750
22.766667	1	0.484625
22.783333	1	0.478000
22.800000	1	0.470750
22.816667	1	0.462750
22.833333	1	0.455250
22.850000	1	0.447500
22.866667	1	0.440125
22.883333	1	0.432500
22.900000	1	0.426000
22.916667	1	0.419375
22.933333	1	0.413250
22.950000	1	0.406875
22.966667	1	0.402875
22.983333	1	0.398125
23.000000	1	0.394250
23.016667	1	0.390500
23.033333	1	0.388125
23.050000	1	0.386625
23.066667	1	0.385875
23.083333	1	0.385250
23.100000	1	0.385750
23.116667	1	0.386375
23.133333	1	0.388250
23.150000	1	0.390875
23.166667	1	0.394250
23.183333	1	0.398875
23.200000	1	0.403375
23.216667	1	0.409500
23.233333	1	0.416000
23.250000	1	0.424500
23.266667	1	0.434250
23.283333	1	0.446125
23.300000	1	0.461125
23.316667	1	0.479125
23.333333	1	0.500375
23.350000	1	0.525750
23.366667	1	0.556375
23.383333	1	0.593125
23.400000	1	0.637375
23.416667	1	0.689625
23.433333	1	0.751500
23.450000	1	0.823750
23.466667	1	0.908750
23.483333	1	1.005875
23.500000	1	1.117750
23.516667	1	1.246000
23.533333	1	1.390000
23.550000	1	1.551125
23.566667	1	1.729750
23.583333	1	1.925625
23.600000	1	2.138250
23.616667	1	2.365500
23.633333	1	2.605875
23.650000	1	2.857625
23.666667	1	3.117875
23.683333	1	3.382375
23.700000	1	3.647500
23.716667	1	3.908125
23.733333	1	4.160500
23.750000	1	4.398750
23.766667	1	4.617500
23.783333	1	4.812875
23.800000	1	4.979625
23.816667	1	5.114500
23.833333	1	5.215000
23.850000	1	5.278250
23.866667	1	5.304000
23.883333	1	5.292250
23.900000	1	5.242875
23.916667	1	5.158625
23.933333	1	5.040250
23.950000	1	4.893125
23.966667	1	4.719875
23.983333	1	4.525625
24.000000	1	4.314250
24.016667	1	4.090750
24.033333	1	3.859000
24.050000	1	3.624375
24.066667	1	3.389625
24.083333	1	3.157375
24.100000	1	2.931500
24.116667	1	2.713500
24.133333	1	2.505125
24.150000	1	2.308750
24.166667	1	2.125125
24.183333	1	1.954125
24.200000	1	1.796250
24.216667	1	1.650750
24.233333	1	1.518625
24.250000	1	1.398625
24.266667	1	1.290500
24.283333	1	1.193000
24.300000	1	1.106500
24.316667	1	1.028750
24.333333	1	0.960000
24.350000	1	0.898750
24.366667	1	0.844750
24.383333	1	0.798125
24.400000	1	0.757750
24.416667	1	0.722625
24.433333	1	0.692500
24.450000	1	0.666750
24.466667	1	0.645125
24.483333	1	0.626250
24.500000	1	0.610625
24.516667	1	0.597750
24.533333	1	0.586500
24.550000	1	0.577375
24.566667	1	0.568875
24.583333	1	0.562625
24.600000	1	0.556250
24.616667	1	0.551250
24.633333	1	0.546125
24.650000	1	0.541250
24.666667	1	0.536000
24.683333	1	0.531250
24.700000	1	0.526750
24.716667	1	0.522500
24.733333	1	0.517375
24.750000	1	0.512500
24.766667	1	0.507125
24.783333	1	0.501000
24.800000	1	0.495625
24.816667	1	0.490250
24.833333	1	0.485625
24.850000	1	0.480375
24.866667	1	0.475250
24.883333	1	0.470625
24.900000	1	0.466250
24.916667	1	0.462000
24.933333	1	0.458000
24.950000	1	0.454125
24.966667	1	0.449875
24.983333	1	0.446250
25.000000	1	0.442250
25.016667	1	0.439250
25.033333	1	0.436250
25.050000	1	0.433125
25.066667	1	0.430000
25.083333	1	0.427250
25.100000	1	0.425000
25.116667	1	0.422500
25.133333	1	0.420125
25.150000	1	0.416875
25.166667	1	0.414125
25.183333	1	0.411625
25.200000	1	0.408750
25.216667	1	0.405750
25.233333	1	0.402625
25.250000	1	0.399625
25.266667	1	0.397250
25.283333	1	0.395125
25.300000	1	0.392500
25.316667	1	0.389500
25.333333	1	0.387000
25.350000	1	0.384250
25.366667	1	0.381125
25.383333	1	0.379250
25.400000	1	0.376750
25.416667	1	0.374375
25.433333	1	0.372000
25.450000	1	0.369500
25.466667	1	0.367375
25.483333	1	0.365500
25.500000	1	0.364000
25.516667	1	0.362625
25.533333	1	0.361125
25.550000	1	0.359625
25.566667	1	0.358500
25.583333	1	0.357500
25.600000	1	0.356500
25.616667	1	0.356375
25.633333	1	0.356000
25.650000	1	0.355500
25.666667	1	0.355750
25.683333	1	0.355375
25.700000	1	0.355500
25.716667	1	0.354250
25.733333	1	0.354250
25.750000	1	0.354625
25.766667	1	0.354875
25.783333	1	0.354875
25.800000	1	0.354375
25.816667	1	0.354625
25.833333	1	0.354250
25.850000	1	0.354250
25.866667	1	0.353750
25.883333	1	0.354375
25.900000	1	0.354125
25.916667	1	0.354500
25.933333	1	0.355000
25.950000	1	0.356000
25.966667	1	0.356750
25.983333	1	0.357750
26.000000	1	0.359000
26.016667	1	0.359875
26.033333	1	0.361875
26.050000	1	0.364000
26.066667	1	0.366375
26.083333	1	0.368875
26.100000	1	0.371625
26.116667	1	0.374125
26.133333	1	0.377625
26.150000	1	0.381500
26.166667	1	0.385000
26.183333	1	0.388375
26.200000	1	0.391875
26.216667	1	0.395875
26.233333	1	0.399750
26.250000	1	0.403000
26.266667	1	0.406375
26.283333	1	0.409375
26.300000	1	0.411375
26.316667	1	0.413500
26.333333	1	0.415000
26.350000	1	0.415875
26.366667	1	0.416750
26.383333	1	0.416500
26.400000	1	0.415625
26.416667	1	0.414875
26.433333	1	0.412875
26.450000	1	0.410000
26.466667	1	0.406625
26.483333	1	0.403375
26.500000	1	0.398625
26.516667	1	0.393375
26.533333	1	0.388125
26.550000	1	0.382375
26.566667	1	0.375750
26.583333	1	0.369375
26.600000	1	0.362375
26.616667	1	0.355750
26.633333	1	0.348500
26.650000	1	0.341250
26.666667	1	0.334250
26.683333	1	0.327750
26.700000	1	0.320875
26.716667	1	0.313750
26.733333	1	0.307125
26.750000	1	0.300500
26.766667	1	0.294750
26.783333	1	0.289125
26.800000	1	0.283375
26.816667	1	0.278625
26.833333	1	0.273750
26.850000	1	0.269500
26.866667	1	0.265875
26.883333	1	0.262375
26.900000	1	0.259000
26.916667	1	0.255250
26.933333	1	0.252500
26.950000	1	0.250125
26.966667	1	0.248500
26.983333	1	0.247500
27.000000	1	0.247125
27.016667	1	0.247875
27.033333	1	0.248875
27.050000	1	0.250625
27.066667	1	0.252500
27.083333	1	0.256375
27.100000	1	0.260875
27.116667	1	0.265875
27.133333	1	0.272625
27.150000	1	0.280500
27.166667	1	0.289500
27.183333	1	0.300625
27.200000	1	0.313500
27.216667	1	0.329125
27.233333	1	0.347000
27.250000	1	0.367375
27.266667	1	0.390625
27.283333	1	0.416875
27.300000	1	0.446875
27.316667	1	0.481250
27.333333	1	0.520000
27.350000	1	0.563125
27.366667	1	0.612750
27.383333	1	0.668375
27.400000	1	0.731000
27.416667	1	0.800250
27.433333	1	0.877125
27.450000	1	0.963750
27.466667	1	1.057875
27.483333	1	1.161000
27.500000	1	1.273625
27.516667	1	1.395250
27.533333	1	1.526750
27.550000	1	1.668125
27.566667	1	1.817625
27.583333	1	1.974750
27.600000	1	2.139250
27.616667	1	2.309500
27.633333	1	2.486125
27.650000	1	2.664875
27.666667	1	2.845875
27.683333	1	3.026625
27.700000	1	3.204750
27.716667	1	3.377625
27.733333	1	3.543250
27.750000	1	3.698875
27.766667	1	3.842750
27.783333	1	3.971500
27.800000	1	4.083625
27.816667	1	4.177375
27.833333	1	4.251000
27.850000	1	4.302375
27.866667	1	4.332375
27.883333	1	4.338500
27.900000	1	4.321125
27.916667	1	4.281375
27.933333	1	4.219000
27.950000	1	4.135250
27.966667	1	4.031625
27.983333	1	3.910875
28.000000	1	3.774625
28.016667	1	3.624125
28.033333	1	3.462625
28.050000	1	3.293375
28.066667	1	3.117625
28.083333	1	2.938500
28.100000	1	2.757875
28.116667	1	2.579625
28.133333	1	2.404375
28.150000	1	2.234375
28.166667	1	2.070625
28.183333	1	1.915125
28.200000	1	1.768375
28.216667	1	1.630375
28.233333	1	1.501625
28.250000	1	1.383250
28.266667	1	1.274250
28.283333	1	1.174375
28.300000	1	1.084125
28.316667	1	1.002625
28.333333	1	0.929875
28.350000	1	0.864500
28.366667	1	0.807375
28.383333	1	0.756875
28.400000	1	0.712875
28.416667	1	0.674875
28.433333	1	0.641625
28.450000	1	0.613500
28.466667	1	0.590375
28.483333	1	0.571500
28.500000	1	0.556125
28.516667	1	0.543875
28.533333	1	0.535000
28.550000	1	0.527750
28.566667	1	0.523500
28.583333	1	0.521375
28.600000	1	0.521125
28.616667	1	0.522250
28.633333	1	0.525500
28.650000	1	0.530000
28.666667	1	0.535375
28.683333	1	0.540875
28.700000	1	0.547000
28.716667	1	0.553375
28.733333	1	0.560625
28.750000	1	0.567875
28.766667	1	0.574875
28.783333	1	0.581125
28.800000	1	0.586750
28.816667	1	0.592250
28.833333	1	0.596625
28.850000	1	0.600625
28.866667	1	0.603375
28.883333	1	0.605125
28.900000	1	0.605500
28.916667	1	0.605250
28.933333	1	0.602625
28.950000	1	0.598750
28.966667	1	0.593125
28.983333	1	0.587000
29.000000	1	0.579375
29.016667	1	0.569750
29.033333	1	0.559125
29.050000	1	0.546000
29.066667	1	0.531750
29.083333	1	0.515500
29.100000	1	0.498125
29.116667	1	0.478500
29.133333	1	0.457375
29.150000	1	0.434750
29.166667	1	0.410000
29.183333	1	0.384250
29.200000	1	0.357000
29.216667	1	0.328000
29.233333	1	0.297500
29.250000	1	0.264500
29.266667	1	0.230250
29.283333	1	0.194500
29.300000	1	0.157375
29.316667	1	0.118375
29.333333	1	0.078000
29.350000	1	0.036750
29.366667	1	-0.005500
29.383333	1	-0.048625
29.400000	1	-0.093125
29.416667	1	-0.138250
29.433333	1	-0.184375
29.450000	1	-0.230625
29.466667	1	-0.277250
29.483333	1	-0.323250
29.500000	1	-0.369875
29.516667	1	-0.416125
29.533333	1	-0.460125
29.550000	1	-0.503625
29.566667	1	-0.545375
29.583333	1	-0.584875
29.600000	1	-0.622750
29.616667	1	-0.657250
29.633333	1	-0.689125
29.650000	1	-0.718375
29.666667	1	-0.744250
29.683333	1	-0.766625
29.700000	1	-0.785500
29.716667	1	-0.801000
29.733333	1	-0.811500
29.750000	1	-0.818750
29.766667	1	-0.822000
29.783333	1	-0.821375
29.800000	1	-0.817500
29.816667	1	-0.809250
29.833333	1	-0.797500
29.850000	1	-0.782125
29.866667	1	-0.764375
29.883333	1	-0.743625
29.900000	1	-0.719625
29.916667	1	-0.694000
29.933333	1	-0.666375
29.950000	1	-0.637500
29.966667	1	-0.607000
29.983333	1	-0.575000
30.000000	1	-0.542250
30.016667	1	-0.509000
30.033333	1	-0.476000
30.050000	1	-0.442000
30.066667	1	-0.409250
30.083333	1	-0.376875
30.100000	1	-0.344875
30.116667	1	-0.313375
30.133333	1	-0.283750
30.150000	1	-0.254375
30.166667	1	-0.227000
30.183333	1	-0.200250
30.200000	1	-0.174625
30.216667	1	-0.149625
30.233333	1	-0.126875
30.250000	1	-0.105375
30.266667	1	-0.084625
30.283333	1	-0.064500
30.300000	1	-0.045625
30.316667	1	-0.028375
30.333333	1	-0.012500
30.350000	1	0.002375
30.366667	1	0.016750
30.383333	1	0.030000
30.400000	1	0.042500
30.416667	1	0.055125
30.433333	1	0.066000
30.450000	1	0.076375
30.466667	1	0.086875
30.483333	1	0.095875
30.500000	1	0.104875
30.516667	1	0.113875
30.533333	1	0.122125
30.550000	1	0.130125
30.566667	1	0.138750
30.583333	1	0.146375
30.600000	1	0.154000
30.616667	1	0.161375
30.633333	1	0.169000
30.650000	1	0.176750
30.666667	1	0.184625
30.683333	1	0.192625
30.700000	1	0.201125
30.716667	1	0.209500
30.733333	1	0.217750
30.750000	1	0.226125
30.766667	1	0.234875
30.783333	1	0.244625
30.800000	1	0.255125
30.816667	1	0.265375
30.833333	1	0.275750
30.850000	1	0.287375
30.866667	1	0.299250
30.883333	1	0.312000
30.900000	1	0.326125
30.916667	1	0.341125
30.933333	1	0.357750
30.950000	1	0.374625
30.966667	1	0.393500
30.983333	1	0.414000
31.000000	1	0.437000
31.016667	1	0.461500
31.033333	1	0.488875
31.050000	1	0.518875
31.066667	1	0.552375
31.083333	1	0.589375
31.100000	1	0.629625
31.116667	1	0.673500
31.133333	1	0.721625
31.150000	1	0.774625
31.166667	1	0.832500
31.183333	1	0.895250
31.200000	1	0.962750
31.216667	1	1.035250
31.233333	1	1.113250
31.250000	1	1.196375
31.266667	1	1.283875
31.283333	1	1.376500
31.300000	1	1.473375
31.316667	1	1.572750
31.333333	1	1.675750
31.350000	1	1.781125
31.366667	1	1.887250
31.383333	1	1.994000
31.400000	1	2.101875
31.416667	1	2.207375
31.433333	1	2.310250
31.450000	1	2.409875
31.466667	1	2.503500
31.483333	1	2.591500
31.500000	1	2.672000
31.516667	1	2.744625
31.533333	1	2.807000
31.550000	1	2.859750
31.566667	1	2.901625
31.583333	1	2.932000
31.600000	1	2.951000
31.616667	1	2.958250
31.633333	1	2.953000
31.650000	1	2.936250
31.666667	1	2.908000
31.683333	1	2.868000
31.700000	1	2.817625
31.716667	1	2.757625
31.733333	1	2.689375
31.750000	1	2.612375
31.766667	1	2.528875
31.783333	1	2.439250
31.800000	1	2.345000
31.816667	1	2.246375
31.833333	1	2.145125
31.850000	1	2.042125
31.866667	1	1.938625
31.883333	1	1.835000
31.900000	1	1.733500
31.916667	1	1.632125
31.933333	1	1.533875
31.950000	1	1.438875
31.966667	1	1.346000
31.983333	1	1.257250
32.000000	1	1.172875
32.016667	1	1.091875
32.033333	1	1.015000
32.050000	1	0.942500
32.066667	1	0.874375
32.083333	1	0.810375
32.100000	1	0.750750
32.116667	1	0.695625
32.133333	1	0.643625
32.150000	1	0.595625
32.166667	1	0.550500
32.183333	1	0.509125
32.200000	1	0.470375
32.216667	1	0.435125
32.233333	1	0.402625
32.250000	1	0.372375
32.266667	1	0.344125
32.283333	1	0.317625
32.300000	1	0.294375
32.316667	1	0.271750
32.333333	1	0.251500
32.350000	1	0.232750
32.366667	1	0.215750
32.383333	1	0.199750
32.400000	1	0.184375
32.416667	1	0.169875
32.433333	1	0.157000
32.450000	1	0.145375
32.466667	1	0.134625
32.483333	1	0.123500
32.500000	1	0.113375
32.516667	1	0.103500
32.533333	1	0.095000
32.550000	1	0.087125
32.566667	1	0.078875
32.583333	1	0.072375
32.600000	1	0.065500
32.616667	1	0.059625
32.633333	1	0.054000
32.650000	1	0.048375
32.666667	1	0.042875
32.683333	1	0.038250
32.700000	1	0.034000
32.716667	1	0.030000
32.733333	1	0.026500
32.750000	1	0.023000
32.766667	1	0.019500
32.783333	1	0.016625
32.800000	1	0.013750
32.816667	1	0.011125
32.833333	1	0.008625
32.850000	1	0.006875
32.866667	1	0.004750
32.883333	1	0.002250
32.900000	1	0.000125
32.916667	1	-0.001625
32.933333	1	-0.003000
32.950000	1	-0.005375
32.966667	1	-0.007500
32.983333	1	-0.008750
33.000000	1	-0.010375
33.016667	1	-0.011750
33.033333	1	-0.013500
33.050000	1	-0.015375
33.066667	1	-0.016750
33.083333	1	-0.018500
33.100000	1	-0.019500
33.116667	1	-0.020875
33.133333	1	-0.022000
33.150000	1	-0.022750
33.166667	1	-0.023125
33.183333	1	-0.024125
33.200000	1	-0.023625
33.216667	1	-0.023750
33.233333	1	-0.023375
33.250000	1	-0.023500
33.266667	1	-0.024125
33.283333	1	-0.023875
33.300000	1	-0.023750
33.316667	1	-0.023250
33.333333	1	-0.022500
33.350000	1	-0.021500
33.366667	1	-0.021000
33.383333	1	-0.020125
33.400000	1	-0.019000
33.416667	1	-0.017625
33.433333	1	-0.015375
33.450000	1	-0.014000
33.466667	1	-0.012625
33.483333	1	-0.011125
33.500000	1	-0.010000
33.516667	1	-0.008000
33.533333	1	-0.006375
33.550000	1	-0.003500
33.566667	1	-0.001625
33.583333	1	0.000750
33.600000	1	0.002500
33.616667	1	0.005250
33.633333	1	0.008000
33.650000	1	0.011125
33.666667	1	0.013750
33.683333	1	0.015875
33.700000	1	0.019250
33.716667	1	0.023250
33.733333	1	0.026750
33.750000	1	0.030000
33.766667	1	0.033500
33.783333	1	0.037125
33.800000	1	0.040500
33.816667	1	0.044000
33.833333	1	0.047250
33.850000	1	0.050750
33.866667	1	0.054750
33.883333	1	0.058000
33.900000	1	0.061625
33.916667	1	0.065500
33.933333	1	0.069125
33.950000	1	0.072125
33.966667	1	0.075750
33.983333	1	0.078625
34.000000	1	0.081625
34.016667	1	0.084375
34.033333	1	0.086875
34.050000	1	0.089250
34.066667	1	0.091875
34.083333	1	0.094250
34.100000	1	0.096500
34.116667	1	0.098250
34.133333	1	0.100500
34.150000	1	0.102125
34.166667	1	0.103375
34.183333	1	0.105000
34.200000	1	0.106500
34.216667	1	0.108125
34.233333	1	0.109250
34.250000	1	0.110375
34.266667	1	0.112250
34.283333	1	0.114375
34.300000	1	0.115000
34.316667	1	0.116500
34.333333	1	0.118500
34.350000	1	0.120375
34.366667	1	0.122000
34.383333	1	0.123500
34.400000	1	0.124875
34.416667	1	0.126875
34.433333	1	0.128750
34.450000	1	0.131000
34.466667	1	0.133125
34.483333	1	0.134375
34.500000	1	0.136250
34.516667	1	0.138375
34.533333	1	0.140625
34.550000	1	0.142750
34.566667	1	0.144875
34.583333	1	0.146250
34.600000	1	0.148500
34.616667	1	0.150000
34.633333	1	0.151625
34.650000	1	0.152625
34.666667	1	0.153750
34.683333	1	0.154625
34.700000	1	0.155000
34.716667	1	0.155750
34.733333	1	0.156875
34.750000	1	0.157375
34.766667	1	0.157750
34.783333	1	0.156875
34.800000	1	0.157000
34.816667	1	0.156125
34.833333	1	0.155625
34.850000	1	0.155750
34.866667	1	0.154875
34.883333	1	0.153625
34.900000	1	0.153500
34.916667	1	0.152250
34.933333	1	0.150750
34.950000	1	0.149625
34.966667	1	0.148500
34.983333	1	0.147500
35.000000	1	0.146125
35.016667	1	0.144500
35.033333	1	0.143625
35.050000	1	0.142750
35.066667	1	0.142125
35.083333	1	0.142125
35.100000	1	0.141375
35.116667	1	0.140250
35.133333	1	0.139875
35.150000	1	0.139375
35.166667	1	0.139875
35.183333	1	0.140000
35.200000	1	0.139875
35.216667	1	0.139500
35.233333	1	0.140125
35.250000	1	0.140625
35.266667	1	0.141250
35.283333	1	0.141750
35.300000	1	0.142125
35.316667	1	0.141875
35.333333	1	0.142250
35.350000	1	0.142625
35.366667	1	0.142500
35.383333	1	0.142875
35.400000	1	0.143875
35.416667	1	0.144750
35.433333	1	0.145250
35.450000	1	0.145750
35.466667	1	0.146125
35.483333	1	0.145875
35.500000	1	0.146125
35.516667	1	0.146625
35.533333	1	0.146625
35.550000	1	0.146500
35.566667	1	0.146375
35.583333	1	0.145875
35.600000	1	0.145250
35.616667	1	0.144875
35.633333	1	0.145000
35.650000	1	0.144125
35.666667	1	0.143500
35.683333	1	0.143375
35.700000	1	0.143375
35.716667	1	0.142875
35.733333	1	0.142250
35.750000	1	0.141625
35.766667	1	0.141750
35.783333	1	0.141125
35.800000	1	0.141500
35.816667	1	0.141250
35.833333	1	0.140625
35.850000	1	0.140375
35.866667	1	0.139875
35.883333	1	0.139250
35.900000	1	0.139125
35.916667	1	0.138875
35.933333	1	0.138500
35.950000	1	0.137500
35.966667	1	0.136875
35.983333	1	0.136500
36.000000	1	0.135625
36.016667	1	0.134625
36.033333	1	0.133250
36.050000	1	0.130875
36.066667	1	0.129750
36.083333	1	0.127750
36.100000	1	0.126375
36.116667	1	0.124875
36.133333	1	0.123125
36.150000	1	0.121125
36.166667	1	0.120250
36.183333	1	0.118375
36.200000	1	0.116875
36.216667	1	0.115125
36.233333	1	0.113250
36.250000	1	0.111500
36.266667	1	0.110500
36.283333	1	0.109375
36.300000	1	0.107625
36.316667	1	0.106000
36.333333	1	0.104250
36.350000	1	0.103125
36.366667	1	0.101625
36.383333	1	0.100000
36.400000	1	0.098500
36.416667	1	0.097000
36.433333	1	0.095500
36.450000	1	0.094625
36.466667	1	0.093750
36.483333	1	0.092125
36.500000	1	0.091125
36.516667	1	0.089625
36.533333	1	0.088000
36.550000	1	0.086375
36.566667	1	0.085250
36.583333	1	0.084000
36.600000	1	0.083125
36.616667	1	0.081625
36.633333	1	0.081000
36.650000	1	0.079625
36.666667	1	0.078500
36.683333	1	0.077125
36.700000	1	0.076000
36.716667	1	0.074875
36.733333	1	0.074000
36.750000	1	0.072625
36.766667	1	0.072125
36.783333	1	0.071750
36.800000	1	0.071875
36.816667	1	0.071250
36.833333	1	0.070625
36.850000	1	0.069500
36.866667	1	0.070000
36.883333	1	0.070125
36.900000	1	0.070250
36.916667	1	0.070125
36.933333	1	0.070125
36.950000	1	0.070875
36.966667	1	0.071125
36.983333	1	0.070875
37.000000	1	0.070750
37.016667	1	0.071250
37.033333	1	0.071250
37.050000	1	0.071125
37.066667	1	0.070625
37.083333	1	0.070500
37.100000	1	0.070250
37.116667	1	0.069875
37.133333	1	0.069000
37.150000	1	0.068875
37.166667	1	0.068125
37.183333	1	0.067250
37.200000	1	0.065875
37.216667	1	0.064750
37.233333	1	0.062500
37.250000	1	0.061125
37.266667	1	0.058875
37.283333	1	0.057250
37.300000	1	0.054500
37.316667	1	0.051875
37.333333	1	0.049375
37.350000	1	0.047500
37.366667	1	0.045000
37.383333	1	0.042750
37.400000	1	0.040125
37.416667	1	0.037750
37.433333	1	0.035500
37.450000	1	0.032375
37.466667	1	0.029125
37.483333	1	0.026625
37.500000	1	0.023750
37.516667	1	0.021125
37.533333	1	0.018000
37.550000	1	0.015750
37.566667	1	0.012625
37.583333	1	0.010250
37.600000	1	0.007625
37.616667	1	0.004625
37.633333	1	0.002500
37.650000	1	0.000000
37.666667	1	-0.001625
37.683333	1	-0.002750
37.700000	1	-0.004750
37.716667	1	-0.006625
37.733333	1	-0.008250
37.750000	1	-0.008625
37.766667	1	-0.010125
37.783333	1	-0.011125
37.800000	1	-0.011875
37.816667	1	-0.011750
37.833333	1	-0.012500
37.850000	1	-0.012625
37.866667	1	-0.013000
37.883333	1	-0.012875
37.900000	1	-0.012875
37.916667	1	-0.012000
37.933333	1	-0.011500
37.950000	1	-0.011000
37.966667	1	-0.011250
37.983333	1	-0.011000
38.000000	1	-0.010125
38.016667	1	-0.009500
38.033333	1	-0.009125
38.050000	1	-0.008750
38.066667	1	-0.008375
38.083333	1	-0.008250
38.100000	1	-0.007625
38.116667	1	-0.006750
38.133333	1	-0.005875
38.150000	1	-0.005750
38.166667	1	-0.004625
38.183333	1	-0.003750
38.200000	1	-0.002875
38.216667	1	-0.002500
38.233333	1	-0.000875
38.250000	1	0.000000
38.266667	1	0.002125
38.283333	1	0.004375
38.300000	1	0.006500
38.316667	1	0.008625
38.333333	1	0.011000
38.350000	1	0.013750
38.366667	1	0.016750
38.383333	1	0.019375
38.400000	1	0.021750
38.416667	1	0.024750
38.433333	1	0.027375
38.450000	1	0.030250
38.466667	1	0.033250
38.483333	1	0.036250
38.500000	1	0.039250
38.516667	1	0.042000
38.533333	1	0.044625
38.550000	1	0.047375
38.566667	1	0.049750
38.583333	1	0.052250
38.600000	1	0.054125
38.616667	1	0.056625
38.633333	1	0.058875
38.650000	1	0.060625
38.666667	1	0.062750
38.683333	1	0.064875
38.700000	1	0.066625
38.716667	1	0.067625
38.733333	1	0.068500
38.750000	1	0.069375
38.766667	1	0.070375
38.783333	1	0.070625
38.800000	1	0.071250
38.816667	1	0.071500
38.833333	1	0.071750
38.850000	1	0.071750
38.866667	1	0.071375
38.883333	1	0.071500
38.900000	1	0.071125
38.916667	1	0.070750
38.933333	1	0.070625
38.950000	1	0.069375
38.966667	1	0.068375
38.983333	1	0.067125
39.000000	1	0.066250
39.016667	1	0.064875
39.033333	1	0.063625
39.050000	1	0.062000
39.066667	1	0.060875
39.083333	1	0.058750
39.100000	1	0.056875
39.116667	1	0.054250
39.133333	1	0.051875
39.150000	1	0.049125
39.166667	1	0.046375
39.183333	1	0.043375
39.200000	1	0.040500
39.216667	1	0.037250
39.233333	1	0.033875
39.250000	1	0.031000
39.266667	1	0.027500
39.283333	1	0.024375
39.300000	1	0.020500
39.316667	1	0.016875
39.333333	1	0.012750
39.350000	1	0.008750
39.366667	1	0.005500
39.383333	1	0.001500
39.400000	1	-0.001625
39.416667	1	-0.005125
39.433333	1	-0.009250
39.450000	1	-0.012625
39.466667	1	-0.016000
39.483333	1	-0.019125
39.500000	1	-0.022250
39.516667	1	-0.025125
39.533333	1	-0.027625
39.550000	1	-0.030375
39.566667	1	-0.032750
39.583333	1	-0.033875
39.600000	1	-0.035625
39.616667	1	-0.036375
39.633333	1	-0.036625
39.650000	1	-0.037000
39.666667	1	-0.036250
39.683333	1	-0.034375
39.700000	1	-0.033500
39.716667	1	-0.031750
39.733333	1	-0.029125
39.750000	1	-0.027125
39.766667	1	-0.024375
39.783333	1	-0.021125
39.800000	1	-0.018000
39.816667	1	-0.014500
39.833333	1	-0.011500
39.850000	1	-0.007375
39.866667	1	-0.002625
39.883333	1	0.001875
39.900000	1	0.006750
39.916667	1	0.010625
39.933333	1	0.015000
39.950000	1	0.019750
39.966667	1	0.024000
39.983333	1	0.028000
40.000000	1	0.031750
