URL	chrom://bioreactor/micro_cm7/HPLC_Ultimate_3000/Users/markusar/20240517_CMO_FP23_FP25_MarkusDeplate.seq/310.smp/RI_1.channel/RI_1.chm
Channel	RI_1

Injection Information:
Data Vault	micro_cm7
Sequence	20240517_CMO_FP23_FP25_MarkusDeplate
Name	FP28_22.3_s4
Number	153
Position	BB7
Comment	
Processing Method	
Instrument Method	run_25B_method
Type	Unknown
Status	Finished
Inject Time	01.06.2024 03:36:14 +02:00
Volume (µl)	20.0000
Dilution Factor	1.0000
Weight	1.0000

Chromatogram Data Information:
Time Min. (min)	0.000000
Time Max. (min)	40.000000
Data Points	2401
Detector	RI
Generating Data System	Chromeleon 7.3.2.11814
Exporting Data System	Chromeleon 7.3.2.0
Operator	Instrument Controller
Signal Quantity	Refractive 
Signal Unit	µRIU
Signal Min.	-1.015000
Signal Max.	56.393125
Channel	RI_1
Driver Name	RID520Driver.dll
Channel Type	Evaluation
Min. Step (s)	1
Max. Step (s)	1
Average Step (s)	1

Signal Parameter Information:
Signal Info	

Chromatogram Data:
Time (min)	Step (s)	Value (µRIU)
0.000000	n.a.	-0.007375
0.016667	1	-0.007000
0.033333	1	-0.007125
0.050000	1	-0.006500
0.066667	1	-0.005875
0.083333	1	-0.004250
0.100000	1	-0.002875
0.116667	1	-0.001875
0.133333	1	-0.000625
0.150000	1	0.000875
0.166667	1	0.001500
0.183333	1	0.002250
0.200000	1	0.003000
0.216667	1	0.003250
0.233333	1	0.004250
0.250000	1	0.005000
0.266667	1	0.005625
0.283333	1	0.006500
0.300000	1	0.007000
0.316667	1	0.008125
0.333333	1	0.008125
0.350000	1	0.008000
0.366667	1	0.006875
0.383333	1	0.007000
0.400000	1	0.007500
0.416667	1	0.007375
0.433333	1	0.007000
0.450000	1	0.007375
0.466667	1	0.008625
0.483333	1	0.008500
0.500000	1	0.009000
0.516667	1	0.009250
0.533333	1	0.010000
0.550000	1	0.009750
0.566667	1	0.009375
0.583333	1	0.009875
0.600000	1	0.010250
0.616667	1	0.011000
0.633333	1	0.011750
0.650000	1	0.012750
0.666667	1	0.013500
0.683333	1	0.014750
0.700000	1	0.016250
0.716667	1	0.017500
0.733333	1	0.018125
0.750000	1	0.019250
0.766667	1	0.020375
0.783333	1	0.020875
0.800000	1	0.022000
0.816667	1	0.023000
0.833333	1	0.023875
0.850000	1	0.024500
0.866667	1	0.025750
0.883333	1	0.026625
0.900000	1	0.027000
0.916667	1	0.027500
0.933333	1	0.028250
0.950000	1	0.028125
0.966667	1	0.027750
0.983333	1	0.028000
1.000000	1	0.027750
1.016667	1	0.026625
1.033333	1	0.025500
1.050000	1	0.026000
1.066667	1	0.025375
1.083333	1	0.024125
1.100000	1	0.023250
1.116667	1	0.022000
1.133333	1	0.021000
1.150000	1	0.019750
1.166667	1	0.018250
1.183333	1	0.017375
1.200000	1	0.016375
1.216667	1	0.014125
1.233333	1	0.012625
1.250000	1	0.011125
1.266667	1	0.009250
1.283333	1	0.007750
1.300000	1	0.006625
1.316667	1	0.004625
1.333333	1	0.002875
1.350000	1	0.000625
1.366667	1	-0.001125
1.383333	1	-0.002500
1.400000	1	-0.004125
1.416667	1	-0.005625
1.433333	1	-0.007125
1.450000	1	-0.008000
1.466667	1	-0.008750
1.483333	1	-0.010250
1.500000	1	-0.010625
1.516667	1	-0.011125
1.533333	1	-0.011875
1.550000	1	-0.011750
1.566667	1	-0.011500
1.583333	1	-0.011750
1.600000	1	-0.011250
1.616667	1	-0.010375
1.633333	1	-0.009375
1.650000	1	-0.008500
1.666667	1	-0.006875
1.683333	1	-0.005500
1.700000	1	-0.003750
1.716667	1	-0.002375
1.733333	1	-0.000500
1.750000	1	0.001500
1.766667	1	0.003125
1.783333	1	0.005125
1.800000	1	0.007750
1.816667	1	0.010000
1.833333	1	0.012000
1.850000	1	0.014125
1.866667	1	0.016375
1.883333	1	0.018375
1.900000	1	0.019500
1.916667	1	0.020875
1.933333	1	0.022625
1.950000	1	0.024000
1.966667	1	0.025375
1.983333	1	0.026125
2.000000	1	0.027000
2.016667	1	0.027125
2.033333	1	0.028000
2.050000	1	0.028625
2.066667	1	0.028500
2.083333	1	0.028375
2.100000	1	0.028000
2.116667	1	0.027750
2.133333	1	0.027000
2.150000	1	0.026375
2.166667	1	0.025750
2.183333	1	0.025375
2.200000	1	0.025000
2.216667	1	0.024750
2.233333	1	0.024000
2.250000	1	0.023250
2.266667	1	0.023000
2.283333	1	0.022625
2.300000	1	0.022500
2.316667	1	0.022250
2.333333	1	0.022000
2.350000	1	0.021500
2.366667	1	0.021000
2.383333	1	0.021375
2.400000	1	0.021125
2.416667	1	0.021250
2.433333	1	0.021625
2.450000	1	0.022500
2.466667	1	0.023125
2.483333	1	0.023750
2.500000	1	0.024625
2.516667	1	0.025500
2.533333	1	0.026875
2.550000	1	0.027375
2.566667	1	0.028500
2.583333	1	0.029625
2.600000	1	0.030750
2.616667	1	0.032000
2.633333	1	0.033875
2.650000	1	0.035125
2.666667	1	0.036375
2.683333	1	0.037875
2.700000	1	0.038500
2.716667	1	0.039375
2.733333	1	0.040375
2.750000	1	0.041000
2.766667	1	0.040750
2.783333	1	0.041125
2.800000	1	0.041500
2.816667	1	0.041750
2.833333	1	0.041750
2.850000	1	0.041750
2.866667	1	0.041125
2.883333	1	0.040750
2.900000	1	0.040000
2.916667	1	0.038875
2.933333	1	0.037750
2.950000	1	0.036625
2.966667	1	0.034500
2.983333	1	0.033125
3.000000	1	0.031500
3.016667	1	0.029625
3.033333	1	0.028125
3.050000	1	0.026750
3.066667	1	0.024875
3.083333	1	0.022750
3.100000	1	0.022375
3.116667	1	0.021125
3.133333	1	0.020500
3.150000	1	0.018875
3.166667	1	0.017625
3.183333	1	0.017625
3.200000	1	0.018000
3.216667	1	0.017750
3.233333	1	0.018375
3.250000	1	0.018625
3.266667	1	0.019625
3.283333	1	0.020625
3.300000	1	0.021750
3.316667	1	0.023500
3.333333	1	0.025000
3.350000	1	0.026750
3.366667	1	0.028750
3.383333	1	0.031000
3.400000	1	0.033375
3.416667	1	0.035750
3.433333	1	0.038500
3.450000	1	0.041000
3.466667	1	0.043500
3.483333	1	0.046000
3.500000	1	0.047875
3.516667	1	0.050500
3.533333	1	0.053125
3.550000	1	0.055750
3.566667	1	0.057875
3.583333	1	0.059500
3.600000	1	0.061125
3.616667	1	0.062875
3.633333	1	0.064000
3.650000	1	0.065875
3.666667	1	0.066875
3.683333	1	0.067750
3.700000	1	0.069125
3.716667	1	0.070375
3.733333	1	0.071250
3.750000	1	0.071625
3.766667	1	0.071750
3.783333	1	0.072375
3.800000	1	0.072750
3.816667	1	0.072750
3.833333	1	0.072625
3.850000	1	0.072375
3.866667	1	0.072000
3.883333	1	0.071375
3.900000	1	0.071125
3.916667	1	0.070625
3.933333	1	0.070000
3.950000	1	0.069250
3.966667	1	0.069000
3.983333	1	0.069000
4.000000	1	0.069125
4.016667	1	0.068875
4.033333	1	0.069625
4.050000	1	0.069875
4.066667	1	0.070375
4.083333	1	0.070875
4.100000	1	0.071375
4.116667	1	0.072375
4.133333	1	0.073750
4.150000	1	0.074875
4.166667	1	0.076125
4.183333	1	0.077750
4.200000	1	0.079000
4.216667	1	0.080750
4.233333	1	0.082375
4.250000	1	0.084375
4.266667	1	0.086250
4.283333	1	0.087625
4.300000	1	0.089000
4.316667	1	0.090875
4.333333	1	0.092375
4.350000	1	0.094625
4.366667	1	0.096375
4.383333	1	0.097875
4.400000	1	0.099625
4.416667	1	0.102125
4.433333	1	0.103750
4.450000	1	0.105250
4.466667	1	0.106500
4.483333	1	0.108125
4.500000	1	0.109625
4.516667	1	0.110750
4.533333	1	0.112250
4.550000	1	0.113000
4.566667	1	0.114000
4.583333	1	0.114875
4.600000	1	0.116500
4.616667	1	0.117750
4.633333	1	0.118625
4.650000	1	0.118875
4.666667	1	0.119000
4.683333	1	0.119000
4.700000	1	0.119000
4.716667	1	0.118500
4.733333	1	0.118000
4.750000	1	0.118375
4.766667	1	0.118750
4.783333	1	0.118750
4.800000	1	0.119250
4.816667	1	0.119500
4.833333	1	0.119500
4.850000	1	0.119750
4.866667	1	0.119500
4.883333	1	0.118875
4.900000	1	0.119125
4.916667	1	0.119250
4.933333	1	0.119625
4.950000	1	0.119875
4.966667	1	0.120000
4.983333	1	0.121000
5.000000	1	0.121750
5.016667	1	0.122500
5.033333	1	0.123750
5.050000	1	0.125000
5.066667	1	0.126625
5.083333	1	0.128250
5.100000	1	0.129750
5.116667	1	0.131750
5.133333	1	0.134500
5.150000	1	0.137500
5.166667	1	0.139625
5.183333	1	0.142375
5.200000	1	0.145750
5.216667	1	0.149000
5.233333	1	0.153375
5.250000	1	0.156750
5.266667	1	0.161125
5.283333	1	0.165000
5.300000	1	0.169625
5.316667	1	0.174125
5.333333	1	0.179000
5.350000	1	0.183500
5.366667	1	0.187875
5.383333	1	0.192125
5.400000	1	0.196875
5.416667	1	0.201250
5.433333	1	0.206500
5.450000	1	0.211750
5.466667	1	0.216000
5.483333	1	0.221000
5.500000	1	0.225500
5.516667	1	0.229000
5.533333	1	0.233750
5.550000	1	0.238000
5.566667	1	0.241625
5.583333	1	0.246250
5.600000	1	0.249875
5.616667	1	0.253625
5.633333	1	0.256750
5.650000	1	0.259750
5.666667	1	0.263000
5.683333	1	0.264750
5.700000	1	0.266500
5.716667	1	0.268250
5.733333	1	0.269000
5.750000	1	0.270000
5.766667	1	0.270750
5.783333	1	0.271250
5.800000	1	0.270875
5.816667	1	0.271000
5.833333	1	0.271125
5.850000	1	0.270625
5.866667	1	0.270250
5.883333	1	0.269500
5.900000	1	0.268500
5.916667	1	0.267250
5.933333	1	0.266125
5.950000	1	0.264875
5.966667	1	0.263750
5.983333	1	0.262250
6.000000	1	0.261500
6.016667	1	0.260875
6.033333	1	0.259875
6.050000	1	0.258625
6.066667	1	0.257875
6.083333	1	0.256500
6.100000	1	0.254875
6.116667	1	0.253500
6.133333	1	0.252500
6.150000	1	0.251125
6.166667	1	0.249750
6.183333	1	0.249375
6.200000	1	0.248000
6.216667	1	0.246500
6.233333	1	0.245125
6.250000	1	0.242750
6.266667	1	0.241125
6.283333	1	0.239375
6.300000	1	0.237125
6.316667	1	0.234625
6.333333	1	0.232625
6.350000	1	0.230500
6.366667	1	0.228375
6.383333	1	0.225875
6.400000	1	0.222750
6.416667	1	0.220000
6.433333	1	0.216500
6.450000	1	0.214250
6.466667	1	0.210875
6.483333	1	0.207875
6.500000	1	0.204625
6.516667	1	0.201875
6.533333	1	0.198500
6.550000	1	0.195375
6.566667	1	0.192375
6.583333	1	0.189000
6.600000	1	0.185625
6.616667	1	0.182375
6.633333	1	0.179250
6.650000	1	0.175750
6.666667	1	0.172875
6.683333	1	0.170000
6.700000	1	0.167375
6.716667	1	0.164250
6.733333	1	0.161750
6.750000	1	0.158500
6.766667	1	0.156000
6.783333	1	0.153250
6.800000	1	0.150375
6.816667	1	0.147500
6.833333	1	0.145500
6.850000	1	0.143750
6.866667	1	0.141500
6.883333	1	0.139000
6.900000	1	0.137250
6.916667	1	0.134875
6.933333	1	0.133375
6.950000	1	0.131750
6.966667	1	0.130250
6.983333	1	0.128250
7.000000	1	0.127625
7.016667	1	0.125500
7.033333	1	0.124375
7.050000	1	0.123750
7.066667	1	0.123000
7.083333	1	0.122250
7.100000	1	0.122250
7.116667	1	0.122750
7.133333	1	0.122875
7.150000	1	0.123625
7.166667	1	0.123625
7.183333	1	0.124875
7.200000	1	0.126500
7.216667	1	0.128000
7.233333	1	0.129500
7.250000	1	0.131625
7.266667	1	0.134125
7.283333	1	0.137250
7.300000	1	0.139750
7.316667	1	0.142750
7.333333	1	0.145750
7.350000	1	0.148875
7.366667	1	0.152875
7.383333	1	0.156000
7.400000	1	0.159750
7.416667	1	0.163125
7.433333	1	0.167250
7.450000	1	0.170875
7.466667	1	0.174500
7.483333	1	0.178250
7.500000	1	0.182750
7.516667	1	0.186000
7.533333	1	0.189250
7.550000	1	0.192750
7.566667	1	0.195625
7.583333	1	0.198250
7.600000	1	0.200875
7.616667	1	0.202625
7.633333	1	0.202875
7.650000	1	0.204375
7.666667	1	0.204625
7.683333	1	0.204875
7.700000	1	0.204750
7.716667	1	0.203750
7.733333	1	0.202375
7.750000	1	0.201000
7.766667	1	0.198875
7.783333	1	0.195750
7.800000	1	0.192125
7.816667	1	0.188125
7.833333	1	0.184125
7.850000	1	0.179875
7.866667	1	0.175500
7.883333	1	0.171250
7.900000	1	0.165625
7.916667	1	0.160500
7.933333	1	0.155750
7.950000	1	0.150625
7.966667	1	0.145000
7.983333	1	0.139750
8.000000	1	0.134375
8.016667	1	0.128875
8.033333	1	0.122625
8.050000	1	0.117125
8.066667	1	0.112125
8.083333	1	0.107000
8.100000	1	0.101500
8.116667	1	0.095875
8.133333	1	0.091375
8.150000	1	0.086875
8.166667	1	0.082625
8.183333	1	0.079125
8.200000	1	0.074875
8.216667	1	0.070250
8.233333	1	0.066875
8.250000	1	0.063625
8.266667	1	0.061125
8.283333	1	0.058125
8.300000	1	0.056375
8.316667	1	0.054625
8.333333	1	0.053125
8.350000	1	0.051125
8.366667	1	0.049625
8.383333	1	0.048875
8.400000	1	0.048000
8.416667	1	0.047375
8.433333	1	0.047875
8.450000	1	0.047750
8.466667	1	0.048125
8.483333	1	0.048625
8.500000	1	0.049125
8.516667	1	0.050000
8.533333	1	0.051000
8.550000	1	0.052625
8.566667	1	0.053750
8.583333	1	0.054375
8.600000	1	0.055125
8.616667	1	0.056750
8.633333	1	0.058125
8.650000	1	0.060375
8.666667	1	0.062125
8.683333	1	0.063625
8.700000	1	0.065750
8.716667	1	0.067375
8.733333	1	0.069250
8.750000	1	0.070750
8.766667	1	0.072375
8.783333	1	0.074000
8.800000	1	0.075875
8.816667	1	0.077625
8.833333	1	0.079000
8.850000	1	0.080250
8.866667	1	0.082125
8.883333	1	0.083500
8.900000	1	0.085250
8.916667	1	0.086625
8.933333	1	0.088250
8.950000	1	0.089750
8.966667	1	0.091250
8.983333	1	0.092500
9.000000	1	0.093625
9.016667	1	0.094750
9.033333	1	0.095750
9.050000	1	0.096375
9.066667	1	0.097375
9.083333	1	0.098000
9.100000	1	0.098250
9.116667	1	0.099375
9.133333	1	0.100500
9.150000	1	0.100750
9.166667	1	0.101000
9.183333	1	0.100875
9.200000	1	0.101250
9.216667	1	0.100875
9.233333	1	0.101250
9.250000	1	0.101500
9.266667	1	0.101875
9.283333	1	0.102875
9.300000	1	0.103250
9.316667	1	0.103375
9.333333	1	0.103875
9.350000	1	0.104875
9.366667	1	0.105750
9.383333	1	0.107000
9.400000	1	0.108500
9.416667	1	0.110125
9.433333	1	0.111500
9.450000	1	0.112375
9.466667	1	0.113250
9.483333	1	0.115000
9.500000	1	0.116375
9.516667	1	0.118000
9.533333	1	0.119125
9.550000	1	0.120875
9.566667	1	0.122375
9.583333	1	0.123625
9.600000	1	0.125375
9.616667	1	0.126625
9.633333	1	0.129125
9.650000	1	0.130125
9.666667	1	0.131750
9.683333	1	0.132500
9.700000	1	0.133750
9.716667	1	0.135250
9.733333	1	0.136625
9.750000	1	0.137375
9.766667	1	0.138375
9.783333	1	0.138750
9.800000	1	0.138625
9.816667	1	0.138250
9.833333	1	0.137625
9.850000	1	0.137250
9.866667	1	0.136250
9.883333	1	0.134875
9.900000	1	0.134250
9.916667	1	0.132875
9.933333	1	0.130625
9.950000	1	0.128375
9.966667	1	0.125750
9.983333	1	0.122875
10.000000	1	0.119750
10.016667	1	0.116125
10.033333	1	0.112625
10.050000	1	0.109375
10.066667	1	0.106250
10.083333	1	0.103000
10.100000	1	0.100875
10.116667	1	0.099375
10.133333	1	0.099500
10.150000	1	0.101250
10.166667	1	0.104375
10.183333	1	0.109250
10.200000	1	0.114375
10.216667	1	0.123000
10.233333	1	0.133375
10.250000	1	0.146750
10.266667	1	0.162250
10.283333	1	0.181000
10.300000	1	0.202500
10.316667	1	0.227000
10.333333	1	0.253250
10.350000	1	0.280375
10.366667	1	0.306750
10.383333	1	0.329875
10.400000	1	0.349125
10.416667	1	0.362375
10.433333	1	0.371125
10.450000	1	0.378625
10.466667	1	0.391875
10.483333	1	0.424250
10.500000	1	0.496750
10.516667	1	0.639875
10.533333	1	0.894125
10.550000	1	1.313500
10.566667	1	1.955500
10.583333	1	2.882625
10.600000	1	4.153375
10.616667	1	5.816625
10.633333	1	7.904875
10.650000	1	10.433750
10.666667	1	13.405750
10.683333	1	16.804000
10.700000	1	20.591375
10.716667	1	24.706750
10.733333	1	29.060000
10.750000	1	33.524750
10.766667	1	37.923875
10.783333	1	42.027750
10.800000	1	45.553125
10.816667	1	48.182500
10.833333	1	49.609125
10.850000	1	49.614125
10.866667	1	48.126875
10.883333	1	45.269125
10.900000	1	41.338000
10.916667	1	36.742500
10.933333	1	31.909375
10.950000	1	27.195750
10.966667	1	22.855125
10.983333	1	19.017750
11.000000	1	15.731125
11.016667	1	12.983625
11.033333	1	10.733125
11.050000	1	8.915375
11.066667	1	7.463875
11.083333	1	6.313375
11.100000	1	5.405375
11.116667	1	4.688375
11.133333	1	4.120250
11.150000	1	3.666750
11.166667	1	3.301375
11.183333	1	3.004250
11.200000	1	2.758875
11.216667	1	2.554250
11.233333	1	2.381625
11.250000	1	2.234000
11.266667	1	2.105125
11.283333	1	1.993375
11.300000	1	1.895625
11.316667	1	1.808500
11.333333	1	1.730875
11.350000	1	1.661750
11.366667	1	1.600250
11.383333	1	1.545625
11.400000	1	1.497500
11.416667	1	1.454000
11.433333	1	1.415250
11.450000	1	1.381750
11.466667	1	1.351625
11.483333	1	1.324500
11.500000	1	1.299875
11.516667	1	1.277625
11.533333	1	1.257250
11.550000	1	1.239250
11.566667	1	1.223375
11.583333	1	1.209875
11.600000	1	1.198000
11.616667	1	1.185875
11.633333	1	1.176375
11.650000	1	1.168125
11.666667	1	1.161375
11.683333	1	1.156125
11.700000	1	1.152375
11.716667	1	1.150375
11.733333	1	1.148750
11.750000	1	1.149250
11.766667	1	1.151125
11.783333	1	1.154000
11.800000	1	1.157250
11.816667	1	1.162000
11.833333	1	1.166625
11.850000	1	1.171750
11.866667	1	1.176875
11.883333	1	1.181875
11.900000	1	1.187375
11.916667	1	1.192875
11.933333	1	1.197375
11.950000	1	1.202000
11.966667	1	1.206375
11.983333	1	1.211125
12.000000	1	1.215875
12.016667	1	1.221250
12.033333	1	1.226375
12.050000	1	1.232000
12.066667	1	1.238125
12.083333	1	1.244500
12.100000	1	1.250875
12.116667	1	1.258125
12.133333	1	1.265875
12.150000	1	1.273750
12.166667	1	1.281375
12.183333	1	1.290250
12.200000	1	1.300250
12.216667	1	1.311125
12.233333	1	1.323000
12.250000	1	1.337250
12.266667	1	1.354500
12.283333	1	1.374500
12.300000	1	1.399000
12.316667	1	1.428875
12.333333	1	1.464375
12.350000	1	1.507250
12.366667	1	1.560250
12.383333	1	1.624750
12.400000	1	1.703375
12.416667	1	1.800500
12.433333	1	1.920750
12.450000	1	2.067750
12.466667	1	2.245250
12.483333	1	2.459375
12.500000	1	2.713000
12.516667	1	3.007625
12.533333	1	3.342375
12.550000	1	3.714750
12.566667	1	4.116250
12.583333	1	4.537875
12.600000	1	4.966000
12.616667	1	5.384375
12.633333	1	5.777000
12.650000	1	6.125750
12.666667	1	6.416125
12.683333	1	6.637125
12.700000	1	6.780750
12.716667	1	6.843375
12.733333	1	6.826250
12.750000	1	6.737000
12.766667	1	6.584000
12.783333	1	6.378875
12.800000	1	6.134500
12.816667	1	5.863500
12.833333	1	5.576375
12.850000	1	5.283875
12.866667	1	4.993125
12.883333	1	4.711125
12.900000	1	4.442250
12.916667	1	4.191875
12.933333	1	3.960375
12.950000	1	3.749625
12.966667	1	3.560500
12.983333	1	3.391750
13.000000	1	3.242250
13.016667	1	3.110250
13.033333	1	2.993500
13.050000	1	2.890250
13.066667	1	2.799625
13.083333	1	2.718500
13.100000	1	2.645875
13.116667	1	2.580125
13.133333	1	2.519750
13.150000	1	2.465375
13.166667	1	2.414875
13.183333	1	2.368000
13.200000	1	2.324000
13.216667	1	2.282250
13.233333	1	2.242250
13.250000	1	2.204125
13.266667	1	2.167375
13.283333	1	2.132125
13.300000	1	2.097625
13.316667	1	2.064750
13.333333	1	2.033250
13.350000	1	2.004000
13.366667	1	1.976500
13.383333	1	1.950875
13.400000	1	1.927375
13.416667	1	1.906750
13.433333	1	1.887875
13.450000	1	1.871750
13.466667	1	1.858250
13.483333	1	1.848250
13.500000	1	1.840125
13.516667	1	1.834500
13.533333	1	1.831000
13.550000	1	1.828875
13.566667	1	1.827625
13.583333	1	1.827250
13.600000	1	1.826250
13.616667	1	1.824625
13.633333	1	1.821750
13.650000	1	1.815875
13.666667	1	1.808625
13.683333	1	1.797875
13.700000	1	1.785250
13.716667	1	1.770125
13.733333	1	1.753375
13.750000	1	1.735500
13.766667	1	1.716875
13.783333	1	1.697500
13.800000	1	1.678125
13.816667	1	1.659750
13.833333	1	1.640875
13.850000	1	1.623625
13.866667	1	1.607875
13.883333	1	1.592375
13.900000	1	1.578500
13.916667	1	1.565375
13.933333	1	1.553000
13.950000	1	1.542375
13.966667	1	1.532000
13.983333	1	1.522750
14.000000	1	1.513500
14.016667	1	1.505625
14.033333	1	1.497250
14.050000	1	1.490500
14.066667	1	1.482875
14.083333	1	1.476375
14.100000	1	1.469875
14.116667	1	1.464250
14.133333	1	1.458250
14.150000	1	1.453375
14.166667	1	1.449000
14.183333	1	1.445125
14.200000	1	1.441625
14.216667	1	1.440125
14.233333	1	1.439000
14.250000	1	1.439125
14.266667	1	1.441375
14.283333	1	1.445625
14.300000	1	1.452875
14.316667	1	1.462500
14.333333	1	1.476500
14.350000	1	1.494000
14.366667	1	1.517250
14.383333	1	1.546000
14.400000	1	1.585000
14.416667	1	1.634875
14.433333	1	1.700750
14.450000	1	1.788750
14.466667	1	1.906750
14.483333	1	2.064875
14.500000	1	2.279000
14.516667	1	2.568625
14.533333	1	2.958125
14.550000	1	3.478125
14.566667	1	4.165375
14.583333	1	5.059500
14.600000	1	6.209500
14.616667	1	7.662625
14.633333	1	9.470125
14.650000	1	11.674875
14.666667	1	14.307750
14.683333	1	17.380000
14.700000	1	20.877625
14.716667	1	24.754250
14.733333	1	28.932875
14.750000	1	33.305125
14.766667	1	37.728125
14.783333	1	42.037250
14.800000	1	46.058750
14.816667	1	49.617750
14.833333	1	52.551000
14.850000	1	54.719000
14.866667	1	56.018000
14.883333	1	56.393125
14.900000	1	55.840000
14.916667	1	54.408875
14.933333	1	52.190500
14.950000	1	49.311000
14.966667	1	45.923375
14.983333	1	42.193375
15.000000	1	38.276875
15.016667	1	34.316875
15.033333	1	30.436750
15.050000	1	26.736000
15.066667	1	23.290125
15.083333	1	20.146375
15.100000	1	17.330875
15.116667	1	14.847625
15.133333	1	12.687500
15.150000	1	10.828250
15.166667	1	9.244750
15.183333	1	7.907750
15.200000	1	6.786000
15.216667	1	5.850500
15.233333	1	5.074250
15.250000	1	4.433125
15.266667	1	3.907125
15.283333	1	3.479750
15.300000	1	3.134125
15.316667	1	2.857875
15.333333	1	2.639750
15.350000	1	2.471625
15.366667	1	2.343375
15.383333	1	2.247625
15.400000	1	2.178875
15.416667	1	2.131125
15.433333	1	2.099250
15.450000	1	2.078000
15.466667	1	2.062875
15.483333	1	2.050875
15.500000	1	2.037750
15.516667	1	2.021625
15.533333	1	2.002750
15.550000	1	1.977375
15.566667	1	1.946625
15.583333	1	1.911875
15.600000	1	1.872375
15.616667	1	1.829625
15.633333	1	1.785625
15.650000	1	1.741500
15.666667	1	1.697750
15.683333	1	1.654750
15.700000	1	1.614125
15.716667	1	1.576125
15.733333	1	1.541375
15.750000	1	1.509125
15.766667	1	1.479250
15.783333	1	1.451500
15.800000	1	1.426125
15.816667	1	1.402375
15.833333	1	1.380625
15.850000	1	1.360500
15.866667	1	1.342750
15.883333	1	1.326500
15.900000	1	1.311375
15.916667	1	1.298000
15.933333	1	1.286750
15.950000	1	1.277500
15.966667	1	1.269750
15.983333	1	1.264000
16.000000	1	1.259500
16.016667	1	1.256875
16.033333	1	1.255375
16.050000	1	1.254875
16.066667	1	1.255750
16.083333	1	1.257875
16.100000	1	1.259875
16.116667	1	1.261750
16.133333	1	1.264125
16.150000	1	1.265750
16.166667	1	1.267625
16.183333	1	1.269625
16.200000	1	1.271125
16.216667	1	1.270375
16.233333	1	1.269875
16.250000	1	1.268500
16.266667	1	1.266500
16.283333	1	1.263500
16.300000	1	1.260375
16.316667	1	1.257000
16.333333	1	1.254000
16.350000	1	1.250625
16.366667	1	1.247500
16.383333	1	1.245625
16.400000	1	1.245000
16.416667	1	1.244625
16.433333	1	1.246000
16.450000	1	1.248750
16.466667	1	1.251375
16.483333	1	1.254375
16.500000	1	1.258125
16.516667	1	1.262250
16.533333	1	1.266000
16.550000	1	1.269375
16.566667	1	1.270875
16.583333	1	1.271500
16.600000	1	1.271500
16.616667	1	1.269750
16.633333	1	1.267375
16.650000	1	1.263375
16.666667	1	1.260125
16.683333	1	1.256500
16.700000	1	1.252125
16.716667	1	1.249625
16.733333	1	1.247750
16.750000	1	1.247375
16.766667	1	1.247875
16.783333	1	1.250875
16.800000	1	1.253750
16.816667	1	1.258125
16.833333	1	1.263750
16.850000	1	1.270000
16.866667	1	1.275625
16.883333	1	1.280625
16.900000	1	1.285000
16.916667	1	1.288750
16.933333	1	1.290625
16.950000	1	1.292125
16.966667	1	1.291625
16.983333	1	1.290625
17.000000	1	1.288250
17.016667	1	1.284875
17.033333	1	1.281000
17.050000	1	1.276250
17.066667	1	1.271625
17.083333	1	1.267500
17.100000	1	1.263250
17.116667	1	1.259750
17.133333	1	1.257125
17.150000	1	1.254875
17.166667	1	1.253500
17.183333	1	1.253000
17.200000	1	1.254125
17.216667	1	1.255500
17.233333	1	1.257875
17.250000	1	1.260375
17.266667	1	1.263250
17.283333	1	1.267000
17.300000	1	1.270750
17.316667	1	1.274500
17.333333	1	1.278375
17.350000	1	1.282875
17.366667	1	1.286500
17.383333	1	1.290625
17.400000	1	1.293500
17.416667	1	1.296000
17.433333	1	1.297250
17.450000	1	1.297750
17.466667	1	1.295875
17.483333	1	1.292500
17.500000	1	1.287250
17.516667	1	1.280500
17.533333	1	1.272250
17.550000	1	1.262750
17.566667	1	1.251375
17.583333	1	1.238375
17.600000	1	1.223750
17.616667	1	1.208750
17.633333	1	1.192750
17.650000	1	1.176750
17.666667	1	1.160250
17.683333	1	1.144125
17.700000	1	1.128125
17.716667	1	1.112250
17.733333	1	1.097125
17.750000	1	1.083625
17.766667	1	1.070625
17.783333	1	1.058250
17.800000	1	1.047875
17.816667	1	1.037125
17.833333	1	1.028250
17.850000	1	1.020125
17.866667	1	1.013375
17.883333	1	1.006750
17.900000	1	1.000500
17.916667	1	0.994875
17.933333	1	0.990000
17.950000	1	0.985125
17.966667	1	0.980125
17.983333	1	0.975125
18.000000	1	0.969750
18.016667	1	0.964500
18.033333	1	0.959375
18.050000	1	0.954250
18.066667	1	0.948875
18.083333	1	0.944000
18.100000	1	0.938875
18.116667	1	0.934500
18.133333	1	0.929750
18.150000	1	0.925750
18.166667	1	0.922375
18.183333	1	0.919875
18.200000	1	0.918250
18.216667	1	0.916625
18.233333	1	0.915500
18.250000	1	0.914000
18.266667	1	0.913500
18.283333	1	0.913375
18.300000	1	0.913625
18.316667	1	0.914625
18.333333	1	0.915125
18.350000	1	0.916625
18.366667	1	0.918125
18.383333	1	0.921250
18.400000	1	0.924875
18.416667	1	0.929250
18.433333	1	0.935000
18.450000	1	0.941875
18.466667	1	0.950250
18.483333	1	0.959750
18.500000	1	0.972250
18.516667	1	0.985625
18.533333	1	1.001250
18.550000	1	1.019125
18.566667	1	1.039000
18.583333	1	1.060625
18.600000	1	1.083375
18.616667	1	1.108500
18.633333	1	1.135125
18.650000	1	1.162000
18.666667	1	1.190500
18.683333	1	1.220750
18.700000	1	1.252000
18.716667	1	1.283125
18.733333	1	1.314125
18.750000	1	1.344875
18.766667	1	1.376000
18.783333	1	1.406000
18.800000	1	1.434625
18.816667	1	1.461250
18.833333	1	1.485500
18.850000	1	1.506625
18.866667	1	1.523875
18.883333	1	1.537000
18.900000	1	1.544750
18.916667	1	1.547625
18.933333	1	1.545375
18.950000	1	1.536875
18.966667	1	1.522875
18.983333	1	1.503500
19.000000	1	1.478875
19.016667	1	1.449000
19.033333	1	1.414250
19.050000	1	1.376000
19.066667	1	1.335125
19.083333	1	1.291375
19.100000	1	1.247500
19.116667	1	1.204125
19.133333	1	1.160875
19.150000	1	1.120625
19.166667	1	1.082500
19.183333	1	1.046750
19.200000	1	1.015750
19.216667	1	0.988625
19.233333	1	0.967250
19.250000	1	0.951000
19.266667	1	0.940250
19.283333	1	0.935875
19.300000	1	0.936875
19.316667	1	0.943500
19.333333	1	0.955500
19.350000	1	0.972750
19.366667	1	0.994375
19.383333	1	1.019875
19.400000	1	1.049375
19.416667	1	1.081250
19.433333	1	1.115375
19.450000	1	1.150250
19.466667	1	1.185375
19.483333	1	1.219500
19.500000	1	1.252000
19.516667	1	1.281375
19.533333	1	1.307125
19.550000	1	1.328500
19.566667	1	1.345375
19.583333	1	1.357875
19.600000	1	1.365125
19.616667	1	1.367875
19.633333	1	1.364625
19.650000	1	1.356500
19.666667	1	1.344125
19.683333	1	1.327250
19.700000	1	1.306750
19.716667	1	1.282750
19.733333	1	1.255375
19.750000	1	1.226250
19.766667	1	1.195250
19.783333	1	1.162250
19.800000	1	1.128875
19.816667	1	1.094375
19.833333	1	1.060500
19.850000	1	1.027125
19.866667	1	0.994000
19.883333	1	0.962625
19.900000	1	0.933250
19.916667	1	0.904875
19.933333	1	0.879875
19.950000	1	0.858000
19.966667	1	0.839250
19.983333	1	0.823000
20.000000	1	0.810875
20.016667	1	0.802625
20.033333	1	0.798500
20.050000	1	0.798250
20.066667	1	0.802875
20.083333	1	0.811375
20.100000	1	0.824625
20.116667	1	0.841500
20.133333	1	0.862875
20.150000	1	0.887000
20.166667	1	0.914000
20.183333	1	0.942875
20.200000	1	0.972750
20.216667	1	1.001875
20.233333	1	1.030750
20.250000	1	1.057000
20.266667	1	1.079000
20.283333	1	1.097500
20.300000	1	1.110375
20.316667	1	1.118000
20.333333	1	1.118875
20.350000	1	1.113750
20.366667	1	1.103250
20.383333	1	1.086000
20.400000	1	1.064000
20.416667	1	1.038000
20.433333	1	1.008750
20.450000	1	0.977125
20.466667	1	0.944875
20.483333	1	0.912875
20.500000	1	0.882750
20.516667	1	0.855625
20.533333	1	0.833000
20.550000	1	0.815500
20.566667	1	0.804250
20.583333	1	0.799875
20.600000	1	0.803000
20.616667	1	0.814375
20.633333	1	0.833625
20.650000	1	0.861875
20.666667	1	0.899250
20.683333	1	0.944125
20.700000	1	0.996375
20.716667	1	1.056000
20.733333	1	1.120625
20.750000	1	1.189125
20.766667	1	1.259875
20.783333	1	1.331125
20.800000	1	1.400250
20.816667	1	1.465875
20.833333	1	1.524500
20.850000	1	1.575500
20.866667	1	1.616000
20.883333	1	1.646250
20.900000	1	1.664375
20.916667	1	1.669125
20.933333	1	1.660750
20.950000	1	1.640625
20.966667	1	1.609125
20.983333	1	1.566500
21.000000	1	1.514875
21.016667	1	1.456000
21.033333	1	1.391875
21.050000	1	1.324000
21.066667	1	1.255000
21.083333	1	1.185875
21.100000	1	1.118125
21.116667	1	1.053000
21.133333	1	0.991750
21.150000	1	0.933625
21.166667	1	0.879625
21.183333	1	0.830375
21.200000	1	0.786250
21.216667	1	0.746375
21.233333	1	0.711000
21.250000	1	0.680250
21.266667	1	0.654000
21.283333	1	0.630875
21.300000	1	0.611125
21.316667	1	0.593625
21.333333	1	0.579500
21.350000	1	0.567750
21.366667	1	0.558500
21.383333	1	0.550000
21.400000	1	0.543250
21.416667	1	0.538625
21.433333	1	0.534375
21.450000	1	0.531500
21.466667	1	0.529500
21.483333	1	0.529000
21.500000	1	0.529500
21.516667	1	0.531125
21.533333	1	0.533375
21.550000	1	0.536500
21.566667	1	0.541500
21.583333	1	0.547875
21.600000	1	0.555500
21.616667	1	0.564750
21.633333	1	0.574875
21.650000	1	0.587250
21.666667	1	0.600375
21.683333	1	0.616250
21.700000	1	0.633500
21.716667	1	0.652625
21.733333	1	0.673125
21.750000	1	0.695375
21.766667	1	0.719000
21.783333	1	0.744375
21.800000	1	0.770000
21.816667	1	0.795250
21.833333	1	0.820875
21.850000	1	0.846125
21.866667	1	0.870375
21.883333	1	0.892500
21.900000	1	0.913500
21.916667	1	0.932250
21.933333	1	0.948875
21.950000	1	0.961750
21.966667	1	0.971750
21.983333	1	0.978125
22.000000	1	0.980875
22.016667	1	0.980000
22.033333	1	0.975875
22.050000	1	0.969000
22.066667	1	0.959500
22.083333	1	0.947250
22.100000	1	0.933000
22.116667	1	0.916125
22.133333	1	0.898125
22.150000	1	0.879000
22.166667	1	0.858000
22.183333	1	0.837125
22.200000	1	0.815500
22.216667	1	0.794375
22.233333	1	0.773000
22.250000	1	0.751125
22.266667	1	0.729625
22.283333	1	0.708000
22.300000	1	0.687500
22.316667	1	0.667125
22.333333	1	0.647875
22.350000	1	0.629750
22.366667	1	0.611000
22.383333	1	0.594000
22.400000	1	0.577250
22.416667	1	0.562000
22.433333	1	0.547875
22.450000	1	0.534250
22.466667	1	0.522000
22.483333	1	0.511250
22.500000	1	0.501750
22.516667	1	0.493250
22.533333	1	0.485000
22.550000	1	0.477625
22.566667	1	0.470875
22.583333	1	0.464375
22.600000	1	0.458625
22.616667	1	0.453500
22.633333	1	0.448375
22.650000	1	0.443000
22.666667	1	0.437500
22.683333	1	0.431625
22.700000	1	0.426625
22.716667	1	0.420625
22.733333	1	0.414625
22.750000	1	0.407875
22.766667	1	0.401250
22.783333	1	0.394125
22.800000	1	0.387250
22.816667	1	0.379875
22.833333	1	0.372750
22.850000	1	0.365625
22.866667	1	0.358625
22.883333	1	0.351750
22.900000	1	0.344250
22.916667	1	0.338500
22.933333	1	0.332375
22.950000	1	0.327000
22.966667	1	0.321125
22.983333	1	0.315875
23.000000	1	0.310750
23.016667	1	0.306500
23.033333	1	0.301625
23.050000	1	0.298500
23.066667	1	0.296125
23.083333	1	0.294125
23.100000	1	0.292750
23.116667	1	0.292125
23.133333	1	0.292125
23.150000	1	0.293000
23.166667	1	0.293500
23.183333	1	0.295875
23.200000	1	0.298625
23.216667	1	0.301750
23.233333	1	0.306625
23.250000	1	0.313125
23.266667	1	0.321125
23.283333	1	0.330875
23.300000	1	0.343750
23.316667	1	0.359250
23.333333	1	0.377750
23.350000	1	0.400625
23.366667	1	0.429000
23.383333	1	0.462375
23.400000	1	0.502625
23.416667	1	0.551000
23.433333	1	0.608625
23.450000	1	0.675250
23.466667	1	0.753250
23.483333	1	0.844625
23.500000	1	0.950375
23.516667	1	1.070875
23.533333	1	1.207875
23.550000	1	1.361750
23.566667	1	1.532375
23.583333	1	1.720250
23.600000	1	1.924750
23.616667	1	2.145125
23.633333	1	2.378875
23.650000	1	2.623625
23.666667	1	2.877500
23.683333	1	3.136625
23.700000	1	3.396750
23.716667	1	3.654875
23.733333	1	3.905125
23.750000	1	4.143000
23.766667	1	4.363500
23.783333	1	4.561125
23.800000	1	4.731750
23.816667	1	4.872250
23.833333	1	4.979500
23.850000	1	5.051625
23.866667	1	5.086625
23.883333	1	5.084875
23.900000	1	5.047125
23.916667	1	4.974250
23.933333	1	4.868750
23.950000	1	4.734250
23.966667	1	4.573750
23.983333	1	4.391875
24.000000	1	4.191875
24.016667	1	3.980625
24.033333	1	3.760375
24.050000	1	3.535250
24.066667	1	3.309875
24.083333	1	3.086625
24.100000	1	2.868250
24.116667	1	2.657250
24.133333	1	2.455875
24.150000	1	2.264750
24.166667	1	2.085000
24.183333	1	1.917625
24.200000	1	1.762500
24.216667	1	1.619250
24.233333	1	1.489125
24.250000	1	1.371500
24.266667	1	1.264625
24.283333	1	1.168000
24.300000	1	1.080625
24.316667	1	1.002375
24.333333	1	0.932625
24.350000	1	0.870875
24.366667	1	0.815875
24.383333	1	0.768000
24.400000	1	0.725875
24.416667	1	0.689500
24.433333	1	0.658250
24.450000	1	0.631250
24.466667	1	0.608125
24.483333	1	0.588250
24.500000	1	0.571250
24.516667	1	0.557625
24.533333	1	0.546000
24.550000	1	0.535500
24.566667	1	0.526625
24.583333	1	0.519125
24.600000	1	0.512375
24.616667	1	0.506125
24.633333	1	0.500625
24.650000	1	0.496000
24.666667	1	0.491625
24.683333	1	0.486875
24.700000	1	0.481750
24.716667	1	0.476000
24.733333	1	0.471250
24.750000	1	0.465875
24.766667	1	0.460375
24.783333	1	0.454250
24.800000	1	0.449000
24.816667	1	0.443375
24.833333	1	0.437750
24.850000	1	0.432250
24.866667	1	0.426875
24.883333	1	0.422000
24.900000	1	0.418000
24.916667	1	0.413000
24.933333	1	0.408750
24.950000	1	0.404250
24.966667	1	0.399625
24.983333	1	0.395625
25.000000	1	0.391500
25.016667	1	0.387500
25.033333	1	0.384000
25.050000	1	0.381375
25.066667	1	0.378000
25.083333	1	0.374625
25.100000	1	0.371875
25.116667	1	0.369250
25.133333	1	0.366250
25.150000	1	0.363375
25.166667	1	0.360375
25.183333	1	0.357500
25.200000	1	0.355000
25.216667	1	0.353000
25.233333	1	0.350500
25.250000	1	0.347750
25.266667	1	0.345000
25.283333	1	0.341750
25.300000	1	0.339125
25.316667	1	0.337000
25.333333	1	0.334250
25.350000	1	0.332000
25.366667	1	0.329125
25.383333	1	0.326875
25.400000	1	0.325250
25.416667	1	0.323250
25.433333	1	0.321125
25.450000	1	0.319250
25.466667	1	0.318125
25.483333	1	0.317125
25.500000	1	0.316250
25.516667	1	0.315375
25.533333	1	0.314125
25.550000	1	0.313625
25.566667	1	0.312625
25.583333	1	0.312125
25.600000	1	0.311875
25.616667	1	0.311125
25.633333	1	0.310875
25.650000	1	0.310000
25.666667	1	0.309125
25.683333	1	0.308375
25.700000	1	0.307375
25.716667	1	0.306875
25.733333	1	0.305375
25.750000	1	0.304500
25.766667	1	0.302625
25.783333	1	0.301500
25.800000	1	0.299875
25.816667	1	0.298625
25.833333	1	0.296625
25.850000	1	0.295625
25.866667	1	0.294250
25.883333	1	0.294125
25.900000	1	0.293250
25.916667	1	0.292750
25.933333	1	0.292750
25.950000	1	0.293875
25.966667	1	0.295250
25.983333	1	0.296000
26.000000	1	0.298125
26.016667	1	0.300625
26.033333	1	0.302750
26.050000	1	0.305750
26.066667	1	0.309500
26.083333	1	0.313125
26.100000	1	0.318125
26.116667	1	0.323125
26.133333	1	0.327750
26.150000	1	0.332625
26.166667	1	0.337750
26.183333	1	0.343000
26.200000	1	0.348250
26.216667	1	0.354375
26.233333	1	0.359375
26.250000	1	0.364000
26.266667	1	0.368750
26.283333	1	0.373375
26.300000	1	0.377250
26.316667	1	0.380750
26.333333	1	0.383625
26.350000	1	0.385875
26.366667	1	0.387500
26.383333	1	0.389000
26.400000	1	0.389750
26.416667	1	0.389625
26.433333	1	0.388875
26.450000	1	0.387625
26.466667	1	0.386125
26.483333	1	0.384125
26.500000	1	0.380500
26.516667	1	0.377250
26.533333	1	0.372875
26.550000	1	0.368000
26.566667	1	0.363625
26.583333	1	0.358625
26.600000	1	0.353375
26.616667	1	0.348625
26.633333	1	0.343000
26.650000	1	0.337375
26.666667	1	0.332250
26.683333	1	0.327500
26.700000	1	0.322875
26.716667	1	0.317500
26.733333	1	0.312875
26.750000	1	0.308625
26.766667	1	0.304250
26.783333	1	0.299875
26.800000	1	0.296125
26.816667	1	0.292500
26.833333	1	0.290000
26.850000	1	0.287375
26.866667	1	0.284625
26.883333	1	0.282875
26.900000	1	0.281750
26.916667	1	0.280000
26.933333	1	0.278500
26.950000	1	0.277000
26.966667	1	0.276875
26.983333	1	0.277000
27.000000	1	0.278000
27.016667	1	0.279000
27.033333	1	0.281000
27.050000	1	0.283000
27.066667	1	0.286250
27.083333	1	0.289875
27.100000	1	0.294375
27.116667	1	0.299750
27.133333	1	0.305625
27.150000	1	0.312875
27.166667	1	0.321250
27.183333	1	0.331500
27.200000	1	0.342750
27.216667	1	0.356125
27.233333	1	0.371875
27.250000	1	0.388750
27.266667	1	0.409000
27.283333	1	0.433000
27.300000	1	0.459875
27.316667	1	0.490875
27.333333	1	0.525250
27.350000	1	0.564500
27.366667	1	0.609500
27.383333	1	0.660750
27.400000	1	0.717875
27.416667	1	0.783000
27.433333	1	0.854875
27.450000	1	0.934875
27.466667	1	1.023500
27.483333	1	1.120875
27.500000	1	1.228375
27.516667	1	1.345625
27.533333	1	1.471875
27.550000	1	1.607250
27.566667	1	1.752625
27.583333	1	1.905500
27.600000	1	2.066375
27.616667	1	2.233250
27.633333	1	2.405625
27.650000	1	2.582125
27.666667	1	2.760875
27.683333	1	2.939875
27.700000	1	3.117750
27.716667	1	3.291500
27.733333	1	3.457125
27.750000	1	3.614375
27.766667	1	3.759750
27.783333	1	3.891375
27.800000	1	4.007000
27.816667	1	4.104375
27.833333	1	4.182750
27.850000	1	4.240125
27.866667	1	4.273875
27.883333	1	4.285500
27.900000	1	4.273250
27.916667	1	4.238125
27.933333	1	4.179625
27.950000	1	4.100000
27.966667	1	4.000500
27.983333	1	3.882500
28.000000	1	3.748750
28.016667	1	3.600750
28.033333	1	3.441250
28.050000	1	3.271125
28.066667	1	3.095000
28.083333	1	2.915875
28.100000	1	2.734500
28.116667	1	2.553125
28.133333	1	2.375000
28.150000	1	2.200375
28.166667	1	2.032125
28.183333	1	1.872000
28.200000	1	1.719750
28.216667	1	1.576625
28.233333	1	1.443125
28.250000	1	1.318375
28.266667	1	1.203125
28.283333	1	1.097125
28.300000	1	1.000500
28.316667	1	0.913000
28.333333	1	0.834500
28.350000	1	0.763750
28.366667	1	0.701000
28.383333	1	0.646000
28.400000	1	0.597500
28.416667	1	0.554375
28.433333	1	0.517375
28.450000	1	0.486125
28.466667	1	0.458875
28.483333	1	0.435625
28.500000	1	0.417000
28.516667	1	0.402500
28.533333	1	0.390625
28.550000	1	0.382500
28.566667	1	0.376125
28.583333	1	0.372250
28.600000	1	0.371250
28.616667	1	0.371750
28.633333	1	0.373375
28.650000	1	0.377500
28.666667	1	0.382375
28.683333	1	0.388500
28.700000	1	0.395375
28.716667	1	0.403125
28.733333	1	0.411250
28.750000	1	0.419625
28.766667	1	0.428000
28.783333	1	0.437250
28.800000	1	0.445500
28.816667	1	0.454000
28.833333	1	0.461250
28.850000	1	0.468375
28.866667	1	0.475375
28.883333	1	0.481000
28.900000	1	0.486500
28.916667	1	0.490750
28.933333	1	0.493250
28.950000	1	0.493750
28.966667	1	0.494625
28.983333	1	0.493125
29.000000	1	0.490250
29.016667	1	0.485750
29.033333	1	0.480625
29.050000	1	0.473125
29.066667	1	0.464500
29.083333	1	0.453375
29.100000	1	0.440750
29.116667	1	0.425875
29.133333	1	0.409375
29.150000	1	0.390875
29.166667	1	0.370375
29.183333	1	0.348125
29.200000	1	0.323500
29.216667	1	0.297125
29.233333	1	0.267375
29.250000	1	0.236375
29.266667	1	0.203000
29.283333	1	0.167500
29.300000	1	0.129875
29.316667	1	0.089250
29.333333	1	0.046625
29.350000	1	0.002625
29.366667	1	-0.042375
29.383333	1	-0.090000
29.400000	1	-0.138875
29.416667	1	-0.189000
29.433333	1	-0.240750
29.450000	1	-0.293250
29.466667	1	-0.346750
29.483333	1	-0.401000
29.500000	1	-0.454750
29.516667	1	-0.507500
29.533333	1	-0.559875
29.550000	1	-0.610750
29.566667	1	-0.660250
29.583333	1	-0.708000
29.600000	1	-0.753000
29.616667	1	-0.796125
29.633333	1	-0.836375
29.650000	1	-0.872750
29.666667	1	-0.905375
29.683333	1	-0.934125
29.700000	1	-0.958750
29.716667	1	-0.978750
29.733333	1	-0.993875
29.750000	1	-1.006125
29.766667	1	-1.013375
29.783333	1	-1.015000
29.800000	1	-1.013000
29.816667	1	-1.006750
29.833333	1	-0.995750
29.850000	1	-0.980875
29.866667	1	-0.962125
29.883333	1	-0.940375
29.900000	1	-0.915375
29.916667	1	-0.887125
29.933333	1	-0.856750
29.950000	1	-0.823875
29.966667	1	-0.789500
29.983333	1	-0.753000
30.000000	1	-0.716250
30.016667	1	-0.678000
30.033333	1	-0.640375
30.050000	1	-0.601250
30.066667	1	-0.562000
30.083333	1	-0.524125
30.100000	1	-0.486375
30.116667	1	-0.449750
30.133333	1	-0.414875
30.150000	1	-0.380625
30.166667	1	-0.347250
30.183333	1	-0.316125
30.200000	1	-0.285875
30.216667	1	-0.256875
30.233333	1	-0.230125
30.250000	1	-0.204750
30.266667	1	-0.179875
30.283333	1	-0.157250
30.300000	1	-0.136500
30.316667	1	-0.116625
30.333333	1	-0.098125
30.350000	1	-0.080500
30.366667	1	-0.065000
30.383333	1	-0.050000
30.400000	1	-0.035875
30.416667	1	-0.022500
30.433333	1	-0.010000
30.450000	1	0.002250
30.466667	1	0.013750
30.483333	1	0.024000
30.500000	1	0.033750
30.516667	1	0.043625
30.533333	1	0.053000
30.550000	1	0.062000
30.566667	1	0.071250
30.583333	1	0.080375
30.600000	1	0.089125
30.616667	1	0.098375
30.633333	1	0.106750
30.650000	1	0.115125
30.666667	1	0.123625
30.683333	1	0.132500
30.700000	1	0.142000
30.716667	1	0.151250
30.733333	1	0.160250
30.750000	1	0.169750
30.766667	1	0.179250
30.783333	1	0.189500
30.800000	1	0.199750
30.816667	1	0.211000
30.833333	1	0.222375
30.850000	1	0.233875
30.866667	1	0.246625
30.883333	1	0.259125
30.900000	1	0.272875
30.916667	1	0.288000
30.933333	1	0.303375
30.950000	1	0.321000
30.966667	1	0.340125
30.983333	1	0.360500
31.000000	1	0.383500
31.016667	1	0.409125
31.033333	1	0.436875
31.050000	1	0.467750
31.066667	1	0.501875
31.083333	1	0.539500
31.100000	1	0.581250
31.116667	1	0.627750
31.133333	1	0.679250
31.150000	1	0.735375
31.166667	1	0.797875
31.183333	1	0.864875
31.200000	1	0.938500
31.216667	1	1.017500
31.233333	1	1.103750
31.250000	1	1.194875
31.266667	1	1.291750
31.283333	1	1.394750
31.300000	1	1.502125
31.316667	1	1.614875
31.333333	1	1.730875
31.350000	1	1.850375
31.366667	1	1.971125
31.383333	1	2.094000
31.400000	1	2.216750
31.416667	1	2.339000
31.433333	1	2.459000
31.450000	1	2.575250
31.466667	1	2.685625
31.483333	1	2.790000
31.500000	1	2.886125
31.516667	1	2.973250
31.533333	1	3.050500
31.550000	1	3.117125
31.566667	1	3.171500
31.583333	1	3.213500
31.600000	1	3.241875
31.616667	1	3.256750
31.633333	1	3.258500
31.650000	1	3.246625
31.666667	1	3.221250
31.683333	1	3.183000
31.700000	1	3.132125
31.716667	1	3.070375
31.733333	1	2.998500
31.750000	1	2.917625
31.766667	1	2.827750
31.783333	1	2.731500
31.800000	1	2.628125
31.816667	1	2.519375
31.833333	1	2.407125
31.850000	1	2.292625
31.866667	1	2.176875
31.883333	1	2.061375
31.900000	1	1.945750
31.916667	1	1.832125
31.933333	1	1.720250
31.950000	1	1.612000
31.966667	1	1.506875
31.983333	1	1.405875
32.000000	1	1.308000
32.016667	1	1.215375
32.033333	1	1.126500
32.050000	1	1.042500
32.066667	1	0.962625
32.083333	1	0.888750
32.100000	1	0.818625
32.116667	1	0.753625
32.133333	1	0.692375
32.150000	1	0.634875
32.166667	1	0.582250
32.183333	1	0.533000
32.200000	1	0.487375
32.216667	1	0.445250
32.233333	1	0.406375
32.250000	1	0.369625
32.266667	1	0.336625
32.283333	1	0.305625
32.300000	1	0.278250
32.316667	1	0.252500
32.333333	1	0.229250
32.350000	1	0.207375
32.366667	1	0.187625
32.383333	1	0.170375
32.400000	1	0.154625
32.416667	1	0.139625
32.433333	1	0.126250
32.450000	1	0.113875
32.466667	1	0.103250
32.483333	1	0.093500
32.500000	1	0.084750
32.516667	1	0.077250
32.533333	1	0.070250
32.550000	1	0.063875
32.566667	1	0.058750
32.583333	1	0.054125
32.600000	1	0.050500
32.616667	1	0.047000
32.633333	1	0.044250
32.650000	1	0.041000
32.666667	1	0.038625
32.683333	1	0.037125
32.700000	1	0.035250
32.716667	1	0.034000
32.733333	1	0.032750
32.750000	1	0.032125
32.766667	1	0.031375
32.783333	1	0.031250
32.800000	1	0.030250
32.816667	1	0.029375
32.833333	1	0.028750
32.850000	1	0.027875
32.866667	1	0.026750
32.883333	1	0.026250
32.900000	1	0.025250
32.916667	1	0.023500
32.933333	1	0.022625
32.950000	1	0.021500
32.966667	1	0.020375
32.983333	1	0.019125
33.000000	1	0.017625
33.016667	1	0.015375
33.033333	1	0.014125
33.050000	1	0.012000
33.066667	1	0.010250
33.083333	1	0.008000
33.100000	1	0.005625
33.116667	1	0.003875
33.133333	1	0.002250
33.150000	1	0.000125
33.166667	1	-0.001625
33.183333	1	-0.003625
33.200000	1	-0.005500
33.216667	1	-0.007500
33.233333	1	-0.009250
33.250000	1	-0.011000
33.266667	1	-0.012500
33.283333	1	-0.012750
33.300000	1	-0.013750
33.316667	1	-0.014250
33.333333	1	-0.015125
33.350000	1	-0.014375
33.366667	1	-0.013750
33.383333	1	-0.013125
33.400000	1	-0.013000
33.416667	1	-0.012000
33.433333	1	-0.011500
33.450000	1	-0.010500
33.466667	1	-0.008250
33.483333	1	-0.005875
33.500000	1	-0.003500
33.516667	1	-0.000875
33.533333	1	0.001750
33.550000	1	0.004125
33.566667	1	0.006875
33.583333	1	0.010000
33.600000	1	0.014125
33.616667	1	0.017250
33.633333	1	0.021500
33.650000	1	0.024875
33.666667	1	0.028875
33.683333	1	0.032000
33.700000	1	0.036625
33.716667	1	0.040375
33.733333	1	0.043625
33.750000	1	0.047500
33.766667	1	0.051500
33.783333	1	0.055500
33.800000	1	0.059500
33.816667	1	0.062875
33.833333	1	0.066250
33.850000	1	0.070125
33.866667	1	0.074125
33.883333	1	0.077750
33.900000	1	0.080875
33.916667	1	0.084750
33.933333	1	0.086875
33.950000	1	0.089250
33.966667	1	0.092750
33.983333	1	0.096000
34.000000	1	0.098375
34.016667	1	0.100750
34.033333	1	0.102875
34.050000	1	0.105500
34.066667	1	0.107250
34.083333	1	0.110250
34.100000	1	0.111750
34.116667	1	0.113500
34.133333	1	0.115250
34.150000	1	0.116625
34.166667	1	0.117875
34.183333	1	0.119500
34.200000	1	0.121125
34.216667	1	0.122250
34.233333	1	0.123125
34.250000	1	0.123375
34.266667	1	0.123750
34.283333	1	0.124500
34.300000	1	0.124500
34.316667	1	0.124750
34.333333	1	0.125375
34.350000	1	0.125500
34.366667	1	0.125625
34.383333	1	0.124875
34.400000	1	0.124500
34.416667	1	0.123625
34.433333	1	0.123375
34.450000	1	0.122750
34.466667	1	0.122375
34.483333	1	0.121000
34.500000	1	0.120250
34.516667	1	0.119875
34.533333	1	0.119625
34.550000	1	0.118875
34.566667	1	0.117625
34.583333	1	0.116250
34.600000	1	0.115125
34.616667	1	0.114125
34.633333	1	0.112000
34.650000	1	0.110375
34.666667	1	0.109125
34.683333	1	0.107625
34.700000	1	0.106250
34.716667	1	0.104375
34.733333	1	0.102250
34.750000	1	0.100125
34.766667	1	0.098000
34.783333	1	0.096000
34.800000	1	0.094000
34.816667	1	0.092250
34.833333	1	0.090000
34.850000	1	0.087750
34.866667	1	0.085375
34.883333	1	0.083250
34.900000	1	0.081625
34.916667	1	0.079500
34.933333	1	0.077625
34.950000	1	0.075250
34.966667	1	0.073750
34.983333	1	0.071500
35.000000	1	0.070375
35.016667	1	0.068625
35.033333	1	0.066750
35.050000	1	0.065000
35.066667	1	0.063875
35.083333	1	0.063000
35.100000	1	0.062750
35.116667	1	0.062500
35.133333	1	0.061875
35.150000	1	0.061625
35.166667	1	0.061250
35.183333	1	0.060875
35.200000	1	0.061000
35.216667	1	0.061625
35.233333	1	0.062000
35.250000	1	0.062250
35.266667	1	0.062125
35.283333	1	0.062125
35.300000	1	0.062875
35.316667	1	0.063125
35.333333	1	0.063750
35.350000	1	0.064500
35.366667	1	0.064375
35.383333	1	0.065375
35.400000	1	0.065250
35.416667	1	0.065125
35.433333	1	0.065500
35.450000	1	0.066000
35.466667	1	0.067125
35.483333	1	0.066875
35.500000	1	0.066750
35.516667	1	0.066875
35.533333	1	0.067250
35.550000	1	0.068125
35.566667	1	0.069125
35.583333	1	0.069875
35.600000	1	0.071125
35.616667	1	0.072250
35.633333	1	0.072875
35.650000	1	0.073500
35.666667	1	0.074625
35.683333	1	0.076250
35.700000	1	0.077375
35.716667	1	0.078875
35.733333	1	0.080250
35.750000	1	0.081875
35.766667	1	0.084250
35.783333	1	0.085625
35.800000	1	0.087500
35.816667	1	0.088875
35.833333	1	0.091250
35.850000	1	0.093000
35.866667	1	0.095625
35.883333	1	0.097750
35.900000	1	0.100500
35.916667	1	0.102750
35.933333	1	0.105500
35.950000	1	0.107125
35.966667	1	0.109625
35.983333	1	0.112250
36.000000	1	0.115000
36.016667	1	0.118125
36.033333	1	0.120250
36.050000	1	0.122875
36.066667	1	0.125000
36.083333	1	0.127625
36.100000	1	0.130375
36.116667	1	0.132750
36.133333	1	0.135125
36.150000	1	0.136875
36.166667	1	0.138875
36.183333	1	0.140875
36.200000	1	0.142125
36.216667	1	0.144000
36.233333	1	0.144750
36.250000	1	0.145500
36.266667	1	0.145500
36.283333	1	0.146000
36.300000	1	0.145750
36.316667	1	0.145250
36.333333	1	0.144625
36.350000	1	0.143375
36.366667	1	0.142250
36.383333	1	0.140750
36.400000	1	0.138875
36.416667	1	0.136250
36.433333	1	0.133625
36.450000	1	0.130375
36.466667	1	0.128250
36.483333	1	0.124625
36.500000	1	0.120875
36.516667	1	0.116625
36.533333	1	0.112125
36.550000	1	0.107500
36.566667	1	0.103750
36.583333	1	0.098875
36.600000	1	0.094000
36.616667	1	0.089125
36.633333	1	0.084500
36.650000	1	0.078875
36.666667	1	0.074250
36.683333	1	0.069625
36.700000	1	0.064250
36.716667	1	0.060000
36.733333	1	0.055250
36.750000	1	0.050250
36.766667	1	0.045125
36.783333	1	0.040375
36.800000	1	0.036250
36.816667	1	0.032125
36.833333	1	0.028500
36.850000	1	0.024875
36.866667	1	0.021875
36.883333	1	0.019750
36.900000	1	0.017000
36.916667	1	0.015000
36.933333	1	0.012750
36.950000	1	0.011125
36.966667	1	0.010375
36.983333	1	0.008500
37.000000	1	0.007250
37.016667	1	0.007000
37.033333	1	0.006000
37.050000	1	0.005875
37.066667	1	0.006250
37.083333	1	0.006500
37.100000	1	0.006875
37.116667	1	0.007250
37.133333	1	0.008500
37.150000	1	0.009250
37.166667	1	0.010125
37.183333	1	0.011000
37.200000	1	0.011500
37.216667	1	0.012250
37.233333	1	0.013000
37.250000	1	0.013500
37.266667	1	0.015250
37.283333	1	0.016250
37.300000	1	0.017250
37.316667	1	0.018625
37.333333	1	0.019750
37.350000	1	0.020625
37.366667	1	0.021750
37.383333	1	0.022125
37.400000	1	0.022875
37.416667	1	0.023750
37.433333	1	0.024500
37.450000	1	0.025250
37.466667	1	0.025875
37.483333	1	0.026250
37.500000	1	0.026375
37.516667	1	0.027375
37.533333	1	0.027875
37.550000	1	0.028000
37.566667	1	0.028250
37.583333	1	0.028125
37.600000	1	0.028625
37.616667	1	0.029500
37.633333	1	0.029625
37.650000	1	0.029875
37.666667	1	0.029375
37.683333	1	0.029375
37.700000	1	0.029625
37.716667	1	0.029500
37.733333	1	0.029125
37.750000	1	0.028500
37.766667	1	0.028125
37.783333	1	0.027500
37.800000	1	0.026625
37.816667	1	0.025375
37.833333	1	0.024875
37.850000	1	0.024375
37.866667	1	0.023375
37.883333	1	0.022750
37.900000	1	0.022000
37.916667	1	0.021000
37.933333	1	0.019250
37.950000	1	0.018125
37.966667	1	0.017000
37.983333	1	0.016000
38.000000	1	0.015250
38.016667	1	0.014375
38.033333	1	0.013750
38.050000	1	0.012375
38.066667	1	0.012000
38.083333	1	0.010875
38.100000	1	0.010500
38.116667	1	0.009875
38.133333	1	0.009375
38.150000	1	0.008500
38.166667	1	0.008125
38.183333	1	0.007750
38.200000	1	0.007375
38.216667	1	0.006750
38.233333	1	0.006750
38.250000	1	0.006875
38.266667	1	0.006875
38.283333	1	0.006875
38.300000	1	0.006500
38.316667	1	0.006625
38.333333	1	0.007375
38.350000	1	0.007625
38.366667	1	0.007500
38.383333	1	0.007375
38.400000	1	0.007875
38.416667	1	0.007750
38.433333	1	0.008000
38.450000	1	0.008625
38.466667	1	0.009250
38.483333	1	0.009875
38.500000	1	0.010750
38.516667	1	0.011250
38.533333	1	0.011625
38.550000	1	0.011750
38.566667	1	0.011625
38.583333	1	0.011625
38.600000	1	0.012125
38.616667	1	0.012500
38.633333	1	0.012875
38.650000	1	0.012875
38.666667	1	0.012750
38.683333	1	0.013250
38.700000	1	0.013625
38.716667	1	0.013750
38.733333	1	0.013500
38.750000	1	0.012750
38.766667	1	0.012875
38.783333	1	0.012250
38.800000	1	0.011125
38.816667	1	0.010750
38.833333	1	0.009625
38.850000	1	0.008375
38.866667	1	0.007750
38.883333	1	0.007125
38.900000	1	0.005125
38.916667	1	0.004625
38.933333	1	0.003500
38.950000	1	0.002000
38.966667	1	0.000125
38.983333	1	-0.001625
39.000000	1	-0.003500
39.016667	1	-0.005250
39.033333	1	-0.007375
39.050000	1	-0.009000
39.066667	1	-0.011000
39.083333	1	-0.012625
39.100000	1	-0.014250
39.116667	1	-0.016125
39.133333	1	-0.017875
39.150000	1	-0.019500
39.166667	1	-0.021125
39.183333	1	-0.022250
39.200000	1	-0.023625
39.216667	1	-0.025250
39.233333	1	-0.026250
39.250000	1	-0.027125
39.266667	1	-0.027625
39.283333	1	-0.028000
39.300000	1	-0.028125
39.316667	1	-0.028000
39.333333	1	-0.027875
39.350000	1	-0.028250
39.366667	1	-0.028625
39.383333	1	-0.029250
39.400000	1	-0.029000
39.416667	1	-0.028500
39.433333	1	-0.028250
39.450000	1	-0.027625
39.466667	1	-0.027500
39.483333	1	-0.027750
39.500000	1	-0.027375
39.516667	1	-0.026750
39.533333	1	-0.026625
39.550000	1	-0.026500
39.566667	1	-0.026375
39.583333	1	-0.026500
39.600000	1	-0.026125
39.616667	1	-0.026125
39.633333	1	-0.026375
39.650000	1	-0.026000
39.666667	1	-0.025875
39.683333	1	-0.025625
39.700000	1	-0.025750
39.716667	1	-0.026125
39.733333	1	-0.026250
39.750000	1	-0.026250
39.766667	1	-0.027125
39.783333	1	-0.027250
39.800000	1	-0.027000
39.816667	1	-0.026500
39.833333	1	-0.026625
39.850000	1	-0.026875
39.866667	1	-0.027250
39.883333	1	-0.027375
39.900000	1	-0.026875
39.916667	1	-0.027125
39.933333	1	-0.027500
39.950000	1	-0.027875
39.966667	1	-0.028250
39.983333	1	-0.028750
40.000000	1	-0.028750
