URL	chrom://bioreactor/micro_cm7/HPLC_Ultimate_3000/Users/markusar/20240517_CMO_FP23_FP25_MarkusDeplate.seq/726.smp/RI_1.channel/RI_1.chm
Channel	RI_1

Injection Information:
Data Vault	micro_cm7
Sequence	20240517_CMO_FP23_FP25_MarkusDeplate
Name	FP28_22.3_s1
Number	145
Position	BA11
Comment	
Processing Method	
Instrument Method	run_25B_method
Type	Unknown
Status	Finished
Inject Time	31.05.2024 22:08:27 +02:00
Volume (µl)	20.0000
Dilution Factor	1.0000
Weight	1.0000

Chromatogram Data Information:
Time Min. (min)	0.000000
Time Max. (min)	40.000000
Data Points	2401
Detector	RI
Generating Data System	Chromeleon 7.3.2.11814
Exporting Data System	Chromeleon 7.3.2.0
Operator	Instrument Controller
Signal Quantity	Refractive 
Signal Unit	µRIU
Signal Min.	-1.111125
Signal Max.	63.448000
Channel	RI_1
Driver Name	RID520Driver.dll
Channel Type	Evaluation
Min. Step (s)	1
Max. Step (s)	1
Average Step (s)	1

Signal Parameter Information:
Signal Info	

Chromatogram Data:
Time (min)	Step (s)	Value (µRIU)
0.000000	n.a.	0.017875
0.016667	1	0.017500
0.033333	1	0.017750
0.050000	1	0.017875
0.066667	1	0.018625
0.083333	1	0.018625
0.100000	1	0.018875
0.116667	1	0.020000
0.133333	1	0.020750
0.150000	1	0.021500
0.166667	1	0.022000
0.183333	1	0.022125
0.200000	1	0.021625
0.216667	1	0.021750
0.233333	1	0.022250
0.250000	1	0.022875
0.266667	1	0.023625
0.283333	1	0.023750
0.300000	1	0.024250
0.316667	1	0.024250
0.333333	1	0.025000
0.350000	1	0.023875
0.366667	1	0.022875
0.383333	1	0.022375
0.400000	1	0.021625
0.416667	1	0.020000
0.433333	1	0.019125
0.450000	1	0.018000
0.466667	1	0.016500
0.483333	1	0.015250
0.500000	1	0.013625
0.516667	1	0.012875
0.533333	1	0.011250
0.550000	1	0.010625
0.566667	1	0.008625
0.583333	1	0.006500
0.600000	1	0.004625
0.616667	1	0.003000
0.633333	1	0.001375
0.650000	1	0.000000
0.666667	1	-0.001125
0.683333	1	-0.002375
0.700000	1	-0.003250
0.716667	1	-0.004625
0.733333	1	-0.005125
0.750000	1	-0.005875
0.766667	1	-0.006750
0.783333	1	-0.007750
0.800000	1	-0.008250
0.816667	1	-0.008250
0.833333	1	-0.008250
0.850000	1	-0.008125
0.866667	1	-0.007750
0.883333	1	-0.007250
0.900000	1	-0.006750
0.916667	1	-0.006500
0.933333	1	-0.006125
0.950000	1	-0.005750
0.966667	1	-0.005250
0.983333	1	-0.005625
1.000000	1	-0.005250
1.016667	1	-0.004375
1.033333	1	-0.004000
1.050000	1	-0.002750
1.066667	1	-0.002625
1.083333	1	-0.001250
1.100000	1	-0.000875
1.116667	1	-0.000125
1.133333	1	0.000125
1.150000	1	0.000500
1.166667	1	0.001000
1.183333	1	0.001375
1.200000	1	0.001625
1.216667	1	0.001375
1.233333	1	0.001625
1.250000	1	0.002375
1.266667	1	0.002625
1.283333	1	0.003375
1.300000	1	0.003375
1.316667	1	0.003625
1.333333	1	0.003500
1.350000	1	0.003375
1.366667	1	0.003625
1.383333	1	0.003250
1.400000	1	0.002875
1.416667	1	0.003000
1.433333	1	0.003500
1.450000	1	0.003625
1.466667	1	0.003250
1.483333	1	0.002125
1.500000	1	0.001625
1.516667	1	0.000875
1.533333	1	0.000625
1.550000	1	0.000125
1.566667	1	0.000000
1.583333	1	-0.000250
1.600000	1	-0.000375
1.616667	1	-0.000500
1.633333	1	-0.000250
1.650000	1	-0.000250
1.666667	1	-0.000250
1.683333	1	0.000125
1.700000	1	0.000000
1.716667	1	-0.000125
1.733333	1	0.000000
1.750000	1	-0.000500
1.766667	1	-0.000500
1.783333	1	0.000000
1.800000	1	-0.000500
1.816667	1	-0.000250
1.833333	1	-0.000625
1.850000	1	-0.000250
1.866667	1	-0.000750
1.883333	1	-0.000125
1.900000	1	-0.000625
1.916667	1	-0.001750
1.933333	1	-0.001500
1.950000	1	-0.001750
1.966667	1	-0.002625
1.983333	1	-0.003250
2.000000	1	-0.003375
2.016667	1	-0.004500
2.033333	1	-0.005000
2.050000	1	-0.006000
2.066667	1	-0.006750
2.083333	1	-0.007375
2.100000	1	-0.008500
2.116667	1	-0.010625
2.133333	1	-0.011875
2.150000	1	-0.013125
2.166667	1	-0.014500
2.183333	1	-0.016000
2.200000	1	-0.017750
2.216667	1	-0.019375
2.233333	1	-0.020875
2.250000	1	-0.022625
2.266667	1	-0.024250
2.283333	1	-0.025500
2.300000	1	-0.027000
2.316667	1	-0.028625
2.333333	1	-0.030500
2.350000	1	-0.031875
2.366667	1	-0.033500
2.383333	1	-0.035500
2.400000	1	-0.036375
2.416667	1	-0.037500
2.433333	1	-0.037875
2.450000	1	-0.037750
2.466667	1	-0.038875
2.483333	1	-0.039625
2.500000	1	-0.040375
2.516667	1	-0.040500
2.533333	1	-0.040125
2.550000	1	-0.039375
2.566667	1	-0.039125
2.583333	1	-0.038125
2.600000	1	-0.037375
2.616667	1	-0.036125
2.633333	1	-0.034125
2.650000	1	-0.032375
2.666667	1	-0.031125
2.683333	1	-0.029250
2.700000	1	-0.027000
2.716667	1	-0.025125
2.733333	1	-0.023875
2.750000	1	-0.022125
2.766667	1	-0.019125
2.783333	1	-0.016375
2.800000	1	-0.013875
2.816667	1	-0.011750
2.833333	1	-0.009750
2.850000	1	-0.008250
2.866667	1	-0.006125
2.883333	1	-0.004375
2.900000	1	-0.003000
2.916667	1	-0.001875
2.933333	1	-0.000875
2.950000	1	0.000000
2.966667	1	0.000875
2.983333	1	0.000750
3.000000	1	0.001625
3.016667	1	0.002000
3.033333	1	0.001875
3.050000	1	0.001750
3.066667	1	0.001375
3.083333	1	0.001375
3.100000	1	0.001125
3.116667	1	0.000875
3.133333	1	0.000500
3.150000	1	-0.000125
3.166667	1	-0.000375
3.183333	1	0.000000
3.200000	1	0.000750
3.216667	1	0.001000
3.233333	1	0.001750
3.250000	1	0.002375
3.266667	1	0.004000
3.283333	1	0.005000
3.300000	1	0.006250
3.316667	1	0.008250
3.333333	1	0.009875
3.350000	1	0.012000
3.366667	1	0.014250
3.383333	1	0.015875
3.400000	1	0.017625
3.416667	1	0.020500
3.433333	1	0.023500
3.450000	1	0.026625
3.466667	1	0.029250
3.483333	1	0.031500
3.500000	1	0.033875
3.516667	1	0.036125
3.533333	1	0.038875
3.550000	1	0.040875
3.566667	1	0.043125
3.583333	1	0.045000
3.600000	1	0.047125
3.616667	1	0.049000
3.633333	1	0.050375
3.650000	1	0.051000
3.666667	1	0.052250
3.683333	1	0.053625
3.700000	1	0.054500
3.716667	1	0.055250
3.733333	1	0.055500
3.750000	1	0.056000
3.766667	1	0.056125
3.783333	1	0.056000
3.800000	1	0.056500
3.816667	1	0.056875
3.833333	1	0.057125
3.850000	1	0.056875
3.866667	1	0.056375
3.883333	1	0.055875
3.900000	1	0.055625
3.916667	1	0.054500
3.933333	1	0.053750
3.950000	1	0.052750
3.966667	1	0.051875
3.983333	1	0.052125
4.000000	1	0.051750
4.016667	1	0.051250
4.033333	1	0.050375
4.050000	1	0.049875
4.066667	1	0.049625
4.083333	1	0.048750
4.100000	1	0.048000
4.116667	1	0.047625
4.133333	1	0.047500
4.150000	1	0.047875
4.166667	1	0.047625
4.183333	1	0.048250
4.200000	1	0.049000
4.216667	1	0.049000
4.233333	1	0.049500
4.250000	1	0.049500
4.266667	1	0.049375
4.283333	1	0.050500
4.300000	1	0.050875
4.316667	1	0.051875
4.333333	1	0.053000
4.350000	1	0.052875
4.366667	1	0.052875
4.383333	1	0.052625
4.400000	1	0.053625
4.416667	1	0.053500
4.433333	1	0.054500
4.450000	1	0.055000
4.466667	1	0.055125
4.483333	1	0.055125
4.500000	1	0.055375
4.516667	1	0.055000
4.533333	1	0.055500
4.550000	1	0.055750
4.566667	1	0.056625
4.583333	1	0.056500
4.600000	1	0.056500
4.616667	1	0.057125
4.633333	1	0.057125
4.650000	1	0.057375
4.666667	1	0.058250
4.683333	1	0.059000
4.700000	1	0.059500
4.716667	1	0.061125
4.733333	1	0.061750
4.750000	1	0.064000
4.766667	1	0.065625
4.783333	1	0.067250
4.800000	1	0.069500
4.816667	1	0.071000
4.833333	1	0.072375
4.850000	1	0.074875
4.866667	1	0.077625
4.883333	1	0.080125
4.900000	1	0.082625
4.916667	1	0.085000
4.933333	1	0.087750
4.950000	1	0.090000
4.966667	1	0.092875
4.983333	1	0.096375
5.000000	1	0.100125
5.016667	1	0.104250
5.033333	1	0.107625
5.050000	1	0.110875
5.066667	1	0.115125
5.083333	1	0.119000
5.100000	1	0.122875
5.116667	1	0.126750
5.133333	1	0.131375
5.150000	1	0.136000
5.166667	1	0.140500
5.183333	1	0.145250
5.200000	1	0.150000
5.216667	1	0.155000
5.233333	1	0.159750
5.250000	1	0.165500
5.266667	1	0.171500
5.283333	1	0.175625
5.300000	1	0.181500
5.316667	1	0.187000
5.333333	1	0.192375
5.350000	1	0.197375
5.366667	1	0.202625
5.383333	1	0.208500
5.400000	1	0.214000
5.416667	1	0.220250
5.433333	1	0.225500
5.450000	1	0.231250
5.466667	1	0.236125
5.483333	1	0.241375
5.500000	1	0.247125
5.516667	1	0.252625
5.533333	1	0.257875
5.550000	1	0.263750
5.566667	1	0.269250
5.583333	1	0.274625
5.600000	1	0.280000
5.616667	1	0.285000
5.633333	1	0.289875
5.650000	1	0.293875
5.666667	1	0.297625
5.683333	1	0.301375
5.700000	1	0.304500
5.716667	1	0.307000
5.733333	1	0.310250
5.750000	1	0.312000
5.766667	1	0.313875
5.783333	1	0.315500
5.800000	1	0.317000
5.816667	1	0.317375
5.833333	1	0.317750
5.850000	1	0.317125
5.866667	1	0.317750
5.883333	1	0.316750
5.900000	1	0.315500
5.916667	1	0.314125
5.933333	1	0.312125
5.950000	1	0.310000
5.966667	1	0.307375
5.983333	1	0.304625
6.000000	1	0.301500
6.016667	1	0.297750
6.033333	1	0.294125
6.050000	1	0.291000
6.066667	1	0.286500
6.083333	1	0.282750
6.100000	1	0.278000
6.116667	1	0.273875
6.133333	1	0.269375
6.150000	1	0.264375
6.166667	1	0.259375
6.183333	1	0.254750
6.200000	1	0.249125
6.216667	1	0.244000
6.233333	1	0.238750
6.250000	1	0.233000
6.266667	1	0.227625
6.283333	1	0.222625
6.300000	1	0.217375
6.316667	1	0.212000
6.333333	1	0.206625
6.350000	1	0.201375
6.366667	1	0.196250
6.383333	1	0.190625
6.400000	1	0.185125
6.416667	1	0.179500
6.433333	1	0.174875
6.450000	1	0.169250
6.466667	1	0.163875
6.483333	1	0.158250
6.500000	1	0.153500
6.516667	1	0.148000
6.533333	1	0.143375
6.550000	1	0.138250
6.566667	1	0.133500
6.583333	1	0.129375
6.600000	1	0.124875
6.616667	1	0.120375
6.633333	1	0.116625
6.650000	1	0.112125
6.666667	1	0.108625
6.683333	1	0.105375
6.700000	1	0.102250
6.716667	1	0.099375
6.733333	1	0.096125
6.750000	1	0.094125
6.766667	1	0.091750
6.783333	1	0.090000
6.800000	1	0.088500
6.816667	1	0.087125
6.833333	1	0.086000
6.850000	1	0.084750
6.866667	1	0.083500
6.883333	1	0.082375
6.900000	1	0.082250
6.916667	1	0.082250
6.933333	1	0.082375
6.950000	1	0.083125
6.966667	1	0.084375
6.983333	1	0.085000
7.000000	1	0.085625
7.016667	1	0.087750
7.033333	1	0.088750
7.050000	1	0.090875
7.066667	1	0.093000
7.083333	1	0.095375
7.100000	1	0.097750
7.116667	1	0.100750
7.133333	1	0.104125
7.150000	1	0.107625
7.166667	1	0.111250
7.183333	1	0.114750
7.200000	1	0.119000
7.216667	1	0.123875
7.233333	1	0.129125
7.250000	1	0.134125
7.266667	1	0.139250
7.283333	1	0.144750
7.300000	1	0.150125
7.316667	1	0.155375
7.333333	1	0.160625
7.350000	1	0.165750
7.366667	1	0.171000
7.383333	1	0.176625
7.400000	1	0.182250
7.416667	1	0.187375
7.433333	1	0.192125
7.450000	1	0.196625
7.466667	1	0.201125
7.483333	1	0.205500
7.500000	1	0.209000
7.516667	1	0.212375
7.533333	1	0.215625
7.550000	1	0.218875
7.566667	1	0.220250
7.583333	1	0.221875
7.600000	1	0.222000
7.616667	1	0.222375
7.633333	1	0.222000
7.650000	1	0.221500
7.666667	1	0.218875
7.683333	1	0.216875
7.700000	1	0.213875
7.716667	1	0.211000
7.733333	1	0.206875
7.750000	1	0.203000
7.766667	1	0.198875
7.783333	1	0.193750
7.800000	1	0.188875
7.816667	1	0.183875
7.833333	1	0.178250
7.850000	1	0.171625
7.866667	1	0.166000
7.883333	1	0.160000
7.900000	1	0.153625
7.916667	1	0.147750
7.933333	1	0.142625
7.950000	1	0.137625
7.966667	1	0.132750
7.983333	1	0.128500
8.000000	1	0.124000
8.016667	1	0.120125
8.033333	1	0.116125
8.050000	1	0.112000
8.066667	1	0.109250
8.083333	1	0.106375
8.100000	1	0.103250
8.116667	1	0.100875
8.133333	1	0.098375
8.150000	1	0.096375
8.166667	1	0.094625
8.183333	1	0.092625
8.200000	1	0.091375
8.216667	1	0.090250
8.233333	1	0.088625
8.250000	1	0.088000
8.266667	1	0.087500
8.283333	1	0.087375
8.300000	1	0.086500
8.316667	1	0.085500
8.333333	1	0.085000
8.350000	1	0.085000
8.366667	1	0.084875
8.383333	1	0.084500
8.400000	1	0.084125
8.416667	1	0.083500
8.433333	1	0.082875
8.450000	1	0.082125
8.466667	1	0.080875
8.483333	1	0.080125
8.500000	1	0.079625
8.516667	1	0.078875
8.533333	1	0.077625
8.550000	1	0.076625
8.566667	1	0.075625
8.583333	1	0.073875
8.600000	1	0.072500
8.616667	1	0.070750
8.633333	1	0.069125
8.650000	1	0.067000
8.666667	1	0.065875
8.683333	1	0.064000
8.700000	1	0.062750
8.716667	1	0.061125
8.733333	1	0.060000
8.750000	1	0.058500
8.766667	1	0.056625
8.783333	1	0.055125
8.800000	1	0.054375
8.816667	1	0.053125
8.833333	1	0.052375
8.850000	1	0.051125
8.866667	1	0.050750
8.883333	1	0.050250
8.900000	1	0.049250
8.916667	1	0.048625
8.933333	1	0.048625
8.950000	1	0.048875
8.966667	1	0.048875
8.983333	1	0.049375
9.000000	1	0.049875
9.016667	1	0.050625
9.033333	1	0.051875
9.050000	1	0.052250
9.066667	1	0.053250
9.083333	1	0.054375
9.100000	1	0.055125
9.116667	1	0.056375
9.133333	1	0.057875
9.150000	1	0.058750
9.166667	1	0.059625
9.183333	1	0.061000
9.200000	1	0.061875
9.216667	1	0.062875
9.233333	1	0.063750
9.250000	1	0.064875
9.266667	1	0.065750
9.283333	1	0.066625
9.300000	1	0.067750
9.316667	1	0.068375
9.333333	1	0.069500
9.350000	1	0.069875
9.366667	1	0.070125
9.383333	1	0.070375
9.400000	1	0.071125
9.416667	1	0.071250
9.433333	1	0.071250
9.450000	1	0.071500
9.466667	1	0.070625
9.483333	1	0.070250
9.500000	1	0.070375
9.516667	1	0.069500
9.533333	1	0.069125
9.550000	1	0.069125
9.566667	1	0.068375
9.583333	1	0.067625
9.600000	1	0.066375
9.616667	1	0.064875
9.633333	1	0.063500
9.650000	1	0.062875
9.666667	1	0.062500
9.683333	1	0.061625
9.700000	1	0.060500
9.716667	1	0.060250
9.733333	1	0.059125
9.750000	1	0.059250
9.766667	1	0.058625
9.783333	1	0.058250
9.800000	1	0.058000
9.816667	1	0.057500
9.833333	1	0.057000
9.850000	1	0.056500
9.866667	1	0.056250
9.883333	1	0.056125
9.900000	1	0.056125
9.916667	1	0.055750
9.933333	1	0.055625
9.950000	1	0.055625
9.966667	1	0.056000
9.983333	1	0.056500
10.000000	1	0.057125
10.016667	1	0.058250
10.033333	1	0.060250
10.050000	1	0.062625
10.066667	1	0.065375
10.083333	1	0.068125
10.100000	1	0.072875
10.116667	1	0.077125
10.133333	1	0.082875
10.150000	1	0.088625
10.166667	1	0.096500
10.183333	1	0.105250
10.200000	1	0.116000
10.216667	1	0.127750
10.233333	1	0.140875
10.250000	1	0.156375
10.266667	1	0.173375
10.283333	1	0.193125
10.300000	1	0.215750
10.316667	1	0.241500
10.333333	1	0.268875
10.350000	1	0.297375
10.366667	1	0.324250
10.383333	1	0.349500
10.400000	1	0.370125
10.416667	1	0.386625
10.433333	1	0.396500
10.450000	1	0.403375
10.466667	1	0.414125
10.483333	1	0.440500
10.500000	1	0.500875
10.516667	1	0.626625
10.533333	1	0.859625
10.550000	1	1.253250
10.566667	1	1.867750
10.583333	1	2.767000
10.600000	1	4.012750
10.616667	1	5.654500
10.633333	1	7.728125
10.650000	1	10.249750
10.666667	1	13.221375
10.683333	1	16.626250
10.700000	1	20.427500
10.716667	1	24.563750
10.733333	1	28.944875
10.750000	1	33.441250
10.766667	1	37.872500
10.783333	1	42.000250
10.800000	1	45.534750
10.816667	1	48.145375
10.833333	1	49.521875
10.850000	1	49.442250
10.866667	1	47.847375
10.883333	1	44.871750
10.900000	1	40.836375
10.916667	1	36.167000
10.933333	1	31.296000
10.950000	1	26.580000
10.966667	1	22.261875
10.983333	1	18.465375
11.000000	1	15.229375
11.016667	1	12.537125
11.033333	1	10.340625
11.050000	1	8.573750
11.066667	1	7.167875
11.083333	1	6.056625
11.100000	1	5.180000
11.116667	1	4.489500
11.133333	1	3.943125
11.150000	1	3.508500
11.166667	1	3.158500
11.183333	1	2.874375
11.200000	1	2.640250
11.216667	1	2.445875
11.233333	1	2.281250
11.250000	1	2.139625
11.266667	1	2.017500
11.283333	1	1.911125
11.300000	1	1.817125
11.316667	1	1.733750
11.333333	1	1.659375
11.350000	1	1.593250
11.366667	1	1.534500
11.383333	1	1.481375
11.400000	1	1.434875
11.416667	1	1.392750
11.433333	1	1.355375
11.450000	1	1.322125
11.466667	1	1.292625
11.483333	1	1.266125
11.500000	1	1.242125
11.516667	1	1.220125
11.533333	1	1.201250
11.550000	1	1.183375
11.566667	1	1.168000
11.583333	1	1.153875
11.600000	1	1.141125
11.616667	1	1.130250
11.633333	1	1.120375
11.650000	1	1.112375
11.666667	1	1.105750
11.683333	1	1.100500
11.700000	1	1.096750
11.716667	1	1.095000
11.733333	1	1.094250
11.750000	1	1.095250
11.766667	1	1.097000
11.783333	1	1.099625
11.800000	1	1.103875
11.816667	1	1.109250
11.833333	1	1.115125
11.850000	1	1.120750
11.866667	1	1.126375
11.883333	1	1.131625
11.900000	1	1.136875
11.916667	1	1.143250
11.933333	1	1.148875
11.950000	1	1.155250
11.966667	1	1.160750
11.983333	1	1.166375
12.000000	1	1.172125
12.016667	1	1.178375
12.033333	1	1.185125
12.050000	1	1.192375
12.066667	1	1.200125
12.083333	1	1.208875
12.100000	1	1.217500
12.116667	1	1.225875
12.133333	1	1.235125
12.150000	1	1.244875
12.166667	1	1.255125
12.183333	1	1.265375
12.200000	1	1.276000
12.216667	1	1.288125
12.233333	1	1.301375
12.250000	1	1.316875
12.266667	1	1.335500
12.283333	1	1.356750
12.300000	1	1.381500
12.316667	1	1.410750
12.333333	1	1.446125
12.350000	1	1.489125
12.366667	1	1.541500
12.383333	1	1.605375
12.400000	1	1.684625
12.416667	1	1.782250
12.433333	1	1.902250
12.450000	1	2.048875
12.466667	1	2.228250
12.483333	1	2.446500
12.500000	1	2.705375
12.516667	1	3.007500
12.533333	1	3.353875
12.550000	1	3.739875
12.566667	1	4.159625
12.583333	1	4.602375
12.600000	1	5.053875
12.616667	1	5.498000
12.633333	1	5.917375
12.650000	1	6.294500
12.666667	1	6.613875
12.683333	1	6.862000
12.700000	1	7.030125
12.716667	1	7.113625
12.733333	1	7.114875
12.750000	1	7.039625
12.766667	1	6.897500
12.783333	1	6.699125
12.800000	1	6.458375
12.816667	1	6.187000
12.833333	1	5.896625
12.850000	1	5.597875
12.866667	1	5.297625
12.883333	1	5.002500
12.900000	1	4.718750
12.916667	1	4.449625
12.933333	1	4.199250
12.950000	1	3.969000
12.966667	1	3.760000
12.983333	1	3.573125
13.000000	1	3.405625
13.016667	1	3.257500
13.033333	1	3.125875
13.050000	1	3.010250
13.066667	1	2.907750
13.083333	1	2.816875
13.100000	1	2.735000
13.116667	1	2.662500
13.133333	1	2.596125
13.150000	1	2.536125
13.166667	1	2.480500
13.183333	1	2.428750
13.200000	1	2.380000
13.216667	1	2.334250
13.233333	1	2.291375
13.250000	1	2.249625
13.266667	1	2.210000
13.283333	1	2.171750
13.300000	1	2.135500
13.316667	1	2.099500
13.333333	1	2.066250
13.350000	1	2.033375
13.366667	1	2.003500
13.383333	1	1.975750
13.400000	1	1.950000
13.416667	1	1.926750
13.433333	1	1.906625
13.450000	1	1.888625
13.466667	1	1.873250
13.483333	1	1.860500
13.500000	1	1.849750
13.516667	1	1.841875
13.533333	1	1.835375
13.550000	1	1.830875
13.566667	1	1.827625
13.583333	1	1.824625
13.600000	1	1.822625
13.616667	1	1.818750
13.633333	1	1.813125
13.650000	1	1.806875
13.666667	1	1.797375
13.683333	1	1.787125
13.700000	1	1.774250
13.716667	1	1.760250
13.733333	1	1.744500
13.750000	1	1.727125
13.766667	1	1.708500
13.783333	1	1.690250
13.800000	1	1.671375
13.816667	1	1.653750
13.833333	1	1.636250
13.850000	1	1.619750
13.866667	1	1.604000
13.883333	1	1.589000
13.900000	1	1.573750
13.916667	1	1.559625
13.933333	1	1.545875
13.950000	1	1.532500
13.966667	1	1.519875
13.983333	1	1.507750
14.000000	1	1.496000
14.016667	1	1.484875
14.033333	1	1.473625
14.050000	1	1.462375
14.066667	1	1.452000
14.083333	1	1.441625
14.100000	1	1.432000
14.116667	1	1.421875
14.133333	1	1.413125
14.150000	1	1.404125
14.166667	1	1.396125
14.183333	1	1.388875
14.200000	1	1.382000
14.216667	1	1.375875
14.233333	1	1.371375
14.250000	1	1.368750
14.266667	1	1.367625
14.283333	1	1.369625
14.300000	1	1.373875
14.316667	1	1.381000
14.333333	1	1.392750
14.350000	1	1.408250
14.366667	1	1.430375
14.383333	1	1.460125
14.400000	1	1.498875
14.416667	1	1.551000
14.433333	1	1.620000
14.450000	1	1.713375
14.466667	1	1.839500
14.483333	1	2.010125
14.500000	1	2.242000
14.516667	1	2.554750
14.533333	1	2.976875
14.550000	1	3.541625
14.566667	1	4.290000
14.583333	1	5.269625
14.600000	1	6.533375
14.616667	1	8.140000
14.633333	1	10.149375
14.650000	1	12.610250
14.666667	1	15.561875
14.683333	1	19.020125
14.700000	1	22.971250
14.716667	1	27.364250
14.733333	1	32.112750
14.750000	1	37.092625
14.766667	1	42.142500
14.783333	1	47.067500
14.800000	1	51.666750
14.816667	1	55.738000
14.833333	1	59.091375
14.850000	1	61.564250
14.866667	1	63.038125
14.883333	1	63.448000
14.900000	1	62.793625
14.916667	1	61.133500
14.933333	1	58.578250
14.950000	1	55.276875
14.966667	1	51.405250
14.983333	1	47.154250
15.000000	1	42.704625
15.016667	1	38.219000
15.033333	1	33.836375
15.050000	1	29.669375
15.066667	1	25.799125
15.083333	1	22.275875
15.100000	1	19.126750
15.116667	1	16.356000
15.133333	1	13.949000
15.150000	1	11.882000
15.166667	1	10.122375
15.183333	1	8.638000
15.200000	1	7.392250
15.216667	1	6.352125
15.233333	1	5.488125
15.250000	1	4.774125
15.266667	1	4.187875
15.283333	1	3.709375
15.300000	1	3.322500
15.316667	1	3.010750
15.333333	1	2.764375
15.350000	1	2.570750
15.366667	1	2.422125
15.383333	1	2.309750
15.400000	1	2.226375
15.416667	1	2.166125
15.433333	1	2.124000
15.450000	1	2.093375
15.466667	1	2.070125
15.483333	1	2.050875
15.500000	1	2.031875
15.516667	1	2.011125
15.533333	1	1.985875
15.550000	1	1.956500
15.566667	1	1.922125
15.583333	1	1.882750
15.600000	1	1.839750
15.616667	1	1.794625
15.633333	1	1.747375
15.650000	1	1.700875
15.666667	1	1.654875
15.683333	1	1.611125
15.700000	1	1.569750
15.716667	1	1.531125
15.733333	1	1.495000
15.750000	1	1.463000
15.766667	1	1.432875
15.783333	1	1.405625
15.800000	1	1.379500
15.816667	1	1.356625
15.833333	1	1.335250
15.850000	1	1.316125
15.866667	1	1.298750
15.883333	1	1.283500
15.900000	1	1.269750
15.916667	1	1.258250
15.933333	1	1.248500
15.950000	1	1.240750
15.966667	1	1.236125
15.983333	1	1.232125
16.000000	1	1.230250
16.016667	1	1.230000
16.033333	1	1.230875
16.050000	1	1.233250
16.066667	1	1.236500
16.083333	1	1.239875
16.100000	1	1.243500
16.116667	1	1.246375
16.133333	1	1.249500
16.150000	1	1.251875
16.166667	1	1.253000
16.183333	1	1.253375
16.200000	1	1.252875
16.216667	1	1.251625
16.233333	1	1.249750
16.250000	1	1.246875
16.266667	1	1.242375
16.283333	1	1.237875
16.300000	1	1.232500
16.316667	1	1.227250
16.333333	1	1.223375
16.350000	1	1.218625
16.366667	1	1.214875
16.383333	1	1.211750
16.400000	1	1.209375
16.416667	1	1.208875
16.433333	1	1.209500
16.450000	1	1.211000
16.466667	1	1.214750
16.483333	1	1.218625
16.500000	1	1.222250
16.516667	1	1.227000
16.533333	1	1.231250
16.550000	1	1.235000
16.566667	1	1.237625
16.583333	1	1.240250
16.600000	1	1.241875
16.616667	1	1.241875
16.633333	1	1.240625
16.650000	1	1.239250
16.666667	1	1.237500
16.683333	1	1.235250
16.700000	1	1.234250
16.716667	1	1.233500
16.733333	1	1.233500
16.750000	1	1.235625
16.766667	1	1.239000
16.783333	1	1.243625
16.800000	1	1.250250
16.816667	1	1.257250
16.833333	1	1.265125
16.850000	1	1.273125
16.866667	1	1.281125
16.883333	1	1.288125
16.900000	1	1.294500
16.916667	1	1.298500
16.933333	1	1.301250
16.950000	1	1.303125
16.966667	1	1.303250
16.983333	1	1.301875
17.000000	1	1.298875
17.016667	1	1.295125
17.033333	1	1.290500
17.050000	1	1.285500
17.066667	1	1.279250
17.083333	1	1.273875
17.100000	1	1.268125
17.116667	1	1.263250
17.133333	1	1.258375
17.150000	1	1.254625
17.166667	1	1.250625
17.183333	1	1.247625
17.200000	1	1.245000
17.216667	1	1.243875
17.233333	1	1.243375
17.250000	1	1.243250
17.266667	1	1.242875
17.283333	1	1.244000
17.300000	1	1.244375
17.316667	1	1.245625
17.333333	1	1.246250
17.350000	1	1.247375
17.366667	1	1.249000
17.383333	1	1.249000
17.400000	1	1.248875
17.416667	1	1.247750
17.433333	1	1.246125
17.450000	1	1.243250
17.466667	1	1.238500
17.483333	1	1.232250
17.500000	1	1.224625
17.516667	1	1.215750
17.533333	1	1.205250
17.550000	1	1.193375
17.566667	1	1.179250
17.583333	1	1.163750
17.600000	1	1.148250
17.616667	1	1.131125
17.633333	1	1.113750
17.650000	1	1.095625
17.666667	1	1.077750
17.683333	1	1.060625
17.700000	1	1.043250
17.716667	1	1.027500
17.733333	1	1.012125
17.750000	1	0.998000
17.766667	1	0.985500
17.783333	1	0.974125
17.800000	1	0.963625
17.816667	1	0.954750
17.833333	1	0.945875
17.850000	1	0.939750
17.866667	1	0.933625
17.883333	1	0.929250
17.900000	1	0.925000
17.916667	1	0.921375
17.933333	1	0.918375
17.950000	1	0.915500
17.966667	1	0.912625
17.983333	1	0.909750
18.000000	1	0.906250
18.016667	1	0.902750
18.033333	1	0.898625
18.050000	1	0.894500
18.066667	1	0.890000
18.083333	1	0.886000
18.100000	1	0.881750
18.116667	1	0.877500
18.133333	1	0.873125
18.150000	1	0.868875
18.166667	1	0.864875
18.183333	1	0.861125
18.200000	1	0.858375
18.216667	1	0.855875
18.233333	1	0.853625
18.250000	1	0.851500
18.266667	1	0.849000
18.283333	1	0.846875
18.300000	1	0.845125
18.316667	1	0.842750
18.333333	1	0.842000
18.350000	1	0.841375
18.366667	1	0.841625
18.383333	1	0.842125
18.400000	1	0.843750
18.416667	1	0.847250
18.433333	1	0.851250
18.450000	1	0.856875
18.466667	1	0.863500
18.483333	1	0.872750
18.500000	1	0.883625
18.516667	1	0.896750
18.533333	1	0.911750
18.550000	1	0.929625
18.566667	1	0.948625
18.583333	1	0.969625
18.600000	1	0.992625
18.616667	1	1.018250
18.633333	1	1.044875
18.650000	1	1.072875
18.666667	1	1.101625
18.683333	1	1.131750
18.700000	1	1.162375
18.716667	1	1.193750
18.733333	1	1.226000
18.750000	1	1.257750
18.766667	1	1.289000
18.783333	1	1.319375
18.800000	1	1.348375
18.816667	1	1.375500
18.833333	1	1.401125
18.850000	1	1.422750
18.866667	1	1.441125
18.883333	1	1.454125
18.900000	1	1.463250
18.916667	1	1.466375
18.933333	1	1.464250
18.950000	1	1.456500
18.966667	1	1.442875
18.983333	1	1.423250
19.000000	1	1.398250
19.016667	1	1.368500
19.033333	1	1.333625
19.050000	1	1.295250
19.066667	1	1.254000
19.083333	1	1.210500
19.100000	1	1.167000
19.116667	1	1.123250
19.133333	1	1.079750
19.150000	1	1.038625
19.166667	1	1.000000
19.183333	1	0.964750
19.200000	1	0.933625
19.216667	1	0.906875
19.233333	1	0.886125
19.250000	1	0.870125
19.266667	1	0.860125
19.283333	1	0.855250
19.300000	1	0.855750
19.316667	1	0.862875
19.333333	1	0.875500
19.350000	1	0.892875
19.366667	1	0.914875
19.383333	1	0.940875
19.400000	1	0.971125
19.416667	1	1.003750
19.433333	1	1.038625
19.450000	1	1.074250
19.466667	1	1.109375
19.483333	1	1.143125
19.500000	1	1.176125
19.516667	1	1.205500
19.533333	1	1.231625
19.550000	1	1.253125
19.566667	1	1.270625
19.583333	1	1.282625
19.600000	1	1.289500
19.616667	1	1.291750
19.633333	1	1.288375
19.650000	1	1.279875
19.666667	1	1.267500
19.683333	1	1.249875
19.700000	1	1.228125
19.716667	1	1.202375
19.733333	1	1.174750
19.750000	1	1.144125
19.766667	1	1.111875
19.783333	1	1.078250
19.800000	1	1.043625
19.816667	1	1.008375
19.833333	1	0.972500
19.850000	1	0.937375
19.866667	1	0.902750
19.883333	1	0.870000
19.900000	1	0.838000
19.916667	1	0.808875
19.933333	1	0.781375
19.950000	1	0.757000
19.966667	1	0.735875
19.983333	1	0.717875
20.000000	1	0.703250
20.016667	1	0.691500
20.033333	1	0.683250
20.050000	1	0.680125
20.066667	1	0.679625
20.083333	1	0.684500
20.100000	1	0.692125
20.116667	1	0.703875
20.133333	1	0.718500
20.150000	1	0.736750
20.166667	1	0.757625
20.183333	1	0.779375
20.200000	1	0.803250
20.216667	1	0.827250
20.233333	1	0.849875
20.250000	1	0.870750
20.266667	1	0.890250
20.283333	1	0.905625
20.300000	1	0.917125
20.316667	1	0.924750
20.333333	1	0.928375
20.350000	1	0.926875
20.366667	1	0.920750
20.383333	1	0.910250
20.400000	1	0.895250
20.416667	1	0.877875
20.433333	1	0.858000
20.450000	1	0.836125
20.466667	1	0.815000
20.483333	1	0.793875
20.500000	1	0.775125
20.516667	1	0.759125
20.533333	1	0.747125
20.550000	1	0.739375
20.566667	1	0.737000
20.583333	1	0.741000
20.600000	1	0.752625
20.616667	1	0.772000
20.633333	1	0.798125
20.650000	1	0.833125
20.666667	1	0.876375
20.683333	1	0.927125
20.700000	1	0.985500
20.716667	1	1.050375
20.733333	1	1.121375
20.750000	1	1.195625
20.766667	1	1.271250
20.783333	1	1.347500
20.800000	1	1.421750
20.816667	1	1.491625
20.833333	1	1.555125
20.850000	1	1.610250
20.866667	1	1.655000
20.883333	1	1.688125
20.900000	1	1.708875
20.916667	1	1.716125
20.933333	1	1.709875
20.950000	1	1.690625
20.966667	1	1.659250
20.983333	1	1.616875
21.000000	1	1.565625
21.016667	1	1.506000
21.033333	1	1.441125
21.050000	1	1.372000
21.066667	1	1.301125
21.083333	1	1.230000
21.100000	1	1.160000
21.116667	1	1.092375
21.133333	1	1.028625
21.150000	1	0.968250
21.166667	1	0.911000
21.183333	1	0.859500
21.200000	1	0.812500
21.216667	1	0.770000
21.233333	1	0.732250
21.250000	1	0.698375
21.266667	1	0.668375
21.283333	1	0.642000
21.300000	1	0.618875
21.316667	1	0.599125
21.333333	1	0.581625
21.350000	1	0.566875
21.366667	1	0.553125
21.383333	1	0.541000
21.400000	1	0.531125
21.416667	1	0.522375
21.433333	1	0.514375
21.450000	1	0.507625
21.466667	1	0.502000
21.483333	1	0.497750
21.500000	1	0.493750
21.516667	1	0.490625
21.533333	1	0.488375
21.550000	1	0.486375
21.566667	1	0.485875
21.583333	1	0.486375
21.600000	1	0.487875
21.616667	1	0.489625
21.633333	1	0.492875
21.650000	1	0.497625
21.666667	1	0.503125
21.683333	1	0.509625
21.700000	1	0.518125
21.716667	1	0.527625
21.733333	1	0.538875
21.750000	1	0.550250
21.766667	1	0.563500
21.783333	1	0.577500
21.800000	1	0.591875
21.816667	1	0.606500
21.833333	1	0.621625
21.850000	1	0.637125
21.866667	1	0.652125
21.883333	1	0.665875
21.900000	1	0.678875
21.916667	1	0.691500
21.933333	1	0.703125
21.950000	1	0.712625
21.966667	1	0.720625
21.983333	1	0.728000
22.000000	1	0.732250
22.016667	1	0.735500
22.033333	1	0.736125
22.050000	1	0.735625
22.066667	1	0.733375
22.083333	1	0.730125
22.100000	1	0.724875
22.116667	1	0.719250
22.133333	1	0.712000
22.150000	1	0.703875
22.166667	1	0.694750
22.183333	1	0.684750
22.200000	1	0.674750
22.216667	1	0.663250
22.233333	1	0.652125
22.250000	1	0.638875
22.266667	1	0.625750
22.283333	1	0.611625
22.300000	1	0.598000
22.316667	1	0.584250
22.333333	1	0.570125
22.350000	1	0.555750
22.366667	1	0.542250
22.383333	1	0.528875
22.400000	1	0.515750
22.416667	1	0.502750
22.433333	1	0.490500
22.450000	1	0.479500
22.466667	1	0.468875
22.483333	1	0.458000
22.500000	1	0.448375
22.516667	1	0.439375
22.533333	1	0.431500
22.550000	1	0.424250
22.566667	1	0.416875
22.583333	1	0.410375
22.600000	1	0.404750
22.616667	1	0.399000
22.633333	1	0.393125
22.650000	1	0.388000
22.666667	1	0.382875
22.683333	1	0.377125
22.700000	1	0.372625
22.716667	1	0.368125
22.733333	1	0.363750
22.750000	1	0.358875
22.766667	1	0.354375
22.783333	1	0.350125
22.800000	1	0.345125
22.816667	1	0.340625
22.833333	1	0.336875
22.850000	1	0.333000
22.866667	1	0.329250
22.883333	1	0.326375
22.900000	1	0.323500
22.916667	1	0.321250
22.933333	1	0.318500
22.950000	1	0.317250
22.966667	1	0.316500
22.983333	1	0.315750
23.000000	1	0.315875
23.016667	1	0.316125
23.033333	1	0.316500
23.050000	1	0.317500
23.066667	1	0.319250
23.083333	1	0.320500
23.100000	1	0.322750
23.116667	1	0.324750
23.133333	1	0.327875
23.150000	1	0.331875
23.166667	1	0.335500
23.183333	1	0.339500
23.200000	1	0.344250
23.216667	1	0.349500
23.233333	1	0.355625
23.250000	1	0.362125
23.266667	1	0.369875
23.283333	1	0.379500
23.300000	1	0.391250
23.316667	1	0.405250
23.333333	1	0.422125
23.350000	1	0.442875
23.366667	1	0.468250
23.383333	1	0.498375
23.400000	1	0.535000
23.416667	1	0.578500
23.433333	1	0.630250
23.450000	1	0.692125
23.466667	1	0.764750
23.483333	1	0.850625
23.500000	1	0.948750
23.516667	1	1.062000
23.533333	1	1.191250
23.550000	1	1.337000
23.566667	1	1.499625
23.583333	1	1.679125
23.600000	1	1.875625
23.616667	1	2.087125
23.633333	1	2.313875
23.650000	1	2.552375
23.666667	1	2.799875
23.683333	1	3.053375
23.700000	1	3.309750
23.716667	1	3.563750
23.733333	1	3.811625
23.750000	1	4.046750
23.766667	1	4.265750
23.783333	1	4.462375
23.800000	1	4.632875
23.816667	1	4.774125
23.833333	1	4.882125
23.850000	1	4.954250
23.866667	1	4.990500
23.883333	1	4.990250
23.900000	1	4.954750
23.916667	1	4.884000
23.933333	1	4.780750
23.950000	1	4.648125
23.966667	1	4.489625
23.983333	1	4.310125
24.000000	1	4.113750
24.016667	1	3.903750
24.033333	1	3.685250
24.050000	1	3.463000
24.066667	1	3.239750
24.083333	1	3.019000
24.100000	1	2.803125
24.116667	1	2.594375
24.133333	1	2.394375
24.150000	1	2.204875
24.166667	1	2.027000
24.183333	1	1.860625
24.200000	1	1.706500
24.216667	1	1.564500
24.233333	1	1.435000
24.250000	1	1.316625
24.266667	1	1.209750
24.283333	1	1.113375
24.300000	1	1.026125
24.316667	1	0.948625
24.333333	1	0.879000
24.350000	1	0.817750
24.366667	1	0.763000
24.383333	1	0.714625
24.400000	1	0.673000
24.416667	1	0.636625
24.433333	1	0.604250
24.450000	1	0.577375
24.466667	1	0.554250
24.483333	1	0.534125
24.500000	1	0.517625
24.516667	1	0.503125
24.533333	1	0.490125
24.550000	1	0.479125
24.566667	1	0.470250
24.583333	1	0.462625
24.600000	1	0.455125
24.616667	1	0.448375
24.633333	1	0.442750
24.650000	1	0.436250
24.666667	1	0.430625
24.683333	1	0.425250
24.700000	1	0.420250
24.716667	1	0.415250
24.733333	1	0.409750
24.750000	1	0.404250
24.766667	1	0.399125
24.783333	1	0.393750
24.800000	1	0.388125
24.816667	1	0.383000
24.833333	1	0.377750
24.850000	1	0.373125
24.866667	1	0.368875
24.883333	1	0.364875
24.900000	1	0.361250
24.916667	1	0.357500
24.933333	1	0.354250
24.950000	1	0.351500
24.966667	1	0.349125
24.983333	1	0.346000
25.000000	1	0.343750
25.016667	1	0.340750
25.033333	1	0.338875
25.050000	1	0.336875
25.066667	1	0.335375
25.083333	1	0.333000
25.100000	1	0.330625
25.116667	1	0.328750
25.133333	1	0.326875
25.150000	1	0.324750
25.166667	1	0.322250
25.183333	1	0.319500
25.200000	1	0.317625
25.216667	1	0.315125
25.233333	1	0.312875
25.250000	1	0.310250
25.266667	1	0.307375
25.283333	1	0.304750
25.300000	1	0.302250
25.316667	1	0.300375
25.333333	1	0.297500
25.350000	1	0.295875
25.366667	1	0.294000
25.383333	1	0.292250
25.400000	1	0.290125
25.416667	1	0.289250
25.433333	1	0.288875
25.450000	1	0.288125
25.466667	1	0.287375
25.483333	1	0.287250
25.500000	1	0.287750
25.516667	1	0.288000
25.533333	1	0.288625
25.550000	1	0.289375
25.566667	1	0.289500
25.583333	1	0.289875
25.600000	1	0.290750
25.616667	1	0.292125
25.633333	1	0.292500
25.650000	1	0.293500
25.666667	1	0.294625
25.683333	1	0.295250
25.700000	1	0.295375
25.716667	1	0.295375
25.733333	1	0.295625
25.750000	1	0.296000
25.766667	1	0.296125
25.783333	1	0.295875
25.800000	1	0.295875
25.816667	1	0.296375
25.833333	1	0.297250
25.850000	1	0.296500
25.866667	1	0.296125
25.883333	1	0.297375
25.900000	1	0.298625
25.916667	1	0.299625
25.933333	1	0.300500
25.950000	1	0.301750
25.966667	1	0.303625
25.983333	1	0.306125
26.000000	1	0.308375
26.016667	1	0.311000
26.033333	1	0.314500
26.050000	1	0.318000
26.066667	1	0.321750
26.083333	1	0.325875
26.100000	1	0.330375
26.116667	1	0.335000
26.133333	1	0.339000
26.150000	1	0.343250
26.166667	1	0.348000
26.183333	1	0.352500
26.200000	1	0.356625
26.216667	1	0.361500
26.233333	1	0.365875
26.250000	1	0.369250
26.266667	1	0.372250
26.283333	1	0.375250
26.300000	1	0.377375
26.316667	1	0.378875
26.333333	1	0.379625
26.350000	1	0.379750
26.366667	1	0.379250
26.383333	1	0.377875
26.400000	1	0.375750
26.416667	1	0.373500
26.433333	1	0.369750
26.450000	1	0.365500
26.466667	1	0.361625
26.483333	1	0.356250
26.500000	1	0.350625
26.516667	1	0.344000
26.533333	1	0.337250
26.550000	1	0.329625
26.566667	1	0.322000
26.583333	1	0.314750
26.600000	1	0.306625
26.616667	1	0.298250
26.633333	1	0.290000
26.650000	1	0.282125
26.666667	1	0.274750
26.683333	1	0.266375
26.700000	1	0.258500
26.716667	1	0.251125
26.733333	1	0.244625
26.750000	1	0.238000
26.766667	1	0.231375
26.783333	1	0.225750
26.800000	1	0.220375
26.816667	1	0.215250
26.833333	1	0.211000
26.850000	1	0.207500
26.866667	1	0.204250
26.883333	1	0.202125
26.900000	1	0.199750
26.916667	1	0.197750
26.933333	1	0.197125
26.950000	1	0.196375
26.966667	1	0.196250
26.983333	1	0.197250
27.000000	1	0.198625
27.016667	1	0.201375
27.033333	1	0.203750
27.050000	1	0.207625
27.066667	1	0.211875
27.083333	1	0.217125
27.100000	1	0.223250
27.116667	1	0.229625
27.133333	1	0.237750
27.150000	1	0.246375
27.166667	1	0.255500
27.183333	1	0.266875
27.200000	1	0.280000
27.216667	1	0.294250
27.233333	1	0.310875
27.250000	1	0.328750
27.266667	1	0.349125
27.283333	1	0.372250
27.300000	1	0.399250
27.316667	1	0.428625
27.333333	1	0.462375
27.350000	1	0.500750
27.366667	1	0.544625
27.383333	1	0.592875
27.400000	1	0.647500
27.416667	1	0.709250
27.433333	1	0.778250
27.450000	1	0.855625
27.466667	1	0.941125
27.483333	1	1.035750
27.500000	1	1.139625
27.516667	1	1.252875
27.533333	1	1.376625
27.550000	1	1.509875
27.566667	1	1.651500
27.583333	1	1.802375
27.600000	1	1.961000
27.616667	1	2.126750
27.633333	1	2.298500
27.650000	1	2.475000
27.666667	1	2.654875
27.683333	1	2.835500
27.700000	1	3.014000
27.716667	1	3.189375
27.733333	1	3.358125
27.750000	1	3.518625
27.766667	1	3.667250
27.783333	1	3.802000
27.800000	1	3.920500
27.816667	1	4.022000
27.833333	1	4.103875
27.850000	1	4.163875
27.866667	1	4.202000
27.883333	1	4.216625
27.900000	1	4.207500
27.916667	1	4.174625
27.933333	1	4.118875
27.950000	1	4.040750
27.966667	1	3.942375
27.983333	1	3.825125
28.000000	1	3.691625
28.016667	1	3.544125
28.033333	1	3.384875
28.050000	1	3.216625
28.066667	1	3.040750
28.083333	1	2.860625
28.100000	1	2.679125
28.116667	1	2.498500
28.133333	1	2.320625
28.150000	1	2.147625
28.166667	1	1.980375
28.183333	1	1.820625
28.200000	1	1.669375
28.216667	1	1.527625
28.233333	1	1.395000
28.250000	1	1.271875
28.266667	1	1.158375
28.283333	1	1.054875
28.300000	1	0.961000
28.316667	1	0.876500
28.333333	1	0.800125
28.350000	1	0.732250
28.366667	1	0.672500
28.383333	1	0.619625
28.400000	1	0.574125
28.416667	1	0.534625
28.433333	1	0.500625
28.450000	1	0.472250
28.466667	1	0.448125
28.483333	1	0.428125
28.500000	1	0.412375
28.516667	1	0.400875
28.533333	1	0.392250
28.550000	1	0.386000
28.566667	1	0.382875
28.583333	1	0.382375
28.600000	1	0.384500
28.616667	1	0.388125
28.633333	1	0.393500
28.650000	1	0.399750
28.666667	1	0.408375
28.683333	1	0.417250
28.700000	1	0.426875
28.716667	1	0.436750
28.733333	1	0.446875
28.750000	1	0.457250
28.766667	1	0.468000
28.783333	1	0.477750
28.800000	1	0.487875
28.816667	1	0.497125
28.833333	1	0.506250
28.850000	1	0.514250
28.866667	1	0.521750
28.883333	1	0.528000
28.900000	1	0.532500
28.916667	1	0.536000
28.933333	1	0.538250
28.950000	1	0.538875
28.966667	1	0.537000
28.983333	1	0.534250
29.000000	1	0.529875
29.016667	1	0.523875
29.033333	1	0.516500
29.050000	1	0.506250
29.066667	1	0.494125
29.083333	1	0.479875
29.100000	1	0.463250
29.116667	1	0.445500
29.133333	1	0.425000
29.150000	1	0.403375
29.166667	1	0.378125
29.183333	1	0.351750
29.200000	1	0.322750
29.216667	1	0.291250
29.233333	1	0.257750
29.250000	1	0.221875
29.266667	1	0.184125
29.283333	1	0.143625
29.300000	1	0.101250
29.316667	1	0.056125
29.333333	1	0.009000
29.350000	1	-0.040000
29.366667	1	-0.091000
29.383333	1	-0.144250
29.400000	1	-0.198125
29.416667	1	-0.253000
29.433333	1	-0.309125
29.450000	1	-0.366625
29.466667	1	-0.424875
29.483333	1	-0.482750
29.500000	1	-0.540375
29.516667	1	-0.597500
29.533333	1	-0.654000
29.550000	1	-0.708250
29.566667	1	-0.760375
29.583333	1	-0.810000
29.600000	1	-0.858000
29.616667	1	-0.902375
29.633333	1	-0.943250
29.650000	1	-0.980750
29.666667	1	-1.013750
29.683333	1	-1.042125
29.700000	1	-1.065875
29.716667	1	-1.084375
29.733333	1	-1.098250
29.750000	1	-1.107250
29.766667	1	-1.111125
29.783333	1	-1.110000
29.800000	1	-1.103750
29.816667	1	-1.092250
29.833333	1	-1.076000
29.850000	1	-1.056125
29.866667	1	-1.032500
29.883333	1	-1.005250
29.900000	1	-0.974625
29.916667	1	-0.940375
29.933333	1	-0.904250
29.950000	1	-0.865875
29.966667	1	-0.825875
29.983333	1	-0.784625
30.000000	1	-0.742375
30.016667	1	-0.699125
30.033333	1	-0.656375
30.050000	1	-0.613500
30.066667	1	-0.570750
30.083333	1	-0.529000
30.100000	1	-0.488125
30.116667	1	-0.448500
30.133333	1	-0.410500
30.150000	1	-0.373375
30.166667	1	-0.338750
30.183333	1	-0.306000
30.200000	1	-0.274500
30.216667	1	-0.244750
30.233333	1	-0.216375
30.250000	1	-0.190250
30.266667	1	-0.165500
30.283333	1	-0.142875
30.300000	1	-0.121625
30.316667	1	-0.102250
30.333333	1	-0.084500
30.350000	1	-0.067500
30.366667	1	-0.052000
30.383333	1	-0.038250
30.400000	1	-0.025125
30.416667	1	-0.013750
30.433333	1	-0.002625
30.450000	1	0.007375
30.466667	1	0.016500
30.483333	1	0.025250
30.500000	1	0.033375
30.516667	1	0.041500
30.533333	1	0.049250
30.550000	1	0.056750
30.566667	1	0.064125
30.583333	1	0.070250
30.600000	1	0.077125
30.616667	1	0.084750
30.633333	1	0.092250
30.650000	1	0.099750
30.666667	1	0.107625
30.683333	1	0.115375
30.700000	1	0.124875
30.716667	1	0.133875
30.733333	1	0.143250
30.750000	1	0.153625
30.766667	1	0.164500
30.783333	1	0.175875
30.800000	1	0.188000
30.816667	1	0.201125
30.833333	1	0.215000
30.850000	1	0.230125
30.866667	1	0.246250
30.883333	1	0.263375
30.900000	1	0.281875
30.916667	1	0.302000
30.933333	1	0.323875
30.950000	1	0.348125
30.966667	1	0.374750
30.983333	1	0.404000
31.000000	1	0.436250
31.016667	1	0.471875
31.033333	1	0.510375
31.050000	1	0.553875
31.066667	1	0.601500
31.083333	1	0.655250
31.100000	1	0.713125
31.116667	1	0.777375
31.133333	1	0.849000
31.150000	1	0.928250
31.166667	1	1.013750
31.183333	1	1.107125
31.200000	1	1.209625
31.216667	1	1.320625
31.233333	1	1.440125
31.250000	1	1.567625
31.266667	1	1.703750
31.283333	1	1.847875
31.300000	1	1.999375
31.316667	1	2.157625
31.333333	1	2.321750
31.350000	1	2.489875
31.366667	1	2.661875
31.383333	1	2.835375
31.400000	1	3.010375
31.416667	1	3.183625
31.433333	1	3.353375
31.450000	1	3.519125
31.466667	1	3.677250
31.483333	1	3.825500
31.500000	1	3.963625
31.516667	1	4.088625
31.533333	1	4.199375
31.550000	1	4.294125
31.566667	1	4.372625
31.583333	1	4.433250
31.600000	1	4.474375
31.616667	1	4.497000
31.633333	1	4.500000
31.650000	1	4.483125
31.666667	1	4.447750
31.683333	1	4.394250
31.700000	1	4.322875
31.716667	1	4.235750
31.733333	1	4.133000
31.750000	1	4.017375
31.766667	1	3.889250
31.783333	1	3.751625
31.800000	1	3.604625
31.816667	1	3.451375
31.833333	1	3.292625
31.850000	1	3.131000
31.866667	1	2.967875
31.883333	1	2.804125
31.900000	1	2.641000
31.916667	1	2.480375
31.933333	1	2.323125
31.950000	1	2.169750
31.966667	1	2.022125
31.983333	1	1.879375
32.000000	1	1.742625
32.016667	1	1.612250
32.033333	1	1.488750
32.050000	1	1.371875
32.066667	1	1.261625
32.083333	1	1.158375
32.100000	1	1.062000
32.116667	1	0.972125
32.133333	1	0.889375
32.150000	1	0.812250
32.166667	1	0.741000
32.183333	1	0.674750
32.200000	1	0.613625
32.216667	1	0.557875
32.233333	1	0.506250
32.250000	1	0.460000
32.266667	1	0.416875
32.283333	1	0.377500
32.300000	1	0.341750
32.316667	1	0.309750
32.333333	1	0.279875
32.350000	1	0.253625
32.366667	1	0.229375
32.383333	1	0.207375
32.400000	1	0.187625
32.416667	1	0.169000
32.433333	1	0.152375
32.450000	1	0.137500
32.466667	1	0.124750
32.483333	1	0.112125
32.500000	1	0.101000
32.516667	1	0.091000
32.533333	1	0.081625
32.550000	1	0.072750
32.566667	1	0.065250
32.583333	1	0.058750
32.600000	1	0.052125
32.616667	1	0.046250
32.633333	1	0.041000
32.650000	1	0.035500
32.666667	1	0.030750
32.683333	1	0.026375
32.700000	1	0.021375
32.716667	1	0.016625
32.733333	1	0.013125
32.750000	1	0.009000
32.766667	1	0.005750
32.783333	1	0.002250
32.800000	1	-0.000875
32.816667	1	-0.004375
32.833333	1	-0.007375
32.850000	1	-0.011000
32.866667	1	-0.014125
32.883333	1	-0.017375
32.900000	1	-0.020125
32.916667	1	-0.023500
32.933333	1	-0.025500
32.950000	1	-0.027250
32.966667	1	-0.029250
32.983333	1	-0.032250
33.000000	1	-0.034250
33.016667	1	-0.035875
33.033333	1	-0.037875
33.050000	1	-0.039250
33.066667	1	-0.040375
33.083333	1	-0.041625
33.100000	1	-0.043500
33.116667	1	-0.044375
33.133333	1	-0.045500
33.150000	1	-0.046375
33.166667	1	-0.046625
33.183333	1	-0.046625
33.200000	1	-0.047125
33.216667	1	-0.047250
33.233333	1	-0.047250
33.250000	1	-0.047375
33.266667	1	-0.048125
33.283333	1	-0.047375
33.300000	1	-0.047500
33.316667	1	-0.047000
33.333333	1	-0.046625
33.350000	1	-0.046250
33.366667	1	-0.045375
33.383333	1	-0.044750
33.400000	1	-0.043750
33.416667	1	-0.041625
33.433333	1	-0.040500
33.450000	1	-0.038875
33.466667	1	-0.037125
33.483333	1	-0.035625
33.500000	1	-0.034000
33.516667	1	-0.032375
33.533333	1	-0.030250
33.550000	1	-0.027500
33.566667	1	-0.024750
33.583333	1	-0.021750
33.600000	1	-0.018625
33.616667	1	-0.015000
33.633333	1	-0.012125
33.650000	1	-0.008750
33.666667	1	-0.005375
33.683333	1	-0.001750
33.700000	1	0.001125
33.716667	1	0.005500
33.733333	1	0.009875
33.750000	1	0.013750
33.766667	1	0.018000
33.783333	1	0.021750
33.800000	1	0.025750
33.816667	1	0.030125
33.833333	1	0.033875
33.850000	1	0.037750
33.866667	1	0.041125
33.883333	1	0.044500
33.900000	1	0.048125
33.916667	1	0.051000
33.933333	1	0.054500
33.950000	1	0.057625
33.966667	1	0.060375
33.983333	1	0.063125
34.000000	1	0.066000
34.016667	1	0.068625
34.033333	1	0.070500
34.050000	1	0.072375
34.066667	1	0.074250
34.083333	1	0.075750
34.100000	1	0.076500
34.116667	1	0.077375
34.133333	1	0.078250
34.150000	1	0.078125
34.166667	1	0.078750
34.183333	1	0.079250
34.200000	1	0.079375
34.216667	1	0.079125
34.233333	1	0.078625
34.250000	1	0.078125
34.266667	1	0.077625
34.283333	1	0.077125
34.300000	1	0.076750
34.316667	1	0.076875
34.333333	1	0.075875
34.350000	1	0.075125
34.366667	1	0.074750
34.383333	1	0.075000
34.400000	1	0.074125
34.416667	1	0.073750
34.433333	1	0.073250
34.450000	1	0.073125
34.466667	1	0.073500
34.483333	1	0.074000
34.500000	1	0.074375
34.516667	1	0.074250
34.533333	1	0.075000
34.550000	1	0.076500
34.566667	1	0.077625
34.583333	1	0.079500
34.600000	1	0.080250
34.616667	1	0.081375
34.633333	1	0.082875
34.650000	1	0.084125
34.666667	1	0.085750
34.683333	1	0.086625
34.700000	1	0.087000
34.716667	1	0.087125
34.733333	1	0.087750
34.750000	1	0.088250
34.766667	1	0.088000
34.783333	1	0.087500
34.800000	1	0.086750
34.816667	1	0.085750
34.833333	1	0.084875
34.850000	1	0.083375
34.866667	1	0.082125
34.883333	1	0.079750
34.900000	1	0.078000
34.916667	1	0.075250
34.933333	1	0.073000
34.950000	1	0.070125
34.966667	1	0.067750
34.983333	1	0.064375
35.000000	1	0.061250
35.016667	1	0.057750
35.033333	1	0.054500
35.050000	1	0.051250
35.066667	1	0.048000
35.083333	1	0.046375
35.100000	1	0.044125
35.116667	1	0.042125
35.133333	1	0.039875
35.150000	1	0.037750
35.166667	1	0.035375
35.183333	1	0.033875
35.200000	1	0.033125
35.216667	1	0.032625
35.233333	1	0.032500
35.250000	1	0.031750
35.266667	1	0.031750
35.283333	1	0.032125
35.300000	1	0.032875
35.316667	1	0.033125
35.333333	1	0.033625
35.350000	1	0.034375
35.366667	1	0.035875
35.383333	1	0.037250
35.400000	1	0.038625
35.416667	1	0.038875
35.433333	1	0.039875
35.450000	1	0.041750
35.466667	1	0.043375
35.483333	1	0.045000
35.500000	1	0.046625
35.516667	1	0.048250
35.533333	1	0.049875
35.550000	1	0.050750
35.566667	1	0.052750
35.583333	1	0.055000
35.600000	1	0.056625
35.616667	1	0.057875
35.633333	1	0.059750
35.650000	1	0.061125
35.666667	1	0.063000
35.683333	1	0.065250
35.700000	1	0.067500
35.716667	1	0.069625
35.733333	1	0.072250
35.750000	1	0.074250
35.766667	1	0.077000
35.783333	1	0.079500
35.800000	1	0.082250
35.816667	1	0.084250
35.833333	1	0.086625
35.850000	1	0.089125
35.866667	1	0.091500
35.883333	1	0.094125
35.900000	1	0.096375
35.916667	1	0.097750
35.933333	1	0.099375
35.950000	1	0.100750
35.966667	1	0.102375
35.983333	1	0.103875
36.000000	1	0.105125
36.016667	1	0.106125
36.033333	1	0.106500
36.050000	1	0.106500
36.066667	1	0.106625
36.083333	1	0.106875
36.100000	1	0.107250
36.116667	1	0.107625
36.133333	1	0.107875
36.150000	1	0.107750
36.166667	1	0.107375
36.183333	1	0.106875
36.200000	1	0.106625
36.216667	1	0.106750
36.233333	1	0.105875
36.250000	1	0.105250
36.266667	1	0.105250
36.283333	1	0.104750
36.300000	1	0.104625
36.316667	1	0.104125
36.333333	1	0.104125
36.350000	1	0.103750
36.366667	1	0.103625
36.383333	1	0.104000
36.400000	1	0.104375
36.416667	1	0.104875
36.433333	1	0.104875
36.450000	1	0.104500
36.466667	1	0.104375
36.483333	1	0.104375
36.500000	1	0.104875
36.516667	1	0.104875
36.533333	1	0.105125
36.550000	1	0.105750
36.566667	1	0.105000
36.583333	1	0.105000
36.600000	1	0.104375
36.616667	1	0.103875
36.633333	1	0.103000
36.650000	1	0.102375
36.666667	1	0.101125
36.683333	1	0.100250
36.700000	1	0.099000
36.716667	1	0.097875
36.733333	1	0.096250
36.750000	1	0.094750
36.766667	1	0.092375
36.783333	1	0.089875
36.800000	1	0.088125
36.816667	1	0.085875
36.833333	1	0.083875
36.850000	1	0.081625
36.866667	1	0.078875
36.883333	1	0.076750
36.900000	1	0.074500
36.916667	1	0.071625
36.933333	1	0.069000
36.950000	1	0.066250
36.966667	1	0.063750
36.983333	1	0.061375
37.000000	1	0.059250
37.016667	1	0.056875
37.033333	1	0.054875
37.050000	1	0.053250
37.066667	1	0.051000
37.083333	1	0.048750
37.100000	1	0.047375
37.116667	1	0.046375
37.133333	1	0.044500
37.150000	1	0.043750
37.166667	1	0.042125
37.183333	1	0.041375
37.200000	1	0.040375
37.216667	1	0.039000
37.233333	1	0.038125
37.250000	1	0.037875
37.266667	1	0.037250
37.283333	1	0.037375
37.300000	1	0.037375
37.316667	1	0.037625
37.333333	1	0.037750
37.350000	1	0.037375
37.366667	1	0.037125
37.383333	1	0.037500
37.400000	1	0.037250
37.416667	1	0.037625
37.433333	1	0.037750
37.450000	1	0.037375
37.466667	1	0.037625
37.483333	1	0.037125
37.500000	1	0.036875
37.516667	1	0.037000
37.533333	1	0.036125
37.550000	1	0.035500
37.566667	1	0.035125
37.583333	1	0.033750
37.600000	1	0.032875
37.616667	1	0.031500
37.633333	1	0.030125
37.650000	1	0.028750
37.666667	1	0.027250
37.683333	1	0.025250
37.700000	1	0.023875
37.716667	1	0.022000
37.733333	1	0.020250
37.750000	1	0.018125
37.766667	1	0.015875
37.783333	1	0.013875
37.800000	1	0.011875
37.816667	1	0.008875
37.833333	1	0.007125
37.850000	1	0.004125
37.866667	1	0.001750
37.883333	1	-0.000125
37.900000	1	-0.002000
37.916667	1	-0.004125
37.933333	1	-0.007000
37.950000	1	-0.009375
37.966667	1	-0.010750
37.983333	1	-0.012500
38.000000	1	-0.014125
38.016667	1	-0.015625
38.033333	1	-0.017000
38.050000	1	-0.018000
38.066667	1	-0.018875
38.083333	1	-0.019125
38.100000	1	-0.019750
38.116667	1	-0.019500
38.133333	1	-0.019375
38.150000	1	-0.019375
38.166667	1	-0.019625
38.183333	1	-0.019375
38.200000	1	-0.019375
38.216667	1	-0.019000
38.233333	1	-0.017875
38.250000	1	-0.016250
38.266667	1	-0.015250
38.283333	1	-0.014250
38.300000	1	-0.012875
38.316667	1	-0.011250
38.333333	1	-0.009750
38.350000	1	-0.008625
38.366667	1	-0.007375
38.383333	1	-0.006250
38.400000	1	-0.004750
38.416667	1	-0.003500
38.433333	1	-0.002875
38.450000	1	-0.001875
38.466667	1	-0.000750
38.483333	1	0.000000
38.500000	1	0.000500
38.516667	1	0.001000
38.533333	1	0.001375
38.550000	1	0.002250
38.566667	1	0.001875
38.583333	1	0.001500
38.600000	1	0.000750
38.616667	1	0.000500
38.633333	1	-0.000125
38.650000	1	-0.001750
38.666667	1	-0.002875
38.683333	1	-0.003500
38.700000	1	-0.005125
38.716667	1	-0.006375
38.733333	1	-0.008125
38.750000	1	-0.009375
38.766667	1	-0.011250
38.783333	1	-0.012750
38.800000	1	-0.014875
38.816667	1	-0.016000
38.833333	1	-0.019125
38.850000	1	-0.020750
38.866667	1	-0.022375
38.883333	1	-0.023000
38.900000	1	-0.024250
38.916667	1	-0.026125
38.933333	1	-0.027375
38.950000	1	-0.028500
38.966667	1	-0.029875
38.983333	1	-0.031125
39.000000	1	-0.031750
39.016667	1	-0.032875
39.033333	1	-0.034250
39.050000	1	-0.034625
39.066667	1	-0.034750
39.083333	1	-0.035750
39.100000	1	-0.035875
39.116667	1	-0.036750
39.133333	1	-0.037125
39.150000	1	-0.037125
39.166667	1	-0.037250
39.183333	1	-0.036750
39.200000	1	-0.036750
39.216667	1	-0.037000
39.233333	1	-0.037125
39.250000	1	-0.036750
39.266667	1	-0.037000
39.283333	1	-0.036750
39.300000	1	-0.037125
39.316667	1	-0.036625
39.333333	1	-0.036750
39.350000	1	-0.036000
39.366667	1	-0.035875
39.383333	1	-0.034875
39.400000	1	-0.035125
39.416667	1	-0.035000
39.433333	1	-0.035000
39.450000	1	-0.034750
39.466667	1	-0.034875
39.483333	1	-0.034000
39.500000	1	-0.033375
39.516667	1	-0.033625
39.533333	1	-0.033500
39.550000	1	-0.033375
39.566667	1	-0.033375
39.583333	1	-0.033125
39.600000	1	-0.033250
39.616667	1	-0.032750
39.633333	1	-0.033000
39.650000	1	-0.032750
39.666667	1	-0.032750
39.683333	1	-0.033250
39.700000	1	-0.033750
39.716667	1	-0.033875
39.733333	1	-0.033500
39.750000	1	-0.033875
39.766667	1	-0.034250
39.783333	1	-0.034375
39.800000	1	-0.034625
39.816667	1	-0.034500
39.833333	1	-0.034500
39.850000	1	-0.034500
39.866667	1	-0.034000
39.883333	1	-0.033500
39.900000	1	-0.033750
39.916667	1	-0.032875
39.933333	1	-0.032000
39.950000	1	-0.031750
39.966667	1	-0.030750
39.983333	1	-0.030375
40.000000	1	-0.030000
