URL	chrom://bioreactor/micro_cm7/HPLC_Ultimate_3000/Users/markusar/20240517_CMO_FP23_FP25_MarkusDeplate.seq/435.smp/RI_1.channel/RI_1.chm
Channel	RI_1

Injection Information:
Data Vault	micro_cm7
Sequence	20240517_CMO_FP23_FP25_MarkusDeplate
Name	FP28_22.3_s5
Number	154
Position	BB8
Comment	
Processing Method	
Instrument Method	run_25B_method
Type	Unknown
Status	Finished
Inject Time	01.06.2024 04:17:13 +02:00
Volume (µl)	20.0000
Dilution Factor	1.0000
Weight	1.0000

Chromatogram Data Information:
Time Min. (min)	0.000000
Time Max. (min)	40.000000
Data Points	2401
Detector	RI
Generating Data System	Chromeleon 7.3.2.11814
Exporting Data System	Chromeleon 7.3.2.0
Operator	Instrument Controller
Signal Quantity	Refractive 
Signal Unit	µRIU
Signal Min.	-0.923625
Signal Max.	54.213500
Channel	RI_1
Driver Name	RID520Driver.dll
Channel Type	Evaluation
Min. Step (s)	1
Max. Step (s)	1
Average Step (s)	1

Signal Parameter Information:
Signal Info	

Chromatogram Data:
Time (min)	Step (s)	Value (µRIU)
0.000000	n.a.	0.037500
0.016667	1	0.038375
0.033333	1	0.039125
0.050000	1	0.040250
0.066667	1	0.041250
0.083333	1	0.041750
0.100000	1	0.042125
0.116667	1	0.042375
0.133333	1	0.042125
0.150000	1	0.042250
0.166667	1	0.041875
0.183333	1	0.041875
0.200000	1	0.041125
0.216667	1	0.040625
0.233333	1	0.040125
0.250000	1	0.039500
0.266667	1	0.039875
0.283333	1	0.039125
0.300000	1	0.038375
0.316667	1	0.037750
0.333333	1	0.037375
0.350000	1	0.036875
0.366667	1	0.036625
0.383333	1	0.036125
0.400000	1	0.036000
0.416667	1	0.036500
0.433333	1	0.037750
0.450000	1	0.039250
0.466667	1	0.040250
0.483333	1	0.041625
0.500000	1	0.042875
0.516667	1	0.045000
0.533333	1	0.046125
0.550000	1	0.047375
0.566667	1	0.048250
0.583333	1	0.049000
0.600000	1	0.051125
0.616667	1	0.053000
0.633333	1	0.055000
0.650000	1	0.057125
0.666667	1	0.058500
0.683333	1	0.059750
0.700000	1	0.060875
0.716667	1	0.062000
0.733333	1	0.063000
0.750000	1	0.063500
0.766667	1	0.064750
0.783333	1	0.065625
0.800000	1	0.066000
0.816667	1	0.065250
0.833333	1	0.065875
0.850000	1	0.065625
0.866667	1	0.065875
0.883333	1	0.065250
0.900000	1	0.064625
0.916667	1	0.064250
0.933333	1	0.063375
0.950000	1	0.062500
0.966667	1	0.061625
0.983333	1	0.060250
1.000000	1	0.059250
1.016667	1	0.058125
1.033333	1	0.056750
1.050000	1	0.055000
1.066667	1	0.053750
1.083333	1	0.053250
1.100000	1	0.051750
1.116667	1	0.050750
1.133333	1	0.049125
1.150000	1	0.048625
1.166667	1	0.047500
1.183333	1	0.046000
1.200000	1	0.044750
1.216667	1	0.044000
1.233333	1	0.044000
1.250000	1	0.043875
1.266667	1	0.042625
1.283333	1	0.043000
1.300000	1	0.043375
1.316667	1	0.043125
1.333333	1	0.043375
1.350000	1	0.043625
1.366667	1	0.043875
1.383333	1	0.044750
1.400000	1	0.045375
1.416667	1	0.046375
1.433333	1	0.047125
1.450000	1	0.048625
1.466667	1	0.050000
1.483333	1	0.051375
1.500000	1	0.053375
1.516667	1	0.055250
1.533333	1	0.056375
1.550000	1	0.058000
1.566667	1	0.059000
1.583333	1	0.060750
1.600000	1	0.062250
1.616667	1	0.063250
1.633333	1	0.064250
1.650000	1	0.065250
1.666667	1	0.066750
1.683333	1	0.067500
1.700000	1	0.068125
1.716667	1	0.068250
1.733333	1	0.069250
1.750000	1	0.069500
1.766667	1	0.069625
1.783333	1	0.068625
1.800000	1	0.067750
1.816667	1	0.066500
1.833333	1	0.065250
1.850000	1	0.063875
1.866667	1	0.063125
1.883333	1	0.061750
1.900000	1	0.059500
1.916667	1	0.057750
1.933333	1	0.055250
1.950000	1	0.053750
1.966667	1	0.051875
1.983333	1	0.049625
2.000000	1	0.047500
2.016667	1	0.045625
2.033333	1	0.043250
2.050000	1	0.041625
2.066667	1	0.040250
2.083333	1	0.038000
2.100000	1	0.035625
2.116667	1	0.033500
2.133333	1	0.031000
2.150000	1	0.029125
2.166667	1	0.027375
2.183333	1	0.026125
2.200000	1	0.025000
2.216667	1	0.023750
2.233333	1	0.022750
2.250000	1	0.021000
2.266667	1	0.019750
2.283333	1	0.018625
2.300000	1	0.017750
2.316667	1	0.016500
2.333333	1	0.016125
2.350000	1	0.015375
2.366667	1	0.014500
2.383333	1	0.014000
2.400000	1	0.013375
2.416667	1	0.012875
2.433333	1	0.012375
2.450000	1	0.011625
2.466667	1	0.012125
2.483333	1	0.012125
2.500000	1	0.013125
2.516667	1	0.013875
2.533333	1	0.013625
2.550000	1	0.015000
2.566667	1	0.016500
2.583333	1	0.017750
2.600000	1	0.019000
2.616667	1	0.021250
2.633333	1	0.023625
2.650000	1	0.026000
2.666667	1	0.028625
2.683333	1	0.030875
2.700000	1	0.033250
2.716667	1	0.036500
2.733333	1	0.039625
2.750000	1	0.043125
2.766667	1	0.046125
2.783333	1	0.049500
2.800000	1	0.052625
2.816667	1	0.056000
2.833333	1	0.059500
2.850000	1	0.062750
2.866667	1	0.066375
2.883333	1	0.069500
2.900000	1	0.072125
2.916667	1	0.074750
2.933333	1	0.077125
2.950000	1	0.079000
2.966667	1	0.081375
2.983333	1	0.083000
3.000000	1	0.085250
3.016667	1	0.087000
3.033333	1	0.089000
3.050000	1	0.090375
3.066667	1	0.091625
3.083333	1	0.092500
3.100000	1	0.093750
3.116667	1	0.095000
3.133333	1	0.096250
3.150000	1	0.097750
3.166667	1	0.098875
3.183333	1	0.099625
3.200000	1	0.100500
3.216667	1	0.101625
3.233333	1	0.103625
3.250000	1	0.104500
3.266667	1	0.105250
3.283333	1	0.107125
3.300000	1	0.107750
3.316667	1	0.109125
3.333333	1	0.109625
3.350000	1	0.110250
3.366667	1	0.111125
3.383333	1	0.112000
3.400000	1	0.113375
3.416667	1	0.113750
3.433333	1	0.114500
3.450000	1	0.114625
3.466667	1	0.114500
3.483333	1	0.115125
3.500000	1	0.116000
3.516667	1	0.115875
3.533333	1	0.116125
3.550000	1	0.116125
3.566667	1	0.116125
3.583333	1	0.115500
3.600000	1	0.115375
3.616667	1	0.115125
3.633333	1	0.114500
3.650000	1	0.113875
3.666667	1	0.114000
3.683333	1	0.114000
3.700000	1	0.112625
3.716667	1	0.111250
3.733333	1	0.110500
3.750000	1	0.109875
3.766667	1	0.108500
3.783333	1	0.107875
3.800000	1	0.107625
3.816667	1	0.106625
3.833333	1	0.106000
3.850000	1	0.105250
3.866667	1	0.105500
3.883333	1	0.105250
3.900000	1	0.104625
3.916667	1	0.104125
3.933333	1	0.104250
3.950000	1	0.104125
3.966667	1	0.104125
3.983333	1	0.103875
4.000000	1	0.104375
4.016667	1	0.104625
4.033333	1	0.104250
4.050000	1	0.104625
4.066667	1	0.104500
4.083333	1	0.105125
4.100000	1	0.105000
4.116667	1	0.106375
4.133333	1	0.107125
4.150000	1	0.107625
4.166667	1	0.108125
4.183333	1	0.108375
4.200000	1	0.108125
4.216667	1	0.109000
4.233333	1	0.109375
4.250000	1	0.110500
4.266667	1	0.111000
4.283333	1	0.111375
4.300000	1	0.111875
4.316667	1	0.112500
4.333333	1	0.113000
4.350000	1	0.113375
4.366667	1	0.115000
4.383333	1	0.115125
4.400000	1	0.116375
4.416667	1	0.116875
4.433333	1	0.117500
4.450000	1	0.117875
4.466667	1	0.118500
4.483333	1	0.119125
4.500000	1	0.119375
4.516667	1	0.119500
4.533333	1	0.119875
4.550000	1	0.119500
4.566667	1	0.120000
4.583333	1	0.120625
4.600000	1	0.120375
4.616667	1	0.120875
4.633333	1	0.120500
4.650000	1	0.120625
4.666667	1	0.120875
4.683333	1	0.121000
4.700000	1	0.121000
4.716667	1	0.121375
4.733333	1	0.121750
4.750000	1	0.121875
4.766667	1	0.122000
4.783333	1	0.122875
4.800000	1	0.123625
4.816667	1	0.124375
4.833333	1	0.124375
4.850000	1	0.126250
4.866667	1	0.127625
4.883333	1	0.129750
4.900000	1	0.131875
4.916667	1	0.134375
4.933333	1	0.136875
4.950000	1	0.139750
4.966667	1	0.142375
4.983333	1	0.145750
5.000000	1	0.149875
5.016667	1	0.154500
5.033333	1	0.159250
5.050000	1	0.163625
5.066667	1	0.168125
5.083333	1	0.173750
5.100000	1	0.178875
5.116667	1	0.183500
5.133333	1	0.189000
5.150000	1	0.194000
5.166667	1	0.200000
5.183333	1	0.205000
5.200000	1	0.210375
5.216667	1	0.216000
5.233333	1	0.221875
5.250000	1	0.227000
5.266667	1	0.231875
5.283333	1	0.236875
5.300000	1	0.241875
5.316667	1	0.247000
5.333333	1	0.251625
5.350000	1	0.256625
5.366667	1	0.261000
5.383333	1	0.265250
5.400000	1	0.268875
5.416667	1	0.273375
5.433333	1	0.277625
5.450000	1	0.282000
5.466667	1	0.285875
5.483333	1	0.288875
5.500000	1	0.291750
5.516667	1	0.294875
5.533333	1	0.297875
5.550000	1	0.301250
5.566667	1	0.304000
5.583333	1	0.306500
5.600000	1	0.309125
5.616667	1	0.310875
5.633333	1	0.313000
5.650000	1	0.314625
5.666667	1	0.316500
5.683333	1	0.317625
5.700000	1	0.318875
5.716667	1	0.320500
5.733333	1	0.321750
5.750000	1	0.322000
5.766667	1	0.322125
5.783333	1	0.322500
5.800000	1	0.322250
5.816667	1	0.321875
5.833333	1	0.321000
5.850000	1	0.320625
5.866667	1	0.319750
5.883333	1	0.318000
5.900000	1	0.316875
5.916667	1	0.315625
5.933333	1	0.313750
5.950000	1	0.311375
5.966667	1	0.309125
5.983333	1	0.307375
6.000000	1	0.304875
6.016667	1	0.301750
6.033333	1	0.298375
6.050000	1	0.294875
6.066667	1	0.291750
6.083333	1	0.287750
6.100000	1	0.283000
6.116667	1	0.279000
6.133333	1	0.275000
6.150000	1	0.270375
6.166667	1	0.265875
6.183333	1	0.261125
6.200000	1	0.256250
6.216667	1	0.251750
6.233333	1	0.247250
6.250000	1	0.242250
6.266667	1	0.238125
6.283333	1	0.233500
6.300000	1	0.228750
6.316667	1	0.224625
6.333333	1	0.220250
6.350000	1	0.216625
6.366667	1	0.213125
6.383333	1	0.210250
6.400000	1	0.207375
6.416667	1	0.204125
6.433333	1	0.201750
6.450000	1	0.200000
6.466667	1	0.197875
6.483333	1	0.196500
6.500000	1	0.195000
6.516667	1	0.193875
6.533333	1	0.192500
6.550000	1	0.191125
6.566667	1	0.190125
6.583333	1	0.189250
6.600000	1	0.188625
6.616667	1	0.187625
6.633333	1	0.187000
6.650000	1	0.186625
6.666667	1	0.186875
6.683333	1	0.186500
6.700000	1	0.185375
6.716667	1	0.185250
6.733333	1	0.184500
6.750000	1	0.184500
6.766667	1	0.184250
6.783333	1	0.184125
6.800000	1	0.183875
6.816667	1	0.183625
6.833333	1	0.183250
6.850000	1	0.182125
6.866667	1	0.181750
6.883333	1	0.181000
6.900000	1	0.180125
6.916667	1	0.179125
6.933333	1	0.179625
6.950000	1	0.179750
6.966667	1	0.178500
6.983333	1	0.178250
7.000000	1	0.178125
7.016667	1	0.178000
7.033333	1	0.178500
7.050000	1	0.179250
7.066667	1	0.179625
7.083333	1	0.180500
7.100000	1	0.181000
7.116667	1	0.182125
7.133333	1	0.183125
7.150000	1	0.184625
7.166667	1	0.186250
7.183333	1	0.188375
7.200000	1	0.190625
7.216667	1	0.193375
7.233333	1	0.196250
7.250000	1	0.198500
7.266667	1	0.201250
7.283333	1	0.204125
7.300000	1	0.207250
7.316667	1	0.211375
7.333333	1	0.214625
7.350000	1	0.217875
7.366667	1	0.221500
7.383333	1	0.224625
7.400000	1	0.228125
7.416667	1	0.231500
7.433333	1	0.234375
7.450000	1	0.237375
7.466667	1	0.239625
7.483333	1	0.242000
7.500000	1	0.243375
7.516667	1	0.244875
7.533333	1	0.246625
7.550000	1	0.247750
7.566667	1	0.248750
7.583333	1	0.249750
7.600000	1	0.249875
7.616667	1	0.249375
7.633333	1	0.248375
7.650000	1	0.247625
7.666667	1	0.245750
7.683333	1	0.243375
7.700000	1	0.240625
7.716667	1	0.238375
7.733333	1	0.235500
7.750000	1	0.232875
7.766667	1	0.230250
7.783333	1	0.227500
7.800000	1	0.224250
7.816667	1	0.220875
7.833333	1	0.217125
7.850000	1	0.213375
7.866667	1	0.210500
7.883333	1	0.207375
7.900000	1	0.203875
7.916667	1	0.200750
7.933333	1	0.197500
7.950000	1	0.194250
7.966667	1	0.191000
7.983333	1	0.188375
8.000000	1	0.184375
8.016667	1	0.181250
8.033333	1	0.178625
8.050000	1	0.175500
8.066667	1	0.173625
8.083333	1	0.171000
8.100000	1	0.169750
8.116667	1	0.167750
8.133333	1	0.165375
8.150000	1	0.163000
8.166667	1	0.160500
8.183333	1	0.158250
8.200000	1	0.156375
8.216667	1	0.154625
8.233333	1	0.152750
8.250000	1	0.150125
8.266667	1	0.148000
8.283333	1	0.145250
8.300000	1	0.143250
8.316667	1	0.141125
8.333333	1	0.139125
8.350000	1	0.137250
8.366667	1	0.134375
8.383333	1	0.132000
8.400000	1	0.129500
8.416667	1	0.127125
8.433333	1	0.124375
8.450000	1	0.121750
8.466667	1	0.118500
8.483333	1	0.116250
8.500000	1	0.114375
8.516667	1	0.112750
8.533333	1	0.110250
8.550000	1	0.108250
8.566667	1	0.106125
8.583333	1	0.104125
8.600000	1	0.102250
8.616667	1	0.101000
8.633333	1	0.099375
8.650000	1	0.097750
8.666667	1	0.096625
8.683333	1	0.095375
8.700000	1	0.094875
8.716667	1	0.094375
8.733333	1	0.093500
8.750000	1	0.092875
8.766667	1	0.093125
8.783333	1	0.092875
8.800000	1	0.093875
8.816667	1	0.094625
8.833333	1	0.095000
8.850000	1	0.095000
8.866667	1	0.096125
8.883333	1	0.097625
8.900000	1	0.099250
8.916667	1	0.100250
8.933333	1	0.102125
8.950000	1	0.103000
8.966667	1	0.104375
8.983333	1	0.105875
9.000000	1	0.107500
9.016667	1	0.109250
9.033333	1	0.111125
9.050000	1	0.112875
9.066667	1	0.114750
9.083333	1	0.116625
9.100000	1	0.118250
9.116667	1	0.120500
9.133333	1	0.121500
9.150000	1	0.123375
9.166667	1	0.125000
9.183333	1	0.126125
9.200000	1	0.127250
9.216667	1	0.128125
9.233333	1	0.129125
9.250000	1	0.129750
9.266667	1	0.130625
9.283333	1	0.130875
9.300000	1	0.132250
9.316667	1	0.133375
9.333333	1	0.134125
9.350000	1	0.134250
9.366667	1	0.135000
9.383333	1	0.135375
9.400000	1	0.136250
9.416667	1	0.136750
9.433333	1	0.137250
9.450000	1	0.137750
9.466667	1	0.138875
9.483333	1	0.139625
9.500000	1	0.140875
9.516667	1	0.142125
9.533333	1	0.143250
9.550000	1	0.143875
9.566667	1	0.144875
9.583333	1	0.146125
9.600000	1	0.147250
9.616667	1	0.148625
9.633333	1	0.149375
9.650000	1	0.150250
9.666667	1	0.151000
9.683333	1	0.151500
9.700000	1	0.152000
9.716667	1	0.152250
9.733333	1	0.152625
9.750000	1	0.152750
9.766667	1	0.152500
9.783333	1	0.152250
9.800000	1	0.151125
9.816667	1	0.150250
9.833333	1	0.149250
9.850000	1	0.148500
9.866667	1	0.146500
9.883333	1	0.144750
9.900000	1	0.142625
9.916667	1	0.141375
9.933333	1	0.139875
9.950000	1	0.138375
9.966667	1	0.136750
9.983333	1	0.134750
10.000000	1	0.134000
10.016667	1	0.132750
10.033333	1	0.132000
10.050000	1	0.132125
10.066667	1	0.133125
10.083333	1	0.134625
10.100000	1	0.137625
10.116667	1	0.140625
10.133333	1	0.144500
10.150000	1	0.149750
10.166667	1	0.155500
10.183333	1	0.162625
10.200000	1	0.171500
10.216667	1	0.181625
10.233333	1	0.193750
10.250000	1	0.207875
10.266667	1	0.224625
10.283333	1	0.244000
10.300000	1	0.266250
10.316667	1	0.290875
10.333333	1	0.316875
10.350000	1	0.343125
10.366667	1	0.368750
10.383333	1	0.390500
10.400000	1	0.407875
10.416667	1	0.420625
10.433333	1	0.428875
10.450000	1	0.437625
10.466667	1	0.455125
10.483333	1	0.496500
10.500000	1	0.584750
10.516667	1	0.754875
10.533333	1	1.048250
10.550000	1	1.521625
10.566667	1	2.232500
10.583333	1	3.242375
10.600000	1	4.607250
10.616667	1	6.372125
10.633333	1	8.564875
10.650000	1	11.196875
10.666667	1	14.265625
10.683333	1	17.749375
10.700000	1	21.605375
10.716667	1	25.765625
10.733333	1	30.129625
10.750000	1	34.559750
10.766667	1	38.867375
10.783333	1	42.808875
10.800000	1	46.091375
10.816667	1	48.398500
10.833333	1	49.444625
10.850000	1	49.046000
10.866667	1	47.184875
10.883333	1	44.029750
10.900000	1	39.913875
10.916667	1	35.255875
10.933333	1	30.466250
10.950000	1	25.872375
10.966667	1	21.691000
10.983333	1	18.028500
11.000000	1	14.912375
11.016667	1	12.321125
11.033333	1	10.206375
11.050000	1	8.504750
11.066667	1	7.148375
11.083333	1	6.074500
11.100000	1	5.227125
11.116667	1	4.557375
11.133333	1	4.025375
11.150000	1	3.600125
11.166667	1	3.254750
11.183333	1	2.973125
11.200000	1	2.739125
11.216667	1	2.542500
11.233333	1	2.375500
11.250000	1	2.231375
11.266667	1	2.106375
11.283333	1	1.997000
11.300000	1	1.900250
11.316667	1	1.813750
11.333333	1	1.737000
11.350000	1	1.667625
11.366667	1	1.606375
11.383333	1	1.551375
11.400000	1	1.501750
11.416667	1	1.458125
11.433333	1	1.418875
11.450000	1	1.383250
11.466667	1	1.351750
11.483333	1	1.323250
11.500000	1	1.297875
11.516667	1	1.274375
11.533333	1	1.253375
11.550000	1	1.234375
11.566667	1	1.217500
11.583333	1	1.202125
11.600000	1	1.188375
11.616667	1	1.176125
11.633333	1	1.165750
11.650000	1	1.156875
11.666667	1	1.149125
11.683333	1	1.144125
11.700000	1	1.140000
11.716667	1	1.137000
11.733333	1	1.135000
11.750000	1	1.135000
11.766667	1	1.136500
11.783333	1	1.139375
11.800000	1	1.142750
11.816667	1	1.146375
11.833333	1	1.151250
11.850000	1	1.156250
11.866667	1	1.161375
11.883333	1	1.166625
11.900000	1	1.171750
11.916667	1	1.176750
11.933333	1	1.181000
11.950000	1	1.186125
11.966667	1	1.191375
11.983333	1	1.196750
12.000000	1	1.201875
12.016667	1	1.207375
12.033333	1	1.213375
12.050000	1	1.220125
12.066667	1	1.226375
12.083333	1	1.232250
12.100000	1	1.239125
12.116667	1	1.246875
12.133333	1	1.254500
12.150000	1	1.261625
12.166667	1	1.270125
12.183333	1	1.278750
12.200000	1	1.288625
12.216667	1	1.299250
12.233333	1	1.312500
12.250000	1	1.326625
12.266667	1	1.344750
12.283333	1	1.365750
12.300000	1	1.390750
12.316667	1	1.421375
12.333333	1	1.458000
12.350000	1	1.503125
12.366667	1	1.559000
12.383333	1	1.626875
12.400000	1	1.710875
12.416667	1	1.813500
12.433333	1	1.939500
12.450000	1	2.094000
12.466667	1	2.280625
12.483333	1	2.504750
12.500000	1	2.767625
12.516667	1	3.072125
12.533333	1	3.415750
12.550000	1	3.794875
12.566667	1	4.200875
12.583333	1	4.622625
12.600000	1	5.045875
12.616667	1	5.453625
12.633333	1	5.830250
12.650000	1	6.160000
12.666667	1	6.427750
12.683333	1	6.622500
12.700000	1	6.739125
12.716667	1	6.775125
12.733333	1	6.735000
12.750000	1	6.625000
12.766667	1	6.456125
12.783333	1	6.238500
12.800000	1	5.986375
12.816667	1	5.711250
12.833333	1	5.423875
12.850000	1	5.133375
12.866667	1	4.847500
12.883333	1	4.572625
12.900000	1	4.312875
12.916667	1	4.071500
12.933333	1	3.851375
12.950000	1	3.652250
12.966667	1	3.474500
12.983333	1	3.316125
13.000000	1	3.176625
13.016667	1	3.053250
13.033333	1	2.945750
13.050000	1	2.851000
13.066667	1	2.767500
13.083333	1	2.693375
13.100000	1	2.628250
13.116667	1	2.569750
13.133333	1	2.515875
13.150000	1	2.467125
13.166667	1	2.422750
13.183333	1	2.382000
13.200000	1	2.343625
13.216667	1	2.307625
13.233333	1	2.273000
13.250000	1	2.240125
13.266667	1	2.208625
13.283333	1	2.178625
13.300000	1	2.150000
13.316667	1	2.121875
13.333333	1	2.095500
13.350000	1	2.071125
13.366667	1	2.047750
13.383333	1	2.027000
13.400000	1	2.007875
13.416667	1	1.990875
13.433333	1	1.976125
13.450000	1	1.964125
13.466667	1	1.954125
13.483333	1	1.947000
13.500000	1	1.941250
13.516667	1	1.937875
13.533333	1	1.936250
13.550000	1	1.934750
13.566667	1	1.934500
13.583333	1	1.933375
13.600000	1	1.931750
13.616667	1	1.928000
13.633333	1	1.922750
13.650000	1	1.914875
13.666667	1	1.904250
13.683333	1	1.890875
13.700000	1	1.874750
13.716667	1	1.855750
13.733333	1	1.834875
13.750000	1	1.812375
13.766667	1	1.789250
13.783333	1	1.766250
13.800000	1	1.742625
13.816667	1	1.719375
13.833333	1	1.696125
13.850000	1	1.674750
13.866667	1	1.654125
13.883333	1	1.635125
13.900000	1	1.615875
13.916667	1	1.598375
13.933333	1	1.581125
13.950000	1	1.565500
13.966667	1	1.550375
13.983333	1	1.536125
14.000000	1	1.522500
14.016667	1	1.510000
14.033333	1	1.498375
14.050000	1	1.486875
14.066667	1	1.475750
14.083333	1	1.465875
14.100000	1	1.455750
14.116667	1	1.446125
14.133333	1	1.437375
14.150000	1	1.429500
14.166667	1	1.422625
14.183333	1	1.416250
14.200000	1	1.411125
14.216667	1	1.407625
14.233333	1	1.405500
14.250000	1	1.405125
14.266667	1	1.406750
14.283333	1	1.410625
14.300000	1	1.417375
14.316667	1	1.427250
14.333333	1	1.441750
14.350000	1	1.460000
14.366667	1	1.483750
14.383333	1	1.514875
14.400000	1	1.555375
14.416667	1	1.608250
14.433333	1	1.678125
14.450000	1	1.770500
14.466667	1	1.894750
14.483333	1	2.062250
14.500000	1	2.287875
14.516667	1	2.591125
14.533333	1	2.997500
14.550000	1	3.537875
14.566667	1	4.249250
14.583333	1	5.172000
14.600000	1	6.351000
14.616667	1	7.834750
14.633333	1	9.670750
14.650000	1	11.898500
14.666667	1	14.542000
14.683333	1	17.607125
14.700000	1	21.071000
14.716667	1	24.881250
14.733333	1	28.956250
14.750000	1	33.184250
14.766667	1	37.421375
14.783333	1	41.503750
14.800000	1	45.266250
14.816667	1	48.542750
14.833333	1	51.181875
14.850000	1	53.057000
14.866667	1	54.082125
14.883333	1	54.213500
14.900000	1	53.463750
14.916667	1	51.888625
14.933333	1	49.587125
14.950000	1	46.686500
14.966667	1	43.338750
14.983333	1	39.702375
15.000000	1	35.922250
15.016667	1	32.131000
15.033333	1	28.441000
15.050000	1	24.943250
15.066667	1	21.703250
15.083333	1	18.760500
15.100000	1	16.134000
15.116667	1	13.826875
15.133333	1	11.824125
15.150000	1	10.105625
15.166667	1	8.645250
15.183333	1	7.414500
15.200000	1	6.383125
15.216667	1	5.523875
15.233333	1	4.812250
15.250000	1	4.226750
15.266667	1	3.747625
15.283333	1	3.359500
15.300000	1	3.047000
15.316667	1	2.799250
15.333333	1	2.605000
15.350000	1	2.455375
15.366667	1	2.343125
15.383333	1	2.260750
15.400000	1	2.202250
15.416667	1	2.162375
15.433333	1	2.136125
15.450000	1	2.118750
15.466667	1	2.106250
15.483333	1	2.094625
15.500000	1	2.082125
15.516667	1	2.066000
15.533333	1	2.044875
15.550000	1	2.017875
15.566667	1	1.985500
15.583333	1	1.947625
15.600000	1	1.906625
15.616667	1	1.863125
15.633333	1	1.817000
15.650000	1	1.770500
15.666667	1	1.725000
15.683333	1	1.681500
15.700000	1	1.639875
15.716667	1	1.601250
15.733333	1	1.564625
15.750000	1	1.530750
15.766667	1	1.499750
15.783333	1	1.471000
15.800000	1	1.445250
15.816667	1	1.421000
15.833333	1	1.398250
15.850000	1	1.378000
15.866667	1	1.359250
15.883333	1	1.342125
15.900000	1	1.327000
15.916667	1	1.313875
15.933333	1	1.302125
15.950000	1	1.293750
15.966667	1	1.286375
15.983333	1	1.281625
16.000000	1	1.278250
16.016667	1	1.276500
16.033333	1	1.277125
16.050000	1	1.277875
16.066667	1	1.279625
16.083333	1	1.282250
16.100000	1	1.285875
16.116667	1	1.289125
16.133333	1	1.292125
16.150000	1	1.294750
16.166667	1	1.297875
16.183333	1	1.299750
16.200000	1	1.301250
16.216667	1	1.301250
16.233333	1	1.300500
16.250000	1	1.298875
16.266667	1	1.296625
16.283333	1	1.294000
16.300000	1	1.290750
16.316667	1	1.287250
16.333333	1	1.283500
16.350000	1	1.279750
16.366667	1	1.276750
16.383333	1	1.274750
16.400000	1	1.272875
16.416667	1	1.272750
16.433333	1	1.273750
16.450000	1	1.275750
16.466667	1	1.277375
16.483333	1	1.280250
16.500000	1	1.283375
16.516667	1	1.287250
16.533333	1	1.289375
16.550000	1	1.291250
16.566667	1	1.291125
16.583333	1	1.290750
16.600000	1	1.289375
16.616667	1	1.286500
16.633333	1	1.283250
16.650000	1	1.279375
16.666667	1	1.274750
16.683333	1	1.270750
16.700000	1	1.266875
16.716667	1	1.264125
16.733333	1	1.262500
16.750000	1	1.261875
16.766667	1	1.262875
16.783333	1	1.265250
16.800000	1	1.269500
16.816667	1	1.275000
16.833333	1	1.280875
16.850000	1	1.286625
16.866667	1	1.292750
16.883333	1	1.298375
16.900000	1	1.303250
16.916667	1	1.307125
16.933333	1	1.309625
16.950000	1	1.310375
16.966667	1	1.310000
16.983333	1	1.308250
17.000000	1	1.306000
17.016667	1	1.302125
17.033333	1	1.298000
17.050000	1	1.293875
17.066667	1	1.289000
17.083333	1	1.284125
17.100000	1	1.279625
17.116667	1	1.274875
17.133333	1	1.271500
17.150000	1	1.269250
17.166667	1	1.266625
17.183333	1	1.265125
17.200000	1	1.264875
17.216667	1	1.265375
17.233333	1	1.266000
17.250000	1	1.268375
17.266667	1	1.270125
17.283333	1	1.272625
17.300000	1	1.276250
17.316667	1	1.279875
17.333333	1	1.282750
17.350000	1	1.287125
17.366667	1	1.290750
17.383333	1	1.294875
17.400000	1	1.298750
17.416667	1	1.301125
17.433333	1	1.302375
17.450000	1	1.302625
17.466667	1	1.301750
17.483333	1	1.298750
17.500000	1	1.294375
17.516667	1	1.288500
17.533333	1	1.281125
17.550000	1	1.271750
17.566667	1	1.261500
17.583333	1	1.249500
17.600000	1	1.236375
17.616667	1	1.221625
17.633333	1	1.207375
17.650000	1	1.191375
17.666667	1	1.176000
17.683333	1	1.160500
17.700000	1	1.145500
17.716667	1	1.130750
17.733333	1	1.116750
17.750000	1	1.103500
17.766667	1	1.091500
17.783333	1	1.080500
17.800000	1	1.070500
17.816667	1	1.061875
17.833333	1	1.053750
17.850000	1	1.046500
17.866667	1	1.039625
17.883333	1	1.034000
17.900000	1	1.028875
17.916667	1	1.023750
17.933333	1	1.019375
17.950000	1	1.015125
17.966667	1	1.010375
17.983333	1	1.006000
18.000000	1	1.001750
18.016667	1	0.997000
18.033333	1	0.992375
18.050000	1	0.987500
18.066667	1	0.982250
18.083333	1	0.977875
18.100000	1	0.973125
18.116667	1	0.969000
18.133333	1	0.965125
18.150000	1	0.962125
18.166667	1	0.959250
18.183333	1	0.957000
18.200000	1	0.955375
18.216667	1	0.954125
18.233333	1	0.953750
18.250000	1	0.952625
18.266667	1	0.952500
18.283333	1	0.952125
18.300000	1	0.952750
18.316667	1	0.954000
18.333333	1	0.955125
18.350000	1	0.956500
18.366667	1	0.958500
18.383333	1	0.960750
18.400000	1	0.964625
18.416667	1	0.969625
18.433333	1	0.977000
18.450000	1	0.984250
18.466667	1	0.994125
18.483333	1	1.005250
18.500000	1	1.018000
18.516667	1	1.032250
18.533333	1	1.048875
18.550000	1	1.067125
18.566667	1	1.087375
18.583333	1	1.109250
18.600000	1	1.133000
18.616667	1	1.158750
18.633333	1	1.185375
18.650000	1	1.213500
18.666667	1	1.241875
18.683333	1	1.270875
18.700000	1	1.300625
18.716667	1	1.331125
18.733333	1	1.362125
18.750000	1	1.392500
18.766667	1	1.422000
18.783333	1	1.451375
18.800000	1	1.478375
18.816667	1	1.502750
18.833333	1	1.525375
18.850000	1	1.543875
18.866667	1	1.559125
18.883333	1	1.569625
18.900000	1	1.574625
18.916667	1	1.574750
18.933333	1	1.569625
18.950000	1	1.559125
18.966667	1	1.541750
18.983333	1	1.518750
19.000000	1	1.491000
19.016667	1	1.457875
19.033333	1	1.421500
19.050000	1	1.381500
19.066667	1	1.339125
19.083333	1	1.294250
19.100000	1	1.250000
19.116667	1	1.205125
19.133333	1	1.161625
19.150000	1	1.120000
19.166667	1	1.081125
19.183333	1	1.046125
19.200000	1	1.015000
19.216667	1	0.988750
19.233333	1	0.966500
19.250000	1	0.950500
19.266667	1	0.940000
19.283333	1	0.935000
19.300000	1	0.936125
19.316667	1	0.942875
19.333333	1	0.954000
19.350000	1	0.970625
19.366667	1	0.992125
19.383333	1	1.017500
19.400000	1	1.046125
19.416667	1	1.077250
19.433333	1	1.110750
19.450000	1	1.144625
19.466667	1	1.177875
19.483333	1	1.210625
19.500000	1	1.240500
19.516667	1	1.268875
19.533333	1	1.293750
19.550000	1	1.314500
19.566667	1	1.330500
19.583333	1	1.342500
19.600000	1	1.349375
19.616667	1	1.350875
19.633333	1	1.347250
19.650000	1	1.339250
19.666667	1	1.326125
19.683333	1	1.309500
19.700000	1	1.289625
19.716667	1	1.266250
19.733333	1	1.240750
19.750000	1	1.212750
19.766667	1	1.183625
19.783333	1	1.152375
19.800000	1	1.120750
19.816667	1	1.088375
19.833333	1	1.057125
19.850000	1	1.026625
19.866667	1	0.997000
19.883333	1	0.969000
19.900000	1	0.942750
19.916667	1	0.919000
19.933333	1	0.897250
19.950000	1	0.878875
19.966667	1	0.864125
19.983333	1	0.853000
20.000000	1	0.845625
20.016667	1	0.842875
20.033333	1	0.843625
20.050000	1	0.849000
20.066667	1	0.859500
20.083333	1	0.874250
20.100000	1	0.893500
20.116667	1	0.917250
20.133333	1	0.944250
20.150000	1	0.974875
20.166667	1	1.008125
20.183333	1	1.043500
20.200000	1	1.078375
20.216667	1	1.112750
20.233333	1	1.145625
20.250000	1	1.176250
20.266667	1	1.202250
20.283333	1	1.223625
20.300000	1	1.239125
20.316667	1	1.248500
20.333333	1	1.251250
20.350000	1	1.246875
20.366667	1	1.236250
20.383333	1	1.219250
20.400000	1	1.196875
20.416667	1	1.170375
20.433333	1	1.139625
20.450000	1	1.107000
20.466667	1	1.073875
20.483333	1	1.041125
20.500000	1	1.010000
20.516667	1	0.982625
20.533333	1	0.960000
20.550000	1	0.941375
20.566667	1	0.929125
20.583333	1	0.924000
20.600000	1	0.926500
20.616667	1	0.937000
20.633333	1	0.956875
20.650000	1	0.985000
20.666667	1	1.020750
20.683333	1	1.064125
20.700000	1	1.115000
20.716667	1	1.172875
20.733333	1	1.234625
20.750000	1	1.300125
20.766667	1	1.367625
20.783333	1	1.435875
20.800000	1	1.500500
20.816667	1	1.560375
20.833333	1	1.613750
20.850000	1	1.658375
20.866667	1	1.693500
20.883333	1	1.717125
20.900000	1	1.728375
20.916667	1	1.727375
20.933333	1	1.713875
20.950000	1	1.688000
20.966667	1	1.650875
20.983333	1	1.603750
21.000000	1	1.548750
21.016667	1	1.487250
21.033333	1	1.420750
21.050000	1	1.351125
21.066667	1	1.281000
21.083333	1	1.211125
21.100000	1	1.142250
21.116667	1	1.076375
21.133333	1	1.014500
21.150000	1	0.956250
21.166667	1	0.902875
21.183333	1	0.854000
21.200000	1	0.810250
21.216667	1	0.771250
21.233333	1	0.736375
21.250000	1	0.705625
21.266667	1	0.678000
21.283333	1	0.654750
21.300000	1	0.635000
21.316667	1	0.617375
21.333333	1	0.601875
21.350000	1	0.589750
21.366667	1	0.578625
21.383333	1	0.570250
21.400000	1	0.562500
21.416667	1	0.556875
21.433333	1	0.551625
21.450000	1	0.548000
21.466667	1	0.544500
21.483333	1	0.541750
21.500000	1	0.540875
21.516667	1	0.541375
21.533333	1	0.542500
21.550000	1	0.545625
21.566667	1	0.550125
21.583333	1	0.555625
21.600000	1	0.562250
21.616667	1	0.571375
21.633333	1	0.582125
21.650000	1	0.595750
21.666667	1	0.610750
21.683333	1	0.627875
21.700000	1	0.647500
21.716667	1	0.668750
21.733333	1	0.692500
21.750000	1	0.718000
21.766667	1	0.744750
21.783333	1	0.773125
21.800000	1	0.802750
21.816667	1	0.832500
21.833333	1	0.862125
21.850000	1	0.891625
21.866667	1	0.919500
21.883333	1	0.945500
21.900000	1	0.969875
21.916667	1	0.991250
21.933333	1	1.010500
21.950000	1	1.026250
21.966667	1	1.037750
21.983333	1	1.046125
22.000000	1	1.049500
22.016667	1	1.049625
22.033333	1	1.045875
22.050000	1	1.039625
22.066667	1	1.029250
22.083333	1	1.015875
22.100000	1	1.000250
22.116667	1	0.983500
22.133333	1	0.964625
22.150000	1	0.944000
22.166667	1	0.922000
22.183333	1	0.899125
22.200000	1	0.876375
22.216667	1	0.853250
22.233333	1	0.830250
22.250000	1	0.807375
22.266667	1	0.784875
22.283333	1	0.762375
22.300000	1	0.740375
22.316667	1	0.719625
22.333333	1	0.698500
22.350000	1	0.678375
22.366667	1	0.660000
22.383333	1	0.642625
22.400000	1	0.625000
22.416667	1	0.609125
22.433333	1	0.594750
22.450000	1	0.581250
22.466667	1	0.569000
22.483333	1	0.557250
22.500000	1	0.547250
22.516667	1	0.537750
22.533333	1	0.529125
22.550000	1	0.521750
22.566667	1	0.515000
22.583333	1	0.508250
22.600000	1	0.502375
22.616667	1	0.496500
22.633333	1	0.491250
22.650000	1	0.485125
22.666667	1	0.479625
22.683333	1	0.474125
22.700000	1	0.468125
22.716667	1	0.462000
22.733333	1	0.455750
22.750000	1	0.448500
22.766667	1	0.441750
22.783333	1	0.435250
22.800000	1	0.428750
22.816667	1	0.421500
22.833333	1	0.415000
22.850000	1	0.409000
22.866667	1	0.402125
22.883333	1	0.395750
22.900000	1	0.389750
22.916667	1	0.384875
22.933333	1	0.380375
22.950000	1	0.376625
22.966667	1	0.373250
22.983333	1	0.369875
23.000000	1	0.367875
23.016667	1	0.366625
23.033333	1	0.365750
23.050000	1	0.365500
23.066667	1	0.366000
23.083333	1	0.366875
23.100000	1	0.368875
23.116667	1	0.372000
23.133333	1	0.375375
23.150000	1	0.378875
23.166667	1	0.384250
23.183333	1	0.388875
23.200000	1	0.394375
23.216667	1	0.400875
23.233333	1	0.409125
23.250000	1	0.417500
23.266667	1	0.428500
23.283333	1	0.441250
23.300000	1	0.456625
23.316667	1	0.474875
23.333333	1	0.495875
23.350000	1	0.521125
23.366667	1	0.551000
23.383333	1	0.586500
23.400000	1	0.628875
23.416667	1	0.678875
23.433333	1	0.739000
23.450000	1	0.808125
23.466667	1	0.889000
23.483333	1	0.982250
23.500000	1	1.090250
23.516667	1	1.213375
23.533333	1	1.352250
23.550000	1	1.507500
23.566667	1	1.679000
23.583333	1	1.868500
23.600000	1	2.072750
23.616667	1	2.293000
23.633333	1	2.525750
23.650000	1	2.769125
23.666667	1	3.019625
23.683333	1	3.275000
23.700000	1	3.530875
23.716667	1	3.782625
23.733333	1	4.024625
23.750000	1	4.253375
23.766667	1	4.464000
23.783333	1	4.650750
23.800000	1	4.809875
23.816667	1	4.937500
23.833333	1	5.031375
23.850000	1	5.088875
23.866667	1	5.110500
23.883333	1	5.095500
23.900000	1	5.045000
23.916667	1	4.960000
23.933333	1	4.843000
23.950000	1	4.697375
23.966667	1	4.528500
23.983333	1	4.338625
24.000000	1	4.132500
24.016667	1	3.915375
24.033333	1	3.691000
24.050000	1	3.464375
24.066667	1	3.237125
24.083333	1	3.013000
24.100000	1	2.795000
24.116667	1	2.583875
24.133333	1	2.383000
24.150000	1	2.192875
24.166667	1	2.015500
24.183333	1	1.850000
24.200000	1	1.697375
24.216667	1	1.557250
24.233333	1	1.429625
24.250000	1	1.313250
24.266667	1	1.208375
24.283333	1	1.113625
24.300000	1	1.029375
24.316667	1	0.953875
24.333333	1	0.887125
24.350000	1	0.828000
24.366667	1	0.776625
24.383333	1	0.731625
24.400000	1	0.692250
24.416667	1	0.658500
24.433333	1	0.630250
24.450000	1	0.605375
24.466667	1	0.585375
24.483333	1	0.568125
24.500000	1	0.554000
24.516667	1	0.542500
24.533333	1	0.533250
24.550000	1	0.526000
24.566667	1	0.520000
24.583333	1	0.515375
24.600000	1	0.511875
24.616667	1	0.508625
24.633333	1	0.505750
24.650000	1	0.503250
24.666667	1	0.500500
24.683333	1	0.498500
24.700000	1	0.495875
24.716667	1	0.492875
24.733333	1	0.490000
24.750000	1	0.487250
24.766667	1	0.484875
24.783333	1	0.481625
24.800000	1	0.478375
24.816667	1	0.475625
24.833333	1	0.472875
24.850000	1	0.469000
24.866667	1	0.465500
24.883333	1	0.462750
24.900000	1	0.459875
24.916667	1	0.457750
24.933333	1	0.455125
24.950000	1	0.452125
24.966667	1	0.449125
24.983333	1	0.446625
25.000000	1	0.443875
25.016667	1	0.441250
25.033333	1	0.438750
25.050000	1	0.436125
25.066667	1	0.433375
25.083333	1	0.430250
25.100000	1	0.427125
25.116667	1	0.423625
25.133333	1	0.420125
25.150000	1	0.415875
25.166667	1	0.411750
25.183333	1	0.407000
25.200000	1	0.402375
25.216667	1	0.397875
25.233333	1	0.392750
25.250000	1	0.387750
25.266667	1	0.383125
25.283333	1	0.378625
25.300000	1	0.373375
25.316667	1	0.368875
25.333333	1	0.364125
25.350000	1	0.359000
25.366667	1	0.353875
25.383333	1	0.349625
25.400000	1	0.345375
25.416667	1	0.341000
25.433333	1	0.337125
25.450000	1	0.333625
25.466667	1	0.330750
25.483333	1	0.328125
25.500000	1	0.325250
25.516667	1	0.323125
25.533333	1	0.321000
25.550000	1	0.318500
25.566667	1	0.316250
25.583333	1	0.314875
25.600000	1	0.313875
25.616667	1	0.312625
25.633333	1	0.311000
25.650000	1	0.310500
25.666667	1	0.309875
25.683333	1	0.309375
25.700000	1	0.308375
25.716667	1	0.307500
25.733333	1	0.306000
25.750000	1	0.305250
25.766667	1	0.304875
25.783333	1	0.304750
25.800000	1	0.303750
25.816667	1	0.303500
25.833333	1	0.303250
25.850000	1	0.303375
25.866667	1	0.303875
25.883333	1	0.304375
25.900000	1	0.305500
25.916667	1	0.306625
25.933333	1	0.308375
25.950000	1	0.309875
25.966667	1	0.312375
25.983333	1	0.315625
26.000000	1	0.319125
26.016667	1	0.322875
26.033333	1	0.327375
26.050000	1	0.332625
26.066667	1	0.338000
26.083333	1	0.343625
26.100000	1	0.349625
26.116667	1	0.355500
26.133333	1	0.362000
26.150000	1	0.368125
26.166667	1	0.375125
26.183333	1	0.382125
26.200000	1	0.387625
26.216667	1	0.393750
26.233333	1	0.399000
26.250000	1	0.403875
26.266667	1	0.408625
26.283333	1	0.412250
26.300000	1	0.415125
26.316667	1	0.417750
26.333333	1	0.419250
26.350000	1	0.420375
26.366667	1	0.420500
26.383333	1	0.419750
26.400000	1	0.418375
26.416667	1	0.415750
26.433333	1	0.412250
26.450000	1	0.408625
26.466667	1	0.403000
26.483333	1	0.397875
26.500000	1	0.391375
26.516667	1	0.384625
26.533333	1	0.377375
26.550000	1	0.369375
26.566667	1	0.360750
26.583333	1	0.351625
26.600000	1	0.343250
26.616667	1	0.335250
26.633333	1	0.327000
26.650000	1	0.318625
26.666667	1	0.310125
26.683333	1	0.302125
26.700000	1	0.294500
26.716667	1	0.286750
26.733333	1	0.279625
26.750000	1	0.273000
26.766667	1	0.268000
26.783333	1	0.262625
26.800000	1	0.257625
26.816667	1	0.252500
26.833333	1	0.248375
26.850000	1	0.245375
26.866667	1	0.242375
26.883333	1	0.240375
26.900000	1	0.239500
26.916667	1	0.238875
26.933333	1	0.238000
26.950000	1	0.237875
26.966667	1	0.238625
26.983333	1	0.239625
27.000000	1	0.241000
27.016667	1	0.243375
27.033333	1	0.246250
27.050000	1	0.250250
27.066667	1	0.254750
27.083333	1	0.259500
27.100000	1	0.265250
27.116667	1	0.271875
27.133333	1	0.279375
27.150000	1	0.288500
27.166667	1	0.298750
27.183333	1	0.310625
27.200000	1	0.323500
27.216667	1	0.337875
27.233333	1	0.355250
27.250000	1	0.374750
27.266667	1	0.397000
27.283333	1	0.422250
27.300000	1	0.451125
27.316667	1	0.483375
27.333333	1	0.520875
27.350000	1	0.562250
27.366667	1	0.609500
27.383333	1	0.662625
27.400000	1	0.722625
27.416667	1	0.789250
27.433333	1	0.864375
27.450000	1	0.947125
27.466667	1	1.039125
27.483333	1	1.140375
27.500000	1	1.250875
27.516667	1	1.369500
27.533333	1	1.498125
27.550000	1	1.635875
27.566667	1	1.782625
27.583333	1	1.937375
27.600000	1	2.099000
27.616667	1	2.267625
27.633333	1	2.440750
27.650000	1	2.617250
27.666667	1	2.795375
27.683333	1	2.973000
27.700000	1	3.148375
27.716667	1	3.318500
27.733333	1	3.481875
27.750000	1	3.633875
27.766667	1	3.774625
27.783333	1	3.899875
27.800000	1	4.009000
27.816667	1	4.099500
27.833333	1	4.170500
27.850000	1	4.219750
27.866667	1	4.246125
27.883333	1	4.249250
27.900000	1	4.229500
27.916667	1	4.187125
27.933333	1	4.122750
27.950000	1	4.037125
27.966667	1	3.931875
27.983333	1	3.809375
28.000000	1	3.672375
28.016667	1	3.522750
28.033333	1	3.361750
28.050000	1	3.192250
28.066667	1	3.017625
28.083333	1	2.839000
28.100000	1	2.660375
28.116667	1	2.482750
28.133333	1	2.308875
28.150000	1	2.140375
28.166667	1	1.977750
28.183333	1	1.823000
28.200000	1	1.677375
28.216667	1	1.540250
28.233333	1	1.412625
28.250000	1	1.294125
28.266667	1	1.185250
28.283333	1	1.085750
28.300000	1	0.996125
28.316667	1	0.915500
28.333333	1	0.843875
28.350000	1	0.779625
28.366667	1	0.722250
28.383333	1	0.672125
28.400000	1	0.629250
28.416667	1	0.592125
28.433333	1	0.559875
28.450000	1	0.533375
28.466667	1	0.511500
28.483333	1	0.492625
28.500000	1	0.478250
28.516667	1	0.467000
28.533333	1	0.458875
28.550000	1	0.453625
28.566667	1	0.451000
28.583333	1	0.450500
28.600000	1	0.451625
28.616667	1	0.454625
28.633333	1	0.460000
28.650000	1	0.466000
28.666667	1	0.472875
28.683333	1	0.480000
28.700000	1	0.488250
28.716667	1	0.496250
28.733333	1	0.504625
28.750000	1	0.513125
28.766667	1	0.521375
28.783333	1	0.529750
28.800000	1	0.538125
28.816667	1	0.546000
28.833333	1	0.553375
28.850000	1	0.560250
28.866667	1	0.565250
28.883333	1	0.569625
28.900000	1	0.573000
28.916667	1	0.575250
28.933333	1	0.576875
28.950000	1	0.576500
28.966667	1	0.574500
28.983333	1	0.570625
29.000000	1	0.565750
29.016667	1	0.559250
29.033333	1	0.551375
29.050000	1	0.541625
29.066667	1	0.529750
29.083333	1	0.516375
29.100000	1	0.500875
29.116667	1	0.483500
29.133333	1	0.464500
29.150000	1	0.443250
29.166667	1	0.419750
29.183333	1	0.394875
29.200000	1	0.367625
29.216667	1	0.338500
29.233333	1	0.306875
29.250000	1	0.273500
29.266667	1	0.237875
29.283333	1	0.200375
29.300000	1	0.161000
29.316667	1	0.118500
29.333333	1	0.075875
29.350000	1	0.030500
29.366667	1	-0.016000
29.383333	1	-0.063875
29.400000	1	-0.113250
29.416667	1	-0.164250
29.433333	1	-0.214625
29.450000	1	-0.266750
29.466667	1	-0.318125
29.483333	1	-0.369875
29.500000	1	-0.422250
29.516667	1	-0.473375
29.533333	1	-0.523500
29.550000	1	-0.571875
29.566667	1	-0.618500
29.583333	1	-0.663125
29.600000	1	-0.704125
29.616667	1	-0.743125
29.633333	1	-0.779250
29.650000	1	-0.811375
29.666667	1	-0.840500
29.683333	1	-0.865125
29.700000	1	-0.885625
29.716667	1	-0.901750
29.733333	1	-0.914000
29.750000	1	-0.921125
29.766667	1	-0.923625
29.783333	1	-0.921875
29.800000	1	-0.916250
29.816667	1	-0.906375
29.833333	1	-0.892625
29.850000	1	-0.874625
29.866667	1	-0.852875
29.883333	1	-0.828500
29.900000	1	-0.800750
29.916667	1	-0.771125
29.933333	1	-0.739750
29.950000	1	-0.706375
29.966667	1	-0.670750
29.983333	1	-0.634875
30.000000	1	-0.597250
30.016667	1	-0.559125
30.033333	1	-0.520875
30.050000	1	-0.483625
30.066667	1	-0.446125
30.083333	1	-0.410000
30.100000	1	-0.374125
30.116667	1	-0.339375
30.133333	1	-0.305875
30.150000	1	-0.273250
30.166667	1	-0.242750
30.183333	1	-0.213500
30.200000	1	-0.185625
30.216667	1	-0.158500
30.233333	1	-0.133500
30.250000	1	-0.110625
30.266667	1	-0.088375
30.283333	1	-0.068250
30.300000	1	-0.048875
30.316667	1	-0.031125
30.333333	1	-0.015375
30.350000	1	-0.001125
30.366667	1	0.013000
30.383333	1	0.026250
30.400000	1	0.038750
30.416667	1	0.050250
30.433333	1	0.060625
30.450000	1	0.070375
30.466667	1	0.080000
30.483333	1	0.088875
30.500000	1	0.097000
30.516667	1	0.105250
30.533333	1	0.113625
30.550000	1	0.121625
30.566667	1	0.129250
30.583333	1	0.136750
30.600000	1	0.145000
30.616667	1	0.153375
30.633333	1	0.161500
30.650000	1	0.169750
30.666667	1	0.178250
30.683333	1	0.186375
30.700000	1	0.195000
30.716667	1	0.204750
30.733333	1	0.214500
30.750000	1	0.224750
30.766667	1	0.235500
30.783333	1	0.246375
30.800000	1	0.258250
30.816667	1	0.270500
30.833333	1	0.283125
30.850000	1	0.296750
30.866667	1	0.311250
30.883333	1	0.326375
30.900000	1	0.343000
30.916667	1	0.361250
30.933333	1	0.380875
30.950000	1	0.402500
30.966667	1	0.426500
30.983333	1	0.452500
31.000000	1	0.481625
31.016667	1	0.513625
31.033333	1	0.549000
31.050000	1	0.587875
31.066667	1	0.630500
31.083333	1	0.677875
31.100000	1	0.729875
31.116667	1	0.789250
31.133333	1	0.852750
31.150000	1	0.922750
31.166667	1	0.999125
31.183333	1	1.082500
31.200000	1	1.173875
31.216667	1	1.272375
31.233333	1	1.377250
31.250000	1	1.489250
31.266667	1	1.608000
31.283333	1	1.733375
31.300000	1	1.864875
31.316667	1	2.000750
31.333333	1	2.141125
31.350000	1	2.285375
31.366667	1	2.430875
31.383333	1	2.577750
31.400000	1	2.724625
31.416667	1	2.869625
31.433333	1	3.010875
31.450000	1	3.146375
31.466667	1	3.275500
31.483333	1	3.395625
31.500000	1	3.506125
31.516667	1	3.605375
31.533333	1	3.691625
31.550000	1	3.764875
31.566667	1	3.823500
31.583333	1	3.866250
31.600000	1	3.893250
31.616667	1	3.904500
31.633333	1	3.898125
31.650000	1	3.876000
31.666667	1	3.838625
31.683333	1	3.786000
31.700000	1	3.719500
31.716667	1	3.639750
31.733333	1	3.548250
31.750000	1	3.445750
31.766667	1	3.333875
31.783333	1	3.214250
31.800000	1	3.087750
31.816667	1	2.955875
31.833333	1	2.820375
31.850000	1	2.682875
31.866667	1	2.544000
31.883333	1	2.405750
31.900000	1	2.267875
31.916667	1	2.132875
31.933333	1	2.000500
31.950000	1	1.872500
31.966667	1	1.747625
31.983333	1	1.627750
32.000000	1	1.512875
32.016667	1	1.403500
32.033333	1	1.299625
32.050000	1	1.200875
32.066667	1	1.108750
32.083333	1	1.021625
32.100000	1	0.940250
32.116667	1	0.864250
32.133333	1	0.793750
32.150000	1	0.727000
32.166667	1	0.666000
32.183333	1	0.608875
32.200000	1	0.556625
32.216667	1	0.508125
32.233333	1	0.463250
32.250000	1	0.421750
32.266667	1	0.384000
32.283333	1	0.349500
32.300000	1	0.318000
32.316667	1	0.288875
32.333333	1	0.262875
32.350000	1	0.239250
32.366667	1	0.217875
32.383333	1	0.199000
32.400000	1	0.181625
32.416667	1	0.165625
32.433333	1	0.151500
32.450000	1	0.139125
32.466667	1	0.127750
32.483333	1	0.118375
32.500000	1	0.109875
32.516667	1	0.102125
32.533333	1	0.095750
32.550000	1	0.089750
32.566667	1	0.084375
32.583333	1	0.080250
32.600000	1	0.077250
32.616667	1	0.074125
32.633333	1	0.071000
32.650000	1	0.069000
32.666667	1	0.066625
32.683333	1	0.065125
32.700000	1	0.063875
32.716667	1	0.062125
32.733333	1	0.061250
32.750000	1	0.060125
32.766667	1	0.059125
32.783333	1	0.058125
32.800000	1	0.056625
32.816667	1	0.056000
32.833333	1	0.055250
32.850000	1	0.053625
32.866667	1	0.052000
32.883333	1	0.050375
32.900000	1	0.049250
32.916667	1	0.047625
32.933333	1	0.045625
32.950000	1	0.044250
32.966667	1	0.042500
32.983333	1	0.041250
33.000000	1	0.039750
33.016667	1	0.037875
33.033333	1	0.036125
33.050000	1	0.035375
33.066667	1	0.034125
33.083333	1	0.033000
33.100000	1	0.032250
33.116667	1	0.032125
33.133333	1	0.031500
33.150000	1	0.031375
33.166667	1	0.031750
33.183333	1	0.032250
33.200000	1	0.032250
33.216667	1	0.033000
33.233333	1	0.034250
33.250000	1	0.035500
33.266667	1	0.035875
33.283333	1	0.037000
33.300000	1	0.038375
33.316667	1	0.040375
33.333333	1	0.042750
33.350000	1	0.044125
33.366667	1	0.046125
33.383333	1	0.047875
33.400000	1	0.050625
33.416667	1	0.052375
33.433333	1	0.053875
33.450000	1	0.055125
33.466667	1	0.057500
33.483333	1	0.059625
33.500000	1	0.061500
33.516667	1	0.063500
33.533333	1	0.065750
33.550000	1	0.066875
33.566667	1	0.068250
33.583333	1	0.070625
33.600000	1	0.072000
33.616667	1	0.074000
33.633333	1	0.075000
33.650000	1	0.076500
33.666667	1	0.078250
33.683333	1	0.079625
33.700000	1	0.081250
33.716667	1	0.083250
33.733333	1	0.084875
33.750000	1	0.086375
33.766667	1	0.087750
33.783333	1	0.089375
33.800000	1	0.091250
33.816667	1	0.093000
33.833333	1	0.094625
33.850000	1	0.095875
33.866667	1	0.097250
33.883333	1	0.098375
33.900000	1	0.099875
33.916667	1	0.101750
33.933333	1	0.102750
33.950000	1	0.104000
33.966667	1	0.105250
33.983333	1	0.105875
34.000000	1	0.106750
34.016667	1	0.107250
34.033333	1	0.107750
34.050000	1	0.107875
34.066667	1	0.108125
34.083333	1	0.108750
34.100000	1	0.109250
34.116667	1	0.109125
34.133333	1	0.109125
34.150000	1	0.108625
34.166667	1	0.108875
34.183333	1	0.108625
34.200000	1	0.108750
34.216667	1	0.108125
34.233333	1	0.107500
34.250000	1	0.107625
34.266667	1	0.107125
34.283333	1	0.107375
34.300000	1	0.107250
34.316667	1	0.107250
34.333333	1	0.107250
34.350000	1	0.107000
34.366667	1	0.107625
34.383333	1	0.107500
34.400000	1	0.107875
34.416667	1	0.107875
34.433333	1	0.108875
34.450000	1	0.109250
34.466667	1	0.110250
34.483333	1	0.111750
34.500000	1	0.113500
34.516667	1	0.115625
34.533333	1	0.117500
34.550000	1	0.118875
34.566667	1	0.120375
34.583333	1	0.121625
34.600000	1	0.123500
34.616667	1	0.125500
34.633333	1	0.127875
34.650000	1	0.130250
34.666667	1	0.131625
34.683333	1	0.133000
34.700000	1	0.134500
34.716667	1	0.136625
34.733333	1	0.138500
34.750000	1	0.139750
34.766667	1	0.140750
34.783333	1	0.142000
34.800000	1	0.142625
34.816667	1	0.143375
34.833333	1	0.143250
34.850000	1	0.143125
34.866667	1	0.142625
34.883333	1	0.141375
34.900000	1	0.141125
34.916667	1	0.139500
34.933333	1	0.137500
34.950000	1	0.134875
34.966667	1	0.133000
34.983333	1	0.130000
35.000000	1	0.127500
35.016667	1	0.123500
35.033333	1	0.120250
35.050000	1	0.116875
35.066667	1	0.114000
35.083333	1	0.110250
35.100000	1	0.107250
35.116667	1	0.103625
35.133333	1	0.100250
35.150000	1	0.096250
35.166667	1	0.092375
35.183333	1	0.089500
35.200000	1	0.086625
35.216667	1	0.083875
35.233333	1	0.081250
35.250000	1	0.078875
35.266667	1	0.076750
35.283333	1	0.075250
35.300000	1	0.074000
35.316667	1	0.072625
35.333333	1	0.071125
35.350000	1	0.070375
35.366667	1	0.070500
35.383333	1	0.070750
35.400000	1	0.071000
35.416667	1	0.071875
35.433333	1	0.072250
35.450000	1	0.073125
35.466667	1	0.074125
35.483333	1	0.075625
35.500000	1	0.077625
35.516667	1	0.079375
35.533333	1	0.081125
35.550000	1	0.082875
35.566667	1	0.085125
35.583333	1	0.087125
35.600000	1	0.089250
35.616667	1	0.091625
35.633333	1	0.094125
35.650000	1	0.096375
35.666667	1	0.099375
35.683333	1	0.102000
35.700000	1	0.105500
35.716667	1	0.107625
35.733333	1	0.110375
35.750000	1	0.112625
35.766667	1	0.115875
35.783333	1	0.118750
35.800000	1	0.121125
35.816667	1	0.123750
35.833333	1	0.127000
35.850000	1	0.129500
35.866667	1	0.132500
35.883333	1	0.135625
35.900000	1	0.138250
35.916667	1	0.140625
35.933333	1	0.143750
35.950000	1	0.146500
35.966667	1	0.149250
35.983333	1	0.151125
36.000000	1	0.152625
36.016667	1	0.155000
36.033333	1	0.157125
36.050000	1	0.158750
36.066667	1	0.159500
36.083333	1	0.161000
36.100000	1	0.162125
36.116667	1	0.162875
36.133333	1	0.163750
36.150000	1	0.164375
36.166667	1	0.164000
36.183333	1	0.163875
36.200000	1	0.163500
36.216667	1	0.163000
36.233333	1	0.162375
36.250000	1	0.161125
36.266667	1	0.159750
36.283333	1	0.158625
36.300000	1	0.157000
36.316667	1	0.155375
36.333333	1	0.153625
36.350000	1	0.151125
36.366667	1	0.149125
36.383333	1	0.146250
36.400000	1	0.143500
36.416667	1	0.140875
36.433333	1	0.137500
36.450000	1	0.135000
36.466667	1	0.132250
36.483333	1	0.129375
36.500000	1	0.126125
36.516667	1	0.123000
36.533333	1	0.120125
36.550000	1	0.117375
36.566667	1	0.115000
36.583333	1	0.112625
36.600000	1	0.110500
36.616667	1	0.108125
36.633333	1	0.105500
36.650000	1	0.103125
36.666667	1	0.100875
36.683333	1	0.098875
36.700000	1	0.097500
36.716667	1	0.095750
36.733333	1	0.093625
36.750000	1	0.092750
36.766667	1	0.091125
36.783333	1	0.089875
36.800000	1	0.089125
36.816667	1	0.088500
36.833333	1	0.087500
36.850000	1	0.086750
36.866667	1	0.086250
36.883333	1	0.085500
36.900000	1	0.084750
36.916667	1	0.083750
36.933333	1	0.083000
36.950000	1	0.082625
36.966667	1	0.082125
36.983333	1	0.081750
37.000000	1	0.081375
37.016667	1	0.080000
37.033333	1	0.079875
37.050000	1	0.078875
37.066667	1	0.078250
37.083333	1	0.077875
37.100000	1	0.077625
37.116667	1	0.076625
37.133333	1	0.076750
37.150000	1	0.076250
37.166667	1	0.075875
37.183333	1	0.076125
37.200000	1	0.075750
37.216667	1	0.076000
37.233333	1	0.076625
37.250000	1	0.077000
37.266667	1	0.077000
37.283333	1	0.076625
37.300000	1	0.077375
37.316667	1	0.078375
37.333333	1	0.078625
37.350000	1	0.079250
37.366667	1	0.079375
37.383333	1	0.079500
37.400000	1	0.079875
37.416667	1	0.080250
37.433333	1	0.080250
37.450000	1	0.080500
37.466667	1	0.081250
37.483333	1	0.081750
37.500000	1	0.082250
37.516667	1	0.082375
37.533333	1	0.081875
37.550000	1	0.082000
37.566667	1	0.081500
37.583333	1	0.080625
37.600000	1	0.079875
37.616667	1	0.078500
37.633333	1	0.077500
37.650000	1	0.076250
37.666667	1	0.075375
37.683333	1	0.074250
37.700000	1	0.073000
37.716667	1	0.071750
37.733333	1	0.071250
37.750000	1	0.069125
37.766667	1	0.068125
37.783333	1	0.065875
37.800000	1	0.064000
37.816667	1	0.062625
37.833333	1	0.061000
37.850000	1	0.059125
37.866667	1	0.058125
37.883333	1	0.056750
37.900000	1	0.055000
37.916667	1	0.053250
37.933333	1	0.051500
37.950000	1	0.050125
37.966667	1	0.048250
37.983333	1	0.046125
38.000000	1	0.044625
38.016667	1	0.042750
38.033333	1	0.041125
38.050000	1	0.039625
38.066667	1	0.038250
38.083333	1	0.037125
38.100000	1	0.035625
38.116667	1	0.034125
38.133333	1	0.032750
38.150000	1	0.030875
38.166667	1	0.029750
38.183333	1	0.028250
38.200000	1	0.027375
38.216667	1	0.026750
38.233333	1	0.025250
38.250000	1	0.024375
38.266667	1	0.024250
38.283333	1	0.023750
38.300000	1	0.023250
38.316667	1	0.022500
38.333333	1	0.022125
38.350000	1	0.022250
38.366667	1	0.022250
38.383333	1	0.022000
38.400000	1	0.022250
38.416667	1	0.022375
38.433333	1	0.023375
38.450000	1	0.023625
38.466667	1	0.024250
38.483333	1	0.024500
38.500000	1	0.025250
38.516667	1	0.025750
38.533333	1	0.025875
38.550000	1	0.025625
38.566667	1	0.026125
38.583333	1	0.026875
38.600000	1	0.026750
38.616667	1	0.026625
38.633333	1	0.026875
38.650000	1	0.026750
38.666667	1	0.026875
38.683333	1	0.026875
38.700000	1	0.026500
38.716667	1	0.027125
38.733333	1	0.026750
38.750000	1	0.026000
38.766667	1	0.026375
38.783333	1	0.026375
38.800000	1	0.026375
38.816667	1	0.027375
38.833333	1	0.027500
38.850000	1	0.028250
38.866667	1	0.028125
38.883333	1	0.028375
38.900000	1	0.029000
38.916667	1	0.030000
38.933333	1	0.031250
38.950000	1	0.032125
38.966667	1	0.033000
38.983333	1	0.034500
39.000000	1	0.035625
39.016667	1	0.036250
39.033333	1	0.037625
39.050000	1	0.038625
39.066667	1	0.040625
39.083333	1	0.041375
39.100000	1	0.043250
39.116667	1	0.044250
39.133333	1	0.045000
39.150000	1	0.046000
39.166667	1	0.046875
39.183333	1	0.048000
39.200000	1	0.049125
39.216667	1	0.049750
39.233333	1	0.050125
39.250000	1	0.050750
39.266667	1	0.051125
39.283333	1	0.051500
39.300000	1	0.051750
39.316667	1	0.051750
39.333333	1	0.052125
39.350000	1	0.052375
39.366667	1	0.052750
39.383333	1	0.052875
39.400000	1	0.053125
39.416667	1	0.053375
39.433333	1	0.053000
39.450000	1	0.053125
39.466667	1	0.053125
39.483333	1	0.053375
39.500000	1	0.052625
39.516667	1	0.053125
39.533333	1	0.053375
39.550000	1	0.053750
39.566667	1	0.053375
39.583333	1	0.053875
39.600000	1	0.053875
39.616667	1	0.053875
39.633333	1	0.054250
39.650000	1	0.054500
39.666667	1	0.054625
39.683333	1	0.055625
39.700000	1	0.055500
39.716667	1	0.055750
39.733333	1	0.056000
39.750000	1	0.055500
39.766667	1	0.054875
39.783333	1	0.054250
39.800000	1	0.053500
39.816667	1	0.053375
39.833333	1	0.052375
39.850000	1	0.051625
39.866667	1	0.050250
39.883333	1	0.049000
39.900000	1	0.048250
39.916667	1	0.046625
39.933333	1	0.045625
39.950000	1	0.043875
39.966667	1	0.042375
39.983333	1	0.040750
40.000000	1	0.039000
