URL	chrom://bioreactor/micro_cm7/HPLC_Ultimate_3000/Users/markusar/20240517_CMO_FP23_FP25_MarkusDeplate.seq/232.smp/RI_1.channel/RI_1.chm
Channel	RI_1

Injection Information:
Data Vault	micro_cm7
Sequence	20240517_CMO_FP23_FP25_MarkusDeplate
Name	FP28_22.4_s3
Number	158
Position	BB12
Comment	
Processing Method	
Instrument Method	run_25B_method
Type	Unknown
Status	Finished
Inject Time	01.06.2024 07:01:06 +02:00
Volume (µl)	20.0000
Dilution Factor	1.0000
Weight	1.0000

Chromatogram Data Information:
Time Min. (min)	0.000000
Time Max. (min)	40.000000
Data Points	2401
Detector	RI
Generating Data System	Chromeleon 7.3.2.11814
Exporting Data System	Chromeleon 7.3.2.0
Operator	Instrument Controller
Signal Quantity	Refractive 
Signal Unit	µRIU
Signal Min.	-0.888500
Signal Max.	54.585625
Channel	RI_1
Driver Name	RID520Driver.dll
Channel Type	Evaluation
Min. Step (s)	1
Max. Step (s)	1
Average Step (s)	1

Signal Parameter Information:
Signal Info	

Chromatogram Data:
Time (min)	Step (s)	Value (µRIU)
0.000000	n.a.	0.007625
0.016667	1	0.010125
0.033333	1	0.012125
0.050000	1	0.014000
0.066667	1	0.016125
0.083333	1	0.018500
0.100000	1	0.020000
0.116667	1	0.022250
0.133333	1	0.023875
0.150000	1	0.026250
0.166667	1	0.027125
0.183333	1	0.028625
0.200000	1	0.029250
0.216667	1	0.031000
0.233333	1	0.032250
0.250000	1	0.033250
0.266667	1	0.034500
0.283333	1	0.034875
0.300000	1	0.035250
0.316667	1	0.035750
0.333333	1	0.035500
0.350000	1	0.034750
0.366667	1	0.034250
0.383333	1	0.032375
0.400000	1	0.031000
0.416667	1	0.029750
0.433333	1	0.028625
0.450000	1	0.027750
0.466667	1	0.026625
0.483333	1	0.024750
0.500000	1	0.022500
0.516667	1	0.021125
0.533333	1	0.019125
0.550000	1	0.017125
0.566667	1	0.015125
0.583333	1	0.013375
0.600000	1	0.011625
0.616667	1	0.010375
0.633333	1	0.008875
0.650000	1	0.007500
0.666667	1	0.006250
0.683333	1	0.005875
0.700000	1	0.004750
0.716667	1	0.004125
0.733333	1	0.004000
0.750000	1	0.003750
0.766667	1	0.003000
0.783333	1	0.002625
0.800000	1	0.002500
0.816667	1	0.002375
0.833333	1	0.001750
0.850000	1	0.002000
0.866667	1	0.002125
0.883333	1	0.002250
0.900000	1	0.003000
0.916667	1	0.002875
0.933333	1	0.002375
0.950000	1	0.002125
0.966667	1	0.001125
0.983333	1	0.000500
1.000000	1	0.000125
1.016667	1	-0.000250
1.033333	1	-0.001500
1.050000	1	-0.002000
1.066667	1	-0.002500
1.083333	1	-0.002625
1.100000	1	-0.003625
1.116667	1	-0.004625
1.133333	1	-0.005375
1.150000	1	-0.006000
1.166667	1	-0.006375
1.183333	1	-0.006750
1.200000	1	-0.007625
1.216667	1	-0.007375
1.233333	1	-0.007375
1.250000	1	-0.007500
1.266667	1	-0.006625
1.283333	1	-0.006000
1.300000	1	-0.005500
1.316667	1	-0.004500
1.333333	1	-0.003625
1.350000	1	-0.002125
1.366667	1	-0.001375
1.383333	1	-0.000375
1.400000	1	0.000750
1.416667	1	0.001875
1.433333	1	0.003125
1.450000	1	0.004375
1.466667	1	0.005250
1.483333	1	0.006375
1.500000	1	0.006375
1.516667	1	0.006375
1.533333	1	0.007500
1.550000	1	0.008125
1.566667	1	0.008500
1.583333	1	0.009125
1.600000	1	0.009125
1.616667	1	0.009375
1.633333	1	0.009875
1.650000	1	0.010125
1.666667	1	0.009750
1.683333	1	0.009625
1.700000	1	0.008625
1.716667	1	0.007875
1.733333	1	0.007750
1.750000	1	0.007000
1.766667	1	0.006750
1.783333	1	0.005375
1.800000	1	0.003875
1.816667	1	0.003250
1.833333	1	0.002375
1.850000	1	0.001125
1.866667	1	0.000625
1.883333	1	0.000250
1.900000	1	-0.000625
1.916667	1	-0.000750
1.933333	1	-0.001500
1.950000	1	-0.002000
1.966667	1	-0.002750
1.983333	1	-0.003250
2.000000	1	-0.003375
2.016667	1	-0.003125
2.033333	1	-0.003125
2.050000	1	-0.002500
2.066667	1	-0.002000
2.083333	1	-0.001250
2.100000	1	-0.000750
2.116667	1	-0.000500
2.133333	1	0.000000
2.150000	1	0.001625
2.166667	1	0.003250
2.183333	1	0.003750
2.200000	1	0.004500
2.216667	1	0.006250
2.233333	1	0.007500
2.250000	1	0.008875
2.266667	1	0.011250
2.283333	1	0.013375
2.300000	1	0.015000
2.316667	1	0.017250
2.333333	1	0.018875
2.350000	1	0.020625
2.366667	1	0.022500
2.383333	1	0.024000
2.400000	1	0.026125
2.416667	1	0.028875
2.433333	1	0.031375
2.450000	1	0.033375
2.466667	1	0.035000
2.483333	1	0.036750
2.500000	1	0.038750
2.516667	1	0.039750
2.533333	1	0.041500
2.550000	1	0.042875
2.566667	1	0.044375
2.583333	1	0.045625
2.600000	1	0.046250
2.616667	1	0.047625
2.633333	1	0.048750
2.650000	1	0.049125
2.666667	1	0.049250
2.683333	1	0.049125
2.700000	1	0.048875
2.716667	1	0.047875
2.733333	1	0.047875
2.750000	1	0.046500
2.766667	1	0.046500
2.783333	1	0.046000
2.800000	1	0.045375
2.816667	1	0.044750
2.833333	1	0.043500
2.850000	1	0.043125
2.866667	1	0.042000
2.883333	1	0.041250
2.900000	1	0.041000
2.916667	1	0.040125
2.933333	1	0.039750
2.950000	1	0.039750
2.966667	1	0.039375
2.983333	1	0.039375
3.000000	1	0.039125
3.016667	1	0.039500
3.033333	1	0.039625
3.050000	1	0.041250
3.066667	1	0.041625
3.083333	1	0.043000
3.100000	1	0.043750
3.116667	1	0.045125
3.133333	1	0.046500
3.150000	1	0.047750
3.166667	1	0.049750
3.183333	1	0.051875
3.200000	1	0.053500
3.216667	1	0.055875
3.233333	1	0.057875
3.250000	1	0.059875
3.266667	1	0.061750
3.283333	1	0.063625
3.300000	1	0.065375
3.316667	1	0.067375
3.333333	1	0.069375
3.350000	1	0.071250
3.366667	1	0.073250
3.383333	1	0.074125
3.400000	1	0.075750
3.416667	1	0.076750
3.433333	1	0.077000
3.450000	1	0.078125
3.466667	1	0.078250
3.483333	1	0.079375
3.500000	1	0.078875
3.516667	1	0.078375
3.533333	1	0.078000
3.550000	1	0.077375
3.566667	1	0.076375
3.583333	1	0.075500
3.600000	1	0.073750
3.616667	1	0.072875
3.633333	1	0.071500
3.650000	1	0.070125
3.666667	1	0.068625
3.683333	1	0.067750
3.700000	1	0.066250
3.716667	1	0.064375
3.733333	1	0.062250
3.750000	1	0.060625
3.766667	1	0.059250
3.783333	1	0.057500
3.800000	1	0.055250
3.816667	1	0.052750
3.833333	1	0.051375
3.850000	1	0.050250
3.866667	1	0.049250
3.883333	1	0.047875
3.900000	1	0.047125
3.916667	1	0.046250
3.933333	1	0.045375
3.950000	1	0.044250
3.966667	1	0.043875
3.983333	1	0.043750
4.000000	1	0.043375
4.016667	1	0.042875
4.033333	1	0.043000
4.050000	1	0.043125
4.066667	1	0.044125
4.083333	1	0.044000
4.100000	1	0.044625
4.116667	1	0.045250
4.133333	1	0.046250
4.150000	1	0.047125
4.166667	1	0.047750
4.183333	1	0.048625
4.200000	1	0.049750
4.216667	1	0.050750
4.233333	1	0.052375
4.250000	1	0.053250
4.266667	1	0.054875
4.283333	1	0.056625
4.300000	1	0.059375
4.316667	1	0.061750
4.333333	1	0.064125
4.350000	1	0.065625
4.366667	1	0.068375
4.383333	1	0.070375
4.400000	1	0.072375
4.416667	1	0.075875
4.433333	1	0.078375
4.450000	1	0.081500
4.466667	1	0.083500
4.483333	1	0.085500
4.500000	1	0.088250
4.516667	1	0.090875
4.533333	1	0.093125
4.550000	1	0.095625
4.566667	1	0.098500
4.583333	1	0.101875
4.600000	1	0.104250
4.616667	1	0.106375
4.633333	1	0.108875
4.650000	1	0.110500
4.666667	1	0.113125
4.683333	1	0.115500
4.700000	1	0.117375
4.716667	1	0.118625
4.733333	1	0.120500
4.750000	1	0.122500
4.766667	1	0.124125
4.783333	1	0.125750
4.800000	1	0.127750
4.816667	1	0.129500
4.833333	1	0.130500
4.850000	1	0.132000
4.866667	1	0.133875
4.883333	1	0.135875
4.900000	1	0.136875
4.916667	1	0.138000
4.933333	1	0.139125
4.950000	1	0.140500
4.966667	1	0.142000
4.983333	1	0.143750
5.000000	1	0.145875
5.016667	1	0.147500
5.033333	1	0.148125
5.050000	1	0.149000
5.066667	1	0.150250
5.083333	1	0.151750
5.100000	1	0.152500
5.116667	1	0.154125
5.133333	1	0.155125
5.150000	1	0.156000
5.166667	1	0.157125
5.183333	1	0.159125
5.200000	1	0.160875
5.216667	1	0.162500
5.233333	1	0.164250
5.250000	1	0.166375
5.266667	1	0.167750
5.283333	1	0.169000
5.300000	1	0.170750
5.316667	1	0.173375
5.333333	1	0.175625
5.350000	1	0.178375
5.366667	1	0.181500
5.383333	1	0.184750
5.400000	1	0.188125
5.416667	1	0.191750
5.433333	1	0.195750
5.450000	1	0.199000
5.466667	1	0.203375
5.483333	1	0.206875
5.500000	1	0.211125
5.516667	1	0.215125
5.533333	1	0.219250
5.550000	1	0.223125
5.566667	1	0.227500
5.583333	1	0.232125
5.600000	1	0.236375
5.616667	1	0.239875
5.633333	1	0.243625
5.650000	1	0.247000
5.666667	1	0.249875
5.683333	1	0.253125
5.700000	1	0.256125
5.716667	1	0.258875
5.733333	1	0.260625
5.750000	1	0.262500
5.766667	1	0.264250
5.783333	1	0.265125
5.800000	1	0.265000
5.816667	1	0.265625
5.833333	1	0.265125
5.850000	1	0.264250
5.866667	1	0.262625
5.883333	1	0.261750
5.900000	1	0.259750
5.916667	1	0.257750
5.933333	1	0.254875
5.950000	1	0.251750
5.966667	1	0.248000
5.983333	1	0.245375
6.000000	1	0.242250
6.016667	1	0.239250
6.033333	1	0.234750
6.050000	1	0.231125
6.066667	1	0.226875
6.083333	1	0.222875
6.100000	1	0.218625
6.116667	1	0.214125
6.133333	1	0.210875
6.150000	1	0.206375
6.166667	1	0.202125
6.183333	1	0.197750
6.200000	1	0.194000
6.216667	1	0.189750
6.233333	1	0.186625
6.250000	1	0.182750
6.266667	1	0.179250
6.283333	1	0.175875
6.300000	1	0.172000
6.316667	1	0.169375
6.333333	1	0.166500
6.350000	1	0.163250
6.366667	1	0.159625
6.383333	1	0.157000
6.400000	1	0.154875
6.416667	1	0.152375
6.433333	1	0.149875
6.450000	1	0.146875
6.466667	1	0.144625
6.483333	1	0.142500
6.500000	1	0.139875
6.516667	1	0.137000
6.533333	1	0.134625
6.550000	1	0.132500
6.566667	1	0.129750
6.583333	1	0.127125
6.600000	1	0.125125
6.616667	1	0.123250
6.633333	1	0.120750
6.650000	1	0.118250
6.666667	1	0.115125
6.683333	1	0.112750
6.700000	1	0.110000
6.716667	1	0.107500
6.733333	1	0.105875
6.750000	1	0.103875
6.766667	1	0.101500
6.783333	1	0.099000
6.800000	1	0.097000
6.816667	1	0.095500
6.833333	1	0.094000
6.850000	1	0.092625
6.866667	1	0.091375
6.883333	1	0.090000
6.900000	1	0.089125
6.916667	1	0.089375
6.933333	1	0.089750
6.950000	1	0.090375
6.966667	1	0.091000
6.983333	1	0.091375
7.000000	1	0.092375
7.016667	1	0.093625
7.033333	1	0.094250
7.050000	1	0.095375
7.066667	1	0.097500
7.083333	1	0.099250
7.100000	1	0.101875
7.116667	1	0.104375
7.133333	1	0.107000
7.150000	1	0.110125
7.166667	1	0.112875
7.183333	1	0.115500
7.200000	1	0.118500
7.216667	1	0.122250
7.233333	1	0.125750
7.250000	1	0.128625
7.266667	1	0.131500
7.283333	1	0.135250
7.300000	1	0.138625
7.316667	1	0.142125
7.333333	1	0.145250
7.350000	1	0.149000
7.366667	1	0.152250
7.383333	1	0.155125
7.400000	1	0.158000
7.416667	1	0.160625
7.433333	1	0.163375
7.450000	1	0.165375
7.466667	1	0.167500
7.483333	1	0.169625
7.500000	1	0.171500
7.516667	1	0.173250
7.533333	1	0.174250
7.550000	1	0.175250
7.566667	1	0.176250
7.583333	1	0.176500
7.600000	1	0.177000
7.616667	1	0.177125
7.633333	1	0.176750
7.650000	1	0.175500
7.666667	1	0.174625
7.683333	1	0.173250
7.700000	1	0.171625
7.716667	1	0.169750
7.733333	1	0.167250
7.750000	1	0.164875
7.766667	1	0.161875
7.783333	1	0.159125
7.800000	1	0.156250
7.816667	1	0.153125
7.833333	1	0.148750
7.850000	1	0.144625
7.866667	1	0.140750
7.883333	1	0.136875
7.900000	1	0.132500
7.916667	1	0.128500
7.933333	1	0.124750
7.950000	1	0.121000
7.966667	1	0.117000
7.983333	1	0.113500
8.000000	1	0.109625
8.016667	1	0.106875
8.033333	1	0.103625
8.050000	1	0.100625
8.066667	1	0.098125
8.083333	1	0.095250
8.100000	1	0.092750
8.116667	1	0.090875
8.133333	1	0.089125
8.150000	1	0.088125
8.166667	1	0.087125
8.183333	1	0.086000
8.200000	1	0.084875
8.216667	1	0.083875
8.233333	1	0.083500
8.250000	1	0.082750
8.266667	1	0.082375
8.283333	1	0.082500
8.300000	1	0.082625
8.316667	1	0.083000
8.333333	1	0.082625
8.350000	1	0.083000
8.366667	1	0.083000
8.383333	1	0.083000
8.400000	1	0.083000
8.416667	1	0.083125
8.433333	1	0.083750
8.450000	1	0.083500
8.466667	1	0.084625
8.483333	1	0.085000
8.500000	1	0.085750
8.516667	1	0.086875
8.533333	1	0.088125
8.550000	1	0.088000
8.566667	1	0.088000
8.583333	1	0.088750
8.600000	1	0.089750
8.616667	1	0.091375
8.633333	1	0.092250
8.650000	1	0.093625
8.666667	1	0.094875
8.683333	1	0.096000
8.700000	1	0.097125
8.716667	1	0.098875
8.733333	1	0.100375
8.750000	1	0.102375
8.766667	1	0.104125
8.783333	1	0.105875
8.800000	1	0.107500
8.816667	1	0.109125
8.833333	1	0.110750
8.850000	1	0.112375
8.866667	1	0.113625
8.883333	1	0.115000
8.900000	1	0.116625
8.916667	1	0.117625
8.933333	1	0.118375
8.950000	1	0.118875
8.966667	1	0.120125
8.983333	1	0.120000
9.000000	1	0.120000
9.016667	1	0.121125
9.033333	1	0.121625
9.050000	1	0.121625
9.066667	1	0.121625
9.083333	1	0.121500
9.100000	1	0.121750
9.116667	1	0.121125
9.133333	1	0.121250
9.150000	1	0.120500
9.166667	1	0.120375
9.183333	1	0.119250
9.200000	1	0.118375
9.216667	1	0.117875
9.233333	1	0.117375
9.250000	1	0.116500
9.266667	1	0.115625
9.283333	1	0.114875
9.300000	1	0.113500
9.316667	1	0.112125
9.333333	1	0.111000
9.350000	1	0.110375
9.366667	1	0.109375
9.383333	1	0.108125
9.400000	1	0.107000
9.416667	1	0.106250
9.433333	1	0.104875
9.450000	1	0.103625
9.466667	1	0.102750
9.483333	1	0.101375
9.500000	1	0.100375
9.516667	1	0.099750
9.533333	1	0.098375
9.550000	1	0.096875
9.566667	1	0.096125
9.583333	1	0.095250
9.600000	1	0.093750
9.616667	1	0.092750
9.633333	1	0.091375
9.650000	1	0.090125
9.666667	1	0.089250
9.683333	1	0.087375
9.700000	1	0.086125
9.716667	1	0.084875
9.733333	1	0.084250
9.750000	1	0.083125
9.766667	1	0.081875
9.783333	1	0.081000
9.800000	1	0.080125
9.816667	1	0.078750
9.833333	1	0.077500
9.850000	1	0.076500
9.866667	1	0.075375
9.883333	1	0.074375
9.900000	1	0.073250
9.916667	1	0.072000
9.933333	1	0.071000
9.950000	1	0.069750
9.966667	1	0.068625
9.983333	1	0.068875
10.000000	1	0.070500
10.016667	1	0.072500
10.033333	1	0.074375
10.050000	1	0.077375
10.066667	1	0.081000
10.083333	1	0.085375
10.100000	1	0.091000
10.116667	1	0.097250
10.133333	1	0.104625
10.150000	1	0.113375
10.166667	1	0.122750
10.183333	1	0.132875
10.200000	1	0.144875
10.216667	1	0.158250
10.233333	1	0.173500
10.250000	1	0.191250
10.266667	1	0.211000
10.283333	1	0.233750
10.300000	1	0.257500
10.316667	1	0.284250
10.333333	1	0.311625
10.350000	1	0.339625
10.366667	1	0.365500
10.383333	1	0.387500
10.400000	1	0.404625
10.416667	1	0.415750
10.433333	1	0.422875
10.450000	1	0.431875
10.466667	1	0.453500
10.483333	1	0.503375
10.500000	1	0.607250
10.516667	1	0.799375
10.533333	1	1.126250
10.550000	1	1.640875
10.566667	1	2.402375
10.583333	1	3.471250
10.600000	1	4.900625
10.616667	1	6.732000
10.633333	1	8.990375
10.650000	1	11.685250
10.666667	1	14.810500
10.683333	1	18.342375
10.700000	1	22.236875
10.716667	1	26.423750
10.733333	1	30.802000
10.750000	1	35.232875
10.766667	1	39.524875
10.783333	1	43.439625
10.800000	1	46.683375
10.816667	1	48.942375
10.833333	1	49.931750
10.850000	1	49.471875
10.866667	1	47.545375
10.883333	1	44.323375
10.900000	1	40.144500
10.916667	1	35.430750
10.933333	1	30.592750
10.950000	1	25.961750
10.966667	1	21.751875
10.983333	1	18.067375
11.000000	1	14.936000
11.016667	1	12.334500
11.033333	1	10.212375
11.050000	1	8.504125
11.066667	1	7.143250
11.083333	1	6.066375
11.100000	1	5.216000
11.116667	1	4.543875
11.133333	1	4.009375
11.150000	1	3.580000
11.166667	1	3.232375
11.183333	1	2.947625
11.200000	1	2.711250
11.216667	1	2.512000
11.233333	1	2.343125
11.250000	1	2.198500
11.266667	1	2.072375
11.283333	1	1.961750
11.300000	1	1.863625
11.316667	1	1.776625
11.333333	1	1.699375
11.350000	1	1.631375
11.366667	1	1.570375
11.383333	1	1.515875
11.400000	1	1.467000
11.416667	1	1.423500
11.433333	1	1.384375
11.450000	1	1.349750
11.466667	1	1.319000
11.483333	1	1.291250
11.500000	1	1.266750
11.516667	1	1.244375
11.533333	1	1.224375
11.550000	1	1.206375
11.566667	1	1.190625
11.583333	1	1.176375
11.600000	1	1.163875
11.616667	1	1.153000
11.633333	1	1.143500
11.650000	1	1.136125
11.666667	1	1.129500
11.683333	1	1.124875
11.700000	1	1.121500
11.716667	1	1.119625
11.733333	1	1.119250
11.750000	1	1.120125
11.766667	1	1.122625
11.783333	1	1.125750
11.800000	1	1.130625
11.816667	1	1.135500
11.833333	1	1.141125
11.850000	1	1.146625
11.866667	1	1.152500
11.883333	1	1.158125
11.900000	1	1.164000
11.916667	1	1.169750
11.933333	1	1.175250
11.950000	1	1.181375
11.966667	1	1.187000
11.983333	1	1.192125
12.000000	1	1.197750
12.016667	1	1.204125
12.033333	1	1.210250
12.050000	1	1.217375
12.066667	1	1.224250
12.083333	1	1.232875
12.100000	1	1.240125
12.116667	1	1.247500
12.133333	1	1.255500
12.150000	1	1.264125
12.166667	1	1.273375
12.183333	1	1.283000
12.200000	1	1.294000
12.216667	1	1.306625
12.233333	1	1.320750
12.250000	1	1.337000
12.266667	1	1.356750
12.283333	1	1.379125
12.300000	1	1.406125
12.316667	1	1.438875
12.333333	1	1.477875
12.350000	1	1.524500
12.366667	1	1.582625
12.383333	1	1.653875
12.400000	1	1.741250
12.416667	1	1.847250
12.433333	1	1.977750
12.450000	1	2.136125
12.466667	1	2.327500
12.483333	1	2.555625
12.500000	1	2.823625
12.516667	1	3.132250
12.533333	1	3.479250
12.550000	1	3.859375
12.566667	1	4.265625
12.583333	1	4.685000
12.600000	1	5.105375
12.616667	1	5.509000
12.633333	1	5.879125
12.650000	1	6.200125
12.666667	1	6.458125
12.683333	1	6.643375
12.700000	1	6.749000
12.716667	1	6.774375
12.733333	1	6.722625
12.750000	1	6.602500
12.766667	1	6.423000
12.783333	1	6.197500
12.800000	1	5.937250
12.816667	1	5.655250
12.833333	1	5.362250
12.850000	1	5.067250
12.866667	1	4.777625
12.883333	1	4.500375
12.900000	1	4.240000
12.916667	1	3.998500
12.933333	1	3.777625
12.950000	1	3.578375
12.966667	1	3.401375
12.983333	1	3.244250
13.000000	1	3.105875
13.016667	1	2.984500
13.033333	1	2.878000
13.050000	1	2.784250
13.066667	1	2.701875
13.083333	1	2.628250
13.100000	1	2.563250
13.116667	1	2.505000
13.133333	1	2.452250
13.150000	1	2.404125
13.166667	1	2.360500
13.183333	1	2.319875
13.200000	1	2.282875
13.216667	1	2.248000
13.233333	1	2.215000
13.250000	1	2.183250
13.266667	1	2.152375
13.283333	1	2.123500
13.300000	1	2.095500
13.316667	1	2.069500
13.333333	1	2.044375
13.350000	1	2.021125
13.366667	1	1.998875
13.383333	1	1.978500
13.400000	1	1.960125
13.416667	1	1.944250
13.433333	1	1.930875
13.450000	1	1.919375
13.466667	1	1.909625
13.483333	1	1.902375
13.500000	1	1.896750
13.516667	1	1.893375
13.533333	1	1.891250
13.550000	1	1.890125
13.566667	1	1.889375
13.583333	1	1.888625
13.600000	1	1.886250
13.616667	1	1.882500
13.633333	1	1.876750
13.650000	1	1.868500
13.666667	1	1.857250
13.683333	1	1.844250
13.700000	1	1.827625
13.716667	1	1.808875
13.733333	1	1.787875
13.750000	1	1.766250
13.766667	1	1.743625
13.783333	1	1.720875
13.800000	1	1.698375
13.816667	1	1.676875
13.833333	1	1.656375
13.850000	1	1.636500
13.866667	1	1.617250
13.883333	1	1.599750
13.900000	1	1.583375
13.916667	1	1.567875
13.933333	1	1.553375
13.950000	1	1.539625
13.966667	1	1.527250
13.983333	1	1.515375
14.000000	1	1.504250
14.016667	1	1.493625
14.033333	1	1.483500
14.050000	1	1.474125
14.066667	1	1.465250
14.083333	1	1.457125
14.100000	1	1.448625
14.116667	1	1.441000
14.133333	1	1.432750
14.150000	1	1.425750
14.166667	1	1.419250
14.183333	1	1.414000
14.200000	1	1.409625
14.216667	1	1.406625
14.233333	1	1.404875
14.250000	1	1.405125
14.266667	1	1.407000
14.283333	1	1.411625
14.300000	1	1.419250
14.316667	1	1.430000
14.333333	1	1.444500
14.350000	1	1.464875
14.366667	1	1.491000
14.383333	1	1.525125
14.400000	1	1.568750
14.416667	1	1.625750
14.433333	1	1.700375
14.450000	1	1.799875
14.466667	1	1.933375
14.483333	1	2.111500
14.500000	1	2.352000
14.516667	1	2.674375
14.533333	1	3.105375
14.550000	1	3.675375
14.566667	1	4.422375
14.583333	1	5.386750
14.600000	1	6.615000
14.616667	1	8.154125
14.633333	1	10.050375
14.650000	1	12.341250
14.666667	1	15.047875
14.683333	1	18.173875
14.700000	1	21.693000
14.716667	1	25.549875
14.733333	1	29.660750
14.750000	1	33.909750
14.766667	1	38.152500
14.783333	1	42.224875
14.800000	1	45.960375
14.816667	1	49.195000
14.833333	1	51.776625
14.850000	1	53.584750
14.866667	1	54.533250
14.883333	1	54.585625
14.900000	1	53.754875
14.916667	1	52.102625
14.933333	1	49.727875
14.950000	1	46.761875
14.966667	1	43.358000
14.983333	1	39.673125
15.000000	1	35.853750
15.016667	1	32.033125
15.033333	1	28.323125
15.050000	1	24.811875
15.066667	1	21.563750
15.083333	1	18.618000
15.100000	1	15.993500
15.116667	1	13.691000
15.133333	1	11.697375
15.150000	1	9.988500
15.166667	1	8.538750
15.183333	1	7.317500
15.200000	1	6.295875
15.216667	1	5.446500
15.233333	1	4.744500
15.250000	1	4.166500
15.266667	1	3.694375
15.283333	1	3.311875
15.300000	1	3.004500
15.316667	1	2.762250
15.333333	1	2.571875
15.350000	1	2.425625
15.366667	1	2.315500
15.383333	1	2.235500
15.400000	1	2.178875
15.416667	1	2.139875
15.433333	1	2.114500
15.450000	1	2.097250
15.466667	1	2.085125
15.483333	1	2.073250
15.500000	1	2.060000
15.516667	1	2.042875
15.533333	1	2.021000
15.550000	1	1.993625
15.566667	1	1.960500
15.583333	1	1.922750
15.600000	1	1.880375
15.616667	1	1.835500
15.633333	1	1.789500
15.650000	1	1.742875
15.666667	1	1.697250
15.683333	1	1.653000
15.700000	1	1.611625
15.716667	1	1.572125
15.733333	1	1.535375
15.750000	1	1.501750
15.766667	1	1.470750
15.783333	1	1.441750
15.800000	1	1.415000
15.816667	1	1.390125
15.833333	1	1.367000
15.850000	1	1.345750
15.866667	1	1.326875
15.883333	1	1.309875
15.900000	1	1.294750
15.916667	1	1.280625
15.933333	1	1.268875
15.950000	1	1.259250
15.966667	1	1.252250
15.983333	1	1.246750
16.000000	1	1.243375
16.016667	1	1.241250
16.033333	1	1.241000
16.050000	1	1.241500
16.066667	1	1.243000
16.083333	1	1.246000
16.100000	1	1.248375
16.116667	1	1.251125
16.133333	1	1.253625
16.150000	1	1.256625
16.166667	1	1.259125
16.183333	1	1.261125
16.200000	1	1.262375
16.216667	1	1.262250
16.233333	1	1.262000
16.250000	1	1.260625
16.266667	1	1.258625
16.283333	1	1.255875
16.300000	1	1.252375
16.316667	1	1.249125
16.333333	1	1.245500
16.350000	1	1.242000
16.366667	1	1.239250
16.383333	1	1.237750
16.400000	1	1.237250
16.416667	1	1.238250
16.433333	1	1.240750
16.450000	1	1.243875
16.466667	1	1.247875
16.483333	1	1.252500
16.500000	1	1.258250
16.516667	1	1.264125
16.533333	1	1.269750
16.550000	1	1.274750
16.566667	1	1.278875
16.583333	1	1.282875
16.600000	1	1.285375
16.616667	1	1.287125
16.633333	1	1.287625
16.650000	1	1.286750
16.666667	1	1.287250
16.683333	1	1.287250
16.700000	1	1.288250
16.716667	1	1.290125
16.733333	1	1.293000
16.750000	1	1.297375
16.766667	1	1.302625
16.783333	1	1.309875
16.800000	1	1.317750
16.816667	1	1.326250
16.833333	1	1.335500
16.850000	1	1.343750
16.866667	1	1.352000
16.883333	1	1.359250
16.900000	1	1.364875
16.916667	1	1.368875
16.933333	1	1.371000
16.950000	1	1.371875
16.966667	1	1.370750
16.983333	1	1.367750
17.000000	1	1.363250
17.016667	1	1.357000
17.033333	1	1.350375
17.050000	1	1.342625
17.066667	1	1.335125
17.083333	1	1.326875
17.100000	1	1.319125
17.116667	1	1.312000
17.133333	1	1.304500
17.150000	1	1.298250
17.166667	1	1.292250
17.183333	1	1.287375
17.200000	1	1.283750
17.216667	1	1.280000
17.233333	1	1.277500
17.250000	1	1.275750
17.266667	1	1.274000
17.283333	1	1.273125
17.300000	1	1.273375
17.316667	1	1.273625
17.333333	1	1.275000
17.350000	1	1.276250
17.366667	1	1.278000
17.383333	1	1.279000
17.400000	1	1.280500
17.416667	1	1.280625
17.433333	1	1.280250
17.450000	1	1.278750
17.466667	1	1.276000
17.483333	1	1.271000
17.500000	1	1.265125
17.516667	1	1.258250
17.533333	1	1.249625
17.550000	1	1.240125
17.566667	1	1.228500
17.583333	1	1.216250
17.600000	1	1.202750
17.616667	1	1.188625
17.633333	1	1.173625
17.650000	1	1.158250
17.666667	1	1.142375
17.683333	1	1.127125
17.700000	1	1.112500
17.716667	1	1.098375
17.733333	1	1.084500
17.750000	1	1.072250
17.766667	1	1.060625
17.783333	1	1.050250
17.800000	1	1.041125
17.816667	1	1.033250
17.833333	1	1.026000
17.850000	1	1.019875
17.866667	1	1.014750
17.883333	1	1.009625
17.900000	1	1.005000
17.916667	1	1.001125
17.933333	1	0.997375
17.950000	1	0.993125
17.966667	1	0.989625
17.983333	1	0.985625
18.000000	1	0.982875
18.016667	1	0.979125
18.033333	1	0.975375
18.050000	1	0.971625
18.066667	1	0.968250
18.083333	1	0.964625
18.100000	1	0.961500
18.116667	1	0.958500
18.133333	1	0.956625
18.150000	1	0.954625
18.166667	1	0.953875
18.183333	1	0.952500
18.200000	1	0.951750
18.216667	1	0.952000
18.233333	1	0.952625
18.250000	1	0.953625
18.266667	1	0.954500
18.283333	1	0.955500
18.300000	1	0.956250
18.316667	1	0.957875
18.333333	1	0.959750
18.350000	1	0.962250
18.366667	1	0.964875
18.383333	1	0.968625
18.400000	1	0.973250
18.416667	1	0.978375
18.433333	1	0.984750
18.450000	1	0.992500
18.466667	1	1.001500
18.483333	1	1.012125
18.500000	1	1.024625
18.516667	1	1.039125
18.533333	1	1.054875
18.550000	1	1.072875
18.566667	1	1.092875
18.583333	1	1.114250
18.600000	1	1.137625
18.616667	1	1.162375
18.633333	1	1.188000
18.650000	1	1.214750
18.666667	1	1.242500
18.683333	1	1.270500
18.700000	1	1.299250
18.716667	1	1.328750
18.733333	1	1.358375
18.750000	1	1.387000
18.766667	1	1.416000
18.783333	1	1.443125
18.800000	1	1.468625
18.816667	1	1.491750
18.833333	1	1.512500
18.850000	1	1.529625
18.866667	1	1.542250
18.883333	1	1.551625
18.900000	1	1.555500
18.916667	1	1.554250
18.933333	1	1.548125
18.950000	1	1.536000
18.966667	1	1.517375
18.983333	1	1.493375
19.000000	1	1.464750
19.016667	1	1.431500
19.033333	1	1.393500
19.050000	1	1.352750
19.066667	1	1.309750
19.083333	1	1.265000
19.100000	1	1.220000
19.116667	1	1.175125
19.133333	1	1.131875
19.150000	1	1.090875
19.166667	1	1.052250
19.183333	1	1.018500
19.200000	1	0.987625
19.216667	1	0.962125
19.233333	1	0.941250
19.250000	1	0.926375
19.266667	1	0.917125
19.283333	1	0.913375
19.300000	1	0.915125
19.316667	1	0.922875
19.333333	1	0.935375
19.350000	1	0.953125
19.366667	1	0.975500
19.383333	1	1.001250
19.400000	1	1.030625
19.416667	1	1.062000
19.433333	1	1.095000
19.450000	1	1.128000
19.466667	1	1.161000
19.483333	1	1.192750
19.500000	1	1.222125
19.516667	1	1.248125
19.533333	1	1.270875
19.550000	1	1.289000
19.566667	1	1.302250
19.583333	1	1.311125
19.600000	1	1.314000
19.616667	1	1.312625
19.633333	1	1.305375
19.650000	1	1.293250
19.666667	1	1.277000
19.683333	1	1.256625
19.700000	1	1.233000
19.716667	1	1.206625
19.733333	1	1.177250
19.750000	1	1.146125
19.766667	1	1.113000
19.783333	1	1.079000
19.800000	1	1.044625
19.816667	1	1.010750
19.833333	1	0.976750
19.850000	1	0.944375
19.866667	1	0.912875
19.883333	1	0.883000
19.900000	1	0.855500
19.916667	1	0.830750
19.933333	1	0.809000
19.950000	1	0.791000
19.966667	1	0.775250
19.983333	1	0.763875
20.000000	1	0.757000
20.016667	1	0.754125
20.033333	1	0.755625
20.050000	1	0.762250
20.066667	1	0.773875
20.083333	1	0.790000
20.100000	1	0.811000
20.116667	1	0.834875
20.133333	1	0.863750
20.150000	1	0.896250
20.166667	1	0.930875
20.183333	1	0.966625
20.200000	1	1.003000
20.216667	1	1.039125
20.233333	1	1.072375
20.250000	1	1.103250
20.266667	1	1.130000
20.283333	1	1.151875
20.300000	1	1.167125
20.316667	1	1.175875
20.333333	1	1.178250
20.350000	1	1.173750
20.366667	1	1.162750
20.383333	1	1.145000
20.400000	1	1.121750
20.416667	1	1.094750
20.433333	1	1.063750
20.450000	1	1.031500
20.466667	1	0.997875
20.483333	1	0.965250
20.500000	1	0.934875
20.516667	1	0.908125
20.533333	1	0.886000
20.550000	1	0.869375
20.566667	1	0.859750
20.583333	1	0.856625
20.600000	1	0.861625
20.616667	1	0.875750
20.633333	1	0.898125
20.650000	1	0.929375
20.666667	1	0.969375
20.683333	1	1.017625
20.700000	1	1.072625
20.716667	1	1.134625
20.733333	1	1.201625
20.750000	1	1.271375
20.766667	1	1.342250
20.783333	1	1.412750
20.800000	1	1.481375
20.816667	1	1.545000
20.833333	1	1.601500
20.850000	1	1.648375
20.866667	1	1.685125
20.883333	1	1.710125
20.900000	1	1.722625
20.916667	1	1.722125
20.933333	1	1.708250
20.950000	1	1.681875
20.966667	1	1.645000
20.983333	1	1.597500
21.000000	1	1.542500
21.016667	1	1.480500
21.033333	1	1.413500
21.050000	1	1.343500
21.066667	1	1.272250
21.083333	1	1.202375
21.100000	1	1.133500
21.116667	1	1.067750
21.133333	1	1.005875
21.150000	1	0.948375
21.166667	1	0.895000
21.183333	1	0.847500
21.200000	1	0.804000
21.216667	1	0.765375
21.233333	1	0.731375
21.250000	1	0.701625
21.266667	1	0.675500
21.283333	1	0.652875
21.300000	1	0.633875
21.316667	1	0.617875
21.333333	1	0.604750
21.350000	1	0.593000
21.366667	1	0.584125
21.383333	1	0.576375
21.400000	1	0.570250
21.416667	1	0.565250
21.433333	1	0.561625
21.450000	1	0.558750
21.466667	1	0.557500
21.483333	1	0.557250
21.500000	1	0.558000
21.516667	1	0.559500
21.533333	1	0.562500
21.550000	1	0.566875
21.566667	1	0.572125
21.583333	1	0.579250
21.600000	1	0.588250
21.616667	1	0.598000
21.633333	1	0.609750
21.650000	1	0.623125
21.666667	1	0.638875
21.683333	1	0.656750
21.700000	1	0.677250
21.716667	1	0.699000
21.733333	1	0.722250
21.750000	1	0.747875
21.766667	1	0.774375
21.783333	1	0.802875
21.800000	1	0.831750
21.816667	1	0.861000
21.833333	1	0.890000
21.850000	1	0.918500
21.866667	1	0.945500
21.883333	1	0.971000
21.900000	1	0.994000
21.916667	1	1.014375
21.933333	1	1.032125
21.950000	1	1.046375
21.966667	1	1.056375
21.983333	1	1.062500
22.000000	1	1.064875
22.016667	1	1.063125
22.033333	1	1.058250
22.050000	1	1.048750
22.066667	1	1.036375
22.083333	1	1.020375
22.100000	1	1.002625
22.116667	1	0.982500
22.133333	1	0.961125
22.150000	1	0.937750
22.166667	1	0.913000
22.183333	1	0.887000
22.200000	1	0.861375
22.216667	1	0.835000
22.233333	1	0.808500
22.250000	1	0.782000
22.266667	1	0.755875
22.283333	1	0.730375
22.300000	1	0.705500
22.316667	1	0.681000
22.333333	1	0.657000
22.350000	1	0.634375
22.366667	1	0.613125
22.383333	1	0.592875
22.400000	1	0.573250
22.416667	1	0.554625
22.433333	1	0.537250
22.450000	1	0.521250
22.466667	1	0.507500
22.483333	1	0.494125
22.500000	1	0.482250
22.516667	1	0.471500
22.533333	1	0.462125
22.550000	1	0.454125
22.566667	1	0.445625
22.583333	1	0.438000
22.600000	1	0.430500
22.616667	1	0.424500
22.633333	1	0.417875
22.650000	1	0.412250
22.666667	1	0.406000
22.683333	1	0.399875
22.700000	1	0.393875
22.716667	1	0.387375
22.733333	1	0.380750
22.750000	1	0.373875
22.766667	1	0.367750
22.783333	1	0.360750
22.800000	1	0.353875
22.816667	1	0.346625
22.833333	1	0.339250
22.850000	1	0.332500
22.866667	1	0.326500
22.883333	1	0.320500
22.900000	1	0.314500
22.916667	1	0.308625
22.933333	1	0.304500
22.950000	1	0.300375
22.966667	1	0.296625
22.983333	1	0.293750
23.000000	1	0.291500
23.016667	1	0.289500
23.033333	1	0.288250
23.050000	1	0.287375
23.066667	1	0.287875
23.083333	1	0.288875
23.100000	1	0.291125
23.116667	1	0.293750
23.133333	1	0.296875
23.150000	1	0.300500
23.166667	1	0.305625
23.183333	1	0.311375
23.200000	1	0.317375
23.216667	1	0.324875
23.233333	1	0.332875
23.250000	1	0.342125
23.266667	1	0.354000
23.283333	1	0.367500
23.300000	1	0.384000
23.316667	1	0.403375
23.333333	1	0.426250
23.350000	1	0.454375
23.366667	1	0.487125
23.383333	1	0.526125
23.400000	1	0.572625
23.416667	1	0.626875
23.433333	1	0.690875
23.450000	1	0.765250
23.466667	1	0.851250
23.483333	1	0.950125
23.500000	1	1.063625
23.516667	1	1.192250
23.533333	1	1.338500
23.550000	1	1.500375
23.566667	1	1.679500
23.583333	1	1.875125
23.600000	1	2.086875
23.616667	1	2.313250
23.633333	1	2.551250
23.650000	1	2.799000
23.666667	1	3.054375
23.683333	1	3.314250
23.700000	1	3.573000
23.716667	1	3.827125
23.733333	1	4.071250
23.750000	1	4.300625
23.766667	1	4.509875
23.783333	1	4.695250
23.800000	1	4.851625
23.816667	1	4.976625
23.833333	1	5.067000
23.850000	1	5.121625
23.866667	1	5.138500
23.883333	1	5.118500
23.900000	1	5.062250
23.916667	1	4.972250
23.933333	1	4.849625
23.950000	1	4.699750
23.966667	1	4.525125
23.983333	1	4.330750
24.000000	1	4.120375
24.016667	1	3.899750
24.033333	1	3.672000
24.050000	1	3.440875
24.066667	1	3.210125
24.083333	1	2.983875
24.100000	1	2.763000
24.116667	1	2.550125
24.133333	1	2.347625
24.150000	1	2.155750
24.166667	1	1.977250
24.183333	1	1.811125
24.200000	1	1.658000
24.216667	1	1.517625
24.233333	1	1.390500
24.250000	1	1.275125
24.266667	1	1.171250
24.283333	1	1.077250
24.300000	1	0.994000
24.316667	1	0.919250
24.333333	1	0.853500
24.350000	1	0.795750
24.366667	1	0.744875
24.383333	1	0.700625
24.400000	1	0.662125
24.416667	1	0.629250
24.433333	1	0.601250
24.450000	1	0.577625
24.466667	1	0.558375
24.483333	1	0.542125
24.500000	1	0.528625
24.516667	1	0.518500
24.533333	1	0.509375
24.550000	1	0.502125
24.566667	1	0.495625
24.583333	1	0.490250
24.600000	1	0.485375
24.616667	1	0.482000
24.633333	1	0.478375
24.650000	1	0.474500
24.666667	1	0.470250
24.683333	1	0.466125
24.700000	1	0.462250
24.716667	1	0.458625
24.733333	1	0.453750
24.750000	1	0.449000
24.766667	1	0.444500
24.783333	1	0.439000
24.800000	1	0.434000
24.816667	1	0.428000
24.833333	1	0.422375
24.850000	1	0.417250
24.866667	1	0.411125
24.883333	1	0.404500
24.900000	1	0.399250
24.916667	1	0.393875
24.933333	1	0.388125
24.950000	1	0.383500
24.966667	1	0.378875
24.983333	1	0.374000
25.000000	1	0.369750
25.016667	1	0.364750
25.033333	1	0.359375
25.050000	1	0.355250
25.066667	1	0.351625
25.083333	1	0.347750
25.100000	1	0.344500
25.116667	1	0.341375
25.133333	1	0.337750
25.150000	1	0.335250
25.166667	1	0.332250
25.183333	1	0.329125
25.200000	1	0.326500
25.216667	1	0.324750
25.233333	1	0.323125
25.250000	1	0.321250
25.266667	1	0.319750
25.283333	1	0.318875
25.300000	1	0.317500
25.316667	1	0.315875
25.333333	1	0.315375
25.350000	1	0.315375
25.366667	1	0.315750
25.383333	1	0.316250
25.400000	1	0.317125
25.416667	1	0.318000
25.433333	1	0.319625
25.450000	1	0.321750
25.466667	1	0.323625
25.483333	1	0.326125
25.500000	1	0.328750
25.516667	1	0.330750
25.533333	1	0.334125
25.550000	1	0.337000
25.566667	1	0.338750
25.583333	1	0.341125
25.600000	1	0.342875
25.616667	1	0.345125
25.633333	1	0.347250
25.650000	1	0.349375
25.666667	1	0.351500
25.683333	1	0.352375
25.700000	1	0.352625
25.716667	1	0.353250
25.733333	1	0.353375
25.750000	1	0.353125
25.766667	1	0.351625
25.783333	1	0.350625
25.800000	1	0.349000
25.816667	1	0.346750
25.833333	1	0.344875
25.850000	1	0.342625
25.866667	1	0.340125
25.883333	1	0.338125
25.900000	1	0.335625
25.916667	1	0.333000
25.933333	1	0.330750
25.950000	1	0.328500
25.966667	1	0.326125
25.983333	1	0.323875
26.000000	1	0.322125
26.016667	1	0.321000
26.033333	1	0.319625
26.050000	1	0.318500
26.066667	1	0.318250
26.083333	1	0.318500
26.100000	1	0.318875
26.116667	1	0.320375
26.133333	1	0.321000
26.150000	1	0.322375
26.166667	1	0.323125
26.183333	1	0.324500
26.200000	1	0.325500
26.216667	1	0.327000
26.233333	1	0.328875
26.250000	1	0.330250
26.266667	1	0.331625
26.283333	1	0.333000
26.300000	1	0.333875
26.316667	1	0.334250
26.333333	1	0.334000
26.350000	1	0.333625
26.366667	1	0.332750
26.383333	1	0.330750
26.400000	1	0.329375
26.416667	1	0.327000
26.433333	1	0.324625
26.450000	1	0.321875
26.466667	1	0.318000
26.483333	1	0.313875
26.500000	1	0.309500
26.516667	1	0.304750
26.533333	1	0.299750
26.550000	1	0.294500
26.566667	1	0.288500
26.583333	1	0.282750
26.600000	1	0.276750
26.616667	1	0.271250
26.633333	1	0.265500
26.650000	1	0.260125
26.666667	1	0.255000
26.683333	1	0.250125
26.700000	1	0.245375
26.716667	1	0.240625
26.733333	1	0.236375
26.750000	1	0.232500
26.766667	1	0.228750
26.783333	1	0.226125
26.800000	1	0.224250
26.816667	1	0.221750
26.833333	1	0.221125
26.850000	1	0.220875
26.866667	1	0.220625
26.883333	1	0.220625
26.900000	1	0.221125
26.916667	1	0.222125
26.933333	1	0.223250
26.950000	1	0.225500
26.966667	1	0.228000
26.983333	1	0.230375
27.000000	1	0.234000
27.016667	1	0.237750
27.033333	1	0.242500
27.050000	1	0.246750
27.066667	1	0.252375
27.083333	1	0.258500
27.100000	1	0.264625
27.116667	1	0.271875
27.133333	1	0.279625
27.150000	1	0.289000
27.166667	1	0.298875
27.183333	1	0.310250
27.200000	1	0.323750
27.216667	1	0.339000
27.233333	1	0.355500
27.250000	1	0.374375
27.266667	1	0.395875
27.283333	1	0.421125
27.300000	1	0.449500
27.316667	1	0.481500
27.333333	1	0.517750
27.350000	1	0.559375
27.366667	1	0.605750
27.383333	1	0.658250
27.400000	1	0.718000
27.416667	1	0.785625
27.433333	1	0.860250
27.450000	1	0.943875
27.466667	1	1.036125
27.483333	1	1.137625
27.500000	1	1.248250
27.516667	1	1.368375
27.533333	1	1.497250
27.550000	1	1.635750
27.566667	1	1.783125
27.583333	1	1.939125
27.600000	1	2.101750
27.616667	1	2.270500
27.633333	1	2.444625
27.650000	1	2.622000
27.666667	1	2.801500
27.683333	1	2.980000
27.700000	1	3.156250
27.716667	1	3.327000
27.733333	1	3.490125
27.750000	1	3.643375
27.766667	1	3.783625
27.783333	1	3.909250
27.800000	1	4.018750
27.816667	1	4.109000
27.833333	1	4.179250
27.850000	1	4.228000
27.866667	1	4.253875
27.883333	1	4.256500
27.900000	1	4.235625
27.916667	1	4.192375
27.933333	1	4.126500
27.950000	1	4.039750
27.966667	1	3.933750
27.983333	1	3.810750
28.000000	1	3.672125
28.016667	1	3.520500
28.033333	1	3.357750
28.050000	1	3.187000
28.066667	1	3.011000
28.083333	1	2.831875
28.100000	1	2.651875
28.116667	1	2.472625
28.133333	1	2.296500
28.150000	1	2.127000
28.166667	1	1.963250
28.183333	1	1.806625
28.200000	1	1.659875
28.216667	1	1.521500
28.233333	1	1.393000
28.250000	1	1.274250
28.266667	1	1.165125
28.283333	1	1.065125
28.300000	1	0.974750
28.316667	1	0.893250
28.333333	1	0.820625
28.350000	1	0.756125
28.366667	1	0.698875
28.383333	1	0.649375
28.400000	1	0.606250
28.416667	1	0.570250
28.433333	1	0.539750
28.450000	1	0.513625
28.466667	1	0.492125
28.483333	1	0.474625
28.500000	1	0.462375
28.516667	1	0.452500
28.533333	1	0.445750
28.550000	1	0.441875
28.566667	1	0.440750
28.583333	1	0.441375
28.600000	1	0.445000
28.616667	1	0.450375
28.633333	1	0.456500
28.650000	1	0.464625
28.666667	1	0.473000
28.683333	1	0.482750
28.700000	1	0.491875
28.716667	1	0.502000
28.733333	1	0.511625
28.750000	1	0.520750
28.766667	1	0.529500
28.783333	1	0.538625
28.800000	1	0.546375
28.816667	1	0.553875
28.833333	1	0.561500
28.850000	1	0.567375
28.866667	1	0.571750
28.883333	1	0.576000
28.900000	1	0.578375
28.916667	1	0.579250
28.933333	1	0.578750
28.950000	1	0.577375
28.966667	1	0.575000
28.983333	1	0.570750
29.000000	1	0.564625
29.016667	1	0.557375
29.033333	1	0.548375
29.050000	1	0.537625
29.066667	1	0.525000
29.083333	1	0.510375
29.100000	1	0.494500
29.116667	1	0.476500
29.133333	1	0.455875
29.150000	1	0.434000
29.166667	1	0.410625
29.183333	1	0.385000
29.200000	1	0.357625
29.216667	1	0.328000
29.233333	1	0.296750
29.250000	1	0.263625
29.266667	1	0.228125
29.283333	1	0.190250
29.300000	1	0.150625
29.316667	1	0.110375
29.333333	1	0.067500
29.350000	1	0.023750
29.366667	1	-0.022250
29.383333	1	-0.069250
29.400000	1	-0.117875
29.416667	1	-0.167125
29.433333	1	-0.216875
29.450000	1	-0.267750
29.466667	1	-0.318875
29.483333	1	-0.369375
29.500000	1	-0.419625
29.516667	1	-0.468875
29.533333	1	-0.517000
29.550000	1	-0.563750
29.566667	1	-0.608625
29.583333	1	-0.650375
29.600000	1	-0.690125
29.616667	1	-0.726750
29.633333	1	-0.760750
29.650000	1	-0.790625
29.666667	1	-0.816500
29.683333	1	-0.839000
29.700000	1	-0.857125
29.716667	1	-0.871375
29.733333	1	-0.881000
29.750000	1	-0.887375
29.766667	1	-0.888500
29.783333	1	-0.885500
29.800000	1	-0.877750
29.816667	1	-0.866500
29.833333	1	-0.851625
29.850000	1	-0.833500
29.866667	1	-0.812125
29.883333	1	-0.787625
29.900000	1	-0.761250
29.916667	1	-0.731375
29.933333	1	-0.699875
29.950000	1	-0.667875
29.966667	1	-0.633750
29.983333	1	-0.598500
30.000000	1	-0.562375
30.016667	1	-0.526250
30.033333	1	-0.490750
30.050000	1	-0.454375
30.066667	1	-0.418375
30.083333	1	-0.384000
30.100000	1	-0.350250
30.116667	1	-0.316750
30.133333	1	-0.285375
30.150000	1	-0.254750
30.166667	1	-0.225750
30.183333	1	-0.197625
30.200000	1	-0.171500
30.216667	1	-0.146500
30.233333	1	-0.123000
30.250000	1	-0.101125
30.266667	1	-0.080500
30.283333	1	-0.061875
30.300000	1	-0.044625
30.316667	1	-0.028875
30.333333	1	-0.014875
30.350000	1	-0.001000
30.366667	1	0.011125
30.383333	1	0.022250
30.400000	1	0.032750
30.416667	1	0.042625
30.433333	1	0.050000
30.450000	1	0.058000
30.466667	1	0.064875
30.483333	1	0.071500
30.500000	1	0.077375
30.516667	1	0.083125
30.533333	1	0.088000
30.550000	1	0.092875
30.566667	1	0.098125
30.583333	1	0.102375
30.600000	1	0.107000
30.616667	1	0.111500
30.633333	1	0.117125
30.650000	1	0.122625
30.666667	1	0.127000
30.683333	1	0.133250
30.700000	1	0.139250
30.716667	1	0.145750
30.733333	1	0.152875
30.750000	1	0.160000
30.766667	1	0.167750
30.783333	1	0.176500
30.800000	1	0.186000
30.816667	1	0.196000
30.833333	1	0.206625
30.850000	1	0.218500
30.866667	1	0.230875
30.883333	1	0.244250
30.900000	1	0.259500
30.916667	1	0.275500
30.933333	1	0.292750
30.950000	1	0.312750
30.966667	1	0.334500
30.983333	1	0.358500
31.000000	1	0.385125
31.016667	1	0.415500
31.033333	1	0.448500
31.050000	1	0.485750
31.066667	1	0.526125
31.083333	1	0.571875
31.100000	1	0.621375
31.116667	1	0.675625
31.133333	1	0.736375
31.150000	1	0.802500
31.166667	1	0.874250
31.183333	1	0.952250
31.200000	1	1.037250
31.216667	1	1.128750
31.233333	1	1.226875
31.250000	1	1.331750
31.266667	1	1.441375
31.283333	1	1.557125
31.300000	1	1.678250
31.316667	1	1.803000
31.333333	1	1.931500
31.350000	1	2.062500
31.366667	1	2.196125
31.383333	1	2.329625
31.400000	1	2.461500
31.416667	1	2.593500
31.433333	1	2.720875
31.450000	1	2.843500
31.466667	1	2.959875
31.483333	1	3.067375
31.500000	1	3.165750
31.516667	1	3.253750
31.533333	1	3.329750
31.550000	1	3.393625
31.566667	1	3.444250
31.583333	1	3.481000
31.600000	1	3.502750
31.616667	1	3.510125
31.633333	1	3.503125
31.650000	1	3.481375
31.666667	1	3.444625
31.683333	1	3.394750
31.700000	1	3.332250
31.716667	1	3.258750
31.733333	1	3.174750
31.750000	1	3.080750
31.766667	1	2.978375
31.783333	1	2.869250
31.800000	1	2.753625
31.816667	1	2.633375
31.833333	1	2.510375
31.850000	1	2.384875
31.866667	1	2.259000
31.883333	1	2.132750
31.900000	1	2.007375
31.916667	1	1.884375
31.933333	1	1.764625
31.950000	1	1.648875
31.966667	1	1.537250
31.983333	1	1.428500
32.000000	1	1.323750
32.016667	1	1.225000
32.033333	1	1.131375
32.050000	1	1.042375
32.066667	1	0.959375
32.083333	1	0.881375
32.100000	1	0.808250
32.116667	1	0.739125
32.133333	1	0.674625
32.150000	1	0.614125
32.166667	1	0.558250
32.183333	1	0.506375
32.200000	1	0.458125
32.216667	1	0.413500
32.233333	1	0.371375
32.250000	1	0.332250
32.266667	1	0.296625
32.283333	1	0.263625
32.300000	1	0.232750
32.316667	1	0.203875
32.333333	1	0.177500
32.350000	1	0.153625
32.366667	1	0.131375
32.383333	1	0.110750
32.400000	1	0.092000
32.416667	1	0.073875
32.433333	1	0.057750
32.450000	1	0.043625
32.466667	1	0.030500
32.483333	1	0.018625
32.500000	1	0.008500
32.516667	1	-0.000375
32.533333	1	-0.007750
32.550000	1	-0.015375
32.566667	1	-0.021625
32.583333	1	-0.026250
32.600000	1	-0.030500
32.616667	1	-0.034250
32.633333	1	-0.036875
32.650000	1	-0.039125
32.666667	1	-0.040625
32.683333	1	-0.041250
32.700000	1	-0.042250
32.716667	1	-0.042500
32.733333	1	-0.043125
32.750000	1	-0.042875
32.766667	1	-0.042000
32.783333	1	-0.040250
32.800000	1	-0.039125
32.816667	1	-0.037250
32.833333	1	-0.035250
32.850000	1	-0.033625
32.866667	1	-0.032125
32.883333	1	-0.030125
32.900000	1	-0.028875
32.916667	1	-0.027000
32.933333	1	-0.025250
32.950000	1	-0.023250
32.966667	1	-0.021875
32.983333	1	-0.020375
33.000000	1	-0.019000
33.016667	1	-0.017750
33.033333	1	-0.016000
33.050000	1	-0.014875
33.066667	1	-0.013500
33.083333	1	-0.012000
33.100000	1	-0.010875
33.116667	1	-0.009250
33.133333	1	-0.008375
33.150000	1	-0.007500
33.166667	1	-0.006000
33.183333	1	-0.004625
33.200000	1	-0.003875
33.216667	1	-0.002875
33.233333	1	-0.001375
33.250000	1	-0.000625
33.266667	1	0.001000
33.283333	1	0.001500
33.300000	1	0.002875
33.316667	1	0.003500
33.333333	1	0.004250
33.350000	1	0.005625
33.366667	1	0.007250
33.383333	1	0.008500
33.400000	1	0.009000
33.416667	1	0.010375
33.433333	1	0.012000
33.450000	1	0.013875
33.466667	1	0.016125
33.483333	1	0.018250
33.500000	1	0.021125
33.516667	1	0.023375
33.533333	1	0.026000
33.550000	1	0.029000
33.566667	1	0.031875
33.583333	1	0.035500
33.600000	1	0.038750
33.616667	1	0.041125
33.633333	1	0.044875
33.650000	1	0.047875
33.666667	1	0.051000
33.683333	1	0.053875
33.700000	1	0.057750
33.716667	1	0.060875
33.733333	1	0.064125
33.750000	1	0.066875
33.766667	1	0.070250
33.783333	1	0.072750
33.800000	1	0.075625
33.816667	1	0.077500
33.833333	1	0.079250
33.850000	1	0.080375
33.866667	1	0.082125
33.883333	1	0.082875
33.900000	1	0.084750
33.916667	1	0.085500
33.933333	1	0.086000
33.950000	1	0.086750
33.966667	1	0.086625
33.983333	1	0.087125
34.000000	1	0.087375
34.016667	1	0.086750
34.033333	1	0.086500
34.050000	1	0.085375
34.066667	1	0.085000
34.083333	1	0.084250
34.100000	1	0.084000
34.116667	1	0.084125
34.133333	1	0.083875
34.150000	1	0.083750
34.166667	1	0.082875
34.183333	1	0.082500
34.200000	1	0.082375
34.216667	1	0.083125
34.233333	1	0.083250
34.250000	1	0.083250
34.266667	1	0.083625
34.283333	1	0.084000
34.300000	1	0.084250
34.316667	1	0.085250
34.333333	1	0.086250
34.350000	1	0.087000
34.366667	1	0.088125
34.383333	1	0.089250
34.400000	1	0.090625
34.416667	1	0.091625
34.433333	1	0.093375
34.450000	1	0.095500
34.466667	1	0.096750
34.483333	1	0.098125
34.500000	1	0.100375
34.516667	1	0.101500
34.533333	1	0.103875
34.550000	1	0.105000
34.566667	1	0.106375
34.583333	1	0.107250
34.600000	1	0.108500
34.616667	1	0.110625
34.633333	1	0.111500
34.650000	1	0.111250
34.666667	1	0.112250
34.683333	1	0.112750
34.700000	1	0.113250
34.716667	1	0.113500
34.733333	1	0.113500
34.750000	1	0.113625
34.766667	1	0.112750
34.783333	1	0.111875
34.800000	1	0.110375
34.816667	1	0.109000
34.833333	1	0.108000
34.850000	1	0.106250
34.866667	1	0.104375
34.883333	1	0.102000
34.900000	1	0.099000
34.916667	1	0.096875
34.933333	1	0.094250
34.950000	1	0.091500
34.966667	1	0.087875
34.983333	1	0.084375
35.000000	1	0.081000
35.016667	1	0.078125
35.033333	1	0.075000
35.050000	1	0.071750
35.066667	1	0.068500
35.083333	1	0.065875
35.100000	1	0.063875
35.116667	1	0.061375
35.133333	1	0.059000
35.150000	1	0.056875
35.166667	1	0.055125
35.183333	1	0.053375
35.200000	1	0.051750
35.216667	1	0.050375
35.233333	1	0.049500
35.250000	1	0.048375
35.266667	1	0.048125
35.283333	1	0.048125
35.300000	1	0.048000
35.316667	1	0.048125
35.333333	1	0.048625
35.350000	1	0.048625
35.366667	1	0.049375
35.383333	1	0.050750
35.400000	1	0.051750
35.416667	1	0.053375
35.433333	1	0.055250
35.450000	1	0.056875
35.466667	1	0.058625
35.483333	1	0.061500
35.500000	1	0.063875
35.516667	1	0.067250
35.533333	1	0.070750
35.550000	1	0.074250
35.566667	1	0.077000
35.583333	1	0.079375
35.600000	1	0.082250
35.616667	1	0.084875
35.633333	1	0.088125
35.650000	1	0.090875
35.666667	1	0.093750
35.683333	1	0.097250
35.700000	1	0.099625
35.716667	1	0.102250
35.733333	1	0.104875
35.750000	1	0.106375
35.766667	1	0.108250
35.783333	1	0.109875
35.800000	1	0.110250
35.816667	1	0.111500
35.833333	1	0.112625
35.850000	1	0.113000
35.866667	1	0.112750
35.883333	1	0.112125
35.900000	1	0.112125
35.916667	1	0.111625
35.933333	1	0.111125
35.950000	1	0.110375
35.966667	1	0.108875
35.983333	1	0.107375
36.000000	1	0.107125
36.016667	1	0.105875
36.033333	1	0.105000
36.050000	1	0.103375
36.066667	1	0.101750
36.083333	1	0.100000
36.100000	1	0.099125
36.116667	1	0.097500
36.133333	1	0.096125
36.150000	1	0.094250
36.166667	1	0.093250
36.183333	1	0.091875
36.200000	1	0.090875
36.216667	1	0.090000
36.233333	1	0.089000
36.250000	1	0.087625
36.266667	1	0.086500
36.283333	1	0.085750
36.300000	1	0.085000
36.316667	1	0.084250
36.333333	1	0.084375
36.350000	1	0.084000
36.366667	1	0.083750
36.383333	1	0.083375
36.400000	1	0.082875
36.416667	1	0.082125
36.433333	1	0.081875
36.450000	1	0.081875
36.466667	1	0.082000
36.483333	1	0.082250
36.500000	1	0.083250
36.516667	1	0.083375
36.533333	1	0.083375
36.550000	1	0.084250
36.566667	1	0.084750
36.583333	1	0.084875
36.600000	1	0.084750
36.616667	1	0.085125
36.633333	1	0.085000
36.650000	1	0.085250
36.666667	1	0.085500
36.683333	1	0.085375
36.700000	1	0.084875
36.716667	1	0.084125
36.733333	1	0.084000
36.750000	1	0.083750
36.766667	1	0.083750
36.783333	1	0.083500
36.800000	1	0.083375
36.816667	1	0.082250
36.833333	1	0.081250
36.850000	1	0.080625
36.866667	1	0.079625
36.883333	1	0.078875
36.900000	1	0.078500
36.916667	1	0.077750
36.933333	1	0.076875
36.950000	1	0.075750
36.966667	1	0.074500
36.983333	1	0.074125
37.000000	1	0.073125
37.016667	1	0.072625
37.033333	1	0.071375
37.050000	1	0.070500
37.066667	1	0.069500
37.083333	1	0.068750
37.100000	1	0.067875
37.116667	1	0.067000
37.133333	1	0.066500
37.150000	1	0.065875
37.166667	1	0.064250
37.183333	1	0.063125
37.200000	1	0.062125
37.216667	1	0.061500
37.233333	1	0.060875
37.250000	1	0.059750
37.266667	1	0.058625
37.283333	1	0.057875
37.300000	1	0.056500
37.316667	1	0.054875
37.333333	1	0.054250
37.350000	1	0.053500
37.366667	1	0.052750
37.383333	1	0.051500
37.400000	1	0.050625
37.416667	1	0.048875
37.433333	1	0.048000
37.450000	1	0.046375
37.466667	1	0.045500
37.483333	1	0.044125
37.500000	1	0.042625
37.516667	1	0.040750
37.533333	1	0.039750
37.550000	1	0.038875
37.566667	1	0.037500
37.583333	1	0.036500
37.600000	1	0.035500
37.616667	1	0.034875
37.633333	1	0.034375
37.650000	1	0.033750
37.666667	1	0.032750
37.683333	1	0.032125
37.700000	1	0.031625
37.716667	1	0.031125
37.733333	1	0.030750
37.750000	1	0.030250
37.766667	1	0.029750
37.783333	1	0.030000
37.800000	1	0.029750
37.816667	1	0.030125
37.833333	1	0.030125
37.850000	1	0.029875
37.866667	1	0.030125
37.883333	1	0.029875
37.900000	1	0.029625
37.916667	1	0.030000
37.933333	1	0.029625
37.950000	1	0.028750
37.966667	1	0.028000
37.983333	1	0.027750
38.000000	1	0.026625
38.016667	1	0.025500
38.033333	1	0.024500
38.050000	1	0.023500
38.066667	1	0.022500
38.083333	1	0.021750
38.100000	1	0.021000
38.116667	1	0.019125
38.133333	1	0.017375
38.150000	1	0.015500
38.166667	1	0.013875
38.183333	1	0.012375
38.200000	1	0.010875
38.216667	1	0.008625
38.233333	1	0.007000
38.250000	1	0.006000
38.266667	1	0.003750
38.283333	1	0.002625
38.300000	1	0.000500
38.316667	1	-0.000375
38.333333	1	-0.002250
38.350000	1	-0.004125
38.366667	1	-0.006250
38.383333	1	-0.007875
38.400000	1	-0.009375
38.416667	1	-0.010750
38.433333	1	-0.012500
38.450000	1	-0.014250
38.466667	1	-0.015500
38.483333	1	-0.016375
38.500000	1	-0.017750
38.516667	1	-0.018750
38.533333	1	-0.019625
38.550000	1	-0.020500
38.566667	1	-0.021500
38.583333	1	-0.022750
38.600000	1	-0.023500
38.616667	1	-0.024125
38.633333	1	-0.024875
38.650000	1	-0.024750
38.666667	1	-0.024375
38.683333	1	-0.024125
38.700000	1	-0.023625
38.716667	1	-0.023750
38.733333	1	-0.023250
38.750000	1	-0.022875
38.766667	1	-0.022500
38.783333	1	-0.021750
38.800000	1	-0.020375
38.816667	1	-0.018625
38.833333	1	-0.017500
38.850000	1	-0.016000
38.866667	1	-0.014500
38.883333	1	-0.013250
38.900000	1	-0.011750
38.916667	1	-0.010000
38.933333	1	-0.008750
38.950000	1	-0.007500
38.966667	1	-0.005375
38.983333	1	-0.003875
39.000000	1	-0.002125
39.016667	1	-0.000875
39.033333	1	0.000750
39.050000	1	0.002250
39.066667	1	0.003625
39.083333	1	0.004875
39.100000	1	0.006250
39.116667	1	0.007625
39.133333	1	0.008500
39.150000	1	0.009375
39.166667	1	0.010375
39.183333	1	0.011125
39.200000	1	0.012125
39.216667	1	0.013375
39.233333	1	0.014375
39.250000	1	0.015250
39.266667	1	0.016500
39.283333	1	0.017125
39.300000	1	0.017625
39.316667	1	0.017875
39.333333	1	0.018125
39.350000	1	0.017250
39.366667	1	0.017000
39.383333	1	0.017250
39.400000	1	0.017000
39.416667	1	0.016500
39.433333	1	0.016125
39.450000	1	0.015000
39.466667	1	0.014500
39.483333	1	0.013500
39.500000	1	0.012750
39.516667	1	0.011125
39.533333	1	0.009250
39.550000	1	0.007875
39.566667	1	0.006375
39.583333	1	0.004500
39.600000	1	0.003000
39.616667	1	0.000750
39.633333	1	-0.001125
39.650000	1	-0.002750
39.666667	1	-0.004250
39.683333	1	-0.006875
39.700000	1	-0.009000
39.716667	1	-0.010500
39.733333	1	-0.012500
39.750000	1	-0.014750
39.766667	1	-0.016625
39.783333	1	-0.018875
39.800000	1	-0.020875
39.816667	1	-0.022125
39.833333	1	-0.023875
39.850000	1	-0.025500
39.866667	1	-0.027000
39.883333	1	-0.028875
39.900000	1	-0.030125
39.916667	1	-0.031375
39.933333	1	-0.032750
39.950000	1	-0.034250
39.966667	1	-0.035375
39.983333	1	-0.036125
40.000000	1	-0.038125
