URL	chrom://bioreactor/micro_cm7/HPLC_Ultimate_3000/Users/markusar/20240517_CMO_FP23_FP25_MarkusDeplate.seq/958.smp/RI_1.channel/RI_1.chm
Channel	RI_1

Injection Information:
Data Vault	micro_cm7
Sequence	20240517_CMO_FP23_FP25_MarkusDeplate
Name	FP28_22.1_s2
Number	142
Position	BA8
Comment	
Processing Method	
Instrument Method	run_25B_method
Type	Unknown
Status	Finished
Inject Time	31.05.2024 20:05:32 +02:00
Volume (µl)	20.0000
Dilution Factor	1.0000
Weight	1.0000

Chromatogram Data Information:
Time Min. (min)	0.000000
Time Max. (min)	40.000000
Data Points	2401
Detector	RI
Generating Data System	Chromeleon 7.3.2.11814
Exporting Data System	Chromeleon 7.3.2.0
Operator	Instrument Controller
Signal Quantity	Refractive 
Signal Unit	µRIU
Signal Min.	-1.106375
Signal Max.	49.361250
Channel	RI_1
Driver Name	RID520Driver.dll
Channel Type	Evaluation
Min. Step (s)	1
Max. Step (s)	1
Average Step (s)	1

Signal Parameter Information:
Signal Info	

Chromatogram Data:
Time (min)	Step (s)	Value (µRIU)
0.000000	n.a.	0.026750
0.016667	1	0.025250
0.033333	1	0.024375
0.050000	1	0.023625
0.066667	1	0.022750
0.083333	1	0.021750
0.100000	1	0.021500
0.116667	1	0.020875
0.133333	1	0.020125
0.150000	1	0.020000
0.166667	1	0.019500
0.183333	1	0.018625
0.200000	1	0.017875
0.216667	1	0.017875
0.233333	1	0.017125
0.250000	1	0.016500
0.266667	1	0.017000
0.283333	1	0.016750
0.300000	1	0.017000
0.316667	1	0.017000
0.333333	1	0.017875
0.350000	1	0.017375
0.366667	1	0.017000
0.383333	1	0.017125
0.400000	1	0.017250
0.416667	1	0.017125
0.433333	1	0.017250
0.450000	1	0.018250
0.466667	1	0.019500
0.483333	1	0.020500
0.500000	1	0.021750
0.516667	1	0.022250
0.533333	1	0.022625
0.550000	1	0.022750
0.566667	1	0.023125
0.583333	1	0.024125
0.600000	1	0.024125
0.616667	1	0.024625
0.633333	1	0.025000
0.650000	1	0.025750
0.666667	1	0.026500
0.683333	1	0.027250
0.700000	1	0.027750
0.716667	1	0.028000
0.733333	1	0.029250
0.750000	1	0.030125
0.766667	1	0.030875
0.783333	1	0.032000
0.800000	1	0.032500
0.816667	1	0.033375
0.833333	1	0.034125
0.850000	1	0.034875
0.866667	1	0.035875
0.883333	1	0.036875
0.900000	1	0.038000
0.916667	1	0.039125
0.933333	1	0.039875
0.950000	1	0.040125
0.966667	1	0.040500
0.983333	1	0.040625
1.000000	1	0.041250
1.016667	1	0.041375
1.033333	1	0.042000
1.050000	1	0.043000
1.066667	1	0.043250
1.083333	1	0.043125
1.100000	1	0.043250
1.116667	1	0.043125
1.133333	1	0.042750
1.150000	1	0.042500
1.166667	1	0.042375
1.183333	1	0.041250
1.200000	1	0.040750
1.216667	1	0.040250
1.233333	1	0.039875
1.250000	1	0.038500
1.266667	1	0.038250
1.283333	1	0.037750
1.300000	1	0.036875
1.316667	1	0.036750
1.333333	1	0.036125
1.350000	1	0.035625
1.366667	1	0.035250
1.383333	1	0.035125
1.400000	1	0.034875
1.416667	1	0.034625
1.433333	1	0.034375
1.450000	1	0.034500
1.466667	1	0.034375
1.483333	1	0.034000
1.500000	1	0.033000
1.516667	1	0.033250
1.533333	1	0.033125
1.550000	1	0.032875
1.566667	1	0.031875
1.583333	1	0.031625
1.600000	1	0.031750
1.616667	1	0.031125
1.633333	1	0.030500
1.650000	1	0.030250
1.666667	1	0.030000
1.683333	1	0.029125
1.700000	1	0.027875
1.716667	1	0.026750
1.733333	1	0.025750
1.750000	1	0.024250
1.766667	1	0.022875
1.783333	1	0.022000
1.800000	1	0.021125
1.816667	1	0.019625
1.833333	1	0.018250
1.850000	1	0.016500
1.866667	1	0.015000
1.883333	1	0.013625
1.900000	1	0.012000
1.916667	1	0.010875
1.933333	1	0.008875
1.950000	1	0.007250
1.966667	1	0.006250
1.983333	1	0.005250
2.000000	1	0.004125
2.016667	1	0.004125
2.033333	1	0.003250
2.050000	1	0.004250
2.066667	1	0.004125
2.083333	1	0.004500
2.100000	1	0.004875
2.116667	1	0.005625
2.133333	1	0.007375
2.150000	1	0.008500
2.166667	1	0.010875
2.183333	1	0.012750
2.200000	1	0.014250
2.216667	1	0.016500
2.233333	1	0.019375
2.250000	1	0.022250
2.266667	1	0.025375
2.283333	1	0.028625
2.300000	1	0.031500
2.316667	1	0.034750
2.333333	1	0.038625
2.350000	1	0.042625
2.366667	1	0.045875
2.383333	1	0.049000
2.400000	1	0.052625
2.416667	1	0.056000
2.433333	1	0.059625
2.450000	1	0.062375
2.466667	1	0.065375
2.483333	1	0.068000
2.500000	1	0.070500
2.516667	1	0.071875
2.533333	1	0.073625
2.550000	1	0.074875
2.566667	1	0.076750
2.583333	1	0.078000
2.600000	1	0.077750
2.616667	1	0.078250
2.633333	1	0.079375
2.650000	1	0.079250
2.666667	1	0.079250
2.683333	1	0.078750
2.700000	1	0.078000
2.716667	1	0.077500
2.733333	1	0.076500
2.750000	1	0.075750
2.766667	1	0.074750
2.783333	1	0.073750
2.800000	1	0.073000
2.816667	1	0.071625
2.833333	1	0.070500
2.850000	1	0.069000
2.866667	1	0.067375
2.883333	1	0.065875
2.900000	1	0.064250
2.916667	1	0.062625
2.933333	1	0.060875
2.950000	1	0.060000
2.966667	1	0.058625
2.983333	1	0.057375
3.000000	1	0.056750
3.016667	1	0.055750
3.033333	1	0.055250
3.050000	1	0.055375
3.066667	1	0.054875
3.083333	1	0.055000
3.100000	1	0.056000
3.116667	1	0.055875
3.133333	1	0.055625
3.150000	1	0.056250
3.166667	1	0.057375
3.183333	1	0.058500
3.200000	1	0.060625
3.216667	1	0.062875
3.233333	1	0.065000
3.250000	1	0.067000
3.266667	1	0.069875
3.283333	1	0.072750
3.300000	1	0.075375
3.316667	1	0.078875
3.333333	1	0.081750
3.350000	1	0.084875
3.366667	1	0.088375
3.383333	1	0.092375
3.400000	1	0.095500
3.416667	1	0.099625
3.433333	1	0.103000
3.450000	1	0.107125
3.466667	1	0.110250
3.483333	1	0.114000
3.500000	1	0.117875
3.516667	1	0.122000
3.533333	1	0.126500
3.550000	1	0.129750
3.566667	1	0.132750
3.583333	1	0.135750
3.600000	1	0.138750
3.616667	1	0.141500
3.633333	1	0.144250
3.650000	1	0.146875
3.666667	1	0.149500
3.683333	1	0.151375
3.700000	1	0.152625
3.716667	1	0.153875
3.733333	1	0.154625
3.750000	1	0.155125
3.766667	1	0.155000
3.783333	1	0.154000
3.800000	1	0.153625
3.816667	1	0.152000
3.833333	1	0.150625
3.850000	1	0.148250
3.866667	1	0.146125
3.883333	1	0.143750
3.900000	1	0.141875
3.916667	1	0.139125
3.933333	1	0.136000
3.950000	1	0.132250
3.966667	1	0.128625
3.983333	1	0.124625
4.000000	1	0.120375
4.016667	1	0.116750
4.033333	1	0.113500
4.050000	1	0.109375
4.066667	1	0.104875
4.083333	1	0.101250
4.100000	1	0.097750
4.116667	1	0.093625
4.133333	1	0.090125
4.150000	1	0.086750
4.166667	1	0.083750
4.183333	1	0.080375
4.200000	1	0.078000
4.216667	1	0.075750
4.233333	1	0.072625
4.250000	1	0.070875
4.266667	1	0.069000
4.283333	1	0.068125
4.300000	1	0.067250
4.316667	1	0.065500
4.333333	1	0.064500
4.350000	1	0.063750
4.366667	1	0.063875
4.383333	1	0.063125
4.400000	1	0.063250
4.416667	1	0.063875
4.433333	1	0.064500
4.450000	1	0.064750
4.466667	1	0.064875
4.483333	1	0.065375
4.500000	1	0.065625
4.516667	1	0.066250
4.533333	1	0.067500
4.550000	1	0.068375
4.566667	1	0.070250
4.583333	1	0.071375
4.600000	1	0.072750
4.616667	1	0.073750
4.633333	1	0.075500
4.650000	1	0.076750
4.666667	1	0.078625
4.683333	1	0.080375
4.700000	1	0.082625
4.716667	1	0.085000
4.733333	1	0.086375
4.750000	1	0.088500
4.766667	1	0.090875
4.783333	1	0.093500
4.800000	1	0.096625
4.816667	1	0.099625
4.833333	1	0.102750
4.850000	1	0.106125
4.866667	1	0.109375
4.883333	1	0.113875
4.900000	1	0.117750
4.916667	1	0.121125
4.933333	1	0.125375
4.950000	1	0.130375
4.966667	1	0.134875
4.983333	1	0.140000
5.000000	1	0.145125
5.016667	1	0.150750
5.033333	1	0.156625
5.050000	1	0.162250
5.066667	1	0.167375
5.083333	1	0.172750
5.100000	1	0.178625
5.116667	1	0.183500
5.133333	1	0.188750
5.150000	1	0.194500
5.166667	1	0.199750
5.183333	1	0.205000
5.200000	1	0.210625
5.216667	1	0.215750
5.233333	1	0.220750
5.250000	1	0.225375
5.266667	1	0.230000
5.283333	1	0.234250
5.300000	1	0.239250
5.316667	1	0.243500
5.333333	1	0.246750
5.350000	1	0.250000
5.366667	1	0.254500
5.383333	1	0.257750
5.400000	1	0.261500
5.416667	1	0.265000
5.433333	1	0.268375
5.450000	1	0.271000
5.466667	1	0.273875
5.483333	1	0.277500
5.500000	1	0.280875
5.516667	1	0.283875
5.533333	1	0.286750
5.550000	1	0.290000
5.566667	1	0.293125
5.583333	1	0.296625
5.600000	1	0.299500
5.616667	1	0.303000
5.633333	1	0.306125
5.650000	1	0.309625
5.666667	1	0.311500
5.683333	1	0.314000
5.700000	1	0.316500
5.716667	1	0.319000
5.733333	1	0.321375
5.750000	1	0.323375
5.766667	1	0.325000
5.783333	1	0.326000
5.800000	1	0.327500
5.816667	1	0.327875
5.833333	1	0.327750
5.850000	1	0.328500
5.866667	1	0.328000
5.883333	1	0.326750
5.900000	1	0.325500
5.916667	1	0.324750
5.933333	1	0.323500
5.950000	1	0.321250
5.966667	1	0.319000
5.983333	1	0.316625
6.000000	1	0.313750
6.016667	1	0.311125
6.033333	1	0.308125
6.050000	1	0.304375
6.066667	1	0.300750
6.083333	1	0.297125
6.100000	1	0.292750
6.116667	1	0.288125
6.133333	1	0.284250
6.150000	1	0.280000
6.166667	1	0.276000
6.183333	1	0.271375
6.200000	1	0.267125
6.216667	1	0.263250
6.233333	1	0.259000
6.250000	1	0.255250
6.266667	1	0.250500
6.283333	1	0.246125
6.300000	1	0.242000
6.316667	1	0.238000
6.333333	1	0.233750
6.350000	1	0.230375
6.366667	1	0.226750
6.383333	1	0.223500
6.400000	1	0.219000
6.416667	1	0.216000
6.433333	1	0.211875
6.450000	1	0.208375
6.466667	1	0.203750
6.483333	1	0.199375
6.500000	1	0.195625
6.516667	1	0.192250
6.533333	1	0.188750
6.550000	1	0.185375
6.566667	1	0.181750
6.583333	1	0.177750
6.600000	1	0.175125
6.616667	1	0.171500
6.633333	1	0.168375
6.650000	1	0.165125
6.666667	1	0.162500
6.683333	1	0.159375
6.700000	1	0.156250
6.716667	1	0.154250
6.733333	1	0.152625
6.750000	1	0.150750
6.766667	1	0.149125
6.783333	1	0.147125
6.800000	1	0.145750
6.816667	1	0.144000
6.833333	1	0.142625
6.850000	1	0.142000
6.866667	1	0.141125
6.883333	1	0.140500
6.900000	1	0.138750
6.916667	1	0.138125
6.933333	1	0.138000
6.950000	1	0.137500
6.966667	1	0.136375
6.983333	1	0.135625
7.000000	1	0.135375
7.016667	1	0.134750
7.033333	1	0.134125
7.050000	1	0.133875
7.066667	1	0.133250
7.083333	1	0.132500
7.100000	1	0.131250
7.116667	1	0.130625
7.133333	1	0.130125
7.150000	1	0.129375
7.166667	1	0.128375
7.183333	1	0.128000
7.200000	1	0.127750
7.216667	1	0.127375
7.233333	1	0.127500
7.250000	1	0.127875
7.266667	1	0.127750
7.283333	1	0.127625
7.300000	1	0.128625
7.316667	1	0.129500
7.333333	1	0.130125
7.350000	1	0.130875
7.366667	1	0.131375
7.383333	1	0.133125
7.400000	1	0.135000
7.416667	1	0.136875
7.433333	1	0.139125
7.450000	1	0.141500
7.466667	1	0.143750
7.483333	1	0.145625
7.500000	1	0.147875
7.516667	1	0.150375
7.533333	1	0.153000
7.550000	1	0.155750
7.566667	1	0.158625
7.583333	1	0.161125
7.600000	1	0.163500
7.616667	1	0.166000
7.633333	1	0.168875
7.650000	1	0.171000
7.666667	1	0.172875
7.683333	1	0.174625
7.700000	1	0.176500
7.716667	1	0.177875
7.733333	1	0.179000
7.750000	1	0.180250
7.766667	1	0.180875
7.783333	1	0.181750
7.800000	1	0.182250
7.816667	1	0.182000
7.833333	1	0.181750
7.850000	1	0.181125
7.866667	1	0.180375
7.883333	1	0.179625
7.900000	1	0.178375
7.916667	1	0.177125
7.933333	1	0.175375
7.950000	1	0.173875
7.966667	1	0.172250
7.983333	1	0.170500
8.000000	1	0.168375
8.016667	1	0.165375
8.033333	1	0.162375
8.050000	1	0.159125
8.066667	1	0.156375
8.083333	1	0.153000
8.100000	1	0.150500
8.116667	1	0.147500
8.133333	1	0.144750
8.150000	1	0.142125
8.166667	1	0.139625
8.183333	1	0.137500
8.200000	1	0.134375
8.216667	1	0.131875
8.233333	1	0.128875
8.250000	1	0.126000
8.266667	1	0.123500
8.283333	1	0.120875
8.300000	1	0.118500
8.316667	1	0.116125
8.333333	1	0.114375
8.350000	1	0.112125
8.366667	1	0.110500
8.383333	1	0.108125
8.400000	1	0.106375
8.416667	1	0.104625
8.433333	1	0.102750
8.450000	1	0.102000
8.466667	1	0.100625
8.483333	1	0.099500
8.500000	1	0.098750
8.516667	1	0.097625
8.533333	1	0.096750
8.550000	1	0.096500
8.566667	1	0.096125
8.583333	1	0.096000
8.600000	1	0.095375
8.616667	1	0.094750
8.633333	1	0.093875
8.650000	1	0.093625
8.666667	1	0.093875
8.683333	1	0.093750
8.700000	1	0.094250
8.716667	1	0.094875
8.733333	1	0.094625
8.750000	1	0.095000
8.766667	1	0.096000
8.783333	1	0.096500
8.800000	1	0.096750
8.816667	1	0.097750
8.833333	1	0.098500
8.850000	1	0.099875
8.866667	1	0.100500
8.883333	1	0.101125
8.900000	1	0.103250
8.916667	1	0.104125
8.933333	1	0.106125
8.950000	1	0.107375
8.966667	1	0.108250
8.983333	1	0.109875
9.000000	1	0.111500
9.016667	1	0.112875
9.033333	1	0.113875
9.050000	1	0.115625
9.066667	1	0.117125
9.083333	1	0.118625
9.100000	1	0.119750
9.116667	1	0.122000
9.133333	1	0.123625
9.150000	1	0.124875
9.166667	1	0.126750
9.183333	1	0.128250
9.200000	1	0.129000
9.216667	1	0.130375
9.233333	1	0.131750
9.250000	1	0.133125
9.266667	1	0.134375
9.283333	1	0.135625
9.300000	1	0.137000
9.316667	1	0.138125
9.333333	1	0.139000
9.350000	1	0.140250
9.366667	1	0.140875
9.383333	1	0.141125
9.400000	1	0.141000
9.416667	1	0.141375
9.433333	1	0.140750
9.450000	1	0.140625
9.466667	1	0.140375
9.483333	1	0.140000
9.500000	1	0.140125
9.516667	1	0.140000
9.533333	1	0.138875
9.550000	1	0.138250
9.566667	1	0.137375
9.583333	1	0.135875
9.600000	1	0.134750
9.616667	1	0.132750
9.633333	1	0.131625
9.650000	1	0.129500
9.666667	1	0.127750
9.683333	1	0.126375
9.700000	1	0.125375
9.716667	1	0.123375
9.733333	1	0.122000
9.750000	1	0.120500
9.766667	1	0.119250
9.783333	1	0.117875
9.800000	1	0.116000
9.816667	1	0.114000
9.833333	1	0.112875
9.850000	1	0.112125
9.866667	1	0.111250
9.883333	1	0.110875
9.900000	1	0.109750
9.916667	1	0.109250
9.933333	1	0.108875
9.950000	1	0.109625
9.966667	1	0.109875
9.983333	1	0.110875
10.000000	1	0.112875
10.016667	1	0.114375
10.033333	1	0.116750
10.050000	1	0.119625
10.066667	1	0.123375
10.083333	1	0.128375
10.100000	1	0.132750
10.116667	1	0.138500
10.133333	1	0.144875
10.150000	1	0.152250
10.166667	1	0.160625
10.183333	1	0.170250
10.200000	1	0.180125
10.216667	1	0.191875
10.233333	1	0.205500
10.250000	1	0.221000
10.266667	1	0.239375
10.283333	1	0.259500
10.300000	1	0.281500
10.316667	1	0.306875
10.333333	1	0.333500
10.350000	1	0.360250
10.366667	1	0.388000
10.383333	1	0.413125
10.400000	1	0.433625
10.416667	1	0.449250
10.433333	1	0.459625
10.450000	1	0.467500
10.466667	1	0.479250
10.483333	1	0.507375
10.500000	1	0.572125
10.516667	1	0.705750
10.533333	1	0.951000
10.550000	1	1.361875
10.566667	1	2.000875
10.583333	1	2.931750
10.600000	1	4.214125
10.616667	1	5.897000
10.633333	1	8.013875
10.650000	1	10.578750
10.666667	1	13.590750
10.683333	1	17.030000
10.700000	1	20.858000
10.716667	1	25.011000
10.733333	1	29.391750
10.750000	1	33.866625
10.766667	1	38.247875
10.783333	1	42.294000
10.800000	1	45.708250
10.816667	1	48.164875
10.833333	1	49.361250
10.850000	1	49.097250
10.866667	1	47.338375
10.883333	1	44.247875
10.900000	1	40.160875
10.916667	1	35.503375
10.933333	1	30.696875
10.950000	1	26.075500
10.966667	1	21.863000
10.983333	1	18.168250
11.000000	1	15.022375
11.016667	1	12.404750
11.033333	1	10.266125
11.050000	1	8.544375
11.066667	1	7.171625
11.083333	1	6.084875
11.100000	1	5.227250
11.116667	1	4.549375
11.133333	1	4.010375
11.150000	1	3.578125
11.166667	1	3.227625
11.183333	1	2.940500
11.200000	1	2.702500
11.216667	1	2.502625
11.233333	1	2.332750
11.250000	1	2.188000
11.266667	1	2.061375
11.283333	1	1.951250
11.300000	1	1.854375
11.316667	1	1.768375
11.333333	1	1.692000
11.350000	1	1.625000
11.366667	1	1.565000
11.383333	1	1.511750
11.400000	1	1.464750
11.416667	1	1.423125
11.433333	1	1.386750
11.450000	1	1.354625
11.466667	1	1.325375
11.483333	1	1.299625
11.500000	1	1.276375
11.516667	1	1.255625
11.533333	1	1.237375
11.550000	1	1.220750
11.566667	1	1.206250
11.583333	1	1.193000
11.600000	1	1.181750
11.616667	1	1.171750
11.633333	1	1.163625
11.650000	1	1.156375
11.666667	1	1.150750
11.683333	1	1.146125
11.700000	1	1.142750
11.716667	1	1.140625
11.733333	1	1.140125
11.750000	1	1.140375
11.766667	1	1.141875
11.783333	1	1.144375
11.800000	1	1.147375
11.816667	1	1.150625
11.833333	1	1.154000
11.850000	1	1.157500
11.866667	1	1.161250
11.883333	1	1.165000
11.900000	1	1.168250
11.916667	1	1.171875
11.933333	1	1.174750
11.950000	1	1.177625
11.966667	1	1.180000
11.983333	1	1.182500
12.000000	1	1.186000
12.016667	1	1.189375
12.033333	1	1.192625
12.050000	1	1.196375
12.066667	1	1.199875
12.083333	1	1.204625
12.100000	1	1.209500
12.116667	1	1.215375
12.133333	1	1.221625
12.150000	1	1.227500
12.166667	1	1.234250
12.183333	1	1.241750
12.200000	1	1.250000
12.216667	1	1.260125
12.233333	1	1.272250
12.250000	1	1.286750
12.266667	1	1.303875
12.283333	1	1.323500
12.300000	1	1.348625
12.316667	1	1.378875
12.333333	1	1.415000
12.350000	1	1.459250
12.366667	1	1.513375
12.383333	1	1.579625
12.400000	1	1.661875
12.416667	1	1.762500
12.433333	1	1.887250
12.450000	1	2.039750
12.466667	1	2.225250
12.483333	1	2.448625
12.500000	1	2.713875
12.516667	1	3.023500
12.533333	1	3.376875
12.550000	1	3.769500
12.566667	1	4.194750
12.583333	1	4.643250
12.600000	1	5.099875
12.616667	1	5.549000
12.633333	1	5.972750
12.650000	1	6.353125
12.666667	1	6.674625
12.683333	1	6.924000
12.700000	1	7.090875
12.716667	1	7.173000
12.733333	1	7.170875
12.750000	1	7.090625
12.766667	1	6.942250
12.783333	1	6.738500
12.800000	1	6.490875
12.816667	1	6.212750
12.833333	1	5.915375
12.850000	1	5.608500
12.866667	1	5.300125
12.883333	1	4.998000
12.900000	1	4.707250
12.916667	1	4.432375
12.933333	1	4.176875
12.950000	1	3.942125
12.966667	1	3.729875
12.983333	1	3.539000
13.000000	1	3.370000
13.016667	1	3.221000
13.033333	1	3.089625
13.050000	1	2.973750
13.066667	1	2.871875
13.083333	1	2.781875
13.100000	1	2.701750
13.116667	1	2.630625
13.133333	1	2.566375
13.150000	1	2.508500
13.166667	1	2.455875
13.183333	1	2.407000
13.200000	1	2.361875
13.216667	1	2.319125
13.233333	1	2.278250
13.250000	1	2.240250
13.266667	1	2.203125
13.283333	1	2.167750
13.300000	1	2.133250
13.316667	1	2.100500
13.333333	1	2.069125
13.350000	1	2.039375
13.366667	1	2.011375
13.383333	1	1.985500
13.400000	1	1.962000
13.416667	1	1.941000
13.433333	1	1.922250
13.450000	1	1.906125
13.466667	1	1.892750
13.483333	1	1.882500
13.500000	1	1.874125
13.516667	1	1.868500
13.533333	1	1.865375
13.550000	1	1.863375
13.566667	1	1.861625
13.583333	1	1.860250
13.600000	1	1.858625
13.616667	1	1.855750
13.633333	1	1.851750
13.650000	1	1.844250
13.666667	1	1.834125
13.683333	1	1.821750
13.700000	1	1.806500
13.716667	1	1.787875
13.733333	1	1.769250
13.750000	1	1.747375
13.766667	1	1.725625
13.783333	1	1.703625
13.800000	1	1.682000
13.816667	1	1.661125
13.833333	1	1.640375
13.850000	1	1.619500
13.866667	1	1.601125
13.883333	1	1.583125
13.900000	1	1.566875
13.916667	1	1.551000
13.933333	1	1.535875
13.950000	1	1.522375
13.966667	1	1.508750
13.983333	1	1.496625
14.000000	1	1.485625
14.016667	1	1.474500
14.033333	1	1.464500
14.050000	1	1.455250
14.066667	1	1.446625
14.083333	1	1.437750
14.100000	1	1.429375
14.116667	1	1.421750
14.133333	1	1.414500
14.150000	1	1.407750
14.166667	1	1.402375
14.183333	1	1.397750
14.200000	1	1.394750
14.216667	1	1.392375
14.233333	1	1.392125
14.250000	1	1.393625
14.266667	1	1.397125
14.283333	1	1.403625
14.300000	1	1.412750
14.316667	1	1.424500
14.333333	1	1.439750
14.350000	1	1.459625
14.366667	1	1.484000
14.383333	1	1.514625
14.400000	1	1.552250
14.416667	1	1.599375
14.433333	1	1.659125
14.450000	1	1.736625
14.466667	1	1.838750
14.483333	1	1.975375
14.500000	1	2.158500
14.516667	1	2.404750
14.533333	1	2.735250
14.550000	1	3.177125
14.566667	1	3.763625
14.583333	1	4.530125
14.600000	1	5.518500
14.616667	1	6.774750
14.633333	1	8.342125
14.650000	1	10.261625
14.666667	1	12.559875
14.683333	1	15.249625
14.700000	1	18.317875
14.716667	1	21.723375
14.733333	1	25.398125
14.750000	1	29.243375
14.766667	1	33.130125
14.783333	1	36.909000
14.800000	1	40.422625
14.816667	1	43.513875
14.833333	1	46.038000
14.850000	1	47.872250
14.866667	1	48.929750
14.883333	1	49.165500
14.900000	1	48.580875
14.916667	1	47.224625
14.933333	1	45.185125
14.950000	1	42.582625
14.966667	1	39.556250
14.983333	1	36.254625
15.000000	1	32.814750
15.016667	1	29.360875
15.033333	1	25.998125
15.050000	1	22.807750
15.066667	1	19.851500
15.083333	1	17.166125
15.100000	1	14.769750
15.116667	1	12.663250
15.133333	1	10.836500
15.150000	1	9.268750
15.166667	1	7.937625
15.183333	1	6.815000
15.200000	1	5.874000
15.216667	1	5.089500
15.233333	1	4.438500
15.250000	1	3.902375
15.266667	1	3.462375
15.283333	1	3.106250
15.300000	1	2.818875
15.316667	1	2.591375
15.333333	1	2.413000
15.350000	1	2.275875
15.366667	1	2.173750
15.383333	1	2.100000
15.400000	1	2.049250
15.416667	1	2.016375
15.433333	1	1.995750
15.450000	1	1.984375
15.466667	1	1.978000
15.483333	1	1.972875
15.500000	1	1.965250
15.516667	1	1.953375
15.533333	1	1.936750
15.550000	1	1.914625
15.566667	1	1.886625
15.583333	1	1.853500
15.600000	1	1.815625
15.616667	1	1.774875
15.633333	1	1.732625
15.650000	1	1.688625
15.666667	1	1.646125
15.683333	1	1.604875
15.700000	1	1.565875
15.716667	1	1.528750
15.733333	1	1.494500
15.750000	1	1.462625
15.766667	1	1.432875
15.783333	1	1.406125
15.800000	1	1.380500
15.816667	1	1.357250
15.833333	1	1.336375
15.850000	1	1.316500
15.866667	1	1.298000
15.883333	1	1.281000
15.900000	1	1.265375
15.916667	1	1.252750
15.933333	1	1.240750
15.950000	1	1.231750
15.966667	1	1.224500
15.983333	1	1.219250
16.000000	1	1.214875
16.016667	1	1.213125
16.033333	1	1.212750
16.050000	1	1.214250
16.066667	1	1.216750
16.083333	1	1.220000
16.100000	1	1.223625
16.116667	1	1.227250
16.133333	1	1.231375
16.150000	1	1.235000
16.166667	1	1.238500
16.183333	1	1.241375
16.200000	1	1.244000
16.216667	1	1.245625
16.233333	1	1.246750
16.250000	1	1.246375
16.266667	1	1.245875
16.283333	1	1.244125
16.300000	1	1.243250
16.316667	1	1.240875
16.333333	1	1.238625
16.350000	1	1.236125
16.366667	1	1.235000
16.383333	1	1.235000
16.400000	1	1.235500
16.416667	1	1.237000
16.433333	1	1.239875
16.450000	1	1.243875
16.466667	1	1.248250
16.483333	1	1.253125
16.500000	1	1.259500
16.516667	1	1.264875
16.533333	1	1.270625
16.550000	1	1.275000
16.566667	1	1.278625
16.583333	1	1.281750
16.600000	1	1.282750
16.616667	1	1.283000
16.633333	1	1.281500
16.650000	1	1.279000
16.666667	1	1.276500
16.683333	1	1.273375
16.700000	1	1.270625
16.716667	1	1.268375
16.733333	1	1.266500
16.750000	1	1.266375
16.766667	1	1.267625
16.783333	1	1.270500
16.800000	1	1.274125
16.816667	1	1.278125
16.833333	1	1.282750
16.850000	1	1.287125
16.866667	1	1.292000
16.883333	1	1.296500
16.900000	1	1.299500
16.916667	1	1.301250
16.933333	1	1.302125
16.950000	1	1.300500
16.966667	1	1.298125
16.983333	1	1.294250
17.000000	1	1.289375
17.016667	1	1.284250
17.033333	1	1.277500
17.050000	1	1.270375
17.066667	1	1.263625
17.083333	1	1.257250
17.100000	1	1.251000
17.116667	1	1.245000
17.133333	1	1.240000
17.150000	1	1.235875
17.166667	1	1.232875
17.183333	1	1.231250
17.200000	1	1.230000
17.216667	1	1.229625
17.233333	1	1.229750
17.250000	1	1.230500
17.266667	1	1.232375
17.283333	1	1.234875
17.300000	1	1.238375
17.316667	1	1.241625
17.333333	1	1.245375
17.350000	1	1.250000
17.366667	1	1.254125
17.383333	1	1.257500
17.400000	1	1.260375
17.416667	1	1.263250
17.433333	1	1.264750
17.450000	1	1.265875
17.466667	1	1.265375
17.483333	1	1.263125
17.500000	1	1.259125
17.516667	1	1.253250
17.533333	1	1.246250
17.550000	1	1.237125
17.566667	1	1.226500
17.583333	1	1.214625
17.600000	1	1.201500
17.616667	1	1.187875
17.633333	1	1.172250
17.650000	1	1.156750
17.666667	1	1.140375
17.683333	1	1.124625
17.700000	1	1.108750
17.716667	1	1.094125
17.733333	1	1.080000
17.750000	1	1.066125
17.766667	1	1.053250
17.783333	1	1.040375
17.800000	1	1.030000
17.816667	1	1.018750
17.833333	1	1.009500
17.850000	1	1.001000
17.866667	1	0.993000
17.883333	1	0.985500
17.900000	1	0.978750
17.916667	1	0.971875
17.933333	1	0.965375
17.950000	1	0.959375
17.966667	1	0.953500
17.983333	1	0.948125
18.000000	1	0.942000
18.016667	1	0.936125
18.033333	1	0.930250
18.050000	1	0.924625
18.066667	1	0.918750
18.083333	1	0.912750
18.100000	1	0.907250
18.116667	1	0.902250
18.133333	1	0.898500
18.150000	1	0.895125
18.166667	1	0.891875
18.183333	1	0.889500
18.200000	1	0.887500
18.216667	1	0.886000
18.233333	1	0.884625
18.250000	1	0.883625
18.266667	1	0.883875
18.283333	1	0.883875
18.300000	1	0.884750
18.316667	1	0.885875
18.333333	1	0.886875
18.350000	1	0.888000
18.366667	1	0.890250
18.383333	1	0.893125
18.400000	1	0.896375
18.416667	1	0.901375
18.433333	1	0.906625
18.450000	1	0.913500
18.466667	1	0.922000
18.483333	1	0.933375
18.500000	1	0.945875
18.516667	1	0.960375
18.533333	1	0.977250
18.550000	1	0.995375
18.566667	1	1.016500
18.583333	1	1.038250
18.600000	1	1.062625
18.616667	1	1.087875
18.633333	1	1.115875
18.650000	1	1.144625
18.666667	1	1.174750
18.683333	1	1.205875
18.700000	1	1.237625
18.716667	1	1.270375
18.733333	1	1.302625
18.750000	1	1.335000
18.766667	1	1.366250
18.783333	1	1.397125
18.800000	1	1.426750
18.816667	1	1.454000
18.833333	1	1.479250
18.850000	1	1.501000
18.866667	1	1.518250
18.883333	1	1.531375
18.900000	1	1.539000
18.916667	1	1.541875
18.933333	1	1.538000
18.950000	1	1.528750
18.966667	1	1.513875
18.983333	1	1.491875
19.000000	1	1.465000
19.016667	1	1.432875
19.033333	1	1.396125
19.050000	1	1.355625
19.066667	1	1.312125
19.083333	1	1.266125
19.100000	1	1.219000
19.116667	1	1.172625
19.133333	1	1.127625
19.150000	1	1.083125
19.166667	1	1.041875
19.183333	1	1.003875
19.200000	1	0.969375
19.216667	1	0.940000
19.233333	1	0.915125
19.250000	1	0.895250
19.266667	1	0.881375
19.283333	1	0.873250
19.300000	1	0.871375
19.316667	1	0.874250
19.333333	1	0.883500
19.350000	1	0.897250
19.366667	1	0.916000
19.383333	1	0.939000
19.400000	1	0.965875
19.416667	1	0.994750
19.433333	1	1.026125
19.450000	1	1.058125
19.466667	1	1.090875
19.483333	1	1.123000
19.500000	1	1.152500
19.516667	1	1.180500
19.533333	1	1.204500
19.550000	1	1.225500
19.566667	1	1.242125
19.583333	1	1.253625
19.600000	1	1.260250
19.616667	1	1.262500
19.633333	1	1.259750
19.650000	1	1.252250
19.666667	1	1.241000
19.683333	1	1.225500
19.700000	1	1.207250
19.716667	1	1.185750
19.733333	1	1.162500
19.750000	1	1.136875
19.766667	1	1.109750
19.783333	1	1.081500
19.800000	1	1.052500
19.816667	1	1.023750
19.833333	1	0.995250
19.850000	1	0.967625
19.866667	1	0.941375
19.883333	1	0.916000
19.900000	1	0.893500
19.916667	1	0.873500
19.933333	1	0.855875
19.950000	1	0.840750
19.966667	1	0.828875
19.983333	1	0.820750
20.000000	1	0.817250
20.016667	1	0.817625
20.033333	1	0.822375
20.050000	1	0.832375
20.066667	1	0.847000
20.083333	1	0.866875
20.100000	1	0.891750
20.116667	1	0.921250
20.133333	1	0.955500
20.150000	1	0.993750
20.166667	1	1.034125
20.183333	1	1.077500
20.200000	1	1.120750
20.216667	1	1.164000
20.233333	1	1.204875
20.250000	1	1.242250
20.266667	1	1.274875
20.283333	1	1.301875
20.300000	1	1.321750
20.316667	1	1.334875
20.333333	1	1.340000
20.350000	1	1.336250
20.366667	1	1.323750
20.383333	1	1.304375
20.400000	1	1.278125
20.416667	1	1.244750
20.433333	1	1.207375
20.450000	1	1.166375
20.466667	1	1.124625
20.483333	1	1.083125
20.500000	1	1.043000
20.516667	1	1.005750
20.533333	1	0.973000
20.550000	1	0.945875
20.566667	1	0.925625
20.583333	1	0.912500
20.600000	1	0.907750
20.616667	1	0.912250
20.633333	1	0.926000
20.650000	1	0.949500
20.666667	1	0.982875
20.683333	1	1.024625
20.700000	1	1.075500
20.716667	1	1.134000
20.733333	1	1.199500
20.750000	1	1.269125
20.766667	1	1.341500
20.783333	1	1.414750
20.800000	1	1.487125
20.816667	1	1.555000
20.833333	1	1.616500
20.850000	1	1.670000
20.866667	1	1.713375
20.883333	1	1.745250
20.900000	1	1.764125
20.916667	1	1.769875
20.933333	1	1.762250
20.950000	1	1.741000
20.966667	1	1.708125
20.983333	1	1.664000
21.000000	1	1.610000
21.016667	1	1.548875
21.033333	1	1.481750
21.050000	1	1.411625
21.066667	1	1.339125
21.083333	1	1.267000
21.100000	1	1.196125
21.116667	1	1.127875
21.133333	1	1.063000
21.150000	1	1.002000
21.166667	1	0.946000
21.183333	1	0.894375
21.200000	1	0.847000
21.216667	1	0.805625
21.233333	1	0.769000
21.250000	1	0.736500
21.266667	1	0.708500
21.283333	1	0.684000
21.300000	1	0.663125
21.316667	1	0.644125
21.333333	1	0.627875
21.350000	1	0.615125
21.366667	1	0.603875
21.383333	1	0.593750
21.400000	1	0.585500
21.416667	1	0.578625
21.433333	1	0.573250
21.450000	1	0.568500
21.466667	1	0.565375
21.483333	1	0.562625
21.500000	1	0.561000
21.516667	1	0.560875
21.533333	1	0.561875
21.550000	1	0.564250
21.566667	1	0.567500
21.583333	1	0.573750
21.600000	1	0.580250
21.616667	1	0.589750
21.633333	1	0.601250
21.650000	1	0.615500
21.666667	1	0.631875
21.683333	1	0.650625
21.700000	1	0.673000
21.716667	1	0.698000
21.733333	1	0.725375
21.750000	1	0.755250
21.766667	1	0.787375
21.783333	1	0.822250
21.800000	1	0.858000
21.816667	1	0.895125
21.833333	1	0.932000
21.850000	1	0.968000
21.866667	1	1.004125
21.883333	1	1.037500
21.900000	1	1.068375
21.916667	1	1.096750
21.933333	1	1.121250
21.950000	1	1.140750
21.966667	1	1.155500
21.983333	1	1.165000
22.000000	1	1.170125
22.016667	1	1.169125
22.033333	1	1.163625
22.050000	1	1.153375
22.066667	1	1.139000
22.083333	1	1.120375
22.100000	1	1.098500
22.116667	1	1.074000
22.133333	1	1.047125
22.150000	1	1.018750
22.166667	1	0.989375
22.183333	1	0.959375
22.200000	1	0.929125
22.216667	1	0.898625
22.233333	1	0.868125
22.250000	1	0.838375
22.266667	1	0.808625
22.283333	1	0.780625
22.300000	1	0.753000
22.316667	1	0.727000
22.333333	1	0.702875
22.350000	1	0.680000
22.366667	1	0.658000
22.383333	1	0.638000
22.400000	1	0.619625
22.416667	1	0.602125
22.433333	1	0.586375
22.450000	1	0.572500
22.466667	1	0.559500
22.483333	1	0.548000
22.500000	1	0.537500
22.516667	1	0.528750
22.533333	1	0.521375
22.550000	1	0.514125
22.566667	1	0.507375
22.583333	1	0.501875
22.600000	1	0.496375
22.616667	1	0.491125
22.633333	1	0.485875
22.650000	1	0.480375
22.666667	1	0.475125
22.683333	1	0.469875
22.700000	1	0.464500
22.716667	1	0.458750
22.733333	1	0.452750
22.750000	1	0.446875
22.766667	1	0.440250
22.783333	1	0.433500
22.800000	1	0.426125
22.816667	1	0.418750
22.833333	1	0.411750
22.850000	1	0.404250
22.866667	1	0.397125
22.883333	1	0.391000
22.900000	1	0.385000
22.916667	1	0.379375
22.933333	1	0.373750
22.950000	1	0.369125
22.966667	1	0.365125
22.983333	1	0.361625
23.000000	1	0.358500
23.016667	1	0.356125
23.033333	1	0.354875
23.050000	1	0.353875
23.066667	1	0.353875
23.083333	1	0.355000
23.100000	1	0.356125
23.116667	1	0.357625
23.133333	1	0.360000
23.150000	1	0.363875
23.166667	1	0.368000
23.183333	1	0.372750
23.200000	1	0.378250
23.216667	1	0.383500
23.233333	1	0.390125
23.250000	1	0.397625
23.266667	1	0.406500
23.283333	1	0.417125
23.300000	1	0.429750
23.316667	1	0.444750
23.333333	1	0.463375
23.350000	1	0.484875
23.366667	1	0.511000
23.383333	1	0.541750
23.400000	1	0.579625
23.416667	1	0.624750
23.433333	1	0.678000
23.450000	1	0.741000
23.466667	1	0.815750
23.483333	1	0.902625
23.500000	1	1.004250
23.516667	1	1.120875
23.533333	1	1.254125
23.550000	1	1.404625
23.566667	1	1.572375
23.583333	1	1.757125
23.600000	1	1.959875
23.616667	1	2.178875
23.633333	1	2.413000
23.650000	1	2.659500
23.666667	1	2.915375
23.683333	1	3.178500
23.700000	1	3.444125
23.716667	1	3.707375
23.733333	1	3.963375
23.750000	1	4.206625
23.766667	1	4.432750
23.783333	1	4.636250
23.800000	1	4.812000
23.816667	1	4.956375
23.833333	1	5.066750
23.850000	1	5.141125
23.866667	1	5.178125
23.883333	1	5.176250
23.900000	1	5.136875
23.916667	1	5.062000
23.933333	1	4.953000
23.950000	1	4.813375
23.966667	1	4.647000
23.983333	1	4.460375
24.000000	1	4.255500
24.016667	1	4.037375
24.033333	1	3.811250
24.050000	1	3.580000
24.066667	1	3.348750
24.083333	1	3.120250
24.100000	1	2.896625
24.116667	1	2.681000
24.133333	1	2.474000
24.150000	1	2.278125
24.166667	1	2.095125
24.183333	1	1.924500
24.200000	1	1.766250
24.216667	1	1.619750
24.233333	1	1.486750
24.250000	1	1.365250
24.266667	1	1.255750
24.283333	1	1.157125
24.300000	1	1.068500
24.316667	1	0.988375
24.333333	1	0.917500
24.350000	1	0.854500
24.366667	1	0.799000
24.383333	1	0.750125
24.400000	1	0.707875
24.416667	1	0.671000
24.433333	1	0.639125
24.450000	1	0.612375
24.466667	1	0.589750
24.483333	1	0.571125
24.500000	1	0.555250
24.516667	1	0.541875
24.533333	1	0.530875
24.550000	1	0.522000
24.566667	1	0.514625
24.583333	1	0.509125
24.600000	1	0.503750
24.616667	1	0.499250
24.633333	1	0.495500
24.650000	1	0.491875
24.666667	1	0.489375
24.683333	1	0.486125
24.700000	1	0.483250
24.716667	1	0.480375
24.733333	1	0.476625
24.750000	1	0.473750
24.766667	1	0.470250
24.783333	1	0.467375
24.800000	1	0.464125
24.816667	1	0.460125
24.833333	1	0.457000
24.850000	1	0.454000
24.866667	1	0.451875
24.883333	1	0.449125
24.900000	1	0.446125
24.916667	1	0.443125
24.933333	1	0.440375
24.950000	1	0.438250
24.966667	1	0.435875
24.983333	1	0.434000
25.000000	1	0.431875
25.016667	1	0.429500
25.033333	1	0.427250
25.050000	1	0.425375
25.066667	1	0.423500
25.083333	1	0.422125
25.100000	1	0.420375
25.116667	1	0.418000
25.133333	1	0.415500
25.150000	1	0.413250
25.166667	1	0.409750
25.183333	1	0.407000
25.200000	1	0.404000
25.216667	1	0.401125
25.233333	1	0.398000
25.250000	1	0.395000
25.266667	1	0.391750
25.283333	1	0.387875
25.300000	1	0.383750
25.316667	1	0.380375
25.333333	1	0.377000
25.350000	1	0.373500
25.366667	1	0.370375
25.383333	1	0.366875
25.400000	1	0.363375
25.416667	1	0.359750
25.433333	1	0.357125
25.450000	1	0.354875
25.466667	1	0.352500
25.483333	1	0.350125
25.500000	1	0.348250
25.516667	1	0.346125
25.533333	1	0.343625
25.550000	1	0.341875
25.566667	1	0.341000
25.583333	1	0.339375
25.600000	1	0.337750
25.616667	1	0.336750
25.633333	1	0.335750
25.650000	1	0.335250
25.666667	1	0.333750
25.683333	1	0.332875
25.700000	1	0.331750
25.716667	1	0.331250
25.733333	1	0.330500
25.750000	1	0.330625
25.766667	1	0.330250
25.783333	1	0.329500
25.800000	1	0.328625
25.816667	1	0.328250
25.833333	1	0.327750
25.850000	1	0.327500
25.866667	1	0.327625
25.883333	1	0.327750
25.900000	1	0.328500
25.916667	1	0.329000
25.933333	1	0.329750
25.950000	1	0.330250
25.966667	1	0.331875
25.983333	1	0.333500
26.000000	1	0.334875
26.016667	1	0.336625
26.033333	1	0.338500
26.050000	1	0.341250
26.066667	1	0.344250
26.083333	1	0.346750
26.100000	1	0.350375
26.116667	1	0.353875
26.133333	1	0.358125
26.150000	1	0.362250
26.166667	1	0.366750
26.183333	1	0.370500
26.200000	1	0.375000
26.216667	1	0.378750
26.233333	1	0.383250
26.250000	1	0.387500
26.266667	1	0.391125
26.283333	1	0.394750
26.300000	1	0.397750
26.316667	1	0.400750
26.333333	1	0.403250
26.350000	1	0.406000
26.366667	1	0.407500
26.383333	1	0.408125
26.400000	1	0.408750
26.416667	1	0.408125
26.433333	1	0.406875
26.450000	1	0.405500
26.466667	1	0.402750
26.483333	1	0.400250
26.500000	1	0.397250
26.516667	1	0.394000
26.533333	1	0.390625
26.550000	1	0.385750
26.566667	1	0.381125
26.583333	1	0.375750
26.600000	1	0.370000
26.616667	1	0.364625
26.633333	1	0.359000
26.650000	1	0.353250
26.666667	1	0.347875
26.683333	1	0.342125
26.700000	1	0.336875
26.716667	1	0.331500
26.733333	1	0.326125
26.750000	1	0.321500
26.766667	1	0.317875
26.783333	1	0.313125
26.800000	1	0.309375
26.816667	1	0.305875
26.833333	1	0.302125
26.850000	1	0.299000
26.866667	1	0.296000
26.883333	1	0.294375
26.900000	1	0.292750
26.916667	1	0.291000
26.933333	1	0.289500
26.950000	1	0.289000
26.966667	1	0.288000
26.983333	1	0.288250
27.000000	1	0.287875
27.016667	1	0.288625
27.033333	1	0.289625
27.050000	1	0.291375
27.066667	1	0.293125
27.083333	1	0.295625
27.100000	1	0.299000
27.116667	1	0.303250
27.133333	1	0.307875
27.150000	1	0.313250
27.166667	1	0.320125
27.183333	1	0.328250
27.200000	1	0.337875
27.216667	1	0.349000
27.233333	1	0.362250
27.250000	1	0.376625
27.266667	1	0.394125
27.283333	1	0.414375
27.300000	1	0.438000
27.316667	1	0.465750
27.333333	1	0.496750
27.350000	1	0.532500
27.366667	1	0.572500
27.383333	1	0.619000
27.400000	1	0.672125
27.416667	1	0.731375
27.433333	1	0.798500
27.450000	1	0.873375
27.466667	1	0.956750
27.483333	1	1.049000
27.500000	1	1.151250
27.516667	1	1.262500
27.533333	1	1.384625
27.550000	1	1.515500
27.566667	1	1.655875
27.583333	1	1.804750
27.600000	1	1.961750
27.616667	1	2.126250
27.633333	1	2.296625
27.650000	1	2.472125
27.666667	1	2.650750
27.683333	1	2.830875
27.700000	1	3.008250
27.716667	1	3.182375
27.733333	1	3.350625
27.750000	1	3.510250
27.766667	1	3.658625
27.783333	1	3.792750
27.800000	1	3.911750
27.816667	1	4.012500
27.833333	1	4.094375
27.850000	1	4.154625
27.866667	1	4.192125
27.883333	1	4.207250
27.900000	1	4.198750
27.916667	1	4.166750
27.933333	1	4.111875
27.950000	1	4.035250
27.966667	1	3.938375
27.983333	1	3.823625
28.000000	1	3.691875
28.016667	1	3.546875
28.033333	1	3.390000
28.050000	1	3.223625
28.066667	1	3.050875
28.083333	1	2.873875
28.100000	1	2.696000
28.116667	1	2.518375
28.133333	1	2.343500
28.150000	1	2.173000
28.166667	1	2.009500
28.183333	1	1.852625
28.200000	1	1.704875
28.216667	1	1.565250
28.233333	1	1.436250
28.250000	1	1.315875
28.266667	1	1.205375
28.283333	1	1.104000
28.300000	1	1.012500
28.316667	1	0.930000
28.333333	1	0.856500
28.350000	1	0.791625
28.366667	1	0.734000
28.383333	1	0.683250
28.400000	1	0.640750
28.416667	1	0.603625
28.433333	1	0.570875
28.450000	1	0.544375
28.466667	1	0.522625
28.483333	1	0.505500
28.500000	1	0.492000
28.516667	1	0.482250
28.533333	1	0.475000
28.550000	1	0.471125
28.566667	1	0.470000
28.583333	1	0.470875
28.600000	1	0.474750
28.616667	1	0.479875
28.633333	1	0.486750
28.650000	1	0.494250
28.666667	1	0.502375
28.683333	1	0.512250
28.700000	1	0.522500
28.716667	1	0.532250
28.733333	1	0.541875
28.750000	1	0.552250
28.766667	1	0.562000
28.783333	1	0.571125
28.800000	1	0.580125
28.816667	1	0.588500
28.833333	1	0.596375
28.850000	1	0.602750
28.866667	1	0.608125
28.883333	1	0.612000
28.900000	1	0.614875
28.916667	1	0.616500
28.933333	1	0.616000
28.950000	1	0.613750
28.966667	1	0.610750
28.983333	1	0.605375
29.000000	1	0.598875
29.016667	1	0.590250
29.033333	1	0.580500
29.050000	1	0.568625
29.066667	1	0.554625
29.083333	1	0.538625
29.100000	1	0.520625
29.116667	1	0.500625
29.133333	1	0.478125
29.150000	1	0.454000
29.166667	1	0.428000
29.183333	1	0.399250
29.200000	1	0.368750
29.216667	1	0.336875
29.233333	1	0.301750
29.250000	1	0.264500
29.266667	1	0.225625
29.283333	1	0.183750
29.300000	1	0.139625
29.316667	1	0.093375
29.333333	1	0.045125
29.350000	1	-0.004625
29.366667	1	-0.056625
29.383333	1	-0.109125
29.400000	1	-0.163875
29.416667	1	-0.220375
29.433333	1	-0.278625
29.450000	1	-0.337750
29.466667	1	-0.397125
29.483333	1	-0.456500
29.500000	1	-0.515125
29.516667	1	-0.573500
29.533333	1	-0.631000
29.550000	1	-0.687375
29.566667	1	-0.741500
29.583333	1	-0.793250
29.600000	1	-0.842375
29.616667	1	-0.888125
29.633333	1	-0.930875
29.650000	1	-0.969500
29.666667	1	-1.003250
29.683333	1	-1.033250
29.700000	1	-1.057500
29.716667	1	-1.077375
29.733333	1	-1.092125
29.750000	1	-1.101875
29.766667	1	-1.106375
29.783333	1	-1.105125
29.800000	1	-1.098875
29.816667	1	-1.087125
29.833333	1	-1.071250
29.850000	1	-1.050625
29.866667	1	-1.025375
29.883333	1	-0.997125
29.900000	1	-0.964500
29.916667	1	-0.928750
29.933333	1	-0.891000
29.950000	1	-0.850125
29.966667	1	-0.807875
29.983333	1	-0.764375
30.000000	1	-0.720000
30.016667	1	-0.674000
30.033333	1	-0.628000
30.050000	1	-0.581750
30.066667	1	-0.536250
30.083333	1	-0.492125
30.100000	1	-0.447625
30.116667	1	-0.405125
30.133333	1	-0.363625
30.150000	1	-0.323750
30.166667	1	-0.285625
30.183333	1	-0.250125
30.200000	1	-0.215625
30.216667	1	-0.183250
30.233333	1	-0.152375
30.250000	1	-0.124125
30.266667	1	-0.098125
30.283333	1	-0.073000
30.300000	1	-0.050500
30.316667	1	-0.029375
30.333333	1	-0.009875
30.350000	1	0.007875
30.366667	1	0.024375
30.383333	1	0.039750
30.400000	1	0.053000
30.416667	1	0.064875
30.433333	1	0.075875
30.450000	1	0.085875
30.466667	1	0.095750
30.483333	1	0.104875
30.500000	1	0.112375
30.516667	1	0.120750
30.533333	1	0.127750
30.550000	1	0.135125
30.566667	1	0.142000
30.583333	1	0.148500
30.600000	1	0.155250
30.616667	1	0.161875
30.633333	1	0.168750
30.650000	1	0.176000
30.666667	1	0.184000
30.683333	1	0.192000
30.700000	1	0.199750
30.716667	1	0.208125
30.733333	1	0.217625
30.750000	1	0.227875
30.766667	1	0.239250
30.783333	1	0.250750
30.800000	1	0.263500
30.816667	1	0.277125
30.833333	1	0.292125
30.850000	1	0.308000
30.866667	1	0.325125
30.883333	1	0.343500
30.900000	1	0.364375
30.916667	1	0.386875
30.933333	1	0.412000
30.950000	1	0.439750
30.966667	1	0.470750
30.983333	1	0.505125
31.000000	1	0.543500
31.016667	1	0.586750
31.033333	1	0.634625
31.050000	1	0.687750
31.066667	1	0.747000
31.083333	1	0.813750
31.100000	1	0.887875
31.116667	1	0.970625
31.133333	1	1.060750
31.150000	1	1.160250
31.166667	1	1.269750
31.183333	1	1.389625
31.200000	1	1.521250
31.216667	1	1.664000
31.233333	1	1.817875
31.250000	1	1.983000
31.266667	1	2.157750
31.283333	1	2.343875
31.300000	1	2.540125
31.316667	1	2.744625
31.333333	1	2.956500
31.350000	1	3.174250
31.366667	1	3.396750
31.383333	1	3.622125
31.400000	1	3.848375
31.416667	1	4.073000
31.433333	1	4.292625
31.450000	1	4.506250
31.466667	1	4.709875
31.483333	1	4.902375
31.500000	1	5.080500
31.516667	1	5.242125
31.533333	1	5.385500
31.550000	1	5.508125
31.566667	1	5.608125
31.583333	1	5.686500
31.600000	1	5.741000
31.616667	1	5.770000
31.633333	1	5.774125
31.650000	1	5.753375
31.666667	1	5.707875
31.683333	1	5.638750
31.700000	1	5.547625
31.716667	1	5.435375
31.733333	1	5.304250
31.750000	1	5.156250
31.766667	1	4.993625
31.783333	1	4.817500
31.800000	1	4.629375
31.816667	1	4.432750
31.833333	1	4.229750
31.850000	1	4.022625
31.866667	1	3.812750
31.883333	1	3.603125
31.900000	1	3.394375
31.916667	1	3.188625
31.933333	1	2.986875
31.950000	1	2.790875
31.966667	1	2.601000
31.983333	1	2.418625
32.000000	1	2.243000
32.016667	1	2.075125
32.033333	1	1.915875
32.050000	1	1.765500
32.066667	1	1.624250
32.083333	1	1.491875
32.100000	1	1.367750
32.116667	1	1.252000
32.133333	1	1.145250
32.150000	1	1.045750
32.166667	1	0.953500
32.183333	1	0.867875
32.200000	1	0.789875
32.216667	1	0.717500
32.233333	1	0.651125
32.250000	1	0.590125
32.266667	1	0.535375
32.283333	1	0.485125
32.300000	1	0.438750
32.316667	1	0.396500
32.333333	1	0.358250
32.350000	1	0.323625
32.366667	1	0.292375
32.383333	1	0.263875
32.400000	1	0.237500
32.416667	1	0.214125
32.433333	1	0.193500
32.450000	1	0.174625
32.466667	1	0.156875
32.483333	1	0.141375
32.500000	1	0.127250
32.516667	1	0.114875
32.533333	1	0.103750
32.550000	1	0.094125
32.566667	1	0.084750
32.583333	1	0.077125
32.600000	1	0.070500
32.616667	1	0.064375
32.633333	1	0.058750
32.650000	1	0.053750
32.666667	1	0.049250
32.683333	1	0.045875
32.700000	1	0.042500
32.716667	1	0.039750
32.733333	1	0.037500
32.750000	1	0.035750
32.766667	1	0.034375
32.783333	1	0.033500
32.800000	1	0.032250
32.816667	1	0.031750
32.833333	1	0.031375
32.850000	1	0.031000
32.866667	1	0.031250
32.883333	1	0.030500
32.900000	1	0.031250
32.916667	1	0.030875
32.933333	1	0.031125
32.950000	1	0.030875
32.966667	1	0.031250
32.983333	1	0.031625
33.000000	1	0.032750
33.016667	1	0.033000
33.033333	1	0.033000
33.050000	1	0.033000
33.066667	1	0.033125
33.083333	1	0.032500
33.100000	1	0.032500
33.116667	1	0.032500
33.133333	1	0.032250
33.150000	1	0.032500
33.166667	1	0.032875
33.183333	1	0.032750
33.200000	1	0.032500
33.216667	1	0.032375
33.233333	1	0.031625
33.250000	1	0.030875
33.266667	1	0.029875
33.283333	1	0.029750
33.300000	1	0.028625
33.316667	1	0.028250
33.333333	1	0.027375
33.350000	1	0.026625
33.366667	1	0.026000
33.383333	1	0.025625
33.400000	1	0.024625
33.416667	1	0.025000
33.433333	1	0.025000
33.450000	1	0.023875
33.466667	1	0.023500
33.483333	1	0.023750
33.500000	1	0.023125
33.516667	1	0.023875
33.533333	1	0.024250
33.550000	1	0.024250
33.566667	1	0.025625
33.583333	1	0.026875
33.600000	1	0.027875
33.616667	1	0.028500
33.633333	1	0.030250
33.650000	1	0.031125
33.666667	1	0.032875
33.683333	1	0.034250
33.700000	1	0.035625
33.716667	1	0.038125
33.733333	1	0.040875
33.750000	1	0.044125
33.766667	1	0.047625
33.783333	1	0.050125
33.800000	1	0.053625
33.816667	1	0.056375
33.833333	1	0.059625
33.850000	1	0.063000
33.866667	1	0.066500
33.883333	1	0.069750
33.900000	1	0.073250
33.916667	1	0.077000
33.933333	1	0.080625
33.950000	1	0.083750
33.966667	1	0.087125
33.983333	1	0.090125
34.000000	1	0.093500
34.016667	1	0.096500
34.033333	1	0.098375
34.050000	1	0.101125
34.066667	1	0.103875
34.083333	1	0.106125
34.100000	1	0.108375
34.116667	1	0.109875
34.133333	1	0.111375
34.150000	1	0.113000
34.166667	1	0.114000
34.183333	1	0.114875
34.200000	1	0.116375
34.216667	1	0.117375
34.233333	1	0.118375
34.250000	1	0.119000
34.266667	1	0.119250
34.283333	1	0.120000
34.300000	1	0.120750
34.316667	1	0.121375
34.333333	1	0.122500
34.350000	1	0.122375
34.366667	1	0.122375
34.383333	1	0.123625
34.400000	1	0.124125
34.416667	1	0.124250
34.433333	1	0.124875
34.450000	1	0.125375
34.466667	1	0.126000
34.483333	1	0.126250
34.500000	1	0.127125
34.516667	1	0.127875
34.533333	1	0.128875
34.550000	1	0.129625
34.566667	1	0.130875
34.583333	1	0.132000
34.600000	1	0.133375
34.616667	1	0.134875
34.633333	1	0.136125
34.650000	1	0.137750
34.666667	1	0.139375
34.683333	1	0.141125
34.700000	1	0.142250
34.716667	1	0.143500
34.733333	1	0.145375
34.750000	1	0.147000
34.766667	1	0.148375
34.783333	1	0.149750
34.800000	1	0.151125
34.816667	1	0.152375
34.833333	1	0.153375
34.850000	1	0.154875
34.866667	1	0.155875
34.883333	1	0.157000
34.900000	1	0.157875
34.916667	1	0.158000
34.933333	1	0.158375
34.950000	1	0.158375
34.966667	1	0.158500
34.983333	1	0.158375
35.000000	1	0.158250
35.016667	1	0.157750
35.033333	1	0.156625
35.050000	1	0.155125
35.066667	1	0.153500
35.083333	1	0.151375
35.100000	1	0.149625
35.116667	1	0.147500
35.133333	1	0.144875
35.150000	1	0.142500
35.166667	1	0.139625
35.183333	1	0.136375
35.200000	1	0.133375
35.216667	1	0.130125
35.233333	1	0.126750
35.250000	1	0.123125
35.266667	1	0.119125
35.283333	1	0.116500
35.300000	1	0.113125
35.316667	1	0.109750
35.333333	1	0.106625
35.350000	1	0.104500
35.366667	1	0.102500
35.383333	1	0.100875
35.400000	1	0.099125
35.416667	1	0.097500
35.433333	1	0.096250
35.450000	1	0.095875
35.466667	1	0.094875
35.483333	1	0.095125
35.500000	1	0.095750
35.516667	1	0.096875
35.533333	1	0.099000
35.550000	1	0.101000
35.566667	1	0.104125
35.583333	1	0.106625
35.600000	1	0.109375
35.616667	1	0.112375
35.633333	1	0.115875
35.650000	1	0.119625
35.666667	1	0.123250
35.683333	1	0.127875
35.700000	1	0.132500
35.716667	1	0.136375
35.733333	1	0.141000
35.750000	1	0.144750
35.766667	1	0.148875
35.783333	1	0.152500
35.800000	1	0.156375
35.816667	1	0.159625
35.833333	1	0.163500
35.850000	1	0.167000
35.866667	1	0.169000
35.883333	1	0.170875
35.900000	1	0.172625
35.916667	1	0.173625
35.933333	1	0.174750
35.950000	1	0.175250
35.966667	1	0.175250
35.983333	1	0.174875
36.000000	1	0.173625
36.016667	1	0.172375
36.033333	1	0.170500
36.050000	1	0.168375
36.066667	1	0.165750
36.083333	1	0.162875
36.100000	1	0.159750
36.116667	1	0.156625
36.133333	1	0.153000
36.150000	1	0.149125
36.166667	1	0.145625
36.183333	1	0.141875
36.200000	1	0.137250
36.216667	1	0.134125
36.233333	1	0.130500
36.250000	1	0.127375
36.266667	1	0.124625
36.283333	1	0.121500
36.300000	1	0.118750
36.316667	1	0.116000
36.333333	1	0.113250
36.350000	1	0.110875
36.366667	1	0.108625
36.383333	1	0.107375
36.400000	1	0.106000
36.416667	1	0.105000
36.433333	1	0.103625
36.450000	1	0.103125
36.466667	1	0.102000
36.483333	1	0.101750
36.500000	1	0.102125
36.516667	1	0.102625
36.533333	1	0.102250
36.550000	1	0.102250
36.566667	1	0.102625
36.583333	1	0.102875
36.600000	1	0.103000
36.616667	1	0.102500
36.633333	1	0.102750
36.650000	1	0.102625
36.666667	1	0.102000
36.683333	1	0.101500
36.700000	1	0.099875
36.716667	1	0.098875
36.733333	1	0.097875
36.750000	1	0.097250
36.766667	1	0.095625
36.783333	1	0.094125
36.800000	1	0.092000
36.816667	1	0.090000
36.833333	1	0.087125
36.850000	1	0.084625
36.866667	1	0.082625
36.883333	1	0.079250
36.900000	1	0.076625
36.916667	1	0.074125
36.933333	1	0.071125
36.950000	1	0.068000
36.966667	1	0.064375
36.983333	1	0.061125
37.000000	1	0.058000
37.016667	1	0.055000
37.033333	1	0.052375
37.050000	1	0.049625
37.066667	1	0.046500
37.083333	1	0.044125
37.100000	1	0.042000
37.116667	1	0.038875
37.133333	1	0.035625
37.150000	1	0.033625
37.166667	1	0.031875
37.183333	1	0.029625
37.200000	1	0.027750
37.216667	1	0.026375
37.233333	1	0.025125
37.250000	1	0.024500
37.266667	1	0.023750
37.283333	1	0.023250
37.300000	1	0.023250
37.316667	1	0.023625
37.333333	1	0.023750
37.350000	1	0.023500
37.366667	1	0.023375
37.383333	1	0.023250
37.400000	1	0.024250
37.416667	1	0.024000
37.433333	1	0.024250
37.450000	1	0.025375
37.466667	1	0.025750
37.483333	1	0.025875
37.500000	1	0.025500
37.516667	1	0.025750
37.533333	1	0.026125
37.550000	1	0.026000
37.566667	1	0.025750
37.583333	1	0.025250
37.600000	1	0.024625
37.616667	1	0.023375
37.633333	1	0.022625
37.650000	1	0.022500
37.666667	1	0.021500
37.683333	1	0.019750
37.700000	1	0.018125
37.716667	1	0.016500
37.733333	1	0.015250
37.750000	1	0.013375
37.766667	1	0.011750
37.783333	1	0.010000
37.800000	1	0.008500
37.816667	1	0.007125
37.833333	1	0.005250
37.850000	1	0.004375
37.866667	1	0.003375
37.883333	1	0.002625
37.900000	1	0.002250
37.916667	1	0.001750
37.933333	1	0.000750
37.950000	1	-0.000250
37.966667	1	-0.000125
37.983333	1	0.000000
38.000000	1	0.000250
38.016667	1	0.000875
38.033333	1	0.001125
38.050000	1	0.001750
38.066667	1	0.002375
38.083333	1	0.003500
38.100000	1	0.005375
38.116667	1	0.006625
38.133333	1	0.008375
38.150000	1	0.010000
38.166667	1	0.012000
38.183333	1	0.013750
38.200000	1	0.015500
38.216667	1	0.017000
38.233333	1	0.019000
38.250000	1	0.021875
38.266667	1	0.023875
38.283333	1	0.026750
38.300000	1	0.028875
38.316667	1	0.031125
38.333333	1	0.033375
38.350000	1	0.036000
38.366667	1	0.038750
38.383333	1	0.041125
38.400000	1	0.043625
38.416667	1	0.046125
38.433333	1	0.048625
38.450000	1	0.051250
38.466667	1	0.053875
38.483333	1	0.056625
38.500000	1	0.059375
38.516667	1	0.061500
38.533333	1	0.065000
38.550000	1	0.067500
38.566667	1	0.069125
38.583333	1	0.070250
38.600000	1	0.071625
38.616667	1	0.073500
38.633333	1	0.075500
38.650000	1	0.076500
38.666667	1	0.077625
38.683333	1	0.077875
38.700000	1	0.078750
38.716667	1	0.079875
38.733333	1	0.080500
38.750000	1	0.080125
38.766667	1	0.080125
38.783333	1	0.079375
38.800000	1	0.078875
38.816667	1	0.078250
38.833333	1	0.077375
38.850000	1	0.076500
38.866667	1	0.075625
38.883333	1	0.074625
38.900000	1	0.073375
38.916667	1	0.072500
38.933333	1	0.070875
38.950000	1	0.069750
38.966667	1	0.068375
38.983333	1	0.067000
39.000000	1	0.065625
39.016667	1	0.064375
39.033333	1	0.063125
39.050000	1	0.062125
39.066667	1	0.060750
39.083333	1	0.059875
39.100000	1	0.058625
39.116667	1	0.058250
39.133333	1	0.057625
39.150000	1	0.058000
39.166667	1	0.057750
39.183333	1	0.058000
39.200000	1	0.057500
39.216667	1	0.057875
39.233333	1	0.058500
39.250000	1	0.059250
39.266667	1	0.059875
39.283333	1	0.060875
39.300000	1	0.061250
39.316667	1	0.062125
39.333333	1	0.063250
39.350000	1	0.063875
39.366667	1	0.064750
39.383333	1	0.065000
39.400000	1	0.066125
39.416667	1	0.066875
39.433333	1	0.067875
39.450000	1	0.067625
39.466667	1	0.067750
39.483333	1	0.068500
39.500000	1	0.068625
39.516667	1	0.068875
39.533333	1	0.068375
39.550000	1	0.068125
39.566667	1	0.067500
39.583333	1	0.066875
39.600000	1	0.066500
39.616667	1	0.065625
39.633333	1	0.064625
39.650000	1	0.062750
39.666667	1	0.061375
39.683333	1	0.060375
39.700000	1	0.058875
39.716667	1	0.057000
39.733333	1	0.055500
39.750000	1	0.053875
39.766667	1	0.051750
39.783333	1	0.050125
39.800000	1	0.047500
39.816667	1	0.044750
39.833333	1	0.042250
39.850000	1	0.040875
39.866667	1	0.038875
39.883333	1	0.036500
39.900000	1	0.035000
39.916667	1	0.032375
39.933333	1	0.030500
39.950000	1	0.027875
39.966667	1	0.025250
39.983333	1	0.022875
40.000000	1	0.020250
