URL	chrom://bioreactor/micro_cm7/HPLC_Ultimate_3000/Users/markusar/20240517_CMO_FP23_FP25_MarkusDeplate.seq/768.smp/RI_1.channel/RI_1.chm
Channel	RI_1

Injection Information:
Data Vault	micro_cm7
Sequence	20240517_CMO_FP23_FP25_MarkusDeplate
Name	FP28_22.1_s4
Number	144
Position	BA10
Comment	
Processing Method	
Instrument Method	run_25B_method
Type	Unknown
Status	Finished
Inject Time	31.05.2024 21:27:29 +02:00
Volume (µl)	20.0000
Dilution Factor	1.0000
Weight	1.0000

Chromatogram Data Information:
Time Min. (min)	0.000000
Time Max. (min)	40.000000
Data Points	2401
Detector	RI
Generating Data System	Chromeleon 7.3.2.11814
Exporting Data System	Chromeleon 7.3.2.0
Operator	Instrument Controller
Signal Quantity	Refractive 
Signal Unit	µRIU
Signal Min.	-0.991625
Signal Max.	49.237000
Channel	RI_1
Driver Name	RID520Driver.dll
Channel Type	Evaluation
Min. Step (s)	1
Max. Step (s)	1
Average Step (s)	1

Signal Parameter Information:
Signal Info	

Chromatogram Data:
Time (min)	Step (s)	Value (µRIU)
0.000000	n.a.	0.028875
0.016667	1	0.029875
0.033333	1	0.030500
0.050000	1	0.031375
0.066667	1	0.032375
0.083333	1	0.033125
0.100000	1	0.034125
0.116667	1	0.035625
0.133333	1	0.035750
0.150000	1	0.036625
0.166667	1	0.037250
0.183333	1	0.038000
0.200000	1	0.037750
0.216667	1	0.038000
0.233333	1	0.038375
0.250000	1	0.039125
0.266667	1	0.039875
0.283333	1	0.040375
0.300000	1	0.040625
0.316667	1	0.040375
0.333333	1	0.041125
0.350000	1	0.041375
0.366667	1	0.041500
0.383333	1	0.041625
0.400000	1	0.042625
0.416667	1	0.042625
0.433333	1	0.043125
0.450000	1	0.043500
0.466667	1	0.044625
0.483333	1	0.045125
0.500000	1	0.045250
0.516667	1	0.045250
0.533333	1	0.046125
0.550000	1	0.046750
0.566667	1	0.046750
0.583333	1	0.047250
0.600000	1	0.047000
0.616667	1	0.047375
0.633333	1	0.047500
0.650000	1	0.047250
0.666667	1	0.047125
0.683333	1	0.048250
0.700000	1	0.048875
0.716667	1	0.050125
0.733333	1	0.050375
0.750000	1	0.050000
0.766667	1	0.049875
0.783333	1	0.050125
0.800000	1	0.049375
0.816667	1	0.049375
0.833333	1	0.049125
0.850000	1	0.049375
0.866667	1	0.050125
0.883333	1	0.050250
0.900000	1	0.050375
0.916667	1	0.050750
0.933333	1	0.050625
0.950000	1	0.050750
0.966667	1	0.051125
0.983333	1	0.050250
1.000000	1	0.050875
1.016667	1	0.051000
1.033333	1	0.050750
1.050000	1	0.052000
1.066667	1	0.052375
1.083333	1	0.052500
1.100000	1	0.053125
1.116667	1	0.052875
1.133333	1	0.052875
1.150000	1	0.052625
1.166667	1	0.052125
1.183333	1	0.051500
1.200000	1	0.051625
1.216667	1	0.051375
1.233333	1	0.051125
1.250000	1	0.050875
1.266667	1	0.050500
1.283333	1	0.049875
1.300000	1	0.049125
1.316667	1	0.048375
1.333333	1	0.048250
1.350000	1	0.048000
1.366667	1	0.046625
1.383333	1	0.045375
1.400000	1	0.044250
1.416667	1	0.042500
1.433333	1	0.041625
1.450000	1	0.040375
1.466667	1	0.039250
1.483333	1	0.038250
1.500000	1	0.036875
1.516667	1	0.035625
1.533333	1	0.035000
1.550000	1	0.034750
1.566667	1	0.033375
1.583333	1	0.033000
1.600000	1	0.031750
1.616667	1	0.030875
1.633333	1	0.029875
1.650000	1	0.029750
1.666667	1	0.030125
1.683333	1	0.030000
1.700000	1	0.030125
1.716667	1	0.030375
1.733333	1	0.030250
1.750000	1	0.029625
1.766667	1	0.030000
1.783333	1	0.030375
1.800000	1	0.031125
1.816667	1	0.031750
1.833333	1	0.032500
1.850000	1	0.033125
1.866667	1	0.033875
1.883333	1	0.034750
1.900000	1	0.035625
1.916667	1	0.036250
1.933333	1	0.036375
1.950000	1	0.036250
1.966667	1	0.036250
1.983333	1	0.036750
2.000000	1	0.036375
2.016667	1	0.036250
2.033333	1	0.035875
2.050000	1	0.035500
2.066667	1	0.035625
2.083333	1	0.034625
2.100000	1	0.033375
2.116667	1	0.032125
2.133333	1	0.030625
2.150000	1	0.029125
2.166667	1	0.027250
2.183333	1	0.025750
2.200000	1	0.024500
2.216667	1	0.022875
2.233333	1	0.020875
2.250000	1	0.018750
2.266667	1	0.017125
2.283333	1	0.015125
2.300000	1	0.013500
2.316667	1	0.011750
2.333333	1	0.010375
2.350000	1	0.008750
2.366667	1	0.007000
2.383333	1	0.005000
2.400000	1	0.003500
2.416667	1	0.002500
2.433333	1	0.001000
2.450000	1	-0.000500
2.466667	1	-0.001750
2.483333	1	-0.003500
2.500000	1	-0.004750
2.516667	1	-0.006125
2.533333	1	-0.007500
2.550000	1	-0.008750
2.566667	1	-0.009125
2.583333	1	-0.009500
2.600000	1	-0.010000
2.616667	1	-0.011000
2.633333	1	-0.011625
2.650000	1	-0.011500
2.666667	1	-0.011500
2.683333	1	-0.011625
2.700000	1	-0.010875
2.716667	1	-0.011625
2.733333	1	-0.011375
2.750000	1	-0.010625
2.766667	1	-0.010125
2.783333	1	-0.009250
2.800000	1	-0.007875
2.816667	1	-0.006625
2.833333	1	-0.006500
2.850000	1	-0.005625
2.866667	1	-0.004750
2.883333	1	-0.003875
2.900000	1	-0.003000
2.916667	1	-0.001500
2.933333	1	-0.000750
2.950000	1	-0.000250
2.966667	1	0.000875
2.983333	1	0.002000
3.000000	1	0.002625
3.016667	1	0.004375
3.033333	1	0.005750
3.050000	1	0.007250
3.066667	1	0.008000
3.083333	1	0.009625
3.100000	1	0.010500
3.116667	1	0.011125
3.133333	1	0.012625
3.150000	1	0.013750
3.166667	1	0.015750
3.183333	1	0.017125
3.200000	1	0.018375
3.216667	1	0.020000
3.233333	1	0.022250
3.250000	1	0.023875
3.266667	1	0.025625
3.283333	1	0.027375
3.300000	1	0.029750
3.316667	1	0.032125
3.333333	1	0.034625
3.350000	1	0.037375
3.366667	1	0.040000
3.383333	1	0.042750
3.400000	1	0.045500
3.416667	1	0.048750
3.433333	1	0.051375
3.450000	1	0.054625
3.466667	1	0.057875
3.483333	1	0.060625
3.500000	1	0.064500
3.516667	1	0.068125
3.533333	1	0.070750
3.550000	1	0.074375
3.566667	1	0.077375
3.583333	1	0.081125
3.600000	1	0.084625
3.616667	1	0.087875
3.633333	1	0.091125
3.650000	1	0.094375
3.666667	1	0.097000
3.683333	1	0.099625
3.700000	1	0.102125
3.716667	1	0.104750
3.733333	1	0.106875
3.750000	1	0.108625
3.766667	1	0.109875
3.783333	1	0.110750
3.800000	1	0.112750
3.816667	1	0.114125
3.833333	1	0.115250
3.850000	1	0.115875
3.866667	1	0.116750
3.883333	1	0.117375
3.900000	1	0.118250
3.916667	1	0.118750
3.933333	1	0.119000
3.950000	1	0.119000
3.966667	1	0.119625
3.983333	1	0.120000
4.000000	1	0.120500
4.016667	1	0.120875
4.033333	1	0.121250
4.050000	1	0.121750
4.066667	1	0.122625
4.083333	1	0.123500
4.100000	1	0.123750
4.116667	1	0.124000
4.133333	1	0.124500
4.150000	1	0.125000
4.166667	1	0.125750
4.183333	1	0.126250
4.200000	1	0.127000
4.216667	1	0.128125
4.233333	1	0.129125
4.250000	1	0.130000
4.266667	1	0.130625
4.283333	1	0.132125
4.300000	1	0.133500
4.316667	1	0.134375
4.333333	1	0.134625
4.350000	1	0.135500
4.366667	1	0.137375
4.383333	1	0.138625
4.400000	1	0.139500
4.416667	1	0.140750
4.433333	1	0.142375
4.450000	1	0.143500
4.466667	1	0.144750
4.483333	1	0.145625
4.500000	1	0.146875
4.516667	1	0.148000
4.533333	1	0.149500
4.550000	1	0.151000
4.566667	1	0.152500
4.583333	1	0.154375
4.600000	1	0.155875
4.616667	1	0.157625
4.633333	1	0.159125
4.650000	1	0.160375
4.666667	1	0.161250
4.683333	1	0.163000
4.700000	1	0.164375
4.716667	1	0.165750
4.733333	1	0.167000
4.750000	1	0.168750
4.766667	1	0.170125
4.783333	1	0.171250
4.800000	1	0.172625
4.816667	1	0.173750
4.833333	1	0.175000
4.850000	1	0.177125
4.866667	1	0.178875
4.883333	1	0.180125
4.900000	1	0.181625
4.916667	1	0.183375
4.933333	1	0.185000
4.950000	1	0.186000
4.966667	1	0.188000
4.983333	1	0.189750
5.000000	1	0.191125
5.016667	1	0.193000
5.033333	1	0.195375
5.050000	1	0.197500
5.066667	1	0.199500
5.083333	1	0.201875
5.100000	1	0.203875
5.116667	1	0.205750
5.133333	1	0.207625
5.150000	1	0.210125
5.166667	1	0.212125
5.183333	1	0.214625
5.200000	1	0.217000
5.216667	1	0.218750
5.233333	1	0.221375
5.250000	1	0.223125
5.266667	1	0.224625
5.283333	1	0.226125
5.300000	1	0.227625
5.316667	1	0.228875
5.333333	1	0.230625
5.350000	1	0.232125
5.366667	1	0.234000
5.383333	1	0.235625
5.400000	1	0.236875
5.416667	1	0.238500
5.433333	1	0.240250
5.450000	1	0.241500
5.466667	1	0.242875
5.483333	1	0.244250
5.500000	1	0.245750
5.516667	1	0.246500
5.533333	1	0.247625
5.550000	1	0.248875
5.566667	1	0.250375
5.583333	1	0.251500
5.600000	1	0.252750
5.616667	1	0.254375
5.633333	1	0.255875
5.650000	1	0.257625
5.666667	1	0.258625
5.683333	1	0.259375
5.700000	1	0.260375
5.716667	1	0.262125
5.733333	1	0.263500
5.750000	1	0.264500
5.766667	1	0.265250
5.783333	1	0.266250
5.800000	1	0.266125
5.816667	1	0.267000
5.833333	1	0.267250
5.850000	1	0.267250
5.866667	1	0.266500
5.883333	1	0.265750
5.900000	1	0.264750
5.916667	1	0.263250
5.933333	1	0.262125
5.950000	1	0.261250
5.966667	1	0.260125
5.983333	1	0.258500
6.000000	1	0.257250
6.016667	1	0.255000
6.033333	1	0.252750
6.050000	1	0.250750
6.066667	1	0.249000
6.083333	1	0.247000
6.100000	1	0.244500
6.116667	1	0.243000
6.133333	1	0.240750
6.150000	1	0.238750
6.166667	1	0.236875
6.183333	1	0.235500
6.200000	1	0.234625
6.216667	1	0.232875
6.233333	1	0.231250
6.250000	1	0.230125
6.266667	1	0.228875
6.283333	1	0.227750
6.300000	1	0.226125
6.316667	1	0.225000
6.333333	1	0.224375
6.350000	1	0.223875
6.366667	1	0.223000
6.383333	1	0.222625
6.400000	1	0.222250
6.416667	1	0.221500
6.433333	1	0.220750
6.450000	1	0.220250
6.466667	1	0.219125
6.483333	1	0.218375
6.500000	1	0.217000
6.516667	1	0.215625
6.533333	1	0.214750
6.550000	1	0.213250
6.566667	1	0.211750
6.583333	1	0.209375
6.600000	1	0.206875
6.616667	1	0.204750
6.633333	1	0.202250
6.650000	1	0.199625
6.666667	1	0.196750
6.683333	1	0.194125
6.700000	1	0.191250
6.716667	1	0.188000
6.733333	1	0.185000
6.750000	1	0.181500
6.766667	1	0.178125
6.783333	1	0.175000
6.800000	1	0.171500
6.816667	1	0.168500
6.833333	1	0.164750
6.850000	1	0.161625
6.866667	1	0.158000
6.883333	1	0.154500
6.900000	1	0.152250
6.916667	1	0.149625
6.933333	1	0.147000
6.950000	1	0.145000
6.966667	1	0.143375
6.983333	1	0.142125
7.000000	1	0.141250
7.016667	1	0.140000
7.033333	1	0.140250
7.050000	1	0.139875
7.066667	1	0.140000
7.083333	1	0.140750
7.100000	1	0.141625
7.116667	1	0.143500
7.133333	1	0.145750
7.150000	1	0.148250
7.166667	1	0.151000
7.183333	1	0.153750
7.200000	1	0.157000
7.216667	1	0.160125
7.233333	1	0.163375
7.250000	1	0.166625
7.266667	1	0.170125
7.283333	1	0.173875
7.300000	1	0.178000
7.316667	1	0.182125
7.333333	1	0.186500
7.350000	1	0.190625
7.366667	1	0.194375
7.383333	1	0.198500
7.400000	1	0.202750
7.416667	1	0.206250
7.433333	1	0.210375
7.450000	1	0.213625
7.466667	1	0.217375
7.483333	1	0.220250
7.500000	1	0.223375
7.516667	1	0.225875
7.533333	1	0.228625
7.550000	1	0.230375
7.566667	1	0.232500
7.583333	1	0.233875
7.600000	1	0.235750
7.616667	1	0.236250
7.633333	1	0.237250
7.650000	1	0.237500
7.666667	1	0.237625
7.683333	1	0.237125
7.700000	1	0.237625
7.716667	1	0.237125
7.733333	1	0.236250
7.750000	1	0.234750
7.766667	1	0.233250
7.783333	1	0.231625
7.800000	1	0.229375
7.816667	1	0.227625
7.833333	1	0.225000
7.850000	1	0.221875
7.866667	1	0.219000
7.883333	1	0.216500
7.900000	1	0.213125
7.916667	1	0.210125
7.933333	1	0.206875
7.950000	1	0.203875
7.966667	1	0.200875
7.983333	1	0.197750
8.000000	1	0.194500
8.016667	1	0.191125
8.033333	1	0.188250
8.050000	1	0.184375
8.066667	1	0.181750
8.083333	1	0.179000
8.100000	1	0.175750
8.116667	1	0.173000
8.133333	1	0.170500
8.150000	1	0.167625
8.166667	1	0.164875
8.183333	1	0.161625
8.200000	1	0.159250
8.216667	1	0.156375
8.233333	1	0.154375
8.250000	1	0.151375
8.266667	1	0.148625
8.283333	1	0.146125
8.300000	1	0.143500
8.316667	1	0.140625
8.333333	1	0.138125
8.350000	1	0.134875
8.366667	1	0.131875
8.383333	1	0.128875
8.400000	1	0.126375
8.416667	1	0.123875
8.433333	1	0.120625
8.450000	1	0.118000
8.466667	1	0.115125
8.483333	1	0.112250
8.500000	1	0.109125
8.516667	1	0.106625
8.533333	1	0.104500
8.550000	1	0.102000
8.566667	1	0.099250
8.583333	1	0.097625
8.600000	1	0.095125
8.616667	1	0.093125
8.633333	1	0.091250
8.650000	1	0.089750
8.666667	1	0.088250
8.683333	1	0.086875
8.700000	1	0.086250
8.716667	1	0.085625
8.733333	1	0.085250
8.750000	1	0.085125
8.766667	1	0.084750
8.783333	1	0.084875
8.800000	1	0.085500
8.816667	1	0.085625
8.833333	1	0.086125
8.850000	1	0.086500
8.866667	1	0.087625
8.883333	1	0.088750
8.900000	1	0.090000
8.916667	1	0.091500
8.933333	1	0.093375
8.950000	1	0.095250
8.966667	1	0.097375
8.983333	1	0.098750
9.000000	1	0.101250
9.016667	1	0.103250
9.033333	1	0.104500
9.050000	1	0.105625
9.066667	1	0.107250
9.083333	1	0.109125
9.100000	1	0.110750
9.116667	1	0.111875
9.133333	1	0.113625
9.150000	1	0.114500
9.166667	1	0.115500
9.183333	1	0.116375
9.200000	1	0.117000
9.216667	1	0.117250
9.233333	1	0.117250
9.250000	1	0.117625
9.266667	1	0.116375
9.283333	1	0.117125
9.300000	1	0.117250
9.316667	1	0.117375
9.333333	1	0.117625
9.350000	1	0.117500
9.366667	1	0.117750
9.383333	1	0.117875
9.400000	1	0.118000
9.416667	1	0.118125
9.433333	1	0.118125
9.450000	1	0.118250
9.466667	1	0.118500
9.483333	1	0.119250
9.500000	1	0.119625
9.516667	1	0.120375
9.533333	1	0.121375
9.550000	1	0.122500
9.566667	1	0.124250
9.583333	1	0.125000
9.600000	1	0.126125
9.616667	1	0.127500
9.633333	1	0.129125
9.650000	1	0.130750
9.666667	1	0.133000
9.683333	1	0.134875
9.700000	1	0.136875
9.716667	1	0.138750
9.733333	1	0.141000
9.750000	1	0.143250
9.766667	1	0.145125
9.783333	1	0.147250
9.800000	1	0.148750
9.816667	1	0.150125
9.833333	1	0.151875
9.850000	1	0.153000
9.866667	1	0.154750
9.883333	1	0.156500
9.900000	1	0.158125
9.916667	1	0.159125
9.933333	1	0.160375
9.950000	1	0.161000
9.966667	1	0.161000
9.983333	1	0.161250
10.000000	1	0.160750
10.016667	1	0.159625
10.033333	1	0.159250
10.050000	1	0.158000
10.066667	1	0.157250
10.083333	1	0.156875
10.100000	1	0.156500
10.116667	1	0.156625
10.133333	1	0.158375
10.150000	1	0.161000
10.166667	1	0.164625
10.183333	1	0.170125
10.200000	1	0.176750
10.216667	1	0.185000
10.233333	1	0.194875
10.250000	1	0.207500
10.266667	1	0.222500
10.283333	1	0.240250
10.300000	1	0.261250
10.316667	1	0.284375
10.333333	1	0.309750
10.350000	1	0.336750
10.366667	1	0.363625
10.383333	1	0.388250
10.400000	1	0.409000
10.416667	1	0.425000
10.433333	1	0.435625
10.450000	1	0.443375
10.466667	1	0.454250
10.483333	1	0.479875
10.500000	1	0.539625
10.516667	1	0.664125
10.533333	1	0.893250
10.550000	1	1.279375
10.566667	1	1.885000
10.583333	1	2.773625
10.600000	1	4.006375
10.616667	1	5.633750
10.633333	1	7.691500
10.650000	1	10.195500
10.666667	1	13.148375
10.683333	1	16.534500
10.700000	1	20.315625
10.716667	1	24.432625
10.733333	1	28.791625
10.750000	1	33.266500
10.766667	1	37.673875
10.783333	1	41.777500
10.800000	1	45.285875
10.816667	1	47.874250
10.833333	1	49.237000
10.850000	1	49.160875
10.866667	1	47.590375
10.883333	1	44.667500
10.900000	1	40.706000
10.916667	1	36.125250
10.933333	1	31.345875
10.950000	1	26.714500
10.966667	1	22.463875
10.983333	1	18.715250
11.000000	1	15.506250
11.016667	1	12.823125
11.033333	1	10.622125
11.050000	1	8.842625
11.066667	1	7.421500
11.083333	1	6.294500
11.100000	1	5.403625
11.116667	1	4.697375
11.133333	1	4.136125
11.150000	1	3.684500
11.166667	1	3.317625
11.183333	1	3.016625
11.200000	1	2.765875
11.216667	1	2.555875
11.233333	1	2.377500
11.250000	1	2.223875
11.266667	1	2.091750
11.283333	1	1.976875
11.300000	1	1.876250
11.316667	1	1.787500
11.333333	1	1.709500
11.350000	1	1.640500
11.366667	1	1.580000
11.383333	1	1.526625
11.400000	1	1.478750
11.416667	1	1.437375
11.433333	1	1.400625
11.450000	1	1.368500
11.466667	1	1.340500
11.483333	1	1.315875
11.500000	1	1.293375
11.516667	1	1.273375
11.533333	1	1.255875
11.550000	1	1.240375
11.566667	1	1.226625
11.583333	1	1.214250
11.600000	1	1.203625
11.616667	1	1.193875
11.633333	1	1.185250
11.650000	1	1.178500
11.666667	1	1.173125
11.683333	1	1.168500
11.700000	1	1.165125
11.716667	1	1.162625
11.733333	1	1.161875
11.750000	1	1.162250
11.766667	1	1.164250
11.783333	1	1.166000
11.800000	1	1.169625
11.816667	1	1.173500
11.833333	1	1.177625
11.850000	1	1.181500
11.866667	1	1.186500
11.883333	1	1.191375
11.900000	1	1.196000
11.916667	1	1.200625
11.933333	1	1.204750
11.950000	1	1.209125
11.966667	1	1.213375
11.983333	1	1.218250
12.000000	1	1.223000
12.016667	1	1.228750
12.033333	1	1.233375
12.050000	1	1.239375
12.066667	1	1.246125
12.083333	1	1.252625
12.100000	1	1.258750
12.116667	1	1.266375
12.133333	1	1.273625
12.150000	1	1.281625
12.166667	1	1.290125
12.183333	1	1.299250
12.200000	1	1.309125
12.216667	1	1.320625
12.233333	1	1.334000
12.250000	1	1.349000
12.266667	1	1.367125
12.283333	1	1.387500
12.300000	1	1.412625
12.316667	1	1.442000
12.333333	1	1.478125
12.350000	1	1.522125
12.366667	1	1.575250
12.383333	1	1.639750
12.400000	1	1.719250
12.416667	1	1.817000
12.433333	1	1.936750
12.450000	1	2.084000
12.466667	1	2.262875
12.483333	1	2.478625
12.500000	1	2.734750
12.516667	1	3.034375
12.533333	1	3.376625
12.550000	1	3.757500
12.566667	1	4.171125
12.583333	1	4.607250
12.600000	1	5.053125
12.616667	1	5.491125
12.633333	1	5.904125
12.650000	1	6.275875
12.666667	1	6.590125
12.683333	1	6.833250
12.700000	1	6.996375
12.716667	1	7.075875
12.733333	1	7.073125
12.750000	1	6.994375
12.766667	1	6.848250
12.783333	1	6.647375
12.800000	1	6.404625
12.816667	1	6.133250
12.833333	1	5.843625
12.850000	1	5.545250
12.866667	1	5.247000
12.883333	1	4.955500
12.900000	1	4.676125
12.916667	1	4.413375
12.933333	1	4.169625
12.950000	1	3.946750
12.966667	1	3.745500
12.983333	1	3.565375
13.000000	1	3.405250
13.016667	1	3.263000
13.033333	1	3.138000
13.050000	1	3.027750
13.066667	1	2.929875
13.083333	1	2.842875
13.100000	1	2.766000
13.116667	1	2.696750
13.133333	1	2.633625
13.150000	1	2.576750
13.166667	1	2.524125
13.183333	1	2.475875
13.200000	1	2.430125
13.216667	1	2.387750
13.233333	1	2.347125
13.250000	1	2.307500
13.266667	1	2.269750
13.283333	1	2.233625
13.300000	1	2.198875
13.316667	1	2.165375
13.333333	1	2.133000
13.350000	1	2.102375
13.366667	1	2.073625
13.383333	1	2.047250
13.400000	1	2.022750
13.416667	1	2.000250
13.433333	1	1.980625
13.450000	1	1.963000
13.466667	1	1.948125
13.483333	1	1.936625
13.500000	1	1.927125
13.516667	1	1.921000
13.533333	1	1.916375
13.550000	1	1.914000
13.566667	1	1.911750
13.583333	1	1.909750
13.600000	1	1.907250
13.616667	1	1.903000
13.633333	1	1.897375
13.650000	1	1.888125
13.666667	1	1.876625
13.683333	1	1.862500
13.700000	1	1.843875
13.716667	1	1.822750
13.733333	1	1.799375
13.750000	1	1.773375
13.766667	1	1.747500
13.783333	1	1.721500
13.800000	1	1.695750
13.816667	1	1.669500
13.833333	1	1.643750
13.850000	1	1.620000
13.866667	1	1.597125
13.883333	1	1.575125
13.900000	1	1.554375
13.916667	1	1.535000
13.933333	1	1.517375
13.950000	1	1.499875
13.966667	1	1.484000
13.983333	1	1.469375
14.000000	1	1.454875
14.016667	1	1.443000
14.033333	1	1.430375
14.050000	1	1.420000
14.066667	1	1.409250
14.083333	1	1.399125
14.100000	1	1.389750
14.116667	1	1.381250
14.133333	1	1.373500
14.150000	1	1.365750
14.166667	1	1.360375
14.183333	1	1.355250
14.200000	1	1.351875
14.216667	1	1.350500
14.233333	1	1.349875
14.250000	1	1.351750
14.266667	1	1.356000
14.283333	1	1.362625
14.300000	1	1.371750
14.316667	1	1.383875
14.333333	1	1.399250
14.350000	1	1.419750
14.366667	1	1.443125
14.383333	1	1.471500
14.400000	1	1.505125
14.416667	1	1.546375
14.433333	1	1.598000
14.450000	1	1.663125
14.466667	1	1.748000
14.483333	1	1.858750
14.500000	1	2.007250
14.516667	1	2.207625
14.533333	1	2.476500
14.550000	1	2.837375
14.566667	1	3.315625
14.583333	1	3.943375
14.600000	1	4.754125
14.616667	1	5.786625
14.633333	1	7.080250
14.650000	1	8.667125
14.666667	1	10.571250
14.683333	1	12.804750
14.700000	1	15.358000
14.716667	1	18.199125
14.733333	1	21.270625
14.750000	1	24.492875
14.766667	1	27.759375
14.783333	1	30.944125
14.800000	1	33.916250
14.816667	1	36.542750
14.833333	1	38.701750
14.850000	1	40.288000
14.866667	1	41.227125
14.883333	1	41.478250
14.900000	1	41.040750
14.916667	1	39.955500
14.933333	1	38.293625
14.950000	1	36.152125
14.966667	1	33.645625
14.983333	1	30.897625
15.000000	1	28.023375
15.016667	1	25.126625
15.033333	1	22.298000
15.050000	1	19.609250
15.066667	1	17.113500
15.083333	1	14.841875
15.100000	1	12.812750
15.116667	1	11.026000
15.133333	1	9.475125
15.150000	1	8.142375
15.166667	1	7.009000
15.183333	1	6.052375
15.200000	1	5.249875
15.216667	1	4.581500
15.233333	1	4.027125
15.250000	1	3.570375
15.266667	1	3.196875
15.283333	1	2.893750
15.300000	1	2.650250
15.316667	1	2.458250
15.333333	1	2.309125
15.350000	1	2.196125
15.366667	1	2.113125
15.383333	1	2.054250
15.400000	1	2.014625
15.416667	1	1.990500
15.433333	1	1.977875
15.450000	1	1.971750
15.466667	1	1.968500
15.483333	1	1.965625
15.500000	1	1.959750
15.516667	1	1.948875
15.533333	1	1.932625
15.550000	1	1.909500
15.566667	1	1.880125
15.583333	1	1.844500
15.600000	1	1.804125
15.616667	1	1.760250
15.633333	1	1.714250
15.650000	1	1.667125
15.666667	1	1.621000
15.683333	1	1.575625
15.700000	1	1.532750
15.716667	1	1.491625
15.733333	1	1.453500
15.750000	1	1.417625
15.766667	1	1.384125
15.783333	1	1.353000
15.800000	1	1.324125
15.816667	1	1.297125
15.833333	1	1.271875
15.850000	1	1.248125
15.866667	1	1.227250
15.883333	1	1.207375
15.900000	1	1.189250
15.916667	1	1.173125
15.933333	1	1.159375
15.950000	1	1.147750
15.966667	1	1.138250
15.983333	1	1.131000
16.000000	1	1.126250
16.016667	1	1.122875
16.033333	1	1.120625
16.050000	1	1.120000
16.066667	1	1.120625
16.083333	1	1.122875
16.100000	1	1.125375
16.116667	1	1.129000
16.133333	1	1.132750
16.150000	1	1.136000
16.166667	1	1.139625
16.183333	1	1.143375
16.200000	1	1.146375
16.216667	1	1.148125
16.233333	1	1.149625
16.250000	1	1.149625
16.266667	1	1.148750
16.283333	1	1.148000
16.300000	1	1.147000
16.316667	1	1.145625
16.333333	1	1.143750
16.350000	1	1.142125
16.366667	1	1.141750
16.383333	1	1.142500
16.400000	1	1.144000
16.416667	1	1.146500
16.433333	1	1.150125
16.450000	1	1.155125
16.466667	1	1.160875
16.483333	1	1.167250
16.500000	1	1.174250
16.516667	1	1.181375
16.533333	1	1.188625
16.550000	1	1.195250
16.566667	1	1.201250
16.583333	1	1.206000
16.600000	1	1.210125
16.616667	1	1.212375
16.633333	1	1.213375
16.650000	1	1.214375
16.666667	1	1.214750
16.683333	1	1.214750
16.700000	1	1.214875
16.716667	1	1.216500
16.733333	1	1.218375
16.750000	1	1.221750
16.766667	1	1.227000
16.783333	1	1.233625
16.800000	1	1.241500
16.816667	1	1.250000
16.833333	1	1.259500
16.850000	1	1.268875
16.866667	1	1.277750
16.883333	1	1.286125
16.900000	1	1.293500
16.916667	1	1.299750
16.933333	1	1.303875
16.950000	1	1.307000
16.966667	1	1.308500
16.983333	1	1.308000
17.000000	1	1.306250
17.016667	1	1.303500
17.033333	1	1.299625
17.050000	1	1.295000
17.066667	1	1.290375
17.083333	1	1.284500
17.100000	1	1.280000
17.116667	1	1.274250
17.133333	1	1.270125
17.150000	1	1.265875
17.166667	1	1.262625
17.183333	1	1.260125
17.200000	1	1.258250
17.216667	1	1.256750
17.233333	1	1.255625
17.250000	1	1.255375
17.266667	1	1.256000
17.283333	1	1.257125
17.300000	1	1.257875
17.316667	1	1.259875
17.333333	1	1.261375
17.350000	1	1.263875
17.366667	1	1.265500
17.383333	1	1.267875
17.400000	1	1.269500
17.416667	1	1.270875
17.433333	1	1.271750
17.450000	1	1.270750
17.466667	1	1.268000
17.483333	1	1.264875
17.500000	1	1.259500
17.516667	1	1.252250
17.533333	1	1.244125
17.550000	1	1.234625
17.566667	1	1.223500
17.583333	1	1.211375
17.600000	1	1.198000
17.616667	1	1.183625
17.633333	1	1.168375
17.650000	1	1.152625
17.666667	1	1.136750
17.683333	1	1.121250
17.700000	1	1.106625
17.716667	1	1.091750
17.733333	1	1.077875
17.750000	1	1.064875
17.766667	1	1.052000
17.783333	1	1.040125
17.800000	1	1.029625
17.816667	1	1.019750
17.833333	1	1.010750
17.850000	1	1.002750
17.866667	1	0.995500
17.883333	1	0.988250
17.900000	1	0.982000
17.916667	1	0.975750
17.933333	1	0.969750
17.950000	1	0.964125
17.966667	1	0.958250
17.983333	1	0.951250
18.000000	1	0.945625
18.016667	1	0.939500
18.033333	1	0.932250
18.050000	1	0.926250
18.066667	1	0.920125
18.083333	1	0.913500
18.100000	1	0.907500
18.116667	1	0.901875
18.133333	1	0.896875
18.150000	1	0.892125
18.166667	1	0.887750
18.183333	1	0.884625
18.200000	1	0.882000
18.216667	1	0.880500
18.233333	1	0.879500
18.250000	1	0.879500
18.266667	1	0.879375
18.283333	1	0.879750
18.300000	1	0.880625
18.316667	1	0.882000
18.333333	1	0.884125
18.350000	1	0.886875
18.366667	1	0.890500
18.383333	1	0.895500
18.400000	1	0.901125
18.416667	1	0.907875
18.433333	1	0.915375
18.450000	1	0.924875
18.466667	1	0.935250
18.483333	1	0.947625
18.500000	1	0.962125
18.516667	1	0.978875
18.533333	1	0.997375
18.550000	1	1.017125
18.566667	1	1.039250
18.583333	1	1.062375
18.600000	1	1.086875
18.616667	1	1.113625
18.633333	1	1.141875
18.650000	1	1.170125
18.666667	1	1.199875
18.683333	1	1.229875
18.700000	1	1.261250
18.716667	1	1.292500
18.733333	1	1.324125
18.750000	1	1.355000
18.766667	1	1.385750
18.783333	1	1.416500
18.800000	1	1.444625
18.816667	1	1.471125
18.833333	1	1.494750
18.850000	1	1.514875
18.866667	1	1.531125
18.883333	1	1.544500
18.900000	1	1.552125
18.916667	1	1.554000
18.933333	1	1.551375
18.950000	1	1.543750
18.966667	1	1.529000
18.983333	1	1.509625
19.000000	1	1.484500
19.016667	1	1.453625
19.033333	1	1.418250
19.050000	1	1.380125
19.066667	1	1.339125
19.083333	1	1.296375
19.100000	1	1.252000
19.116667	1	1.208000
19.133333	1	1.165375
19.150000	1	1.124250
19.166667	1	1.086000
19.183333	1	1.049500
19.200000	1	1.017750
19.216667	1	0.990625
19.233333	1	0.967875
19.250000	1	0.950250
19.266667	1	0.938750
19.283333	1	0.932375
19.300000	1	0.931250
19.316667	1	0.935250
19.333333	1	0.945250
19.350000	1	0.960125
19.366667	1	0.979375
19.383333	1	1.002375
19.400000	1	1.029750
19.416667	1	1.059375
19.433333	1	1.090250
19.450000	1	1.121625
19.466667	1	1.153375
19.483333	1	1.183500
19.500000	1	1.212625
19.516667	1	1.238875
19.533333	1	1.261500
19.550000	1	1.280625
19.566667	1	1.295500
19.583333	1	1.305250
19.600000	1	1.309875
19.616667	1	1.310000
19.633333	1	1.304875
19.650000	1	1.295375
19.666667	1	1.281875
19.683333	1	1.264250
19.700000	1	1.242625
19.716667	1	1.219750
19.733333	1	1.194000
19.750000	1	1.165750
19.766667	1	1.136125
19.783333	1	1.105875
19.800000	1	1.074750
19.816667	1	1.044000
19.833333	1	1.012875
19.850000	1	0.982875
19.866667	1	0.954500
19.883333	1	0.927750
19.900000	1	0.902750
19.916667	1	0.880500
19.933333	1	0.861375
19.950000	1	0.845375
19.966667	1	0.832625
19.983333	1	0.824500
20.000000	1	0.820750
20.016667	1	0.822250
20.033333	1	0.829125
20.050000	1	0.840375
20.066667	1	0.858375
20.083333	1	0.881750
20.100000	1	0.910750
20.116667	1	0.945250
20.133333	1	0.985125
20.150000	1	1.030000
20.166667	1	1.077625
20.183333	1	1.128625
20.200000	1	1.180250
20.216667	1	1.232125
20.233333	1	1.281375
20.250000	1	1.327500
20.266667	1	1.367500
20.283333	1	1.401000
20.300000	1	1.426250
20.316667	1	1.442875
20.333333	1	1.450125
20.350000	1	1.447625
20.366667	1	1.435250
20.383333	1	1.414250
20.400000	1	1.384750
20.416667	1	1.347750
20.433333	1	1.304625
20.450000	1	1.258500
20.466667	1	1.209500
20.483333	1	1.159625
20.500000	1	1.111375
20.516667	1	1.066625
20.533333	1	1.025125
20.550000	1	0.989875
20.566667	1	0.961875
20.583333	1	0.940750
20.600000	1	0.929250
20.616667	1	0.926000
20.633333	1	0.932125
20.650000	1	0.948375
20.666667	1	0.975000
20.683333	1	1.010750
20.700000	1	1.055250
20.716667	1	1.107000
20.733333	1	1.165625
20.750000	1	1.229375
20.766667	1	1.296625
20.783333	1	1.364750
20.800000	1	1.431875
20.816667	1	1.495875
20.833333	1	1.553875
20.850000	1	1.604250
20.866667	1	1.645250
20.883333	1	1.675500
20.900000	1	1.693500
20.916667	1	1.698750
20.933333	1	1.691000
20.950000	1	1.670375
20.966667	1	1.638250
20.983333	1	1.595250
21.000000	1	1.542750
21.016667	1	1.483375
21.033333	1	1.418875
21.050000	1	1.349875
21.066667	1	1.279875
21.083333	1	1.210000
21.100000	1	1.140250
21.116667	1	1.072625
21.133333	1	1.008875
21.150000	1	0.950000
21.166667	1	0.894875
21.183333	1	0.844625
21.200000	1	0.799250
21.216667	1	0.758125
21.233333	1	0.721125
21.250000	1	0.688750
21.266667	1	0.660750
21.283333	1	0.636000
21.300000	1	0.613875
21.316667	1	0.595375
21.333333	1	0.578875
21.350000	1	0.565000
21.366667	1	0.554000
21.383333	1	0.544750
21.400000	1	0.536625
21.416667	1	0.531000
21.433333	1	0.525500
21.450000	1	0.522125
21.466667	1	0.520625
21.483333	1	0.520875
21.500000	1	0.522625
21.516667	1	0.526500
21.533333	1	0.531875
21.550000	1	0.538875
21.566667	1	0.547625
21.583333	1	0.559500
21.600000	1	0.573000
21.616667	1	0.590000
21.633333	1	0.610125
21.650000	1	0.633750
21.666667	1	0.660375
21.683333	1	0.690750
21.700000	1	0.724250
21.716667	1	0.761375
21.733333	1	0.802375
21.750000	1	0.846375
21.766667	1	0.893625
21.783333	1	0.943250
21.800000	1	0.994000
21.816667	1	1.046000
21.833333	1	1.098500
21.850000	1	1.149375
21.866667	1	1.198625
21.883333	1	1.245000
21.900000	1	1.288250
21.916667	1	1.326625
21.933333	1	1.359250
21.950000	1	1.385625
21.966667	1	1.405375
21.983333	1	1.418500
22.000000	1	1.424375
22.016667	1	1.422750
22.033333	1	1.414250
22.050000	1	1.399625
22.066667	1	1.379000
22.083333	1	1.352625
22.100000	1	1.322750
22.116667	1	1.288750
22.133333	1	1.252125
22.150000	1	1.212625
22.166667	1	1.172000
22.183333	1	1.130875
22.200000	1	1.089000
22.216667	1	1.048000
22.233333	1	1.007500
22.250000	1	0.968125
22.266667	1	0.930875
22.283333	1	0.894625
22.300000	1	0.860125
22.316667	1	0.827875
22.333333	1	0.796750
22.350000	1	0.768625
22.366667	1	0.742125
22.383333	1	0.718000
22.400000	1	0.695500
22.416667	1	0.675875
22.433333	1	0.657750
22.450000	1	0.642250
22.466667	1	0.628375
22.483333	1	0.616625
22.500000	1	0.606875
22.516667	1	0.597375
22.533333	1	0.589875
22.550000	1	0.584000
22.566667	1	0.579000
22.583333	1	0.574250
22.600000	1	0.569375
22.616667	1	0.565250
22.633333	1	0.561750
22.650000	1	0.558000
22.666667	1	0.554000
22.683333	1	0.549500
22.700000	1	0.544375
22.716667	1	0.538750
22.733333	1	0.533125
22.750000	1	0.526125
22.766667	1	0.518750
22.783333	1	0.511500
22.800000	1	0.503250
22.816667	1	0.494750
22.833333	1	0.486375
22.850000	1	0.477000
22.866667	1	0.467500
22.883333	1	0.458750
22.900000	1	0.450125
22.916667	1	0.441625
22.933333	1	0.433500
22.950000	1	0.425125
22.966667	1	0.417750
22.983333	1	0.411125
23.000000	1	0.405125
23.016667	1	0.400375
23.033333	1	0.395125
23.050000	1	0.391000
23.066667	1	0.387250
23.083333	1	0.384250
23.100000	1	0.382125
23.116667	1	0.380125
23.133333	1	0.378875
23.150000	1	0.379125
23.166667	1	0.379250
23.183333	1	0.380500
23.200000	1	0.382375
23.216667	1	0.385125
23.233333	1	0.389500
23.250000	1	0.394500
23.266667	1	0.400625
23.283333	1	0.409500
23.300000	1	0.420875
23.316667	1	0.434750
23.333333	1	0.452125
23.350000	1	0.473000
23.366667	1	0.499250
23.383333	1	0.530625
23.400000	1	0.568625
23.416667	1	0.614375
23.433333	1	0.670000
23.450000	1	0.734875
23.466667	1	0.811750
23.483333	1	0.902125
23.500000	1	1.006625
23.516667	1	1.126125
23.533333	1	1.263250
23.550000	1	1.417375
23.566667	1	1.590375
23.583333	1	1.781625
23.600000	1	1.990000
23.616667	1	2.215375
23.633333	1	2.455375
23.650000	1	2.708000
23.666667	1	2.970375
23.683333	1	3.239125
23.700000	1	3.510875
23.716667	1	3.780875
23.733333	1	4.043125
23.750000	1	4.294125
23.766667	1	4.526250
23.783333	1	4.735625
23.800000	1	4.917500
23.816667	1	5.067500
23.833333	1	5.183625
23.850000	1	5.262125
23.866667	1	5.301875
23.883333	1	5.303125
23.900000	1	5.265875
23.916667	1	5.192375
23.933333	1	5.084000
23.950000	1	4.944875
23.966667	1	4.778375
23.983333	1	4.588875
24.000000	1	4.381875
24.016667	1	4.160875
24.033333	1	3.930750
24.050000	1	3.695625
24.066667	1	3.460000
24.083333	1	3.226125
24.100000	1	2.997250
24.116667	1	2.776000
24.133333	1	2.564250
24.150000	1	2.364125
24.166667	1	2.176125
24.183333	1	2.000500
24.200000	1	1.838000
24.216667	1	1.687875
24.233333	1	1.551125
24.250000	1	1.426625
24.266667	1	1.313750
24.283333	1	1.211250
24.300000	1	1.118750
24.316667	1	1.036125
24.333333	1	0.962000
24.350000	1	0.895875
24.366667	1	0.837750
24.383333	1	0.786625
24.400000	1	0.741500
24.416667	1	0.701875
24.433333	1	0.667250
24.450000	1	0.637375
24.466667	1	0.611125
24.483333	1	0.588250
24.500000	1	0.568500
24.516667	1	0.551750
24.533333	1	0.537625
24.550000	1	0.524750
24.566667	1	0.512750
24.583333	1	0.502500
24.600000	1	0.493250
24.616667	1	0.484750
24.633333	1	0.477750
24.650000	1	0.470125
24.666667	1	0.463125
24.683333	1	0.455875
24.700000	1	0.449625
24.716667	1	0.442375
24.733333	1	0.436125
24.750000	1	0.429875
24.766667	1	0.423125
24.783333	1	0.417000
24.800000	1	0.410875
24.816667	1	0.405125
24.833333	1	0.399500
24.850000	1	0.394000
24.866667	1	0.388500
24.883333	1	0.384125
24.900000	1	0.380125
24.916667	1	0.375625
24.933333	1	0.372000
24.950000	1	0.368750
24.966667	1	0.365125
24.983333	1	0.361375
25.000000	1	0.358625
25.016667	1	0.356125
25.033333	1	0.352500
25.050000	1	0.350000
25.066667	1	0.348250
25.083333	1	0.346500
25.100000	1	0.344875
25.116667	1	0.343625
25.133333	1	0.341875
25.150000	1	0.340125
25.166667	1	0.338000
25.183333	1	0.337250
25.200000	1	0.335750
25.216667	1	0.335125
25.233333	1	0.334125
25.250000	1	0.333375
25.266667	1	0.332500
25.283333	1	0.332375
25.300000	1	0.333000
25.316667	1	0.333250
25.333333	1	0.333750
25.350000	1	0.334250
25.366667	1	0.335500
25.383333	1	0.336375
25.400000	1	0.337750
25.416667	1	0.339125
25.433333	1	0.340750
25.450000	1	0.342125
25.466667	1	0.343625
25.483333	1	0.345750
25.500000	1	0.348250
25.516667	1	0.350250
25.533333	1	0.351875
25.550000	1	0.354000
25.566667	1	0.356375
25.583333	1	0.358250
25.600000	1	0.360000
25.616667	1	0.361750
25.633333	1	0.362500
25.650000	1	0.363625
25.666667	1	0.364625
25.683333	1	0.365250
25.700000	1	0.366250
25.716667	1	0.366125
25.733333	1	0.366500
25.750000	1	0.366500
25.766667	1	0.365500
25.783333	1	0.365000
25.800000	1	0.364500
25.816667	1	0.363250
25.833333	1	0.361500
25.850000	1	0.361125
25.866667	1	0.360375
25.883333	1	0.359875
25.900000	1	0.359625
25.916667	1	0.359500
25.933333	1	0.359625
25.950000	1	0.359875
25.966667	1	0.360750
25.983333	1	0.362125
26.000000	1	0.363750
26.016667	1	0.365625
26.033333	1	0.368125
26.050000	1	0.371375
26.066667	1	0.374625
26.083333	1	0.379125
26.100000	1	0.383875
26.116667	1	0.389000
26.133333	1	0.394125
26.150000	1	0.399375
26.166667	1	0.405625
26.183333	1	0.411875
26.200000	1	0.418250
26.216667	1	0.424625
26.233333	1	0.430250
26.250000	1	0.436625
26.266667	1	0.442750
26.283333	1	0.448750
26.300000	1	0.454500
26.316667	1	0.459750
26.333333	1	0.463750
26.350000	1	0.467500
26.366667	1	0.470750
26.383333	1	0.472500
26.400000	1	0.473750
26.416667	1	0.474375
26.433333	1	0.473625
26.450000	1	0.471750
26.466667	1	0.469750
26.483333	1	0.466375
26.500000	1	0.462125
26.516667	1	0.457375
26.533333	1	0.451125
26.550000	1	0.445500
26.566667	1	0.438875
26.583333	1	0.431375
26.600000	1	0.423375
26.616667	1	0.414750
26.633333	1	0.406125
26.650000	1	0.396625
26.666667	1	0.387625
26.683333	1	0.378875
26.700000	1	0.369875
26.716667	1	0.360625
26.733333	1	0.351875
26.750000	1	0.343250
26.766667	1	0.335000
26.783333	1	0.327125
26.800000	1	0.319625
26.816667	1	0.312500
26.833333	1	0.305625
26.850000	1	0.299250
26.866667	1	0.293625
26.883333	1	0.289000
26.900000	1	0.284000
26.916667	1	0.279875
26.933333	1	0.276500
26.950000	1	0.273250
26.966667	1	0.270875
26.983333	1	0.268625
27.000000	1	0.267375
27.016667	1	0.266750
27.033333	1	0.266500
27.050000	1	0.267375
27.066667	1	0.269750
27.083333	1	0.272500
27.100000	1	0.276500
27.116667	1	0.280625
27.133333	1	0.285000
27.150000	1	0.291625
27.166667	1	0.299625
27.183333	1	0.308500
27.200000	1	0.318625
27.216667	1	0.331625
27.233333	1	0.346000
27.250000	1	0.362750
27.266667	1	0.381750
27.283333	1	0.404000
27.300000	1	0.429500
27.316667	1	0.458750
27.333333	1	0.491750
27.350000	1	0.529125
27.366667	1	0.572000
27.383333	1	0.620000
27.400000	1	0.674250
27.416667	1	0.735125
27.433333	1	0.804000
27.450000	1	0.880250
27.466667	1	0.964500
27.483333	1	1.058000
27.500000	1	1.160250
27.516667	1	1.272625
27.533333	1	1.393875
27.550000	1	1.525000
27.566667	1	1.665250
27.583333	1	1.813375
27.600000	1	1.970000
27.616667	1	2.134000
27.633333	1	2.303500
27.650000	1	2.478375
27.666667	1	2.655375
27.683333	1	2.833625
27.700000	1	3.011000
27.716667	1	3.184375
27.733333	1	3.352000
27.750000	1	3.510750
27.766667	1	3.658000
27.783333	1	3.792000
27.800000	1	3.910750
27.816667	1	4.011875
27.833333	1	4.093625
27.850000	1	4.154375
27.866667	1	4.192875
27.883333	1	4.208750
27.900000	1	4.200625
27.916667	1	4.169375
27.933333	1	4.115375
27.950000	1	4.040125
27.966667	1	3.943875
27.983333	1	3.829875
28.000000	1	3.699625
28.016667	1	3.555125
28.033333	1	3.399000
28.050000	1	3.232750
28.066667	1	3.060250
28.083333	1	2.883750
28.100000	1	2.705625
28.116667	1	2.528000
28.133333	1	2.353750
28.150000	1	2.183250
28.166667	1	2.019000
28.183333	1	1.862625
28.200000	1	1.714750
28.216667	1	1.575625
28.233333	1	1.446625
28.250000	1	1.326250
28.266667	1	1.215750
28.283333	1	1.114875
28.300000	1	1.022625
28.316667	1	0.939750
28.333333	1	0.866125
28.350000	1	0.800375
28.366667	1	0.741625
28.383333	1	0.690375
28.400000	1	0.645875
28.416667	1	0.607250
28.433333	1	0.574125
28.450000	1	0.546750
28.466667	1	0.523500
28.483333	1	0.505125
28.500000	1	0.490375
28.516667	1	0.479000
28.533333	1	0.470750
28.550000	1	0.465375
28.566667	1	0.462500
28.583333	1	0.462375
28.600000	1	0.464625
28.616667	1	0.468625
28.633333	1	0.473500
28.650000	1	0.480125
28.666667	1	0.488000
28.683333	1	0.496125
28.700000	1	0.505125
28.716667	1	0.514250
28.733333	1	0.524125
28.750000	1	0.533875
28.766667	1	0.544250
28.783333	1	0.553500
28.800000	1	0.563000
28.816667	1	0.571375
28.833333	1	0.579375
28.850000	1	0.585500
28.866667	1	0.591750
28.883333	1	0.596625
28.900000	1	0.600000
28.916667	1	0.602250
28.933333	1	0.603125
28.950000	1	0.602750
28.966667	1	0.600750
28.983333	1	0.596000
29.000000	1	0.590750
29.016667	1	0.584125
29.033333	1	0.575625
29.050000	1	0.565625
29.066667	1	0.553625
29.083333	1	0.539250
29.100000	1	0.523125
29.116667	1	0.505125
29.133333	1	0.485625
29.150000	1	0.463750
29.166667	1	0.440125
29.183333	1	0.414250
29.200000	1	0.386750
29.216667	1	0.357125
29.233333	1	0.324750
29.250000	1	0.291250
29.266667	1	0.254625
29.283333	1	0.217250
29.300000	1	0.177375
29.316667	1	0.135750
29.333333	1	0.091625
29.350000	1	0.046000
29.366667	1	-0.002250
29.383333	1	-0.051250
29.400000	1	-0.101500
29.416667	1	-0.154750
29.433333	1	-0.208000
29.450000	1	-0.261875
29.466667	1	-0.317000
29.483333	1	-0.371500
29.500000	1	-0.426000
29.516667	1	-0.481000
29.533333	1	-0.534250
29.550000	1	-0.587375
29.566667	1	-0.637625
29.583333	1	-0.686250
29.600000	1	-0.732000
29.616667	1	-0.775625
29.633333	1	-0.815250
29.650000	1	-0.852375
29.666667	1	-0.885375
29.683333	1	-0.914750
29.700000	1	-0.939250
29.716667	1	-0.959000
29.733333	1	-0.974000
29.750000	1	-0.984875
29.766667	1	-0.990250
29.783333	1	-0.991625
29.800000	1	-0.987625
29.816667	1	-0.979500
29.833333	1	-0.967375
29.850000	1	-0.950625
29.866667	1	-0.930250
29.883333	1	-0.905875
29.900000	1	-0.878250
29.916667	1	-0.847875
29.933333	1	-0.815250
29.950000	1	-0.779875
29.966667	1	-0.743000
29.983333	1	-0.705000
30.000000	1	-0.665750
30.016667	1	-0.626000
30.033333	1	-0.586375
30.050000	1	-0.545500
30.066667	1	-0.505000
30.083333	1	-0.465500
30.100000	1	-0.426875
30.116667	1	-0.389000
30.133333	1	-0.352000
30.150000	1	-0.317250
30.166667	1	-0.282750
30.183333	1	-0.250125
30.200000	1	-0.219000
30.216667	1	-0.188875
30.233333	1	-0.159750
30.250000	1	-0.132500
30.266667	1	-0.106000
30.283333	1	-0.082125
30.300000	1	-0.060250
30.316667	1	-0.039375
30.333333	1	-0.019750
30.350000	1	-0.000625
30.366667	1	0.017000
30.383333	1	0.032750
30.400000	1	0.048000
30.416667	1	0.061875
30.433333	1	0.075125
30.450000	1	0.087625
30.466667	1	0.099375
30.483333	1	0.110250
30.500000	1	0.120375
30.516667	1	0.130000
30.533333	1	0.138875
30.550000	1	0.147875
30.566667	1	0.156250
30.583333	1	0.164750
30.600000	1	0.172000
30.616667	1	0.179750
30.633333	1	0.188250
30.650000	1	0.196125
30.666667	1	0.204750
30.683333	1	0.213625
30.700000	1	0.222125
30.716667	1	0.231375
30.733333	1	0.240625
30.750000	1	0.250500
30.766667	1	0.261000
30.783333	1	0.272250
30.800000	1	0.284375
30.816667	1	0.297125
30.833333	1	0.311125
30.850000	1	0.325750
30.866667	1	0.342750
30.883333	1	0.361125
30.900000	1	0.381500
30.916667	1	0.403250
30.933333	1	0.427875
30.950000	1	0.456125
30.966667	1	0.487750
30.983333	1	0.522625
31.000000	1	0.562375
31.016667	1	0.607250
31.033333	1	0.658125
31.050000	1	0.714750
31.066667	1	0.778875
31.083333	1	0.849500
31.100000	1	0.929250
31.116667	1	1.017625
31.133333	1	1.115875
31.150000	1	1.225000
31.166667	1	1.345375
31.183333	1	1.476750
31.200000	1	1.621000
31.216667	1	1.777375
31.233333	1	1.946250
31.250000	1	2.128500
31.266667	1	2.322375
31.283333	1	2.527750
31.300000	1	2.743250
31.316667	1	2.969250
31.333333	1	3.203500
31.350000	1	3.444625
31.366667	1	3.690750
31.383333	1	3.940000
31.400000	1	4.190000
31.416667	1	4.439125
31.433333	1	4.683625
31.450000	1	4.920500
31.466667	1	5.146625
31.483333	1	5.360000
31.500000	1	5.557750
31.516667	1	5.737250
31.533333	1	5.897375
31.550000	1	6.034750
31.566667	1	6.149000
31.583333	1	6.236500
31.600000	1	6.298500
31.616667	1	6.333125
31.633333	1	6.340000
31.650000	1	6.319625
31.666667	1	6.272500
31.683333	1	6.198750
31.700000	1	6.100250
31.716667	1	5.979375
31.733333	1	5.837625
31.750000	1	5.677000
31.766667	1	5.499375
31.783333	1	5.307375
31.800000	1	5.103375
31.816667	1	4.889375
31.833333	1	4.668125
31.850000	1	4.442500
31.866667	1	4.214000
31.883333	1	3.984750
31.900000	1	3.756250
31.916667	1	3.532250
31.933333	1	3.312250
31.950000	1	3.098250
31.966667	1	2.890250
31.983333	1	2.689750
32.000000	1	2.497250
32.016667	1	2.314000
32.033333	1	2.140250
32.050000	1	1.975125
32.066667	1	1.819750
32.083333	1	1.673375
32.100000	1	1.537375
32.116667	1	1.409875
32.133333	1	1.290250
32.150000	1	1.179750
32.166667	1	1.077250
32.183333	1	0.982625
32.200000	1	0.895250
32.216667	1	0.814500
32.233333	1	0.739875
32.250000	1	0.671500
32.266667	1	0.608625
32.283333	1	0.551125
32.300000	1	0.498875
32.316667	1	0.450500
32.333333	1	0.406875
32.350000	1	0.366750
32.366667	1	0.330750
32.383333	1	0.297500
32.400000	1	0.267625
32.416667	1	0.240500
32.433333	1	0.215750
32.450000	1	0.193125
32.466667	1	0.174000
32.483333	1	0.155750
32.500000	1	0.139125
32.516667	1	0.124000
32.533333	1	0.110500
32.550000	1	0.098875
32.566667	1	0.087875
32.583333	1	0.078875
32.600000	1	0.070000
32.616667	1	0.062125
32.633333	1	0.054250
32.650000	1	0.047625
32.666667	1	0.042125
32.683333	1	0.037250
32.700000	1	0.032625
32.716667	1	0.028750
32.733333	1	0.026125
32.750000	1	0.023625
32.766667	1	0.021000
32.783333	1	0.018750
32.800000	1	0.017500
32.816667	1	0.016750
32.833333	1	0.015250
32.850000	1	0.014625
32.866667	1	0.014250
32.883333	1	0.014250
32.900000	1	0.014875
32.916667	1	0.014875
32.933333	1	0.015875
32.950000	1	0.017125
32.966667	1	0.018625
32.983333	1	0.019375
33.000000	1	0.021125
33.016667	1	0.023000
33.033333	1	0.024625
33.050000	1	0.027250
33.066667	1	0.029125
33.083333	1	0.031250
33.100000	1	0.033000
33.116667	1	0.034750
33.133333	1	0.036375
33.150000	1	0.037875
33.166667	1	0.040625
33.183333	1	0.043250
33.200000	1	0.045625
33.216667	1	0.047625
33.233333	1	0.049125
33.250000	1	0.050625
33.266667	1	0.053000
33.283333	1	0.055625
33.300000	1	0.057250
33.316667	1	0.059000
33.333333	1	0.060500
33.350000	1	0.062500
33.366667	1	0.064375
33.383333	1	0.066625
33.400000	1	0.067625
33.416667	1	0.068625
33.433333	1	0.070375
33.450000	1	0.071125
33.466667	1	0.072500
33.483333	1	0.073750
33.500000	1	0.075000
33.516667	1	0.076125
33.533333	1	0.077125
33.550000	1	0.078500
33.566667	1	0.079875
33.583333	1	0.080375
33.600000	1	0.081500
33.616667	1	0.082500
33.633333	1	0.083625
33.650000	1	0.084125
33.666667	1	0.084750
33.683333	1	0.085875
33.700000	1	0.087000
33.716667	1	0.088375
33.733333	1	0.090000
33.750000	1	0.092375
33.766667	1	0.094500
33.783333	1	0.096000
33.800000	1	0.097875
33.816667	1	0.099625
33.833333	1	0.102125
33.850000	1	0.103875
33.866667	1	0.105750
33.883333	1	0.107875
33.900000	1	0.110125
33.916667	1	0.112250
33.933333	1	0.114375
33.950000	1	0.116500
33.966667	1	0.118250
33.983333	1	0.120250
34.000000	1	0.121875
34.016667	1	0.123750
34.033333	1	0.125250
34.050000	1	0.126625
34.066667	1	0.127500
34.083333	1	0.128125
34.100000	1	0.128750
34.116667	1	0.128875
34.133333	1	0.129625
34.150000	1	0.129750
34.166667	1	0.129875
34.183333	1	0.129625
34.200000	1	0.129500
34.216667	1	0.128750
34.233333	1	0.127750
34.250000	1	0.127125
34.266667	1	0.126125
34.283333	1	0.125000
34.300000	1	0.124125
34.316667	1	0.123375
34.333333	1	0.122375
34.350000	1	0.121250
34.366667	1	0.120500
34.383333	1	0.119250
34.400000	1	0.118500
34.416667	1	0.117250
34.433333	1	0.116500
34.450000	1	0.115250
34.466667	1	0.114750
34.483333	1	0.113875
34.500000	1	0.113500
34.516667	1	0.112750
34.533333	1	0.113000
34.550000	1	0.112625
34.566667	1	0.112625
34.583333	1	0.113000
34.600000	1	0.113375
34.616667	1	0.113625
34.633333	1	0.113875
34.650000	1	0.114125
34.666667	1	0.114375
34.683333	1	0.114750
34.700000	1	0.114875
34.716667	1	0.115750
34.733333	1	0.116000
34.750000	1	0.116500
34.766667	1	0.116500
34.783333	1	0.116500
34.800000	1	0.116750
34.816667	1	0.117500
34.833333	1	0.117250
34.850000	1	0.117500
34.866667	1	0.117625
34.883333	1	0.118125
34.900000	1	0.117875
34.916667	1	0.118000
34.933333	1	0.118000
34.950000	1	0.118750
34.966667	1	0.119500
34.983333	1	0.119625
35.000000	1	0.120250
35.016667	1	0.120375
35.033333	1	0.121625
35.050000	1	0.121875
35.066667	1	0.122500
35.083333	1	0.123250
35.100000	1	0.123750
35.116667	1	0.124750
35.133333	1	0.126125
35.150000	1	0.127250
35.166667	1	0.128500
35.183333	1	0.129500
35.200000	1	0.130875
35.216667	1	0.132625
35.233333	1	0.134125
35.250000	1	0.135125
35.266667	1	0.137125
35.283333	1	0.137625
35.300000	1	0.139250
35.316667	1	0.140625
35.333333	1	0.142125
35.350000	1	0.143125
35.366667	1	0.143625
35.383333	1	0.144000
35.400000	1	0.144125
35.416667	1	0.145125
35.433333	1	0.144750
35.450000	1	0.145500
35.466667	1	0.145375
35.483333	1	0.145250
35.500000	1	0.145500
35.516667	1	0.145625
35.533333	1	0.145750
35.550000	1	0.145625
35.566667	1	0.145625
35.583333	1	0.145000
35.600000	1	0.143750
35.616667	1	0.143250
35.633333	1	0.142625
35.650000	1	0.142750
35.666667	1	0.142375
35.683333	1	0.142125
35.700000	1	0.141750
35.716667	1	0.141500
35.733333	1	0.140875
35.750000	1	0.140250
35.766667	1	0.139875
35.783333	1	0.139000
35.800000	1	0.137375
35.816667	1	0.136250
35.833333	1	0.135500
35.850000	1	0.134875
35.866667	1	0.134375
35.883333	1	0.132875
35.900000	1	0.131125
35.916667	1	0.129750
35.933333	1	0.128250
35.950000	1	0.127375
35.966667	1	0.125625
35.983333	1	0.123250
36.000000	1	0.121250
36.016667	1	0.119750
36.033333	1	0.118375
36.050000	1	0.116500
36.066667	1	0.115000
36.083333	1	0.114125
36.100000	1	0.112625
36.116667	1	0.112000
36.133333	1	0.110125
36.150000	1	0.109875
36.166667	1	0.109625
36.183333	1	0.109750
36.200000	1	0.108875
36.216667	1	0.109750
36.233333	1	0.110125
36.250000	1	0.110625
36.266667	1	0.110375
36.283333	1	0.111500
36.300000	1	0.112250
36.316667	1	0.114125
36.333333	1	0.115250
36.350000	1	0.117250
36.366667	1	0.118500
36.383333	1	0.119625
36.400000	1	0.120750
36.416667	1	0.122125
36.433333	1	0.123375
36.450000	1	0.124375
36.466667	1	0.125500
36.483333	1	0.126000
36.500000	1	0.126875
36.516667	1	0.127250
36.533333	1	0.127750
36.550000	1	0.127500
36.566667	1	0.127625
36.583333	1	0.126750
36.600000	1	0.125500
36.616667	1	0.123875
36.633333	1	0.122250
36.650000	1	0.120125
36.666667	1	0.117625
36.683333	1	0.114750
36.700000	1	0.112375
36.716667	1	0.109750
36.733333	1	0.107250
36.750000	1	0.104375
36.766667	1	0.101500
36.783333	1	0.098625
36.800000	1	0.095750
36.816667	1	0.091875
36.833333	1	0.089000
36.850000	1	0.085750
36.866667	1	0.083000
36.883333	1	0.080750
36.900000	1	0.078250
36.916667	1	0.076125
36.933333	1	0.074000
36.950000	1	0.072000
36.966667	1	0.070250
36.983333	1	0.069000
37.000000	1	0.068000
37.016667	1	0.067500
37.033333	1	0.067125
37.050000	1	0.066750
37.066667	1	0.066500
37.083333	1	0.066750
37.100000	1	0.066750
37.116667	1	0.066875
37.133333	1	0.066750
37.150000	1	0.067500
37.166667	1	0.069000
37.183333	1	0.069250
37.200000	1	0.070000
37.216667	1	0.070625
37.233333	1	0.071375
37.250000	1	0.071625
37.266667	1	0.072125
37.283333	1	0.072250
37.300000	1	0.072375
37.316667	1	0.072500
37.333333	1	0.072500
37.350000	1	0.072250
37.366667	1	0.071750
37.383333	1	0.071500
37.400000	1	0.070375
37.416667	1	0.069750
37.433333	1	0.068125
37.450000	1	0.067000
37.466667	1	0.066000
37.483333	1	0.064875
37.500000	1	0.063125
37.516667	1	0.061125
37.533333	1	0.058500
37.550000	1	0.056500
37.566667	1	0.054000
37.583333	1	0.051875
37.600000	1	0.049375
37.616667	1	0.047000
37.633333	1	0.043875
37.650000	1	0.041500
37.666667	1	0.039000
37.683333	1	0.037125
37.700000	1	0.034125
37.716667	1	0.032125
37.733333	1	0.029625
37.750000	1	0.026875
37.766667	1	0.024250
37.783333	1	0.022500
37.800000	1	0.021250
37.816667	1	0.019375
37.833333	1	0.017500
37.850000	1	0.016250
37.866667	1	0.014500
37.883333	1	0.013500
37.900000	1	0.012625
37.916667	1	0.011875
37.933333	1	0.012000
37.950000	1	0.011500
37.966667	1	0.011500
37.983333	1	0.011625
38.000000	1	0.011375
38.016667	1	0.011750
38.033333	1	0.012125
38.050000	1	0.012750
38.066667	1	0.013625
38.083333	1	0.015125
38.100000	1	0.016000
38.116667	1	0.017625
38.133333	1	0.019000
38.150000	1	0.020500
38.166667	1	0.022000
38.183333	1	0.023625
38.200000	1	0.025500
38.216667	1	0.027375
38.233333	1	0.029250
38.250000	1	0.031375
38.266667	1	0.033375
38.283333	1	0.035375
38.300000	1	0.037250
38.316667	1	0.039125
38.333333	1	0.040625
38.350000	1	0.043000
38.366667	1	0.044625
38.383333	1	0.046500
38.400000	1	0.048000
38.416667	1	0.049000
38.433333	1	0.051000
38.450000	1	0.051750
38.466667	1	0.053125
38.483333	1	0.054125
38.500000	1	0.055125
38.516667	1	0.055500
38.533333	1	0.056000
38.550000	1	0.056625
38.566667	1	0.056875
38.583333	1	0.057375
38.600000	1	0.058250
38.616667	1	0.058625
38.633333	1	0.058875
38.650000	1	0.058750
38.666667	1	0.058875
38.683333	1	0.058500
38.700000	1	0.058500
38.716667	1	0.058500
38.733333	1	0.058375
38.750000	1	0.058125
38.766667	1	0.058000
38.783333	1	0.058625
38.800000	1	0.058625
38.816667	1	0.058000
38.833333	1	0.057875
38.850000	1	0.058250
38.866667	1	0.058625
38.883333	1	0.058875
38.900000	1	0.059125
38.916667	1	0.059125
38.933333	1	0.058500
38.950000	1	0.058375
38.966667	1	0.058375
38.983333	1	0.058750
39.000000	1	0.058625
39.016667	1	0.058875
39.033333	1	0.058250
39.050000	1	0.057250
39.066667	1	0.056625
39.083333	1	0.056125
39.100000	1	0.055125
39.116667	1	0.054000
39.133333	1	0.052500
39.150000	1	0.051375
39.166667	1	0.049875
39.183333	1	0.047875
39.200000	1	0.046500
39.216667	1	0.044500
39.233333	1	0.041875
39.250000	1	0.040250
39.266667	1	0.038500
39.283333	1	0.036375
39.300000	1	0.034625
39.316667	1	0.032750
39.333333	1	0.030375
39.350000	1	0.028625
39.366667	1	0.027000
39.383333	1	0.025250
39.400000	1	0.023875
39.416667	1	0.022375
39.433333	1	0.021000
39.450000	1	0.020125
39.466667	1	0.019250
39.483333	1	0.019500
39.500000	1	0.019625
39.516667	1	0.019500
39.533333	1	0.019000
39.550000	1	0.019250
39.566667	1	0.019000
39.583333	1	0.019125
39.600000	1	0.019500
39.616667	1	0.020750
39.633333	1	0.022000
39.650000	1	0.023250
39.666667	1	0.024500
39.683333	1	0.026125
39.700000	1	0.026625
39.716667	1	0.027875
39.733333	1	0.029125
39.750000	1	0.031375
39.766667	1	0.033000
39.783333	1	0.034125
39.800000	1	0.035375
39.816667	1	0.036500
39.833333	1	0.037250
39.850000	1	0.038250
39.866667	1	0.039875
39.883333	1	0.041375
39.900000	1	0.041750
39.916667	1	0.043250
39.933333	1	0.044250
39.950000	1	0.044875
39.966667	1	0.045250
39.983333	1	0.045375
40.000000	1	0.046000
