URL	chrom://bioreactor/micro_cm7/HPLC_Ultimate_3000/Users/markusar/20240517_CMO_FP23_FP25_MarkusDeplate.seq/214.smp/RI_1.channel/RI_1.chm
Channel	RI_1

Injection Information:
Data Vault	micro_cm7
Sequence	20240517_CMO_FP23_FP25_MarkusDeplate
Name	FP28_22.1_s5
Number	140
Position	BA6
Comment	
Processing Method	
Instrument Method	run_25B_method
Type	Unknown
Status	Finished
Inject Time	31.05.2024 18:43:36 +02:00
Volume (µl)	20.0000
Dilution Factor	1.0000
Weight	1.0000

Chromatogram Data Information:
Time Min. (min)	0.000000
Time Max. (min)	40.000000
Data Points	2401
Detector	RI
Generating Data System	Chromeleon 7.3.2.11814
Exporting Data System	Chromeleon 7.3.2.0
Operator	Instrument Controller
Signal Quantity	Refractive 
Signal Unit	µRIU
Signal Min.	-1.159250
Signal Max.	49.107375
Channel	RI_1
Driver Name	RID520Driver.dll
Channel Type	Evaluation
Min. Step (s)	1
Max. Step (s)	1
Average Step (s)	1

Signal Parameter Information:
Signal Info	

Chromatogram Data:
Time (min)	Step (s)	Value (µRIU)
0.000000	n.a.	0.050750
0.016667	1	0.052500
0.033333	1	0.053250
0.050000	1	0.054125
0.066667	1	0.054625
0.083333	1	0.055500
0.100000	1	0.056000
0.116667	1	0.056250
0.133333	1	0.056375
0.150000	1	0.056375
0.166667	1	0.055375
0.183333	1	0.054500
0.200000	1	0.054375
0.216667	1	0.052625
0.233333	1	0.052125
0.250000	1	0.051000
0.266667	1	0.050000
0.283333	1	0.048125
0.300000	1	0.047625
0.316667	1	0.047000
0.333333	1	0.045875
0.350000	1	0.044875
0.366667	1	0.043375
0.383333	1	0.041750
0.400000	1	0.039875
0.416667	1	0.038250
0.433333	1	0.036625
0.450000	1	0.035750
0.466667	1	0.034500
0.483333	1	0.033750
0.500000	1	0.032375
0.516667	1	0.031250
0.533333	1	0.029875
0.550000	1	0.028375
0.566667	1	0.026375
0.583333	1	0.024625
0.600000	1	0.023375
0.616667	1	0.022250
0.633333	1	0.020750
0.650000	1	0.018750
0.666667	1	0.017000
0.683333	1	0.016000
0.700000	1	0.015125
0.716667	1	0.013875
0.733333	1	0.012375
0.750000	1	0.012125
0.766667	1	0.011000
0.783333	1	0.010375
0.800000	1	0.009750
0.816667	1	0.009625
0.833333	1	0.009375
0.850000	1	0.008625
0.866667	1	0.008500
0.883333	1	0.008000
0.900000	1	0.008000
0.916667	1	0.007750
0.933333	1	0.007750
0.950000	1	0.008250
0.966667	1	0.008375
0.983333	1	0.008125
1.000000	1	0.007875
1.016667	1	0.007375
1.033333	1	0.007625
1.050000	1	0.007750
1.066667	1	0.008000
1.083333	1	0.007375
1.100000	1	0.007625
1.116667	1	0.007750
1.133333	1	0.007625
1.150000	1	0.007500
1.166667	1	0.007625
1.183333	1	0.007250
1.200000	1	0.006250
1.216667	1	0.005625
1.233333	1	0.005250
1.250000	1	0.005875
1.266667	1	0.004875
1.283333	1	0.005500
1.300000	1	0.005000
1.316667	1	0.004625
1.333333	1	0.003875
1.350000	1	0.004250
1.366667	1	0.004375
1.383333	1	0.004000
1.400000	1	0.003375
1.416667	1	0.003375
1.433333	1	0.003375
1.450000	1	0.003625
1.466667	1	0.004125
1.483333	1	0.004000
1.500000	1	0.004375
1.516667	1	0.004375
1.533333	1	0.004500
1.550000	1	0.003875
1.566667	1	0.004125
1.583333	1	0.003625
1.600000	1	0.003875
1.616667	1	0.002750
1.633333	1	0.003125
1.650000	1	0.003000
1.666667	1	0.002500
1.683333	1	0.001375
1.700000	1	0.000375
1.716667	1	0.000250
1.733333	1	-0.001000
1.750000	1	-0.002125
1.766667	1	-0.003250
1.783333	1	-0.005000
1.800000	1	-0.006250
1.816667	1	-0.007250
1.833333	1	-0.008500
1.850000	1	-0.009250
1.866667	1	-0.010000
1.883333	1	-0.011625
1.900000	1	-0.013375
1.916667	1	-0.015000
1.933333	1	-0.016125
1.950000	1	-0.017125
1.966667	1	-0.018250
1.983333	1	-0.019000
2.000000	1	-0.019875
2.016667	1	-0.020500
2.033333	1	-0.021375
2.050000	1	-0.022125
2.066667	1	-0.022625
2.083333	1	-0.022375
2.100000	1	-0.022750
2.116667	1	-0.022625
2.133333	1	-0.023000
2.150000	1	-0.022875
2.166667	1	-0.022250
2.183333	1	-0.021625
2.200000	1	-0.021000
2.216667	1	-0.019875
2.233333	1	-0.018625
2.250000	1	-0.017750
2.266667	1	-0.016250
2.283333	1	-0.015250
2.300000	1	-0.013500
2.316667	1	-0.010875
2.333333	1	-0.008375
2.350000	1	-0.006750
2.366667	1	-0.005125
2.383333	1	-0.003250
2.400000	1	-0.001250
2.416667	1	0.000375
2.433333	1	0.003125
2.450000	1	0.005500
2.466667	1	0.009000
2.483333	1	0.011375
2.500000	1	0.013250
2.516667	1	0.016625
2.533333	1	0.019375
2.550000	1	0.022000
2.566667	1	0.024500
2.583333	1	0.027875
2.600000	1	0.030500
2.616667	1	0.033750
2.633333	1	0.036375
2.650000	1	0.039875
2.666667	1	0.042625
2.683333	1	0.046000
2.700000	1	0.049000
2.716667	1	0.052375
2.733333	1	0.055250
2.750000	1	0.057750
2.766667	1	0.060250
2.783333	1	0.062250
2.800000	1	0.064750
2.816667	1	0.066875
2.833333	1	0.068500
2.850000	1	0.070250
2.866667	1	0.071875
2.883333	1	0.072125
2.900000	1	0.072875
2.916667	1	0.073000
2.933333	1	0.073250
2.950000	1	0.072875
2.966667	1	0.072750
2.983333	1	0.071750
3.000000	1	0.071000
3.016667	1	0.069750
3.033333	1	0.068625
3.050000	1	0.067500
3.066667	1	0.066250
3.083333	1	0.064375
3.100000	1	0.063125
3.116667	1	0.061250
3.133333	1	0.059250
3.150000	1	0.057500
3.166667	1	0.056250
3.183333	1	0.054625
3.200000	1	0.053000
3.216667	1	0.050875
3.233333	1	0.049375
3.250000	1	0.048625
3.266667	1	0.047625
3.283333	1	0.046625
3.300000	1	0.045125
3.316667	1	0.044250
3.333333	1	0.044125
3.350000	1	0.044500
3.366667	1	0.043875
3.383333	1	0.044125
3.400000	1	0.044000
3.416667	1	0.044375
3.433333	1	0.044875
3.450000	1	0.044750
3.466667	1	0.045250
3.483333	1	0.045000
3.500000	1	0.046000
3.516667	1	0.046375
3.533333	1	0.046875
3.550000	1	0.048000
3.566667	1	0.049500
3.583333	1	0.050500
3.600000	1	0.051250
3.616667	1	0.052375
3.633333	1	0.053375
3.650000	1	0.054875
3.666667	1	0.057000
3.683333	1	0.058000
3.700000	1	0.059625
3.716667	1	0.061500
3.733333	1	0.062750
3.750000	1	0.064875
3.766667	1	0.066750
3.783333	1	0.069000
3.800000	1	0.070750
3.816667	1	0.073375
3.833333	1	0.075625
3.850000	1	0.077375
3.866667	1	0.079500
3.883333	1	0.082375
3.900000	1	0.085125
3.916667	1	0.087000
3.933333	1	0.089125
3.950000	1	0.090625
3.966667	1	0.092000
3.983333	1	0.094250
4.000000	1	0.096250
4.016667	1	0.097750
4.033333	1	0.099500
4.050000	1	0.100875
4.066667	1	0.102250
4.083333	1	0.103250
4.100000	1	0.103750
4.116667	1	0.104500
4.133333	1	0.105375
4.150000	1	0.105750
4.166667	1	0.106125
4.183333	1	0.106250
4.200000	1	0.105875
4.216667	1	0.106250
4.233333	1	0.106250
4.250000	1	0.106250
4.266667	1	0.106375
4.283333	1	0.106000
4.300000	1	0.105750
4.316667	1	0.105625
4.333333	1	0.105000
4.350000	1	0.105250
4.366667	1	0.105125
4.383333	1	0.105625
4.400000	1	0.105750
4.416667	1	0.106500
4.433333	1	0.106875
4.450000	1	0.107875
4.466667	1	0.108500
4.483333	1	0.108875
4.500000	1	0.109750
4.516667	1	0.110625
4.533333	1	0.111625
4.550000	1	0.113500
4.566667	1	0.114750
4.583333	1	0.117125
4.600000	1	0.118500
4.616667	1	0.120500
4.633333	1	0.123000
4.650000	1	0.124750
4.666667	1	0.126500
4.683333	1	0.128250
4.700000	1	0.130000
4.716667	1	0.132125
4.733333	1	0.133625
4.750000	1	0.136250
4.766667	1	0.138750
4.783333	1	0.141250
4.800000	1	0.142875
4.816667	1	0.145625
4.833333	1	0.147750
4.850000	1	0.149625
4.866667	1	0.152000
4.883333	1	0.155000
4.900000	1	0.157000
4.916667	1	0.159625
4.933333	1	0.162375
4.950000	1	0.164875
4.966667	1	0.167875
4.983333	1	0.171250
5.000000	1	0.173500
5.016667	1	0.176000
5.033333	1	0.179000
5.050000	1	0.182000
5.066667	1	0.184875
5.083333	1	0.187375
5.100000	1	0.190500
5.116667	1	0.192250
5.133333	1	0.194750
5.150000	1	0.196625
5.166667	1	0.199625
5.183333	1	0.202250
5.200000	1	0.204875
5.216667	1	0.207750
5.233333	1	0.210250
5.250000	1	0.212375
5.266667	1	0.214625
5.283333	1	0.215625
5.300000	1	0.218125
5.316667	1	0.219750
5.333333	1	0.221500
5.350000	1	0.223750
5.366667	1	0.226000
5.383333	1	0.227875
5.400000	1	0.230000
5.416667	1	0.231625
5.433333	1	0.233875
5.450000	1	0.235625
5.466667	1	0.237000
5.483333	1	0.238125
5.500000	1	0.239750
5.516667	1	0.241750
5.533333	1	0.243125
5.550000	1	0.244250
5.566667	1	0.245625
5.583333	1	0.246500
5.600000	1	0.247375
5.616667	1	0.248875
5.633333	1	0.250625
5.650000	1	0.252000
5.666667	1	0.253125
5.683333	1	0.254375
5.700000	1	0.255500
5.716667	1	0.256375
5.733333	1	0.257750
5.750000	1	0.259625
5.766667	1	0.260625
5.783333	1	0.261375
5.800000	1	0.262875
5.816667	1	0.264875
5.833333	1	0.267000
5.850000	1	0.267375
5.866667	1	0.268875
5.883333	1	0.270875
5.900000	1	0.272500
5.916667	1	0.273875
5.933333	1	0.275250
5.950000	1	0.277125
5.966667	1	0.278375
5.983333	1	0.279250
6.000000	1	0.280625
6.016667	1	0.281375
6.033333	1	0.282375
6.050000	1	0.283625
6.066667	1	0.284125
6.083333	1	0.284875
6.100000	1	0.284500
6.116667	1	0.284250
6.133333	1	0.283250
6.150000	1	0.281875
6.166667	1	0.280500
6.183333	1	0.279625
6.200000	1	0.277250
6.216667	1	0.275000
6.233333	1	0.271875
6.250000	1	0.268375
6.266667	1	0.265000
6.283333	1	0.261875
6.300000	1	0.257625
6.316667	1	0.253750
6.333333	1	0.248875
6.350000	1	0.243250
6.366667	1	0.238375
6.383333	1	0.233625
6.400000	1	0.228250
6.416667	1	0.222125
6.433333	1	0.216875
6.450000	1	0.211750
6.466667	1	0.206500
6.483333	1	0.200125
6.500000	1	0.194500
6.516667	1	0.188250
6.533333	1	0.182625
6.550000	1	0.177375
6.566667	1	0.172000
6.583333	1	0.165875
6.600000	1	0.160750
6.616667	1	0.155250
6.633333	1	0.149750
6.650000	1	0.144125
6.666667	1	0.138750
6.683333	1	0.134750
6.700000	1	0.130625
6.716667	1	0.126750
6.733333	1	0.123500
6.750000	1	0.119625
6.766667	1	0.115375
6.783333	1	0.112500
6.800000	1	0.110125
6.816667	1	0.107875
6.833333	1	0.105625
6.850000	1	0.103250
6.866667	1	0.101750
6.883333	1	0.100500
6.900000	1	0.099500
6.916667	1	0.098625
6.933333	1	0.098875
6.950000	1	0.098500
6.966667	1	0.098375
6.983333	1	0.098750
7.000000	1	0.098875
7.016667	1	0.099500
7.033333	1	0.100250
7.050000	1	0.101750
7.066667	1	0.103125
7.083333	1	0.104875
7.100000	1	0.106750
7.116667	1	0.109375
7.133333	1	0.111750
7.150000	1	0.114000
7.166667	1	0.116500
7.183333	1	0.119625
7.200000	1	0.123375
7.216667	1	0.126500
7.233333	1	0.130000
7.250000	1	0.133875
7.266667	1	0.137750
7.283333	1	0.141250
7.300000	1	0.145750
7.316667	1	0.149875
7.333333	1	0.154125
7.350000	1	0.158375
7.366667	1	0.162250
7.383333	1	0.166625
7.400000	1	0.170875
7.416667	1	0.174750
7.433333	1	0.178750
7.450000	1	0.182625
7.466667	1	0.186500
7.483333	1	0.190500
7.500000	1	0.194375
7.516667	1	0.198125
7.533333	1	0.201375
7.550000	1	0.204500
7.566667	1	0.207000
7.583333	1	0.210000
7.600000	1	0.212875
7.616667	1	0.215000
7.633333	1	0.217250
7.650000	1	0.218375
7.666667	1	0.219750
7.683333	1	0.220750
7.700000	1	0.221250
7.716667	1	0.221375
7.733333	1	0.221625
7.750000	1	0.221375
7.766667	1	0.220750
7.783333	1	0.219625
7.800000	1	0.218375
7.816667	1	0.216750
7.833333	1	0.214750
7.850000	1	0.212625
7.866667	1	0.210375
7.883333	1	0.207250
7.900000	1	0.204375
7.916667	1	0.201125
7.933333	1	0.198375
7.950000	1	0.194375
7.966667	1	0.190625
7.983333	1	0.187000
8.000000	1	0.183250
8.016667	1	0.179000
8.033333	1	0.174875
8.050000	1	0.170625
8.066667	1	0.166125
8.083333	1	0.161250
8.100000	1	0.156500
8.116667	1	0.152125
8.133333	1	0.148625
8.150000	1	0.144500
8.166667	1	0.140375
8.183333	1	0.136500
8.200000	1	0.132375
8.216667	1	0.129000
8.233333	1	0.124625
8.250000	1	0.120750
8.266667	1	0.117625
8.283333	1	0.114625
8.300000	1	0.111500
8.316667	1	0.108000
8.333333	1	0.104625
8.350000	1	0.101250
8.366667	1	0.098625
8.383333	1	0.095125
8.400000	1	0.092625
8.416667	1	0.089375
8.433333	1	0.086375
8.450000	1	0.083875
8.466667	1	0.080750
8.483333	1	0.078125
8.500000	1	0.075250
8.516667	1	0.072125
8.533333	1	0.069750
8.550000	1	0.067500
8.566667	1	0.065625
8.583333	1	0.062875
8.600000	1	0.060375
8.616667	1	0.058500
8.633333	1	0.056000
8.650000	1	0.053625
8.666667	1	0.051750
8.683333	1	0.050375
8.700000	1	0.049750
8.716667	1	0.048750
8.733333	1	0.047500
8.750000	1	0.046875
8.766667	1	0.046000
8.783333	1	0.045250
8.800000	1	0.045250
8.816667	1	0.045500
8.833333	1	0.045750
8.850000	1	0.046375
8.866667	1	0.047125
8.883333	1	0.048500
8.900000	1	0.050125
8.916667	1	0.051375
8.933333	1	0.052875
8.950000	1	0.054750
8.966667	1	0.056875
8.983333	1	0.059125
9.000000	1	0.061250
9.016667	1	0.063500
9.033333	1	0.066750
9.050000	1	0.069500
9.066667	1	0.072500
9.083333	1	0.075000
9.100000	1	0.078000
9.116667	1	0.081250
9.133333	1	0.084125
9.150000	1	0.087750
9.166667	1	0.090750
9.183333	1	0.093750
9.200000	1	0.096125
9.216667	1	0.098500
9.233333	1	0.100625
9.250000	1	0.102625
9.266667	1	0.104500
9.283333	1	0.106750
9.300000	1	0.108625
9.316667	1	0.110375
9.333333	1	0.111250
9.350000	1	0.112125
9.366667	1	0.112625
9.383333	1	0.113750
9.400000	1	0.114125
9.416667	1	0.114000
9.433333	1	0.113750
9.450000	1	0.113875
9.466667	1	0.113875
9.483333	1	0.113750
9.500000	1	0.113000
9.516667	1	0.112375
9.533333	1	0.111250
9.550000	1	0.110500
9.566667	1	0.109625
9.583333	1	0.108875
9.600000	1	0.108375
9.616667	1	0.107875
9.633333	1	0.106375
9.650000	1	0.105375
9.666667	1	0.104875
9.683333	1	0.105000
9.700000	1	0.104250
9.716667	1	0.104375
9.733333	1	0.103625
9.750000	1	0.103750
9.766667	1	0.103250
9.783333	1	0.103625
9.800000	1	0.104250
9.816667	1	0.104875
9.833333	1	0.105375
9.850000	1	0.106125
9.866667	1	0.107125
9.883333	1	0.107875
9.900000	1	0.109250
9.916667	1	0.111250
9.933333	1	0.112500
9.950000	1	0.113750
9.966667	1	0.114875
9.983333	1	0.116125
10.000000	1	0.117500
10.016667	1	0.118625
10.033333	1	0.119875
10.050000	1	0.121250
10.066667	1	0.121875
10.083333	1	0.123375
10.100000	1	0.125500
10.116667	1	0.126750
10.133333	1	0.129000
10.150000	1	0.131500
10.166667	1	0.136375
10.183333	1	0.141000
10.200000	1	0.147000
10.216667	1	0.154750
10.233333	1	0.165125
10.250000	1	0.176750
10.266667	1	0.191000
10.283333	1	0.207750
10.300000	1	0.227250
10.316667	1	0.250125
10.333333	1	0.275750
10.350000	1	0.302875
10.366667	1	0.330250
10.383333	1	0.356500
10.400000	1	0.378750
10.416667	1	0.396250
10.433333	1	0.408375
10.450000	1	0.416625
10.466667	1	0.426875
10.483333	1	0.448625
10.500000	1	0.500125
10.516667	1	0.609375
10.533333	1	0.815875
10.550000	1	1.172000
10.566667	1	1.737375
10.583333	1	2.575375
10.600000	1	3.746875
10.616667	1	5.305125
10.633333	1	7.287625
10.650000	1	9.711500
10.666667	1	12.582875
10.683333	1	15.884500
10.700000	1	19.586500
10.716667	1	23.630125
10.733333	1	27.931250
10.750000	1	32.367875
10.766667	1	36.772750
10.783333	1	40.921875
10.800000	1	44.539375
10.816667	1	47.305000
10.833333	1	48.906625
10.850000	1	49.107375
10.866667	1	47.815250
10.883333	1	45.129250
10.900000	1	41.334125
10.916667	1	36.834625
10.933333	1	32.061000
10.950000	1	27.377625
10.966667	1	23.039375
10.983333	1	19.191375
11.000000	1	15.887625
11.016667	1	13.121000
11.033333	1	10.850000
11.050000	1	9.015500
11.066667	1	7.549375
11.083333	1	6.387500
11.100000	1	5.470000
11.116667	1	4.746375
11.133333	1	4.172625
11.150000	1	3.714000
11.166667	1	3.343750
11.183333	1	3.041750
11.200000	1	2.792500
11.216667	1	2.583500
11.233333	1	2.407000
11.250000	1	2.256875
11.266667	1	2.126125
11.283333	1	2.011625
11.300000	1	1.911875
11.316667	1	1.823750
11.333333	1	1.745375
11.350000	1	1.675750
11.366667	1	1.613375
11.383333	1	1.557625
11.400000	1	1.508250
11.416667	1	1.464000
11.433333	1	1.424625
11.450000	1	1.389000
11.466667	1	1.357375
11.483333	1	1.329000
11.500000	1	1.303375
11.516667	1	1.281500
11.533333	1	1.261500
11.550000	1	1.242750
11.566667	1	1.225625
11.583333	1	1.210625
11.600000	1	1.197250
11.616667	1	1.186000
11.633333	1	1.175875
11.650000	1	1.167750
11.666667	1	1.161625
11.683333	1	1.156375
11.700000	1	1.152000
11.716667	1	1.148875
11.733333	1	1.147500
11.750000	1	1.147625
11.766667	1	1.148750
11.783333	1	1.151125
11.800000	1	1.153750
11.816667	1	1.158125
11.833333	1	1.162000
11.850000	1	1.166375
11.866667	1	1.170375
11.883333	1	1.175125
11.900000	1	1.179750
11.916667	1	1.183375
11.933333	1	1.186375
11.950000	1	1.189750
11.966667	1	1.193250
11.983333	1	1.195875
12.000000	1	1.198875
12.016667	1	1.202125
12.033333	1	1.206250
12.050000	1	1.210750
12.066667	1	1.215250
12.083333	1	1.219750
12.100000	1	1.225000
12.116667	1	1.229750
12.133333	1	1.234875
12.150000	1	1.240375
12.166667	1	1.247000
12.183333	1	1.254250
12.200000	1	1.262125
12.216667	1	1.270750
12.233333	1	1.281375
12.250000	1	1.293375
12.266667	1	1.308000
12.283333	1	1.325250
12.300000	1	1.346750
12.316667	1	1.373375
12.333333	1	1.405375
12.350000	1	1.444625
12.366667	1	1.493625
12.383333	1	1.554500
12.400000	1	1.629500
12.416667	1	1.722375
12.433333	1	1.837000
12.450000	1	1.978375
12.466667	1	2.151250
12.483333	1	2.361625
12.500000	1	2.613000
12.516667	1	2.909500
12.533333	1	3.249625
12.550000	1	3.631375
12.566667	1	4.050500
12.583333	1	4.497125
12.600000	1	4.959250
12.616667	1	5.420500
12.633333	1	5.864625
12.650000	1	6.273375
12.666667	1	6.630625
12.683333	1	6.920750
12.700000	1	7.133250
12.716667	1	7.261375
12.733333	1	7.303625
12.750000	1	7.263125
12.766667	1	7.149125
12.783333	1	6.972250
12.800000	1	6.744375
12.816667	1	6.479250
12.833333	1	6.188000
12.850000	1	5.881125
12.866667	1	5.569250
12.883333	1	5.259125
12.900000	1	4.957875
12.916667	1	4.668750
12.933333	1	4.398125
12.950000	1	4.148500
12.966667	1	3.920250
12.983333	1	3.715500
13.000000	1	3.532250
13.016667	1	3.369625
13.033333	1	3.227000
13.050000	1	3.101500
13.066667	1	2.991875
13.083333	1	2.895250
13.100000	1	2.809250
13.116667	1	2.733500
13.133333	1	2.665500
13.150000	1	2.604500
13.166667	1	2.547875
13.183333	1	2.496500
13.200000	1	2.448750
13.216667	1	2.404000
13.233333	1	2.361500
13.250000	1	2.320000
13.266667	1	2.280625
13.283333	1	2.242125
13.300000	1	2.205375
13.316667	1	2.169125
13.333333	1	2.133875
13.350000	1	2.099750
13.366667	1	2.067875
13.383333	1	2.037750
13.400000	1	2.009250
13.416667	1	1.983500
13.433333	1	1.960375
13.450000	1	1.939125
13.466667	1	1.921250
13.483333	1	1.905875
13.500000	1	1.892875
13.516667	1	1.882125
13.533333	1	1.874375
13.550000	1	1.867875
13.566667	1	1.862500
13.583333	1	1.858250
13.600000	1	1.854875
13.616667	1	1.850125
13.633333	1	1.843375
13.650000	1	1.834625
13.666667	1	1.823375
13.683333	1	1.809375
13.700000	1	1.794250
13.716667	1	1.776375
13.733333	1	1.756500
13.750000	1	1.735750
13.766667	1	1.712750
13.783333	1	1.691000
13.800000	1	1.668625
13.816667	1	1.647250
13.833333	1	1.627000
13.850000	1	1.607750
13.866667	1	1.589125
13.883333	1	1.572500
13.900000	1	1.556750
13.916667	1	1.541750
13.933333	1	1.528000
13.950000	1	1.515250
13.966667	1	1.504125
13.983333	1	1.492000
14.000000	1	1.481625
14.016667	1	1.471750
14.033333	1	1.462750
14.050000	1	1.454125
14.066667	1	1.445750
14.083333	1	1.437250
14.100000	1	1.429750
14.116667	1	1.422125
14.133333	1	1.415375
14.150000	1	1.408375
14.166667	1	1.402250
14.183333	1	1.396875
14.200000	1	1.392625
14.216667	1	1.389000
14.233333	1	1.387375
14.250000	1	1.387250
14.266667	1	1.389250
14.283333	1	1.393750
14.300000	1	1.400250
14.316667	1	1.410750
14.333333	1	1.424125
14.350000	1	1.441750
14.366667	1	1.463375
14.383333	1	1.490750
14.400000	1	1.524250
14.416667	1	1.566500
14.433333	1	1.619750
14.450000	1	1.689125
14.466667	1	1.780375
14.483333	1	1.902375
14.500000	1	2.065125
14.516667	1	2.283875
14.533333	1	2.578000
14.550000	1	2.972500
14.566667	1	3.497750
14.583333	1	4.188250
14.600000	1	5.083500
14.616667	1	6.228250
14.633333	1	7.666625
14.650000	1	9.441125
14.666667	1	11.584250
14.683333	1	14.113750
14.700000	1	17.026125
14.716667	1	20.291250
14.733333	1	23.852500
14.750000	1	27.622750
14.766667	1	31.484875
14.783333	1	35.295375
14.800000	1	38.901750
14.816667	1	42.147750
14.833333	1	44.884250
14.850000	1	46.977500
14.866667	1	48.327500
14.883333	1	48.872250
14.900000	1	48.596125
14.916667	1	47.530125
14.933333	1	45.749500
14.950000	1	43.362750
14.966667	1	40.501625
14.983333	1	37.311375
15.000000	1	33.931250
15.016667	1	30.490875
15.033333	1	27.100625
15.050000	1	23.852250
15.066667	1	20.815500
15.083333	1	18.036875
15.100000	1	15.540875
15.116667	1	13.334625
15.133333	1	11.411625
15.150000	1	9.756000
15.166667	1	8.343625
15.183333	1	7.150875
15.200000	1	6.148750
15.216667	1	5.312875
15.233333	1	4.618750
15.250000	1	4.045250
15.266667	1	3.575375
15.283333	1	3.192375
15.300000	1	2.883875
15.316667	1	2.638125
15.333333	1	2.444875
15.350000	1	2.296250
15.366667	1	2.183875
15.383333	1	2.102375
15.400000	1	2.045875
15.416667	1	2.008750
15.433333	1	1.985625
15.450000	1	1.972250
15.466667	1	1.965000
15.483333	1	1.960125
15.500000	1	1.953875
15.516667	1	1.944000
15.533333	1	1.929875
15.550000	1	1.910000
15.566667	1	1.883500
15.583333	1	1.851500
15.600000	1	1.814500
15.616667	1	1.774125
15.633333	1	1.731000
15.650000	1	1.686875
15.666667	1	1.642125
15.683333	1	1.599625
15.700000	1	1.558750
15.716667	1	1.520125
15.733333	1	1.484125
15.750000	1	1.450500
15.766667	1	1.419875
15.783333	1	1.391625
15.800000	1	1.364375
15.816667	1	1.339500
15.833333	1	1.316500
15.850000	1	1.295750
15.866667	1	1.276500
15.883333	1	1.258500
15.900000	1	1.243000
15.916667	1	1.229750
15.933333	1	1.218375
15.950000	1	1.208625
15.966667	1	1.201250
15.983333	1	1.196375
16.000000	1	1.193250
16.016667	1	1.192375
16.033333	1	1.192750
16.050000	1	1.194375
16.066667	1	1.197750
16.083333	1	1.202125
16.100000	1	1.207500
16.116667	1	1.213625
16.133333	1	1.219000
16.150000	1	1.224875
16.166667	1	1.229875
16.183333	1	1.234500
16.200000	1	1.238875
16.216667	1	1.242250
16.233333	1	1.244750
16.250000	1	1.246375
16.266667	1	1.246625
16.283333	1	1.246375
16.300000	1	1.244625
16.316667	1	1.242625
16.333333	1	1.239500
16.350000	1	1.236625
16.366667	1	1.234000
16.383333	1	1.231875
16.400000	1	1.230500
16.416667	1	1.230250
16.433333	1	1.230000
16.450000	1	1.231000
16.466667	1	1.232750
16.483333	1	1.235750
16.500000	1	1.238375
16.516667	1	1.241875
16.533333	1	1.244500
16.550000	1	1.247125
16.566667	1	1.248250
16.583333	1	1.248750
16.600000	1	1.247875
16.616667	1	1.246000
16.633333	1	1.243125
16.650000	1	1.238875
16.666667	1	1.234375
16.683333	1	1.229750
16.700000	1	1.225500
16.716667	1	1.222125
16.733333	1	1.219250
16.750000	1	1.218875
16.766667	1	1.220375
16.783333	1	1.222875
16.800000	1	1.227125
16.816667	1	1.231875
16.833333	1	1.238125
16.850000	1	1.244500
16.866667	1	1.251375
16.883333	1	1.257250
16.900000	1	1.262625
16.916667	1	1.267625
16.933333	1	1.271125
16.950000	1	1.272875
16.966667	1	1.273125
16.983333	1	1.271875
17.000000	1	1.268875
17.016667	1	1.264875
17.033333	1	1.260125
17.050000	1	1.254750
17.066667	1	1.249500
17.083333	1	1.244750
17.100000	1	1.239875
17.116667	1	1.235250
17.133333	1	1.231125
17.150000	1	1.227375
17.166667	1	1.224625
17.183333	1	1.223125
17.200000	1	1.222250
17.216667	1	1.221625
17.233333	1	1.222125
17.250000	1	1.223250
17.266667	1	1.225375
17.283333	1	1.227500
17.300000	1	1.230625
17.316667	1	1.234250
17.333333	1	1.238375
17.350000	1	1.242250
17.366667	1	1.245625
17.383333	1	1.249500
17.400000	1	1.252250
17.416667	1	1.254875
17.433333	1	1.257375
17.450000	1	1.258125
17.466667	1	1.257250
17.483333	1	1.254875
17.500000	1	1.251000
17.516667	1	1.245750
17.533333	1	1.238875
17.550000	1	1.229500
17.566667	1	1.219625
17.583333	1	1.208750
17.600000	1	1.197250
17.616667	1	1.183750
17.633333	1	1.169625
17.650000	1	1.155250
17.666667	1	1.141000
17.683333	1	1.126000
17.700000	1	1.110875
17.716667	1	1.096375
17.733333	1	1.083125
17.750000	1	1.069625
17.766667	1	1.058000
17.783333	1	1.047000
17.800000	1	1.036750
17.816667	1	1.026875
17.833333	1	1.017500
17.850000	1	1.009375
17.866667	1	1.002000
17.883333	1	0.994875
17.900000	1	0.988000
17.916667	1	0.982000
17.933333	1	0.975875
17.950000	1	0.970375
17.966667	1	0.963375
17.983333	1	0.957500
18.000000	1	0.951125
18.016667	1	0.944500
18.033333	1	0.937000
18.050000	1	0.930125
18.066667	1	0.923125
18.083333	1	0.917000
18.100000	1	0.910500
18.116667	1	0.904500
18.133333	1	0.898625
18.150000	1	0.893375
18.166667	1	0.888875
18.183333	1	0.885500
18.200000	1	0.882500
18.216667	1	0.880875
18.233333	1	0.879625
18.250000	1	0.878750
18.266667	1	0.878625
18.283333	1	0.878750
18.300000	1	0.879500
18.316667	1	0.881250
18.333333	1	0.883500
18.350000	1	0.886125
18.366667	1	0.889500
18.383333	1	0.894125
18.400000	1	0.899625
18.416667	1	0.906375
18.433333	1	0.913750
18.450000	1	0.923125
18.466667	1	0.934000
18.483333	1	0.946250
18.500000	1	0.961000
18.516667	1	0.977000
18.533333	1	0.994750
18.550000	1	1.014625
18.566667	1	1.036750
18.583333	1	1.060625
18.600000	1	1.085500
18.616667	1	1.112250
18.633333	1	1.140125
18.650000	1	1.169375
18.666667	1	1.199125
18.683333	1	1.230250
18.700000	1	1.262000
18.716667	1	1.294375
18.733333	1	1.327375
18.750000	1	1.359375
18.766667	1	1.390625
18.783333	1	1.422000
18.800000	1	1.450875
18.816667	1	1.478125
18.833333	1	1.502750
18.850000	1	1.523625
18.866667	1	1.541625
18.883333	1	1.555000
18.900000	1	1.563500
18.916667	1	1.566375
18.933333	1	1.563250
18.950000	1	1.554000
18.966667	1	1.539500
18.983333	1	1.518375
19.000000	1	1.492000
19.016667	1	1.459500
19.033333	1	1.422375
19.050000	1	1.381625
19.066667	1	1.337125
19.083333	1	1.290500
19.100000	1	1.242750
19.116667	1	1.194750
19.133333	1	1.146875
19.150000	1	1.100625
19.166667	1	1.057125
19.183333	1	1.016500
19.200000	1	0.979875
19.216667	1	0.947750
19.233333	1	0.920125
19.250000	1	0.898500
19.266667	1	0.881875
19.283333	1	0.871125
19.300000	1	0.865250
19.316667	1	0.866750
19.333333	1	0.872875
19.350000	1	0.885000
19.366667	1	0.901875
19.383333	1	0.923625
19.400000	1	0.949125
19.416667	1	0.977375
19.433333	1	1.007750
19.450000	1	1.039375
19.466667	1	1.071750
19.483333	1	1.102875
19.500000	1	1.133125
19.516667	1	1.161625
19.533333	1	1.186625
19.550000	1	1.207750
19.566667	1	1.225375
19.583333	1	1.237875
19.600000	1	1.244875
19.616667	1	1.246000
19.633333	1	1.243500
19.650000	1	1.236500
19.666667	1	1.225250
19.683333	1	1.209375
19.700000	1	1.189250
19.716667	1	1.166250
19.733333	1	1.140500
19.750000	1	1.112500
19.766667	1	1.083250
19.783333	1	1.052625
19.800000	1	1.020375
19.816667	1	0.988500
19.833333	1	0.956750
19.850000	1	0.926000
19.866667	1	0.896375
19.883333	1	0.867750
19.900000	1	0.841875
19.916667	1	0.818375
19.933333	1	0.796750
19.950000	1	0.779750
19.966667	1	0.765250
19.983333	1	0.755250
20.000000	1	0.749125
20.016667	1	0.747750
20.033333	1	0.750875
20.050000	1	0.759625
20.066667	1	0.773000
20.083333	1	0.791875
20.100000	1	0.816625
20.116667	1	0.846250
20.133333	1	0.880500
20.150000	1	0.919000
20.166667	1	0.961125
20.183333	1	1.005625
20.200000	1	1.051250
20.216667	1	1.097250
20.233333	1	1.142000
20.250000	1	1.184125
20.266667	1	1.222125
20.283333	1	1.254375
20.300000	1	1.280375
20.316667	1	1.298875
20.333333	1	1.308750
20.350000	1	1.310625
20.366667	1	1.304250
20.383333	1	1.289125
20.400000	1	1.266750
20.416667	1	1.237875
20.433333	1	1.204000
20.450000	1	1.166000
20.466667	1	1.125750
20.483333	1	1.084375
20.500000	1	1.044125
20.516667	1	1.007000
20.533333	1	0.973125
20.550000	1	0.943875
20.566667	1	0.921250
20.583333	1	0.905250
20.600000	1	0.897250
20.616667	1	0.898000
20.633333	1	0.908250
20.650000	1	0.927625
20.666667	1	0.956125
20.683333	1	0.994250
20.700000	1	1.040250
20.716667	1	1.094375
20.733333	1	1.155250
20.750000	1	1.222250
20.766667	1	1.292375
20.783333	1	1.363250
20.800000	1	1.434250
20.816667	1	1.502000
20.833333	1	1.564625
20.850000	1	1.620375
20.866667	1	1.666125
20.883333	1	1.701375
20.900000	1	1.724000
20.916667	1	1.733750
20.933333	1	1.730000
20.950000	1	1.713625
20.966667	1	1.684875
20.983333	1	1.644375
21.000000	1	1.594250
21.016667	1	1.534250
21.033333	1	1.468875
21.050000	1	1.398875
21.066667	1	1.327125
21.083333	1	1.253875
21.100000	1	1.182000
21.116667	1	1.111625
21.133333	1	1.044875
21.150000	1	0.981625
21.166667	1	0.922500
21.183333	1	0.868375
21.200000	1	0.819625
21.216667	1	0.775125
21.233333	1	0.735750
21.250000	1	0.701125
21.266667	1	0.670750
21.283333	1	0.644500
21.300000	1	0.620750
21.316667	1	0.600250
21.333333	1	0.583750
21.350000	1	0.569250
21.366667	1	0.556125
21.383333	1	0.545625
21.400000	1	0.537250
21.416667	1	0.530125
21.433333	1	0.524750
21.450000	1	0.520375
21.466667	1	0.516625
21.483333	1	0.514750
21.500000	1	0.514000
21.516667	1	0.513625
21.533333	1	0.514500
21.550000	1	0.517125
21.566667	1	0.521500
21.583333	1	0.527625
21.600000	1	0.535875
21.616667	1	0.545750
21.633333	1	0.557750
21.650000	1	0.572250
21.666667	1	0.589375
21.683333	1	0.608500
21.700000	1	0.630875
21.716667	1	0.655500
21.733333	1	0.683750
21.750000	1	0.713125
21.766667	1	0.745750
21.783333	1	0.779875
21.800000	1	0.816250
21.816667	1	0.852500
21.833333	1	0.889375
21.850000	1	0.926125
21.866667	1	0.961500
21.883333	1	0.995125
21.900000	1	1.026250
21.916667	1	1.054500
21.933333	1	1.079125
21.950000	1	1.099000
21.966667	1	1.114125
21.983333	1	1.124000
22.000000	1	1.129250
22.016667	1	1.129750
22.033333	1	1.124000
22.050000	1	1.113625
22.066667	1	1.099625
22.083333	1	1.081625
22.100000	1	1.059875
22.116667	1	1.035750
22.133333	1	1.008625
22.150000	1	0.980875
22.166667	1	0.951000
22.183333	1	0.920000
22.200000	1	0.889250
22.216667	1	0.858000
22.233333	1	0.827625
22.250000	1	0.797000
22.266667	1	0.768000
22.283333	1	0.740000
22.300000	1	0.713000
22.316667	1	0.686750
22.333333	1	0.662500
22.350000	1	0.639375
22.366667	1	0.617750
22.383333	1	0.597000
22.400000	1	0.578625
22.416667	1	0.562375
22.433333	1	0.547500
22.450000	1	0.534625
22.466667	1	0.522125
22.483333	1	0.512000
22.500000	1	0.503750
22.516667	1	0.496250
22.533333	1	0.490250
22.550000	1	0.485250
22.566667	1	0.481375
22.583333	1	0.478500
22.600000	1	0.475750
22.616667	1	0.473625
22.633333	1	0.472125
22.650000	1	0.470375
22.666667	1	0.469375
22.683333	1	0.466875
22.700000	1	0.464875
22.716667	1	0.463125
22.733333	1	0.460250
22.750000	1	0.457625
22.766667	1	0.454125
22.783333	1	0.450875
22.800000	1	0.447375
22.816667	1	0.443250
22.833333	1	0.439000
22.850000	1	0.434875
22.866667	1	0.429625
22.883333	1	0.424875
22.900000	1	0.420125
22.916667	1	0.416375
22.933333	1	0.412000
22.950000	1	0.408250
22.966667	1	0.404500
22.983333	1	0.399875
23.000000	1	0.396750
23.016667	1	0.393375
23.033333	1	0.390500
23.050000	1	0.388250
23.066667	1	0.386125
23.083333	1	0.384500
23.100000	1	0.383500
23.116667	1	0.383000
23.133333	1	0.382750
23.150000	1	0.382750
23.166667	1	0.383000
23.183333	1	0.384125
23.200000	1	0.385625
23.216667	1	0.388125
23.233333	1	0.391000
23.250000	1	0.394750
23.266667	1	0.400500
23.283333	1	0.408000
23.300000	1	0.418000
23.316667	1	0.429625
23.333333	1	0.444500
23.350000	1	0.462125
23.366667	1	0.484500
23.383333	1	0.512500
23.400000	1	0.546500
23.416667	1	0.587250
23.433333	1	0.635875
23.450000	1	0.694375
23.466667	1	0.763375
23.483333	1	0.844375
23.500000	1	0.939125
23.516667	1	1.049250
23.533333	1	1.175125
23.550000	1	1.318125
23.566667	1	1.478500
23.583333	1	1.656750
23.600000	1	1.851750
23.616667	1	2.063500
23.633333	1	2.291125
23.650000	1	2.531625
23.666667	1	2.783250
23.683333	1	3.042875
23.700000	1	3.306750
23.716667	1	3.570375
23.733333	1	3.829375
23.750000	1	4.077625
23.766667	1	4.311000
23.783333	1	4.522875
23.800000	1	4.710625
23.816667	1	4.868125
23.833333	1	4.993250
23.850000	1	5.082500
23.866667	1	5.134875
23.883333	1	5.148625
23.900000	1	5.124750
23.916667	1	5.063875
23.933333	1	4.969750
23.950000	1	4.843250
23.966667	1	4.689625
23.983333	1	4.511875
24.000000	1	4.314375
24.016667	1	4.101875
24.033333	1	3.879250
24.050000	1	3.650875
24.066667	1	3.421125
24.083333	1	3.192750
24.100000	1	2.968000
24.116667	1	2.750375
24.133333	1	2.541625
24.150000	1	2.343250
24.166667	1	2.155625
24.183333	1	1.980750
24.200000	1	1.818750
24.216667	1	1.669750
24.233333	1	1.533500
24.250000	1	1.408625
24.266667	1	1.295250
24.283333	1	1.192750
24.300000	1	1.100875
24.316667	1	1.017875
24.333333	1	0.944625
24.350000	1	0.879500
24.366667	1	0.821250
24.383333	1	0.770625
24.400000	1	0.725750
24.416667	1	0.687500
24.433333	1	0.654000
24.450000	1	0.625375
24.466667	1	0.601250
24.483333	1	0.579875
24.500000	1	0.562500
24.516667	1	0.547000
24.533333	1	0.534625
24.550000	1	0.523750
24.566667	1	0.515125
24.583333	1	0.507500
24.600000	1	0.501250
24.616667	1	0.495750
24.633333	1	0.490375
24.650000	1	0.485500
24.666667	1	0.480500
24.683333	1	0.476375
24.700000	1	0.471375
24.716667	1	0.466375
24.733333	1	0.461250
24.750000	1	0.455625
24.766667	1	0.449750
24.783333	1	0.444125
24.800000	1	0.438000
24.816667	1	0.431625
24.833333	1	0.425250
24.850000	1	0.419500
24.866667	1	0.414000
24.883333	1	0.408000
24.900000	1	0.401500
24.916667	1	0.396000
24.933333	1	0.390500
24.950000	1	0.384250
24.966667	1	0.378875
24.983333	1	0.374500
25.000000	1	0.370125
25.016667	1	0.365875
25.033333	1	0.362500
25.050000	1	0.359375
25.066667	1	0.356000
25.083333	1	0.352500
25.100000	1	0.350375
25.116667	1	0.347000
25.133333	1	0.344750
25.150000	1	0.342250
25.166667	1	0.339500
25.183333	1	0.336875
25.200000	1	0.334625
25.216667	1	0.332500
25.233333	1	0.331000
25.250000	1	0.328875
25.266667	1	0.327750
25.283333	1	0.326750
25.300000	1	0.325625
25.316667	1	0.324375
25.333333	1	0.323625
25.350000	1	0.322500
25.366667	1	0.322250
25.383333	1	0.321750
25.400000	1	0.321875
25.416667	1	0.321500
25.433333	1	0.322125
25.450000	1	0.322875
25.466667	1	0.323375
25.483333	1	0.324125
25.500000	1	0.324375
25.516667	1	0.325500
25.533333	1	0.326625
25.550000	1	0.328000
25.566667	1	0.328125
25.583333	1	0.329750
25.600000	1	0.330375
25.616667	1	0.331750
25.633333	1	0.333000
25.650000	1	0.333250
25.666667	1	0.333875
25.683333	1	0.334500
25.700000	1	0.334750
25.716667	1	0.335000
25.733333	1	0.335500
25.750000	1	0.335750
25.766667	1	0.335750
25.783333	1	0.335750
25.800000	1	0.335750
25.816667	1	0.335500
25.833333	1	0.335125
25.850000	1	0.335125
25.866667	1	0.335250
25.883333	1	0.335875
25.900000	1	0.336750
25.916667	1	0.337750
25.933333	1	0.340000
25.950000	1	0.341875
25.966667	1	0.344250
25.983333	1	0.347250
26.000000	1	0.350250
26.016667	1	0.354375
26.033333	1	0.358750
26.050000	1	0.363750
26.066667	1	0.369250
26.083333	1	0.375000
26.100000	1	0.381125
26.116667	1	0.387250
26.133333	1	0.394000
26.150000	1	0.401250
26.166667	1	0.408625
26.183333	1	0.416500
26.200000	1	0.422875
26.216667	1	0.429625
26.233333	1	0.436250
26.250000	1	0.442625
26.266667	1	0.448875
26.283333	1	0.453875
26.300000	1	0.458625
26.316667	1	0.462750
26.333333	1	0.466125
26.350000	1	0.468125
26.366667	1	0.470125
26.383333	1	0.471125
26.400000	1	0.471000
26.416667	1	0.469875
26.433333	1	0.467750
26.450000	1	0.465125
26.466667	1	0.461250
26.483333	1	0.456250
26.500000	1	0.450875
26.516667	1	0.444375
26.533333	1	0.437625
26.550000	1	0.430500
26.566667	1	0.422125
26.583333	1	0.413250
26.600000	1	0.405500
26.616667	1	0.396500
26.633333	1	0.387375
26.650000	1	0.378375
26.666667	1	0.369750
26.683333	1	0.360500
26.700000	1	0.351625
26.716667	1	0.342875
26.733333	1	0.334375
26.750000	1	0.326500
26.766667	1	0.318625
26.783333	1	0.311000
26.800000	1	0.304000
26.816667	1	0.297250
26.833333	1	0.291500
26.850000	1	0.285500
26.866667	1	0.280375
26.883333	1	0.276000
26.900000	1	0.271500
26.916667	1	0.268125
26.933333	1	0.264750
26.950000	1	0.261375
26.966667	1	0.258750
26.983333	1	0.257375
27.000000	1	0.255875
27.016667	1	0.255125
27.033333	1	0.254500
27.050000	1	0.255125
27.066667	1	0.255500
27.083333	1	0.257250
27.100000	1	0.259875
27.116667	1	0.263750
27.133333	1	0.267375
27.150000	1	0.272500
27.166667	1	0.278875
27.183333	1	0.286500
27.200000	1	0.295875
27.216667	1	0.306375
27.233333	1	0.318500
27.250000	1	0.332375
27.266667	1	0.349375
27.283333	1	0.368625
27.300000	1	0.390750
27.316667	1	0.416500
27.333333	1	0.446250
27.350000	1	0.480375
27.366667	1	0.519625
27.383333	1	0.564000
27.400000	1	0.613500
27.416667	1	0.670125
27.433333	1	0.734250
27.450000	1	0.805750
27.466667	1	0.885375
27.483333	1	0.974625
27.500000	1	1.072875
27.516667	1	1.180250
27.533333	1	1.297375
27.550000	1	1.424250
27.566667	1	1.560000
27.583333	1	1.705125
27.600000	1	1.859125
27.616667	1	2.021000
27.633333	1	2.189000
27.650000	1	2.363125
27.666667	1	2.541125
27.683333	1	2.721625
27.700000	1	2.901625
27.716667	1	3.078625
27.733333	1	3.250625
27.750000	1	3.415125
27.766667	1	3.570000
27.783333	1	3.712500
27.800000	1	3.839000
27.816667	1	3.949250
27.833333	1	4.041125
27.850000	1	4.112000
27.866667	1	4.160250
27.883333	1	4.186000
27.900000	1	4.189125
27.916667	1	4.168375
27.933333	1	4.124875
27.950000	1	4.058625
27.966667	1	3.971250
27.983333	1	3.864375
28.000000	1	3.740375
28.016667	1	3.600625
28.033333	1	3.449000
28.050000	1	3.286375
28.066667	1	3.116250
28.083333	1	2.940250
28.100000	1	2.761875
28.116667	1	2.582875
28.133333	1	2.406125
28.150000	1	2.233000
28.166667	1	2.065125
28.183333	1	1.904375
28.200000	1	1.752125
28.216667	1	1.608750
28.233333	1	1.473875
28.250000	1	1.349000
28.266667	1	1.232750
28.283333	1	1.126875
28.300000	1	1.030750
28.316667	1	0.943875
28.333333	1	0.865375
28.350000	1	0.795625
28.366667	1	0.733875
28.383333	1	0.679625
28.400000	1	0.631375
28.416667	1	0.590250
28.433333	1	0.554625
28.450000	1	0.524000
28.466667	1	0.498875
28.483333	1	0.477375
28.500000	1	0.461000
28.516667	1	0.448250
28.533333	1	0.438125
28.550000	1	0.431625
28.566667	1	0.427250
28.583333	1	0.425750
28.600000	1	0.426875
28.616667	1	0.429750
28.633333	1	0.434125
28.650000	1	0.439500
28.666667	1	0.446250
28.683333	1	0.454000
28.700000	1	0.462625
28.716667	1	0.471500
28.733333	1	0.480875
28.750000	1	0.491000
28.766667	1	0.500125
28.783333	1	0.509500
28.800000	1	0.519375
28.816667	1	0.528750
28.833333	1	0.537875
28.850000	1	0.545125
28.866667	1	0.552250
28.883333	1	0.558375
28.900000	1	0.563250
28.916667	1	0.566750
28.933333	1	0.569500
28.950000	1	0.570625
28.966667	1	0.569875
28.983333	1	0.567875
29.000000	1	0.564125
29.016667	1	0.558125
29.033333	1	0.550500
29.050000	1	0.541375
29.066667	1	0.530250
29.083333	1	0.517125
29.100000	1	0.500875
29.116667	1	0.483375
29.133333	1	0.463750
29.150000	1	0.441625
29.166667	1	0.416875
29.183333	1	0.390250
29.200000	1	0.361750
29.216667	1	0.331125
29.233333	1	0.298000
29.250000	1	0.262375
29.266667	1	0.225000
29.283333	1	0.184375
29.300000	1	0.141750
29.316667	1	0.096375
29.333333	1	0.050000
29.350000	1	0.000000
29.366667	1	-0.051125
29.383333	1	-0.103875
29.400000	1	-0.158875
29.416667	1	-0.216000
29.433333	1	-0.273750
29.450000	1	-0.333250
29.466667	1	-0.393750
29.483333	1	-0.454375
29.500000	1	-0.515125
29.516667	1	-0.575375
29.533333	1	-0.635625
29.550000	1	-0.694500
29.566667	1	-0.751750
29.583333	1	-0.806875
29.600000	1	-0.860250
29.616667	1	-0.909000
29.633333	1	-0.954875
29.650000	1	-0.996875
29.666667	1	-1.034500
29.683333	1	-1.068125
29.700000	1	-1.096750
29.716667	1	-1.120250
29.733333	1	-1.138500
29.750000	1	-1.151125
29.766667	1	-1.158000
29.783333	1	-1.159250
29.800000	1	-1.155125
29.816667	1	-1.145000
29.833333	1	-1.130000
29.850000	1	-1.110750
29.866667	1	-1.086625
29.883333	1	-1.058125
29.900000	1	-1.026000
29.916667	1	-0.990250
29.933333	1	-0.951250
29.950000	1	-0.910125
29.966667	1	-0.866750
29.983333	1	-0.821875
30.000000	1	-0.775125
30.016667	1	-0.728000
30.033333	1	-0.680000
30.050000	1	-0.633000
30.066667	1	-0.585000
30.083333	1	-0.538750
30.100000	1	-0.493250
30.116667	1	-0.448875
30.133333	1	-0.404750
30.150000	1	-0.363750
30.166667	1	-0.324625
30.183333	1	-0.285750
30.200000	1	-0.249875
30.216667	1	-0.215875
30.233333	1	-0.183875
30.250000	1	-0.153125
30.266667	1	-0.124500
30.283333	1	-0.098500
30.300000	1	-0.074125
30.316667	1	-0.051375
30.333333	1	-0.030750
30.350000	1	-0.010875
30.366667	1	0.007750
30.383333	1	0.025125
30.400000	1	0.040500
30.416667	1	0.055125
30.433333	1	0.069125
30.450000	1	0.082000
30.466667	1	0.093875
30.483333	1	0.105000
30.500000	1	0.115250
30.516667	1	0.125500
30.533333	1	0.135500
30.550000	1	0.145250
30.566667	1	0.154375
30.583333	1	0.163500
30.600000	1	0.171750
30.616667	1	0.180875
30.633333	1	0.189375
30.650000	1	0.198500
30.666667	1	0.207250
30.683333	1	0.216000
30.700000	1	0.224625
30.716667	1	0.233875
30.733333	1	0.243375
30.750000	1	0.252375
30.766667	1	0.262375
30.783333	1	0.273250
30.800000	1	0.283625
30.816667	1	0.295375
30.833333	1	0.307125
30.850000	1	0.320250
30.866667	1	0.334000
30.883333	1	0.349750
30.900000	1	0.367250
30.916667	1	0.385750
30.933333	1	0.407000
30.950000	1	0.431125
30.966667	1	0.457875
30.983333	1	0.487250
31.000000	1	0.520875
31.016667	1	0.559375
31.033333	1	0.602375
31.050000	1	0.651250
31.066667	1	0.706625
31.083333	1	0.769375
31.100000	1	0.839250
31.116667	1	0.918500
31.133333	1	1.006000
31.150000	1	1.104125
31.166667	1	1.212750
31.183333	1	1.333250
31.200000	1	1.465250
31.216667	1	1.609250
31.233333	1	1.765750
31.250000	1	1.935125
31.266667	1	2.117750
31.283333	1	2.310250
31.300000	1	2.514500
31.316667	1	2.729125
31.333333	1	2.952875
31.350000	1	3.184250
31.366667	1	3.421375
31.383333	1	3.662125
31.400000	1	3.905875
31.416667	1	4.149125
31.433333	1	4.389750
31.450000	1	4.625000
31.466667	1	4.850625
31.483333	1	5.065625
31.500000	1	5.266500
31.516667	1	5.451125
31.533333	1	5.616375
31.550000	1	5.761125
31.566667	1	5.882500
31.583333	1	5.979750
31.600000	1	6.051875
31.616667	1	6.097875
31.633333	1	6.116250
31.650000	1	6.108125
31.666667	1	6.073125
31.683333	1	6.013375
31.700000	1	5.928250
31.716667	1	5.821000
31.733333	1	5.691250
31.750000	1	5.543625
31.766667	1	5.377375
31.783333	1	5.196625
31.800000	1	5.001875
31.816667	1	4.797500
31.833333	1	4.584250
31.850000	1	4.366000
31.866667	1	4.144750
31.883333	1	3.921750
31.900000	1	3.699500
31.916667	1	3.479750
31.933333	1	3.263125
31.950000	1	3.051500
31.966667	1	2.847250
31.983333	1	2.648875
32.000000	1	2.458875
32.016667	1	2.277250
32.033333	1	2.104125
32.050000	1	1.940250
32.066667	1	1.785500
32.083333	1	1.640125
32.100000	1	1.503250
32.116667	1	1.375250
32.133333	1	1.257125
32.150000	1	1.147625
32.166667	1	1.045500
32.183333	1	0.950625
32.200000	1	0.863375
32.216667	1	0.782375
32.233333	1	0.707875
32.250000	1	0.639250
32.266667	1	0.575375
32.283333	1	0.516875
32.300000	1	0.463375
32.316667	1	0.413875
32.333333	1	0.370250
32.350000	1	0.330125
32.366667	1	0.292500
32.383333	1	0.258750
32.400000	1	0.228375
32.416667	1	0.200000
32.433333	1	0.174375
32.450000	1	0.151500
32.466667	1	0.131000
32.483333	1	0.112500
32.500000	1	0.095500
32.516667	1	0.081375
32.533333	1	0.068875
32.550000	1	0.058125
32.566667	1	0.048250
32.583333	1	0.039375
32.600000	1	0.032875
32.616667	1	0.026750
32.633333	1	0.022250
32.650000	1	0.017875
32.666667	1	0.015125
32.683333	1	0.012500
32.700000	1	0.011375
32.716667	1	0.010000
32.733333	1	0.010125
32.750000	1	0.010000
32.766667	1	0.011125
32.783333	1	0.012125
32.800000	1	0.013125
32.816667	1	0.014250
32.833333	1	0.016000
32.850000	1	0.017750
32.866667	1	0.019750
32.883333	1	0.022000
32.900000	1	0.024500
32.916667	1	0.027125
32.933333	1	0.029375
32.950000	1	0.031750
32.966667	1	0.034375
32.983333	1	0.037375
33.000000	1	0.039000
33.016667	1	0.040750
33.033333	1	0.043125
33.050000	1	0.045250
33.066667	1	0.047000
33.083333	1	0.049000
33.100000	1	0.050000
33.116667	1	0.051125
33.133333	1	0.052125
33.150000	1	0.053125
33.166667	1	0.053625
33.183333	1	0.054625
33.200000	1	0.055500
33.216667	1	0.056625
33.233333	1	0.057000
33.250000	1	0.057375
33.266667	1	0.058000
33.283333	1	0.058125
33.300000	1	0.058125
33.316667	1	0.058250
33.333333	1	0.058625
33.350000	1	0.058875
33.366667	1	0.059375
33.383333	1	0.060250
33.400000	1	0.060375
33.416667	1	0.060500
33.433333	1	0.061125
33.450000	1	0.061375
33.466667	1	0.062500
33.483333	1	0.062250
33.500000	1	0.062625
33.516667	1	0.062875
33.533333	1	0.063500
33.550000	1	0.064000
33.566667	1	0.064125
33.583333	1	0.064875
33.600000	1	0.065625
33.616667	1	0.066625
33.633333	1	0.067375
33.650000	1	0.067875
33.666667	1	0.068500
33.683333	1	0.069500
33.700000	1	0.070875
33.716667	1	0.072000
33.733333	1	0.072250
33.750000	1	0.074375
33.766667	1	0.075625
33.783333	1	0.077500
33.800000	1	0.078875
33.816667	1	0.080875
33.833333	1	0.081875
33.850000	1	0.084250
33.866667	1	0.086125
33.883333	1	0.087875
33.900000	1	0.089750
33.916667	1	0.091750
33.933333	1	0.094000
33.950000	1	0.096750
33.966667	1	0.099000
33.983333	1	0.101375
34.000000	1	0.103500
34.016667	1	0.106500
34.033333	1	0.108375
34.050000	1	0.109625
34.066667	1	0.111500
34.083333	1	0.112875
34.100000	1	0.114625
34.116667	1	0.115875
34.133333	1	0.117250
34.150000	1	0.118500
34.166667	1	0.120125
34.183333	1	0.121125
34.200000	1	0.121125
34.216667	1	0.122250
34.233333	1	0.122000
34.250000	1	0.121750
34.266667	1	0.121750
34.283333	1	0.121750
34.300000	1	0.122000
34.316667	1	0.121375
34.333333	1	0.121375
34.350000	1	0.121125
34.366667	1	0.120375
34.383333	1	0.119500
34.400000	1	0.119000
34.416667	1	0.118625
34.433333	1	0.117875
34.450000	1	0.117500
34.466667	1	0.115750
34.483333	1	0.115125
34.500000	1	0.115250
34.516667	1	0.115750
34.533333	1	0.116125
34.550000	1	0.116125
34.566667	1	0.116000
34.583333	1	0.115875
34.600000	1	0.116250
34.616667	1	0.115625
34.633333	1	0.116000
34.650000	1	0.116000
34.666667	1	0.116500
34.683333	1	0.117250
34.700000	1	0.117125
34.716667	1	0.117375
34.733333	1	0.118625
34.750000	1	0.119250
34.766667	1	0.119000
34.783333	1	0.119375
34.800000	1	0.119500
34.816667	1	0.119500
34.833333	1	0.120000
34.850000	1	0.120125
34.866667	1	0.120125
34.883333	1	0.119375
34.900000	1	0.119250
34.916667	1	0.119125
34.933333	1	0.118625
34.950000	1	0.118000
34.966667	1	0.116375
34.983333	1	0.116500
35.000000	1	0.116250
35.016667	1	0.115375
35.033333	1	0.114375
35.050000	1	0.113750
35.066667	1	0.112750
35.083333	1	0.112250
35.100000	1	0.110750
35.116667	1	0.110250
35.133333	1	0.109375
35.150000	1	0.109375
35.166667	1	0.108250
35.183333	1	0.107000
35.200000	1	0.106125
35.216667	1	0.105750
35.233333	1	0.105125
35.250000	1	0.104625
35.266667	1	0.104250
35.283333	1	0.104125
35.300000	1	0.103750
35.316667	1	0.103625
35.333333	1	0.103875
35.350000	1	0.104500
35.366667	1	0.105000
35.383333	1	0.105375
35.400000	1	0.105500
35.416667	1	0.106000
35.433333	1	0.106625
35.450000	1	0.107000
35.466667	1	0.108000
35.483333	1	0.108625
35.500000	1	0.109875
35.516667	1	0.110750
35.533333	1	0.111875
35.550000	1	0.112500
35.566667	1	0.113875
35.583333	1	0.115125
35.600000	1	0.116750
35.616667	1	0.116750
35.633333	1	0.117500
35.650000	1	0.117750
35.666667	1	0.119000
35.683333	1	0.119750
35.700000	1	0.120750
35.716667	1	0.121625
35.733333	1	0.122125
35.750000	1	0.122250
35.766667	1	0.122875
35.783333	1	0.123375
35.800000	1	0.123125
35.816667	1	0.123250
35.833333	1	0.122875
35.850000	1	0.122500
35.866667	1	0.121125
35.883333	1	0.120875
35.900000	1	0.120250
35.916667	1	0.119750
35.933333	1	0.118500
35.950000	1	0.117500
35.966667	1	0.115875
35.983333	1	0.114125
36.000000	1	0.112125
36.016667	1	0.110375
36.033333	1	0.108875
36.050000	1	0.107000
36.066667	1	0.105250
36.083333	1	0.103875
36.100000	1	0.102125
36.116667	1	0.100375
36.133333	1	0.098125
36.150000	1	0.097500
36.166667	1	0.096750
36.183333	1	0.096250
36.200000	1	0.096125
36.216667	1	0.095125
36.233333	1	0.094250
36.250000	1	0.093625
36.266667	1	0.094000
36.283333	1	0.093875
36.300000	1	0.093625
36.316667	1	0.093500
36.333333	1	0.093500
36.350000	1	0.093625
36.366667	1	0.093750
36.383333	1	0.094375
36.400000	1	0.095500
36.416667	1	0.096500
36.433333	1	0.097125
36.450000	1	0.098500
36.466667	1	0.099500
36.483333	1	0.101500
36.500000	1	0.102875
36.516667	1	0.104250
36.533333	1	0.106125
36.550000	1	0.107750
36.566667	1	0.109125
36.583333	1	0.111000
36.600000	1	0.112750
36.616667	1	0.114875
36.633333	1	0.117000
36.650000	1	0.119000
36.666667	1	0.120375
36.683333	1	0.121125
36.700000	1	0.122500
36.716667	1	0.124000
36.733333	1	0.125500
36.750000	1	0.126750
36.766667	1	0.128000
36.783333	1	0.127875
36.800000	1	0.127750
36.816667	1	0.127500
36.833333	1	0.127125
36.850000	1	0.125875
36.866667	1	0.125000
36.883333	1	0.123500
36.900000	1	0.122125
36.916667	1	0.119500
36.933333	1	0.117625
36.950000	1	0.115125
36.966667	1	0.112750
36.983333	1	0.110000
37.000000	1	0.107375
37.016667	1	0.104125
37.033333	1	0.101125
37.050000	1	0.098000
37.066667	1	0.094500
37.083333	1	0.091500
37.100000	1	0.088250
37.116667	1	0.085500
37.133333	1	0.082125
37.150000	1	0.079000
37.166667	1	0.076125
37.183333	1	0.073250
37.200000	1	0.071000
37.216667	1	0.069125
37.233333	1	0.065875
37.250000	1	0.063625
37.266667	1	0.061375
37.283333	1	0.059375
37.300000	1	0.057875
37.316667	1	0.057125
37.333333	1	0.055250
37.350000	1	0.053250
37.366667	1	0.051125
37.383333	1	0.050000
37.400000	1	0.048875
37.416667	1	0.047875
37.433333	1	0.046875
37.450000	1	0.046125
37.466667	1	0.044750
37.483333	1	0.044375
37.500000	1	0.043375
37.516667	1	0.042750
37.533333	1	0.042500
37.550000	1	0.041625
37.566667	1	0.041250
37.583333	1	0.040625
37.600000	1	0.039250
37.616667	1	0.038375
37.633333	1	0.037375
37.650000	1	0.037000
37.666667	1	0.036000
37.683333	1	0.034750
37.700000	1	0.034500
37.716667	1	0.034000
37.733333	1	0.033625
37.750000	1	0.033375
37.766667	1	0.032875
37.783333	1	0.033125
37.800000	1	0.032500
37.816667	1	0.032000
37.833333	1	0.032625
37.850000	1	0.032500
37.866667	1	0.032375
37.883333	1	0.032000
37.900000	1	0.031875
37.916667	1	0.032000
37.933333	1	0.032125
37.950000	1	0.031875
37.966667	1	0.031750
37.983333	1	0.032625
38.000000	1	0.032875
38.016667	1	0.033125
38.033333	1	0.033375
38.050000	1	0.033875
38.066667	1	0.033750
38.083333	1	0.034500
38.100000	1	0.034875
38.116667	1	0.035375
38.133333	1	0.035250
38.150000	1	0.036000
38.166667	1	0.036750
38.183333	1	0.038125
38.200000	1	0.038375
38.216667	1	0.039125
38.233333	1	0.039750
38.250000	1	0.040625
38.266667	1	0.041750
38.283333	1	0.042625
38.300000	1	0.043125
38.316667	1	0.043125
38.333333	1	0.043750
38.350000	1	0.044750
38.366667	1	0.045375
38.383333	1	0.045750
38.400000	1	0.046500
38.416667	1	0.047250
38.433333	1	0.047750
38.450000	1	0.048875
38.466667	1	0.050625
38.483333	1	0.051250
38.500000	1	0.052000
38.516667	1	0.053750
38.533333	1	0.055000
38.550000	1	0.055750
38.566667	1	0.056750
38.583333	1	0.057875
38.600000	1	0.059250
38.616667	1	0.060125
38.633333	1	0.061000
38.650000	1	0.062125
38.666667	1	0.063000
38.683333	1	0.063625
38.700000	1	0.064000
38.716667	1	0.064500
38.733333	1	0.065000
38.750000	1	0.065625
38.766667	1	0.065875
38.783333	1	0.065750
38.800000	1	0.065375
38.816667	1	0.064875
38.833333	1	0.065000
38.850000	1	0.064125
38.866667	1	0.063750
38.883333	1	0.063875
38.900000	1	0.063625
38.916667	1	0.062625
38.933333	1	0.060625
38.950000	1	0.059375
38.966667	1	0.058000
38.983333	1	0.056875
39.000000	1	0.055250
39.016667	1	0.053250
39.033333	1	0.051625
39.050000	1	0.049875
39.066667	1	0.047375
39.083333	1	0.044625
39.100000	1	0.043125
39.116667	1	0.041375
39.133333	1	0.038750
39.150000	1	0.037000
39.166667	1	0.035250
39.183333	1	0.033375
39.200000	1	0.031125
39.216667	1	0.028500
39.233333	1	0.026375
39.250000	1	0.024750
39.266667	1	0.022000
39.283333	1	0.020000
39.300000	1	0.017875
39.316667	1	0.016000
39.333333	1	0.013625
39.350000	1	0.011375
39.366667	1	0.009125
39.383333	1	0.006500
39.400000	1	0.004625
39.416667	1	0.002125
39.433333	1	-0.000250
39.450000	1	-0.002000
39.466667	1	-0.004625
39.483333	1	-0.006750
39.500000	1	-0.009500
39.516667	1	-0.011500
39.533333	1	-0.013250
39.550000	1	-0.015625
39.566667	1	-0.018375
39.583333	1	-0.020375
39.600000	1	-0.022625
39.616667	1	-0.024375
39.633333	1	-0.025875
39.650000	1	-0.027125
39.666667	1	-0.028000
39.683333	1	-0.027750
39.700000	1	-0.028250
39.716667	1	-0.029375
39.733333	1	-0.029750
39.750000	1	-0.030500
39.766667	1	-0.030750
39.783333	1	-0.030500
39.800000	1	-0.030250
39.816667	1	-0.030125
39.833333	1	-0.028750
39.850000	1	-0.027750
39.866667	1	-0.027250
39.883333	1	-0.026375
39.900000	1	-0.024750
39.916667	1	-0.023500
39.933333	1	-0.022625
39.950000	1	-0.021250
39.966667	1	-0.019750
39.983333	1	-0.018500
40.000000	1	-0.017000
