URL	chrom://bioreactor/micro_cm7/HPLC_Ultimate_3000/Users/markusar/20240517_CMO_FP23_FP25_MarkusDeplate.seq/120.smp/RI_1.channel/RI_1.chm
Channel	RI_1

Injection Information:
Data Vault	micro_cm7
Sequence	20240517_CMO_FP23_FP25_MarkusDeplate
Name	FP28_22.1_s3
Number	138
Position	BA4
Comment	
Processing Method	
Instrument Method	run_25B_method
Type	Unknown
Status	Finished
Inject Time	31.05.2024 17:21:39 +02:00
Volume (µl)	20.0000
Dilution Factor	1.0000
Weight	1.0000

Chromatogram Data Information:
Time Min. (min)	0.000000
Time Max. (min)	40.000000
Data Points	2401
Detector	RI
Generating Data System	Chromeleon 7.3.2.11814
Exporting Data System	Chromeleon 7.3.2.0
Operator	Instrument Controller
Signal Quantity	Refractive 
Signal Unit	µRIU
Signal Min.	-1.341000
Signal Max.	53.865875
Channel	RI_1
Driver Name	RID520Driver.dll
Channel Type	Evaluation
Min. Step (s)	1
Max. Step (s)	1
Average Step (s)	1

Signal Parameter Information:
Signal Info	

Chromatogram Data:
Time (min)	Step (s)	Value (µRIU)
0.000000	n.a.	-0.009250
0.016667	1	-0.009000
0.033333	1	-0.008125
0.050000	1	-0.007000
0.066667	1	-0.006625
0.083333	1	-0.005625
0.100000	1	-0.004000
0.116667	1	-0.002875
0.133333	1	-0.001250
0.150000	1	0.000125
0.166667	1	0.001250
0.183333	1	0.002375
0.200000	1	0.004125
0.216667	1	0.005500
0.233333	1	0.007000
0.250000	1	0.008250
0.266667	1	0.009875
0.283333	1	0.011125
0.300000	1	0.012250
0.316667	1	0.013000
0.333333	1	0.013625
0.350000	1	0.014500
0.366667	1	0.015125
0.383333	1	0.015500
0.400000	1	0.016000
0.416667	1	0.016000
0.433333	1	0.015750
0.450000	1	0.015625
0.466667	1	0.015250
0.483333	1	0.015125
0.500000	1	0.014125
0.516667	1	0.012750
0.533333	1	0.011250
0.550000	1	0.010250
0.566667	1	0.008625
0.583333	1	0.007625
0.600000	1	0.006000
0.616667	1	0.005375
0.633333	1	0.004000
0.650000	1	0.002750
0.666667	1	0.001375
0.683333	1	0.000125
0.700000	1	-0.000750
0.716667	1	-0.002125
0.733333	1	-0.003500
0.750000	1	-0.004750
0.766667	1	-0.006250
0.783333	1	-0.006875
0.800000	1	-0.007750
0.816667	1	-0.008375
0.833333	1	-0.008750
0.850000	1	-0.008750
0.866667	1	-0.009500
0.883333	1	-0.009250
0.900000	1	-0.008875
0.916667	1	-0.009125
0.933333	1	-0.008000
0.950000	1	-0.007875
0.966667	1	-0.007750
0.983333	1	-0.007625
1.000000	1	-0.006375
1.016667	1	-0.005250
1.033333	1	-0.004375
1.050000	1	-0.003875
1.066667	1	-0.002750
1.083333	1	-0.002250
1.100000	1	-0.001750
1.116667	1	-0.001000
1.133333	1	-0.000250
1.150000	1	0.000250
1.166667	1	0.000500
1.183333	1	0.000625
1.200000	1	0.000500
1.216667	1	0.001250
1.233333	1	0.001250
1.250000	1	0.001750
1.266667	1	0.001500
1.283333	1	0.001250
1.300000	1	0.000500
1.316667	1	0.000000
1.333333	1	-0.000750
1.350000	1	-0.001750
1.366667	1	-0.002875
1.383333	1	-0.003375
1.400000	1	-0.004500
1.416667	1	-0.005250
1.433333	1	-0.005500
1.450000	1	-0.007125
1.466667	1	-0.008250
1.483333	1	-0.009375
1.500000	1	-0.009625
1.516667	1	-0.011000
1.533333	1	-0.012000
1.550000	1	-0.012750
1.566667	1	-0.013125
1.583333	1	-0.014500
1.600000	1	-0.014875
1.616667	1	-0.016250
1.633333	1	-0.016375
1.650000	1	-0.016500
1.666667	1	-0.016500
1.683333	1	-0.016375
1.700000	1	-0.016500
1.716667	1	-0.015750
1.733333	1	-0.015500
1.750000	1	-0.014875
1.766667	1	-0.013250
1.783333	1	-0.012125
1.800000	1	-0.011000
1.816667	1	-0.009125
1.833333	1	-0.007000
1.850000	1	-0.004625
1.866667	1	-0.002000
1.883333	1	0.000250
1.900000	1	0.003500
1.916667	1	0.006875
1.933333	1	0.009875
1.950000	1	0.013375
1.966667	1	0.015875
1.983333	1	0.018875
2.000000	1	0.022875
2.016667	1	0.026000
2.033333	1	0.029875
2.050000	1	0.034375
2.066667	1	0.037750
2.083333	1	0.041875
2.100000	1	0.045000
2.116667	1	0.048625
2.133333	1	0.051625
2.150000	1	0.054625
2.166667	1	0.057000
2.183333	1	0.060250
2.200000	1	0.062750
2.216667	1	0.064750
2.233333	1	0.067000
2.250000	1	0.069500
2.266667	1	0.071250
2.283333	1	0.072875
2.300000	1	0.074250
2.316667	1	0.075375
2.333333	1	0.076000
2.350000	1	0.077000
2.366667	1	0.077750
2.383333	1	0.078500
2.400000	1	0.078500
2.416667	1	0.079125
2.433333	1	0.078750
2.450000	1	0.078875
2.466667	1	0.078375
2.483333	1	0.077750
2.500000	1	0.077250
2.516667	1	0.077625
2.533333	1	0.077500
2.550000	1	0.077250
2.566667	1	0.076375
2.583333	1	0.075750
2.600000	1	0.075500
2.616667	1	0.075125
2.633333	1	0.075375
2.650000	1	0.075375
2.666667	1	0.074875
2.683333	1	0.074375
2.700000	1	0.074250
2.716667	1	0.075000
2.733333	1	0.074375
2.750000	1	0.074000
2.766667	1	0.073875
2.783333	1	0.073750
2.800000	1	0.074000
2.816667	1	0.074000
2.833333	1	0.073750
2.850000	1	0.074000
2.866667	1	0.074250
2.883333	1	0.074000
2.900000	1	0.073500
2.916667	1	0.072625
2.933333	1	0.072125
2.950000	1	0.072250
2.966667	1	0.071375
2.983333	1	0.070125
3.000000	1	0.069375
3.016667	1	0.068000
3.033333	1	0.066875
3.050000	1	0.066000
3.066667	1	0.065500
3.083333	1	0.063125
3.100000	1	0.061750
3.116667	1	0.060000
3.133333	1	0.057875
3.150000	1	0.056250
3.166667	1	0.054625
3.183333	1	0.052625
3.200000	1	0.050500
3.216667	1	0.048125
3.233333	1	0.045625
3.250000	1	0.043375
3.266667	1	0.041250
3.283333	1	0.039125
3.300000	1	0.036125
3.316667	1	0.033500
3.333333	1	0.031250
3.350000	1	0.028750
3.366667	1	0.026250
3.383333	1	0.023875
3.400000	1	0.022125
3.416667	1	0.020250
3.433333	1	0.018500
3.450000	1	0.017625
3.466667	1	0.016625
3.483333	1	0.015000
3.500000	1	0.013750
3.516667	1	0.012875
3.533333	1	0.012750
3.550000	1	0.012625
3.566667	1	0.013125
3.583333	1	0.013000
3.600000	1	0.012500
3.616667	1	0.012750
3.633333	1	0.013750
3.650000	1	0.015000
3.666667	1	0.015750
3.683333	1	0.016750
3.700000	1	0.016750
3.716667	1	0.016875
3.733333	1	0.017625
3.750000	1	0.018625
3.766667	1	0.019125
3.783333	1	0.019500
3.800000	1	0.020250
3.816667	1	0.021000
3.833333	1	0.021250
3.850000	1	0.021750
3.866667	1	0.021875
3.883333	1	0.021875
3.900000	1	0.021750
3.916667	1	0.021875
3.933333	1	0.022125
3.950000	1	0.022750
3.966667	1	0.023125
3.983333	1	0.023625
4.000000	1	0.024875
4.016667	1	0.025750
4.033333	1	0.027500
4.050000	1	0.028875
4.066667	1	0.030500
4.083333	1	0.032125
4.100000	1	0.033250
4.116667	1	0.034875
4.133333	1	0.037375
4.150000	1	0.040125
4.166667	1	0.043500
4.183333	1	0.045875
4.200000	1	0.048750
4.216667	1	0.051750
4.233333	1	0.055000
4.250000	1	0.058875
4.266667	1	0.061875
4.283333	1	0.065875
4.300000	1	0.069250
4.316667	1	0.072875
4.333333	1	0.075625
4.350000	1	0.078250
4.366667	1	0.080375
4.383333	1	0.083000
4.400000	1	0.085250
4.416667	1	0.087250
4.433333	1	0.088875
4.450000	1	0.089875
4.466667	1	0.091625
4.483333	1	0.092125
4.500000	1	0.092750
4.516667	1	0.092875
4.533333	1	0.092625
4.550000	1	0.092125
4.566667	1	0.091375
4.583333	1	0.090625
4.600000	1	0.089625
4.616667	1	0.088875
4.633333	1	0.088250
4.650000	1	0.086750
4.666667	1	0.084625
4.683333	1	0.082875
4.700000	1	0.081250
4.716667	1	0.079500
4.733333	1	0.078125
4.750000	1	0.077125
4.766667	1	0.075000
4.783333	1	0.073125
4.800000	1	0.071375
4.816667	1	0.070750
4.833333	1	0.070000
4.850000	1	0.069875
4.866667	1	0.069625
4.883333	1	0.069625
4.900000	1	0.068875
4.916667	1	0.069375
4.933333	1	0.070125
4.950000	1	0.071375
4.966667	1	0.073625
4.983333	1	0.075500
5.000000	1	0.077125
5.016667	1	0.080125
5.033333	1	0.083125
5.050000	1	0.086500
5.066667	1	0.089625
5.083333	1	0.093250
5.100000	1	0.097250
5.116667	1	0.102125
5.133333	1	0.106875
5.150000	1	0.110625
5.166667	1	0.116125
5.183333	1	0.120750
5.200000	1	0.127250
5.216667	1	0.133000
5.233333	1	0.138250
5.250000	1	0.143625
5.266667	1	0.149000
5.283333	1	0.154375
5.300000	1	0.160250
5.316667	1	0.166125
5.333333	1	0.171375
5.350000	1	0.176375
5.366667	1	0.182750
5.383333	1	0.188625
5.400000	1	0.193500
5.416667	1	0.198000
5.433333	1	0.202750
5.450000	1	0.206625
5.466667	1	0.210375
5.483333	1	0.214125
5.500000	1	0.217875
5.516667	1	0.220875
5.533333	1	0.224000
5.550000	1	0.227125
5.566667	1	0.229625
5.583333	1	0.231125
5.600000	1	0.232875
5.616667	1	0.234875
5.633333	1	0.236625
5.650000	1	0.238500
5.666667	1	0.239500
5.683333	1	0.241250
5.700000	1	0.242125
5.716667	1	0.243625
5.733333	1	0.245125
5.750000	1	0.246125
5.766667	1	0.247000
5.783333	1	0.247625
5.800000	1	0.248250
5.816667	1	0.248625
5.833333	1	0.249375
5.850000	1	0.249250
5.866667	1	0.248875
5.883333	1	0.248875
5.900000	1	0.248500
5.916667	1	0.247500
5.933333	1	0.247125
5.950000	1	0.246375
5.966667	1	0.245250
5.983333	1	0.243875
6.000000	1	0.242500
6.016667	1	0.240500
6.033333	1	0.238500
6.050000	1	0.236125
6.066667	1	0.233375
6.083333	1	0.230250
6.100000	1	0.226375
6.116667	1	0.223000
6.133333	1	0.219875
6.150000	1	0.216500
6.166667	1	0.212500
6.183333	1	0.208875
6.200000	1	0.204750
6.216667	1	0.200125
6.233333	1	0.195500
6.250000	1	0.191500
6.266667	1	0.187500
6.283333	1	0.183875
6.300000	1	0.179500
6.316667	1	0.176250
6.333333	1	0.172875
6.350000	1	0.169875
6.366667	1	0.167125
6.383333	1	0.164500
6.400000	1	0.162125
6.416667	1	0.160875
6.433333	1	0.159500
6.450000	1	0.157875
6.466667	1	0.156750
6.483333	1	0.156125
6.500000	1	0.156000
6.516667	1	0.155625
6.533333	1	0.156250
6.550000	1	0.156750
6.566667	1	0.156375
6.583333	1	0.156875
6.600000	1	0.157250
6.616667	1	0.157750
6.633333	1	0.157750
6.650000	1	0.157625
6.666667	1	0.158250
6.683333	1	0.158625
6.700000	1	0.159125
6.716667	1	0.159500
6.733333	1	0.160000
6.750000	1	0.159375
6.766667	1	0.160000
6.783333	1	0.160250
6.800000	1	0.160125
6.816667	1	0.159000
6.833333	1	0.158500
6.850000	1	0.158000
6.866667	1	0.156875
6.883333	1	0.156125
6.900000	1	0.155250
6.916667	1	0.154125
6.933333	1	0.153750
6.950000	1	0.152500
6.966667	1	0.151250
6.983333	1	0.149875
7.000000	1	0.148750
7.016667	1	0.147875
7.033333	1	0.146875
7.050000	1	0.146500
7.066667	1	0.146625
7.083333	1	0.146750
7.100000	1	0.146000
7.116667	1	0.145625
7.133333	1	0.146250
7.150000	1	0.146750
7.166667	1	0.147500
7.183333	1	0.147750
7.200000	1	0.147875
7.216667	1	0.149500
7.233333	1	0.150875
7.250000	1	0.152250
7.266667	1	0.153500
7.283333	1	0.154875
7.300000	1	0.156750
7.316667	1	0.158625
7.333333	1	0.161000
7.350000	1	0.162375
7.366667	1	0.164875
7.383333	1	0.167000
7.400000	1	0.168750
7.416667	1	0.171625
7.433333	1	0.173750
7.450000	1	0.176625
7.466667	1	0.178375
7.483333	1	0.180125
7.500000	1	0.182250
7.516667	1	0.184000
7.533333	1	0.185500
7.550000	1	0.187125
7.566667	1	0.189000
7.583333	1	0.190250
7.600000	1	0.190875
7.616667	1	0.191375
7.633333	1	0.191750
7.650000	1	0.191500
7.666667	1	0.191625
7.683333	1	0.190875
7.700000	1	0.189375
7.716667	1	0.188125
7.733333	1	0.186750
7.750000	1	0.185750
7.766667	1	0.184125
7.783333	1	0.182250
7.800000	1	0.180375
7.816667	1	0.177625
7.833333	1	0.175375
7.850000	1	0.173000
7.866667	1	0.170375
7.883333	1	0.167875
7.900000	1	0.165625
7.916667	1	0.163125
7.933333	1	0.160500
7.950000	1	0.158125
7.966667	1	0.155750
7.983333	1	0.153625
8.000000	1	0.151625
8.016667	1	0.149875
8.033333	1	0.148000
8.050000	1	0.145625
8.066667	1	0.144125
8.083333	1	0.142250
8.100000	1	0.140500
8.116667	1	0.138500
8.133333	1	0.136875
8.150000	1	0.135000
8.166667	1	0.133500
8.183333	1	0.132625
8.200000	1	0.130750
8.216667	1	0.128625
8.233333	1	0.127250
8.250000	1	0.124875
8.266667	1	0.122250
8.283333	1	0.121000
8.300000	1	0.119125
8.316667	1	0.117375
8.333333	1	0.114500
8.350000	1	0.112125
8.366667	1	0.109125
8.383333	1	0.106000
8.400000	1	0.102500
8.416667	1	0.099000
8.433333	1	0.095500
8.450000	1	0.091375
8.466667	1	0.087500
8.483333	1	0.082750
8.500000	1	0.079000
8.516667	1	0.075250
8.533333	1	0.071250
8.550000	1	0.067000
8.566667	1	0.062750
8.583333	1	0.058250
8.600000	1	0.053625
8.616667	1	0.049000
8.633333	1	0.045250
8.650000	1	0.041500
8.666667	1	0.037875
8.683333	1	0.034250
8.700000	1	0.030875
8.716667	1	0.027875
8.733333	1	0.025500
8.750000	1	0.023625
8.766667	1	0.022000
8.783333	1	0.020375
8.800000	1	0.018500
8.816667	1	0.016875
8.833333	1	0.016125
8.850000	1	0.015875
8.866667	1	0.016375
8.883333	1	0.017000
8.900000	1	0.018375
8.916667	1	0.019125
8.933333	1	0.020625
8.950000	1	0.022500
8.966667	1	0.024500
8.983333	1	0.027750
9.000000	1	0.029750
9.016667	1	0.031500
9.033333	1	0.033375
9.050000	1	0.035750
9.066667	1	0.038125
9.083333	1	0.040625
9.100000	1	0.043375
9.116667	1	0.047125
9.133333	1	0.049750
9.150000	1	0.052875
9.166667	1	0.055625
9.183333	1	0.058125
9.200000	1	0.060125
9.216667	1	0.062625
9.233333	1	0.065125
9.250000	1	0.067125
9.266667	1	0.069250
9.283333	1	0.071875
9.300000	1	0.073875
9.316667	1	0.075375
9.333333	1	0.077375
9.350000	1	0.079250
9.366667	1	0.081250
9.383333	1	0.082125
9.400000	1	0.083375
9.416667	1	0.084500
9.433333	1	0.086000
9.450000	1	0.087125
9.466667	1	0.088250
9.483333	1	0.089125
9.500000	1	0.090125
9.516667	1	0.091125
9.533333	1	0.092250
9.550000	1	0.092250
9.566667	1	0.093375
9.583333	1	0.093375
9.600000	1	0.093875
9.616667	1	0.093750
9.633333	1	0.094625
9.650000	1	0.095375
9.666667	1	0.095750
9.683333	1	0.096250
9.700000	1	0.096500
9.716667	1	0.097000
9.733333	1	0.096750
9.750000	1	0.097500
9.766667	1	0.098000
9.783333	1	0.098125
9.800000	1	0.097625
9.816667	1	0.097625
9.833333	1	0.096750
9.850000	1	0.096750
9.866667	1	0.097000
9.883333	1	0.096875
9.900000	1	0.096000
9.916667	1	0.096250
9.933333	1	0.096750
9.950000	1	0.096750
9.966667	1	0.096375
9.983333	1	0.096500
10.000000	1	0.097125
10.016667	1	0.098000
10.033333	1	0.099500
10.050000	1	0.101125
10.066667	1	0.103625
10.083333	1	0.106875
10.100000	1	0.111000
10.116667	1	0.115625
10.133333	1	0.121875
10.150000	1	0.128875
10.166667	1	0.137875
10.183333	1	0.146375
10.200000	1	0.157125
10.216667	1	0.169750
10.233333	1	0.184875
10.250000	1	0.199875
10.266667	1	0.218000
10.283333	1	0.238125
10.300000	1	0.261625
10.316667	1	0.286750
10.333333	1	0.314250
10.350000	1	0.342250
10.366667	1	0.371000
10.383333	1	0.397875
10.400000	1	0.420125
10.416667	1	0.438000
10.433333	1	0.449375
10.450000	1	0.457250
10.466667	1	0.467250
10.483333	1	0.490875
10.500000	1	0.545875
10.516667	1	0.663875
10.533333	1	0.884375
10.550000	1	1.261375
10.566667	1	1.854250
10.583333	1	2.727625
10.600000	1	3.942125
10.616667	1	5.547750
10.633333	1	7.580125
10.650000	1	10.052625
10.666667	1	12.969125
10.683333	1	16.311750
10.700000	1	20.046375
10.716667	1	24.112250
10.733333	1	28.421500
10.750000	1	32.850125
10.766667	1	37.225125
10.783333	1	41.320375
10.800000	1	44.858375
10.816667	1	47.517875
10.833333	1	48.992125
10.850000	1	49.049500
10.866667	1	47.613500
10.883333	1	44.799500
10.900000	1	40.906500
10.916667	1	36.346750
10.933333	1	31.549625
10.950000	1	26.872875
10.966667	1	22.561750
10.983333	1	18.754750
11.000000	1	15.498500
11.016667	1	12.780375
11.033333	1	10.555000
11.050000	1	8.760875
11.066667	1	7.330875
11.083333	1	6.198500
11.100000	1	5.305625
11.116667	1	4.601750
11.133333	1	4.043875
11.150000	1	3.599125
11.166667	1	3.240500
11.183333	1	2.948250
11.200000	1	2.707500
11.216667	1	2.507250
11.233333	1	2.338625
11.250000	1	2.194000
11.266667	1	2.069125
11.283333	1	1.959875
11.300000	1	1.863875
11.316667	1	1.779250
11.333333	1	1.704250
11.350000	1	1.638125
11.366667	1	1.579500
11.383333	1	1.527000
11.400000	1	1.480625
11.416667	1	1.439500
11.433333	1	1.402750
11.450000	1	1.369750
11.466667	1	1.340000
11.483333	1	1.312750
11.500000	1	1.288250
11.516667	1	1.265625
11.533333	1	1.244875
11.550000	1	1.227125
11.566667	1	1.210375
11.583333	1	1.195000
11.600000	1	1.181000
11.616667	1	1.168375
11.633333	1	1.157125
11.650000	1	1.146750
11.666667	1	1.137875
11.683333	1	1.130375
11.700000	1	1.124375
11.716667	1	1.119500
11.733333	1	1.116500
11.750000	1	1.113625
11.766667	1	1.112125
11.783333	1	1.112625
11.800000	1	1.114000
11.816667	1	1.116125
11.833333	1	1.118625
11.850000	1	1.121875
11.866667	1	1.125750
11.883333	1	1.129500
11.900000	1	1.133250
11.916667	1	1.136500
11.933333	1	1.140000
11.950000	1	1.143750
11.966667	1	1.147000
11.983333	1	1.151000
12.000000	1	1.155500
12.016667	1	1.160250
12.033333	1	1.165000
12.050000	1	1.170750
12.066667	1	1.177625
12.083333	1	1.183500
12.100000	1	1.190250
12.116667	1	1.197125
12.133333	1	1.204625
12.150000	1	1.212625
12.166667	1	1.221125
12.183333	1	1.229250
12.200000	1	1.239625
12.216667	1	1.250625
12.233333	1	1.263000
12.250000	1	1.276875
12.266667	1	1.293500
12.283333	1	1.313375
12.300000	1	1.336500
12.316667	1	1.365250
12.333333	1	1.400125
12.350000	1	1.442125
12.366667	1	1.492875
12.383333	1	1.555875
12.400000	1	1.633750
12.416667	1	1.730625
12.433333	1	1.850250
12.450000	1	1.997875
12.466667	1	2.177750
12.483333	1	2.395500
12.500000	1	2.655000
12.516667	1	2.959750
12.533333	1	3.309625
12.550000	1	3.701750
12.566667	1	4.131000
12.583333	1	4.588875
12.600000	1	5.060875
12.616667	1	5.532375
12.633333	1	5.986625
12.650000	1	6.406875
12.666667	1	6.774750
12.683333	1	7.076500
12.700000	1	7.299500
12.716667	1	7.437500
12.733333	1	7.488000
12.750000	1	7.454000
12.766667	1	7.343375
12.783333	1	7.167000
12.800000	1	6.937500
12.816667	1	6.666875
12.833333	1	6.367875
12.850000	1	6.050000
12.866667	1	5.724625
12.883333	1	5.399000
12.900000	1	5.080125
12.916667	1	4.773750
12.933333	1	4.485125
12.950000	1	4.215750
12.966667	1	3.970000
12.983333	1	3.748000
13.000000	1	3.550000
13.016667	1	3.374750
13.033333	1	3.220375
13.050000	1	3.085375
13.066667	1	2.966625
13.083333	1	2.863375
13.100000	1	2.772125
13.116667	1	2.692250
13.133333	1	2.621000
13.150000	1	2.557125
13.166667	1	2.499375
13.183333	1	2.447250
13.200000	1	2.397875
13.216667	1	2.352875
13.233333	1	2.310500
13.250000	1	2.269750
13.266667	1	2.230000
13.283333	1	2.192500
13.300000	1	2.156625
13.316667	1	2.120875
13.333333	1	2.087250
13.350000	1	2.055375
13.366667	1	2.025125
13.383333	1	1.996750
13.400000	1	1.970000
13.416667	1	1.945125
13.433333	1	1.923250
13.450000	1	1.903250
13.466667	1	1.886125
13.483333	1	1.871500
13.500000	1	1.859375
13.516667	1	1.849500
13.533333	1	1.841250
13.550000	1	1.834625
13.566667	1	1.829000
13.583333	1	1.823500
13.600000	1	1.817625
13.616667	1	1.810375
13.633333	1	1.801875
13.650000	1	1.792750
13.666667	1	1.781125
13.683333	1	1.766500
13.700000	1	1.749250
13.716667	1	1.729375
13.733333	1	1.707875
13.750000	1	1.685375
13.766667	1	1.662125
13.783333	1	1.638500
13.800000	1	1.614750
13.816667	1	1.590750
13.833333	1	1.569000
13.850000	1	1.547750
13.866667	1	1.527750
13.883333	1	1.508750
13.900000	1	1.490625
13.916667	1	1.474625
13.933333	1	1.458625
13.950000	1	1.443500
13.966667	1	1.429125
13.983333	1	1.416000
14.000000	1	1.404125
14.016667	1	1.393625
14.033333	1	1.383125
14.050000	1	1.373875
14.066667	1	1.365500
14.083333	1	1.357375
14.100000	1	1.350125
14.116667	1	1.343125
14.133333	1	1.336750
14.150000	1	1.331125
14.166667	1	1.326125
14.183333	1	1.322000
14.200000	1	1.320000
14.216667	1	1.318375
14.233333	1	1.318750
14.250000	1	1.320250
14.266667	1	1.324500
14.283333	1	1.330750
14.300000	1	1.339500
14.316667	1	1.350750
14.333333	1	1.366500
14.350000	1	1.385625
14.366667	1	1.409875
14.383333	1	1.439625
14.400000	1	1.476375
14.416667	1	1.524250
14.433333	1	1.585000
14.450000	1	1.664125
14.466667	1	1.767500
14.483333	1	1.905125
14.500000	1	2.089250
14.516667	1	2.336250
14.533333	1	2.668375
14.550000	1	3.112000
14.566667	1	3.701250
14.583333	1	4.473625
14.600000	1	5.473625
14.616667	1	6.749500
14.633333	1	8.352375
14.650000	1	10.326375
14.666667	1	12.706750
14.683333	1	15.513750
14.700000	1	18.742125
14.716667	1	22.358500
14.733333	1	26.299375
14.750000	1	30.467250
14.766667	1	34.733125
14.783333	1	38.938750
14.800000	1	42.916500
14.816667	1	46.493375
14.833333	1	49.504000
14.850000	1	51.803125
14.866667	1	53.279625
14.883333	1	53.865875
14.900000	1	53.548125
14.916667	1	52.362625
14.933333	1	50.391250
14.950000	1	47.751500
14.966667	1	44.587500
14.983333	1	41.059375
15.000000	1	37.322125
15.016667	1	33.517000
15.033333	1	29.767500
15.050000	1	26.176625
15.066667	1	22.820625
15.083333	1	19.750875
15.100000	1	16.995125
15.116667	1	14.561500
15.133333	1	12.441375
15.150000	1	10.616375
15.166667	1	9.060750
15.183333	1	7.745625
15.200000	1	6.643000
15.216667	1	5.722500
15.233333	1	4.959000
15.250000	1	4.329125
15.266667	1	3.812125
15.283333	1	3.390750
15.300000	1	3.050750
15.316667	1	2.779250
15.333333	1	2.564125
15.350000	1	2.398250
15.366667	1	2.271875
15.383333	1	2.178000
15.400000	1	2.110875
15.416667	1	2.064750
15.433333	1	2.034125
15.450000	1	2.014875
15.466667	1	2.002500
15.483333	1	1.992375
15.500000	1	1.982625
15.516667	1	1.969375
15.533333	1	1.953125
15.550000	1	1.931125
15.566667	1	1.902750
15.583333	1	1.868625
15.600000	1	1.830875
15.616667	1	1.789375
15.633333	1	1.746125
15.650000	1	1.701500
15.666667	1	1.657375
15.683333	1	1.615000
15.700000	1	1.574500
15.716667	1	1.536625
15.733333	1	1.501375
15.750000	1	1.468375
15.766667	1	1.438625
15.783333	1	1.410875
15.800000	1	1.385125
15.816667	1	1.362000
15.833333	1	1.340500
15.850000	1	1.320500
15.866667	1	1.301750
15.883333	1	1.285875
15.900000	1	1.271125
15.916667	1	1.258250
15.933333	1	1.247000
15.950000	1	1.238125
15.966667	1	1.230750
15.983333	1	1.225750
16.000000	1	1.222875
16.016667	1	1.221250
16.033333	1	1.221250
16.050000	1	1.221875
16.066667	1	1.224125
16.083333	1	1.227125
16.100000	1	1.230625
16.116667	1	1.234750
16.133333	1	1.239250
16.150000	1	1.243000
16.166667	1	1.245500
16.183333	1	1.248000
16.200000	1	1.249625
16.216667	1	1.249875
16.233333	1	1.249750
16.250000	1	1.247750
16.266667	1	1.245625
16.283333	1	1.242125
16.300000	1	1.237875
16.316667	1	1.232625
16.333333	1	1.226750
16.350000	1	1.221375
16.366667	1	1.216125
16.383333	1	1.211500
16.400000	1	1.208000
16.416667	1	1.204875
16.433333	1	1.202750
16.450000	1	1.202125
16.466667	1	1.202125
16.483333	1	1.203750
16.500000	1	1.205000
16.516667	1	1.206750
16.533333	1	1.208125
16.550000	1	1.209125
16.566667	1	1.208875
16.583333	1	1.208750
16.600000	1	1.207250
16.616667	1	1.204875
16.633333	1	1.200750
16.650000	1	1.196125
16.666667	1	1.190625
16.683333	1	1.185750
16.700000	1	1.180750
16.716667	1	1.176750
16.733333	1	1.173250
16.750000	1	1.171625
16.766667	1	1.171375
16.783333	1	1.172875
16.800000	1	1.175750
16.816667	1	1.179750
16.833333	1	1.184000
16.850000	1	1.189750
16.866667	1	1.194875
16.883333	1	1.199500
16.900000	1	1.204375
16.916667	1	1.207375
16.933333	1	1.209500
16.950000	1	1.210250
16.966667	1	1.210750
16.983333	1	1.208625
17.000000	1	1.205500
17.016667	1	1.201125
17.033333	1	1.196375
17.050000	1	1.191875
17.066667	1	1.186500
17.083333	1	1.181500
17.100000	1	1.176625
17.116667	1	1.172875
17.133333	1	1.169500
17.150000	1	1.166250
17.166667	1	1.164125
17.183333	1	1.163250
17.200000	1	1.163375
17.216667	1	1.163500
17.233333	1	1.165000
17.250000	1	1.167250
17.266667	1	1.169625
17.283333	1	1.173000
17.300000	1	1.176375
17.316667	1	1.180375
17.333333	1	1.183750
17.350000	1	1.188500
17.366667	1	1.193000
17.383333	1	1.197500
17.400000	1	1.201000
17.416667	1	1.203500
17.433333	1	1.205000
17.450000	1	1.205750
17.466667	1	1.204875
17.483333	1	1.202750
17.500000	1	1.198750
17.516667	1	1.192750
17.533333	1	1.184625
17.550000	1	1.174750
17.566667	1	1.164000
17.583333	1	1.151250
17.600000	1	1.137875
17.616667	1	1.123250
17.633333	1	1.107500
17.650000	1	1.091875
17.666667	1	1.075875
17.683333	1	1.059625
17.700000	1	1.044375
17.716667	1	1.029625
17.733333	1	1.016125
17.750000	1	1.002875
17.766667	1	0.991375
17.783333	1	0.980875
17.800000	1	0.971750
17.816667	1	0.963000
17.833333	1	0.955625
17.850000	1	0.949125
17.866667	1	0.943875
17.883333	1	0.939500
17.900000	1	0.934750
17.916667	1	0.930750
17.933333	1	0.927250
17.950000	1	0.924000
17.966667	1	0.920875
17.983333	1	0.917750
18.000000	1	0.914000
18.016667	1	0.910000
18.033333	1	0.905125
18.050000	1	0.901625
18.066667	1	0.896750
18.083333	1	0.891375
18.100000	1	0.886125
18.116667	1	0.881250
18.133333	1	0.876875
18.150000	1	0.872250
18.166667	1	0.867500
18.183333	1	0.864125
18.200000	1	0.860500
18.216667	1	0.858250
18.233333	1	0.855750
18.250000	1	0.854375
18.266667	1	0.852750
18.283333	1	0.851375
18.300000	1	0.850000
18.316667	1	0.849625
18.333333	1	0.849625
18.350000	1	0.850375
18.366667	1	0.852125
18.383333	1	0.853625
18.400000	1	0.855625
18.416667	1	0.859375
18.433333	1	0.864625
18.450000	1	0.870875
18.466667	1	0.879250
18.483333	1	0.890125
18.500000	1	0.902125
18.516667	1	0.916125
18.533333	1	0.932875
18.550000	1	0.951625
18.566667	1	0.971250
18.583333	1	0.993375
18.600000	1	1.018000
18.616667	1	1.043625
18.633333	1	1.070625
18.650000	1	1.100125
18.666667	1	1.129750
18.683333	1	1.160500
18.700000	1	1.191625
18.716667	1	1.223875
18.733333	1	1.256250
18.750000	1	1.289500
18.766667	1	1.322125
18.783333	1	1.353500
18.800000	1	1.384375
18.816667	1	1.412750
18.833333	1	1.438125
18.850000	1	1.460500
18.866667	1	1.479375
18.883333	1	1.494750
18.900000	1	1.504875
18.916667	1	1.509750
18.933333	1	1.509000
18.950000	1	1.502000
18.966667	1	1.489875
18.983333	1	1.470875
19.000000	1	1.446625
19.016667	1	1.417000
19.033333	1	1.383250
19.050000	1	1.345000
19.066667	1	1.303500
19.083333	1	1.260250
19.100000	1	1.215750
19.116667	1	1.170375
19.133333	1	1.125375
19.150000	1	1.082750
19.166667	1	1.043125
19.183333	1	1.005750
19.200000	1	0.971750
19.216667	1	0.942625
19.233333	1	0.918500
19.250000	1	0.899500
19.266667	1	0.886000
19.283333	1	0.878000
19.300000	1	0.875750
19.316667	1	0.879375
19.333333	1	0.889000
19.350000	1	0.903500
19.366667	1	0.921500
19.383333	1	0.944625
19.400000	1	0.971250
19.416667	1	1.001375
19.433333	1	1.033625
19.450000	1	1.067750
19.466667	1	1.100875
19.483333	1	1.133250
19.500000	1	1.164500
19.516667	1	1.193500
19.533333	1	1.219250
19.550000	1	1.240625
19.566667	1	1.257875
19.583333	1	1.270500
19.600000	1	1.278125
19.616667	1	1.280125
19.633333	1	1.277750
19.650000	1	1.270125
19.666667	1	1.258000
19.683333	1	1.241625
19.700000	1	1.221875
19.716667	1	1.198125
19.733333	1	1.172375
19.750000	1	1.144000
19.766667	1	1.113375
19.783333	1	1.081875
19.800000	1	1.048875
19.816667	1	1.016125
19.833333	1	0.983250
19.850000	1	0.949750
19.866667	1	0.917625
19.883333	1	0.886625
19.900000	1	0.857375
19.916667	1	0.830250
19.933333	1	0.805625
19.950000	1	0.783875
19.966667	1	0.764500
19.983333	1	0.750250
20.000000	1	0.738750
20.016667	1	0.731500
20.033333	1	0.728375
20.050000	1	0.730250
20.066667	1	0.736250
20.083333	1	0.746750
20.100000	1	0.762625
20.116667	1	0.782875
20.133333	1	0.807250
20.150000	1	0.835875
20.166667	1	0.867250
20.183333	1	0.901250
20.200000	1	0.935750
20.216667	1	0.971750
20.233333	1	1.005875
20.250000	1	1.038375
20.266667	1	1.067500
20.283333	1	1.092500
20.300000	1	1.111250
20.316667	1	1.124000
20.333333	1	1.129500
20.350000	1	1.128750
20.366667	1	1.120500
20.383333	1	1.105625
20.400000	1	1.084875
20.416667	1	1.058000
20.433333	1	1.028125
20.450000	1	0.994750
20.466667	1	0.960500
20.483333	1	0.925250
20.500000	1	0.891375
20.516667	1	0.859750
20.533333	1	0.832875
20.550000	1	0.810375
20.566667	1	0.793250
20.583333	1	0.783750
20.600000	1	0.781875
20.616667	1	0.787750
20.633333	1	0.803000
20.650000	1	0.827375
20.666667	1	0.860125
20.683333	1	0.901875
20.700000	1	0.951500
20.716667	1	1.009125
20.733333	1	1.072375
20.750000	1	1.141750
20.766667	1	1.213375
20.783333	1	1.287000
20.800000	1	1.359500
20.816667	1	1.428625
20.833333	1	1.492000
20.850000	1	1.549125
20.866667	1	1.596250
20.883333	1	1.632750
20.900000	1	1.656500
20.916667	1	1.667500
20.933333	1	1.665000
20.950000	1	1.649625
20.966667	1	1.621875
20.983333	1	1.582750
21.000000	1	1.533625
21.016667	1	1.476750
21.033333	1	1.413250
21.050000	1	1.345250
21.066667	1	1.275375
21.083333	1	1.203875
21.100000	1	1.134250
21.116667	1	1.066375
21.133333	1	1.001750
21.150000	1	0.941250
21.166667	1	0.884625
21.183333	1	0.833125
21.200000	1	0.786125
21.216667	1	0.743750
21.233333	1	0.706000
21.250000	1	0.672750
21.266667	1	0.644250
21.283333	1	0.618875
21.300000	1	0.596625
21.316667	1	0.577375
21.333333	1	0.561500
21.350000	1	0.548000
21.366667	1	0.536125
21.383333	1	0.526250
21.400000	1	0.518250
21.416667	1	0.511875
21.433333	1	0.505750
21.450000	1	0.500625
21.466667	1	0.497750
21.483333	1	0.495750
21.500000	1	0.494000
21.516667	1	0.494000
21.533333	1	0.494750
21.550000	1	0.496250
21.566667	1	0.500000
21.583333	1	0.505500
21.600000	1	0.511750
21.616667	1	0.520125
21.633333	1	0.530125
21.650000	1	0.542500
21.666667	1	0.556375
21.683333	1	0.572875
21.700000	1	0.591750
21.716667	1	0.612250
21.733333	1	0.635250
21.750000	1	0.660250
21.766667	1	0.688000
21.783333	1	0.716000
21.800000	1	0.745375
21.816667	1	0.776125
21.833333	1	0.807000
21.850000	1	0.836625
21.866667	1	0.865750
21.883333	1	0.893250
21.900000	1	0.919625
21.916667	1	0.943250
21.933333	1	0.964000
21.950000	1	0.981375
21.966667	1	0.994875
21.983333	1	1.003625
22.000000	1	1.008625
22.016667	1	1.010250
22.033333	1	1.007875
22.050000	1	1.001375
22.066667	1	0.991375
22.083333	1	0.978375
22.100000	1	0.962750
22.116667	1	0.944875
22.133333	1	0.924750
22.150000	1	0.903375
22.166667	1	0.880625
22.183333	1	0.857750
22.200000	1	0.834500
22.216667	1	0.811625
22.233333	1	0.787500
22.250000	1	0.764500
22.266667	1	0.741250
22.283333	1	0.719875
22.300000	1	0.698750
22.316667	1	0.677625
22.333333	1	0.657750
22.350000	1	0.639000
22.366667	1	0.621375
22.383333	1	0.604500
22.400000	1	0.589000
22.416667	1	0.574375
22.433333	1	0.560750
22.450000	1	0.548250
22.466667	1	0.537875
22.483333	1	0.527750
22.500000	1	0.519375
22.516667	1	0.511250
22.533333	1	0.504875
22.550000	1	0.498875
22.566667	1	0.493625
22.583333	1	0.488375
22.600000	1	0.483750
22.616667	1	0.479375
22.633333	1	0.475125
22.650000	1	0.470625
22.666667	1	0.467125
22.683333	1	0.463000
22.700000	1	0.457875
22.716667	1	0.453500
22.733333	1	0.448625
22.750000	1	0.443000
22.766667	1	0.437750
22.783333	1	0.431750
22.800000	1	0.425625
22.816667	1	0.418750
22.833333	1	0.411625
22.850000	1	0.406000
22.866667	1	0.399500
22.883333	1	0.393375
22.900000	1	0.387250
22.916667	1	0.382125
22.933333	1	0.376125
22.950000	1	0.371125
22.966667	1	0.366500
22.983333	1	0.362500
23.000000	1	0.358625
23.016667	1	0.354875
23.033333	1	0.352000
23.050000	1	0.349875
23.066667	1	0.348250
23.083333	1	0.346125
23.100000	1	0.345875
23.116667	1	0.345375
23.133333	1	0.345750
23.150000	1	0.345500
23.166667	1	0.346500
23.183333	1	0.347625
23.200000	1	0.349750
23.216667	1	0.351875
23.233333	1	0.354750
23.250000	1	0.359625
23.266667	1	0.365250
23.283333	1	0.373125
23.300000	1	0.382375
23.316667	1	0.393500
23.333333	1	0.407250
23.350000	1	0.424625
23.366667	1	0.446000
23.383333	1	0.472375
23.400000	1	0.505250
23.416667	1	0.545000
23.433333	1	0.593125
23.450000	1	0.651000
23.466667	1	0.718875
23.483333	1	0.799000
23.500000	1	0.891750
23.516667	1	1.000000
23.533333	1	1.124000
23.550000	1	1.265000
23.566667	1	1.423125
23.583333	1	1.599375
23.600000	1	1.793375
23.616667	1	2.003375
23.633333	1	2.228750
23.650000	1	2.467500
23.666667	1	2.716750
23.683333	1	2.974500
23.700000	1	3.236875
23.716667	1	3.498875
23.733333	1	3.755750
23.750000	1	4.001875
23.766667	1	4.233500
23.783333	1	4.444625
23.800000	1	4.629875
23.816667	1	4.786000
23.833333	1	4.909000
23.850000	1	4.997000
23.866667	1	5.048625
23.883333	1	5.062125
23.900000	1	5.038375
23.916667	1	4.978500
23.933333	1	4.884250
23.950000	1	4.758875
23.966667	1	4.606625
23.983333	1	4.430625
24.000000	1	4.235000
24.016667	1	4.025250
24.033333	1	3.805375
24.050000	1	3.579375
24.066667	1	3.351875
24.083333	1	3.125500
24.100000	1	2.903125
24.116667	1	2.686875
24.133333	1	2.480125
24.150000	1	2.283000
24.166667	1	2.098375
24.183333	1	1.926000
24.200000	1	1.765500
24.216667	1	1.617625
24.233333	1	1.482125
24.250000	1	1.358875
24.266667	1	1.246875
24.283333	1	1.146250
24.300000	1	1.055625
24.316667	1	0.974625
24.333333	1	0.902500
24.350000	1	0.838000
24.366667	1	0.781000
24.383333	1	0.731125
24.400000	1	0.688125
24.416667	1	0.650125
24.433333	1	0.617500
24.450000	1	0.589000
24.466667	1	0.565875
24.483333	1	0.544875
24.500000	1	0.527625
24.516667	1	0.512875
24.533333	1	0.500375
24.550000	1	0.490375
24.566667	1	0.480750
24.583333	1	0.472625
24.600000	1	0.465750
24.616667	1	0.459750
24.633333	1	0.454375
24.650000	1	0.449625
24.666667	1	0.444875
24.683333	1	0.440250
24.700000	1	0.435875
24.716667	1	0.430875
24.733333	1	0.425500
24.750000	1	0.420250
24.766667	1	0.414500
24.783333	1	0.409250
24.800000	1	0.403625
24.816667	1	0.398500
24.833333	1	0.391750
24.850000	1	0.386000
24.866667	1	0.380250
24.883333	1	0.374875
24.900000	1	0.369375
24.916667	1	0.364125
24.933333	1	0.358500
24.950000	1	0.353250
24.966667	1	0.348500
24.983333	1	0.343375
25.000000	1	0.338375
25.016667	1	0.333625
25.033333	1	0.329250
25.050000	1	0.325375
25.066667	1	0.320875
25.083333	1	0.317000
25.100000	1	0.313375
25.116667	1	0.309875
25.133333	1	0.306250
25.150000	1	0.302250
25.166667	1	0.298875
25.183333	1	0.295250
25.200000	1	0.292000
25.216667	1	0.289000
25.233333	1	0.285500
25.250000	1	0.282875
25.266667	1	0.280125
25.283333	1	0.277875
25.300000	1	0.276125
25.316667	1	0.273750
25.333333	1	0.272000
25.350000	1	0.270250
25.366667	1	0.268500
25.383333	1	0.267750
25.400000	1	0.266500
25.416667	1	0.265375
25.433333	1	0.265375
25.450000	1	0.266000
25.466667	1	0.266625
25.483333	1	0.266375
25.500000	1	0.266875
25.516667	1	0.268125
25.533333	1	0.268875
25.550000	1	0.269750
25.566667	1	0.270125
25.583333	1	0.271000
25.600000	1	0.271250
25.616667	1	0.271875
25.633333	1	0.272250
25.650000	1	0.273000
25.666667	1	0.273875
25.683333	1	0.274875
25.700000	1	0.274750
25.716667	1	0.274625
25.733333	1	0.275250
25.750000	1	0.275125
25.766667	1	0.275250
25.783333	1	0.274875
25.800000	1	0.274750
25.816667	1	0.274750
25.833333	1	0.274250
25.850000	1	0.274000
25.866667	1	0.273500
25.883333	1	0.273125
25.900000	1	0.273625
25.916667	1	0.274125
25.933333	1	0.275125
25.950000	1	0.276500
25.966667	1	0.277750
25.983333	1	0.279375
26.000000	1	0.281500
26.016667	1	0.283375
26.033333	1	0.287000
26.050000	1	0.290250
26.066667	1	0.294625
26.083333	1	0.299375
26.100000	1	0.304625
26.116667	1	0.310500
26.133333	1	0.315750
26.150000	1	0.321875
26.166667	1	0.328000
26.183333	1	0.334000
26.200000	1	0.339375
26.216667	1	0.345375
26.233333	1	0.351125
26.250000	1	0.357125
26.266667	1	0.361750
26.283333	1	0.367250
26.300000	1	0.371750
26.316667	1	0.376125
26.333333	1	0.379500
26.350000	1	0.382750
26.366667	1	0.385250
26.383333	1	0.387125
26.400000	1	0.388000
26.416667	1	0.388000
26.433333	1	0.387625
26.450000	1	0.386625
26.466667	1	0.385250
26.483333	1	0.382875
26.500000	1	0.379625
26.516667	1	0.375750
26.533333	1	0.371625
26.550000	1	0.367125
26.566667	1	0.362875
26.583333	1	0.357625
26.600000	1	0.352000
26.616667	1	0.346250
26.633333	1	0.340875
26.650000	1	0.336125
26.666667	1	0.330875
26.683333	1	0.325250
26.700000	1	0.319750
26.716667	1	0.313875
26.733333	1	0.308500
26.750000	1	0.303000
26.766667	1	0.298375
26.783333	1	0.293875
26.800000	1	0.289250
26.816667	1	0.285000
26.833333	1	0.281000
26.850000	1	0.277250
26.866667	1	0.274375
26.883333	1	0.271250
26.900000	1	0.269000
26.916667	1	0.266750
26.933333	1	0.264500
26.950000	1	0.262875
26.966667	1	0.261375
26.983333	1	0.261250
27.000000	1	0.261250
27.016667	1	0.261500
27.033333	1	0.262375
27.050000	1	0.264125
27.066667	1	0.266375
27.083333	1	0.269000
27.100000	1	0.272500
27.116667	1	0.277125
27.133333	1	0.282125
27.150000	1	0.288375
27.166667	1	0.295750
27.183333	1	0.304375
27.200000	1	0.314125
27.216667	1	0.325625
27.233333	1	0.339125
27.250000	1	0.354750
27.266667	1	0.372875
27.283333	1	0.393375
27.300000	1	0.417500
27.316667	1	0.444500
27.333333	1	0.475875
27.350000	1	0.511125
27.366667	1	0.552250
27.383333	1	0.598000
27.400000	1	0.650500
27.416667	1	0.708750
27.433333	1	0.774875
27.450000	1	0.847875
27.466667	1	0.930750
27.483333	1	1.022875
27.500000	1	1.123375
27.516667	1	1.233750
27.533333	1	1.354000
27.550000	1	1.483750
27.566667	1	1.623000
27.583333	1	1.770500
27.600000	1	1.926750
27.616667	1	2.089625
27.633333	1	2.260250
27.650000	1	2.435125
27.666667	1	2.613250
27.683333	1	2.793125
27.700000	1	2.972625
27.716667	1	3.148375
27.733333	1	3.318375
27.750000	1	3.480625
27.766667	1	3.632375
27.783333	1	3.770875
27.800000	1	3.893250
27.816667	1	3.998875
27.833333	1	4.085500
27.850000	1	4.150750
27.866667	1	4.194125
27.883333	1	4.214250
27.900000	1	4.210250
27.916667	1	4.182625
27.933333	1	4.130750
27.950000	1	4.058625
27.966667	1	3.965000
27.983333	1	3.851750
28.000000	1	3.721625
28.016667	1	3.576250
28.033333	1	3.418375
28.050000	1	3.250750
28.066667	1	3.075625
28.083333	1	2.896000
28.100000	1	2.714875
28.116667	1	2.533500
28.133333	1	2.354500
28.150000	1	2.179750
28.166667	1	2.011250
28.183333	1	1.850500
28.200000	1	1.697625
28.216667	1	1.553250
28.233333	1	1.419375
28.250000	1	1.294750
28.266667	1	1.179750
28.283333	1	1.074875
28.300000	1	0.979500
28.316667	1	0.893375
28.333333	1	0.815375
28.350000	1	0.746000
28.366667	1	0.684875
28.383333	1	0.632250
28.400000	1	0.585375
28.416667	1	0.545375
28.433333	1	0.511125
28.450000	1	0.482375
28.466667	1	0.458000
28.483333	1	0.438625
28.500000	1	0.423000
28.516667	1	0.411000
28.533333	1	0.401875
28.550000	1	0.396000
28.566667	1	0.393500
28.583333	1	0.393500
28.600000	1	0.394875
28.616667	1	0.397875
28.633333	1	0.402875
28.650000	1	0.409750
28.666667	1	0.417750
28.683333	1	0.426500
28.700000	1	0.435875
28.716667	1	0.445000
28.733333	1	0.454875
28.750000	1	0.464875
28.766667	1	0.474625
28.783333	1	0.484000
28.800000	1	0.493500
28.816667	1	0.502625
28.833333	1	0.510875
28.850000	1	0.518500
28.866667	1	0.525000
28.883333	1	0.530750
28.900000	1	0.534875
28.916667	1	0.538375
28.933333	1	0.540625
28.950000	1	0.542375
28.966667	1	0.542500
28.983333	1	0.541375
29.000000	1	0.538250
29.016667	1	0.533125
29.033333	1	0.526000
29.050000	1	0.517750
29.066667	1	0.507750
29.083333	1	0.496125
29.100000	1	0.481500
29.116667	1	0.465250
29.133333	1	0.446000
29.150000	1	0.425625
29.166667	1	0.403125
29.183333	1	0.377875
29.200000	1	0.350125
29.216667	1	0.320000
29.233333	1	0.286125
29.250000	1	0.249125
29.266667	1	0.210500
29.283333	1	0.168375
29.300000	1	0.123750
29.316667	1	0.076375
29.333333	1	0.025125
29.350000	1	-0.028625
29.366667	1	-0.084500
29.383333	1	-0.142625
29.400000	1	-0.203125
29.416667	1	-0.265250
29.433333	1	-0.330125
29.450000	1	-0.397000
29.466667	1	-0.464500
29.483333	1	-0.532625
29.500000	1	-0.600750
29.516667	1	-0.669250
29.533333	1	-0.737250
29.550000	1	-0.803875
29.566667	1	-0.869125
29.583333	1	-0.931500
29.600000	1	-0.991375
29.616667	1	-1.048125
29.633333	1	-1.101000
29.650000	1	-1.149375
29.666667	1	-1.192875
29.683333	1	-1.231500
29.700000	1	-1.265250
29.716667	1	-1.292250
29.733333	1	-1.313500
29.750000	1	-1.328500
29.766667	1	-1.338000
29.783333	1	-1.341000
29.800000	1	-1.337750
29.816667	1	-1.327875
29.833333	1	-1.313000
29.850000	1	-1.291875
29.866667	1	-1.266250
29.883333	1	-1.236125
29.900000	1	-1.201000
29.916667	1	-1.162125
29.933333	1	-1.119750
29.950000	1	-1.074875
29.966667	1	-1.027000
29.983333	1	-0.978250
30.000000	1	-0.927125
30.016667	1	-0.874500
30.033333	1	-0.822125
30.050000	1	-0.769625
30.066667	1	-0.716875
30.083333	1	-0.665000
30.100000	1	-0.614625
30.116667	1	-0.565250
30.133333	1	-0.518625
30.150000	1	-0.473375
30.166667	1	-0.430000
30.183333	1	-0.388750
30.200000	1	-0.349750
30.216667	1	-0.312875
30.233333	1	-0.278500
30.250000	1	-0.246000
30.266667	1	-0.216000
30.283333	1	-0.188125
30.300000	1	-0.162750
30.316667	1	-0.139500
30.333333	1	-0.117750
30.350000	1	-0.097250
30.366667	1	-0.080000
30.383333	1	-0.062500
30.400000	1	-0.047500
30.416667	1	-0.033250
30.433333	1	-0.020375
30.450000	1	-0.008375
30.466667	1	0.001875
30.483333	1	0.012250
30.500000	1	0.022250
30.516667	1	0.030750
30.533333	1	0.040125
30.550000	1	0.048625
30.566667	1	0.056875
30.583333	1	0.065625
30.600000	1	0.074500
30.616667	1	0.082750
30.633333	1	0.091125
30.650000	1	0.099750
30.666667	1	0.108125
30.683333	1	0.117375
30.700000	1	0.127375
30.716667	1	0.137875
30.733333	1	0.148625
30.750000	1	0.160625
30.766667	1	0.173750
30.783333	1	0.186375
30.800000	1	0.200625
30.816667	1	0.216000
30.833333	1	0.232500
30.850000	1	0.250000
30.866667	1	0.268625
30.883333	1	0.288625
30.900000	1	0.311125
30.916667	1	0.335750
30.933333	1	0.362625
30.950000	1	0.391375
30.966667	1	0.423375
30.983333	1	0.459750
31.000000	1	0.499875
31.016667	1	0.545125
31.033333	1	0.595500
31.050000	1	0.651625
31.066667	1	0.714375
31.083333	1	0.784500
31.100000	1	0.863250
31.116667	1	0.951250
31.133333	1	1.048250
31.150000	1	1.155125
31.166667	1	1.274000
31.183333	1	1.403875
31.200000	1	1.546125
31.216667	1	1.701500
31.233333	1	1.870625
31.250000	1	2.052750
31.266667	1	2.247375
31.283333	1	2.454250
31.300000	1	2.672250
31.316667	1	2.900625
31.333333	1	3.139125
31.350000	1	3.385250
31.366667	1	3.638375
31.383333	1	3.896125
31.400000	1	4.156250
31.416667	1	4.415375
31.433333	1	4.671875
31.450000	1	4.921500
31.466667	1	5.162750
31.483333	1	5.392125
31.500000	1	5.606125
31.516667	1	5.803000
31.533333	1	5.979000
31.550000	1	6.133125
31.566667	1	6.263000
31.583333	1	6.367500
31.600000	1	6.444250
31.616667	1	6.492500
31.633333	1	6.512625
31.650000	1	6.504000
31.666667	1	6.466125
31.683333	1	6.401125
31.700000	1	6.309875
31.716667	1	6.193875
31.733333	1	6.055750
31.750000	1	5.896250
31.766667	1	5.718000
31.783333	1	5.523125
31.800000	1	5.315250
31.816667	1	5.096250
31.833333	1	4.868375
31.850000	1	4.634750
31.866667	1	4.396875
31.883333	1	4.157875
31.900000	1	3.919625
31.916667	1	3.683750
31.933333	1	3.452625
31.950000	1	3.227000
31.966667	1	3.008125
31.983333	1	2.797125
32.000000	1	2.594750
32.016667	1	2.401125
32.033333	1	2.217125
32.050000	1	2.043000
32.066667	1	1.879125
32.083333	1	1.725000
32.100000	1	1.580875
32.116667	1	1.447000
32.133333	1	1.323000
32.150000	1	1.208375
32.166667	1	1.101750
32.183333	1	1.003125
32.200000	1	0.912750
32.216667	1	0.829000
32.233333	1	0.752375
32.250000	1	0.681875
32.266667	1	0.617625
32.283333	1	0.559250
32.300000	1	0.505250
32.316667	1	0.456375
32.333333	1	0.412375
32.350000	1	0.372125
32.366667	1	0.336000
32.383333	1	0.303250
32.400000	1	0.273125
32.416667	1	0.246375
32.433333	1	0.222875
32.450000	1	0.200875
32.466667	1	0.180375
32.483333	1	0.162750
32.500000	1	0.146625
32.516667	1	0.132125
32.533333	1	0.119250
32.550000	1	0.107750
32.566667	1	0.097250
32.583333	1	0.088375
32.600000	1	0.079750
32.616667	1	0.073250
32.633333	1	0.067750
32.650000	1	0.062625
32.666667	1	0.057625
32.683333	1	0.053750
32.700000	1	0.050125
32.716667	1	0.047000
32.733333	1	0.044375
32.750000	1	0.042250
32.766667	1	0.041125
32.783333	1	0.039750
32.800000	1	0.038875
32.816667	1	0.037500
32.833333	1	0.037375
32.850000	1	0.036625
32.866667	1	0.036250
32.883333	1	0.035875
32.900000	1	0.035875
32.916667	1	0.035750
32.933333	1	0.035375
32.950000	1	0.035125
32.966667	1	0.035375
32.983333	1	0.036125
33.000000	1	0.036500
33.016667	1	0.036625
33.033333	1	0.036375
33.050000	1	0.036875
33.066667	1	0.036625
33.083333	1	0.037125
33.100000	1	0.036375
33.116667	1	0.036750
33.133333	1	0.036750
33.150000	1	0.036500
33.166667	1	0.037625
33.183333	1	0.038250
33.200000	1	0.038250
33.216667	1	0.038875
33.233333	1	0.039250
33.250000	1	0.039375
33.266667	1	0.040625
33.283333	1	0.041750
33.300000	1	0.042250
33.316667	1	0.043125
33.333333	1	0.043875
33.350000	1	0.044000
33.366667	1	0.045625
33.383333	1	0.045625
33.400000	1	0.046500
33.416667	1	0.047125
33.433333	1	0.047375
33.450000	1	0.047750
33.466667	1	0.049000
33.483333	1	0.049625
33.500000	1	0.050500
33.516667	1	0.051750
33.533333	1	0.052875
33.550000	1	0.054000
33.566667	1	0.054625
33.583333	1	0.055750
33.600000	1	0.056500
33.616667	1	0.056625
33.633333	1	0.057375
33.650000	1	0.058250
33.666667	1	0.058375
33.683333	1	0.059125
33.700000	1	0.059500
33.716667	1	0.060500
33.733333	1	0.060375
33.750000	1	0.060250
33.766667	1	0.060875
33.783333	1	0.061375
33.800000	1	0.061875
33.816667	1	0.062625
33.833333	1	0.062500
33.850000	1	0.063750
33.866667	1	0.063875
33.883333	1	0.064750
33.900000	1	0.065125
33.916667	1	0.065875
33.933333	1	0.067000
33.950000	1	0.068125
33.966667	1	0.069250
33.983333	1	0.070125
34.000000	1	0.071000
34.016667	1	0.072250
34.033333	1	0.073625
34.050000	1	0.075250
34.066667	1	0.075875
34.083333	1	0.076875
34.100000	1	0.078375
34.116667	1	0.079500
34.133333	1	0.081000
34.150000	1	0.082375
34.166667	1	0.083750
34.183333	1	0.086125
34.200000	1	0.087125
34.216667	1	0.088500
34.233333	1	0.089500
34.250000	1	0.089875
34.266667	1	0.091500
34.283333	1	0.092500
34.300000	1	0.093375
34.316667	1	0.094625
34.333333	1	0.096250
34.350000	1	0.097250
34.366667	1	0.098250
34.383333	1	0.099125
34.400000	1	0.100000
34.416667	1	0.101125
34.433333	1	0.103000
34.450000	1	0.103875
34.466667	1	0.104250
34.483333	1	0.105250
34.500000	1	0.106250
34.516667	1	0.107875
34.533333	1	0.108875
34.550000	1	0.110250
34.566667	1	0.110500
34.583333	1	0.111625
34.600000	1	0.112125
34.616667	1	0.113125
34.633333	1	0.114625
34.650000	1	0.115875
34.666667	1	0.116375
34.683333	1	0.116500
34.700000	1	0.116625
34.716667	1	0.118000
34.733333	1	0.119125
34.750000	1	0.119500
34.766667	1	0.120750
34.783333	1	0.121500
34.800000	1	0.121750
34.816667	1	0.121750
34.833333	1	0.121250
34.850000	1	0.121500
34.866667	1	0.120875
34.883333	1	0.119750
34.900000	1	0.119625
34.916667	1	0.119125
34.933333	1	0.117875
34.950000	1	0.117125
34.966667	1	0.115875
34.983333	1	0.114375
35.000000	1	0.113500
35.016667	1	0.112125
35.033333	1	0.110500
35.050000	1	0.109125
35.066667	1	0.107250
35.083333	1	0.106500
35.100000	1	0.104625
35.116667	1	0.102875
35.133333	1	0.101125
35.150000	1	0.099375
35.166667	1	0.097875
35.183333	1	0.096875
35.200000	1	0.095000
35.216667	1	0.094125
35.233333	1	0.092375
35.250000	1	0.091250
35.266667	1	0.090000
35.283333	1	0.089375
35.300000	1	0.088375
35.316667	1	0.086375
35.333333	1	0.085375
35.350000	1	0.085000
35.366667	1	0.084375
35.383333	1	0.083875
35.400000	1	0.083875
35.416667	1	0.083875
35.433333	1	0.082500
35.450000	1	0.082750
35.466667	1	0.083125
35.483333	1	0.083375
35.500000	1	0.084000
35.516667	1	0.084750
35.533333	1	0.085500
35.550000	1	0.086625
35.566667	1	0.087375
35.583333	1	0.088500
35.600000	1	0.089375
35.616667	1	0.091000
35.633333	1	0.092875
35.650000	1	0.094625
35.666667	1	0.096125
35.683333	1	0.098375
35.700000	1	0.100375
35.716667	1	0.101750
35.733333	1	0.103750
35.750000	1	0.105750
35.766667	1	0.107625
35.783333	1	0.109250
35.800000	1	0.110625
35.816667	1	0.112750
35.833333	1	0.114125
35.850000	1	0.116000
35.866667	1	0.117125
35.883333	1	0.118500
35.900000	1	0.120125
35.916667	1	0.122000
35.933333	1	0.122750
35.950000	1	0.124000
35.966667	1	0.125125
35.983333	1	0.125625
36.000000	1	0.125625
36.016667	1	0.126625
36.033333	1	0.127375
36.050000	1	0.128375
36.066667	1	0.128500
36.083333	1	0.128875
36.100000	1	0.130000
36.116667	1	0.130375
36.133333	1	0.130500
36.150000	1	0.131000
36.166667	1	0.131375
36.183333	1	0.132250
36.200000	1	0.132750
36.216667	1	0.132500
36.233333	1	0.132625
36.250000	1	0.132625
36.266667	1	0.132875
36.283333	1	0.133500
36.300000	1	0.133875
36.316667	1	0.133750
36.333333	1	0.134125
36.350000	1	0.133625
36.366667	1	0.134000
36.383333	1	0.133625
36.400000	1	0.132625
36.416667	1	0.132375
36.433333	1	0.131875
36.450000	1	0.131125
36.466667	1	0.130625
36.483333	1	0.129250
36.500000	1	0.129000
36.516667	1	0.127625
36.533333	1	0.125875
36.550000	1	0.124375
36.566667	1	0.123625
36.583333	1	0.122000
36.600000	1	0.120625
36.616667	1	0.118750
36.633333	1	0.117250
36.650000	1	0.115625
36.666667	1	0.113875
36.683333	1	0.111875
36.700000	1	0.110750
36.716667	1	0.109250
36.733333	1	0.108000
36.750000	1	0.106375
36.766667	1	0.104625
36.783333	1	0.103625
36.800000	1	0.102000
36.816667	1	0.100750
36.833333	1	0.100125
36.850000	1	0.099750
36.866667	1	0.099750
36.883333	1	0.099750
36.900000	1	0.099750
36.916667	1	0.099875
36.933333	1	0.100000
36.950000	1	0.100000
36.966667	1	0.100500
36.983333	1	0.101000
37.000000	1	0.101375
37.016667	1	0.102250
37.033333	1	0.102750
37.050000	1	0.103625
37.066667	1	0.104375
37.083333	1	0.105875
37.100000	1	0.107500
37.116667	1	0.108125
37.133333	1	0.108375
37.150000	1	0.109375
37.166667	1	0.110250
37.183333	1	0.111000
37.200000	1	0.111875
37.216667	1	0.111500
37.233333	1	0.112375
37.250000	1	0.112250
37.266667	1	0.112500
37.283333	1	0.112125
37.300000	1	0.111625
37.316667	1	0.110500
37.333333	1	0.109875
37.350000	1	0.109125
37.366667	1	0.106875
37.383333	1	0.105500
37.400000	1	0.103250
37.416667	1	0.100750
37.433333	1	0.097750
37.450000	1	0.094875
37.466667	1	0.091500
37.483333	1	0.088625
37.500000	1	0.085500
37.516667	1	0.082250
37.533333	1	0.078625
37.550000	1	0.074625
37.566667	1	0.070375
37.583333	1	0.066250
37.600000	1	0.061625
37.616667	1	0.057875
37.633333	1	0.053500
37.650000	1	0.049375
37.666667	1	0.045875
37.683333	1	0.041875
37.700000	1	0.037875
37.716667	1	0.034250
37.733333	1	0.031125
37.750000	1	0.027500
37.766667	1	0.024250
37.783333	1	0.021000
37.800000	1	0.018250
37.816667	1	0.015000
37.833333	1	0.012750
37.850000	1	0.009875
37.866667	1	0.007375
37.883333	1	0.005750
37.900000	1	0.004250
37.916667	1	0.003250
37.933333	1	0.002125
37.950000	1	0.001750
37.966667	1	0.000500
37.983333	1	0.000000
38.000000	1	-0.000500
38.016667	1	-0.001125
38.033333	1	-0.000750
38.050000	1	-0.000625
38.066667	1	-0.000625
38.083333	1	0.000250
38.100000	1	0.001000
38.116667	1	0.002375
38.133333	1	0.004250
38.150000	1	0.005625
38.166667	1	0.007375
38.183333	1	0.009000
38.200000	1	0.010500
38.216667	1	0.012500
38.233333	1	0.013875
38.250000	1	0.015500
38.266667	1	0.018000
38.283333	1	0.020250
38.300000	1	0.023250
38.316667	1	0.025125
38.333333	1	0.027125
38.350000	1	0.029375
38.366667	1	0.031375
38.383333	1	0.032750
38.400000	1	0.034625
38.416667	1	0.036125
38.433333	1	0.037125
38.450000	1	0.038000
38.466667	1	0.038250
38.483333	1	0.038500
38.500000	1	0.039250
38.516667	1	0.039750
38.533333	1	0.040000
38.550000	1	0.040375
38.566667	1	0.040000
38.583333	1	0.039625
38.600000	1	0.039250
38.616667	1	0.038500
38.633333	1	0.038375
38.650000	1	0.038375
38.666667	1	0.038250
38.683333	1	0.037750
38.700000	1	0.037375
38.716667	1	0.037000
38.733333	1	0.036125
38.750000	1	0.035250
38.766667	1	0.034625
38.783333	1	0.034625
38.800000	1	0.034750
38.816667	1	0.034250
38.833333	1	0.033750
38.850000	1	0.034500
38.866667	1	0.034625
38.883333	1	0.034875
38.900000	1	0.034875
38.916667	1	0.034875
38.933333	1	0.034875
38.950000	1	0.035875
38.966667	1	0.036500
38.983333	1	0.037750
39.000000	1	0.039125
39.016667	1	0.039875
39.033333	1	0.040250
39.050000	1	0.040750
39.066667	1	0.041500
39.083333	1	0.041750
39.100000	1	0.041875
39.116667	1	0.041750
39.133333	1	0.042375
39.150000	1	0.042500
39.166667	1	0.042750
39.183333	1	0.042000
39.200000	1	0.041625
39.216667	1	0.041375
39.233333	1	0.040875
39.250000	1	0.039750
39.266667	1	0.039000
39.283333	1	0.038125
39.300000	1	0.036875
39.316667	1	0.035875
39.333333	1	0.035125
39.350000	1	0.033375
39.366667	1	0.032250
39.383333	1	0.030625
39.400000	1	0.029250
39.416667	1	0.027875
39.433333	1	0.026000
39.450000	1	0.024500
39.466667	1	0.022625
39.483333	1	0.021625
39.500000	1	0.020750
39.516667	1	0.019125
39.533333	1	0.017875
39.550000	1	0.017375
39.566667	1	0.017250
39.583333	1	0.016625
39.600000	1	0.016125
39.616667	1	0.015375
39.633333	1	0.015625
39.650000	1	0.015625
39.666667	1	0.015875
39.683333	1	0.017250
39.700000	1	0.017875
39.716667	1	0.018750
39.733333	1	0.020500
39.750000	1	0.021625
39.766667	1	0.022750
39.783333	1	0.023625
39.800000	1	0.025625
39.816667	1	0.026500
39.833333	1	0.028000
39.850000	1	0.029500
39.866667	1	0.031000
39.883333	1	0.031625
39.900000	1	0.032625
39.916667	1	0.033000
39.933333	1	0.033625
39.950000	1	0.033750
39.966667	1	0.033625
39.983333	1	0.033250
40.000000	1	0.032875
