URL	chrom://bioreactor/micro_cm7/HPLC_Ultimate_3000/Users/markusar/20240517_CMO_FP23_FP25_MarkusDeplate.seq/475.smp/RI_1.channel/RI_1.chm
Channel	RI_1

Injection Information:
Data Vault	micro_cm7
Sequence	20240517_CMO_FP23_FP25_MarkusDeplate
Name	FP28_22.1_s8
Number	149
Position	BB3
Comment	
Processing Method	
Instrument Method	run_25B_method
Type	Unknown
Status	Finished
Inject Time	01.06.2024 00:52:21 +02:00
Volume (µl)	20.0000
Dilution Factor	1.0000
Weight	1.0000

Chromatogram Data Information:
Time Min. (min)	0.000000
Time Max. (min)	40.000000
Data Points	2401
Detector	RI
Generating Data System	Chromeleon 7.3.2.11814
Exporting Data System	Chromeleon 7.3.2.0
Operator	Instrument Controller
Signal Quantity	Refractive 
Signal Unit	µRIU
Signal Min.	-0.953750
Signal Max.	51.075750
Channel	RI_1
Driver Name	RID520Driver.dll
Channel Type	Evaluation
Min. Step (s)	1
Max. Step (s)	1
Average Step (s)	1

Signal Parameter Information:
Signal Info	

Chromatogram Data:
Time (min)	Step (s)	Value (µRIU)
0.000000	n.a.	0.025250
0.016667	1	0.026875
0.033333	1	0.028250
0.050000	1	0.029375
0.066667	1	0.030875
0.083333	1	0.033375
0.100000	1	0.034625
0.116667	1	0.036625
0.133333	1	0.038750
0.150000	1	0.040125
0.166667	1	0.041500
0.183333	1	0.043750
0.200000	1	0.045625
0.216667	1	0.047250
0.233333	1	0.049125
0.250000	1	0.050750
0.266667	1	0.051500
0.283333	1	0.052625
0.300000	1	0.053875
0.316667	1	0.053500
0.333333	1	0.053625
0.350000	1	0.054000
0.366667	1	0.054000
0.383333	1	0.053625
0.400000	1	0.053250
0.416667	1	0.052750
0.433333	1	0.052000
0.450000	1	0.050875
0.466667	1	0.049625
0.483333	1	0.048500
0.500000	1	0.046500
0.516667	1	0.044875
0.533333	1	0.043125
0.550000	1	0.040750
0.566667	1	0.037750
0.583333	1	0.035125
0.600000	1	0.032625
0.616667	1	0.029500
0.633333	1	0.026625
0.650000	1	0.024125
0.666667	1	0.021625
0.683333	1	0.018750
0.700000	1	0.016250
0.716667	1	0.013750
0.733333	1	0.011000
0.750000	1	0.008125
0.766667	1	0.005625
0.783333	1	0.003125
0.800000	1	0.000750
0.816667	1	-0.001625
0.833333	1	-0.003125
0.850000	1	-0.005125
0.866667	1	-0.006625
0.883333	1	-0.008250
0.900000	1	-0.009625
0.916667	1	-0.011250
0.933333	1	-0.012500
0.950000	1	-0.013500
0.966667	1	-0.014375
0.983333	1	-0.015250
1.000000	1	-0.015625
1.016667	1	-0.016250
1.033333	1	-0.017000
1.050000	1	-0.017125
1.066667	1	-0.017375
1.083333	1	-0.017500
1.100000	1	-0.017875
1.116667	1	-0.017875
1.133333	1	-0.017875
1.150000	1	-0.017500
1.166667	1	-0.017375
1.183333	1	-0.016875
1.200000	1	-0.016625
1.216667	1	-0.016750
1.233333	1	-0.016250
1.250000	1	-0.015000
1.266667	1	-0.014375
1.283333	1	-0.013500
1.300000	1	-0.012750
1.316667	1	-0.012000
1.333333	1	-0.011125
1.350000	1	-0.009750
1.366667	1	-0.009125
1.383333	1	-0.008375
1.400000	1	-0.007250
1.416667	1	-0.006250
1.433333	1	-0.005125
1.450000	1	-0.003625
1.466667	1	-0.002000
1.483333	1	-0.000625
1.500000	1	0.001250
1.516667	1	0.002750
1.533333	1	0.005000
1.550000	1	0.006625
1.566667	1	0.008750
1.583333	1	0.010000
1.600000	1	0.012625
1.616667	1	0.014625
1.633333	1	0.016500
1.650000	1	0.018250
1.666667	1	0.020000
1.683333	1	0.021375
1.700000	1	0.023125
1.716667	1	0.025000
1.733333	1	0.026500
1.750000	1	0.028250
1.766667	1	0.030125
1.783333	1	0.031375
1.800000	1	0.032625
1.816667	1	0.033250
1.833333	1	0.034125
1.850000	1	0.034875
1.866667	1	0.034750
1.883333	1	0.035125
1.900000	1	0.036125
1.916667	1	0.036250
1.933333	1	0.036000
1.950000	1	0.035375
1.966667	1	0.035375
1.983333	1	0.035250
2.000000	1	0.034750
2.016667	1	0.034250
2.033333	1	0.033250
2.050000	1	0.032875
2.066667	1	0.031500
2.083333	1	0.030625
2.100000	1	0.030000
2.116667	1	0.028125
2.133333	1	0.026750
2.150000	1	0.024875
2.166667	1	0.023000
2.183333	1	0.021000
2.200000	1	0.019250
2.216667	1	0.017875
2.233333	1	0.015875
2.250000	1	0.014250
2.266667	1	0.013000
2.283333	1	0.010875
2.300000	1	0.009125
2.316667	1	0.007250
2.333333	1	0.005625
2.350000	1	0.003625
2.366667	1	0.001750
2.383333	1	-0.000250
2.400000	1	-0.001375
2.416667	1	-0.003625
2.433333	1	-0.004875
2.450000	1	-0.006125
2.466667	1	-0.007375
2.483333	1	-0.007750
2.500000	1	-0.008375
2.516667	1	-0.009000
2.533333	1	-0.009625
2.550000	1	-0.010250
2.566667	1	-0.010000
2.583333	1	-0.009000
2.600000	1	-0.008250
2.616667	1	-0.007875
2.633333	1	-0.006750
2.650000	1	-0.005625
2.666667	1	-0.004500
2.683333	1	-0.003000
2.700000	1	-0.002125
2.716667	1	-0.001250
2.733333	1	-0.000500
2.750000	1	0.000750
2.766667	1	0.002125
2.783333	1	0.003125
2.800000	1	0.004500
2.816667	1	0.005375
2.833333	1	0.006250
2.850000	1	0.007500
2.866667	1	0.008375
2.883333	1	0.008250
2.900000	1	0.008500
2.916667	1	0.008750
2.933333	1	0.008750
2.950000	1	0.008875
2.966667	1	0.009625
2.983333	1	0.009125
3.000000	1	0.009875
3.016667	1	0.009875
3.033333	1	0.010125
3.050000	1	0.009875
3.066667	1	0.009500
3.083333	1	0.010125
3.100000	1	0.009875
3.116667	1	0.009750
3.133333	1	0.009375
3.150000	1	0.010125
3.166667	1	0.010625
3.183333	1	0.011375
3.200000	1	0.012500
3.216667	1	0.013125
3.233333	1	0.014125
3.250000	1	0.015000
3.266667	1	0.016375
3.283333	1	0.017500
3.300000	1	0.017875
3.316667	1	0.019750
3.333333	1	0.021250
3.350000	1	0.022750
3.366667	1	0.024375
3.383333	1	0.026375
3.400000	1	0.027875
3.416667	1	0.029625
3.433333	1	0.030875
3.450000	1	0.033500
3.466667	1	0.035750
3.483333	1	0.037625
3.500000	1	0.039250
3.516667	1	0.041125
3.533333	1	0.042375
3.550000	1	0.043625
3.566667	1	0.044750
3.583333	1	0.046125
3.600000	1	0.047500
3.616667	1	0.048500
3.633333	1	0.049875
3.650000	1	0.051125
3.666667	1	0.052250
3.683333	1	0.052000
3.700000	1	0.052875
3.716667	1	0.053000
3.733333	1	0.053875
3.750000	1	0.055000
3.766667	1	0.056375
3.783333	1	0.057000
3.800000	1	0.057625
3.816667	1	0.058750
3.833333	1	0.059500
3.850000	1	0.060375
3.866667	1	0.060875
3.883333	1	0.061500
3.900000	1	0.063125
3.916667	1	0.064125
3.933333	1	0.065000
3.950000	1	0.065625
3.966667	1	0.067000
3.983333	1	0.068125
4.000000	1	0.068625
4.016667	1	0.070250
4.033333	1	0.071500
4.050000	1	0.072500
4.066667	1	0.073625
4.083333	1	0.075000
4.100000	1	0.075750
4.116667	1	0.077125
4.133333	1	0.077750
4.150000	1	0.078750
4.166667	1	0.080000
4.183333	1	0.080250
4.200000	1	0.081250
4.216667	1	0.082375
4.233333	1	0.082750
4.250000	1	0.083750
4.266667	1	0.084250
4.283333	1	0.084750
4.300000	1	0.085250
4.316667	1	0.086125
4.333333	1	0.087375
4.350000	1	0.087500
4.366667	1	0.087750
4.383333	1	0.088125
4.400000	1	0.088875
4.416667	1	0.089000
4.433333	1	0.090250
4.450000	1	0.091125
4.466667	1	0.092625
4.483333	1	0.093250
4.500000	1	0.095000
4.516667	1	0.096500
4.533333	1	0.097750
4.550000	1	0.099250
4.566667	1	0.101625
4.583333	1	0.103750
4.600000	1	0.105375
4.616667	1	0.108000
4.633333	1	0.110750
4.650000	1	0.113375
4.666667	1	0.116750
4.683333	1	0.119875
4.700000	1	0.122250
4.716667	1	0.125625
4.733333	1	0.129000
4.750000	1	0.132250
4.766667	1	0.135375
4.783333	1	0.138125
4.800000	1	0.141625
4.816667	1	0.145000
4.833333	1	0.147875
4.850000	1	0.150750
4.866667	1	0.153500
4.883333	1	0.156625
4.900000	1	0.159375
4.916667	1	0.162375
4.933333	1	0.165375
4.950000	1	0.167750
4.966667	1	0.170125
4.983333	1	0.172875
5.000000	1	0.174875
5.016667	1	0.176875
5.033333	1	0.179250
5.050000	1	0.181375
5.066667	1	0.183500
5.083333	1	0.185500
5.100000	1	0.188375
5.116667	1	0.190875
5.133333	1	0.193125
5.150000	1	0.195875
5.166667	1	0.198375
5.183333	1	0.201375
5.200000	1	0.204250
5.216667	1	0.206625
5.233333	1	0.209375
5.250000	1	0.211750
5.266667	1	0.214375
5.283333	1	0.217375
5.300000	1	0.220750
5.316667	1	0.224125
5.333333	1	0.227375
5.350000	1	0.230500
5.366667	1	0.234000
5.383333	1	0.237250
5.400000	1	0.240625
5.416667	1	0.243500
5.433333	1	0.246000
5.450000	1	0.249125
5.466667	1	0.251750
5.483333	1	0.255000
5.500000	1	0.257750
5.516667	1	0.259750
5.533333	1	0.262250
5.550000	1	0.264625
5.566667	1	0.266750
5.583333	1	0.269375
5.600000	1	0.271500
5.616667	1	0.274125
5.633333	1	0.276125
5.650000	1	0.278875
5.666667	1	0.281000
5.683333	1	0.282875
5.700000	1	0.284375
5.716667	1	0.286375
5.733333	1	0.288125
5.750000	1	0.290500
5.766667	1	0.292250
5.783333	1	0.294125
5.800000	1	0.296625
5.816667	1	0.298375
5.833333	1	0.299500
5.850000	1	0.300625
5.866667	1	0.302250
5.883333	1	0.303625
5.900000	1	0.305125
5.916667	1	0.306125
5.933333	1	0.306625
5.950000	1	0.307375
5.966667	1	0.307625
5.983333	1	0.307875
6.000000	1	0.307625
6.016667	1	0.307375
6.033333	1	0.307125
6.050000	1	0.305875
6.066667	1	0.304625
6.083333	1	0.303125
6.100000	1	0.301000
6.116667	1	0.298875
6.133333	1	0.296625
6.150000	1	0.293125
6.166667	1	0.289500
6.183333	1	0.285750
6.200000	1	0.281750
6.216667	1	0.278125
6.233333	1	0.273500
6.250000	1	0.268750
6.266667	1	0.263875
6.283333	1	0.259125
6.300000	1	0.253875
6.316667	1	0.248875
6.333333	1	0.243625
6.350000	1	0.238000
6.366667	1	0.232875
6.383333	1	0.227000
6.400000	1	0.221250
6.416667	1	0.215625
6.433333	1	0.210125
6.450000	1	0.204875
6.466667	1	0.199875
6.483333	1	0.194625
6.500000	1	0.189375
6.516667	1	0.184250
6.533333	1	0.179625
6.550000	1	0.174625
6.566667	1	0.169125
6.583333	1	0.164125
6.600000	1	0.159500
6.616667	1	0.155000
6.633333	1	0.150875
6.650000	1	0.146625
6.666667	1	0.142125
6.683333	1	0.138500
6.700000	1	0.134625
6.716667	1	0.130875
6.733333	1	0.127125
6.750000	1	0.124500
6.766667	1	0.121125
6.783333	1	0.118625
6.800000	1	0.116125
6.816667	1	0.113750
6.833333	1	0.112250
6.850000	1	0.110250
6.866667	1	0.108000
6.883333	1	0.107250
6.900000	1	0.106125
6.916667	1	0.105625
6.933333	1	0.105875
6.950000	1	0.106000
6.966667	1	0.105875
6.983333	1	0.106625
7.000000	1	0.107875
7.016667	1	0.109000
7.033333	1	0.110250
7.050000	1	0.112250
7.066667	1	0.114125
7.083333	1	0.116125
7.100000	1	0.118250
7.116667	1	0.121250
7.133333	1	0.124000
7.150000	1	0.126250
7.166667	1	0.128875
7.183333	1	0.131250
7.200000	1	0.134250
7.216667	1	0.137625
7.233333	1	0.141750
7.250000	1	0.144875
7.266667	1	0.148875
7.283333	1	0.152375
7.300000	1	0.155875
7.316667	1	0.159625
7.333333	1	0.164125
7.350000	1	0.168750
7.366667	1	0.173375
7.383333	1	0.177500
7.400000	1	0.181750
7.416667	1	0.185500
7.433333	1	0.190500
7.450000	1	0.194000
7.466667	1	0.198625
7.483333	1	0.203250
7.500000	1	0.207125
7.516667	1	0.210875
7.533333	1	0.213250
7.550000	1	0.216750
7.566667	1	0.219500
7.583333	1	0.222000
7.600000	1	0.224000
7.616667	1	0.226375
7.633333	1	0.227625
7.650000	1	0.228125
7.666667	1	0.228375
7.683333	1	0.228500
7.700000	1	0.227750
7.716667	1	0.226875
7.733333	1	0.225125
7.750000	1	0.223125
7.766667	1	0.220375
7.783333	1	0.217250
7.800000	1	0.213625
7.816667	1	0.210250
7.833333	1	0.206375
7.850000	1	0.202375
7.866667	1	0.197125
7.883333	1	0.192000
7.900000	1	0.187375
7.916667	1	0.182750
7.933333	1	0.177250
7.950000	1	0.171750
7.966667	1	0.166000
7.983333	1	0.160375
8.000000	1	0.155250
8.016667	1	0.149500
8.033333	1	0.144250
8.050000	1	0.138875
8.066667	1	0.133000
8.083333	1	0.127875
8.100000	1	0.122875
8.116667	1	0.117125
8.133333	1	0.112000
8.150000	1	0.107000
8.166667	1	0.102625
8.183333	1	0.098250
8.200000	1	0.094000
8.216667	1	0.089625
8.233333	1	0.085750
8.250000	1	0.082125
8.266667	1	0.078125
8.283333	1	0.075375
8.300000	1	0.072125
8.316667	1	0.069625
8.333333	1	0.066875
8.350000	1	0.064750
8.366667	1	0.062750
8.383333	1	0.061750
8.400000	1	0.059625
8.416667	1	0.058375
8.433333	1	0.057750
8.450000	1	0.057500
8.466667	1	0.057750
8.483333	1	0.057625
8.500000	1	0.058125
8.516667	1	0.058750
8.533333	1	0.059250
8.550000	1	0.059750
8.566667	1	0.060750
8.583333	1	0.061375
8.600000	1	0.062250
8.616667	1	0.063125
8.633333	1	0.064625
8.650000	1	0.065125
8.666667	1	0.066375
8.683333	1	0.067125
8.700000	1	0.068125
8.716667	1	0.069000
8.733333	1	0.070000
8.750000	1	0.070625
8.766667	1	0.071250
8.783333	1	0.070750
8.800000	1	0.071625
8.816667	1	0.072125
8.833333	1	0.072375
8.850000	1	0.072750
8.866667	1	0.073375
8.883333	1	0.073875
8.900000	1	0.074375
8.916667	1	0.075750
8.933333	1	0.076875
8.950000	1	0.077250
8.966667	1	0.078500
8.983333	1	0.080375
9.000000	1	0.081750
9.016667	1	0.083875
9.033333	1	0.085250
9.050000	1	0.086500
9.066667	1	0.089250
9.083333	1	0.091375
9.100000	1	0.093625
9.116667	1	0.095375
9.133333	1	0.097125
9.150000	1	0.099000
9.166667	1	0.101250
9.183333	1	0.103375
9.200000	1	0.104625
9.216667	1	0.106000
9.233333	1	0.107375
9.250000	1	0.108125
9.266667	1	0.108875
9.283333	1	0.110500
9.300000	1	0.110500
9.316667	1	0.111500
9.333333	1	0.111750
9.350000	1	0.111500
9.366667	1	0.111625
9.383333	1	0.110875
9.400000	1	0.110875
9.416667	1	0.110375
9.433333	1	0.110000
9.450000	1	0.109125
9.466667	1	0.108500
9.483333	1	0.108875
9.500000	1	0.109125
9.516667	1	0.108250
9.533333	1	0.107625
9.550000	1	0.107875
9.566667	1	0.108250
9.583333	1	0.108625
9.600000	1	0.109625
9.616667	1	0.110125
9.633333	1	0.111125
9.650000	1	0.111875
9.666667	1	0.112625
9.683333	1	0.113750
9.700000	1	0.115000
9.716667	1	0.116625
9.733333	1	0.118000
9.750000	1	0.118625
9.766667	1	0.119000
9.783333	1	0.119750
9.800000	1	0.120500
9.816667	1	0.120750
9.833333	1	0.120750
9.850000	1	0.120500
9.866667	1	0.120625
9.883333	1	0.120000
9.900000	1	0.118750
9.916667	1	0.117625
9.933333	1	0.116250
9.950000	1	0.113625
9.966667	1	0.112125
9.983333	1	0.109875
10.000000	1	0.107250
10.016667	1	0.104125
10.033333	1	0.102000
10.050000	1	0.099250
10.066667	1	0.097750
10.083333	1	0.096625
10.100000	1	0.095875
10.116667	1	0.095500
10.133333	1	0.097500
10.150000	1	0.100000
10.166667	1	0.104500
10.183333	1	0.110375
10.200000	1	0.118000
10.216667	1	0.128000
10.233333	1	0.139375
10.250000	1	0.154500
10.266667	1	0.171875
10.283333	1	0.192125
10.300000	1	0.215875
10.316667	1	0.242250
10.333333	1	0.270125
10.350000	1	0.299250
10.366667	1	0.327375
10.383333	1	0.352250
10.400000	1	0.373125
10.416667	1	0.388625
10.433333	1	0.400375
10.450000	1	0.411375
10.466667	1	0.429375
10.483333	1	0.469250
10.500000	1	0.552875
10.516667	1	0.714250
10.533333	1	0.998000
10.550000	1	1.459625
10.566667	1	2.160000
10.583333	1	3.164000
10.600000	1	4.529000
10.616667	1	6.303750
10.633333	1	8.517625
10.650000	1	11.183000
10.666667	1	14.299500
10.683333	1	17.846875
10.700000	1	21.786500
10.716667	1	26.051750
10.733333	1	30.546500
10.750000	1	35.133750
10.766667	1	39.626125
10.783333	1	43.778500
10.800000	1	47.288750
10.816667	1	49.823625
10.833333	1	51.075750
10.850000	1	50.835625
10.866667	1	49.062875
10.883333	1	45.915250
10.900000	1	41.731125
10.916667	1	36.947500
10.933333	1	31.996625
10.950000	1	27.226875
10.966667	1	22.868875
10.983333	1	19.037750
11.000000	1	15.767750
11.016667	1	13.041250
11.033333	1	10.809000
11.050000	1	9.008000
11.066667	1	7.571250
11.083333	1	6.432625
11.100000	1	5.532750
11.116667	1	4.821125
11.133333	1	4.253875
11.150000	1	3.798000
11.166667	1	3.427625
11.183333	1	3.123250
11.200000	1	2.870000
11.216667	1	2.656375
11.233333	1	2.474500
11.250000	1	2.318125
11.266667	1	2.183250
11.283333	1	2.064625
11.300000	1	1.961125
11.316667	1	1.868500
11.333333	1	1.785250
11.350000	1	1.712125
11.366667	1	1.647625
11.383333	1	1.590625
11.400000	1	1.539375
11.416667	1	1.494000
11.433333	1	1.453875
11.450000	1	1.417250
11.466667	1	1.385750
11.483333	1	1.357375
11.500000	1	1.331500
11.516667	1	1.308375
11.533333	1	1.287750
11.550000	1	1.269125
11.566667	1	1.251875
11.583333	1	1.236250
11.600000	1	1.223750
11.616667	1	1.212375
11.633333	1	1.202750
11.650000	1	1.194375
11.666667	1	1.187500
11.683333	1	1.182375
11.700000	1	1.178500
11.716667	1	1.176125
11.733333	1	1.175375
11.750000	1	1.175500
11.766667	1	1.177250
11.783333	1	1.179750
11.800000	1	1.183625
11.816667	1	1.188000
11.833333	1	1.193000
11.850000	1	1.197875
11.866667	1	1.203250
11.883333	1	1.208250
11.900000	1	1.213250
11.916667	1	1.217625
11.933333	1	1.222000
11.950000	1	1.226500
11.966667	1	1.231125
11.983333	1	1.236500
12.000000	1	1.241875
12.016667	1	1.247000
12.033333	1	1.253125
12.050000	1	1.259375
12.066667	1	1.266250
12.083333	1	1.273000
12.100000	1	1.280500
12.116667	1	1.288375
12.133333	1	1.296250
12.150000	1	1.304500
12.166667	1	1.314000
12.183333	1	1.323750
12.200000	1	1.335625
12.216667	1	1.347375
12.233333	1	1.362500
12.250000	1	1.378750
12.266667	1	1.397875
12.283333	1	1.420375
12.300000	1	1.447500
12.316667	1	1.479500
12.333333	1	1.518250
12.350000	1	1.565250
12.366667	1	1.621875
12.383333	1	1.691250
12.400000	1	1.776125
12.416667	1	1.880125
12.433333	1	2.007875
12.450000	1	2.163750
12.466667	1	2.353000
12.483333	1	2.580000
12.500000	1	2.848000
12.516667	1	3.158750
12.533333	1	3.510625
12.550000	1	3.899875
12.566667	1	4.319750
12.583333	1	4.757750
12.600000	1	5.199750
12.616667	1	5.628750
12.633333	1	6.028625
12.650000	1	6.380875
12.666667	1	6.670625
12.683333	1	6.886375
12.700000	1	7.020750
12.716667	1	7.071375
12.733333	1	7.042625
12.750000	1	6.940625
12.766667	1	6.774750
12.783333	1	6.558250
12.800000	1	6.304125
12.816667	1	6.023250
12.833333	1	5.728625
12.850000	1	5.428250
12.866667	1	5.131000
12.883333	1	4.843000
12.900000	1	4.569250
12.916667	1	4.313250
12.933333	1	4.078375
12.950000	1	3.864625
12.966667	1	3.672625
12.983333	1	3.501750
13.000000	1	3.350500
13.016667	1	3.217500
13.033333	1	3.100375
13.050000	1	2.997500
13.066667	1	2.906125
13.083333	1	2.825000
13.100000	1	2.753000
13.116667	1	2.688750
13.133333	1	2.630750
13.150000	1	2.576625
13.166667	1	2.527250
13.183333	1	2.481000
13.200000	1	2.437250
13.216667	1	2.396500
13.233333	1	2.357250
13.250000	1	2.320375
13.266667	1	2.282875
13.283333	1	2.247625
13.300000	1	2.213625
13.316667	1	2.180625
13.333333	1	2.149250
13.350000	1	2.119625
13.366667	1	2.090875
13.383333	1	2.063625
13.400000	1	2.039500
13.416667	1	2.017500
13.433333	1	1.998625
13.450000	1	1.981625
13.466667	1	1.968125
13.483333	1	1.956875
13.500000	1	1.949125
13.516667	1	1.943250
13.533333	1	1.939875
13.550000	1	1.937375
13.566667	1	1.935625
13.583333	1	1.933750
13.600000	1	1.932000
13.616667	1	1.928500
13.633333	1	1.922500
13.650000	1	1.913500
13.666667	1	1.901750
13.683333	1	1.887250
13.700000	1	1.869375
13.716667	1	1.849500
13.733333	1	1.826625
13.750000	1	1.802125
13.766667	1	1.776250
13.783333	1	1.750750
13.800000	1	1.724625
13.816667	1	1.700000
13.833333	1	1.676375
13.850000	1	1.653375
13.866667	1	1.631500
13.883333	1	1.610875
13.900000	1	1.591750
13.916667	1	1.573875
13.933333	1	1.556500
13.950000	1	1.541250
13.966667	1	1.526000
13.983333	1	1.512000
14.000000	1	1.499500
14.016667	1	1.487375
14.033333	1	1.475250
14.050000	1	1.463500
14.066667	1	1.453125
14.083333	1	1.443250
14.100000	1	1.434875
14.116667	1	1.426250
14.133333	1	1.419000
14.150000	1	1.412750
14.166667	1	1.407250
14.183333	1	1.402375
14.200000	1	1.400250
14.216667	1	1.399125
14.233333	1	1.400750
14.250000	1	1.404500
14.266667	1	1.410625
14.283333	1	1.419500
14.300000	1	1.432000
14.316667	1	1.448000
14.333333	1	1.467250
14.350000	1	1.490000
14.366667	1	1.518125
14.383333	1	1.551750
14.400000	1	1.592500
14.416667	1	1.641000
14.433333	1	1.702375
14.450000	1	1.780375
14.466667	1	1.881375
14.483333	1	2.014875
14.500000	1	2.192625
14.516667	1	2.431000
14.533333	1	2.749625
14.550000	1	3.174625
14.566667	1	3.734750
14.583333	1	4.464375
14.600000	1	5.401375
14.616667	1	6.587000
14.633333	1	8.058750
14.650000	1	9.850625
14.666667	1	11.983125
14.683333	1	14.464000
14.700000	1	17.275000
14.716667	1	20.375125
14.733333	1	23.697000
14.750000	1	27.146375
14.766667	1	30.606250
14.783333	1	33.941625
14.800000	1	37.014500
14.816667	1	39.686500
14.833333	1	41.832750
14.850000	1	43.349500
14.866667	1	44.165375
14.883333	1	44.247625
14.900000	1	43.607000
14.916667	1	42.292750
14.933333	1	40.387375
14.950000	1	37.997625
14.966667	1	35.250125
14.983333	1	32.273750
15.000000	1	29.188875
15.016667	1	26.101625
15.033333	1	23.104375
15.050000	1	20.269125
15.066667	1	17.646875
15.083333	1	15.270500
15.100000	1	13.153000
15.116667	1	11.294250
15.133333	1	9.682750
15.150000	1	8.301500
15.166667	1	7.128125
15.183333	1	6.139875
15.200000	1	5.311750
15.216667	1	4.622625
15.233333	1	4.052000
15.250000	1	3.582625
15.266667	1	3.199500
15.283333	1	2.890250
15.300000	1	2.642500
15.316667	1	2.447000
15.333333	1	2.296000
15.350000	1	2.182875
15.366667	1	2.101125
15.383333	1	2.044500
15.400000	1	2.007875
15.416667	1	1.986625
15.433333	1	1.976375
15.450000	1	1.973000
15.466667	1	1.972375
15.483333	1	1.971500
15.500000	1	1.967375
15.516667	1	1.958500
15.533333	1	1.943750
15.550000	1	1.923125
15.566667	1	1.895250
15.583333	1	1.861500
15.600000	1	1.823250
15.616667	1	1.782625
15.633333	1	1.740000
15.650000	1	1.697000
15.666667	1	1.654000
15.683333	1	1.613000
15.700000	1	1.573875
15.716667	1	1.537250
15.733333	1	1.503250
15.750000	1	1.471625
15.766667	1	1.442625
15.783333	1	1.415125
15.800000	1	1.390000
15.816667	1	1.367375
15.833333	1	1.346375
15.850000	1	1.327125
15.866667	1	1.308750
15.883333	1	1.293500
15.900000	1	1.279250
15.916667	1	1.266875
15.933333	1	1.256875
15.950000	1	1.248750
15.966667	1	1.242000
15.983333	1	1.238125
16.000000	1	1.235250
16.016667	1	1.234375
16.033333	1	1.234875
16.050000	1	1.236000
16.066667	1	1.238000
16.083333	1	1.240875
16.100000	1	1.244250
16.116667	1	1.247500
16.133333	1	1.251000
16.150000	1	1.254000
16.166667	1	1.257125
16.183333	1	1.258750
16.200000	1	1.259750
16.216667	1	1.260000
16.233333	1	1.259375
16.250000	1	1.256500
16.266667	1	1.254500
16.283333	1	1.251625
16.300000	1	1.249250
16.316667	1	1.245875
16.333333	1	1.242500
16.350000	1	1.238875
16.366667	1	1.236875
16.383333	1	1.234875
16.400000	1	1.234500
16.416667	1	1.236125
16.433333	1	1.237875
16.450000	1	1.240625
16.466667	1	1.245125
16.483333	1	1.250875
16.500000	1	1.255500
16.516667	1	1.260750
16.533333	1	1.265375
16.550000	1	1.270125
16.566667	1	1.272875
16.583333	1	1.275750
16.600000	1	1.276375
16.616667	1	1.276125
16.633333	1	1.274375
16.650000	1	1.272125
16.666667	1	1.269875
16.683333	1	1.267250
16.700000	1	1.264750
16.716667	1	1.263500
16.733333	1	1.263250
16.750000	1	1.264500
16.766667	1	1.267250
16.783333	1	1.271125
16.800000	1	1.276750
16.816667	1	1.282750
16.833333	1	1.290000
16.850000	1	1.296875
16.866667	1	1.303750
16.883333	1	1.309875
16.900000	1	1.314375
16.916667	1	1.318000
16.933333	1	1.320750
16.950000	1	1.321625
16.966667	1	1.321375
16.983333	1	1.319750
17.000000	1	1.316250
17.016667	1	1.312250
17.033333	1	1.307875
17.050000	1	1.302875
17.066667	1	1.298125
17.083333	1	1.293000
17.100000	1	1.288875
17.116667	1	1.285250
17.133333	1	1.282375
17.150000	1	1.279500
17.166667	1	1.277250
17.183333	1	1.277000
17.200000	1	1.277375
17.216667	1	1.278500
17.233333	1	1.280375
17.250000	1	1.283000
17.266667	1	1.285750
17.283333	1	1.289125
17.300000	1	1.293125
17.316667	1	1.297875
17.333333	1	1.302625
17.350000	1	1.307250
17.366667	1	1.311500
17.383333	1	1.316875
17.400000	1	1.320125
17.416667	1	1.323500
17.433333	1	1.325875
17.450000	1	1.326000
17.466667	1	1.325375
17.483333	1	1.323250
17.500000	1	1.319375
17.516667	1	1.313125
17.533333	1	1.304500
17.550000	1	1.294500
17.566667	1	1.283000
17.583333	1	1.270375
17.600000	1	1.256625
17.616667	1	1.241625
17.633333	1	1.226250
17.650000	1	1.209500
17.666667	1	1.193000
17.683333	1	1.176250
17.700000	1	1.160250
17.716667	1	1.144000
17.733333	1	1.128750
17.750000	1	1.114375
17.766667	1	1.101375
17.783333	1	1.088375
17.800000	1	1.076875
17.816667	1	1.065750
17.833333	1	1.055625
17.850000	1	1.046375
17.866667	1	1.037625
17.883333	1	1.029500
17.900000	1	1.021375
17.916667	1	1.014375
17.933333	1	1.007375
17.950000	1	1.000875
17.966667	1	0.994750
17.983333	1	0.987375
18.000000	1	0.980875
18.016667	1	0.974625
18.033333	1	0.968375
18.050000	1	0.961375
18.066667	1	0.954500
18.083333	1	0.948250
18.100000	1	0.942625
18.116667	1	0.937125
18.133333	1	0.932250
18.150000	1	0.927625
18.166667	1	0.924125
18.183333	1	0.922125
18.200000	1	0.919625
18.216667	1	0.918125
18.233333	1	0.917125
18.250000	1	0.916500
18.266667	1	0.915750
18.283333	1	0.915625
18.300000	1	0.916250
18.316667	1	0.917000
18.333333	1	0.918250
18.350000	1	0.919375
18.366667	1	0.922125
18.383333	1	0.925250
18.400000	1	0.929625
18.416667	1	0.935000
18.433333	1	0.941750
18.450000	1	0.949750
18.466667	1	0.958625
18.483333	1	0.969375
18.500000	1	0.983000
18.516667	1	0.997625
18.533333	1	1.014750
18.550000	1	1.033875
18.566667	1	1.055500
18.583333	1	1.077375
18.600000	1	1.102375
18.616667	1	1.128250
18.633333	1	1.155000
18.650000	1	1.183375
18.666667	1	1.212625
18.683333	1	1.243250
18.700000	1	1.274250
18.716667	1	1.306375
18.733333	1	1.337875
18.750000	1	1.370375
18.766667	1	1.401250
18.783333	1	1.431750
18.800000	1	1.460750
18.816667	1	1.487625
18.833333	1	1.511875
18.850000	1	1.532875
18.866667	1	1.549750
18.883333	1	1.562375
18.900000	1	1.569750
18.916667	1	1.571375
18.933333	1	1.567500
18.950000	1	1.557750
18.966667	1	1.542125
18.983333	1	1.520500
19.000000	1	1.493000
19.016667	1	1.460750
19.033333	1	1.424000
19.050000	1	1.384125
19.066667	1	1.341750
19.083333	1	1.296625
19.100000	1	1.251375
19.116667	1	1.206750
19.133333	1	1.163250
19.150000	1	1.121625
19.166667	1	1.083500
19.183333	1	1.048625
19.200000	1	1.018125
19.216667	1	0.992125
19.233333	1	0.971500
19.250000	1	0.956500
19.266667	1	0.946625
19.283333	1	0.942875
19.300000	1	0.945500
19.316667	1	0.953375
19.333333	1	0.967250
19.350000	1	0.986250
19.366667	1	1.009625
19.383333	1	1.037750
19.400000	1	1.068250
19.416667	1	1.102125
19.433333	1	1.136250
19.450000	1	1.171625
19.466667	1	1.206500
19.483333	1	1.239500
19.500000	1	1.270250
19.516667	1	1.298625
19.533333	1	1.323250
19.550000	1	1.342625
19.566667	1	1.357625
19.583333	1	1.367375
19.600000	1	1.371625
19.616667	1	1.370500
19.633333	1	1.364500
19.650000	1	1.353375
19.666667	1	1.337250
19.683333	1	1.317000
19.700000	1	1.294000
19.716667	1	1.268125
19.733333	1	1.239125
19.750000	1	1.208000
19.766667	1	1.175625
19.783333	1	1.142000
19.800000	1	1.108250
19.816667	1	1.074500
19.833333	1	1.040875
19.850000	1	1.008250
19.866667	1	0.978125
19.883333	1	0.949500
19.900000	1	0.922625
19.916667	1	0.898875
19.933333	1	0.877625
19.950000	1	0.860500
19.966667	1	0.847750
19.983333	1	0.839125
20.000000	1	0.834875
20.016667	1	0.835625
20.033333	1	0.842125
20.050000	1	0.854875
20.066667	1	0.873000
20.083333	1	0.897500
20.100000	1	0.927250
20.116667	1	0.962875
20.133333	1	1.003250
20.150000	1	1.048750
20.166667	1	1.097250
20.183333	1	1.148625
20.200000	1	1.200250
20.216667	1	1.250875
20.233333	1	1.299125
20.250000	1	1.343375
20.266667	1	1.382000
20.283333	1	1.413875
20.300000	1	1.437000
20.316667	1	1.450875
20.333333	1	1.455375
20.350000	1	1.450750
20.366667	1	1.436125
20.383333	1	1.412000
20.400000	1	1.380500
20.416667	1	1.342000
20.433333	1	1.299125
20.450000	1	1.252375
20.466667	1	1.203750
20.483333	1	1.155500
20.500000	1	1.108125
20.516667	1	1.063750
20.533333	1	1.024750
20.550000	1	0.991500
20.566667	1	0.964750
20.583333	1	0.947250
20.600000	1	0.938375
20.616667	1	0.938625
20.633333	1	0.948250
20.650000	1	0.968500
20.666667	1	0.998125
20.683333	1	1.037375
20.700000	1	1.084875
20.716667	1	1.139125
20.733333	1	1.200000
20.750000	1	1.265875
20.766667	1	1.334500
20.783333	1	1.403000
20.800000	1	1.469625
20.816667	1	1.532125
20.833333	1	1.587250
20.850000	1	1.634750
20.866667	1	1.672625
20.883333	1	1.698625
20.900000	1	1.711250
20.916667	1	1.711875
20.933333	1	1.699250
20.950000	1	1.675125
20.966667	1	1.639000
20.983333	1	1.591750
21.000000	1	1.536375
21.016667	1	1.473875
21.033333	1	1.405750
21.050000	1	1.335125
21.066667	1	1.262750
21.083333	1	1.191000
21.100000	1	1.122000
21.116667	1	1.054875
21.133333	1	0.992000
21.150000	1	0.932625
21.166667	1	0.878125
21.183333	1	0.828500
21.200000	1	0.783750
21.216667	1	0.743250
21.233333	1	0.708000
21.250000	1	0.677000
21.266667	1	0.649375
21.283333	1	0.625375
21.300000	1	0.605625
21.316667	1	0.588250
21.333333	1	0.573625
21.350000	1	0.561500
21.366667	1	0.550875
21.383333	1	0.543000
21.400000	1	0.536375
21.416667	1	0.531125
21.433333	1	0.526875
21.450000	1	0.524375
21.466667	1	0.522625
21.483333	1	0.522625
21.500000	1	0.524125
21.516667	1	0.527625
21.533333	1	0.532375
21.550000	1	0.538500
21.566667	1	0.546750
21.583333	1	0.557500
21.600000	1	0.571500
21.616667	1	0.587375
21.633333	1	0.605500
21.650000	1	0.627250
21.666667	1	0.652500
21.683333	1	0.681125
21.700000	1	0.712500
21.716667	1	0.747625
21.733333	1	0.786250
21.750000	1	0.827125
21.766667	1	0.872000
21.783333	1	0.918625
21.800000	1	0.965500
21.816667	1	1.013875
21.833333	1	1.062125
21.850000	1	1.109500
21.866667	1	1.155125
21.883333	1	1.196875
21.900000	1	1.235250
21.916667	1	1.269125
21.933333	1	1.297250
21.950000	1	1.319750
21.966667	1	1.336125
21.983333	1	1.345375
22.000000	1	1.348000
22.016667	1	1.343750
22.033333	1	1.333000
22.050000	1	1.316375
22.066667	1	1.293750
22.083333	1	1.267375
22.100000	1	1.235625
22.116667	1	1.201250
22.133333	1	1.164500
22.150000	1	1.126375
22.166667	1	1.086500
22.183333	1	1.047000
22.200000	1	1.006375
22.216667	1	0.966875
22.233333	1	0.928000
22.250000	1	0.890500
22.266667	1	0.854375
22.283333	1	0.819750
22.300000	1	0.787500
22.316667	1	0.756500
22.333333	1	0.728375
22.350000	1	0.701625
22.366667	1	0.676875
22.383333	1	0.654625
22.400000	1	0.634125
22.416667	1	0.616125
22.433333	1	0.599625
22.450000	1	0.585000
22.466667	1	0.572750
22.483333	1	0.562250
22.500000	1	0.552875
22.516667	1	0.544500
22.533333	1	0.538375
22.550000	1	0.532625
22.566667	1	0.527375
22.583333	1	0.522875
22.600000	1	0.518500
22.616667	1	0.514375
22.633333	1	0.510875
22.650000	1	0.507125
22.666667	1	0.503250
22.683333	1	0.498625
22.700000	1	0.493625
22.716667	1	0.488250
22.733333	1	0.482500
22.750000	1	0.476875
22.766667	1	0.470375
22.783333	1	0.462750
22.800000	1	0.455875
22.816667	1	0.448125
22.833333	1	0.440250
22.850000	1	0.432375
22.866667	1	0.425125
22.883333	1	0.417625
22.900000	1	0.410875
22.916667	1	0.404375
22.933333	1	0.398750
22.950000	1	0.393875
22.966667	1	0.389125
22.983333	1	0.385125
23.000000	1	0.382250
23.016667	1	0.380375
23.033333	1	0.378875
23.050000	1	0.379000
23.066667	1	0.380250
23.083333	1	0.381000
23.100000	1	0.383000
23.116667	1	0.385875
23.133333	1	0.389875
23.150000	1	0.393625
23.166667	1	0.398875
23.183333	1	0.404625
23.200000	1	0.411375
23.216667	1	0.418875
23.233333	1	0.427750
23.250000	1	0.437125
23.266667	1	0.448125
23.283333	1	0.460875
23.300000	1	0.476125
23.316667	1	0.494375
23.333333	1	0.516750
23.350000	1	0.541625
23.366667	1	0.573000
23.383333	1	0.609750
23.400000	1	0.653500
23.416667	1	0.705750
23.433333	1	0.766875
23.450000	1	0.838625
23.466667	1	0.922875
23.483333	1	1.020125
23.500000	1	1.132500
23.516667	1	1.261125
23.533333	1	1.407000
23.550000	1	1.571625
23.566667	1	1.754500
23.583333	1	1.955750
23.600000	1	2.174000
23.616667	1	2.408250
23.633333	1	2.656750
23.650000	1	2.916875
23.666667	1	3.186125
23.683333	1	3.460750
23.700000	1	3.736125
23.716667	1	4.006500
23.733333	1	4.268000
23.750000	1	4.515250
23.766667	1	4.743250
23.783333	1	4.945125
23.800000	1	5.118000
23.816667	1	5.256875
23.833333	1	5.359625
23.850000	1	5.424500
23.866667	1	5.449000
23.883333	1	5.435000
23.900000	1	5.381750
23.916667	1	5.291500
23.933333	1	5.167500
23.950000	1	5.012625
23.966667	1	4.831125
23.983333	1	4.627750
24.000000	1	4.407625
24.016667	1	4.174375
24.033333	1	3.933125
24.050000	1	3.689000
24.066667	1	3.444875
24.083333	1	3.204500
24.100000	1	2.968750
24.116667	1	2.742250
24.133333	1	2.525500
24.150000	1	2.321000
24.166667	1	2.127500
24.183333	1	1.949125
24.200000	1	1.783750
24.216667	1	1.631750
24.233333	1	1.492375
24.250000	1	1.365500
24.266667	1	1.250500
24.283333	1	1.146750
24.300000	1	1.053000
24.316667	1	0.969000
24.333333	1	0.894125
24.350000	1	0.828250
24.366667	1	0.769625
24.383333	1	0.717875
24.400000	1	0.672250
24.416667	1	0.633000
24.433333	1	0.599125
24.450000	1	0.570125
24.466667	1	0.545375
24.483333	1	0.524000
24.500000	1	0.505625
24.516667	1	0.490500
24.533333	1	0.478625
24.550000	1	0.468125
24.566667	1	0.459500
24.583333	1	0.452000
24.600000	1	0.445625
24.616667	1	0.440250
24.633333	1	0.436000
24.650000	1	0.431875
24.666667	1	0.428375
24.683333	1	0.424750
24.700000	1	0.421875
24.716667	1	0.419375
24.733333	1	0.416250
24.750000	1	0.413250
24.766667	1	0.410375
24.783333	1	0.406625
24.800000	1	0.403375
24.816667	1	0.400000
24.833333	1	0.396125
24.850000	1	0.393125
24.866667	1	0.390125
24.883333	1	0.388000
24.900000	1	0.385125
24.916667	1	0.381750
24.933333	1	0.379000
24.950000	1	0.375875
24.966667	1	0.373125
24.983333	1	0.370375
25.000000	1	0.367000
25.016667	1	0.363250
25.033333	1	0.360375
25.050000	1	0.357250
25.066667	1	0.354625
25.083333	1	0.351250
25.100000	1	0.347625
25.116667	1	0.344875
25.133333	1	0.340875
25.150000	1	0.337250
25.166667	1	0.333500
25.183333	1	0.329625
25.200000	1	0.325250
25.216667	1	0.320750
25.233333	1	0.316250
25.250000	1	0.311750
25.266667	1	0.307500
25.283333	1	0.303250
25.300000	1	0.298875
25.316667	1	0.295250
25.333333	1	0.291625
25.350000	1	0.288875
25.366667	1	0.286125
25.383333	1	0.283500
25.400000	1	0.280500
25.416667	1	0.278750
25.433333	1	0.277375
25.450000	1	0.276375
25.466667	1	0.275500
25.483333	1	0.275875
25.500000	1	0.275125
25.516667	1	0.275625
25.533333	1	0.276500
25.550000	1	0.277375
25.566667	1	0.277375
25.583333	1	0.278875
25.600000	1	0.279875
25.616667	1	0.281125
25.633333	1	0.282750
25.650000	1	0.285625
25.666667	1	0.287500
25.683333	1	0.290000
25.700000	1	0.292500
25.716667	1	0.294500
25.733333	1	0.296500
25.750000	1	0.298750
25.766667	1	0.300500
25.783333	1	0.302500
25.800000	1	0.304750
25.816667	1	0.307250
25.833333	1	0.310250
25.850000	1	0.312750
25.866667	1	0.316125
25.883333	1	0.319625
25.900000	1	0.323750
25.916667	1	0.327875
25.933333	1	0.331875
25.950000	1	0.336000
25.966667	1	0.339750
25.983333	1	0.345375
26.000000	1	0.351000
26.016667	1	0.356875
26.033333	1	0.362000
26.050000	1	0.368750
26.066667	1	0.374750
26.083333	1	0.381500
26.100000	1	0.388875
26.116667	1	0.395625
26.133333	1	0.402250
26.150000	1	0.408625
26.166667	1	0.414875
26.183333	1	0.421625
26.200000	1	0.428000
26.216667	1	0.433500
26.233333	1	0.438125
26.250000	1	0.442750
26.266667	1	0.446625
26.283333	1	0.450500
26.300000	1	0.453250
26.316667	1	0.455250
26.333333	1	0.456125
26.350000	1	0.455625
26.366667	1	0.455000
26.383333	1	0.453250
26.400000	1	0.450750
26.416667	1	0.447375
26.433333	1	0.443000
26.450000	1	0.438000
26.466667	1	0.432000
26.483333	1	0.424875
26.500000	1	0.417250
26.516667	1	0.409125
26.533333	1	0.400250
26.550000	1	0.391875
26.566667	1	0.382500
26.583333	1	0.373375
26.600000	1	0.364125
26.616667	1	0.354500
26.633333	1	0.344250
26.650000	1	0.334375
26.666667	1	0.324250
26.683333	1	0.315000
26.700000	1	0.306375
26.716667	1	0.297875
26.733333	1	0.289375
26.750000	1	0.281375
26.766667	1	0.274375
26.783333	1	0.268000
26.800000	1	0.262375
26.816667	1	0.256750
26.833333	1	0.251500
26.850000	1	0.247500
26.866667	1	0.244875
26.883333	1	0.243000
26.900000	1	0.241125
26.916667	1	0.240250
26.933333	1	0.239375
26.950000	1	0.240000
26.966667	1	0.240125
26.983333	1	0.241375
27.000000	1	0.243625
27.016667	1	0.246750
27.033333	1	0.250000
27.050000	1	0.254625
27.066667	1	0.259875
27.083333	1	0.265625
27.100000	1	0.272125
27.116667	1	0.280000
27.133333	1	0.288375
27.150000	1	0.298000
27.166667	1	0.309500
27.183333	1	0.321750
27.200000	1	0.334625
27.216667	1	0.350875
27.233333	1	0.368000
27.250000	1	0.388000
27.266667	1	0.410500
27.283333	1	0.435500
27.300000	1	0.464125
27.316667	1	0.495750
27.333333	1	0.532375
27.350000	1	0.572750
27.366667	1	0.618750
27.383333	1	0.671000
27.400000	1	0.729500
27.416667	1	0.794875
27.433333	1	0.868250
27.450000	1	0.950250
27.466667	1	1.040375
27.483333	1	1.140250
27.500000	1	1.249125
27.516667	1	1.368000
27.533333	1	1.496375
27.550000	1	1.634375
27.566667	1	1.782750
27.583333	1	1.938625
27.600000	1	2.101500
27.616667	1	2.273125
27.633333	1	2.449750
27.650000	1	2.629875
27.666667	1	2.813250
27.683333	1	2.996750
27.700000	1	3.178750
27.716667	1	3.356000
27.733333	1	3.526000
27.750000	1	3.686125
27.766667	1	3.834125
27.783333	1	3.968125
27.800000	1	4.085500
27.816667	1	4.184500
27.833333	1	4.262500
27.850000	1	4.318500
27.866667	1	4.351500
27.883333	1	4.361375
27.900000	1	4.346875
27.916667	1	4.308250
27.933333	1	4.247125
27.950000	1	4.163375
27.966667	1	4.059875
27.983333	1	3.938500
28.000000	1	3.800125
28.016667	1	3.647375
28.033333	1	3.482125
28.050000	1	3.308375
28.066667	1	3.128875
28.083333	1	2.944375
28.100000	1	2.759625
28.116667	1	2.575625
28.133333	1	2.395250
28.150000	1	2.219750
28.166667	1	2.051500
28.183333	1	1.890500
28.200000	1	1.737875
28.216667	1	1.594625
28.233333	1	1.461250
28.250000	1	1.338125
28.266667	1	1.224375
28.283333	1	1.120125
28.300000	1	1.025875
28.316667	1	0.940000
28.333333	1	0.863625
28.350000	1	0.795500
28.366667	1	0.735000
28.383333	1	0.682125
28.400000	1	0.635125
28.416667	1	0.594875
28.433333	1	0.560250
28.450000	1	0.531500
28.466667	1	0.506250
28.483333	1	0.486250
28.500000	1	0.469500
28.516667	1	0.456750
28.533333	1	0.447500
28.550000	1	0.441125
28.566667	1	0.437375
28.583333	1	0.436000
28.600000	1	0.436750
28.616667	1	0.439000
28.633333	1	0.442875
28.650000	1	0.448250
28.666667	1	0.454625
28.683333	1	0.461250
28.700000	1	0.468500
28.716667	1	0.476875
28.733333	1	0.485000
28.750000	1	0.493375
28.766667	1	0.502625
28.783333	1	0.510750
28.800000	1	0.518500
28.816667	1	0.525500
28.833333	1	0.531500
28.850000	1	0.538000
28.866667	1	0.543250
28.883333	1	0.547625
28.900000	1	0.551375
28.916667	1	0.552875
28.933333	1	0.553625
28.950000	1	0.553750
28.966667	1	0.552375
28.983333	1	0.548875
29.000000	1	0.544000
29.016667	1	0.538250
29.033333	1	0.530125
29.050000	1	0.520625
29.066667	1	0.509000
29.083333	1	0.495875
29.100000	1	0.481375
29.116667	1	0.465500
29.133333	1	0.447250
29.150000	1	0.427125
29.166667	1	0.405000
29.183333	1	0.380500
29.200000	1	0.354500
29.216667	1	0.326375
29.233333	1	0.296375
29.250000	1	0.264000
29.266667	1	0.229250
29.283333	1	0.192375
29.300000	1	0.153875
29.316667	1	0.112375
29.333333	1	0.069500
29.350000	1	0.025500
29.366667	1	-0.020875
29.383333	1	-0.068750
29.400000	1	-0.118000
29.416667	1	-0.168750
29.433333	1	-0.220000
29.450000	1	-0.272625
29.466667	1	-0.325250
29.483333	1	-0.377875
29.500000	1	-0.430250
29.516667	1	-0.482250
29.533333	1	-0.533125
29.550000	1	-0.582750
29.566667	1	-0.631250
29.583333	1	-0.676875
29.600000	1	-0.720250
29.616667	1	-0.760625
29.633333	1	-0.797625
29.650000	1	-0.831500
29.666667	1	-0.862000
29.683333	1	-0.888875
29.700000	1	-0.911250
29.716667	1	-0.928250
29.733333	1	-0.942000
29.750000	1	-0.949500
29.766667	1	-0.953750
29.783333	1	-0.953000
29.800000	1	-0.947625
29.816667	1	-0.938375
29.833333	1	-0.924750
29.850000	1	-0.907625
29.866667	1	-0.886625
29.883333	1	-0.862625
29.900000	1	-0.834500
29.916667	1	-0.804125
29.933333	1	-0.771500
29.950000	1	-0.737875
29.966667	1	-0.701750
29.983333	1	-0.664875
30.000000	1	-0.627250
30.016667	1	-0.589000
30.033333	1	-0.550125
30.050000	1	-0.511750
30.066667	1	-0.474000
30.083333	1	-0.437125
30.100000	1	-0.401000
30.116667	1	-0.365750
30.133333	1	-0.331875
30.150000	1	-0.299500
30.166667	1	-0.268375
30.183333	1	-0.238500
30.200000	1	-0.209875
30.216667	1	-0.183875
30.233333	1	-0.159000
30.250000	1	-0.135750
30.266667	1	-0.113875
30.283333	1	-0.093875
30.300000	1	-0.074250
30.316667	1	-0.056125
30.333333	1	-0.039125
30.350000	1	-0.024500
30.366667	1	-0.009875
30.383333	1	0.004250
30.400000	1	0.016625
30.416667	1	0.028125
30.433333	1	0.039250
30.450000	1	0.050250
30.466667	1	0.060500
30.483333	1	0.069250
30.500000	1	0.078375
30.516667	1	0.087625
30.533333	1	0.096750
30.550000	1	0.105250
30.566667	1	0.113750
30.583333	1	0.122500
30.600000	1	0.130875
30.616667	1	0.139500
30.633333	1	0.148000
30.650000	1	0.156875
30.666667	1	0.165125
30.683333	1	0.173875
30.700000	1	0.183250
30.716667	1	0.192125
30.733333	1	0.201375
30.750000	1	0.210375
30.766667	1	0.219875
30.783333	1	0.229000
30.800000	1	0.239125
30.816667	1	0.249250
30.833333	1	0.259250
30.850000	1	0.270000
30.866667	1	0.281000
30.883333	1	0.292375
30.900000	1	0.304750
30.916667	1	0.318250
30.933333	1	0.332625
30.950000	1	0.348000
30.966667	1	0.364125
30.983333	1	0.382125
31.000000	1	0.401250
31.016667	1	0.423750
31.033333	1	0.448125
31.050000	1	0.474750
31.066667	1	0.504625
31.083333	1	0.538125
31.100000	1	0.574875
31.116667	1	0.615250
31.133333	1	0.659750
31.150000	1	0.709125
31.166667	1	0.763000
31.183333	1	0.821625
31.200000	1	0.885750
31.216667	1	0.954500
31.233333	1	1.028625
31.250000	1	1.108250
31.266667	1	1.192250
31.283333	1	1.281500
31.300000	1	1.374625
31.316667	1	1.471375
31.333333	1	1.570750
31.350000	1	1.673625
31.366667	1	1.777875
31.383333	1	1.883000
31.400000	1	1.989125
31.416667	1	2.092875
31.433333	1	2.194875
31.450000	1	2.293250
31.466667	1	2.386000
31.483333	1	2.473500
31.500000	1	2.554500
31.516667	1	2.626625
31.533333	1	2.689750
31.550000	1	2.743000
31.566667	1	2.786125
31.583333	1	2.817625
31.600000	1	2.837750
31.616667	1	2.846125
31.633333	1	2.842500
31.650000	1	2.827500
31.666667	1	2.799875
31.683333	1	2.761500
31.700000	1	2.712375
31.716667	1	2.653500
31.733333	1	2.585750
31.750000	1	2.511125
31.766667	1	2.428250
31.783333	1	2.339500
31.800000	1	2.244500
31.816667	1	2.146375
31.833333	1	2.045375
31.850000	1	1.942125
31.866667	1	1.838750
31.883333	1	1.735375
31.900000	1	1.632125
31.916667	1	1.531000
31.933333	1	1.432000
31.950000	1	1.336250
31.966667	1	1.242875
31.983333	1	1.153500
32.000000	1	1.068000
32.016667	1	0.986250
32.033333	1	0.909125
32.050000	1	0.835625
32.066667	1	0.766750
32.083333	1	0.702500
32.100000	1	0.642250
32.116667	1	0.586000
32.133333	1	0.534125
32.150000	1	0.485625
32.166667	1	0.441375
32.183333	1	0.400000
32.200000	1	0.361375
32.216667	1	0.325750
32.233333	1	0.293000
32.250000	1	0.262500
32.266667	1	0.236000
32.283333	1	0.210375
32.300000	1	0.187750
32.316667	1	0.167125
32.333333	1	0.148375
32.350000	1	0.130625
32.366667	1	0.114875
32.383333	1	0.101125
32.400000	1	0.087750
32.416667	1	0.075750
32.433333	1	0.065500
32.450000	1	0.056375
32.466667	1	0.047500
32.483333	1	0.040625
32.500000	1	0.033875
32.516667	1	0.028500
32.533333	1	0.023500
32.550000	1	0.019875
32.566667	1	0.016750
32.583333	1	0.014375
32.600000	1	0.012375
32.616667	1	0.011125
32.633333	1	0.009625
32.650000	1	0.008625
32.666667	1	0.008000
32.683333	1	0.007125
32.700000	1	0.007000
32.716667	1	0.007125
32.733333	1	0.007875
32.750000	1	0.008000
32.766667	1	0.008750
32.783333	1	0.009250
32.800000	1	0.009625
32.816667	1	0.009500
32.833333	1	0.009625
32.850000	1	0.010375
32.866667	1	0.010625
32.883333	1	0.010500
32.900000	1	0.010125
32.916667	1	0.009375
32.933333	1	0.008750
32.950000	1	0.008125
32.966667	1	0.006625
32.983333	1	0.005875
33.000000	1	0.004500
33.016667	1	0.002625
33.033333	1	0.000500
33.050000	1	-0.001250
33.066667	1	-0.002750
33.083333	1	-0.004000
33.100000	1	-0.006000
33.116667	1	-0.008250
33.133333	1	-0.010000
33.150000	1	-0.012250
33.166667	1	-0.013500
33.183333	1	-0.014250
33.200000	1	-0.015625
33.216667	1	-0.016500
33.233333	1	-0.017000
33.250000	1	-0.017125
33.266667	1	-0.017125
33.283333	1	-0.017625
33.300000	1	-0.017125
33.316667	1	-0.016250
33.333333	1	-0.015500
33.350000	1	-0.014750
33.366667	1	-0.013375
33.383333	1	-0.011625
33.400000	1	-0.009500
33.416667	1	-0.007250
33.433333	1	-0.005750
33.450000	1	-0.004000
33.466667	1	-0.001375
33.483333	1	0.000625
33.500000	1	0.003625
33.516667	1	0.006125
33.533333	1	0.009125
33.550000	1	0.012000
33.566667	1	0.015250
33.583333	1	0.018875
33.600000	1	0.021875
33.616667	1	0.025125
33.633333	1	0.028625
33.650000	1	0.031875
33.666667	1	0.035000
33.683333	1	0.038750
33.700000	1	0.042000
33.716667	1	0.045750
33.733333	1	0.049125
33.750000	1	0.053375
33.766667	1	0.057125
33.783333	1	0.061250
33.800000	1	0.065125
33.816667	1	0.068750
33.833333	1	0.072625
33.850000	1	0.076375
33.866667	1	0.079375
33.883333	1	0.082875
33.900000	1	0.085500
33.916667	1	0.088875
33.933333	1	0.091125
33.950000	1	0.093500
33.966667	1	0.096125
33.983333	1	0.098500
34.000000	1	0.100375
34.016667	1	0.101625
34.033333	1	0.102750
34.050000	1	0.104000
34.066667	1	0.104750
34.083333	1	0.104250
34.100000	1	0.105000
34.116667	1	0.104750
34.133333	1	0.104625
34.150000	1	0.104125
34.166667	1	0.103125
34.183333	1	0.101875
34.200000	1	0.101375
34.216667	1	0.100375
34.233333	1	0.100000
34.250000	1	0.098125
34.266667	1	0.097000
34.283333	1	0.095125
34.300000	1	0.093625
34.316667	1	0.092250
34.333333	1	0.091375
34.350000	1	0.089625
34.366667	1	0.088625
34.383333	1	0.087125
34.400000	1	0.085750
34.416667	1	0.084000
34.433333	1	0.083500
34.450000	1	0.082250
34.466667	1	0.080750
34.483333	1	0.079125
34.500000	1	0.077500
34.516667	1	0.075875
34.533333	1	0.074625
34.550000	1	0.073250
34.566667	1	0.072125
34.583333	1	0.071750
34.600000	1	0.070875
34.616667	1	0.070000
34.633333	1	0.068750
34.650000	1	0.067375
34.666667	1	0.066875
34.683333	1	0.066750
34.700000	1	0.066250
34.716667	1	0.065250
34.733333	1	0.065250
34.750000	1	0.064750
34.766667	1	0.063875
34.783333	1	0.063875
34.800000	1	0.063125
34.816667	1	0.063000
34.833333	1	0.062500
34.850000	1	0.062125
34.866667	1	0.061375
34.883333	1	0.060375
34.900000	1	0.059750
34.916667	1	0.059250
34.933333	1	0.058875
34.950000	1	0.058125
34.966667	1	0.057625
34.983333	1	0.056750
35.000000	1	0.055875
35.016667	1	0.054875
35.033333	1	0.053625
35.050000	1	0.052625
35.066667	1	0.051500
35.083333	1	0.050000
35.100000	1	0.049250
35.116667	1	0.048750
35.133333	1	0.048250
35.150000	1	0.047375
35.166667	1	0.046875
35.183333	1	0.046625
35.200000	1	0.046250
35.216667	1	0.045750
35.233333	1	0.045625
35.250000	1	0.046500
35.266667	1	0.047000
35.283333	1	0.047875
35.300000	1	0.048500
35.316667	1	0.049625
35.333333	1	0.051000
35.350000	1	0.052625
35.366667	1	0.053875
35.383333	1	0.055500
35.400000	1	0.057125
35.416667	1	0.059250
35.433333	1	0.060875
35.450000	1	0.063000
35.466667	1	0.064250
35.483333	1	0.066500
35.500000	1	0.068000
35.516667	1	0.070375
35.533333	1	0.072625
35.550000	1	0.075375
35.566667	1	0.077625
35.583333	1	0.080125
35.600000	1	0.082375
35.616667	1	0.084875
35.633333	1	0.088125
35.650000	1	0.090375
35.666667	1	0.093625
35.683333	1	0.097000
35.700000	1	0.099750
35.716667	1	0.102375
35.733333	1	0.105250
35.750000	1	0.108125
35.766667	1	0.111750
35.783333	1	0.114750
35.800000	1	0.117625
35.816667	1	0.120875
35.833333	1	0.123000
35.850000	1	0.125625
35.866667	1	0.128500
35.883333	1	0.131500
35.900000	1	0.134375
35.916667	1	0.136250
35.933333	1	0.138375
35.950000	1	0.140125
35.966667	1	0.141625
35.983333	1	0.143250
36.000000	1	0.143875
36.016667	1	0.144875
36.033333	1	0.145125
36.050000	1	0.144625
36.066667	1	0.144875
36.083333	1	0.145000
36.100000	1	0.144625
36.116667	1	0.143750
36.133333	1	0.142750
36.150000	1	0.141625
36.166667	1	0.140375
36.183333	1	0.139125
36.200000	1	0.137625
36.216667	1	0.136500
36.233333	1	0.135500
36.250000	1	0.133875
36.266667	1	0.132375
36.283333	1	0.130875
36.300000	1	0.128875
36.316667	1	0.127250
36.333333	1	0.126500
36.350000	1	0.124500
36.366667	1	0.123250
36.383333	1	0.121625
36.400000	1	0.120250
36.416667	1	0.119375
36.433333	1	0.119125
36.450000	1	0.117500
36.466667	1	0.116750
36.483333	1	0.115375
36.500000	1	0.114375
36.516667	1	0.113125
36.533333	1	0.112125
36.550000	1	0.111000
36.566667	1	0.110000
36.583333	1	0.108625
36.600000	1	0.106750
36.616667	1	0.104750
36.633333	1	0.103375
36.650000	1	0.101875
36.666667	1	0.099625
36.683333	1	0.097375
36.700000	1	0.094625
36.716667	1	0.092125
36.733333	1	0.088625
36.750000	1	0.085875
36.766667	1	0.082625
36.783333	1	0.078875
36.800000	1	0.075000
36.816667	1	0.071375
36.833333	1	0.067000
36.850000	1	0.062750
36.866667	1	0.058500
36.883333	1	0.054375
36.900000	1	0.051250
36.916667	1	0.046875
36.933333	1	0.042625
36.950000	1	0.038875
36.966667	1	0.034375
36.983333	1	0.030875
37.000000	1	0.026875
37.016667	1	0.024125
37.033333	1	0.021375
37.050000	1	0.017750
37.066667	1	0.015375
37.083333	1	0.013250
37.100000	1	0.011125
37.116667	1	0.009875
37.133333	1	0.008500
37.150000	1	0.006750
37.166667	1	0.004875
37.183333	1	0.003250
37.200000	1	0.002125
37.216667	1	0.001500
37.233333	1	0.001000
37.250000	1	0.001250
37.266667	1	0.000875
37.283333	1	0.001000
37.300000	1	0.001125
37.316667	1	0.001750
37.333333	1	0.002125
37.350000	1	0.002125
37.366667	1	0.002625
37.383333	1	0.003000
37.400000	1	0.002625
37.416667	1	0.003250
37.433333	1	0.003750
37.450000	1	0.004250
37.466667	1	0.004250
37.483333	1	0.004250
37.500000	1	0.003750
37.516667	1	0.003500
37.533333	1	0.003375
37.550000	1	0.003125
37.566667	1	0.003750
37.583333	1	0.003250
37.600000	1	0.002625
37.616667	1	0.002000
37.633333	1	0.001000
37.650000	1	0.000375
37.666667	1	-0.000500
37.683333	1	-0.001750
37.700000	1	-0.003125
37.716667	1	-0.003750
37.733333	1	-0.004625
37.750000	1	-0.005750
37.766667	1	-0.006750
37.783333	1	-0.008000
37.800000	1	-0.008500
37.816667	1	-0.009750
37.833333	1	-0.010625
37.850000	1	-0.011125
37.866667	1	-0.011500
37.883333	1	-0.012375
37.900000	1	-0.013125
37.916667	1	-0.013250
37.933333	1	-0.012625
37.950000	1	-0.013125
37.966667	1	-0.013250
37.983333	1	-0.013625
38.000000	1	-0.013375
38.016667	1	-0.013875
38.033333	1	-0.013000
38.050000	1	-0.012500
38.066667	1	-0.012375
38.083333	1	-0.012250
38.100000	1	-0.011500
38.116667	1	-0.010375
38.133333	1	-0.009125
38.150000	1	-0.008500
38.166667	1	-0.008125
38.183333	1	-0.006750
38.200000	1	-0.005375
38.216667	1	-0.004375
38.233333	1	-0.003000
38.250000	1	-0.001250
38.266667	1	0.000250
38.283333	1	0.001625
38.300000	1	0.003125
38.316667	1	0.004875
38.333333	1	0.007375
38.350000	1	0.009000
38.366667	1	0.011000
38.383333	1	0.012375
38.400000	1	0.014750
38.416667	1	0.016500
38.433333	1	0.018500
38.450000	1	0.020375
38.466667	1	0.022750
38.483333	1	0.024000
38.500000	1	0.026875
38.516667	1	0.029250
38.533333	1	0.032125
38.550000	1	0.034875
38.566667	1	0.037750
38.583333	1	0.040750
38.600000	1	0.043000
38.616667	1	0.045125
38.633333	1	0.048250
38.650000	1	0.051000
38.666667	1	0.054625
38.683333	1	0.057375
38.700000	1	0.059625
38.716667	1	0.062125
38.733333	1	0.064875
38.750000	1	0.067875
38.766667	1	0.070625
38.783333	1	0.073375
38.800000	1	0.075625
38.816667	1	0.078250
38.833333	1	0.080250
38.850000	1	0.083000
38.866667	1	0.085000
38.883333	1	0.086625
38.900000	1	0.087875
38.916667	1	0.090000
38.933333	1	0.091125
38.950000	1	0.091375
38.966667	1	0.092250
38.983333	1	0.092875
39.000000	1	0.092375
39.016667	1	0.092000
39.033333	1	0.091125
39.050000	1	0.090375
39.066667	1	0.089125
39.083333	1	0.087500
39.100000	1	0.086000
39.116667	1	0.082875
39.133333	1	0.080250
39.150000	1	0.077250
39.166667	1	0.074125
39.183333	1	0.070250
39.200000	1	0.066000
39.216667	1	0.061875
39.233333	1	0.057750
39.250000	1	0.052250
39.266667	1	0.048375
39.283333	1	0.044000
39.300000	1	0.039625
39.316667	1	0.034625
39.333333	1	0.029625
39.350000	1	0.024375
39.366667	1	0.019375
39.383333	1	0.014625
39.400000	1	0.010250
39.416667	1	0.006000
39.433333	1	0.002000
39.450000	1	-0.001875
39.466667	1	-0.004875
39.483333	1	-0.008000
39.500000	1	-0.010875
39.516667	1	-0.013625
39.533333	1	-0.016000
39.550000	1	-0.018000
39.566667	1	-0.020125
39.583333	1	-0.022375
39.600000	1	-0.024625
39.616667	1	-0.026000
39.633333	1	-0.027125
39.650000	1	-0.027625
39.666667	1	-0.028125
39.683333	1	-0.029250
39.700000	1	-0.030125
39.716667	1	-0.030375
39.733333	1	-0.030500
39.750000	1	-0.031375
39.766667	1	-0.032250
39.783333	1	-0.032875
39.800000	1	-0.032625
39.816667	1	-0.032250
39.833333	1	-0.032250
39.850000	1	-0.033375
39.866667	1	-0.032750
39.883333	1	-0.032875
39.900000	1	-0.033000
39.916667	1	-0.033125
39.933333	1	-0.033375
39.950000	1	-0.034000
39.966667	1	-0.034625
39.983333	1	-0.035500
40.000000	1	-0.035875
