URL	chrom://bioreactor/micro_cm7/HPLC_Ultimate_3000/Users/markusar/20240517_CMO_FP23_FP25_MarkusDeplate.seq/968.smp/RI_1.channel/RI_1.chm
Channel	RI_1

Injection Information:
Data Vault	micro_cm7
Sequence	20240517_CMO_FP23_FP25_MarkusDeplate
Name	FP28_22.3_s6
Number	155
Position	BB9
Comment	
Processing Method	
Instrument Method	run_25B_method
Type	Unknown
Status	Finished
Inject Time	01.06.2024 04:58:11 +02:00
Volume (µl)	20.0000
Dilution Factor	1.0000
Weight	1.0000

Chromatogram Data Information:
Time Min. (min)	0.000000
Time Max. (min)	40.000000
Data Points	2401
Detector	RI
Generating Data System	Chromeleon 7.3.2.11814
Exporting Data System	Chromeleon 7.3.2.0
Operator	Instrument Controller
Signal Quantity	Refractive 
Signal Unit	µRIU
Signal Min.	-0.953375
Signal Max.	52.660875
Channel	RI_1
Driver Name	RID520Driver.dll
Channel Type	Evaluation
Min. Step (s)	1
Max. Step (s)	1
Average Step (s)	1

Signal Parameter Information:
Signal Info	

Chromatogram Data:
Time (min)	Step (s)	Value (µRIU)
0.000000	n.a.	-0.031500
0.016667	1	-0.031750
0.033333	1	-0.030250
0.050000	1	-0.029250
0.066667	1	-0.028625
0.083333	1	-0.027125
0.100000	1	-0.025750
0.116667	1	-0.023750
0.133333	1	-0.022500
0.150000	1	-0.020375
0.166667	1	-0.018250
0.183333	1	-0.015875
0.200000	1	-0.014250
0.216667	1	-0.012000
0.233333	1	-0.010000
0.250000	1	-0.007625
0.266667	1	-0.004375
0.283333	1	-0.002125
0.300000	1	-0.000125
0.316667	1	0.002125
0.333333	1	0.004250
0.350000	1	0.006750
0.366667	1	0.009000
0.383333	1	0.010875
0.400000	1	0.012875
0.416667	1	0.015000
0.433333	1	0.016875
0.450000	1	0.018875
0.466667	1	0.021500
0.483333	1	0.023375
0.500000	1	0.026000
0.516667	1	0.028375
0.533333	1	0.030500
0.550000	1	0.032875
0.566667	1	0.034125
0.583333	1	0.035750
0.600000	1	0.037375
0.616667	1	0.039125
0.633333	1	0.041000
0.650000	1	0.042500
0.666667	1	0.044500
0.683333	1	0.045625
0.700000	1	0.047000
0.716667	1	0.048500
0.733333	1	0.048875
0.750000	1	0.050000
0.766667	1	0.050500
0.783333	1	0.050500
0.800000	1	0.050625
0.816667	1	0.050750
0.833333	1	0.050625
0.850000	1	0.050875
0.866667	1	0.050375
0.883333	1	0.049625
0.900000	1	0.049125
0.916667	1	0.048625
0.933333	1	0.047375
0.950000	1	0.046625
0.966667	1	0.045125
0.983333	1	0.043875
1.000000	1	0.042625
1.016667	1	0.040750
1.033333	1	0.039500
1.050000	1	0.037250
1.066667	1	0.035750
1.083333	1	0.033375
1.100000	1	0.032000
1.116667	1	0.030375
1.133333	1	0.028875
1.150000	1	0.026500
1.166667	1	0.025375
1.183333	1	0.023625
1.200000	1	0.022750
1.216667	1	0.021875
1.233333	1	0.020875
1.250000	1	0.019375
1.266667	1	0.017875
1.283333	1	0.017000
1.300000	1	0.016250
1.316667	1	0.014750
1.333333	1	0.014250
1.350000	1	0.013500
1.366667	1	0.012375
1.383333	1	0.011625
1.400000	1	0.011125
1.416667	1	0.010125
1.433333	1	0.009375
1.450000	1	0.008625
1.466667	1	0.007750
1.483333	1	0.007000
1.500000	1	0.006125
1.516667	1	0.005000
1.533333	1	0.003875
1.550000	1	0.002375
1.566667	1	0.001000
1.583333	1	-0.000750
1.600000	1	-0.002375
1.616667	1	-0.003750
1.633333	1	-0.006375
1.650000	1	-0.008625
1.666667	1	-0.011000
1.683333	1	-0.012875
1.700000	1	-0.015000
1.716667	1	-0.016625
1.733333	1	-0.019500
1.750000	1	-0.021750
1.766667	1	-0.023500
1.783333	1	-0.025125
1.800000	1	-0.027125
1.816667	1	-0.028625
1.833333	1	-0.029500
1.850000	1	-0.030500
1.866667	1	-0.031375
1.883333	1	-0.031875
1.900000	1	-0.031875
1.916667	1	-0.032125
1.933333	1	-0.031375
1.950000	1	-0.030375
1.966667	1	-0.030125
1.983333	1	-0.029500
2.000000	1	-0.027375
2.016667	1	-0.025625
2.033333	1	-0.023500
2.050000	1	-0.021000
2.066667	1	-0.018500
2.083333	1	-0.015750
2.100000	1	-0.012625
2.116667	1	-0.009625
2.133333	1	-0.006375
2.150000	1	-0.002750
2.166667	1	0.000125
2.183333	1	0.003750
2.200000	1	0.007375
2.216667	1	0.010750
2.233333	1	0.014125
2.250000	1	0.017375
2.266667	1	0.021375
2.283333	1	0.026125
2.300000	1	0.029750
2.316667	1	0.032750
2.333333	1	0.036375
2.350000	1	0.039500
2.366667	1	0.043000
2.383333	1	0.046125
2.400000	1	0.048500
2.416667	1	0.051375
2.433333	1	0.054625
2.450000	1	0.057250
2.466667	1	0.060000
2.483333	1	0.062375
2.500000	1	0.064250
2.516667	1	0.066125
2.533333	1	0.068125
2.550000	1	0.069375
2.566667	1	0.070625
2.583333	1	0.071125
2.600000	1	0.072375
2.616667	1	0.073000
2.633333	1	0.073625
2.650000	1	0.073500
2.666667	1	0.073000
2.683333	1	0.072250
2.700000	1	0.071625
2.716667	1	0.070375
2.733333	1	0.069125
2.750000	1	0.068625
2.766667	1	0.066625
2.783333	1	0.064750
2.800000	1	0.063375
2.816667	1	0.062500
2.833333	1	0.060750
2.850000	1	0.058250
2.866667	1	0.056375
2.883333	1	0.054125
2.900000	1	0.051500
2.916667	1	0.049375
2.933333	1	0.046875
2.950000	1	0.044500
2.966667	1	0.042000
2.983333	1	0.040375
3.000000	1	0.037750
3.016667	1	0.035250
3.033333	1	0.032375
3.050000	1	0.030875
3.066667	1	0.029875
3.083333	1	0.028375
3.100000	1	0.026500
3.116667	1	0.025500
3.133333	1	0.024625
3.150000	1	0.023750
3.166667	1	0.022875
3.183333	1	0.022250
3.200000	1	0.021875
3.216667	1	0.021375
3.233333	1	0.021875
3.250000	1	0.022750
3.266667	1	0.023375
3.283333	1	0.024000
3.300000	1	0.025500
3.316667	1	0.026625
3.333333	1	0.028125
3.350000	1	0.029625
3.366667	1	0.032125
3.383333	1	0.034375
3.400000	1	0.036125
3.416667	1	0.039375
3.433333	1	0.042625
3.450000	1	0.045000
3.466667	1	0.048000
3.483333	1	0.050000
3.500000	1	0.053000
3.516667	1	0.055750
3.533333	1	0.058375
3.550000	1	0.061500
3.566667	1	0.064500
3.583333	1	0.067250
3.600000	1	0.069375
3.616667	1	0.071000
3.633333	1	0.072875
3.650000	1	0.075500
3.666667	1	0.077375
3.683333	1	0.078625
3.700000	1	0.079625
3.716667	1	0.080250
3.733333	1	0.080625
3.750000	1	0.082375
3.766667	1	0.082625
3.783333	1	0.083000
3.800000	1	0.083625
3.816667	1	0.083625
3.833333	1	0.083375
3.850000	1	0.082875
3.866667	1	0.082875
3.883333	1	0.082125
3.900000	1	0.081000
3.916667	1	0.079500
3.933333	1	0.079250
3.950000	1	0.078250
3.966667	1	0.077500
3.983333	1	0.076500
4.000000	1	0.075625
4.016667	1	0.074625
4.033333	1	0.074125
4.050000	1	0.072875
4.066667	1	0.072500
4.083333	1	0.071625
4.100000	1	0.070875
4.116667	1	0.070000
4.133333	1	0.069500
4.150000	1	0.068625
4.166667	1	0.068375
4.183333	1	0.068125
4.200000	1	0.069000
4.216667	1	0.069250
4.233333	1	0.069375
4.250000	1	0.070000
4.266667	1	0.070500
4.283333	1	0.071375
4.300000	1	0.071625
4.316667	1	0.072250
4.333333	1	0.072875
4.350000	1	0.074250
4.366667	1	0.075625
4.383333	1	0.077500
4.400000	1	0.079250
4.416667	1	0.081125
4.433333	1	0.082875
4.450000	1	0.085000
4.466667	1	0.087375
4.483333	1	0.089875
4.500000	1	0.092250
4.516667	1	0.094625
4.533333	1	0.096625
4.550000	1	0.098750
4.566667	1	0.101625
4.583333	1	0.103875
4.600000	1	0.106000
4.616667	1	0.108500
4.633333	1	0.111125
4.650000	1	0.113125
4.666667	1	0.115125
4.683333	1	0.117125
4.700000	1	0.120000
4.716667	1	0.122250
4.733333	1	0.124750
4.750000	1	0.126500
4.766667	1	0.129125
4.783333	1	0.131625
4.800000	1	0.134375
4.816667	1	0.137375
4.833333	1	0.140250
4.850000	1	0.142750
4.866667	1	0.145375
4.883333	1	0.148375
4.900000	1	0.151875
4.916667	1	0.154875
4.933333	1	0.158250
4.950000	1	0.162375
4.966667	1	0.165750
4.983333	1	0.169250
5.000000	1	0.173000
5.016667	1	0.176625
5.033333	1	0.180375
5.050000	1	0.184875
5.066667	1	0.188750
5.083333	1	0.193625
5.100000	1	0.197750
5.116667	1	0.202000
5.133333	1	0.205875
5.150000	1	0.210625
5.166667	1	0.215500
5.183333	1	0.220375
5.200000	1	0.224625
5.216667	1	0.228375
5.233333	1	0.232875
5.250000	1	0.238125
5.266667	1	0.242625
5.283333	1	0.247250
5.300000	1	0.252000
5.316667	1	0.255375
5.333333	1	0.259875
5.350000	1	0.263750
5.366667	1	0.267875
5.383333	1	0.271875
5.400000	1	0.275625
5.416667	1	0.279250
5.433333	1	0.283000
5.450000	1	0.286500
5.466667	1	0.289625
5.483333	1	0.292250
5.500000	1	0.295625
5.516667	1	0.298375
5.533333	1	0.301250
5.550000	1	0.303500
5.566667	1	0.306000
5.583333	1	0.308000
5.600000	1	0.309875
5.616667	1	0.311625
5.633333	1	0.312750
5.650000	1	0.313750
5.666667	1	0.315250
5.683333	1	0.315500
5.700000	1	0.315750
5.716667	1	0.315750
5.733333	1	0.315500
5.750000	1	0.315500
5.766667	1	0.314375
5.783333	1	0.313500
5.800000	1	0.312500
5.816667	1	0.311125
5.833333	1	0.309250
5.850000	1	0.307250
5.866667	1	0.305250
5.883333	1	0.302500
5.900000	1	0.299125
5.916667	1	0.296000
5.933333	1	0.292125
5.950000	1	0.288250
5.966667	1	0.284250
5.983333	1	0.280875
6.000000	1	0.276875
6.016667	1	0.273000
6.033333	1	0.268500
6.050000	1	0.264375
6.066667	1	0.259500
6.083333	1	0.253875
6.100000	1	0.248875
6.116667	1	0.243750
6.133333	1	0.238750
6.150000	1	0.233875
6.166667	1	0.228875
6.183333	1	0.223250
6.200000	1	0.218375
6.216667	1	0.213375
6.233333	1	0.208500
6.250000	1	0.203500
6.266667	1	0.198625
6.283333	1	0.194000
6.300000	1	0.190500
6.316667	1	0.186125
6.333333	1	0.181875
6.350000	1	0.178625
6.366667	1	0.175125
6.383333	1	0.171625
6.400000	1	0.168125
6.416667	1	0.165250
6.433333	1	0.162000
6.450000	1	0.159125
6.466667	1	0.156375
6.483333	1	0.154375
6.500000	1	0.152000
6.516667	1	0.150000
6.533333	1	0.148000
6.550000	1	0.146750
6.566667	1	0.144750
6.583333	1	0.142750
6.600000	1	0.141125
6.616667	1	0.139250
6.633333	1	0.138125
6.650000	1	0.137250
6.666667	1	0.135875
6.683333	1	0.134000
6.700000	1	0.132625
6.716667	1	0.131500
6.733333	1	0.130750
6.750000	1	0.129250
6.766667	1	0.128625
6.783333	1	0.127500
6.800000	1	0.125625
6.816667	1	0.124125
6.833333	1	0.123250
6.850000	1	0.121375
6.866667	1	0.120250
6.883333	1	0.119125
6.900000	1	0.119000
6.916667	1	0.118250
6.933333	1	0.117625
6.950000	1	0.116375
6.966667	1	0.115750
6.983333	1	0.115500
7.000000	1	0.116125
7.016667	1	0.116500
7.033333	1	0.116750
7.050000	1	0.116750
7.066667	1	0.117500
7.083333	1	0.118500
7.100000	1	0.119875
7.116667	1	0.121250
7.133333	1	0.123125
7.150000	1	0.125000
7.166667	1	0.127000
7.183333	1	0.130250
7.200000	1	0.133500
7.216667	1	0.136875
7.233333	1	0.139750
7.250000	1	0.143125
7.266667	1	0.146000
7.283333	1	0.149500
7.300000	1	0.153250
7.316667	1	0.156750
7.333333	1	0.160125
7.350000	1	0.163875
7.366667	1	0.167500
7.383333	1	0.171750
7.400000	1	0.175625
7.416667	1	0.179125
7.433333	1	0.181750
7.450000	1	0.184500
7.466667	1	0.187125
7.483333	1	0.189500
7.500000	1	0.191875
7.516667	1	0.193750
7.533333	1	0.196125
7.550000	1	0.197750
7.566667	1	0.200000
7.583333	1	0.201125
7.600000	1	0.201750
7.616667	1	0.202375
7.633333	1	0.202875
7.650000	1	0.203375
7.666667	1	0.203000
7.683333	1	0.202500
7.700000	1	0.201375
7.716667	1	0.200750
7.733333	1	0.200125
7.750000	1	0.199375
7.766667	1	0.198250
7.783333	1	0.196375
7.800000	1	0.194375
7.816667	1	0.193000
7.833333	1	0.190625
7.850000	1	0.188625
7.866667	1	0.185750
7.883333	1	0.183375
7.900000	1	0.181000
7.916667	1	0.178375
7.933333	1	0.175625
7.950000	1	0.172375
7.966667	1	0.169625
7.983333	1	0.167250
8.000000	1	0.164125
8.016667	1	0.161750
8.033333	1	0.159000
8.050000	1	0.156625
8.066667	1	0.154625
8.083333	1	0.152375
8.100000	1	0.149750
8.116667	1	0.147250
8.133333	1	0.144250
8.150000	1	0.142250
8.166667	1	0.139750
8.183333	1	0.137500
8.200000	1	0.135375
8.216667	1	0.133625
8.233333	1	0.130625
8.250000	1	0.128875
8.266667	1	0.126625
8.283333	1	0.124000
8.300000	1	0.121750
8.316667	1	0.119500
8.333333	1	0.117375
8.350000	1	0.115125
8.366667	1	0.112125
8.383333	1	0.109125
8.400000	1	0.106500
8.416667	1	0.104375
8.433333	1	0.101750
8.450000	1	0.099375
8.466667	1	0.096875
8.483333	1	0.094500
8.500000	1	0.092625
8.516667	1	0.090500
8.533333	1	0.088500
8.550000	1	0.086875
8.566667	1	0.085375
8.583333	1	0.084000
8.600000	1	0.083000
8.616667	1	0.082500
8.633333	1	0.081500
8.650000	1	0.081000
8.666667	1	0.081125
8.683333	1	0.081625
8.700000	1	0.081125
8.716667	1	0.081750
8.733333	1	0.082625
8.750000	1	0.083125
8.766667	1	0.083750
8.783333	1	0.084750
8.800000	1	0.086125
8.816667	1	0.087000
8.833333	1	0.087625
8.850000	1	0.088750
8.866667	1	0.090250
8.883333	1	0.091250
8.900000	1	0.093250
8.916667	1	0.094000
8.933333	1	0.094625
8.950000	1	0.095375
8.966667	1	0.096875
8.983333	1	0.097750
9.000000	1	0.098500
9.016667	1	0.099375
9.033333	1	0.099750
9.050000	1	0.099750
9.066667	1	0.100125
9.083333	1	0.101125
9.100000	1	0.101375
9.116667	1	0.101250
9.133333	1	0.101375
9.150000	1	0.101625
9.166667	1	0.101750
9.183333	1	0.101625
9.200000	1	0.102000
9.216667	1	0.101625
9.233333	1	0.101125
9.250000	1	0.101000
9.266667	1	0.100375
9.283333	1	0.099875
9.300000	1	0.098875
9.316667	1	0.098500
9.333333	1	0.097750
9.350000	1	0.096875
9.366667	1	0.096375
9.383333	1	0.095750
9.400000	1	0.095000
9.416667	1	0.094000
9.433333	1	0.093125
9.450000	1	0.092625
9.466667	1	0.092125
9.483333	1	0.091125
9.500000	1	0.091625
9.516667	1	0.091500
9.533333	1	0.091000
9.550000	1	0.090500
9.566667	1	0.090625
9.583333	1	0.090250
9.600000	1	0.089250
9.616667	1	0.089500
9.633333	1	0.088500
9.650000	1	0.088000
9.666667	1	0.088250
9.683333	1	0.088125
9.700000	1	0.087500
9.716667	1	0.087000
9.733333	1	0.086000
9.750000	1	0.085375
9.766667	1	0.085500
9.783333	1	0.084750
9.800000	1	0.083750
9.816667	1	0.082875
9.833333	1	0.082250
9.850000	1	0.081875
9.866667	1	0.081250
9.883333	1	0.081000
9.900000	1	0.080500
9.916667	1	0.079875
9.933333	1	0.079375
9.950000	1	0.079375
9.966667	1	0.078625
9.983333	1	0.078500
10.000000	1	0.078000
10.016667	1	0.077750
10.033333	1	0.077750
10.050000	1	0.078375
10.066667	1	0.079250
10.083333	1	0.081000
10.100000	1	0.083500
10.116667	1	0.087250
10.133333	1	0.091375
10.150000	1	0.097250
10.166667	1	0.103875
10.183333	1	0.111875
10.200000	1	0.121625
10.216667	1	0.132750
10.233333	1	0.146000
10.250000	1	0.161125
10.266667	1	0.178500
10.283333	1	0.198750
10.300000	1	0.221375
10.316667	1	0.246625
10.333333	1	0.273625
10.350000	1	0.301000
10.366667	1	0.328125
10.383333	1	0.352375
10.400000	1	0.372625
10.416667	1	0.387625
10.433333	1	0.398000
10.450000	1	0.406625
10.466667	1	0.420875
10.483333	1	0.451250
10.500000	1	0.519000
10.516667	1	0.651000
10.533333	1	0.888875
10.550000	1	1.280250
10.566667	1	1.883125
10.583333	1	2.758000
10.600000	1	3.963500
10.616667	1	5.549500
10.633333	1	7.551000
10.650000	1	9.985250
10.666667	1	12.856875
10.683333	1	16.151375
10.700000	1	19.835250
10.716667	1	23.852500
10.733333	1	28.115500
10.750000	1	32.505500
10.766667	1	36.852375
10.783333	1	40.937625
10.800000	1	44.487375
10.816667	1	47.192625
10.833333	1	48.748750
10.850000	1	48.927000
10.866667	1	47.640000
10.883333	1	44.981625
10.900000	1	41.223750
10.916667	1	36.761500
10.933333	1	32.015750
10.950000	1	27.349250
10.966667	1	23.017875
10.983333	1	19.172625
11.000000	1	15.866500
11.016667	1	13.097000
11.033333	1	10.824125
11.050000	1	8.988000
11.066667	1	7.521250
11.083333	1	6.358625
11.100000	1	5.442125
11.116667	1	4.719375
11.133333	1	4.146875
11.150000	1	3.690125
11.166667	1	3.323000
11.183333	1	3.023875
11.200000	1	2.778375
11.216667	1	2.572625
11.233333	1	2.400000
11.250000	1	2.251875
11.266667	1	2.124250
11.283333	1	2.013000
11.300000	1	1.915250
11.316667	1	1.828500
11.333333	1	1.751500
11.350000	1	1.682875
11.366667	1	1.622625
11.383333	1	1.568000
11.400000	1	1.518375
11.416667	1	1.475125
11.433333	1	1.435875
11.450000	1	1.401625
11.466667	1	1.369875
11.483333	1	1.341125
11.500000	1	1.314750
11.516667	1	1.291875
11.533333	1	1.270625
11.550000	1	1.251750
11.566667	1	1.234125
11.583333	1	1.218125
11.600000	1	1.204000
11.616667	1	1.191500
11.633333	1	1.179500
11.650000	1	1.168875
11.666667	1	1.160125
11.683333	1	1.152875
11.700000	1	1.147125
11.716667	1	1.142250
11.733333	1	1.139250
11.750000	1	1.138125
11.766667	1	1.137750
11.783333	1	1.137875
11.800000	1	1.139625
11.816667	1	1.140875
11.833333	1	1.143500
11.850000	1	1.147000
11.866667	1	1.149875
11.883333	1	1.152750
11.900000	1	1.155625
11.916667	1	1.158500
11.933333	1	1.161375
11.950000	1	1.164125
11.966667	1	1.166500
11.983333	1	1.169625
12.000000	1	1.172625
12.016667	1	1.176125
12.033333	1	1.179875
12.050000	1	1.185250
12.066667	1	1.189875
12.083333	1	1.195250
12.100000	1	1.200625
12.116667	1	1.206500
12.133333	1	1.212375
12.150000	1	1.219000
12.166667	1	1.227375
12.183333	1	1.236500
12.200000	1	1.246125
12.216667	1	1.256750
12.233333	1	1.269750
12.250000	1	1.285750
12.266667	1	1.302500
12.283333	1	1.322875
12.300000	1	1.347000
12.316667	1	1.376375
12.333333	1	1.412125
12.350000	1	1.455625
12.366667	1	1.508125
12.383333	1	1.571875
12.400000	1	1.649875
12.416667	1	1.745250
12.433333	1	1.862875
12.450000	1	2.006125
12.466667	1	2.180000
12.483333	1	2.388625
12.500000	1	2.635500
12.516667	1	2.922000
12.533333	1	3.248875
12.550000	1	3.612750
12.566667	1	4.006625
12.583333	1	4.420250
12.600000	1	4.840625
12.616667	1	5.251625
12.633333	1	5.637500
12.650000	1	5.980875
12.666667	1	6.267875
12.683333	1	6.486250
12.700000	1	6.628625
12.716667	1	6.692000
12.733333	1	6.676875
12.750000	1	6.590000
12.766667	1	6.440000
12.783333	1	6.238125
12.800000	1	5.997000
12.816667	1	5.729875
12.833333	1	5.446250
12.850000	1	5.157750
12.866667	1	4.871500
12.883333	1	4.594375
12.900000	1	4.330375
12.916667	1	4.084500
12.933333	1	3.858750
12.950000	1	3.654250
12.966667	1	3.470250
12.983333	1	3.306375
13.000000	1	3.161375
13.016667	1	3.033250
13.033333	1	2.921500
13.050000	1	2.822250
13.066667	1	2.734875
13.083333	1	2.657125
13.100000	1	2.588000
13.116667	1	2.526125
13.133333	1	2.470375
13.150000	1	2.419750
13.166667	1	2.372750
13.183333	1	2.329500
13.200000	1	2.289250
13.216667	1	2.250875
13.233333	1	2.215125
13.250000	1	2.180375
13.266667	1	2.147750
13.283333	1	2.116000
13.300000	1	2.085750
13.316667	1	2.056625
13.333333	1	2.029000
13.350000	1	2.002500
13.366667	1	1.977750
13.383333	1	1.955750
13.400000	1	1.934500
13.416667	1	1.916250
13.433333	1	1.900000
13.450000	1	1.887000
13.466667	1	1.875875
13.483333	1	1.867250
13.500000	1	1.860500
13.516667	1	1.856875
13.533333	1	1.854125
13.550000	1	1.853500
13.566667	1	1.853625
13.583333	1	1.853750
13.600000	1	1.852750
13.616667	1	1.850000
13.633333	1	1.845500
13.650000	1	1.840000
13.666667	1	1.831875
13.683333	1	1.820000
13.700000	1	1.806125
13.716667	1	1.789500
13.733333	1	1.771000
13.750000	1	1.751125
13.766667	1	1.730500
13.783333	1	1.708750
13.800000	1	1.687375
13.816667	1	1.665625
13.833333	1	1.645125
13.850000	1	1.625000
13.866667	1	1.606375
13.883333	1	1.589500
13.900000	1	1.573000
13.916667	1	1.557375
13.933333	1	1.543125
13.950000	1	1.529500
13.966667	1	1.517750
13.983333	1	1.506250
14.000000	1	1.495875
14.016667	1	1.485875
14.033333	1	1.477125
14.050000	1	1.468875
14.066667	1	1.460625
14.083333	1	1.453625
14.100000	1	1.447750
14.116667	1	1.442125
14.133333	1	1.436750
14.150000	1	1.432250
14.166667	1	1.428375
14.183333	1	1.425500
14.200000	1	1.423250
14.216667	1	1.422250
14.233333	1	1.422250
14.250000	1	1.424500
14.266667	1	1.428375
14.283333	1	1.434750
14.300000	1	1.443250
14.316667	1	1.455125
14.333333	1	1.469875
14.350000	1	1.489000
14.366667	1	1.513375
14.383333	1	1.543375
14.400000	1	1.581500
14.416667	1	1.630625
14.433333	1	1.693375
14.450000	1	1.775750
14.466667	1	1.885000
14.483333	1	2.031750
14.500000	1	2.228375
14.516667	1	2.492375
14.533333	1	2.846875
14.550000	1	3.320000
14.566667	1	3.944500
14.583333	1	4.757875
14.600000	1	5.802875
14.616667	1	7.125500
14.633333	1	8.773125
14.650000	1	10.786000
14.666667	1	13.194750
14.683333	1	16.011625
14.700000	1	19.226250
14.716667	1	22.799875
14.733333	1	26.663875
14.750000	1	30.719625
14.766667	1	34.839125
14.783333	1	38.869875
14.800000	1	42.650000
14.816667	1	46.017250
14.833333	1	48.817750
14.850000	1	50.918375
14.866667	1	52.217875
14.883333	1	52.660875
14.900000	1	52.237250
14.916667	1	50.989375
14.933333	1	48.996625
14.950000	1	46.374125
14.966667	1	43.261875
14.983333	1	39.812500
15.000000	1	36.173250
15.016667	1	32.479125
15.033333	1	28.847125
15.050000	1	25.374250
15.066667	1	22.132125
15.083333	1	19.168000
15.100000	1	16.508250
15.116667	1	14.159500
15.133333	1	12.114250
15.150000	1	10.352250
15.166667	1	8.849875
15.183333	1	7.579250
15.200000	1	6.512875
15.216667	1	5.623750
15.233333	1	4.885500
15.250000	1	4.276625
15.266667	1	3.777250
15.283333	1	3.370125
15.300000	1	3.042625
15.316667	1	2.780500
15.333333	1	2.574375
15.350000	1	2.414750
15.366667	1	2.293750
15.383333	1	2.203875
15.400000	1	2.139500
15.416667	1	2.095625
15.433333	1	2.066625
15.450000	1	2.047625
15.466667	1	2.034250
15.483333	1	2.023875
15.500000	1	2.012500
15.516667	1	1.999000
15.533333	1	1.980250
15.550000	1	1.955875
15.566667	1	1.925875
15.583333	1	1.891250
15.600000	1	1.852250
15.616667	1	1.811000
15.633333	1	1.766750
15.650000	1	1.722250
15.666667	1	1.677625
15.683333	1	1.635000
15.700000	1	1.593500
15.716667	1	1.555250
15.733333	1	1.519750
15.750000	1	1.487000
15.766667	1	1.456875
15.783333	1	1.429000
15.800000	1	1.404125
15.816667	1	1.382000
15.833333	1	1.361875
15.850000	1	1.343125
15.866667	1	1.326125
15.883333	1	1.310625
15.900000	1	1.297750
15.916667	1	1.286375
15.933333	1	1.277500
15.950000	1	1.270250
15.966667	1	1.264750
15.983333	1	1.261375
16.000000	1	1.259875
16.016667	1	1.260000
16.033333	1	1.261500
16.050000	1	1.264625
16.066667	1	1.268250
16.083333	1	1.272875
16.100000	1	1.278000
16.116667	1	1.283625
16.133333	1	1.288750
16.150000	1	1.294250
16.166667	1	1.298875
16.183333	1	1.302500
16.200000	1	1.305125
16.216667	1	1.307375
16.233333	1	1.308750
16.250000	1	1.309000
16.266667	1	1.307750
16.283333	1	1.305625
16.300000	1	1.303250
16.316667	1	1.300000
16.333333	1	1.295750
16.350000	1	1.292125
16.366667	1	1.288500
16.383333	1	1.285375
16.400000	1	1.283125
16.416667	1	1.281500
16.433333	1	1.280625
16.450000	1	1.281250
16.466667	1	1.283000
16.483333	1	1.284375
16.500000	1	1.286000
16.516667	1	1.287875
16.533333	1	1.289750
16.550000	1	1.290750
16.566667	1	1.290625
16.583333	1	1.289875
16.600000	1	1.288625
16.616667	1	1.286000
16.633333	1	1.281250
16.650000	1	1.276375
16.666667	1	1.270875
16.683333	1	1.265375
16.700000	1	1.260625
16.716667	1	1.255500
16.733333	1	1.251375
16.750000	1	1.249625
16.766667	1	1.248250
16.783333	1	1.249250
16.800000	1	1.251375
16.816667	1	1.253875
16.833333	1	1.256625
16.850000	1	1.260500
16.866667	1	1.263875
16.883333	1	1.267000
16.900000	1	1.268625
16.916667	1	1.270500
16.933333	1	1.270750
16.950000	1	1.269875
16.966667	1	1.267250
16.983333	1	1.264375
17.000000	1	1.260125
17.016667	1	1.254875
17.033333	1	1.249125
17.050000	1	1.243375
17.066667	1	1.237500
17.083333	1	1.231750
17.100000	1	1.226500
17.116667	1	1.221250
17.133333	1	1.217500
17.150000	1	1.214625
17.166667	1	1.212250
17.183333	1	1.211250
17.200000	1	1.211250
17.216667	1	1.212250
17.233333	1	1.214125
17.250000	1	1.216375
17.266667	1	1.219625
17.283333	1	1.223375
17.300000	1	1.228125
17.316667	1	1.233000
17.333333	1	1.238500
17.350000	1	1.244500
17.366667	1	1.250500
17.383333	1	1.255750
17.400000	1	1.261375
17.416667	1	1.265500
17.433333	1	1.269375
17.450000	1	1.272000
17.466667	1	1.272875
17.483333	1	1.273250
17.500000	1	1.270875
17.516667	1	1.267875
17.533333	1	1.262125
17.550000	1	1.254750
17.566667	1	1.246375
17.583333	1	1.236625
17.600000	1	1.225250
17.616667	1	1.212500
17.633333	1	1.198500
17.650000	1	1.184500
17.666667	1	1.170250
17.683333	1	1.156125
17.700000	1	1.141625
17.716667	1	1.127125
17.733333	1	1.113500
17.750000	1	1.100250
17.766667	1	1.088625
17.783333	1	1.077625
17.800000	1	1.067250
17.816667	1	1.057500
17.833333	1	1.048875
17.850000	1	1.041500
17.866667	1	1.034750
17.883333	1	1.027125
17.900000	1	1.021125
17.916667	1	1.014625
17.933333	1	1.009750
17.950000	1	1.004375
17.966667	1	0.998500
17.983333	1	0.992625
18.000000	1	0.986875
18.016667	1	0.980875
18.033333	1	0.974875
18.050000	1	0.969125
18.066667	1	0.963750
18.083333	1	0.957750
18.100000	1	0.952250
18.116667	1	0.947125
18.133333	1	0.942375
18.150000	1	0.938000
18.166667	1	0.934875
18.183333	1	0.931625
18.200000	1	0.928250
18.216667	1	0.925750
18.233333	1	0.924000
18.250000	1	0.922625
18.266667	1	0.921750
18.283333	1	0.921000
18.300000	1	0.920625
18.316667	1	0.920875
18.333333	1	0.920250
18.350000	1	0.920500
18.366667	1	0.921625
18.383333	1	0.923500
18.400000	1	0.925750
18.416667	1	0.929250
18.433333	1	0.934250
18.450000	1	0.940625
18.466667	1	0.948125
18.483333	1	0.957750
18.500000	1	0.968625
18.516667	1	0.982125
18.533333	1	0.996625
18.550000	1	1.014000
18.566667	1	1.033375
18.583333	1	1.054500
18.600000	1	1.077125
18.616667	1	1.101000
18.633333	1	1.127625
18.650000	1	1.154750
18.666667	1	1.184000
18.683333	1	1.213750
18.700000	1	1.244750
18.716667	1	1.274875
18.733333	1	1.306500
18.750000	1	1.337625
18.766667	1	1.369250
18.783333	1	1.399125
18.800000	1	1.427500
18.816667	1	1.453875
18.833333	1	1.478875
18.850000	1	1.500250
18.866667	1	1.517625
18.883333	1	1.530375
18.900000	1	1.537625
18.916667	1	1.540500
18.933333	1	1.538000
18.950000	1	1.529375
18.966667	1	1.515000
18.983333	1	1.495375
19.000000	1	1.469625
19.016667	1	1.439000
19.033333	1	1.403625
19.050000	1	1.363875
19.066667	1	1.321375
19.083333	1	1.277625
19.100000	1	1.232000
19.116667	1	1.187000
19.133333	1	1.142500
19.150000	1	1.099125
19.166667	1	1.059375
19.183333	1	1.022125
19.200000	1	0.988625
19.216667	1	0.960125
19.233333	1	0.936750
19.250000	1	0.918500
19.266667	1	0.905750
19.283333	1	0.898375
19.300000	1	0.896875
19.316667	1	0.900500
19.333333	1	0.910250
19.350000	1	0.925125
19.366667	1	0.945125
19.383333	1	0.969250
19.400000	1	0.997375
19.416667	1	1.027625
19.433333	1	1.060625
19.450000	1	1.095250
19.466667	1	1.128875
19.483333	1	1.161500
19.500000	1	1.193375
19.516667	1	1.222625
19.533333	1	1.248375
19.550000	1	1.269875
19.566667	1	1.287375
19.583333	1	1.300375
19.600000	1	1.308500
19.616667	1	1.311250
19.633333	1	1.309125
19.650000	1	1.302125
19.666667	1	1.289750
19.683333	1	1.273125
19.700000	1	1.252125
19.716667	1	1.228125
19.733333	1	1.201500
19.750000	1	1.172250
19.766667	1	1.141125
19.783333	1	1.108750
19.800000	1	1.074875
19.816667	1	1.040125
19.833333	1	1.006125
19.850000	1	0.973125
19.866667	1	0.939750
19.883333	1	0.908125
19.900000	1	0.877750
19.916667	1	0.850000
19.933333	1	0.824375
19.950000	1	0.802250
19.966667	1	0.784125
19.983333	1	0.769000
20.000000	1	0.757250
20.016667	1	0.750000
20.033333	1	0.746375
20.050000	1	0.747875
20.066667	1	0.754500
20.083333	1	0.765125
20.100000	1	0.780625
20.116667	1	0.800250
20.133333	1	0.824875
20.150000	1	0.853375
20.166667	1	0.884875
20.183333	1	0.917375
20.200000	1	0.951250
20.216667	1	0.985625
20.233333	1	1.018500
20.250000	1	1.049750
20.266667	1	1.077375
20.283333	1	1.099750
20.300000	1	1.117375
20.316667	1	1.128375
20.333333	1	1.133625
20.350000	1	1.131750
20.366667	1	1.122875
20.383333	1	1.108000
20.400000	1	1.087500
20.416667	1	1.061250
20.433333	1	1.031750
20.450000	1	0.999750
20.466667	1	0.966000
20.483333	1	0.932750
20.500000	1	0.901125
20.516667	1	0.873250
20.533333	1	0.848500
20.550000	1	0.829625
20.566667	1	0.816000
20.583333	1	0.809875
20.600000	1	0.811125
20.616667	1	0.820875
20.633333	1	0.838750
20.650000	1	0.865000
20.666667	1	0.900750
20.683333	1	0.944625
20.700000	1	0.995500
20.716667	1	1.053125
20.733333	1	1.116875
20.750000	1	1.184625
20.766667	1	1.255250
20.783333	1	1.325500
20.800000	1	1.395750
20.816667	1	1.461750
20.833333	1	1.522125
20.850000	1	1.574500
20.866667	1	1.617500
20.883333	1	1.650125
20.900000	1	1.669875
20.916667	1	1.677250
20.933333	1	1.672875
20.950000	1	1.655625
20.966667	1	1.627000
20.983333	1	1.588125
21.000000	1	1.539500
21.016667	1	1.483875
21.033333	1	1.422625
21.050000	1	1.358000
21.066667	1	1.290875
21.083333	1	1.224125
21.100000	1	1.158250
21.116667	1	1.093625
21.133333	1	1.032500
21.150000	1	0.975500
21.166667	1	0.922125
21.183333	1	0.872750
21.200000	1	0.827875
21.216667	1	0.787875
21.233333	1	0.751625
21.250000	1	0.719500
21.266667	1	0.690625
21.283333	1	0.665125
21.300000	1	0.643000
21.316667	1	0.624375
21.333333	1	0.607625
21.350000	1	0.592000
21.366667	1	0.578875
21.383333	1	0.567125
21.400000	1	0.557125
21.416667	1	0.547625
21.433333	1	0.539750
21.450000	1	0.531625
21.466667	1	0.525125
21.483333	1	0.520125
21.500000	1	0.516250
21.516667	1	0.513125
21.533333	1	0.511375
21.550000	1	0.511250
21.566667	1	0.512250
21.583333	1	0.514375
21.600000	1	0.519125
21.616667	1	0.525000
21.633333	1	0.532625
21.650000	1	0.542750
21.666667	1	0.556250
21.683333	1	0.572375
21.700000	1	0.590000
21.716667	1	0.610375
21.733333	1	0.633125
21.750000	1	0.658750
21.766667	1	0.685875
21.783333	1	0.714500
21.800000	1	0.744875
21.816667	1	0.776625
21.833333	1	0.808375
21.850000	1	0.840125
21.866667	1	0.871000
21.883333	1	0.900750
21.900000	1	0.928625
21.916667	1	0.954125
21.933333	1	0.976625
21.950000	1	0.995875
21.966667	1	1.010500
21.983333	1	1.022000
22.000000	1	1.029250
22.016667	1	1.032125
22.033333	1	1.030875
22.050000	1	1.025750
22.066667	1	1.017500
22.083333	1	1.005750
22.100000	1	0.991750
22.116667	1	0.975250
22.133333	1	0.956375
22.150000	1	0.935750
22.166667	1	0.913875
22.183333	1	0.890875
22.200000	1	0.867875
22.216667	1	0.843625
22.233333	1	0.820000
22.250000	1	0.797125
22.266667	1	0.774375
22.283333	1	0.752250
22.300000	1	0.730625
22.316667	1	0.709125
22.333333	1	0.689000
22.350000	1	0.670000
22.366667	1	0.651125
22.383333	1	0.633500
22.400000	1	0.617000
22.416667	1	0.602125
22.433333	1	0.588250
22.450000	1	0.575250
22.466667	1	0.563625
22.483333	1	0.553125
22.500000	1	0.543375
22.516667	1	0.535250
22.533333	1	0.527625
22.550000	1	0.520375
22.566667	1	0.513500
22.583333	1	0.506875
22.600000	1	0.500875
22.616667	1	0.494875
22.633333	1	0.489500
22.650000	1	0.484750
22.666667	1	0.480125
22.683333	1	0.475125
22.700000	1	0.469000
22.716667	1	0.463375
22.733333	1	0.457625
22.750000	1	0.451125
22.766667	1	0.444875
22.783333	1	0.438375
22.800000	1	0.432125
22.816667	1	0.425625
22.833333	1	0.418875
22.850000	1	0.412250
22.866667	1	0.405750
22.883333	1	0.400125
22.900000	1	0.394375
22.916667	1	0.389375
22.933333	1	0.384500
22.950000	1	0.379625
22.966667	1	0.375375
22.983333	1	0.371625
23.000000	1	0.368875
23.016667	1	0.366500
23.033333	1	0.365250
23.050000	1	0.364250
23.066667	1	0.363625
23.083333	1	0.363625
23.100000	1	0.363500
23.116667	1	0.364125
23.133333	1	0.365500
23.150000	1	0.367500
23.166667	1	0.370250
23.183333	1	0.374125
23.200000	1	0.377250
23.216667	1	0.382000
23.233333	1	0.387125
23.250000	1	0.393750
23.266667	1	0.401750
23.283333	1	0.411750
23.300000	1	0.424000
23.316667	1	0.439000
23.333333	1	0.457250
23.350000	1	0.479625
23.366667	1	0.506250
23.383333	1	0.539125
23.400000	1	0.577625
23.416667	1	0.623875
23.433333	1	0.679250
23.450000	1	0.744125
23.466667	1	0.820125
23.483333	1	0.908000
23.500000	1	1.010625
23.516667	1	1.127375
23.533333	1	1.260250
23.550000	1	1.409750
23.566667	1	1.576000
23.583333	1	1.758875
23.600000	1	1.958250
23.616667	1	2.172000
23.633333	1	2.400750
23.650000	1	2.640125
23.666667	1	2.888875
23.683333	1	3.143250
23.700000	1	3.400000
23.716667	1	3.654375
23.733333	1	3.902000
23.750000	1	4.137500
23.766667	1	4.356375
23.783333	1	4.553000
23.800000	1	4.723875
23.816667	1	4.865000
23.833333	1	4.973375
23.850000	1	5.046125
23.866667	1	5.083250
23.883333	1	5.084000
23.900000	1	5.048250
23.916667	1	4.978000
23.933333	1	4.874875
23.950000	1	4.742250
23.966667	1	4.583625
23.983333	1	4.402875
24.000000	1	4.204500
24.016667	1	3.992250
24.033333	1	3.772375
24.050000	1	3.547875
24.066667	1	3.321625
24.083333	1	3.097875
24.100000	1	2.878625
24.116667	1	2.666500
24.133333	1	2.463500
24.150000	1	2.270875
24.166667	1	2.090625
24.183333	1	1.921625
24.200000	1	1.765125
24.216667	1	1.621250
24.233333	1	1.489500
24.250000	1	1.369750
24.266667	1	1.261125
24.283333	1	1.163250
24.300000	1	1.075750
24.316667	1	0.997000
24.333333	1	0.926375
24.350000	1	0.864000
24.366667	1	0.808250
24.383333	1	0.759750
24.400000	1	0.717875
24.416667	1	0.680875
24.433333	1	0.648500
24.450000	1	0.621500
24.466667	1	0.597875
24.483333	1	0.577375
24.500000	1	0.560000
24.516667	1	0.545875
24.533333	1	0.533375
24.550000	1	0.522875
24.566667	1	0.513750
24.583333	1	0.506750
24.600000	1	0.499125
24.616667	1	0.493000
24.633333	1	0.487375
24.650000	1	0.482250
24.666667	1	0.477625
24.683333	1	0.472000
24.700000	1	0.467125
24.716667	1	0.461625
24.733333	1	0.456125
24.750000	1	0.450375
24.766667	1	0.444625
24.783333	1	0.438500
24.800000	1	0.433125
24.816667	1	0.426625
24.833333	1	0.421250
24.850000	1	0.415375
24.866667	1	0.409875
24.883333	1	0.403375
24.900000	1	0.397000
24.916667	1	0.391375
24.933333	1	0.385750
24.950000	1	0.380000
24.966667	1	0.374750
24.983333	1	0.369750
25.000000	1	0.365375
25.016667	1	0.360375
25.033333	1	0.355625
25.050000	1	0.351125
25.066667	1	0.347500
25.083333	1	0.343375
25.100000	1	0.339500
25.116667	1	0.336125
25.133333	1	0.332000
25.150000	1	0.328750
25.166667	1	0.324875
25.183333	1	0.321250
25.200000	1	0.317625
25.216667	1	0.314250
25.233333	1	0.311125
25.250000	1	0.308125
25.266667	1	0.304750
25.283333	1	0.301125
25.300000	1	0.298625
25.316667	1	0.296125
25.333333	1	0.293375
25.350000	1	0.290375
25.366667	1	0.288000
25.383333	1	0.285875
25.400000	1	0.283625
25.416667	1	0.281875
25.433333	1	0.280375
25.450000	1	0.279500
25.466667	1	0.278875
25.483333	1	0.278625
25.500000	1	0.279000
25.516667	1	0.279000
25.533333	1	0.279625
25.550000	1	0.280375
25.566667	1	0.280750
25.583333	1	0.282625
25.600000	1	0.284500
25.616667	1	0.286125
25.633333	1	0.288625
25.650000	1	0.290250
25.666667	1	0.292375
25.683333	1	0.294500
25.700000	1	0.297375
25.716667	1	0.299875
25.733333	1	0.301875
25.750000	1	0.303875
25.766667	1	0.305875
25.783333	1	0.308500
25.800000	1	0.310625
25.816667	1	0.313500
25.833333	1	0.315375
25.850000	1	0.317375
25.866667	1	0.319500
25.883333	1	0.322125
25.900000	1	0.324375
25.916667	1	0.326875
25.933333	1	0.329250
25.950000	1	0.332500
25.966667	1	0.335500
25.983333	1	0.339625
26.000000	1	0.343250
26.016667	1	0.346750
26.033333	1	0.350000
26.050000	1	0.353750
26.066667	1	0.357875
26.083333	1	0.362750
26.100000	1	0.368000
26.116667	1	0.372375
26.133333	1	0.377500
26.150000	1	0.382000
26.166667	1	0.386500
26.183333	1	0.391250
26.200000	1	0.396125
26.216667	1	0.399750
26.233333	1	0.403375
26.250000	1	0.406875
26.266667	1	0.410125
26.283333	1	0.412875
26.300000	1	0.415750
26.316667	1	0.417000
26.333333	1	0.417750
26.350000	1	0.417375
26.366667	1	0.416875
26.383333	1	0.415000
26.400000	1	0.412375
26.416667	1	0.410375
26.433333	1	0.407250
26.450000	1	0.403000
26.466667	1	0.398000
26.483333	1	0.392625
26.500000	1	0.385500
26.516667	1	0.378375
26.533333	1	0.370625
26.550000	1	0.362250
26.566667	1	0.353125
26.583333	1	0.344000
26.600000	1	0.334375
26.616667	1	0.324625
26.633333	1	0.315125
26.650000	1	0.306000
26.666667	1	0.296000
26.683333	1	0.287000
26.700000	1	0.277750
26.716667	1	0.268625
26.733333	1	0.260250
26.750000	1	0.252000
26.766667	1	0.243750
26.783333	1	0.236250
26.800000	1	0.229125
26.816667	1	0.223125
26.833333	1	0.217625
26.850000	1	0.213000
26.866667	1	0.208875
26.883333	1	0.204750
26.900000	1	0.202375
26.916667	1	0.200625
26.933333	1	0.198875
26.950000	1	0.197625
26.966667	1	0.197375
26.983333	1	0.198000
27.000000	1	0.199875
27.016667	1	0.202750
27.033333	1	0.205375
27.050000	1	0.209125
27.066667	1	0.213500
27.083333	1	0.219375
27.100000	1	0.225750
27.116667	1	0.233500
27.133333	1	0.242375
27.150000	1	0.251750
27.166667	1	0.262250
27.183333	1	0.274250
27.200000	1	0.288375
27.216667	1	0.304000
27.233333	1	0.321875
27.250000	1	0.341625
27.266667	1	0.364125
27.283333	1	0.389375
27.300000	1	0.417875
27.316667	1	0.450500
27.333333	1	0.486750
27.350000	1	0.527500
27.366667	1	0.573250
27.383333	1	0.625125
27.400000	1	0.682625
27.416667	1	0.747000
27.433333	1	0.818625
27.450000	1	0.898250
27.466667	1	0.986500
27.483333	1	1.083250
27.500000	1	1.188875
27.516667	1	1.304500
27.533333	1	1.429500
27.550000	1	1.563000
27.566667	1	1.705250
27.583333	1	1.855750
27.600000	1	2.013500
27.616667	1	2.178000
27.633333	1	2.347875
27.650000	1	2.521750
27.666667	1	2.698250
27.683333	1	2.875125
27.700000	1	3.050500
27.716667	1	3.221375
27.733333	1	3.385500
27.750000	1	3.540125
27.766667	1	3.683750
27.783333	1	3.813625
27.800000	1	3.927750
27.816667	1	4.024125
27.833333	1	4.101250
27.850000	1	4.158000
27.866667	1	4.193375
27.883333	1	4.205500
27.900000	1	4.193875
27.916667	1	4.160125
27.933333	1	4.103250
27.950000	1	4.026000
27.966667	1	3.928375
27.983333	1	3.813625
28.000000	1	3.682500
28.016667	1	3.537000
28.033333	1	3.380125
28.050000	1	3.214500
28.066667	1	3.041750
28.083333	1	2.864250
28.100000	1	2.685500
28.116667	1	2.507625
28.133333	1	2.332750
28.150000	1	2.162500
28.166667	1	1.997875
28.183333	1	1.840500
28.200000	1	1.691625
28.216667	1	1.551500
28.233333	1	1.420250
28.250000	1	1.299625
28.266667	1	1.188125
28.283333	1	1.085375
28.300000	1	0.993250
28.316667	1	0.909750
28.333333	1	0.835500
28.350000	1	0.768250
28.366667	1	0.709250
28.383333	1	0.657125
28.400000	1	0.612250
28.416667	1	0.572750
28.433333	1	0.539625
28.450000	1	0.510750
28.466667	1	0.487500
28.483333	1	0.468500
28.500000	1	0.452500
28.516667	1	0.439875
28.533333	1	0.431000
28.550000	1	0.425250
28.566667	1	0.421625
28.583333	1	0.420500
28.600000	1	0.420875
28.616667	1	0.423000
28.633333	1	0.427000
28.650000	1	0.432500
28.666667	1	0.439375
28.683333	1	0.446750
28.700000	1	0.454125
28.716667	1	0.461875
28.733333	1	0.469500
28.750000	1	0.478250
28.766667	1	0.486750
28.783333	1	0.494625
28.800000	1	0.502000
28.816667	1	0.509625
28.833333	1	0.516375
28.850000	1	0.522000
28.866667	1	0.527750
28.883333	1	0.532000
28.900000	1	0.534875
28.916667	1	0.537125
28.933333	1	0.537750
28.950000	1	0.537250
28.966667	1	0.535375
28.983333	1	0.532250
29.000000	1	0.527875
29.016667	1	0.521625
29.033333	1	0.514375
29.050000	1	0.504750
29.066667	1	0.493500
29.083333	1	0.479625
29.100000	1	0.465125
29.116667	1	0.448375
29.133333	1	0.429500
29.150000	1	0.409250
29.166667	1	0.387250
29.183333	1	0.363875
29.200000	1	0.338375
29.216667	1	0.310500
29.233333	1	0.280875
29.250000	1	0.249125
29.266667	1	0.215250
29.283333	1	0.179000
29.300000	1	0.140875
29.316667	1	0.101250
29.333333	1	0.059375
29.350000	1	0.016625
29.366667	1	-0.028000
29.383333	1	-0.075125
29.400000	1	-0.122875
29.416667	1	-0.172125
29.433333	1	-0.221625
29.450000	1	-0.272375
29.466667	1	-0.324000
29.483333	1	-0.376000
29.500000	1	-0.427375
29.516667	1	-0.478125
29.533333	1	-0.528875
29.550000	1	-0.578000
29.566667	1	-0.626375
29.583333	1	-0.671625
29.600000	1	-0.715000
29.616667	1	-0.755250
29.633333	1	-0.793000
29.650000	1	-0.827750
29.666667	1	-0.858125
29.683333	1	-0.884875
29.700000	1	-0.907500
29.716667	1	-0.926250
29.733333	1	-0.939500
29.750000	1	-0.949000
29.766667	1	-0.953375
29.783333	1	-0.953250
29.800000	1	-0.949375
29.816667	1	-0.941000
29.833333	1	-0.929000
29.850000	1	-0.912500
29.866667	1	-0.892000
29.883333	1	-0.868625
29.900000	1	-0.842500
29.916667	1	-0.813250
29.933333	1	-0.782250
29.950000	1	-0.748750
29.966667	1	-0.713875
29.983333	1	-0.678000
30.000000	1	-0.640125
30.016667	1	-0.602250
30.033333	1	-0.564625
30.050000	1	-0.527000
30.066667	1	-0.489375
30.083333	1	-0.452000
30.100000	1	-0.415875
30.116667	1	-0.380875
30.133333	1	-0.347125
30.150000	1	-0.314250
30.166667	1	-0.282250
30.183333	1	-0.251625
30.200000	1	-0.223000
30.216667	1	-0.195875
30.233333	1	-0.170250
30.250000	1	-0.145875
30.266667	1	-0.123375
30.283333	1	-0.102500
30.300000	1	-0.083125
30.316667	1	-0.064625
30.333333	1	-0.048125
30.350000	1	-0.032750
30.366667	1	-0.018125
30.383333	1	-0.005250
30.400000	1	0.006625
30.416667	1	0.017875
30.433333	1	0.028125
30.450000	1	0.037625
30.466667	1	0.046500
30.483333	1	0.054250
30.500000	1	0.061500
30.516667	1	0.068750
30.533333	1	0.075250
30.550000	1	0.081750
30.566667	1	0.088375
30.583333	1	0.095250
30.600000	1	0.102000
30.616667	1	0.108000
30.633333	1	0.114000
30.650000	1	0.120500
30.666667	1	0.127750
30.683333	1	0.135500
30.700000	1	0.143250
30.716667	1	0.151500
30.733333	1	0.159875
30.750000	1	0.170000
30.766667	1	0.181000
30.783333	1	0.192500
30.800000	1	0.204125
30.816667	1	0.216750
30.833333	1	0.230250
30.850000	1	0.245375
30.866667	1	0.261500
30.883333	1	0.278750
30.900000	1	0.297750
30.916667	1	0.318500
30.933333	1	0.341625
30.950000	1	0.366000
30.966667	1	0.394000
30.983333	1	0.424625
31.000000	1	0.459125
31.016667	1	0.496500
31.033333	1	0.538625
31.050000	1	0.585375
31.066667	1	0.637625
31.083333	1	0.695000
31.100000	1	0.759250
31.116667	1	0.830125
31.133333	1	0.908250
31.150000	1	0.994125
31.166667	1	1.088625
31.183333	1	1.190875
31.200000	1	1.303000
31.216667	1	1.423500
31.233333	1	1.552750
31.250000	1	1.691750
31.266667	1	1.839625
31.283333	1	1.995125
31.300000	1	2.157750
31.316667	1	2.327000
31.333333	1	2.501125
31.350000	1	2.679875
31.366667	1	2.861125
31.383333	1	3.044625
31.400000	1	3.227625
31.416667	1	3.409125
31.433333	1	3.586125
31.450000	1	3.756875
31.466667	1	3.919500
31.483333	1	4.071625
31.500000	1	4.211625
31.516667	1	4.338375
31.533333	1	4.449375
31.550000	1	4.543125
31.566667	1	4.619375
31.583333	1	4.676500
31.600000	1	4.714125
31.616667	1	4.730875
31.633333	1	4.727875
31.650000	1	4.704625
31.666667	1	4.661750
31.683333	1	4.599750
31.700000	1	4.520375
31.716667	1	4.424375
31.733333	1	4.313625
31.750000	1	4.188625
31.766667	1	4.052375
31.783333	1	3.905375
31.800000	1	3.750125
31.816667	1	3.587500
31.833333	1	3.420500
31.850000	1	3.250000
31.866667	1	3.078250
31.883333	1	2.905750
31.900000	1	2.735500
31.916667	1	2.566750
31.933333	1	2.402875
31.950000	1	2.243625
31.966667	1	2.089250
31.983333	1	1.940250
32.000000	1	1.797625
32.016667	1	1.661625
32.033333	1	1.532750
32.050000	1	1.411500
32.066667	1	1.297250
32.083333	1	1.189875
32.100000	1	1.088875
32.116667	1	0.994750
32.133333	1	0.908625
32.150000	1	0.828375
32.166667	1	0.754125
32.183333	1	0.685375
32.200000	1	0.620875
32.216667	1	0.562500
32.233333	1	0.507750
32.250000	1	0.458875
32.266667	1	0.413250
32.283333	1	0.372250
32.300000	1	0.334625
32.316667	1	0.300500
32.333333	1	0.269125
32.350000	1	0.240375
32.366667	1	0.216000
32.383333	1	0.192375
32.400000	1	0.171750
32.416667	1	0.152750
32.433333	1	0.135500
32.450000	1	0.120250
32.466667	1	0.106125
32.483333	1	0.094000
32.500000	1	0.083250
32.516667	1	0.073500
32.533333	1	0.065250
32.550000	1	0.057375
32.566667	1	0.051500
32.583333	1	0.045375
32.600000	1	0.040125
32.616667	1	0.035750
32.633333	1	0.031500
32.650000	1	0.028500
32.666667	1	0.026125
32.683333	1	0.024375
32.700000	1	0.022250
32.716667	1	0.021000
32.733333	1	0.019500
32.750000	1	0.019125
32.766667	1	0.018375
32.783333	1	0.017875
32.800000	1	0.017625
32.816667	1	0.017875
32.833333	1	0.018375
32.850000	1	0.019125
32.866667	1	0.019000
32.883333	1	0.019375
32.900000	1	0.020125
32.916667	1	0.020625
32.933333	1	0.021250
32.950000	1	0.021750
32.966667	1	0.021875
32.983333	1	0.022250
33.000000	1	0.023250
33.016667	1	0.022875
33.033333	1	0.023000
33.050000	1	0.022500
33.066667	1	0.022500
33.083333	1	0.022500
33.100000	1	0.022125
33.116667	1	0.022000
33.133333	1	0.021750
33.150000	1	0.021500
33.166667	1	0.021375
33.183333	1	0.020625
33.200000	1	0.020500
33.216667	1	0.020000
33.233333	1	0.019750
33.250000	1	0.019250
33.266667	1	0.019625
33.283333	1	0.018750
33.300000	1	0.018000
33.316667	1	0.018125
33.333333	1	0.018250
33.350000	1	0.019125
33.366667	1	0.019125
33.383333	1	0.019375
33.400000	1	0.019875
33.416667	1	0.020125
33.433333	1	0.020125
33.450000	1	0.021250
33.466667	1	0.022500
33.483333	1	0.023250
33.500000	1	0.024000
33.516667	1	0.025375
33.533333	1	0.027000
33.550000	1	0.028750
33.566667	1	0.029875
33.583333	1	0.032000
33.600000	1	0.033500
33.616667	1	0.035125
33.633333	1	0.037125
33.650000	1	0.038500
33.666667	1	0.039875
33.683333	1	0.042500
33.700000	1	0.043875
33.716667	1	0.045875
33.733333	1	0.047375
33.750000	1	0.048625
33.766667	1	0.050500
33.783333	1	0.052250
33.800000	1	0.054125
33.816667	1	0.055625
33.833333	1	0.057000
33.850000	1	0.057875
33.866667	1	0.059750
33.883333	1	0.060750
33.900000	1	0.062750
33.916667	1	0.064625
33.933333	1	0.066625
33.950000	1	0.068375
33.966667	1	0.070250
33.983333	1	0.072500
34.000000	1	0.074750
34.016667	1	0.077375
34.033333	1	0.079625
34.050000	1	0.081625
34.066667	1	0.084000
34.083333	1	0.086375
34.100000	1	0.088750
34.116667	1	0.090625
34.133333	1	0.092750
34.150000	1	0.094625
34.166667	1	0.097000
34.183333	1	0.100000
34.200000	1	0.101625
34.216667	1	0.103250
34.233333	1	0.105000
34.250000	1	0.106875
34.266667	1	0.108625
34.283333	1	0.109625
34.300000	1	0.111000
34.316667	1	0.112625
34.333333	1	0.113375
34.350000	1	0.114125
34.366667	1	0.115125
34.383333	1	0.116000
34.400000	1	0.117250
34.416667	1	0.118250
34.433333	1	0.118375
34.450000	1	0.118750
34.466667	1	0.119125
34.483333	1	0.119125
34.500000	1	0.119375
34.516667	1	0.119375
34.533333	1	0.119000
34.550000	1	0.119375
34.566667	1	0.119750
34.583333	1	0.119875
34.600000	1	0.120000
34.616667	1	0.119500
34.633333	1	0.119375
34.650000	1	0.119500
34.666667	1	0.120000
34.683333	1	0.119875
34.700000	1	0.119875
34.716667	1	0.119500
34.733333	1	0.119500
34.750000	1	0.119875
34.766667	1	0.120750
34.783333	1	0.120375
34.800000	1	0.120250
34.816667	1	0.120625
34.833333	1	0.121250
34.850000	1	0.122000
34.866667	1	0.121750
34.883333	1	0.121750
34.900000	1	0.121625
34.916667	1	0.121375
34.933333	1	0.121000
34.950000	1	0.120875
34.966667	1	0.120000
34.983333	1	0.119375
35.000000	1	0.118625
35.016667	1	0.117375
35.033333	1	0.116250
35.050000	1	0.115500
35.066667	1	0.114250
35.083333	1	0.112500
35.100000	1	0.112000
35.116667	1	0.111250
35.133333	1	0.110375
35.150000	1	0.109625
35.166667	1	0.109000
35.183333	1	0.108750
35.200000	1	0.107875
35.216667	1	0.106625
35.233333	1	0.106375
35.250000	1	0.105625
35.266667	1	0.105000
35.283333	1	0.104625
35.300000	1	0.105125
35.316667	1	0.105250
35.333333	1	0.105250
35.350000	1	0.105000
35.366667	1	0.105000
35.383333	1	0.104750
35.400000	1	0.104625
35.416667	1	0.105250
35.433333	1	0.106000
35.450000	1	0.105750
35.466667	1	0.104625
35.483333	1	0.104875
35.500000	1	0.105500
35.516667	1	0.106250
35.533333	1	0.106000
35.550000	1	0.105250
35.566667	1	0.105750
35.583333	1	0.105625
35.600000	1	0.105500
35.616667	1	0.105625
35.633333	1	0.105625
35.650000	1	0.104750
35.666667	1	0.104000
35.683333	1	0.104000
35.700000	1	0.103625
35.716667	1	0.103000
35.733333	1	0.101125
35.750000	1	0.100500
35.766667	1	0.099500
35.783333	1	0.098500
35.800000	1	0.096875
35.816667	1	0.094875
35.833333	1	0.093125
35.850000	1	0.090875
35.866667	1	0.088500
35.883333	1	0.086750
35.900000	1	0.084125
35.916667	1	0.081750
35.933333	1	0.080000
35.950000	1	0.077375
35.966667	1	0.075625
35.983333	1	0.073000
36.000000	1	0.070875
36.016667	1	0.067625
36.033333	1	0.064750
36.050000	1	0.062125
36.066667	1	0.060000
36.083333	1	0.057500
36.100000	1	0.056125
36.116667	1	0.054375
36.133333	1	0.052125
36.150000	1	0.050375
36.166667	1	0.049125
36.183333	1	0.048250
36.200000	1	0.048125
36.216667	1	0.047625
36.233333	1	0.047500
36.250000	1	0.047500
36.266667	1	0.047125
36.283333	1	0.048000
36.300000	1	0.048375
36.316667	1	0.050250
36.333333	1	0.051375
36.350000	1	0.053125
36.366667	1	0.054875
36.383333	1	0.057375
36.400000	1	0.060125
36.416667	1	0.062500
36.433333	1	0.064125
36.450000	1	0.066250
36.466667	1	0.068500
36.483333	1	0.070750
36.500000	1	0.073375
36.516667	1	0.075750
36.533333	1	0.077250
36.550000	1	0.079250
36.566667	1	0.081000
36.583333	1	0.082250
36.600000	1	0.082875
36.616667	1	0.084250
36.633333	1	0.085750
36.650000	1	0.085875
36.666667	1	0.086375
36.683333	1	0.086250
36.700000	1	0.086625
36.716667	1	0.085750
36.733333	1	0.086000
36.750000	1	0.085625
36.766667	1	0.084625
36.783333	1	0.084375
36.800000	1	0.083000
36.816667	1	0.081250
36.833333	1	0.080125
36.850000	1	0.079250
36.866667	1	0.078250
36.883333	1	0.076875
36.900000	1	0.075125
36.916667	1	0.073000
36.933333	1	0.071125
36.950000	1	0.069375
36.966667	1	0.066875
36.983333	1	0.065875
37.000000	1	0.064125
37.016667	1	0.062000
37.033333	1	0.059500
37.050000	1	0.057500
37.066667	1	0.054500
37.083333	1	0.052500
37.100000	1	0.049875
37.116667	1	0.048250
37.133333	1	0.046000
37.150000	1	0.043750
37.166667	1	0.041500
37.183333	1	0.039000
37.200000	1	0.036500
37.216667	1	0.034375
37.233333	1	0.032500
37.250000	1	0.030375
37.266667	1	0.028625
37.283333	1	0.027125
37.300000	1	0.024875
37.316667	1	0.022875
37.333333	1	0.021500
37.350000	1	0.020125
37.366667	1	0.019125
37.383333	1	0.018125
37.400000	1	0.017625
37.416667	1	0.017375
37.433333	1	0.017250
37.450000	1	0.017000
37.466667	1	0.016750
37.483333	1	0.016625
37.500000	1	0.017625
37.516667	1	0.017875
37.533333	1	0.019250
37.550000	1	0.019750
37.566667	1	0.021375
37.583333	1	0.022625
37.600000	1	0.024375
37.616667	1	0.025500
37.633333	1	0.026375
37.650000	1	0.027500
37.666667	1	0.028500
37.683333	1	0.030125
37.700000	1	0.031500
37.716667	1	0.033375
37.733333	1	0.034375
37.750000	1	0.034875
37.766667	1	0.035875
37.783333	1	0.036750
37.800000	1	0.037250
37.816667	1	0.037625
37.833333	1	0.037500
37.850000	1	0.037750
37.866667	1	0.037500
37.883333	1	0.037500
37.900000	1	0.037250
37.916667	1	0.037250
37.933333	1	0.036375
37.950000	1	0.035625
37.966667	1	0.035000
37.983333	1	0.034375
38.000000	1	0.033375
38.016667	1	0.032000
38.033333	1	0.031125
38.050000	1	0.029875
38.066667	1	0.028625
38.083333	1	0.027375
38.100000	1	0.026250
38.116667	1	0.025500
38.133333	1	0.024125
38.150000	1	0.023625
38.166667	1	0.023125
38.183333	1	0.021875
38.200000	1	0.021125
38.216667	1	0.020125
38.233333	1	0.019500
38.250000	1	0.019125
38.266667	1	0.018625
38.283333	1	0.018000
38.300000	1	0.017750
38.316667	1	0.017875
38.333333	1	0.017750
38.350000	1	0.017500
38.366667	1	0.017375
38.383333	1	0.017375
38.400000	1	0.017125
38.416667	1	0.016750
38.433333	1	0.016000
38.450000	1	0.015875
38.466667	1	0.015625
38.483333	1	0.015250
38.500000	1	0.014625
38.516667	1	0.014500
38.533333	1	0.013625
38.550000	1	0.012625
38.566667	1	0.011500
38.583333	1	0.010750
38.600000	1	0.009125
38.616667	1	0.008625
38.633333	1	0.007750
38.650000	1	0.006750
38.666667	1	0.005875
38.683333	1	0.004500
38.700000	1	0.003375
38.716667	1	0.002500
38.733333	1	0.001625
38.750000	1	0.001000
38.766667	1	0.000375
38.783333	1	-0.000625
38.800000	1	-0.001125
38.816667	1	-0.001875
38.833333	1	-0.001875
38.850000	1	-0.002500
38.866667	1	-0.002375
38.883333	1	-0.002250
38.900000	1	-0.002125
38.916667	1	-0.002375
38.933333	1	-0.001875
38.950000	1	-0.002000
38.966667	1	-0.001750
38.983333	1	-0.001875
39.000000	1	-0.002125
39.016667	1	-0.002125
39.033333	1	-0.001875
39.050000	1	-0.001625
39.066667	1	-0.001375
39.083333	1	-0.001375
39.100000	1	-0.001625
39.116667	1	-0.001625
39.133333	1	-0.001375
39.150000	1	-0.001875
39.166667	1	-0.002625
39.183333	1	-0.003500
39.200000	1	-0.004000
39.216667	1	-0.004375
39.233333	1	-0.004500
39.250000	1	-0.004500
39.266667	1	-0.005375
39.283333	1	-0.005750
39.300000	1	-0.005625
39.316667	1	-0.005750
39.333333	1	-0.005750
39.350000	1	-0.005875
39.366667	1	-0.006000
39.383333	1	-0.006875
39.400000	1	-0.006750
39.416667	1	-0.006625
39.433333	1	-0.006250
39.450000	1	-0.005875
39.466667	1	-0.005375
39.483333	1	-0.004875
39.500000	1	-0.005000
39.516667	1	-0.005375
39.533333	1	-0.005875
39.550000	1	-0.005750
39.566667	1	-0.006625
39.583333	1	-0.006875
39.600000	1	-0.005750
39.616667	1	-0.006250
39.633333	1	-0.006875
39.650000	1	-0.007125
39.666667	1	-0.006875
39.683333	1	-0.007875
39.700000	1	-0.008000
39.716667	1	-0.008375
39.733333	1	-0.008375
39.750000	1	-0.008000
39.766667	1	-0.008250
39.783333	1	-0.008500
39.800000	1	-0.008375
39.816667	1	-0.007875
39.833333	1	-0.007250
39.850000	1	-0.006500
39.866667	1	-0.005375
39.883333	1	-0.003625
39.900000	1	-0.002250
39.916667	1	-0.000750
39.933333	1	0.001250
39.950000	1	0.003500
39.966667	1	0.005625
39.983333	1	0.007625
40.000000	1	0.010125
