URL	chrom://bioreactor/micro_cm7/HPLC_Ultimate_3000/Users/markusar/20240517_CMO_FP23_FP25_MarkusDeplate.seq/827.smp/RI_1.channel/RI_1.chm
Channel	RI_1

Injection Information:
Data Vault	micro_cm7
Sequence	20240517_CMO_FP23_FP25_MarkusDeplate
Name	FP28_22.1_s4
Number	139
Position	BA5
Comment	
Processing Method	
Instrument Method	run_25B_method
Type	Unknown
Status	Finished
Inject Time	31.05.2024 18:02:37 +02:00
Volume (µl)	20.0000
Dilution Factor	1.0000
Weight	1.0000

Chromatogram Data Information:
Time Min. (min)	0.000000
Time Max. (min)	40.000000
Data Points	2401
Detector	RI
Generating Data System	Chromeleon 7.3.2.11814
Exporting Data System	Chromeleon 7.3.2.0
Operator	Instrument Controller
Signal Quantity	Refractive 
Signal Unit	µRIU
Signal Min.	-1.279750
Signal Max.	51.053500
Channel	RI_1
Driver Name	RID520Driver.dll
Channel Type	Evaluation
Min. Step (s)	1
Max. Step (s)	1
Average Step (s)	1

Signal Parameter Information:
Signal Info	

Chromatogram Data:
Time (min)	Step (s)	Value (µRIU)
0.000000	n.a.	-0.049625
0.016667	1	-0.047125
0.033333	1	-0.044250
0.050000	1	-0.041750
0.066667	1	-0.038500
0.083333	1	-0.035250
0.100000	1	-0.032000
0.116667	1	-0.028875
0.133333	1	-0.026000
0.150000	1	-0.023375
0.166667	1	-0.020625
0.183333	1	-0.017875
0.200000	1	-0.015375
0.216667	1	-0.012625
0.233333	1	-0.010125
0.250000	1	-0.008125
0.266667	1	-0.006000
0.283333	1	-0.003750
0.300000	1	-0.002000
0.316667	1	-0.001125
0.333333	1	0.000250
0.350000	1	0.001500
0.366667	1	0.002250
0.383333	1	0.003125
0.400000	1	0.003625
0.416667	1	0.004625
0.433333	1	0.004875
0.450000	1	0.005375
0.466667	1	0.005375
0.483333	1	0.005250
0.500000	1	0.005375
0.516667	1	0.005750
0.533333	1	0.005500
0.550000	1	0.005375
0.566667	1	0.004875
0.583333	1	0.004375
0.600000	1	0.004000
0.616667	1	0.003625
0.633333	1	0.003750
0.650000	1	0.004125
0.666667	1	0.004250
0.683333	1	0.004000
0.700000	1	0.004125
0.716667	1	0.004625
0.733333	1	0.005125
0.750000	1	0.005750
0.766667	1	0.005875
0.783333	1	0.006500
0.800000	1	0.006875
0.816667	1	0.008125
0.833333	1	0.008500
0.850000	1	0.009000
0.866667	1	0.010125
0.883333	1	0.010375
0.900000	1	0.011250
0.916667	1	0.011875
0.933333	1	0.012625
0.950000	1	0.013375
0.966667	1	0.013500
0.983333	1	0.014375
1.000000	1	0.015125
1.016667	1	0.016250
1.033333	1	0.017375
1.050000	1	0.018000
1.066667	1	0.018125
1.083333	1	0.018875
1.100000	1	0.018875
1.116667	1	0.018875
1.133333	1	0.019000
1.150000	1	0.018500
1.166667	1	0.018250
1.183333	1	0.017875
1.200000	1	0.017250
1.216667	1	0.017125
1.233333	1	0.016625
1.250000	1	0.015625
1.266667	1	0.014750
1.283333	1	0.014125
1.300000	1	0.013375
1.316667	1	0.012125
1.333333	1	0.011375
1.350000	1	0.010000
1.366667	1	0.008625
1.383333	1	0.006625
1.400000	1	0.004500
1.416667	1	0.003750
1.433333	1	0.002750
1.450000	1	0.001625
1.466667	1	0.000125
1.483333	1	-0.001250
1.500000	1	-0.002500
1.516667	1	-0.004250
1.533333	1	-0.005250
1.550000	1	-0.006875
1.566667	1	-0.008000
1.583333	1	-0.008875
1.600000	1	-0.011000
1.616667	1	-0.012250
1.633333	1	-0.013500
1.650000	1	-0.014750
1.666667	1	-0.016125
1.683333	1	-0.016625
1.700000	1	-0.018250
1.716667	1	-0.019500
1.733333	1	-0.020875
1.750000	1	-0.022125
1.766667	1	-0.023125
1.783333	1	-0.023500
1.800000	1	-0.024125
1.816667	1	-0.024875
1.833333	1	-0.026000
1.850000	1	-0.026500
1.866667	1	-0.026625
1.883333	1	-0.026750
1.900000	1	-0.027375
1.916667	1	-0.027750
1.933333	1	-0.028375
1.950000	1	-0.029250
1.966667	1	-0.029625
1.983333	1	-0.029875
2.000000	1	-0.030125
2.016667	1	-0.030875
2.033333	1	-0.030375
2.050000	1	-0.030500
2.066667	1	-0.030375
2.083333	1	-0.029750
2.100000	1	-0.029000
2.116667	1	-0.028625
2.133333	1	-0.027875
2.150000	1	-0.027625
2.166667	1	-0.028000
2.183333	1	-0.027875
2.200000	1	-0.027875
2.216667	1	-0.027375
2.233333	1	-0.027125
2.250000	1	-0.027125
2.266667	1	-0.026625
2.283333	1	-0.025750
2.300000	1	-0.025250
2.316667	1	-0.025500
2.333333	1	-0.025250
2.350000	1	-0.025250
2.366667	1	-0.025250
2.383333	1	-0.025125
2.400000	1	-0.025375
2.416667	1	-0.025625
2.433333	1	-0.025500
2.450000	1	-0.025250
2.466667	1	-0.024875
2.483333	1	-0.024875
2.500000	1	-0.024375
2.516667	1	-0.025000
2.533333	1	-0.025375
2.550000	1	-0.025375
2.566667	1	-0.025625
2.583333	1	-0.025125
2.600000	1	-0.025250
2.616667	1	-0.025625
2.633333	1	-0.025500
2.650000	1	-0.025500
2.666667	1	-0.024750
2.683333	1	-0.024625
2.700000	1	-0.023500
2.716667	1	-0.022875
2.733333	1	-0.022750
2.750000	1	-0.022375
2.766667	1	-0.022250
2.783333	1	-0.022125
2.800000	1	-0.020875
2.816667	1	-0.020625
2.833333	1	-0.019750
2.850000	1	-0.019000
2.866667	1	-0.018625
2.883333	1	-0.017875
2.900000	1	-0.017875
2.916667	1	-0.017750
2.933333	1	-0.017500
2.950000	1	-0.017375
2.966667	1	-0.017250
2.983333	1	-0.016750
3.000000	1	-0.016875
3.016667	1	-0.017375
3.033333	1	-0.017000
3.050000	1	-0.016125
3.066667	1	-0.015750
3.083333	1	-0.015375
3.100000	1	-0.016000
3.116667	1	-0.015750
3.133333	1	-0.015875
3.150000	1	-0.015250
3.166667	1	-0.015000
3.183333	1	-0.014250
3.200000	1	-0.013750
3.216667	1	-0.012625
3.233333	1	-0.011500
3.250000	1	-0.010625
3.266667	1	-0.009750
3.283333	1	-0.007625
3.300000	1	-0.006125
3.316667	1	-0.004250
3.333333	1	-0.003250
3.350000	1	-0.001750
3.366667	1	0.000000
3.383333	1	0.001750
3.400000	1	0.004000
3.416667	1	0.006250
3.433333	1	0.008500
3.450000	1	0.010875
3.466667	1	0.013125
3.483333	1	0.015125
3.500000	1	0.018000
3.516667	1	0.020250
3.533333	1	0.022250
3.550000	1	0.024500
3.566667	1	0.026875
3.583333	1	0.029625
3.600000	1	0.032625
3.616667	1	0.035125
3.633333	1	0.037875
3.650000	1	0.040125
3.666667	1	0.042375
3.683333	1	0.045250
3.700000	1	0.047250
3.716667	1	0.049875
3.733333	1	0.052500
3.750000	1	0.055000
3.766667	1	0.057375
3.783333	1	0.058625
3.800000	1	0.060375
3.816667	1	0.062750
3.833333	1	0.065125
3.850000	1	0.067000
3.866667	1	0.068500
3.883333	1	0.070500
3.900000	1	0.071250
3.916667	1	0.072375
3.933333	1	0.073625
3.950000	1	0.074500
3.966667	1	0.075500
3.983333	1	0.076000
4.000000	1	0.076750
4.016667	1	0.077750
4.033333	1	0.078625
4.050000	1	0.079375
4.066667	1	0.079750
4.083333	1	0.080250
4.100000	1	0.081125
4.116667	1	0.080625
4.133333	1	0.081625
4.150000	1	0.081500
4.166667	1	0.081250
4.183333	1	0.081500
4.200000	1	0.081750
4.216667	1	0.081875
4.233333	1	0.081625
4.250000	1	0.081750
4.266667	1	0.081500
4.283333	1	0.081875
4.300000	1	0.082000
4.316667	1	0.082250
4.333333	1	0.082125
4.350000	1	0.082125
4.366667	1	0.082000
4.383333	1	0.082125
4.400000	1	0.081750
4.416667	1	0.082000
4.433333	1	0.081750
4.450000	1	0.082000
4.466667	1	0.081750
4.483333	1	0.082250
4.500000	1	0.082250
4.516667	1	0.081875
4.533333	1	0.081625
4.550000	1	0.081750
4.566667	1	0.082250
4.583333	1	0.082375
4.600000	1	0.081625
4.616667	1	0.081875
4.633333	1	0.082125
4.650000	1	0.082500
4.666667	1	0.082625
4.683333	1	0.082500
4.700000	1	0.082000
4.716667	1	0.082250
4.733333	1	0.082875
4.750000	1	0.083625
4.766667	1	0.084000
4.783333	1	0.084625
4.800000	1	0.085500
4.816667	1	0.086500
4.833333	1	0.088000
4.850000	1	0.088875
4.866667	1	0.090375
4.883333	1	0.091500
4.900000	1	0.092750
4.916667	1	0.095000
4.933333	1	0.096875
4.950000	1	0.099000
4.966667	1	0.102125
4.983333	1	0.104625
5.000000	1	0.107500
5.016667	1	0.110250
5.033333	1	0.114250
5.050000	1	0.118625
5.066667	1	0.121500
5.083333	1	0.125125
5.100000	1	0.129000
5.116667	1	0.132875
5.133333	1	0.136750
5.150000	1	0.140875
5.166667	1	0.144750
5.183333	1	0.149625
5.200000	1	0.153750
5.216667	1	0.158375
5.233333	1	0.161875
5.250000	1	0.166125
5.266667	1	0.170125
5.283333	1	0.174875
5.300000	1	0.179000
5.316667	1	0.183500
5.333333	1	0.187750
5.350000	1	0.192250
5.366667	1	0.197125
5.383333	1	0.201125
5.400000	1	0.206125
5.416667	1	0.211000
5.433333	1	0.215125
5.450000	1	0.219625
5.466667	1	0.224500
5.483333	1	0.228500
5.500000	1	0.233375
5.516667	1	0.238375
5.533333	1	0.242625
5.550000	1	0.246750
5.566667	1	0.251875
5.583333	1	0.256750
5.600000	1	0.261250
5.616667	1	0.265500
5.633333	1	0.270000
5.650000	1	0.274875
5.666667	1	0.279125
5.683333	1	0.282875
5.700000	1	0.286250
5.716667	1	0.288875
5.733333	1	0.291875
5.750000	1	0.294125
5.766667	1	0.296500
5.783333	1	0.298750
5.800000	1	0.300500
5.816667	1	0.301250
5.833333	1	0.301750
5.850000	1	0.302000
5.866667	1	0.301375
5.883333	1	0.300375
5.900000	1	0.298750
5.916667	1	0.296500
5.933333	1	0.294125
5.950000	1	0.291375
5.966667	1	0.288375
5.983333	1	0.284625
6.000000	1	0.280875
6.016667	1	0.277125
6.033333	1	0.273125
6.050000	1	0.268125
6.066667	1	0.263250
6.083333	1	0.257875
6.100000	1	0.252750
6.116667	1	0.248250
6.133333	1	0.242875
6.150000	1	0.238125
6.166667	1	0.233250
6.183333	1	0.228500
6.200000	1	0.223750
6.216667	1	0.218625
6.233333	1	0.214250
6.250000	1	0.209750
6.266667	1	0.204750
6.283333	1	0.199625
6.300000	1	0.195625
6.316667	1	0.191500
6.333333	1	0.187125
6.350000	1	0.184000
6.366667	1	0.180000
6.383333	1	0.176125
6.400000	1	0.172500
6.416667	1	0.169125
6.433333	1	0.165750
6.450000	1	0.162500
6.466667	1	0.159375
6.483333	1	0.156000
6.500000	1	0.152500
6.516667	1	0.149875
6.533333	1	0.147125
6.550000	1	0.145000
6.566667	1	0.142000
6.583333	1	0.139500
6.600000	1	0.137125
6.616667	1	0.135000
6.633333	1	0.132625
6.650000	1	0.129875
6.666667	1	0.128250
6.683333	1	0.126875
6.700000	1	0.125500
6.716667	1	0.123375
6.733333	1	0.122250
6.750000	1	0.121500
6.766667	1	0.120375
6.783333	1	0.119375
6.800000	1	0.117875
6.816667	1	0.117000
6.833333	1	0.117125
6.850000	1	0.116375
6.866667	1	0.116875
6.883333	1	0.116500
6.900000	1	0.116500
6.916667	1	0.115875
6.933333	1	0.116250
6.950000	1	0.116625
6.966667	1	0.116875
6.983333	1	0.116750
7.000000	1	0.117250
7.016667	1	0.117875
7.033333	1	0.118125
7.050000	1	0.117875
7.066667	1	0.118625
7.083333	1	0.119375
7.100000	1	0.120125
7.116667	1	0.120250
7.133333	1	0.120875
7.150000	1	0.121500
7.166667	1	0.121875
7.183333	1	0.122125
7.200000	1	0.122750
7.216667	1	0.123750
7.233333	1	0.124750
7.250000	1	0.126375
7.266667	1	0.127625
7.283333	1	0.129125
7.300000	1	0.130125
7.316667	1	0.132000
7.333333	1	0.133875
7.350000	1	0.135625
7.366667	1	0.138000
7.383333	1	0.140125
7.400000	1	0.141750
7.416667	1	0.144250
7.433333	1	0.146375
7.450000	1	0.147750
7.466667	1	0.150375
7.483333	1	0.152750
7.500000	1	0.154625
7.516667	1	0.156250
7.533333	1	0.159000
7.550000	1	0.160750
7.566667	1	0.162375
7.583333	1	0.163625
7.600000	1	0.164625
7.616667	1	0.165750
7.633333	1	0.166250
7.650000	1	0.166125
7.666667	1	0.166500
7.683333	1	0.165875
7.700000	1	0.165750
7.716667	1	0.165000
7.733333	1	0.164250
7.750000	1	0.162750
7.766667	1	0.161875
7.783333	1	0.159875
7.800000	1	0.158000
7.816667	1	0.155875
7.833333	1	0.153500
7.850000	1	0.151375
7.866667	1	0.148750
7.883333	1	0.145750
7.900000	1	0.143500
7.916667	1	0.140500
7.933333	1	0.137375
7.950000	1	0.134875
7.966667	1	0.132500
7.983333	1	0.130000
8.000000	1	0.127125
8.016667	1	0.124125
8.033333	1	0.121375
8.050000	1	0.119500
8.066667	1	0.117000
8.083333	1	0.114625
8.100000	1	0.111750
8.116667	1	0.109250
8.133333	1	0.107250
8.150000	1	0.105250
8.166667	1	0.104125
8.183333	1	0.102625
8.200000	1	0.101375
8.216667	1	0.099875
8.233333	1	0.098625
8.250000	1	0.097125
8.266667	1	0.095500
8.283333	1	0.094375
8.300000	1	0.093125
8.316667	1	0.091375
8.333333	1	0.090750
8.350000	1	0.090000
8.366667	1	0.089375
8.383333	1	0.088375
8.400000	1	0.086875
8.416667	1	0.086125
8.433333	1	0.085375
8.450000	1	0.083875
8.466667	1	0.082125
8.483333	1	0.080625
8.500000	1	0.079125
8.516667	1	0.077625
8.533333	1	0.076125
8.550000	1	0.074625
8.566667	1	0.073250
8.583333	1	0.072250
8.600000	1	0.071375
8.616667	1	0.070375
8.633333	1	0.069000
8.650000	1	0.068250
8.666667	1	0.067375
8.683333	1	0.067000
8.700000	1	0.066375
8.716667	1	0.066000
8.733333	1	0.065625
8.750000	1	0.065500
8.766667	1	0.066000
8.783333	1	0.066125
8.800000	1	0.065750
8.816667	1	0.065500
8.833333	1	0.065250
8.850000	1	0.065250
8.866667	1	0.065000
8.883333	1	0.065250
8.900000	1	0.065000
8.916667	1	0.065000
8.933333	1	0.065500
8.950000	1	0.065875
8.966667	1	0.066000
8.983333	1	0.066375
9.000000	1	0.066375
9.016667	1	0.066625
9.033333	1	0.067125
9.050000	1	0.066875
9.066667	1	0.067625
9.083333	1	0.067750
9.100000	1	0.068125
9.116667	1	0.068000
9.133333	1	0.068125
9.150000	1	0.068000
9.166667	1	0.068375
9.183333	1	0.068625
9.200000	1	0.068500
9.216667	1	0.068625
9.233333	1	0.069000
9.250000	1	0.069250
9.266667	1	0.069125
9.283333	1	0.069250
9.300000	1	0.069500
9.316667	1	0.069750
9.333333	1	0.069250
9.350000	1	0.069125
9.366667	1	0.069000
9.383333	1	0.068375
9.400000	1	0.068000
9.416667	1	0.068250
9.433333	1	0.068250
9.450000	1	0.067625
9.466667	1	0.066625
9.483333	1	0.066250
9.500000	1	0.065125
9.516667	1	0.064500
9.533333	1	0.064250
9.550000	1	0.064000
9.566667	1	0.062875
9.583333	1	0.061875
9.600000	1	0.061125
9.616667	1	0.060375
9.633333	1	0.059125
9.650000	1	0.058625
9.666667	1	0.058875
9.683333	1	0.057375
9.700000	1	0.056500
9.716667	1	0.056250
9.733333	1	0.056000
9.750000	1	0.055750
9.766667	1	0.055250
9.783333	1	0.054750
9.800000	1	0.054625
9.816667	1	0.054875
9.833333	1	0.055000
9.850000	1	0.055375
9.866667	1	0.055875
9.883333	1	0.056625
9.900000	1	0.057500
9.916667	1	0.058625
9.933333	1	0.060500
9.950000	1	0.063250
9.966667	1	0.065250
9.983333	1	0.067625
10.000000	1	0.071375
10.016667	1	0.076125
10.033333	1	0.080625
10.050000	1	0.085750
10.066667	1	0.091125
10.083333	1	0.097375
10.100000	1	0.104625
10.116667	1	0.112750
10.133333	1	0.120875
10.150000	1	0.129375
10.166667	1	0.138000
10.183333	1	0.148250
10.200000	1	0.159000
10.216667	1	0.170875
10.233333	1	0.183875
10.250000	1	0.198875
10.266667	1	0.215250
10.283333	1	0.234125
10.300000	1	0.255375
10.316667	1	0.279000
10.333333	1	0.305000
10.350000	1	0.331625
10.366667	1	0.357500
10.383333	1	0.381500
10.400000	1	0.400875
10.416667	1	0.415125
10.433333	1	0.425250
10.450000	1	0.432125
10.466667	1	0.442000
10.483333	1	0.465750
10.500000	1	0.525000
10.516667	1	0.647125
10.533333	1	0.876500
10.550000	1	1.265250
10.566667	1	1.874250
10.583333	1	2.766500
10.600000	1	4.002500
10.616667	1	5.630625
10.633333	1	7.685125
10.650000	1	10.178625
10.666667	1	13.112625
10.683333	1	16.467625
10.700000	1	20.207250
10.716667	1	24.268375
10.733333	1	28.558125
10.750000	1	32.946625
10.766667	1	37.255250
10.783333	1	41.252375
10.800000	1	44.653500
10.816667	1	47.141250
10.833333	1	48.417250
10.850000	1	48.276125
10.866667	1	46.665750
10.883333	1	43.728875
10.900000	1	39.780625
10.916667	1	35.236375
10.933333	1	30.510875
10.950000	1	25.943500
10.966667	1	21.763500
10.983333	1	18.087875
11.000000	1	14.951500
11.016667	1	12.336500
11.033333	1	10.197875
11.050000	1	8.474875
11.066667	1	7.100500
11.083333	1	6.011500
11.100000	1	5.152500
11.116667	1	4.473375
11.133333	1	3.933875
11.150000	1	3.502250
11.166667	1	3.152875
11.183333	1	2.867125
11.200000	1	2.630500
11.216667	1	2.432000
11.233333	1	2.264375
11.250000	1	2.120375
11.266667	1	1.996750
11.283333	1	1.887875
11.300000	1	1.792000
11.316667	1	1.707250
11.333333	1	1.631875
11.350000	1	1.565500
11.366667	1	1.506750
11.383333	1	1.454750
11.400000	1	1.407875
11.416667	1	1.366250
11.433333	1	1.329875
11.450000	1	1.297375
11.466667	1	1.268500
11.483333	1	1.243625
11.500000	1	1.221375
11.516667	1	1.200750
11.533333	1	1.182125
11.550000	1	1.166125
11.566667	1	1.151750
11.583333	1	1.139000
11.600000	1	1.127500
11.616667	1	1.117375
11.633333	1	1.109250
11.650000	1	1.102875
11.666667	1	1.096875
11.683333	1	1.092625
11.700000	1	1.090125
11.716667	1	1.089000
11.733333	1	1.089000
11.750000	1	1.089500
11.766667	1	1.092125
11.783333	1	1.095000
11.800000	1	1.099625
11.816667	1	1.104375
11.833333	1	1.109375
11.850000	1	1.114625
11.866667	1	1.120500
11.883333	1	1.126875
11.900000	1	1.133000
11.916667	1	1.139125
11.933333	1	1.144375
11.950000	1	1.149750
11.966667	1	1.155375
11.983333	1	1.161500
12.000000	1	1.167625
12.016667	1	1.173375
12.033333	1	1.179500
12.050000	1	1.186375
12.066667	1	1.193500
12.083333	1	1.201500
12.100000	1	1.208500
12.116667	1	1.216375
12.133333	1	1.225125
12.150000	1	1.233875
12.166667	1	1.242625
12.183333	1	1.252625
12.200000	1	1.262125
12.216667	1	1.273875
12.233333	1	1.285625
12.250000	1	1.299875
12.266667	1	1.316375
12.283333	1	1.335500
12.300000	1	1.359625
12.316667	1	1.388500
12.333333	1	1.423125
12.350000	1	1.465000
12.366667	1	1.516125
12.383333	1	1.579500
12.400000	1	1.657875
12.416667	1	1.754500
12.433333	1	1.874750
12.450000	1	2.021625
12.466667	1	2.201375
12.483333	1	2.419250
12.500000	1	2.679250
12.516667	1	2.982875
12.533333	1	3.331250
12.550000	1	3.720250
12.566667	1	4.144500
12.583333	1	4.594625
12.600000	1	5.057375
12.616667	1	5.516375
12.633333	1	5.956000
12.650000	1	6.358250
12.666667	1	6.706625
12.683333	1	6.987375
12.700000	1	7.187250
12.716667	1	7.302750
12.733333	1	7.332500
12.750000	1	7.281000
12.766667	1	7.157000
12.783333	1	6.970750
12.800000	1	6.735125
12.816667	1	6.462750
12.833333	1	6.165875
12.850000	1	5.855125
12.866667	1	5.539000
12.883333	1	5.225000
12.900000	1	4.919000
12.916667	1	4.626625
12.933333	1	4.352000
12.950000	1	4.099375
12.966667	1	3.868875
12.983333	1	3.661000
13.000000	1	3.476250
13.016667	1	3.312875
13.033333	1	3.168875
13.050000	1	3.042125
13.066667	1	2.931375
13.083333	1	2.834125
13.100000	1	2.747875
13.116667	1	2.671250
13.133333	1	2.602750
13.150000	1	2.540875
13.166667	1	2.485125
13.183333	1	2.433250
13.200000	1	2.385375
13.216667	1	2.340125
13.233333	1	2.298000
13.250000	1	2.257375
13.266667	1	2.217875
13.283333	1	2.180375
13.300000	1	2.143750
13.316667	1	2.108500
13.333333	1	2.075125
13.350000	1	2.042250
13.366667	1	2.012500
13.383333	1	1.984250
13.400000	1	1.958250
13.416667	1	1.934500
13.433333	1	1.912750
13.450000	1	1.895000
13.466667	1	1.878750
13.483333	1	1.865500
13.500000	1	1.855250
13.516667	1	1.846875
13.533333	1	1.840750
13.550000	1	1.836500
13.566667	1	1.832750
13.583333	1	1.829375
13.600000	1	1.826125
13.616667	1	1.821375
13.633333	1	1.815000
13.650000	1	1.806750
13.666667	1	1.797000
13.683333	1	1.783625
13.700000	1	1.767375
13.716667	1	1.749250
13.733333	1	1.729125
13.750000	1	1.707250
13.766667	1	1.684375
13.783333	1	1.662125
13.800000	1	1.639750
13.816667	1	1.617500
13.833333	1	1.595875
13.850000	1	1.575250
13.866667	1	1.555500
13.883333	1	1.536125
13.900000	1	1.518000
13.916667	1	1.501000
13.933333	1	1.485125
13.950000	1	1.469875
13.966667	1	1.454875
13.983333	1	1.440375
14.000000	1	1.427250
14.016667	1	1.414750
14.033333	1	1.402500
14.050000	1	1.390875
14.066667	1	1.378875
14.083333	1	1.368250
14.100000	1	1.358125
14.116667	1	1.348500
14.133333	1	1.339125
14.150000	1	1.330375
14.166667	1	1.322375
14.183333	1	1.315625
14.200000	1	1.309625
14.216667	1	1.304875
14.233333	1	1.301125
14.250000	1	1.299125
14.266667	1	1.299875
14.283333	1	1.303000
14.300000	1	1.309125
14.316667	1	1.318250
14.333333	1	1.331625
14.350000	1	1.348125
14.366667	1	1.369875
14.383333	1	1.397625
14.400000	1	1.432875
14.416667	1	1.477875
14.433333	1	1.536375
14.450000	1	1.611750
14.466667	1	1.711625
14.483333	1	1.845000
14.500000	1	2.025125
14.516667	1	2.267250
14.533333	1	2.593750
14.550000	1	3.030125
14.566667	1	3.609125
14.583333	1	4.367125
14.600000	1	5.347500
14.616667	1	6.595875
14.633333	1	8.160125
14.650000	1	10.080500
14.666667	1	12.390375
14.683333	1	15.105125
14.700000	1	18.214500
14.716667	1	21.680375
14.733333	1	25.441500
14.750000	1	29.404500
14.766667	1	33.444500
14.783333	1	37.408250
14.800000	1	41.135250
14.816667	1	44.462750
14.833333	1	47.234625
14.850000	1	49.317125
14.866667	1	50.609125
14.883333	1	51.053500
14.900000	1	50.641750
14.916667	1	49.416500
14.933333	1	47.459625
14.950000	1	44.886250
14.966667	1	41.836000
14.983333	1	38.461750
15.000000	1	34.908750
15.016667	1	31.308000
15.033333	1	27.776250
15.050000	1	24.403750
15.066667	1	21.262375
15.083333	1	18.394625
15.100000	1	15.825375
15.116667	1	13.559750
15.133333	1	11.589000
15.150000	1	9.894750
15.166667	1	8.451500
15.183333	1	7.233000
15.200000	1	6.210875
15.216667	1	5.358625
15.233333	1	4.651875
15.250000	1	4.068625
15.266667	1	3.591125
15.283333	1	3.202875
15.300000	1	2.890750
15.316667	1	2.642125
15.333333	1	2.447125
15.350000	1	2.296375
15.366667	1	2.183500
15.383333	1	2.101000
15.400000	1	2.043250
15.416667	1	2.005000
15.433333	1	1.980125
15.450000	1	1.965250
15.466667	1	1.956625
15.483333	1	1.950625
15.500000	1	1.943000
15.516667	1	1.933125
15.533333	1	1.917625
15.550000	1	1.896250
15.566667	1	1.870250
15.583333	1	1.837875
15.600000	1	1.800750
15.616667	1	1.761250
15.633333	1	1.719625
15.650000	1	1.677125
15.666667	1	1.635000
15.683333	1	1.593875
15.700000	1	1.554250
15.716667	1	1.517625
15.733333	1	1.483125
15.750000	1	1.451000
15.766667	1	1.421625
15.783333	1	1.394625
15.800000	1	1.369750
15.816667	1	1.346750
15.833333	1	1.325750
15.850000	1	1.306125
15.866667	1	1.287125
15.883333	1	1.269875
15.900000	1	1.254750
15.916667	1	1.242125
15.933333	1	1.230500
15.950000	1	1.221250
15.966667	1	1.213000
15.983333	1	1.207000
16.000000	1	1.202875
16.016667	1	1.200250
16.033333	1	1.198750
16.050000	1	1.198250
16.066667	1	1.199000
16.083333	1	1.199750
16.100000	1	1.200875
16.116667	1	1.203125
16.133333	1	1.204750
16.150000	1	1.206125
16.166667	1	1.207375
16.183333	1	1.207500
16.200000	1	1.206875
16.216667	1	1.205250
16.233333	1	1.202875
16.250000	1	1.199500
16.266667	1	1.194375
16.283333	1	1.188625
16.300000	1	1.182500
16.316667	1	1.175375
16.333333	1	1.167500
16.350000	1	1.160750
16.366667	1	1.154000
16.383333	1	1.148375
16.400000	1	1.142875
16.416667	1	1.138750
16.433333	1	1.135250
16.450000	1	1.133625
16.466667	1	1.132375
16.483333	1	1.132125
16.500000	1	1.132250
16.516667	1	1.132250
16.533333	1	1.132125
16.550000	1	1.131875
16.566667	1	1.130500
16.583333	1	1.128125
16.600000	1	1.125250
16.616667	1	1.121500
16.633333	1	1.116875
16.650000	1	1.110875
16.666667	1	1.106000
16.683333	1	1.101000
16.700000	1	1.096250
16.716667	1	1.093500
16.733333	1	1.091500
16.750000	1	1.091625
16.766667	1	1.094125
16.783333	1	1.097125
16.800000	1	1.102000
16.816667	1	1.108500
16.833333	1	1.116375
16.850000	1	1.125000
16.866667	1	1.133125
16.883333	1	1.142375
16.900000	1	1.150250
16.916667	1	1.157000
16.933333	1	1.162500
16.950000	1	1.167000
16.966667	1	1.169875
16.983333	1	1.171625
17.000000	1	1.172000
17.016667	1	1.171000
17.033333	1	1.169375
17.050000	1	1.166750
17.066667	1	1.164125
17.083333	1	1.161500
17.100000	1	1.158125
17.116667	1	1.156000
17.133333	1	1.153250
17.150000	1	1.151125
17.166667	1	1.149875
17.183333	1	1.149500
17.200000	1	1.150125
17.216667	1	1.149750
17.233333	1	1.151125
17.250000	1	1.153875
17.266667	1	1.156000
17.283333	1	1.158750
17.300000	1	1.161875
17.316667	1	1.166125
17.333333	1	1.170125
17.350000	1	1.174125
17.366667	1	1.178750
17.383333	1	1.183000
17.400000	1	1.186750
17.416667	1	1.189375
17.433333	1	1.190750
17.450000	1	1.191625
17.466667	1	1.190500
17.483333	1	1.187875
17.500000	1	1.184375
17.516667	1	1.178625
17.533333	1	1.171000
17.550000	1	1.162125
17.566667	1	1.151500
17.583333	1	1.139750
17.600000	1	1.126125
17.616667	1	1.111625
17.633333	1	1.096250
17.650000	1	1.079625
17.666667	1	1.063625
17.683333	1	1.047125
17.700000	1	1.030625
17.716667	1	1.015000
17.733333	1	1.000000
17.750000	1	0.986125
17.766667	1	0.972625
17.783333	1	0.960625
17.800000	1	0.948750
17.816667	1	0.939125
17.833333	1	0.930000
17.850000	1	0.921625
17.866667	1	0.915125
17.883333	1	0.907625
17.900000	1	0.902125
17.916667	1	0.896375
17.933333	1	0.891875
17.950000	1	0.887125
17.966667	1	0.882875
17.983333	1	0.878500
18.000000	1	0.874500
18.016667	1	0.870250
18.033333	1	0.866375
18.050000	1	0.862375
18.066667	1	0.859000
18.083333	1	0.854875
18.100000	1	0.851875
18.116667	1	0.849125
18.133333	1	0.847375
18.150000	1	0.845375
18.166667	1	0.844750
18.183333	1	0.844500
18.200000	1	0.845125
18.216667	1	0.846375
18.233333	1	0.848125
18.250000	1	0.849875
18.266667	1	0.852750
18.283333	1	0.855875
18.300000	1	0.858375
18.316667	1	0.862500
18.333333	1	0.866125
18.350000	1	0.869875
18.366667	1	0.874375
18.383333	1	0.879375
18.400000	1	0.885500
18.416667	1	0.891625
18.433333	1	0.899250
18.450000	1	0.908250
18.466667	1	0.918750
18.483333	1	0.930500
18.500000	1	0.943250
18.516667	1	0.958750
18.533333	1	0.975125
18.550000	1	0.993750
18.566667	1	1.014125
18.583333	1	1.035500
18.600000	1	1.059500
18.616667	1	1.084375
18.633333	1	1.110875
18.650000	1	1.138125
18.666667	1	1.166250
18.683333	1	1.195375
18.700000	1	1.225250
18.716667	1	1.255125
18.733333	1	1.286125
18.750000	1	1.316500
18.766667	1	1.347125
18.783333	1	1.376000
18.800000	1	1.403500
18.816667	1	1.428875
18.833333	1	1.452125
18.850000	1	1.472375
18.866667	1	1.489000
18.883333	1	1.501125
18.900000	1	1.507625
18.916667	1	1.509750
18.933333	1	1.506375
18.950000	1	1.497000
18.966667	1	1.481375
18.983333	1	1.460125
19.000000	1	1.432875
19.016667	1	1.401250
19.033333	1	1.364000
19.050000	1	1.323375
19.066667	1	1.280000
19.083333	1	1.234375
19.100000	1	1.187125
19.116667	1	1.139750
19.133333	1	1.093500
19.150000	1	1.049375
19.166667	1	1.007500
19.183333	1	0.968375
19.200000	1	0.932875
19.216667	1	0.902500
19.233333	1	0.877500
19.250000	1	0.857125
19.266667	1	0.842000
19.283333	1	0.832625
19.300000	1	0.830000
19.316667	1	0.832250
19.333333	1	0.840250
19.350000	1	0.853500
19.366667	1	0.871750
19.383333	1	0.894125
19.400000	1	0.920500
19.416667	1	0.950250
19.433333	1	0.982125
19.450000	1	1.014750
19.466667	1	1.047750
19.483333	1	1.079625
19.500000	1	1.110500
19.516667	1	1.138000
19.533333	1	1.163625
19.550000	1	1.185375
19.566667	1	1.203000
19.583333	1	1.215875
19.600000	1	1.223625
19.616667	1	1.226625
19.633333	1	1.224625
19.650000	1	1.218000
19.666667	1	1.206000
19.683333	1	1.191750
19.700000	1	1.172500
19.716667	1	1.150250
19.733333	1	1.124625
19.750000	1	1.096875
19.766667	1	1.067250
19.783333	1	1.037625
19.800000	1	1.006125
19.816667	1	0.973125
19.833333	1	0.940125
19.850000	1	0.907250
19.866667	1	0.875375
19.883333	1	0.845125
19.900000	1	0.816375
19.916667	1	0.788750
19.933333	1	0.764375
19.950000	1	0.742625
19.966667	1	0.724750
19.983333	1	0.710000
20.000000	1	0.698875
20.016667	1	0.691375
20.033333	1	0.689125
20.050000	1	0.691250
20.066667	1	0.699625
20.083333	1	0.711875
20.100000	1	0.729500
20.116667	1	0.752125
20.133333	1	0.779375
20.150000	1	0.810500
20.166667	1	0.845125
20.183333	1	0.881750
20.200000	1	0.920375
20.216667	1	0.959125
20.233333	1	0.996250
20.250000	1	1.031625
20.266667	1	1.063125
20.283333	1	1.090750
20.300000	1	1.112000
20.316667	1	1.126875
20.333333	1	1.134500
20.350000	1	1.135000
20.366667	1	1.128250
20.383333	1	1.113875
20.400000	1	1.092750
20.416667	1	1.066875
20.433333	1	1.036625
20.450000	1	1.003000
20.466667	1	0.967625
20.483333	1	0.932750
20.500000	1	0.899500
20.516667	1	0.868625
20.533333	1	0.841125
20.550000	1	0.820125
20.566667	1	0.804500
20.583333	1	0.796000
20.600000	1	0.795000
20.616667	1	0.802625
20.633333	1	0.818875
20.650000	1	0.844875
20.666667	1	0.879625
20.683333	1	0.923625
20.700000	1	0.976000
20.716667	1	1.035500
20.733333	1	1.101750
20.750000	1	1.172125
20.766667	1	1.246250
20.783333	1	1.321500
20.800000	1	1.396250
20.816667	1	1.466875
20.833333	1	1.532625
20.850000	1	1.590000
20.866667	1	1.638375
20.883333	1	1.675500
20.900000	1	1.699875
20.916667	1	1.711375
20.933333	1	1.709375
20.950000	1	1.694500
20.966667	1	1.667250
20.983333	1	1.627875
21.000000	1	1.579500
21.016667	1	1.522750
21.033333	1	1.459625
21.050000	1	1.391875
21.066667	1	1.322250
21.083333	1	1.251500
21.100000	1	1.181250
21.116667	1	1.114000
21.133333	1	1.049000
21.150000	1	0.987750
21.166667	1	0.930375
21.183333	1	0.878625
21.200000	1	0.830875
21.216667	1	0.787875
21.233333	1	0.749375
21.250000	1	0.715125
21.266667	1	0.685000
21.283333	1	0.658375
21.300000	1	0.635000
21.316667	1	0.615000
21.333333	1	0.596625
21.350000	1	0.580375
21.366667	1	0.566750
21.383333	1	0.555000
21.400000	1	0.544625
21.416667	1	0.535500
21.433333	1	0.528625
21.450000	1	0.522000
21.466667	1	0.516750
21.483333	1	0.511875
21.500000	1	0.508625
21.516667	1	0.506375
21.533333	1	0.505625
21.550000	1	0.506625
21.566667	1	0.508750
21.583333	1	0.512000
21.600000	1	0.516875
21.616667	1	0.524625
21.633333	1	0.533375
21.650000	1	0.544750
21.666667	1	0.558375
21.683333	1	0.574250
21.700000	1	0.593125
21.716667	1	0.614625
21.733333	1	0.638250
21.750000	1	0.664125
21.766667	1	0.691875
21.783333	1	0.722625
21.800000	1	0.753375
21.816667	1	0.785875
21.833333	1	0.817750
21.850000	1	0.849375
21.866667	1	0.881000
21.883333	1	0.910750
21.900000	1	0.938875
21.916667	1	0.963625
21.933333	1	0.984875
21.950000	1	1.002500
21.966667	1	1.016250
21.983333	1	1.024500
22.000000	1	1.029000
22.016667	1	1.029125
22.033333	1	1.024625
22.050000	1	1.016375
22.066667	1	1.004750
22.083333	1	0.989125
22.100000	1	0.970375
22.116667	1	0.949375
22.133333	1	0.926375
22.150000	1	0.901500
22.166667	1	0.876500
22.183333	1	0.849750
22.200000	1	0.823125
22.216667	1	0.796500
22.233333	1	0.770000
22.250000	1	0.744000
22.266667	1	0.718750
22.283333	1	0.694500
22.300000	1	0.671750
22.316667	1	0.648875
22.333333	1	0.628750
22.350000	1	0.608750
22.366667	1	0.590125
22.383333	1	0.573625
22.400000	1	0.558250
22.416667	1	0.543625
22.433333	1	0.531250
22.450000	1	0.520500
22.466667	1	0.511250
22.483333	1	0.503875
22.500000	1	0.497125
22.516667	1	0.492125
22.533333	1	0.488125
22.550000	1	0.484750
22.566667	1	0.482125
22.583333	1	0.480750
22.600000	1	0.479125
22.616667	1	0.477625
22.633333	1	0.476750
22.650000	1	0.475500
22.666667	1	0.474500
22.683333	1	0.473375
22.700000	1	0.471875
22.716667	1	0.469500
22.733333	1	0.466375
22.750000	1	0.463000
22.766667	1	0.459250
22.783333	1	0.454500
22.800000	1	0.449750
22.816667	1	0.444375
22.833333	1	0.438750
22.850000	1	0.432375
22.866667	1	0.426625
22.883333	1	0.419875
22.900000	1	0.413750
22.916667	1	0.407250
22.933333	1	0.400625
22.950000	1	0.394625
22.966667	1	0.388625
22.983333	1	0.382875
23.000000	1	0.378375
23.016667	1	0.373375
23.033333	1	0.368750
23.050000	1	0.364250
23.066667	1	0.360625
23.083333	1	0.357875
23.100000	1	0.355250
23.116667	1	0.352875
23.133333	1	0.351375
23.150000	1	0.350500
23.166667	1	0.350500
23.183333	1	0.350875
23.200000	1	0.351375
23.216667	1	0.352500
23.233333	1	0.355500
23.250000	1	0.359625
23.266667	1	0.364250
23.283333	1	0.371125
23.300000	1	0.380750
23.316667	1	0.392625
23.333333	1	0.407625
23.350000	1	0.426125
23.366667	1	0.449000
23.383333	1	0.477000
23.400000	1	0.510250
23.416667	1	0.551125
23.433333	1	0.601250
23.450000	1	0.659875
23.466667	1	0.730250
23.483333	1	0.812375
23.500000	1	0.908375
23.516667	1	1.018625
23.533333	1	1.146000
23.550000	1	1.290125
23.566667	1	1.451625
23.583333	1	1.629875
23.600000	1	1.825500
23.616667	1	2.037875
23.633333	1	2.265750
23.650000	1	2.505125
23.666667	1	2.756000
23.683333	1	3.015250
23.700000	1	3.277750
23.716667	1	3.539375
23.733333	1	3.795250
23.750000	1	4.040125
23.766667	1	4.268875
23.783333	1	4.476875
23.800000	1	4.659000
23.816667	1	4.812500
23.833333	1	4.932375
23.850000	1	5.017125
23.866667	1	5.064250
23.883333	1	5.075000
23.900000	1	5.048000
23.916667	1	4.985250
23.933333	1	4.889250
23.950000	1	4.762875
23.966667	1	4.608750
23.983333	1	4.432625
24.000000	1	4.237500
24.016667	1	4.027875
24.033333	1	3.809125
24.050000	1	3.584875
24.066667	1	3.358625
24.083333	1	3.133875
24.100000	1	2.913625
24.116667	1	2.699875
24.133333	1	2.495500
24.150000	1	2.300625
24.166667	1	2.117750
24.183333	1	1.946625
24.200000	1	1.788375
24.216667	1	1.641625
24.233333	1	1.506625
24.250000	1	1.383750
24.266667	1	1.272125
24.283333	1	1.170625
24.300000	1	1.078625
24.316667	1	0.996500
24.333333	1	0.923000
24.350000	1	0.857250
24.366667	1	0.798250
24.383333	1	0.746375
24.400000	1	0.700750
24.416667	1	0.660750
24.433333	1	0.625625
24.450000	1	0.595000
24.466667	1	0.568000
24.483333	1	0.544875
24.500000	1	0.525125
24.516667	1	0.508625
24.533333	1	0.492875
24.550000	1	0.479500
24.566667	1	0.468125
24.583333	1	0.458250
24.600000	1	0.449125
24.616667	1	0.441000
24.633333	1	0.434000
24.650000	1	0.426500
24.666667	1	0.420000
24.683333	1	0.413875
24.700000	1	0.407750
24.716667	1	0.401625
24.733333	1	0.395500
24.750000	1	0.389375
24.766667	1	0.383250
24.783333	1	0.377750
24.800000	1	0.372500
24.816667	1	0.366750
24.833333	1	0.360875
24.850000	1	0.355625
24.866667	1	0.350625
24.883333	1	0.346125
24.900000	1	0.341625
24.916667	1	0.337375
24.933333	1	0.333750
24.950000	1	0.330125
24.966667	1	0.326500
24.983333	1	0.323250
25.000000	1	0.320750
25.016667	1	0.318625
25.033333	1	0.316625
25.050000	1	0.314625
25.066667	1	0.313125
25.083333	1	0.310875
25.100000	1	0.309000
25.116667	1	0.307625
25.133333	1	0.305875
25.150000	1	0.304250
25.166667	1	0.303250
25.183333	1	0.302500
25.200000	1	0.301375
25.216667	1	0.300375
25.233333	1	0.299375
25.250000	1	0.298500
25.266667	1	0.298000
25.283333	1	0.297500
25.300000	1	0.296875
25.316667	1	0.296375
25.333333	1	0.295750
25.350000	1	0.294500
25.366667	1	0.293625
25.383333	1	0.293500
25.400000	1	0.292625
25.416667	1	0.292125
25.433333	1	0.291875
25.450000	1	0.291125
25.466667	1	0.290875
25.483333	1	0.290500
25.500000	1	0.290500
25.516667	1	0.290375
25.533333	1	0.289875
25.550000	1	0.290250
25.566667	1	0.289750
25.583333	1	0.289750
25.600000	1	0.289500
25.616667	1	0.290000
25.633333	1	0.290750
25.650000	1	0.290500
25.666667	1	0.290125
25.683333	1	0.290500
25.700000	1	0.290500
25.716667	1	0.290500
25.733333	1	0.290250
25.750000	1	0.290000
25.766667	1	0.290375
25.783333	1	0.290500
25.800000	1	0.291000
25.816667	1	0.291125
25.833333	1	0.291625
25.850000	1	0.291250
25.866667	1	0.291750
25.883333	1	0.293000
25.900000	1	0.293750
25.916667	1	0.295125
25.933333	1	0.296375
25.950000	1	0.298500
25.966667	1	0.299875
25.983333	1	0.302750
26.000000	1	0.305750
26.016667	1	0.308875
26.033333	1	0.312500
26.050000	1	0.315750
26.066667	1	0.319625
26.083333	1	0.324250
26.100000	1	0.328750
26.116667	1	0.333375
26.133333	1	0.338375
26.150000	1	0.343250
26.166667	1	0.348500
26.183333	1	0.353625
26.200000	1	0.358750
26.216667	1	0.363500
26.233333	1	0.368625
26.250000	1	0.372875
26.266667	1	0.377625
26.283333	1	0.381375
26.300000	1	0.385125
26.316667	1	0.387250
26.333333	1	0.389875
26.350000	1	0.390750
26.366667	1	0.391625
26.383333	1	0.391875
26.400000	1	0.391500
26.416667	1	0.390250
26.433333	1	0.388875
26.450000	1	0.386125
26.466667	1	0.382750
26.483333	1	0.378875
26.500000	1	0.374375
26.516667	1	0.369000
26.533333	1	0.363125
26.550000	1	0.357000
26.566667	1	0.350250
26.583333	1	0.342875
26.600000	1	0.336000
26.616667	1	0.329000
26.633333	1	0.321875
26.650000	1	0.314875
26.666667	1	0.307500
26.683333	1	0.300500
26.700000	1	0.292875
26.716667	1	0.285625
26.733333	1	0.279125
26.750000	1	0.273000
26.766667	1	0.266500
26.783333	1	0.260500
26.800000	1	0.255125
26.816667	1	0.250250
26.833333	1	0.246125
26.850000	1	0.242625
26.866667	1	0.239125
26.883333	1	0.235625
26.900000	1	0.232500
26.916667	1	0.230000
26.933333	1	0.227625
26.950000	1	0.225625
26.966667	1	0.224625
26.983333	1	0.223750
27.000000	1	0.224375
27.016667	1	0.224375
27.033333	1	0.225250
27.050000	1	0.226625
27.066667	1	0.229125
27.083333	1	0.231750
27.100000	1	0.235625
27.116667	1	0.239250
27.133333	1	0.245125
27.150000	1	0.250500
27.166667	1	0.257375
27.183333	1	0.265250
27.200000	1	0.274875
27.216667	1	0.287000
27.233333	1	0.300875
27.250000	1	0.316250
27.266667	1	0.334000
27.283333	1	0.354750
27.300000	1	0.378125
27.316667	1	0.404875
27.333333	1	0.436000
27.350000	1	0.472000
27.366667	1	0.512000
27.383333	1	0.557750
27.400000	1	0.609750
27.416667	1	0.668250
27.433333	1	0.733625
27.450000	1	0.807125
27.466667	1	0.889125
27.483333	1	0.980250
27.500000	1	1.080500
27.516667	1	1.190375
27.533333	1	1.310000
27.550000	1	1.438250
27.566667	1	1.576375
27.583333	1	1.723625
27.600000	1	1.879250
27.616667	1	2.041750
27.633333	1	2.210375
27.650000	1	2.383875
27.666667	1	2.560625
27.683333	1	2.738625
27.700000	1	2.916125
27.716667	1	3.091375
27.733333	1	3.260000
27.750000	1	3.421125
27.766667	1	3.570625
27.783333	1	3.707125
27.800000	1	3.828250
27.816667	1	3.933000
27.833333	1	4.018625
27.850000	1	4.083500
27.866667	1	4.125500
27.883333	1	4.145250
27.900000	1	4.141875
27.916667	1	4.114875
27.933333	1	4.064375
27.950000	1	3.992750
27.966667	1	3.900750
27.983333	1	3.789375
28.000000	1	3.661125
28.016667	1	3.518375
28.033333	1	3.363625
28.050000	1	3.199375
28.066667	1	3.027625
28.083333	1	2.851750
28.100000	1	2.672625
28.116667	1	2.494125
28.133333	1	2.317875
28.150000	1	2.145125
28.166667	1	1.978750
28.183333	1	1.820375
28.200000	1	1.669000
28.216667	1	1.527000
28.233333	1	1.393750
28.250000	1	1.270375
28.266667	1	1.155750
28.283333	1	1.051625
28.300000	1	0.956000
28.316667	1	0.869375
28.333333	1	0.791875
28.350000	1	0.722875
28.366667	1	0.661500
28.383333	1	0.607750
28.400000	1	0.561000
28.416667	1	0.520000
28.433333	1	0.484500
28.450000	1	0.455000
28.466667	1	0.430000
28.483333	1	0.409500
28.500000	1	0.394000
28.516667	1	0.381625
28.533333	1	0.372375
28.550000	1	0.366625
28.566667	1	0.363250
28.583333	1	0.363000
28.600000	1	0.364875
28.616667	1	0.368875
28.633333	1	0.374875
28.650000	1	0.382000
28.666667	1	0.390125
28.683333	1	0.399500
28.700000	1	0.409750
28.716667	1	0.420875
28.733333	1	0.432375
28.750000	1	0.443500
28.766667	1	0.454500
28.783333	1	0.465875
28.800000	1	0.477000
28.816667	1	0.487875
28.833333	1	0.497875
28.850000	1	0.507125
28.866667	1	0.515250
28.883333	1	0.522750
28.900000	1	0.529000
28.916667	1	0.533750
28.933333	1	0.537875
28.950000	1	0.540375
28.966667	1	0.541625
28.983333	1	0.541000
29.000000	1	0.538625
29.016667	1	0.534125
29.033333	1	0.528625
29.050000	1	0.519625
29.066667	1	0.509125
29.083333	1	0.496125
29.100000	1	0.481125
29.116667	1	0.464250
29.133333	1	0.445500
29.150000	1	0.423750
29.166667	1	0.399000
29.183333	1	0.372000
29.200000	1	0.342375
29.216667	1	0.310625
29.233333	1	0.276125
29.250000	1	0.239250
29.266667	1	0.199000
29.283333	1	0.157125
29.300000	1	0.112125
29.316667	1	0.064250
29.333333	1	0.013375
29.350000	1	-0.039625
29.366667	1	-0.094875
29.383333	1	-0.152000
29.400000	1	-0.211500
29.416667	1	-0.272750
29.433333	1	-0.335875
29.450000	1	-0.399875
29.466667	1	-0.464875
29.483333	1	-0.529875
29.500000	1	-0.595875
29.516667	1	-0.661250
29.533333	1	-0.726000
29.550000	1	-0.789000
29.566667	1	-0.850250
29.583333	1	-0.908875
29.600000	1	-0.965125
29.616667	1	-1.017625
29.633333	1	-1.066125
29.650000	1	-1.111000
29.666667	1	-1.151250
29.683333	1	-1.187250
29.700000	1	-1.217000
29.716667	1	-1.241500
29.733333	1	-1.259750
29.750000	1	-1.272750
29.766667	1	-1.279500
29.783333	1	-1.279750
29.800000	1	-1.274750
29.816667	1	-1.264125
29.833333	1	-1.248125
29.850000	1	-1.226625
29.866667	1	-1.200875
29.883333	1	-1.170375
29.900000	1	-1.136000
29.916667	1	-1.097625
29.933333	1	-1.056000
29.950000	1	-1.012500
29.966667	1	-0.966000
29.983333	1	-0.918875
30.000000	1	-0.870125
30.016667	1	-0.820750
30.033333	1	-0.770750
30.050000	1	-0.720125
30.066667	1	-0.670500
30.083333	1	-0.621625
30.100000	1	-0.573875
30.116667	1	-0.527250
30.133333	1	-0.482500
30.150000	1	-0.438250
30.166667	1	-0.397125
30.183333	1	-0.357500
30.200000	1	-0.319750
30.216667	1	-0.283750
30.233333	1	-0.250000
30.250000	1	-0.218375
30.266667	1	-0.189125
30.283333	1	-0.162375
30.300000	1	-0.136750
30.316667	1	-0.113375
30.333333	1	-0.091625
30.350000	1	-0.072000
30.366667	1	-0.053375
30.383333	1	-0.036500
30.400000	1	-0.020500
30.416667	1	-0.006625
30.433333	1	0.005500
30.450000	1	0.017000
30.466667	1	0.028375
30.483333	1	0.038125
30.500000	1	0.047625
30.516667	1	0.055625
30.533333	1	0.062875
30.550000	1	0.070125
30.566667	1	0.077000
30.583333	1	0.085125
30.600000	1	0.092000
30.616667	1	0.099625
30.633333	1	0.107500
30.650000	1	0.115125
30.666667	1	0.122625
30.683333	1	0.131375
30.700000	1	0.140000
30.716667	1	0.148875
30.733333	1	0.158500
30.750000	1	0.169625
30.766667	1	0.181250
30.783333	1	0.194125
30.800000	1	0.207750
30.816667	1	0.222875
30.833333	1	0.238750
30.850000	1	0.256125
30.866667	1	0.275375
30.883333	1	0.296625
30.900000	1	0.319625
30.916667	1	0.345625
30.933333	1	0.374500
30.950000	1	0.406250
30.966667	1	0.441875
30.983333	1	0.481375
31.000000	1	0.526250
31.016667	1	0.576375
31.033333	1	0.632625
31.050000	1	0.695750
31.066667	1	0.766500
31.083333	1	0.846250
31.100000	1	0.934875
31.116667	1	1.034250
31.133333	1	1.144375
31.150000	1	1.266000
31.166667	1	1.401500
31.183333	1	1.549875
31.200000	1	1.712625
31.216667	1	1.889375
31.233333	1	2.081625
31.250000	1	2.289125
31.266667	1	2.510500
31.283333	1	2.744750
31.300000	1	2.993875
31.316667	1	3.253750
31.333333	1	3.525250
31.350000	1	3.804750
31.366667	1	4.090250
31.383333	1	4.381625
31.400000	1	4.673250
31.416667	1	4.965375
31.433333	1	5.253500
31.450000	1	5.533250
31.466667	1	5.801625
31.483333	1	6.055750
31.500000	1	6.292750
31.516667	1	6.509250
31.533333	1	6.702250
31.550000	1	6.870000
31.566667	1	7.010500
31.583333	1	7.122375
31.600000	1	7.202875
31.616667	1	7.251000
31.633333	1	7.266875
31.650000	1	7.250750
31.666667	1	7.203750
31.683333	1	7.125000
31.700000	1	7.018125
31.716667	1	6.883375
31.733333	1	6.723875
31.750000	1	6.541625
31.766667	1	6.340625
31.783333	1	6.120375
31.800000	1	5.885250
31.816667	1	5.638750
31.833333	1	5.383250
31.850000	1	5.122000
31.866667	1	4.856875
31.883333	1	4.590250
31.900000	1	4.325000
31.916667	1	4.063750
31.933333	1	3.807875
31.950000	1	3.558250
31.966667	1	3.315875
31.983333	1	3.082375
32.000000	1	2.858375
32.016667	1	2.644875
32.033333	1	2.441375
32.050000	1	2.248625
32.066667	1	2.067625
32.083333	1	1.897625
32.100000	1	1.738375
32.116667	1	1.590875
32.133333	1	1.453875
32.150000	1	1.326250
32.166667	1	1.208375
32.183333	1	1.099250
32.200000	1	0.999000
32.216667	1	0.905875
32.233333	1	0.820875
32.250000	1	0.743000
32.266667	1	0.671375
32.283333	1	0.606250
32.300000	1	0.546625
32.316667	1	0.492125
32.333333	1	0.442625
32.350000	1	0.398625
32.366667	1	0.357875
32.383333	1	0.321125
32.400000	1	0.287875
32.416667	1	0.257000
32.433333	1	0.229750
32.450000	1	0.205625
32.466667	1	0.182750
32.483333	1	0.161750
32.500000	1	0.143250
32.516667	1	0.126500
32.533333	1	0.111500
32.550000	1	0.097500
32.566667	1	0.085000
32.583333	1	0.073500
32.600000	1	0.063625
32.616667	1	0.054000
32.633333	1	0.045625
32.650000	1	0.037375
32.666667	1	0.029375
32.683333	1	0.023000
32.700000	1	0.017125
32.716667	1	0.011125
32.733333	1	0.005625
32.750000	1	0.001125
32.766667	1	-0.003500
32.783333	1	-0.007750
32.800000	1	-0.011500
32.816667	1	-0.014750
32.833333	1	-0.018125
32.850000	1	-0.021375
32.866667	1	-0.025125
32.883333	1	-0.027750
32.900000	1	-0.030625
32.916667	1	-0.032500
32.933333	1	-0.034625
32.950000	1	-0.036500
32.966667	1	-0.038375
32.983333	1	-0.039750
33.000000	1	-0.040625
33.016667	1	-0.041875
33.033333	1	-0.042750
33.050000	1	-0.044250
33.066667	1	-0.044625
33.083333	1	-0.045375
33.100000	1	-0.045250
33.116667	1	-0.045500
33.133333	1	-0.045500
33.150000	1	-0.044875
33.166667	1	-0.044000
33.183333	1	-0.043250
33.200000	1	-0.042250
33.216667	1	-0.040625
33.233333	1	-0.038500
33.250000	1	-0.036500
33.266667	1	-0.034375
33.283333	1	-0.031875
33.300000	1	-0.029875
33.316667	1	-0.027250
33.333333	1	-0.024500
33.350000	1	-0.020875
33.366667	1	-0.017625
33.383333	1	-0.013875
33.400000	1	-0.010625
33.416667	1	-0.006000
33.433333	1	-0.001375
33.450000	1	0.003375
33.466667	1	0.007250
33.483333	1	0.012125
33.500000	1	0.016500
33.516667	1	0.020875
33.533333	1	0.025750
33.550000	1	0.031125
33.566667	1	0.035500
33.583333	1	0.040625
33.600000	1	0.045625
33.616667	1	0.049625
33.633333	1	0.054875
33.650000	1	0.060375
33.666667	1	0.064875
33.683333	1	0.069500
33.700000	1	0.074625
33.716667	1	0.079375
33.733333	1	0.084000
33.750000	1	0.089250
33.766667	1	0.093875
33.783333	1	0.098000
33.800000	1	0.102250
33.816667	1	0.106250
33.833333	1	0.108875
33.850000	1	0.111375
33.866667	1	0.114375
33.883333	1	0.117250
33.900000	1	0.119500
33.916667	1	0.121125
33.933333	1	0.123000
33.950000	1	0.123875
33.966667	1	0.124875
33.983333	1	0.125250
34.000000	1	0.125500
34.016667	1	0.125500
34.033333	1	0.124875
34.050000	1	0.124125
34.066667	1	0.123500
34.083333	1	0.122500
34.100000	1	0.121125
34.116667	1	0.119500
34.133333	1	0.118000
34.150000	1	0.115750
34.166667	1	0.113875
34.183333	1	0.112125
34.200000	1	0.110000
34.216667	1	0.108375
34.233333	1	0.106000
34.250000	1	0.103875
34.266667	1	0.101500
34.283333	1	0.099875
34.300000	1	0.098875
34.316667	1	0.097750
34.333333	1	0.095625
34.350000	1	0.094625
34.366667	1	0.093500
34.383333	1	0.092875
34.400000	1	0.092000
34.416667	1	0.090750
34.433333	1	0.090375
34.450000	1	0.090125
34.466667	1	0.090500
34.483333	1	0.090000
34.500000	1	0.090375
34.516667	1	0.090500
34.533333	1	0.091375
34.550000	1	0.092000
34.566667	1	0.093250
34.583333	1	0.094125
34.600000	1	0.095250
34.616667	1	0.095875
34.633333	1	0.097500
34.650000	1	0.098875
34.666667	1	0.099875
34.683333	1	0.101000
34.700000	1	0.102125
34.716667	1	0.103000
34.733333	1	0.104750
34.750000	1	0.105750
34.766667	1	0.106375
34.783333	1	0.107625
34.800000	1	0.108625
34.816667	1	0.109375
34.833333	1	0.109750
34.850000	1	0.110000
34.866667	1	0.109625
34.883333	1	0.109125
34.900000	1	0.108250
34.916667	1	0.107625
34.933333	1	0.106750
34.950000	1	0.105375
34.966667	1	0.103250
34.983333	1	0.101625
35.000000	1	0.099875
35.016667	1	0.098000
35.033333	1	0.095500
35.050000	1	0.092750
35.066667	1	0.090250
35.083333	1	0.087750
35.100000	1	0.086500
35.116667	1	0.085000
35.133333	1	0.082625
35.150000	1	0.080375
35.166667	1	0.079000
35.183333	1	0.076375
35.200000	1	0.074250
35.216667	1	0.072625
35.233333	1	0.071500
35.250000	1	0.070375
35.266667	1	0.069875
35.283333	1	0.069375
35.300000	1	0.068250
35.316667	1	0.068375
35.333333	1	0.069125
35.350000	1	0.068875
35.366667	1	0.069250
35.383333	1	0.069500
35.400000	1	0.069625
35.416667	1	0.070500
35.433333	1	0.070625
35.450000	1	0.071500
35.466667	1	0.072000
35.483333	1	0.073000
35.500000	1	0.073750
35.516667	1	0.074750
35.533333	1	0.075375
35.550000	1	0.076500
35.566667	1	0.077625
35.583333	1	0.079000
35.600000	1	0.079000
35.616667	1	0.079250
35.633333	1	0.079750
35.650000	1	0.080375
35.666667	1	0.081375
35.683333	1	0.081875
35.700000	1	0.082500
35.716667	1	0.084000
35.733333	1	0.084750
35.750000	1	0.084500
35.766667	1	0.085375
35.783333	1	0.085875
35.800000	1	0.086500
35.816667	1	0.087000
35.833333	1	0.087750
35.850000	1	0.087500
35.866667	1	0.088500
35.883333	1	0.089375
35.900000	1	0.090125
35.916667	1	0.090875
35.933333	1	0.092000
35.950000	1	0.093000
35.966667	1	0.094500
35.983333	1	0.095375
36.000000	1	0.096125
36.016667	1	0.097125
36.033333	1	0.097875
36.050000	1	0.098875
36.066667	1	0.100750
36.083333	1	0.102000
36.100000	1	0.105000
36.116667	1	0.106750
36.133333	1	0.108625
36.150000	1	0.111375
36.166667	1	0.114125
36.183333	1	0.116625
36.200000	1	0.119125
36.216667	1	0.121625
36.233333	1	0.124375
36.250000	1	0.127250
36.266667	1	0.130125
36.283333	1	0.133125
36.300000	1	0.136125
36.316667	1	0.138250
36.333333	1	0.140250
36.350000	1	0.142125
36.366667	1	0.143875
36.383333	1	0.145375
36.400000	1	0.147000
36.416667	1	0.148375
36.433333	1	0.148500
36.450000	1	0.148625
36.466667	1	0.148500
36.483333	1	0.147125
36.500000	1	0.147375
36.516667	1	0.146125
36.533333	1	0.145125
36.550000	1	0.143250
36.566667	1	0.141625
36.583333	1	0.139500
36.600000	1	0.136875
36.616667	1	0.134375
36.633333	1	0.132250
36.650000	1	0.129375
36.666667	1	0.126750
36.683333	1	0.123500
36.700000	1	0.120750
36.716667	1	0.117000
36.733333	1	0.114625
36.750000	1	0.111625
36.766667	1	0.107875
36.783333	1	0.104000
36.800000	1	0.100625
36.816667	1	0.096625
36.833333	1	0.093500
36.850000	1	0.090000
36.866667	1	0.086625
36.883333	1	0.082625
36.900000	1	0.080000
36.916667	1	0.076875
36.933333	1	0.073500
36.950000	1	0.070500
36.966667	1	0.067625
36.983333	1	0.065500
37.000000	1	0.062500
37.016667	1	0.060625
37.033333	1	0.057625
37.050000	1	0.055750
37.066667	1	0.053750
37.083333	1	0.051250
37.100000	1	0.050000
37.116667	1	0.049375
37.133333	1	0.048500
37.150000	1	0.048250
37.166667	1	0.047250
37.183333	1	0.047375
37.200000	1	0.047125
37.216667	1	0.047375
37.233333	1	0.047375
37.250000	1	0.046750
37.266667	1	0.046750
37.283333	1	0.047250
37.300000	1	0.047750
37.316667	1	0.048250
37.333333	1	0.048500
37.350000	1	0.048625
37.366667	1	0.048875
37.383333	1	0.048875
37.400000	1	0.048875
37.416667	1	0.049000
37.433333	1	0.048625
37.450000	1	0.048625
37.466667	1	0.048125
37.483333	1	0.047750
37.500000	1	0.048000
37.516667	1	0.047125
37.533333	1	0.045750
37.550000	1	0.044625
37.566667	1	0.043000
37.583333	1	0.041250
37.600000	1	0.039625
37.616667	1	0.037625
37.633333	1	0.035500
37.650000	1	0.033625
37.666667	1	0.031625
37.683333	1	0.029375
37.700000	1	0.026500
37.716667	1	0.024250
37.733333	1	0.020875
37.750000	1	0.018125
37.766667	1	0.014750
37.783333	1	0.012000
37.800000	1	0.009250
37.816667	1	0.006750
37.833333	1	0.003375
37.850000	1	0.000750
37.866667	1	-0.001750
37.883333	1	-0.003875
37.900000	1	-0.005625
37.916667	1	-0.007625
37.933333	1	-0.009500
37.950000	1	-0.010625
37.966667	1	-0.012375
37.983333	1	-0.014125
38.000000	1	-0.015125
38.016667	1	-0.016000
38.033333	1	-0.016375
38.050000	1	-0.016875
38.066667	1	-0.016375
38.083333	1	-0.016625
38.100000	1	-0.015250
38.116667	1	-0.015000
38.133333	1	-0.013500
38.150000	1	-0.012750
38.166667	1	-0.011250
38.183333	1	-0.010625
38.200000	1	-0.009500
38.216667	1	-0.008000
38.233333	1	-0.006875
38.250000	1	-0.005750
38.266667	1	-0.005000
38.283333	1	-0.003500
38.300000	1	-0.002375
38.316667	1	-0.001375
38.333333	1	-0.000250
38.350000	1	0.000625
38.366667	1	0.001250
38.383333	1	0.001125
38.400000	1	0.001125
38.416667	1	0.001250
38.433333	1	0.000500
38.450000	1	0.000250
38.466667	1	0.000000
38.483333	1	-0.000750
38.500000	1	-0.001250
38.516667	1	-0.002375
38.533333	1	-0.003500
38.550000	1	-0.004250
38.566667	1	-0.005625
38.583333	1	-0.007000
38.600000	1	-0.008500
38.616667	1	-0.010000
38.633333	1	-0.011875
38.650000	1	-0.013250
38.666667	1	-0.015000
38.683333	1	-0.016250
38.700000	1	-0.017375
38.716667	1	-0.018875
38.733333	1	-0.020500
38.750000	1	-0.021750
38.766667	1	-0.022500
38.783333	1	-0.023750
38.800000	1	-0.023750
38.816667	1	-0.024500
38.833333	1	-0.024625
38.850000	1	-0.024375
38.866667	1	-0.023875
38.883333	1	-0.024000
38.900000	1	-0.023375
38.916667	1	-0.022875
38.933333	1	-0.021750
38.950000	1	-0.021500
38.966667	1	-0.020500
38.983333	1	-0.019500
39.000000	1	-0.017500
39.016667	1	-0.015875
39.033333	1	-0.013875
39.050000	1	-0.011625
39.066667	1	-0.010125
39.083333	1	-0.008000
39.100000	1	-0.005500
39.116667	1	-0.003625
39.133333	1	-0.002125
39.150000	1	-0.000500
39.166667	1	0.001500
39.183333	1	0.004250
39.200000	1	0.005875
39.216667	1	0.007375
39.233333	1	0.009250
39.250000	1	0.011000
39.266667	1	0.013250
39.283333	1	0.014625
39.300000	1	0.016625
39.316667	1	0.018000
39.333333	1	0.019750
39.350000	1	0.020875
39.366667	1	0.021375
39.383333	1	0.022500
39.400000	1	0.023125
39.416667	1	0.023125
39.433333	1	0.024250
39.450000	1	0.024500
39.466667	1	0.024500
39.483333	1	0.024375
39.500000	1	0.024750
39.516667	1	0.024750
39.533333	1	0.024500
39.550000	1	0.024625
39.566667	1	0.024125
39.583333	1	0.023625
39.600000	1	0.022500
39.616667	1	0.022000
39.633333	1	0.021125
39.650000	1	0.020500
39.666667	1	0.020000
39.683333	1	0.019000
39.700000	1	0.018125
39.716667	1	0.016875
39.733333	1	0.016375
39.750000	1	0.015375
39.766667	1	0.014125
39.783333	1	0.013125
39.800000	1	0.012000
39.816667	1	0.010375
39.833333	1	0.009000
39.850000	1	0.007750
39.866667	1	0.006000
39.883333	1	0.004125
39.900000	1	0.002750
39.916667	1	0.001375
39.933333	1	-0.000750
39.950000	1	-0.002500
39.966667	1	-0.005125
39.983333	1	-0.007125
40.000000	1	-0.009250
