URL	chrom://bioreactor/micro_cm7/HPLC_Ultimate_3000/Users/markusar/20240517_CMO_FP23_FP25_MarkusDeplate.seq/418.smp/RI_1.channel/RI_1.chm
Channel	RI_1

Injection Information:
Data Vault	micro_cm7
Sequence	20240517_CMO_FP23_FP25_MarkusDeplate
Name	FP28_22.1_s1
Number	141
Position	BA7
Comment	
Processing Method	
Instrument Method	run_25B_method
Type	Unknown
Status	Finished
Inject Time	31.05.2024 19:24:34 +02:00
Volume (µl)	20.0000
Dilution Factor	1.0000
Weight	1.0000

Chromatogram Data Information:
Time Min. (min)	0.000000
Time Max. (min)	40.000000
Data Points	2401
Detector	RI
Generating Data System	Chromeleon 7.3.2.11814
Exporting Data System	Chromeleon 7.3.2.0
Operator	Instrument Controller
Signal Quantity	Refractive 
Signal Unit	µRIU
Signal Min.	-1.124625
Signal Max.	51.168375
Channel	RI_1
Driver Name	RID520Driver.dll
Channel Type	Evaluation
Min. Step (s)	1
Max. Step (s)	1
Average Step (s)	1

Signal Parameter Information:
Signal Info	

Chromatogram Data:
Time (min)	Step (s)	Value (µRIU)
0.000000	n.a.	0.009125
0.016667	1	0.010375
0.033333	1	0.012000
0.050000	1	0.014000
0.066667	1	0.016000
0.083333	1	0.018250
0.100000	1	0.020625
0.116667	1	0.022875
0.133333	1	0.024750
0.150000	1	0.026875
0.166667	1	0.028625
0.183333	1	0.030875
0.200000	1	0.032500
0.216667	1	0.034500
0.233333	1	0.036125
0.250000	1	0.038750
0.266667	1	0.040750
0.283333	1	0.042875
0.300000	1	0.045000
0.316667	1	0.047625
0.333333	1	0.049375
0.350000	1	0.051000
0.366667	1	0.053000
0.383333	1	0.054500
0.400000	1	0.056500
0.416667	1	0.058250
0.433333	1	0.060000
0.450000	1	0.062375
0.466667	1	0.064250
0.483333	1	0.065625
0.500000	1	0.068000
0.516667	1	0.069125
0.533333	1	0.070375
0.550000	1	0.071250
0.566667	1	0.071875
0.583333	1	0.072000
0.600000	1	0.072500
0.616667	1	0.073375
0.633333	1	0.073625
0.650000	1	0.073750
0.666667	1	0.074000
0.683333	1	0.074375
0.700000	1	0.074250
0.716667	1	0.074000
0.733333	1	0.073250
0.750000	1	0.073250
0.766667	1	0.072750
0.783333	1	0.072125
0.800000	1	0.071000
0.816667	1	0.070125
0.833333	1	0.069500
0.850000	1	0.068750
0.866667	1	0.067625
0.883333	1	0.067625
0.900000	1	0.067125
0.916667	1	0.066500
0.933333	1	0.066000
0.950000	1	0.065125
0.966667	1	0.063625
0.983333	1	0.062750
1.000000	1	0.061625
1.016667	1	0.061250
1.033333	1	0.060250
1.050000	1	0.059625
1.066667	1	0.058625
1.083333	1	0.057500
1.100000	1	0.056625
1.116667	1	0.055875
1.133333	1	0.055000
1.150000	1	0.054500
1.166667	1	0.053500
1.183333	1	0.052125
1.200000	1	0.052000
1.216667	1	0.051375
1.233333	1	0.050625
1.250000	1	0.050500
1.266667	1	0.049875
1.283333	1	0.049000
1.300000	1	0.048875
1.316667	1	0.048250
1.333333	1	0.047500
1.350000	1	0.047250
1.366667	1	0.047125
1.383333	1	0.046750
1.400000	1	0.046125
1.416667	1	0.045625
1.433333	1	0.046375
1.450000	1	0.046250
1.466667	1	0.045750
1.483333	1	0.045750
1.500000	1	0.045500
1.516667	1	0.045000
1.533333	1	0.045000
1.550000	1	0.045250
1.566667	1	0.044875
1.583333	1	0.044875
1.600000	1	0.044750
1.616667	1	0.045000
1.633333	1	0.044125
1.650000	1	0.044500
1.666667	1	0.045125
1.683333	1	0.045625
1.700000	1	0.045875
1.716667	1	0.046375
1.733333	1	0.046875
1.750000	1	0.047625
1.766667	1	0.048625
1.783333	1	0.050000
1.800000	1	0.051375
1.816667	1	0.053125
1.833333	1	0.054250
1.850000	1	0.055625
1.866667	1	0.057250
1.883333	1	0.059375
1.900000	1	0.061500
1.916667	1	0.063250
1.933333	1	0.065625
1.950000	1	0.067375
1.966667	1	0.069250
1.983333	1	0.071000
2.000000	1	0.072500
2.016667	1	0.074125
2.033333	1	0.076125
2.050000	1	0.077875
2.066667	1	0.079500
2.083333	1	0.080125
2.100000	1	0.080750
2.116667	1	0.081375
2.133333	1	0.081250
2.150000	1	0.080750
2.166667	1	0.080000
2.183333	1	0.079250
2.200000	1	0.078000
2.216667	1	0.076750
2.233333	1	0.075375
2.250000	1	0.073750
2.266667	1	0.072375
2.283333	1	0.070625
2.300000	1	0.067750
2.316667	1	0.065000
2.333333	1	0.062375
2.350000	1	0.060250
2.366667	1	0.057500
2.383333	1	0.055750
2.400000	1	0.053750
2.416667	1	0.051375
2.433333	1	0.049500
2.450000	1	0.047500
2.466667	1	0.045875
2.483333	1	0.044250
2.500000	1	0.042625
2.516667	1	0.041625
2.533333	1	0.040375
2.550000	1	0.039125
2.566667	1	0.038500
2.583333	1	0.037750
2.600000	1	0.037000
2.616667	1	0.036875
2.633333	1	0.037000
2.650000	1	0.037500
2.666667	1	0.038375
2.683333	1	0.039250
2.700000	1	0.039750
2.716667	1	0.040500
2.733333	1	0.041625
2.750000	1	0.043125
2.766667	1	0.044375
2.783333	1	0.045625
2.800000	1	0.047750
2.816667	1	0.049000
2.833333	1	0.050250
2.850000	1	0.051875
2.866667	1	0.053375
2.883333	1	0.055250
2.900000	1	0.057000
2.916667	1	0.058625
2.933333	1	0.060375
2.950000	1	0.062125
2.966667	1	0.063250
2.983333	1	0.065250
3.000000	1	0.066625
3.016667	1	0.068250
3.033333	1	0.069750
3.050000	1	0.070750
3.066667	1	0.071750
3.083333	1	0.072375
3.100000	1	0.073250
3.116667	1	0.074000
3.133333	1	0.074250
3.150000	1	0.074000
3.166667	1	0.074750
3.183333	1	0.074750
3.200000	1	0.074125
3.216667	1	0.074125
3.233333	1	0.074125
3.250000	1	0.074250
3.266667	1	0.073750
3.283333	1	0.073375
3.300000	1	0.073000
3.316667	1	0.072250
3.333333	1	0.072250
3.350000	1	0.072000
3.366667	1	0.072375
3.383333	1	0.072625
3.400000	1	0.073250
3.416667	1	0.073500
3.433333	1	0.073500
3.450000	1	0.074125
3.466667	1	0.075125
3.483333	1	0.075875
3.500000	1	0.077250
3.516667	1	0.078625
3.533333	1	0.079750
3.550000	1	0.080875
3.566667	1	0.082625
3.583333	1	0.084250
3.600000	1	0.086250
3.616667	1	0.087875
3.633333	1	0.090125
3.650000	1	0.093125
3.666667	1	0.095000
3.683333	1	0.097625
3.700000	1	0.099750
3.716667	1	0.102000
3.733333	1	0.104750
3.750000	1	0.106375
3.766667	1	0.108375
3.783333	1	0.110250
3.800000	1	0.112000
3.816667	1	0.114125
3.833333	1	0.116125
3.850000	1	0.118000
3.866667	1	0.119625
3.883333	1	0.121250
3.900000	1	0.122125
3.916667	1	0.123375
3.933333	1	0.123750
3.950000	1	0.123875
3.966667	1	0.124625
3.983333	1	0.125375
4.000000	1	0.125625
4.016667	1	0.125375
4.033333	1	0.126000
4.050000	1	0.125750
4.066667	1	0.125500
4.083333	1	0.125125
4.100000	1	0.125250
4.116667	1	0.124125
4.133333	1	0.123625
4.150000	1	0.122875
4.166667	1	0.122500
4.183333	1	0.121500
4.200000	1	0.120500
4.216667	1	0.119750
4.233333	1	0.119000
4.250000	1	0.118000
4.266667	1	0.117000
4.283333	1	0.115375
4.300000	1	0.114125
4.316667	1	0.113250
4.333333	1	0.112250
4.350000	1	0.111625
4.366667	1	0.109875
4.383333	1	0.109125
4.400000	1	0.108250
4.416667	1	0.108125
4.433333	1	0.107375
4.450000	1	0.106500
4.466667	1	0.105750
4.483333	1	0.104375
4.500000	1	0.103625
4.516667	1	0.103625
4.533333	1	0.103375
4.550000	1	0.103500
4.566667	1	0.103375
4.583333	1	0.103375
4.600000	1	0.103500
4.616667	1	0.104250
4.633333	1	0.104500
4.650000	1	0.105250
4.666667	1	0.106250
4.683333	1	0.107125
4.700000	1	0.108250
4.716667	1	0.109125
4.733333	1	0.110750
4.750000	1	0.111750
4.766667	1	0.113375
4.783333	1	0.115125
4.800000	1	0.117750
4.816667	1	0.119625
4.833333	1	0.122000
4.850000	1	0.124000
4.866667	1	0.126625
4.883333	1	0.129125
4.900000	1	0.131375
4.916667	1	0.134125
4.933333	1	0.136375
4.950000	1	0.139500
4.966667	1	0.142125
4.983333	1	0.144875
5.000000	1	0.147375
5.016667	1	0.149500
5.033333	1	0.152375
5.050000	1	0.154250
5.066667	1	0.156750
5.083333	1	0.159250
5.100000	1	0.161125
5.116667	1	0.163750
5.133333	1	0.165875
5.150000	1	0.168375
5.166667	1	0.171375
5.183333	1	0.174000
5.200000	1	0.177000
5.216667	1	0.180375
5.233333	1	0.184000
5.250000	1	0.186875
5.266667	1	0.189875
5.283333	1	0.193250
5.300000	1	0.196250
5.316667	1	0.199875
5.333333	1	0.203500
5.350000	1	0.207625
5.366667	1	0.211625
5.383333	1	0.215375
5.400000	1	0.219875
5.416667	1	0.223750
5.433333	1	0.228875
5.450000	1	0.232500
5.466667	1	0.236500
5.483333	1	0.240000
5.500000	1	0.243750
5.516667	1	0.247125
5.533333	1	0.250375
5.550000	1	0.253125
5.566667	1	0.256500
5.583333	1	0.259250
5.600000	1	0.261875
5.616667	1	0.264375
5.633333	1	0.266500
5.650000	1	0.268000
5.666667	1	0.268875
5.683333	1	0.270375
5.700000	1	0.271375
5.716667	1	0.272000
5.733333	1	0.272375
5.750000	1	0.272625
5.766667	1	0.272875
5.783333	1	0.272875
5.800000	1	0.272625
5.816667	1	0.272500
5.833333	1	0.271250
5.850000	1	0.270625
5.866667	1	0.269000
5.883333	1	0.268250
5.900000	1	0.267250
5.916667	1	0.266000
5.933333	1	0.265250
5.950000	1	0.264500
5.966667	1	0.263875
5.983333	1	0.262750
6.000000	1	0.261625
6.016667	1	0.260625
6.033333	1	0.260000
6.050000	1	0.258500
6.066667	1	0.257625
6.083333	1	0.256500
6.100000	1	0.256375
6.116667	1	0.255875
6.133333	1	0.255375
6.150000	1	0.254875
6.166667	1	0.254625
6.183333	1	0.254250
6.200000	1	0.253875
6.216667	1	0.253375
6.233333	1	0.252875
6.250000	1	0.252250
6.266667	1	0.250750
6.283333	1	0.250000
6.300000	1	0.249875
6.316667	1	0.248750
6.333333	1	0.247875
6.350000	1	0.246750
6.366667	1	0.246000
6.383333	1	0.244750
6.400000	1	0.242875
6.416667	1	0.241125
6.433333	1	0.239625
6.450000	1	0.236875
6.466667	1	0.234375
6.483333	1	0.231125
6.500000	1	0.228125
6.516667	1	0.225250
6.533333	1	0.222125
6.550000	1	0.218750
6.566667	1	0.214875
6.583333	1	0.211000
6.600000	1	0.207125
6.616667	1	0.203250
6.633333	1	0.198500
6.650000	1	0.194500
6.666667	1	0.189750
6.683333	1	0.185375
6.700000	1	0.181000
6.716667	1	0.176625
6.733333	1	0.172625
6.750000	1	0.168250
6.766667	1	0.164000
6.783333	1	0.160125
6.800000	1	0.156500
6.816667	1	0.153750
6.833333	1	0.150375
6.850000	1	0.146875
6.866667	1	0.143375
6.883333	1	0.139875
6.900000	1	0.137500
6.916667	1	0.134875
6.933333	1	0.133500
6.950000	1	0.131875
6.966667	1	0.130125
6.983333	1	0.128750
7.000000	1	0.128375
7.016667	1	0.127000
7.033333	1	0.126625
7.050000	1	0.127500
7.066667	1	0.128250
7.083333	1	0.129375
7.100000	1	0.131000
7.116667	1	0.132375
7.133333	1	0.134625
7.150000	1	0.136875
7.166667	1	0.139750
7.183333	1	0.143375
7.200000	1	0.146875
7.216667	1	0.151125
7.233333	1	0.155000
7.250000	1	0.160250
7.266667	1	0.164625
7.283333	1	0.169750
7.300000	1	0.175125
7.316667	1	0.181125
7.333333	1	0.186375
7.350000	1	0.192375
7.366667	1	0.198125
7.383333	1	0.204500
7.400000	1	0.211250
7.416667	1	0.217375
7.433333	1	0.223250
7.450000	1	0.228375
7.466667	1	0.234250
7.483333	1	0.239500
7.500000	1	0.243500
7.516667	1	0.248375
7.533333	1	0.252750
7.550000	1	0.256750
7.566667	1	0.260375
7.583333	1	0.263625
7.600000	1	0.266625
7.616667	1	0.269125
7.633333	1	0.270250
7.650000	1	0.271250
7.666667	1	0.272125
7.683333	1	0.272500
7.700000	1	0.272875
7.716667	1	0.273000
7.733333	1	0.272375
7.750000	1	0.270875
7.766667	1	0.268625
7.783333	1	0.267000
7.800000	1	0.265250
7.816667	1	0.262500
7.833333	1	0.259375
7.850000	1	0.256375
7.866667	1	0.252250
7.883333	1	0.248750
7.900000	1	0.245000
7.916667	1	0.241375
7.933333	1	0.237125
7.950000	1	0.232875
7.966667	1	0.228750
7.983333	1	0.224500
8.000000	1	0.219875
8.016667	1	0.216000
8.033333	1	0.210750
8.050000	1	0.205875
8.066667	1	0.201000
8.083333	1	0.196250
8.100000	1	0.192125
8.116667	1	0.187000
8.133333	1	0.182750
8.150000	1	0.177750
8.166667	1	0.173625
8.183333	1	0.168875
8.200000	1	0.165375
8.216667	1	0.160875
8.233333	1	0.156375
8.250000	1	0.152750
8.266667	1	0.149375
8.283333	1	0.145250
8.300000	1	0.141000
8.316667	1	0.137125
8.333333	1	0.132875
8.350000	1	0.128875
8.366667	1	0.125125
8.383333	1	0.121125
8.400000	1	0.117500
8.416667	1	0.113375
8.433333	1	0.109750
8.450000	1	0.105500
8.466667	1	0.102375
8.483333	1	0.098000
8.500000	1	0.094375
8.516667	1	0.091625
8.533333	1	0.088000
8.550000	1	0.085000
8.566667	1	0.082000
8.583333	1	0.079375
8.600000	1	0.077125
8.616667	1	0.074125
8.633333	1	0.071125
8.650000	1	0.069375
8.666667	1	0.067000
8.683333	1	0.064875
8.700000	1	0.063000
8.716667	1	0.062000
8.733333	1	0.060250
8.750000	1	0.059750
8.766667	1	0.059125
8.783333	1	0.058625
8.800000	1	0.058125
8.816667	1	0.058125
8.833333	1	0.057125
8.850000	1	0.057500
8.866667	1	0.057500
8.883333	1	0.058500
8.900000	1	0.059250
8.916667	1	0.059875
8.933333	1	0.060500
8.950000	1	0.061875
8.966667	1	0.063375
8.983333	1	0.064875
9.000000	1	0.066875
9.016667	1	0.068625
9.033333	1	0.069875
9.050000	1	0.072000
9.066667	1	0.073500
9.083333	1	0.075625
9.100000	1	0.077875
9.116667	1	0.079375
9.133333	1	0.081500
9.150000	1	0.083625
9.166667	1	0.086000
9.183333	1	0.087750
9.200000	1	0.089875
9.216667	1	0.090875
9.233333	1	0.092250
9.250000	1	0.093625
9.266667	1	0.095125
9.283333	1	0.096250
9.300000	1	0.097500
9.316667	1	0.098250
9.333333	1	0.098750
9.350000	1	0.099875
9.366667	1	0.100750
9.383333	1	0.100750
9.400000	1	0.100375
9.416667	1	0.101000
9.433333	1	0.101000
9.450000	1	0.100875
9.466667	1	0.100625
9.483333	1	0.100000
9.500000	1	0.099250
9.516667	1	0.098500
9.533333	1	0.097625
9.550000	1	0.096375
9.566667	1	0.094750
9.583333	1	0.094000
9.600000	1	0.092500
9.616667	1	0.091250
9.633333	1	0.089875
9.650000	1	0.088500
9.666667	1	0.087625
9.683333	1	0.086000
9.700000	1	0.084625
9.716667	1	0.083500
9.733333	1	0.082250
9.750000	1	0.080875
9.766667	1	0.079625
9.783333	1	0.078375
9.800000	1	0.076875
9.816667	1	0.075375
9.833333	1	0.074000
9.850000	1	0.073125
9.866667	1	0.072500
9.883333	1	0.071625
9.900000	1	0.070750
9.916667	1	0.069875
9.933333	1	0.069625
9.950000	1	0.069750
9.966667	1	0.070500
9.983333	1	0.071750
10.000000	1	0.073875
10.016667	1	0.075625
10.033333	1	0.078625
10.050000	1	0.082875
10.066667	1	0.088250
10.083333	1	0.094750
10.100000	1	0.101375
10.116667	1	0.109125
10.133333	1	0.117375
10.150000	1	0.126375
10.166667	1	0.136500
10.183333	1	0.147000
10.200000	1	0.158250
10.216667	1	0.171500
10.233333	1	0.185125
10.250000	1	0.201500
10.266667	1	0.220000
10.283333	1	0.240250
10.300000	1	0.263125
10.316667	1	0.288875
10.333333	1	0.316500
10.350000	1	0.345625
10.366667	1	0.374375
10.383333	1	0.401000
10.400000	1	0.424125
10.416667	1	0.442875
10.433333	1	0.455750
10.450000	1	0.464250
10.466667	1	0.475000
10.483333	1	0.497500
10.500000	1	0.550000
10.516667	1	0.659750
10.533333	1	0.867750
10.550000	1	1.223125
10.566667	1	1.788250
10.583333	1	2.624250
10.600000	1	3.793750
10.616667	1	5.347750
10.633333	1	7.323750
10.650000	1	9.740125
10.666667	1	12.601750
10.683333	1	15.892375
10.700000	1	19.579500
10.716667	1	23.603625
10.733333	1	27.879625
10.750000	1	32.283500
10.766667	1	36.643125
10.783333	1	40.734750
10.800000	1	44.277125
10.816667	1	46.953000
10.833333	1	48.455625
10.850000	1	48.557125
10.866667	1	47.176375
10.883333	1	44.428250
10.900000	1	40.602125
10.916667	1	36.107875
10.933333	1	31.367250
10.950000	1	26.738500
10.966667	1	22.465750
10.983333	1	18.687500
11.000000	1	15.451625
11.016667	1	12.748500
11.033333	1	10.535125
11.050000	1	8.749250
11.066667	1	7.325000
11.083333	1	6.196750
11.100000	1	5.307500
11.116667	1	4.605875
11.133333	1	4.049375
11.150000	1	3.604875
11.166667	1	3.247125
11.183333	1	2.955000
11.200000	1	2.714250
11.216667	1	2.513000
11.233333	1	2.342625
11.250000	1	2.197250
11.266667	1	2.071375
11.283333	1	1.961625
11.300000	1	1.865375
11.316667	1	1.779625
11.333333	1	1.703375
11.350000	1	1.636000
11.366667	1	1.576125
11.383333	1	1.522375
11.400000	1	1.474250
11.416667	1	1.431500
11.433333	1	1.393625
11.450000	1	1.359125
11.466667	1	1.329000
11.483333	1	1.302000
11.500000	1	1.277625
11.516667	1	1.256875
11.533333	1	1.238000
11.550000	1	1.220625
11.566667	1	1.205000
11.583333	1	1.191250
11.600000	1	1.178625
11.616667	1	1.168750
11.633333	1	1.159125
11.650000	1	1.151500
11.666667	1	1.145500
11.683333	1	1.141875
11.700000	1	1.138625
11.716667	1	1.136375
11.733333	1	1.136250
11.750000	1	1.137500
11.766667	1	1.140000
11.783333	1	1.142750
11.800000	1	1.146750
11.816667	1	1.151875
11.833333	1	1.157125
11.850000	1	1.162375
11.866667	1	1.167625
11.883333	1	1.173000
11.900000	1	1.178625
11.916667	1	1.184250
11.933333	1	1.189500
11.950000	1	1.194250
11.966667	1	1.199000
11.983333	1	1.204875
12.000000	1	1.209375
12.016667	1	1.215000
12.033333	1	1.220250
12.050000	1	1.226625
12.066667	1	1.232500
12.083333	1	1.239250
12.100000	1	1.245750
12.116667	1	1.252750
12.133333	1	1.260750
12.150000	1	1.268875
12.166667	1	1.276625
12.183333	1	1.286375
12.200000	1	1.296125
12.216667	1	1.308000
12.233333	1	1.321000
12.250000	1	1.335500
12.266667	1	1.352375
12.283333	1	1.372625
12.300000	1	1.396500
12.316667	1	1.425750
12.333333	1	1.460875
12.350000	1	1.502625
12.366667	1	1.553125
12.383333	1	1.615125
12.400000	1	1.691500
12.416667	1	1.785625
12.433333	1	1.901250
12.450000	1	2.044250
12.466667	1	2.218250
12.483333	1	2.428625
12.500000	1	2.679875
12.516667	1	2.973875
12.533333	1	3.311375
12.550000	1	3.689500
12.566667	1	4.103625
12.583333	1	4.543875
12.600000	1	4.997375
12.616667	1	5.448625
12.633333	1	5.879750
12.650000	1	6.275500
12.666667	1	6.617250
12.683333	1	6.891375
12.700000	1	7.086875
12.716667	1	7.198750
12.733333	1	7.225500
12.750000	1	7.172125
12.766667	1	7.047000
12.783333	1	6.861625
12.800000	1	6.628125
12.816667	1	6.358875
12.833333	1	6.066125
12.850000	1	5.759500
12.866667	1	5.448625
12.883333	1	5.141000
12.900000	1	4.842125
12.916667	1	4.557500
12.933333	1	4.290375
12.950000	1	4.043375
12.966667	1	3.818750
12.983333	1	3.616625
13.000000	1	3.435500
13.016667	1	3.275375
13.033333	1	3.133875
13.050000	1	3.010125
13.066667	1	2.901125
13.083333	1	2.805000
13.100000	1	2.719375
13.116667	1	2.643500
13.133333	1	2.575875
13.150000	1	2.514750
13.166667	1	2.459500
13.183333	1	2.408375
13.200000	1	2.361375
13.216667	1	2.317250
13.233333	1	2.275625
13.250000	1	2.236250
13.266667	1	2.198500
13.283333	1	2.162125
13.300000	1	2.127125
13.316667	1	2.094125
13.333333	1	2.062000
13.350000	1	2.031750
13.366667	1	2.004000
13.383333	1	1.978375
13.400000	1	1.954000
13.416667	1	1.932750
13.433333	1	1.913875
13.450000	1	1.897750
13.466667	1	1.883875
13.483333	1	1.873250
13.500000	1	1.863750
13.516667	1	1.857375
13.533333	1	1.852625
13.550000	1	1.850125
13.566667	1	1.848000
13.583333	1	1.847250
13.600000	1	1.845500
13.616667	1	1.843000
13.633333	1	1.839250
13.650000	1	1.832750
13.666667	1	1.823750
13.683333	1	1.812250
13.700000	1	1.798500
13.716667	1	1.782625
13.733333	1	1.765250
13.750000	1	1.745500
13.766667	1	1.725625
13.783333	1	1.704875
13.800000	1	1.684250
13.816667	1	1.663875
13.833333	1	1.644125
13.850000	1	1.625250
13.866667	1	1.607250
13.883333	1	1.589750
13.900000	1	1.573750
13.916667	1	1.558750
13.933333	1	1.544625
13.950000	1	1.530625
13.966667	1	1.517125
13.983333	1	1.503875
14.000000	1	1.491500
14.016667	1	1.479500
14.033333	1	1.467500
14.050000	1	1.456250
14.066667	1	1.445875
14.083333	1	1.435375
14.100000	1	1.425250
14.116667	1	1.415500
14.133333	1	1.405875
14.150000	1	1.397125
14.166667	1	1.388625
14.183333	1	1.380625
14.200000	1	1.373625
14.216667	1	1.368375
14.233333	1	1.364125
14.250000	1	1.361625
14.266667	1	1.360875
14.283333	1	1.362625
14.300000	1	1.366500
14.316667	1	1.373875
14.333333	1	1.384000
14.350000	1	1.398375
14.366667	1	1.417500
14.383333	1	1.442750
14.400000	1	1.476000
14.416667	1	1.517250
14.433333	1	1.571875
14.450000	1	1.643500
14.466667	1	1.739250
14.483333	1	1.867000
14.500000	1	2.039500
14.516667	1	2.272875
14.533333	1	2.586625
14.550000	1	3.008500
14.566667	1	3.569500
14.583333	1	4.306000
14.600000	1	5.260500
14.616667	1	6.477750
14.633333	1	8.006625
14.650000	1	9.891000
14.666667	1	12.162750
14.683333	1	14.839125
14.700000	1	17.917500
14.716667	1	21.363250
14.733333	1	25.113750
14.750000	1	29.077750
14.766667	1	33.130750
14.783333	1	37.121750
14.800000	1	40.889250
14.816667	1	44.269875
14.833333	1	47.106750
14.850000	1	49.264500
14.866667	1	50.638750
14.883333	1	51.168375
14.900000	1	50.839625
14.916667	1	49.690500
14.933333	1	47.799625
14.950000	1	45.280750
14.966667	1	42.269500
14.983333	1	38.921000
15.000000	1	35.379625
15.016667	1	31.778625
15.033333	1	28.233875
15.050000	1	24.841625
15.066667	1	21.672125
15.083333	1	18.773750
15.100000	1	16.171375
15.116667	1	13.873750
15.133333	1	11.872125
15.150000	1	10.149125
15.166667	1	8.681000
15.183333	1	7.440750
15.200000	1	6.400250
15.216667	1	5.531750
15.233333	1	4.811500
15.250000	1	4.216250
15.266667	1	3.729125
15.283333	1	3.332000
15.300000	1	3.011500
15.316667	1	2.756750
15.333333	1	2.556500
15.350000	1	2.402250
15.366667	1	2.285625
15.383333	1	2.201625
15.400000	1	2.142500
15.416667	1	2.102625
15.433333	1	2.078125
15.450000	1	2.064000
15.466667	1	2.056125
15.483333	1	2.050375
15.500000	1	2.043625
15.516667	1	2.033875
15.533333	1	2.019500
15.550000	1	1.999000
15.566667	1	1.972375
15.583333	1	1.940500
15.600000	1	1.904250
15.616667	1	1.864250
15.633333	1	1.822625
15.650000	1	1.779250
15.666667	1	1.735500
15.683333	1	1.692875
15.700000	1	1.651250
15.716667	1	1.612625
15.733333	1	1.576500
15.750000	1	1.542750
15.766667	1	1.511125
15.783333	1	1.481500
15.800000	1	1.454125
15.816667	1	1.427500
15.833333	1	1.402000
15.850000	1	1.377625
15.866667	1	1.356000
15.883333	1	1.335375
15.900000	1	1.316000
15.916667	1	1.299000
15.933333	1	1.283500
15.950000	1	1.269000
15.966667	1	1.256375
15.983333	1	1.246250
16.000000	1	1.237625
16.016667	1	1.230625
16.033333	1	1.224375
16.050000	1	1.219875
16.066667	1	1.217000
16.083333	1	1.214750
16.100000	1	1.212375
16.116667	1	1.211125
16.133333	1	1.210625
16.150000	1	1.210250
16.166667	1	1.209500
16.183333	1	1.208000
16.200000	1	1.206375
16.216667	1	1.203750
16.233333	1	1.200000
16.250000	1	1.196250
16.266667	1	1.192375
16.283333	1	1.187875
16.300000	1	1.182500
16.316667	1	1.176125
16.333333	1	1.171500
16.350000	1	1.166250
16.366667	1	1.161375
16.383333	1	1.157750
16.400000	1	1.155000
16.416667	1	1.153125
16.433333	1	1.153000
16.450000	1	1.153750
16.466667	1	1.155125
16.483333	1	1.158000
16.500000	1	1.161375
16.516667	1	1.165750
16.533333	1	1.169375
16.550000	1	1.172250
16.566667	1	1.174750
16.583333	1	1.176125
16.600000	1	1.176000
16.616667	1	1.175125
16.633333	1	1.173375
16.650000	1	1.170625
16.666667	1	1.168250
16.683333	1	1.165375
16.700000	1	1.163000
16.716667	1	1.161000
16.733333	1	1.160000
16.750000	1	1.160250
16.766667	1	1.162000
16.783333	1	1.166125
16.800000	1	1.171750
16.816667	1	1.177750
16.833333	1	1.185625
16.850000	1	1.193125
16.866667	1	1.200625
16.883333	1	1.207750
16.900000	1	1.214375
16.916667	1	1.220250
16.933333	1	1.224250
16.950000	1	1.227250
16.966667	1	1.228625
16.983333	1	1.229250
17.000000	1	1.228375
17.016667	1	1.226625
17.033333	1	1.222875
17.050000	1	1.220000
17.066667	1	1.216375
17.083333	1	1.213125
17.100000	1	1.209750
17.116667	1	1.206250
17.133333	1	1.203750
17.150000	1	1.201875
17.166667	1	1.200250
17.183333	1	1.200000
17.200000	1	1.199875
17.216667	1	1.201000
17.233333	1	1.202250
17.250000	1	1.204500
17.266667	1	1.207500
17.283333	1	1.211375
17.300000	1	1.215125
17.316667	1	1.219000
17.333333	1	1.223500
17.350000	1	1.227250
17.366667	1	1.232000
17.383333	1	1.236625
17.400000	1	1.240750
17.416667	1	1.243750
17.433333	1	1.246000
17.450000	1	1.247250
17.466667	1	1.247250
17.483333	1	1.244625
17.500000	1	1.241625
17.516667	1	1.236250
17.533333	1	1.229125
17.550000	1	1.220500
17.566667	1	1.210250
17.583333	1	1.198250
17.600000	1	1.186125
17.616667	1	1.171875
17.633333	1	1.157375
17.650000	1	1.142750
17.666667	1	1.127500
17.683333	1	1.112500
17.700000	1	1.097750
17.716667	1	1.083375
17.733333	1	1.069750
17.750000	1	1.056625
17.766667	1	1.044375
17.783333	1	1.032875
17.800000	1	1.022875
17.816667	1	1.013125
17.833333	1	1.005000
17.850000	1	0.998000
17.866667	1	0.991625
17.883333	1	0.985625
17.900000	1	0.980375
17.916667	1	0.975250
17.933333	1	0.970125
17.950000	1	0.965750
17.966667	1	0.961875
17.983333	1	0.957750
18.000000	1	0.953875
18.016667	1	0.949250
18.033333	1	0.943875
18.050000	1	0.938875
18.066667	1	0.933625
18.083333	1	0.928375
18.100000	1	0.924375
18.116667	1	0.920250
18.133333	1	0.915875
18.150000	1	0.912250
18.166667	1	0.908750
18.183333	1	0.905250
18.200000	1	0.902625
18.216667	1	0.900875
18.233333	1	0.899500
18.250000	1	0.897875
18.266667	1	0.897125
18.283333	1	0.897000
18.300000	1	0.896625
18.316667	1	0.896750
18.333333	1	0.897125
18.350000	1	0.898375
18.366667	1	0.899875
18.383333	1	0.901750
18.400000	1	0.905125
18.416667	1	0.909625
18.433333	1	0.914500
18.450000	1	0.921250
18.466667	1	0.929125
18.483333	1	0.938875
18.500000	1	0.951250
18.516667	1	0.965250
18.533333	1	0.981500
18.550000	1	0.999375
18.566667	1	1.019500
18.583333	1	1.040500
18.600000	1	1.063625
18.616667	1	1.088500
18.633333	1	1.115875
18.650000	1	1.143750
18.666667	1	1.173125
18.683333	1	1.203375
18.700000	1	1.234750
18.716667	1	1.266125
18.733333	1	1.298125
18.750000	1	1.329625
18.766667	1	1.361000
18.783333	1	1.392125
18.800000	1	1.421625
18.816667	1	1.449500
18.833333	1	1.474500
18.850000	1	1.496750
18.866667	1	1.515625
18.883333	1	1.529500
18.900000	1	1.539250
18.916667	1	1.543625
18.933333	1	1.542500
18.950000	1	1.535375
18.966667	1	1.522500
18.983333	1	1.503875
19.000000	1	1.479000
19.016667	1	1.449250
19.033333	1	1.414625
19.050000	1	1.375625
19.066667	1	1.333625
19.083333	1	1.289250
19.100000	1	1.243875
19.116667	1	1.197500
19.133333	1	1.152375
19.150000	1	1.108250
19.166667	1	1.067000
19.183333	1	1.028125
19.200000	1	0.993125
19.216667	1	0.962125
19.233333	1	0.936125
19.250000	1	0.915000
19.266667	1	0.899375
19.283333	1	0.889000
19.300000	1	0.884750
19.316667	1	0.885375
19.333333	1	0.892250
19.350000	1	0.904250
19.366667	1	0.921000
19.383333	1	0.941750
19.400000	1	0.966750
19.416667	1	0.994250
19.433333	1	1.024250
19.450000	1	1.055000
19.466667	1	1.086625
19.483333	1	1.117125
19.500000	1	1.146625
19.516667	1	1.173250
19.533333	1	1.197500
19.550000	1	1.218625
19.566667	1	1.235500
19.583333	1	1.247750
19.600000	1	1.255375
19.616667	1	1.257875
19.633333	1	1.255125
19.650000	1	1.248500
19.666667	1	1.237125
19.683333	1	1.221625
19.700000	1	1.202375
19.716667	1	1.180875
19.733333	1	1.155500
19.750000	1	1.129000
19.766667	1	1.100375
19.783333	1	1.070625
19.800000	1	1.040000
19.816667	1	1.008750
19.833333	1	0.977750
19.850000	1	0.947625
19.866667	1	0.917375
19.883333	1	0.888875
19.900000	1	0.862500
19.916667	1	0.838125
19.933333	1	0.816375
19.950000	1	0.797000
19.966667	1	0.781375
19.983333	1	0.768250
20.000000	1	0.760000
20.016667	1	0.754750
20.033333	1	0.754625
20.050000	1	0.757875
20.066667	1	0.767000
20.083333	1	0.780625
20.100000	1	0.799375
20.116667	1	0.822250
20.133333	1	0.850375
20.150000	1	0.882250
20.166667	1	0.917625
20.183333	1	0.955375
20.200000	1	0.994000
20.216667	1	1.033125
20.233333	1	1.070875
20.250000	1	1.106500
20.266667	1	1.138000
20.283333	1	1.165000
20.300000	1	1.186125
20.316667	1	1.200875
20.333333	1	1.208250
20.350000	1	1.208625
20.366667	1	1.201250
20.383333	1	1.186875
20.400000	1	1.166250
20.416667	1	1.140750
20.433333	1	1.109750
20.450000	1	1.076750
20.466667	1	1.042000
20.483333	1	1.006875
20.500000	1	0.973375
20.516667	1	0.942375
20.533333	1	0.915375
20.550000	1	0.893125
20.566667	1	0.876625
20.583333	1	0.868000
20.600000	1	0.866625
20.616667	1	0.874250
20.633333	1	0.891500
20.650000	1	0.917375
20.666667	1	0.952000
20.683333	1	0.995125
20.700000	1	1.047000
20.716667	1	1.106125
20.733333	1	1.171375
20.750000	1	1.242375
20.766667	1	1.316250
20.783333	1	1.390625
20.800000	1	1.464250
20.816667	1	1.534375
20.833333	1	1.599250
20.850000	1	1.655750
20.866667	1	1.702875
20.883333	1	1.738625
20.900000	1	1.761875
20.916667	1	1.772000
20.933333	1	1.768500
20.950000	1	1.752000
20.966667	1	1.723375
20.983333	1	1.682750
21.000000	1	1.632125
21.016667	1	1.572750
21.033333	1	1.506375
21.050000	1	1.436000
21.066667	1	1.363500
21.083333	1	1.291125
21.100000	1	1.218125
21.116667	1	1.147750
21.133333	1	1.079500
21.150000	1	1.016250
21.166667	1	0.956500
21.183333	1	0.902750
21.200000	1	0.853000
21.216667	1	0.808875
21.233333	1	0.768875
21.250000	1	0.733375
21.266667	1	0.701625
21.283333	1	0.674250
21.300000	1	0.650750
21.316667	1	0.629875
21.333333	1	0.611875
21.350000	1	0.596750
21.366667	1	0.584375
21.383333	1	0.573875
21.400000	1	0.564000
21.416667	1	0.556375
21.433333	1	0.550500
21.450000	1	0.546500
21.466667	1	0.543750
21.483333	1	0.541000
21.500000	1	0.540000
21.516667	1	0.540250
21.533333	1	0.542500
21.550000	1	0.545125
21.566667	1	0.549625
21.583333	1	0.555500
21.600000	1	0.563375
21.616667	1	0.572375
21.633333	1	0.584000
21.650000	1	0.597250
21.666667	1	0.613375
21.683333	1	0.631750
21.700000	1	0.653000
21.716667	1	0.676375
21.733333	1	0.702500
21.750000	1	0.730375
21.766667	1	0.759750
21.783333	1	0.791875
21.800000	1	0.825000
21.816667	1	0.858250
21.833333	1	0.891625
21.850000	1	0.925250
21.866667	1	0.958000
21.883333	1	0.988875
21.900000	1	1.017375
21.916667	1	1.042875
21.933333	1	1.064875
21.950000	1	1.083125
21.966667	1	1.096750
21.983333	1	1.106250
22.000000	1	1.111500
22.016667	1	1.111750
22.033333	1	1.107625
22.050000	1	1.098500
22.066667	1	1.086500
22.083333	1	1.071000
22.100000	1	1.053000
22.116667	1	1.032250
22.133333	1	1.009125
22.150000	1	0.984125
22.166667	1	0.958125
22.183333	1	0.931875
22.200000	1	0.904625
22.216667	1	0.878000
22.233333	1	0.851375
22.250000	1	0.825125
22.266667	1	0.800000
22.283333	1	0.775625
22.300000	1	0.752500
22.316667	1	0.729875
22.333333	1	0.709125
22.350000	1	0.689000
22.366667	1	0.670125
22.383333	1	0.653250
22.400000	1	0.637000
22.416667	1	0.621875
22.433333	1	0.608625
22.450000	1	0.596500
22.466667	1	0.585125
22.483333	1	0.575875
22.500000	1	0.567125
22.516667	1	0.560000
22.533333	1	0.554125
22.550000	1	0.549125
22.566667	1	0.543750
22.583333	1	0.539750
22.600000	1	0.536250
22.616667	1	0.531875
22.633333	1	0.528000
22.650000	1	0.524250
22.666667	1	0.520250
22.683333	1	0.516250
22.700000	1	0.511625
22.716667	1	0.506625
22.733333	1	0.501250
22.750000	1	0.495250
22.766667	1	0.488750
22.783333	1	0.482250
22.800000	1	0.475625
22.816667	1	0.467750
22.833333	1	0.459500
22.850000	1	0.452000
22.866667	1	0.444250
22.883333	1	0.436375
22.900000	1	0.428750
22.916667	1	0.420625
22.933333	1	0.412875
22.950000	1	0.406500
22.966667	1	0.400125
22.983333	1	0.393750
23.000000	1	0.388000
23.016667	1	0.383250
23.033333	1	0.378750
23.050000	1	0.374625
23.066667	1	0.371500
23.083333	1	0.369125
23.100000	1	0.367375
23.116667	1	0.366375
23.133333	1	0.366125
23.150000	1	0.366000
23.166667	1	0.367000
23.183333	1	0.368375
23.200000	1	0.370000
23.216667	1	0.372750
23.233333	1	0.375875
23.250000	1	0.380750
23.266667	1	0.387000
23.283333	1	0.394875
23.300000	1	0.404875
23.316667	1	0.417250
23.333333	1	0.432625
23.350000	1	0.451000
23.366667	1	0.474000
23.383333	1	0.501875
23.400000	1	0.536375
23.416667	1	0.577750
23.433333	1	0.626875
23.450000	1	0.685500
23.466667	1	0.755125
23.483333	1	0.836375
23.500000	1	0.931250
23.516667	1	1.040875
23.533333	1	1.166625
23.550000	1	1.308875
23.566667	1	1.468750
23.583333	1	1.645500
23.600000	1	1.839500
23.616667	1	2.050125
23.633333	1	2.277125
23.650000	1	2.515625
23.666667	1	2.765125
23.683333	1	3.021750
23.700000	1	3.282625
23.716667	1	3.542875
23.733333	1	3.799000
23.750000	1	4.043750
23.766667	1	4.273375
23.783333	1	4.482250
23.800000	1	4.665375
23.816667	1	4.819875
23.833333	1	4.941625
23.850000	1	5.027625
23.866667	1	5.077875
23.883333	1	5.090125
23.900000	1	5.064750
23.916667	1	5.003625
23.933333	1	4.909000
23.950000	1	4.782625
23.966667	1	4.629625
23.983333	1	4.453750
24.000000	1	4.258000
24.016667	1	4.049250
24.033333	1	3.829875
24.050000	1	3.604500
24.066667	1	3.378125
24.083333	1	3.153000
24.100000	1	2.931625
24.116667	1	2.717000
24.133333	1	2.511000
24.150000	1	2.315125
24.166667	1	2.131250
24.183333	1	1.958500
24.200000	1	1.798625
24.216667	1	1.651125
24.233333	1	1.516375
24.250000	1	1.393125
24.266667	1	1.280500
24.283333	1	1.179125
24.300000	1	1.087000
24.316667	1	1.004625
24.333333	1	0.930500
24.350000	1	0.864250
24.366667	1	0.806125
24.383333	1	0.754625
24.400000	1	0.709000
24.416667	1	0.669000
24.433333	1	0.634125
24.450000	1	0.603875
24.466667	1	0.577750
24.483333	1	0.555125
24.500000	1	0.535750
24.516667	1	0.520000
24.533333	1	0.505500
24.550000	1	0.493125
24.566667	1	0.483000
24.583333	1	0.473375
24.600000	1	0.465000
24.616667	1	0.457375
24.633333	1	0.450875
24.650000	1	0.445125
24.666667	1	0.439125
24.683333	1	0.433250
24.700000	1	0.427125
24.716667	1	0.422000
24.733333	1	0.416875
24.750000	1	0.412000
24.766667	1	0.406500
24.783333	1	0.400375
24.800000	1	0.394875
24.816667	1	0.389125
24.833333	1	0.384750
24.850000	1	0.379250
24.866667	1	0.374125
24.883333	1	0.370125
24.900000	1	0.365750
24.916667	1	0.361375
24.933333	1	0.357000
24.950000	1	0.352875
24.966667	1	0.349125
24.983333	1	0.346125
25.000000	1	0.343375
25.016667	1	0.340750
25.033333	1	0.338625
25.050000	1	0.336750
25.066667	1	0.335000
25.083333	1	0.333250
25.100000	1	0.331625
25.116667	1	0.330250
25.133333	1	0.329125
25.150000	1	0.328250
25.166667	1	0.327250
25.183333	1	0.326500
25.200000	1	0.325125
25.216667	1	0.324125
25.233333	1	0.322875
25.250000	1	0.321875
25.266667	1	0.321000
25.283333	1	0.319500
25.300000	1	0.318375
25.316667	1	0.318125
25.333333	1	0.317625
25.350000	1	0.316750
25.366667	1	0.316250
25.383333	1	0.316375
25.400000	1	0.316125
25.416667	1	0.316375
25.433333	1	0.316750
25.450000	1	0.317500
25.466667	1	0.318250
25.483333	1	0.319500
25.500000	1	0.320625
25.516667	1	0.322500
25.533333	1	0.324000
25.550000	1	0.326250
25.566667	1	0.328750
25.583333	1	0.331375
25.600000	1	0.333500
25.616667	1	0.335500
25.633333	1	0.338125
25.650000	1	0.340125
25.666667	1	0.342750
25.683333	1	0.345500
25.700000	1	0.346875
25.716667	1	0.348750
25.733333	1	0.351125
25.750000	1	0.352500
25.766667	1	0.353375
25.783333	1	0.355250
25.800000	1	0.355500
25.816667	1	0.356500
25.833333	1	0.356750
25.850000	1	0.357625
25.866667	1	0.358000
25.883333	1	0.358500
25.900000	1	0.359125
25.916667	1	0.360125
25.933333	1	0.361375
25.950000	1	0.363250
25.966667	1	0.364750
25.983333	1	0.367250
26.000000	1	0.369375
26.016667	1	0.371875
26.033333	1	0.374000
26.050000	1	0.376250
26.066667	1	0.379625
26.083333	1	0.383375
26.100000	1	0.387000
26.116667	1	0.391500
26.133333	1	0.395625
26.150000	1	0.400000
26.166667	1	0.403750
26.183333	1	0.407625
26.200000	1	0.412250
26.216667	1	0.416125
26.233333	1	0.420250
26.250000	1	0.423875
26.266667	1	0.428250
26.283333	1	0.431750
26.300000	1	0.434250
26.316667	1	0.435750
26.333333	1	0.437500
26.350000	1	0.438250
26.366667	1	0.438125
26.383333	1	0.437250
26.400000	1	0.435875
26.416667	1	0.433750
26.433333	1	0.430375
26.450000	1	0.426625
26.466667	1	0.422250
26.483333	1	0.417125
26.500000	1	0.411625
26.516667	1	0.405625
26.533333	1	0.398000
26.550000	1	0.390000
26.566667	1	0.382375
26.583333	1	0.375125
26.600000	1	0.366750
26.616667	1	0.358250
26.633333	1	0.348750
26.650000	1	0.340250
26.666667	1	0.330875
26.683333	1	0.323000
26.700000	1	0.314500
26.716667	1	0.306750
26.733333	1	0.299000
26.750000	1	0.292000
26.766667	1	0.284750
26.783333	1	0.278000
26.800000	1	0.272000
26.816667	1	0.267250
26.833333	1	0.263250
26.850000	1	0.259875
26.866667	1	0.256250
26.883333	1	0.252875
26.900000	1	0.250875
26.916667	1	0.248750
26.933333	1	0.247375
26.950000	1	0.246375
26.966667	1	0.245625
26.983333	1	0.245125
27.000000	1	0.245875
27.016667	1	0.247125
27.033333	1	0.249125
27.050000	1	0.251375
27.066667	1	0.253875
27.083333	1	0.256750
27.100000	1	0.260875
27.116667	1	0.265750
27.133333	1	0.270625
27.150000	1	0.277125
27.166667	1	0.284500
27.183333	1	0.292250
27.200000	1	0.301875
27.216667	1	0.313750
27.233333	1	0.326625
27.250000	1	0.341625
27.266667	1	0.359125
27.283333	1	0.379000
27.300000	1	0.401625
27.316667	1	0.428625
27.333333	1	0.458875
27.350000	1	0.493875
27.366667	1	0.533500
27.383333	1	0.578500
27.400000	1	0.629500
27.416667	1	0.687875
27.433333	1	0.753375
27.450000	1	0.826625
27.466667	1	0.908625
27.483333	1	0.998500
27.500000	1	1.098750
27.516667	1	1.209000
27.533333	1	1.328000
27.550000	1	1.458375
27.566667	1	1.596875
27.583333	1	1.744250
27.600000	1	1.900000
27.616667	1	2.063500
27.633333	1	2.233375
27.650000	1	2.407625
27.666667	1	2.585750
27.683333	1	2.764750
27.700000	1	2.943875
27.716667	1	3.119625
27.733333	1	3.291000
27.750000	1	3.453750
27.766667	1	3.606375
27.783333	1	3.745250
27.800000	1	3.869000
27.816667	1	3.976250
27.833333	1	4.064250
27.850000	1	4.131875
27.866667	1	4.177750
27.883333	1	4.200250
27.900000	1	4.200000
27.916667	1	4.176000
27.933333	1	4.129125
27.950000	1	4.060125
27.966667	1	3.970625
27.983333	1	3.861625
28.000000	1	3.735625
28.016667	1	3.595250
28.033333	1	3.442750
28.050000	1	3.279000
28.066667	1	3.108250
28.083333	1	2.933000
28.100000	1	2.755375
28.116667	1	2.576625
28.133333	1	2.399625
28.150000	1	2.227375
28.166667	1	2.060500
28.183333	1	1.901000
28.200000	1	1.749750
28.216667	1	1.606250
28.233333	1	1.472125
28.250000	1	1.346500
28.266667	1	1.230625
28.283333	1	1.123875
28.300000	1	1.027125
28.316667	1	0.939250
28.333333	1	0.860250
28.350000	1	0.789500
28.366667	1	0.726500
28.383333	1	0.670125
28.400000	1	0.621125
28.416667	1	0.577750
28.433333	1	0.540625
28.450000	1	0.509500
28.466667	1	0.483375
28.483333	1	0.461375
28.500000	1	0.443000
28.516667	1	0.428375
28.533333	1	0.418000
28.550000	1	0.410000
28.566667	1	0.404750
28.583333	1	0.403375
28.600000	1	0.403125
28.616667	1	0.406625
28.633333	1	0.411250
28.650000	1	0.417750
28.666667	1	0.425250
28.683333	1	0.434875
28.700000	1	0.444875
28.716667	1	0.456125
28.733333	1	0.467125
28.750000	1	0.478750
28.766667	1	0.490750
28.783333	1	0.502125
28.800000	1	0.513125
28.816667	1	0.524250
28.833333	1	0.534750
28.850000	1	0.544000
28.866667	1	0.552875
28.883333	1	0.560875
28.900000	1	0.567375
28.916667	1	0.573000
28.933333	1	0.577875
28.950000	1	0.580750
28.966667	1	0.581625
28.983333	1	0.580875
29.000000	1	0.579250
29.016667	1	0.575875
29.033333	1	0.570625
29.050000	1	0.563125
29.066667	1	0.554125
29.083333	1	0.543250
29.100000	1	0.529625
29.116667	1	0.514125
29.133333	1	0.496875
29.150000	1	0.476875
29.166667	1	0.454250
29.183333	1	0.429250
29.200000	1	0.402375
29.216667	1	0.373125
29.233333	1	0.341500
29.250000	1	0.307375
29.266667	1	0.270000
29.283333	1	0.230500
29.300000	1	0.188625
29.316667	1	0.144500
29.333333	1	0.097625
29.350000	1	0.048250
29.366667	1	-0.003875
29.383333	1	-0.056750
29.400000	1	-0.111500
29.416667	1	-0.169000
29.433333	1	-0.228375
29.450000	1	-0.287750
29.466667	1	-0.348625
29.483333	1	-0.410125
29.500000	1	-0.472000
29.516667	1	-0.533250
29.533333	1	-0.593375
29.550000	1	-0.652875
29.566667	1	-0.709875
29.583333	1	-0.765125
29.600000	1	-0.817750
29.616667	1	-0.867875
29.633333	1	-0.914125
29.650000	1	-0.956375
29.666667	1	-0.994750
29.683333	1	-1.028750
29.700000	1	-1.057875
29.716667	1	-1.082375
29.733333	1	-1.101250
29.750000	1	-1.115000
29.766667	1	-1.122250
29.783333	1	-1.124625
29.800000	1	-1.122375
29.816667	1	-1.114500
29.833333	1	-1.102250
29.850000	1	-1.084375
29.866667	1	-1.062750
29.883333	1	-1.036875
29.900000	1	-1.007500
29.916667	1	-0.974250
29.933333	1	-0.937875
29.950000	1	-0.899125
29.966667	1	-0.858625
29.983333	1	-0.816125
30.000000	1	-0.773000
30.016667	1	-0.728250
30.033333	1	-0.683125
30.050000	1	-0.637750
30.066667	1	-0.592375
30.083333	1	-0.548250
30.100000	1	-0.504375
30.116667	1	-0.462000
30.133333	1	-0.420500
30.150000	1	-0.381000
30.166667	1	-0.343000
30.183333	1	-0.305625
30.200000	1	-0.270625
30.216667	1	-0.237250
30.233333	1	-0.205375
30.250000	1	-0.176250
30.266667	1	-0.148625
30.283333	1	-0.122500
30.300000	1	-0.098125
30.316667	1	-0.076000
30.333333	1	-0.054250
30.350000	1	-0.034375
30.366667	1	-0.016000
30.383333	1	0.001375
30.400000	1	0.017250
30.416667	1	0.032500
30.433333	1	0.046750
30.450000	1	0.059875
30.466667	1	0.072125
30.483333	1	0.082750
30.500000	1	0.093875
30.516667	1	0.104500
30.533333	1	0.114375
30.550000	1	0.123875
30.566667	1	0.133750
30.583333	1	0.142875
30.600000	1	0.151625
30.616667	1	0.161125
30.633333	1	0.169625
30.650000	1	0.178125
30.666667	1	0.187375
30.683333	1	0.195750
30.700000	1	0.204625
30.716667	1	0.213500
30.733333	1	0.223000
30.750000	1	0.232625
30.766667	1	0.243500
30.783333	1	0.254375
30.800000	1	0.265500
30.816667	1	0.277750
30.833333	1	0.291000
30.850000	1	0.305625
30.866667	1	0.321875
30.883333	1	0.339500
30.900000	1	0.358625
30.916667	1	0.380250
30.933333	1	0.404750
30.950000	1	0.432500
30.966667	1	0.462750
30.983333	1	0.497625
31.000000	1	0.537250
31.016667	1	0.581875
31.033333	1	0.633000
31.050000	1	0.691250
31.066667	1	0.756125
31.083333	1	0.829500
31.100000	1	0.912500
31.116667	1	1.004875
31.133333	1	1.107750
31.150000	1	1.221125
31.166667	1	1.347375
31.183333	1	1.486375
31.200000	1	1.638125
31.216667	1	1.803250
31.233333	1	1.982625
31.250000	1	2.175500
31.266667	1	2.382000
31.283333	1	2.600875
31.300000	1	2.831125
31.316667	1	3.073125
31.333333	1	3.323500
31.350000	1	3.581750
31.366667	1	3.846500
31.383333	1	4.114875
31.400000	1	4.385375
31.416667	1	4.654625
31.433333	1	4.919875
31.450000	1	5.177750
31.466667	1	5.425250
31.483333	1	5.659125
31.500000	1	5.877250
31.516667	1	6.076250
31.533333	1	6.254250
31.550000	1	6.408125
31.566667	1	6.536000
31.583333	1	6.637750
31.600000	1	6.710875
31.616667	1	6.754500
31.633333	1	6.768125
31.650000	1	6.752000
31.666667	1	6.706250
31.683333	1	6.633125
31.700000	1	6.532000
31.716667	1	6.406125
31.733333	1	6.258125
31.750000	1	6.088250
31.766667	1	5.900250
31.783333	1	5.694625
31.800000	1	5.476375
31.816667	1	5.246625
31.833333	1	5.007500
31.850000	1	4.763500
31.866667	1	4.515750
31.883333	1	4.267625
31.900000	1	4.020750
31.916667	1	3.775625
31.933333	1	3.536625
31.950000	1	3.302625
31.966667	1	3.075500
31.983333	1	2.856875
32.000000	1	2.646875
32.016667	1	2.446500
32.033333	1	2.256125
32.050000	1	2.076250
32.066667	1	1.905625
32.083333	1	1.746625
32.100000	1	1.598125
32.116667	1	1.459875
32.133333	1	1.331250
32.150000	1	1.211750
32.166667	1	1.101750
32.183333	1	0.999750
32.200000	1	0.905875
32.216667	1	0.820000
32.233333	1	0.740750
32.250000	1	0.667875
32.266667	1	0.601125
32.283333	1	0.540750
32.300000	1	0.485125
32.316667	1	0.435375
32.333333	1	0.390625
32.350000	1	0.349000
32.366667	1	0.311875
32.383333	1	0.278125
32.400000	1	0.246750
32.416667	1	0.218500
32.433333	1	0.193000
32.450000	1	0.170000
32.466667	1	0.149875
32.483333	1	0.132375
32.500000	1	0.116750
32.516667	1	0.102625
32.533333	1	0.090250
32.550000	1	0.078625
32.566667	1	0.069250
32.583333	1	0.061000
32.600000	1	0.053750
32.616667	1	0.047625
32.633333	1	0.042375
32.650000	1	0.037875
32.666667	1	0.033750
32.683333	1	0.030375
32.700000	1	0.027750
32.716667	1	0.025500
32.733333	1	0.023625
32.750000	1	0.022125
32.766667	1	0.020875
32.783333	1	0.019375
32.800000	1	0.018625
32.816667	1	0.017875
32.833333	1	0.017500
32.850000	1	0.017250
32.866667	1	0.016500
32.883333	1	0.015500
32.900000	1	0.015250
32.916667	1	0.014375
32.933333	1	0.014125
32.950000	1	0.014125
32.966667	1	0.014125
32.983333	1	0.013875
33.000000	1	0.012750
33.016667	1	0.012875
33.033333	1	0.012750
33.050000	1	0.012500
33.066667	1	0.012875
33.083333	1	0.013375
33.100000	1	0.013500
33.116667	1	0.013750
33.133333	1	0.014875
33.150000	1	0.015000
33.166667	1	0.015000
33.183333	1	0.015625
33.200000	1	0.016875
33.216667	1	0.017250
33.233333	1	0.019000
33.250000	1	0.019875
33.266667	1	0.020875
33.283333	1	0.022375
33.300000	1	0.023500
33.316667	1	0.024875
33.333333	1	0.026250
33.350000	1	0.027500
33.366667	1	0.028750
33.383333	1	0.030125
33.400000	1	0.031625
33.416667	1	0.032250
33.433333	1	0.033000
33.450000	1	0.034625
33.466667	1	0.036375
33.483333	1	0.037750
33.500000	1	0.039250
33.516667	1	0.040750
33.533333	1	0.042250
33.550000	1	0.044000
33.566667	1	0.045750
33.583333	1	0.047500
33.600000	1	0.048750
33.616667	1	0.051250
33.633333	1	0.053625
33.650000	1	0.055875
33.666667	1	0.058375
33.683333	1	0.060625
33.700000	1	0.063625
33.716667	1	0.066750
33.733333	1	0.069625
33.750000	1	0.072875
33.766667	1	0.075875
33.783333	1	0.079125
33.800000	1	0.082125
33.816667	1	0.085000
33.833333	1	0.088375
33.850000	1	0.091375
33.866667	1	0.094625
33.883333	1	0.097625
33.900000	1	0.100500
33.916667	1	0.103375
33.933333	1	0.106750
33.950000	1	0.109500
33.966667	1	0.112375
33.983333	1	0.114875
34.000000	1	0.117500
34.016667	1	0.119500
34.033333	1	0.121500
34.050000	1	0.123375
34.066667	1	0.124625
34.083333	1	0.125375
34.100000	1	0.126500
34.116667	1	0.127500
34.133333	1	0.128500
34.150000	1	0.129000
34.166667	1	0.129375
34.183333	1	0.129500
34.200000	1	0.129000
34.216667	1	0.128875
34.233333	1	0.127875
34.250000	1	0.126875
34.266667	1	0.125375
34.283333	1	0.124000
34.300000	1	0.122875
34.316667	1	0.121000
34.333333	1	0.119000
34.350000	1	0.117625
34.366667	1	0.115500
34.383333	1	0.113625
34.400000	1	0.111375
34.416667	1	0.109625
34.433333	1	0.106875
34.450000	1	0.104375
34.466667	1	0.102000
34.483333	1	0.099500
34.500000	1	0.097250
34.516667	1	0.094500
34.533333	1	0.091875
34.550000	1	0.089625
34.566667	1	0.087375
34.583333	1	0.084750
34.600000	1	0.083250
34.616667	1	0.081875
34.633333	1	0.080250
34.650000	1	0.078000
34.666667	1	0.076625
34.683333	1	0.074750
34.700000	1	0.073750
34.716667	1	0.073500
34.733333	1	0.072875
34.750000	1	0.072125
34.766667	1	0.071750
34.783333	1	0.071375
34.800000	1	0.070875
34.816667	1	0.071500
34.833333	1	0.070875
34.850000	1	0.070875
34.866667	1	0.071000
34.883333	1	0.071125
34.900000	1	0.071000
34.916667	1	0.070500
34.933333	1	0.070625
34.950000	1	0.071000
34.966667	1	0.071000
34.983333	1	0.071750
35.000000	1	0.071500
35.016667	1	0.072250
35.033333	1	0.073000
35.050000	1	0.073375
35.066667	1	0.074250
35.083333	1	0.075125
35.100000	1	0.075250
35.116667	1	0.076000
35.133333	1	0.076000
35.150000	1	0.076375
35.166667	1	0.076875
35.183333	1	0.077750
35.200000	1	0.078000
35.216667	1	0.079250
35.233333	1	0.079875
35.250000	1	0.080375
35.266667	1	0.081250
35.283333	1	0.082125
35.300000	1	0.083500
35.316667	1	0.084375
35.333333	1	0.085000
35.350000	1	0.085875
35.366667	1	0.086250
35.383333	1	0.087000
35.400000	1	0.088000
35.416667	1	0.089250
35.433333	1	0.089625
35.450000	1	0.090250
35.466667	1	0.091250
35.483333	1	0.091875
35.500000	1	0.093375
35.516667	1	0.094000
35.533333	1	0.094625
35.550000	1	0.095750
35.566667	1	0.096125
35.583333	1	0.096500
35.600000	1	0.097250
35.616667	1	0.097875
35.633333	1	0.099000
35.650000	1	0.100000
35.666667	1	0.100750
35.683333	1	0.102125
35.700000	1	0.103750
35.716667	1	0.105750
35.733333	1	0.106750
35.750000	1	0.108750
35.766667	1	0.110375
35.783333	1	0.111625
35.800000	1	0.113125
35.816667	1	0.114875
35.833333	1	0.116750
35.850000	1	0.117625
35.866667	1	0.118875
35.883333	1	0.120375
35.900000	1	0.121250
35.916667	1	0.122250
35.933333	1	0.124250
35.950000	1	0.125500
35.966667	1	0.126875
35.983333	1	0.127250
36.000000	1	0.128125
36.016667	1	0.127875
36.033333	1	0.128875
36.050000	1	0.128625
36.066667	1	0.128875
36.083333	1	0.128750
36.100000	1	0.128500
36.116667	1	0.127750
36.133333	1	0.126875
36.150000	1	0.126625
36.166667	1	0.125875
36.183333	1	0.125500
36.200000	1	0.124875
36.216667	1	0.123875
36.233333	1	0.122500
36.250000	1	0.121375
36.266667	1	0.120000
36.283333	1	0.119250
36.300000	1	0.118125
36.316667	1	0.118125
36.333333	1	0.117750
36.350000	1	0.116750
36.366667	1	0.115500
36.383333	1	0.114875
36.400000	1	0.113750
36.416667	1	0.113000
36.433333	1	0.112750
36.450000	1	0.112000
36.466667	1	0.112000
36.483333	1	0.111750
36.500000	1	0.111000
36.516667	1	0.111375
36.533333	1	0.110000
36.550000	1	0.109750
36.566667	1	0.109000
36.583333	1	0.107875
36.600000	1	0.107625
36.616667	1	0.107375
36.633333	1	0.107125
36.650000	1	0.105375
36.666667	1	0.104500
36.683333	1	0.103375
36.700000	1	0.102500
36.716667	1	0.101625
36.733333	1	0.100250
36.750000	1	0.099125
36.766667	1	0.097500
36.783333	1	0.096375
36.800000	1	0.095625
36.816667	1	0.093750
36.833333	1	0.092500
36.850000	1	0.091250
36.866667	1	0.089500
36.883333	1	0.088625
36.900000	1	0.087875
36.916667	1	0.086625
36.933333	1	0.085375
36.950000	1	0.084625
36.966667	1	0.083250
36.983333	1	0.082375
37.000000	1	0.081500
37.016667	1	0.080500
37.033333	1	0.079875
37.050000	1	0.079250
37.066667	1	0.078625
37.083333	1	0.078375
37.100000	1	0.078125
37.116667	1	0.077750
37.133333	1	0.077500
37.150000	1	0.077000
37.166667	1	0.076625
37.183333	1	0.077250
37.200000	1	0.077625
37.216667	1	0.077125
37.233333	1	0.076750
37.250000	1	0.076000
37.266667	1	0.075250
37.283333	1	0.074500
37.300000	1	0.073750
37.316667	1	0.074000
37.333333	1	0.074125
37.350000	1	0.073500
37.366667	1	0.072500
37.383333	1	0.072125
37.400000	1	0.071250
37.416667	1	0.070000
37.433333	1	0.069375
37.450000	1	0.067875
37.466667	1	0.067000
37.483333	1	0.064875
37.500000	1	0.064625
37.516667	1	0.063875
37.533333	1	0.063125
37.550000	1	0.062375
37.566667	1	0.061000
37.583333	1	0.060000
37.600000	1	0.058500
37.616667	1	0.056750
37.633333	1	0.056375
37.650000	1	0.055000
37.666667	1	0.054375
37.683333	1	0.054125
37.700000	1	0.053250
37.716667	1	0.051875
37.733333	1	0.051375
37.750000	1	0.051375
37.766667	1	0.051000
37.783333	1	0.050625
37.800000	1	0.050375
37.816667	1	0.049500
37.833333	1	0.048875
37.850000	1	0.048875
37.866667	1	0.048750
37.883333	1	0.049375
37.900000	1	0.049625
37.916667	1	0.049375
37.933333	1	0.049000
37.950000	1	0.049375
37.966667	1	0.049500
37.983333	1	0.049875
38.000000	1	0.049750
38.016667	1	0.050000
38.033333	1	0.049750
38.050000	1	0.049375
38.066667	1	0.049000
38.083333	1	0.049375
38.100000	1	0.049000
38.116667	1	0.049125
38.133333	1	0.048875
38.150000	1	0.048000
38.166667	1	0.048125
38.183333	1	0.048500
38.200000	1	0.047875
38.216667	1	0.047500
38.233333	1	0.047500
38.250000	1	0.047250
38.266667	1	0.047000
38.283333	1	0.046500
38.300000	1	0.046500
38.316667	1	0.046750
38.333333	1	0.046500
38.350000	1	0.046625
38.366667	1	0.047250
38.383333	1	0.048250
38.400000	1	0.048750
38.416667	1	0.050250
38.433333	1	0.050750
38.450000	1	0.051750
38.466667	1	0.053000
38.483333	1	0.054500
38.500000	1	0.056125
38.516667	1	0.057750
38.533333	1	0.059375
38.550000	1	0.061375
38.566667	1	0.062750
38.583333	1	0.064500
38.600000	1	0.067000
38.616667	1	0.067750
38.633333	1	0.069000
38.650000	1	0.070750
38.666667	1	0.073250
38.683333	1	0.075125
38.700000	1	0.076500
38.716667	1	0.077625
38.733333	1	0.078625
38.750000	1	0.080000
38.766667	1	0.081250
38.783333	1	0.082125
38.800000	1	0.082375
38.816667	1	0.082375
38.833333	1	0.082875
38.850000	1	0.083750
38.866667	1	0.083500
38.883333	1	0.083500
38.900000	1	0.082875
38.916667	1	0.082125
38.933333	1	0.081500
38.950000	1	0.079625
38.966667	1	0.078875
38.983333	1	0.078125
39.000000	1	0.077250
39.016667	1	0.076000
39.033333	1	0.074375
39.050000	1	0.073125
39.066667	1	0.071375
39.083333	1	0.070000
39.100000	1	0.068750
39.116667	1	0.066375
39.133333	1	0.064875
39.150000	1	0.062500
39.166667	1	0.060375
39.183333	1	0.059000
39.200000	1	0.056375
39.216667	1	0.054500
39.233333	1	0.051625
39.250000	1	0.049125
39.266667	1	0.046250
39.283333	1	0.043875
39.300000	1	0.041375
39.316667	1	0.038250
39.333333	1	0.035375
39.350000	1	0.032375
39.366667	1	0.029375
39.383333	1	0.026750
39.400000	1	0.024125
39.416667	1	0.021375
39.433333	1	0.018500
39.450000	1	0.015750
39.466667	1	0.013375
39.483333	1	0.011250
39.500000	1	0.008250
39.516667	1	0.005875
39.533333	1	0.003125
39.550000	1	0.001125
39.566667	1	-0.000625
39.583333	1	-0.002875
39.600000	1	-0.004625
39.616667	1	-0.005500
39.633333	1	-0.007250
39.650000	1	-0.009250
39.666667	1	-0.010500
39.683333	1	-0.012000
39.700000	1	-0.013000
39.716667	1	-0.013875
39.733333	1	-0.013875
39.750000	1	-0.013875
39.766667	1	-0.014250
39.783333	1	-0.014125
39.800000	1	-0.014875
39.816667	1	-0.014875
39.833333	1	-0.014875
39.850000	1	-0.014000
39.866667	1	-0.013500
39.883333	1	-0.012875
39.900000	1	-0.012375
39.916667	1	-0.011625
39.933333	1	-0.011750
39.950000	1	-0.010375
39.966667	1	-0.009375
39.983333	1	-0.007625
40.000000	1	-0.006250
