URL	chrom://bioreactor/micro_cm7/HPLC_Ultimate_3000/Users/markusar/20240517_CMO_FP23_FP25_MarkusDeplate.seq/728.smp/RI_1.channel/RI_1.chm
Channel	RI_1

Injection Information:
Data Vault	micro_cm7
Sequence	20240517_CMO_FP23_FP25_MarkusDeplate
Name	FP28_22.1_s6
Number	147
Position	BB1
Comment	
Processing Method	
Instrument Method	run_25B_method
Type	Unknown
Status	Finished
Inject Time	31.05.2024 23:30:24 +02:00
Volume (µl)	20.0000
Dilution Factor	1.0000
Weight	1.0000

Chromatogram Data Information:
Time Min. (min)	0.000000
Time Max. (min)	40.000000
Data Points	2401
Detector	RI
Generating Data System	Chromeleon 7.3.2.11814
Exporting Data System	Chromeleon 7.3.2.0
Operator	Instrument Controller
Signal Quantity	Refractive 
Signal Unit	µRIU
Signal Min.	-1.030250
Signal Max.	51.023375
Channel	RI_1
Driver Name	RID520Driver.dll
Channel Type	Evaluation
Min. Step (s)	1
Max. Step (s)	1
Average Step (s)	1

Signal Parameter Information:
Signal Info	

Chromatogram Data:
Time (min)	Step (s)	Value (µRIU)
0.000000	n.a.	-0.016125
0.016667	1	-0.016750
0.033333	1	-0.017625
0.050000	1	-0.018375
0.066667	1	-0.018875
0.083333	1	-0.019875
0.100000	1	-0.020750
0.116667	1	-0.021000
0.133333	1	-0.021375
0.150000	1	-0.022000
0.166667	1	-0.021875
0.183333	1	-0.022625
0.200000	1	-0.022750
0.216667	1	-0.022375
0.233333	1	-0.021625
0.250000	1	-0.020750
0.266667	1	-0.019875
0.283333	1	-0.018875
0.300000	1	-0.017875
0.316667	1	-0.016875
0.333333	1	-0.015750
0.350000	1	-0.015125
0.366667	1	-0.013875
0.383333	1	-0.012375
0.400000	1	-0.011750
0.416667	1	-0.010375
0.433333	1	-0.007625
0.450000	1	-0.006000
0.466667	1	-0.004250
0.483333	1	-0.002000
0.500000	1	-0.000625
0.516667	1	0.001000
0.533333	1	0.001875
0.550000	1	0.003125
0.566667	1	0.004375
0.583333	1	0.005375
0.600000	1	0.006250
0.616667	1	0.007000
0.633333	1	0.007125
0.650000	1	0.007625
0.666667	1	0.008500
0.683333	1	0.008875
0.700000	1	0.010000
0.716667	1	0.010375
0.733333	1	0.011500
0.750000	1	0.012000
0.766667	1	0.012125
0.783333	1	0.012500
0.800000	1	0.014250
0.816667	1	0.015250
0.833333	1	0.016875
0.850000	1	0.018500
0.866667	1	0.019250
0.883333	1	0.020750
0.900000	1	0.022250
0.916667	1	0.024125
0.933333	1	0.026125
0.950000	1	0.027250
0.966667	1	0.029250
0.983333	1	0.031500
1.000000	1	0.033250
1.016667	1	0.034875
1.033333	1	0.036875
1.050000	1	0.038875
1.066667	1	0.040625
1.083333	1	0.042625
1.100000	1	0.044250
1.116667	1	0.045625
1.133333	1	0.046625
1.150000	1	0.048875
1.166667	1	0.050375
1.183333	1	0.051250
1.200000	1	0.051875
1.216667	1	0.053125
1.233333	1	0.053750
1.250000	1	0.054750
1.266667	1	0.054875
1.283333	1	0.055625
1.300000	1	0.056000
1.316667	1	0.057000
1.333333	1	0.056875
1.350000	1	0.057250
1.366667	1	0.057000
1.383333	1	0.057625
1.400000	1	0.058125
1.416667	1	0.058250
1.433333	1	0.058375
1.450000	1	0.058000
1.466667	1	0.058125
1.483333	1	0.057500
1.500000	1	0.057125
1.516667	1	0.056375
1.533333	1	0.055875
1.550000	1	0.055250
1.566667	1	0.054500
1.583333	1	0.053250
1.600000	1	0.053000
1.616667	1	0.051875
1.633333	1	0.051000
1.650000	1	0.049125
1.666667	1	0.048000
1.683333	1	0.047000
1.700000	1	0.045875
1.716667	1	0.044500
1.733333	1	0.041750
1.750000	1	0.039750
1.766667	1	0.038000
1.783333	1	0.035375
1.800000	1	0.033375
1.816667	1	0.031625
1.833333	1	0.029500
1.850000	1	0.027250
1.866667	1	0.025250
1.883333	1	0.022500
1.900000	1	0.020500
1.916667	1	0.017750
1.933333	1	0.015750
1.950000	1	0.013125
1.966667	1	0.011125
1.983333	1	0.009250
2.000000	1	0.007875
2.016667	1	0.005625
2.033333	1	0.003750
2.050000	1	0.002250
2.066667	1	0.000625
2.083333	1	-0.000500
2.100000	1	-0.001875
2.116667	1	-0.003875
2.133333	1	-0.005500
2.150000	1	-0.007125
2.166667	1	-0.009000
2.183333	1	-0.010625
2.200000	1	-0.012000
2.216667	1	-0.014375
2.233333	1	-0.015125
2.250000	1	-0.016250
2.266667	1	-0.017500
2.283333	1	-0.019500
2.300000	1	-0.020625
2.316667	1	-0.022500
2.333333	1	-0.023875
2.350000	1	-0.025500
2.366667	1	-0.026625
2.383333	1	-0.027750
2.400000	1	-0.028625
2.416667	1	-0.030250
2.433333	1	-0.031375
2.450000	1	-0.032500
2.466667	1	-0.033750
2.483333	1	-0.034750
2.500000	1	-0.035000
2.516667	1	-0.035500
2.533333	1	-0.036625
2.550000	1	-0.036500
2.566667	1	-0.036375
2.583333	1	-0.036750
2.600000	1	-0.036750
2.616667	1	-0.036375
2.633333	1	-0.036000
2.650000	1	-0.035875
2.666667	1	-0.035250
2.683333	1	-0.034250
2.700000	1	-0.033250
2.716667	1	-0.032375
2.733333	1	-0.031750
2.750000	1	-0.030750
2.766667	1	-0.029375
2.783333	1	-0.027375
2.800000	1	-0.025625
2.816667	1	-0.024500
2.833333	1	-0.022375
2.850000	1	-0.020750
2.866667	1	-0.018625
2.883333	1	-0.017000
2.900000	1	-0.015500
2.916667	1	-0.014125
2.933333	1	-0.012125
2.950000	1	-0.011000
2.966667	1	-0.009375
2.983333	1	-0.007750
3.000000	1	-0.006125
3.016667	1	-0.004375
3.033333	1	-0.002625
3.050000	1	-0.001375
3.066667	1	0.000625
3.083333	1	0.002750
3.100000	1	0.004250
3.116667	1	0.006375
3.133333	1	0.007875
3.150000	1	0.009625
3.166667	1	0.010875
3.183333	1	0.012625
3.200000	1	0.014125
3.216667	1	0.016250
3.233333	1	0.018625
3.250000	1	0.020250
3.266667	1	0.021875
3.283333	1	0.023000
3.300000	1	0.023375
3.316667	1	0.025250
3.333333	1	0.027500
3.350000	1	0.028875
3.366667	1	0.030375
3.383333	1	0.032375
3.400000	1	0.033875
3.416667	1	0.035500
3.433333	1	0.036875
3.450000	1	0.038125
3.466667	1	0.039125
3.483333	1	0.040875
3.500000	1	0.042625
3.516667	1	0.044250
3.533333	1	0.045500
3.550000	1	0.046875
3.566667	1	0.048750
3.583333	1	0.050375
3.600000	1	0.051875
3.616667	1	0.053750
3.633333	1	0.056125
3.650000	1	0.057625
3.666667	1	0.058875
3.683333	1	0.060125
3.700000	1	0.061125
3.716667	1	0.061750
3.733333	1	0.062500
3.750000	1	0.063375
3.766667	1	0.063750
3.783333	1	0.064000
3.800000	1	0.064875
3.816667	1	0.065250
3.833333	1	0.065375
3.850000	1	0.065125
3.866667	1	0.065250
3.883333	1	0.064750
3.900000	1	0.064000
3.916667	1	0.064500
3.933333	1	0.063875
3.950000	1	0.062500
3.966667	1	0.062125
3.983333	1	0.061625
4.000000	1	0.060875
4.016667	1	0.059625
4.033333	1	0.058125
4.050000	1	0.056750
4.066667	1	0.055875
4.083333	1	0.054875
4.100000	1	0.053750
4.116667	1	0.053125
4.133333	1	0.052375
4.150000	1	0.052000
4.166667	1	0.051125
4.183333	1	0.050625
4.200000	1	0.051125
4.216667	1	0.051250
4.233333	1	0.051500
4.250000	1	0.051875
4.266667	1	0.052000
4.283333	1	0.052000
4.300000	1	0.052875
4.316667	1	0.053125
4.333333	1	0.053625
4.350000	1	0.054500
4.366667	1	0.055750
4.383333	1	0.057125
4.400000	1	0.058625
4.416667	1	0.060000
4.433333	1	0.061875
4.450000	1	0.063625
4.466667	1	0.065500
4.483333	1	0.068000
4.500000	1	0.070125
4.516667	1	0.072375
4.533333	1	0.075250
4.550000	1	0.077625
4.566667	1	0.080250
4.583333	1	0.083000
4.600000	1	0.085750
4.616667	1	0.088625
4.633333	1	0.091750
4.650000	1	0.095000
4.666667	1	0.097750
4.683333	1	0.100875
4.700000	1	0.103625
4.716667	1	0.105875
4.733333	1	0.108125
4.750000	1	0.110625
4.766667	1	0.113250
4.783333	1	0.116000
4.800000	1	0.118500
4.816667	1	0.121000
4.833333	1	0.123250
4.850000	1	0.125375
4.866667	1	0.127500
4.883333	1	0.129875
4.900000	1	0.131500
4.916667	1	0.134000
4.933333	1	0.136125
4.950000	1	0.138125
4.966667	1	0.140000
4.983333	1	0.141625
5.000000	1	0.143500
5.016667	1	0.145375
5.033333	1	0.147500
5.050000	1	0.149250
5.066667	1	0.150500
5.083333	1	0.152375
5.100000	1	0.153625
5.116667	1	0.155125
5.133333	1	0.157250
5.150000	1	0.159125
5.166667	1	0.161125
5.183333	1	0.162250
5.200000	1	0.164500
5.216667	1	0.165750
5.233333	1	0.167625
5.250000	1	0.168625
5.266667	1	0.170625
5.283333	1	0.172000
5.300000	1	0.173875
5.316667	1	0.175750
5.333333	1	0.177375
5.350000	1	0.178750
5.366667	1	0.180500
5.383333	1	0.182375
5.400000	1	0.184250
5.416667	1	0.186375
5.433333	1	0.187500
5.450000	1	0.189375
5.466667	1	0.190875
5.483333	1	0.192625
5.500000	1	0.194625
5.516667	1	0.196000
5.533333	1	0.197250
5.550000	1	0.198875
5.566667	1	0.200750
5.583333	1	0.201875
5.600000	1	0.203625
5.616667	1	0.205625
5.633333	1	0.206625
5.650000	1	0.208750
5.666667	1	0.210000
5.683333	1	0.211250
5.700000	1	0.211625
5.716667	1	0.212750
5.733333	1	0.213875
5.750000	1	0.215125
5.766667	1	0.216000
5.783333	1	0.216500
5.800000	1	0.216375
5.816667	1	0.216625
5.833333	1	0.216125
5.850000	1	0.215750
5.866667	1	0.215250
5.883333	1	0.214375
5.900000	1	0.213375
5.916667	1	0.212000
5.933333	1	0.210750
5.950000	1	0.209625
5.966667	1	0.208125
5.983333	1	0.206500
6.000000	1	0.204875
6.016667	1	0.203375
6.033333	1	0.201250
6.050000	1	0.198250
6.066667	1	0.195250
6.083333	1	0.192625
6.100000	1	0.189000
6.116667	1	0.185625
6.133333	1	0.182250
6.150000	1	0.179125
6.166667	1	0.174625
6.183333	1	0.170750
6.200000	1	0.167375
6.216667	1	0.162750
6.233333	1	0.158375
6.250000	1	0.154500
6.266667	1	0.149625
6.283333	1	0.144625
6.300000	1	0.140375
6.316667	1	0.135875
6.333333	1	0.131750
6.350000	1	0.128375
6.366667	1	0.124000
6.383333	1	0.119375
6.400000	1	0.115875
6.416667	1	0.111625
6.433333	1	0.108000
6.450000	1	0.104375
6.466667	1	0.101125
6.483333	1	0.098125
6.500000	1	0.095125
6.516667	1	0.092000
6.533333	1	0.089375
6.550000	1	0.087125
6.566667	1	0.085000
6.583333	1	0.083000
6.600000	1	0.081375
6.616667	1	0.079500
6.633333	1	0.077250
6.650000	1	0.075875
6.666667	1	0.074875
6.683333	1	0.074000
6.700000	1	0.073750
6.716667	1	0.073500
6.733333	1	0.073375
6.750000	1	0.073875
6.766667	1	0.074125
6.783333	1	0.075375
6.800000	1	0.076750
6.816667	1	0.078375
6.833333	1	0.079625
6.850000	1	0.081625
6.866667	1	0.083625
6.883333	1	0.086500
6.900000	1	0.088750
6.916667	1	0.091875
6.933333	1	0.095750
6.950000	1	0.099000
6.966667	1	0.102375
6.983333	1	0.105875
7.000000	1	0.110125
7.016667	1	0.114125
7.033333	1	0.118375
7.050000	1	0.123000
7.066667	1	0.127250
7.083333	1	0.131625
7.100000	1	0.135125
7.116667	1	0.139875
7.133333	1	0.144250
7.150000	1	0.148000
7.166667	1	0.151500
7.183333	1	0.155625
7.200000	1	0.159000
7.216667	1	0.161750
7.233333	1	0.165250
7.250000	1	0.168375
7.266667	1	0.171625
7.283333	1	0.174125
7.300000	1	0.176500
7.316667	1	0.178875
7.333333	1	0.180500
7.350000	1	0.182000
7.366667	1	0.183750
7.383333	1	0.185625
7.400000	1	0.186625
7.416667	1	0.187750
7.433333	1	0.188375
7.450000	1	0.188625
7.466667	1	0.189125
7.483333	1	0.189250
7.500000	1	0.189750
7.516667	1	0.190375
7.533333	1	0.190625
7.550000	1	0.189875
7.566667	1	0.189375
7.583333	1	0.189125
7.600000	1	0.188250
7.616667	1	0.186875
7.633333	1	0.185250
7.650000	1	0.184750
7.666667	1	0.182625
7.683333	1	0.181500
7.700000	1	0.179500
7.716667	1	0.178000
7.733333	1	0.175875
7.750000	1	0.173750
7.766667	1	0.170875
7.783333	1	0.168875
7.800000	1	0.165875
7.816667	1	0.163250
7.833333	1	0.160125
7.850000	1	0.157000
7.866667	1	0.153625
7.883333	1	0.150000
7.900000	1	0.146875
7.916667	1	0.143625
7.933333	1	0.140250
7.950000	1	0.136375
7.966667	1	0.133000
7.983333	1	0.129125
8.000000	1	0.126000
8.016667	1	0.123000
8.033333	1	0.120000
8.050000	1	0.116625
8.066667	1	0.113625
8.083333	1	0.110375
8.100000	1	0.107875
8.116667	1	0.105375
8.133333	1	0.102750
8.150000	1	0.100125
8.166667	1	0.098500
8.183333	1	0.096750
8.200000	1	0.095375
8.216667	1	0.093875
8.233333	1	0.091250
8.250000	1	0.090250
8.266667	1	0.089000
8.283333	1	0.087875
8.300000	1	0.086500
8.316667	1	0.086125
8.333333	1	0.085000
8.350000	1	0.084000
8.366667	1	0.082500
8.383333	1	0.082000
8.400000	1	0.080875
8.416667	1	0.080000
8.433333	1	0.078750
8.450000	1	0.078375
8.466667	1	0.077625
8.483333	1	0.076625
8.500000	1	0.075750
8.516667	1	0.074500
8.533333	1	0.072375
8.550000	1	0.070625
8.566667	1	0.069500
8.583333	1	0.068125
8.600000	1	0.066750
8.616667	1	0.065500
8.633333	1	0.064875
8.650000	1	0.064375
8.666667	1	0.063375
8.683333	1	0.062375
8.700000	1	0.061625
8.716667	1	0.061750
8.733333	1	0.061625
8.750000	1	0.061250
8.766667	1	0.060875
8.783333	1	0.061625
8.800000	1	0.061875
8.816667	1	0.062625
8.833333	1	0.063250
8.850000	1	0.063375
8.866667	1	0.063750
8.883333	1	0.065125
8.900000	1	0.066500
8.916667	1	0.067625
8.933333	1	0.068750
8.950000	1	0.070000
8.966667	1	0.071125
8.983333	1	0.072875
9.000000	1	0.074250
9.016667	1	0.075375
9.033333	1	0.076625
9.050000	1	0.077375
9.066667	1	0.078375
9.083333	1	0.079500
9.100000	1	0.079750
9.116667	1	0.080250
9.133333	1	0.080750
9.150000	1	0.081125
9.166667	1	0.081125
9.183333	1	0.081250
9.200000	1	0.080625
9.216667	1	0.080250
9.233333	1	0.079250
9.250000	1	0.077500
9.266667	1	0.076000
9.283333	1	0.075000
9.300000	1	0.073875
9.316667	1	0.071625
9.333333	1	0.070375
9.350000	1	0.068875
9.366667	1	0.066750
9.383333	1	0.065500
9.400000	1	0.063625
9.416667	1	0.061625
9.433333	1	0.060000
9.450000	1	0.057250
9.466667	1	0.055000
9.483333	1	0.052250
9.500000	1	0.050875
9.516667	1	0.050125
9.533333	1	0.048625
9.550000	1	0.047250
9.566667	1	0.046375
9.583333	1	0.045500
9.600000	1	0.044250
9.616667	1	0.043625
9.633333	1	0.043000
9.650000	1	0.043000
9.666667	1	0.043500
9.683333	1	0.043250
9.700000	1	0.043500
9.716667	1	0.044375
9.733333	1	0.045375
9.750000	1	0.046000
9.766667	1	0.047625
9.783333	1	0.049125
9.800000	1	0.050125
9.816667	1	0.050625
9.833333	1	0.051750
9.850000	1	0.053000
9.866667	1	0.054375
9.883333	1	0.056125
9.900000	1	0.056500
9.916667	1	0.057000
9.933333	1	0.057750
9.950000	1	0.058875
9.966667	1	0.059375
9.983333	1	0.060250
10.000000	1	0.060875
10.016667	1	0.060625
10.033333	1	0.061000
10.050000	1	0.061375
10.066667	1	0.061500
10.083333	1	0.062375
10.100000	1	0.064250
10.116667	1	0.067000
10.133333	1	0.070250
10.150000	1	0.074625
10.166667	1	0.080125
10.183333	1	0.087000
10.200000	1	0.095625
10.216667	1	0.106250
10.233333	1	0.119500
10.250000	1	0.134875
10.266667	1	0.152750
10.283333	1	0.173500
10.300000	1	0.197375
10.316667	1	0.223500
10.333333	1	0.251875
10.350000	1	0.281000
10.366667	1	0.309500
10.383333	1	0.336000
10.400000	1	0.357625
10.416667	1	0.374125
10.433333	1	0.385500
10.450000	1	0.395125
10.466667	1	0.411375
10.483333	1	0.447625
10.500000	1	0.525000
10.516667	1	0.677125
10.533333	1	0.947625
10.550000	1	1.391625
10.566667	1	2.071625
10.583333	1	3.051250
10.600000	1	4.389625
10.616667	1	6.134250
10.633333	1	8.316500
10.650000	1	10.951500
10.666667	1	14.039125
10.683333	1	17.559375
10.700000	1	21.472250
10.716667	1	25.715125
10.733333	1	30.194875
10.750000	1	34.778250
10.766667	1	39.281750
10.783333	1	43.466750
10.800000	1	47.038000
10.816667	1	49.660750
10.833333	1	51.023375
10.850000	1	50.903250
10.866667	1	49.243000
10.883333	1	46.184375
10.900000	1	42.055500
10.916667	1	37.290125
10.933333	1	32.325250
10.950000	1	27.517625
10.966667	1	23.107625
10.983333	1	19.223500
11.000000	1	15.907250
11.016667	1	13.140875
11.033333	1	10.877125
11.050000	1	9.050375
11.066667	1	7.593125
11.083333	1	6.439000
11.100000	1	5.527625
11.116667	1	4.807625
11.133333	1	4.235250
11.150000	1	3.776375
11.166667	1	3.404375
11.183333	1	3.099375
11.200000	1	2.846875
11.216667	1	2.635500
11.233333	1	2.455250
11.250000	1	2.300375
11.266667	1	2.165250
11.283333	1	2.047000
11.300000	1	1.943000
11.316667	1	1.851500
11.333333	1	1.769250
11.350000	1	1.696250
11.366667	1	1.630750
11.383333	1	1.572875
11.400000	1	1.520125
11.416667	1	1.474000
11.433333	1	1.432875
11.450000	1	1.395875
11.466667	1	1.363000
11.483333	1	1.332750
11.500000	1	1.305750
11.516667	1	1.281375
11.533333	1	1.259625
11.550000	1	1.240375
11.566667	1	1.223125
11.583333	1	1.206625
11.600000	1	1.192625
11.616667	1	1.179750
11.633333	1	1.169250
11.650000	1	1.160500
11.666667	1	1.152750
11.683333	1	1.147375
11.700000	1	1.143375
11.716667	1	1.140875
11.733333	1	1.139375
11.750000	1	1.139875
11.766667	1	1.141000
11.783333	1	1.143625
11.800000	1	1.146875
11.816667	1	1.151250
11.833333	1	1.156375
11.850000	1	1.162375
11.866667	1	1.166375
11.883333	1	1.171500
11.900000	1	1.176625
11.916667	1	1.182000
11.933333	1	1.185875
11.950000	1	1.191000
11.966667	1	1.195625
11.983333	1	1.200250
12.000000	1	1.205000
12.016667	1	1.210250
12.033333	1	1.215375
12.050000	1	1.220625
12.066667	1	1.226500
12.083333	1	1.232750
12.100000	1	1.239250
12.116667	1	1.246375
12.133333	1	1.252625
12.150000	1	1.259125
12.166667	1	1.266750
12.183333	1	1.275125
12.200000	1	1.284625
12.216667	1	1.295875
12.233333	1	1.308875
12.250000	1	1.323125
12.266667	1	1.341250
12.283333	1	1.361875
12.300000	1	1.387000
12.316667	1	1.417625
12.333333	1	1.454500
12.350000	1	1.499500
12.366667	1	1.554375
12.383333	1	1.621625
12.400000	1	1.704125
12.416667	1	1.806375
12.433333	1	1.931750
12.450000	1	2.085500
12.466667	1	2.272125
12.483333	1	2.496625
12.500000	1	2.763000
12.516667	1	3.072875
12.533333	1	3.424500
12.550000	1	3.815375
12.566667	1	4.237750
12.583333	1	4.681000
12.600000	1	5.131250
12.616667	1	5.571750
12.633333	1	5.985125
12.650000	1	6.353875
12.666667	1	6.662750
12.683333	1	6.897750
12.700000	1	7.052000
12.716667	1	7.121500
12.733333	1	7.108375
12.750000	1	7.018875
12.766667	1	6.864000
12.783333	1	6.654125
12.800000	1	6.402750
12.816667	1	6.122375
12.833333	1	5.825250
12.850000	1	5.520625
12.866667	1	5.217500
12.883333	1	4.920875
12.900000	1	4.636500
12.916667	1	4.369875
12.933333	1	4.122500
12.950000	1	3.897125
12.966667	1	3.693750
12.983333	1	3.511375
13.000000	1	3.350125
13.016667	1	3.208000
13.033333	1	3.082750
13.050000	1	2.972625
13.066667	1	2.875125
13.083333	1	2.789500
13.100000	1	2.712750
13.116667	1	2.644500
13.133333	1	2.582750
13.150000	1	2.527000
13.166667	1	2.475875
13.183333	1	2.429375
13.200000	1	2.385125
13.216667	1	2.343750
13.233333	1	2.304125
13.250000	1	2.266125
13.266667	1	2.230375
13.283333	1	2.196125
13.300000	1	2.162375
13.316667	1	2.130500
13.333333	1	2.099500
13.350000	1	2.070250
13.366667	1	2.042375
13.383333	1	2.016875
13.400000	1	1.994375
13.416667	1	1.973875
13.433333	1	1.955750
13.450000	1	1.940125
13.466667	1	1.926750
13.483333	1	1.917000
13.500000	1	1.909000
13.516667	1	1.903875
13.533333	1	1.900500
13.550000	1	1.898375
13.566667	1	1.897375
13.583333	1	1.896375
13.600000	1	1.895000
13.616667	1	1.892500
13.633333	1	1.887375
13.650000	1	1.879875
13.666667	1	1.869125
13.683333	1	1.855625
13.700000	1	1.839000
13.716667	1	1.819250
13.733333	1	1.798250
13.750000	1	1.775125
13.766667	1	1.750750
13.783333	1	1.725750
13.800000	1	1.701750
13.816667	1	1.677125
13.833333	1	1.653500
13.850000	1	1.631000
13.866667	1	1.609750
13.883333	1	1.589250
13.900000	1	1.570500
13.916667	1	1.552750
13.933333	1	1.535875
13.950000	1	1.520125
13.966667	1	1.504875
13.983333	1	1.490875
14.000000	1	1.478125
14.016667	1	1.466000
14.033333	1	1.454750
14.050000	1	1.443125
14.066667	1	1.432375
14.083333	1	1.422375
14.100000	1	1.412750
14.116667	1	1.404625
14.133333	1	1.396500
14.150000	1	1.389250
14.166667	1	1.382500
14.183333	1	1.376500
14.200000	1	1.372250
14.216667	1	1.369000
14.233333	1	1.367875
14.250000	1	1.369000
14.266667	1	1.371625
14.283333	1	1.377375
14.300000	1	1.386000
14.316667	1	1.397875
14.333333	1	1.413500
14.350000	1	1.432625
14.366667	1	1.457375
14.383333	1	1.487875
14.400000	1	1.525750
14.416667	1	1.572750
14.433333	1	1.633000
14.450000	1	1.712000
14.466667	1	1.814875
14.483333	1	1.953250
14.500000	1	2.138750
14.516667	1	2.388375
14.533333	1	2.724375
14.550000	1	3.172500
14.566667	1	3.765000
14.583333	1	4.538625
14.600000	1	5.534250
14.616667	1	6.795875
14.633333	1	8.366500
14.650000	1	10.282625
14.666667	1	12.570375
14.683333	1	15.239000
14.700000	1	18.271750
14.716667	1	21.628500
14.733333	1	25.238375
14.750000	1	29.003500
14.766667	1	32.798625
14.783333	1	36.478000
14.800000	1	39.890000
14.816667	1	42.880625
14.833333	1	45.312375
14.850000	1	47.066000
14.866667	1	48.061000
14.883333	1	48.255000
14.900000	1	47.653375
14.916667	1	46.306875
14.933333	1	44.301625
14.950000	1	41.751875
14.966667	1	38.791875
14.983333	1	35.563750
15.000000	1	32.201000
15.016667	1	28.823000
15.033333	1	25.531125
15.050000	1	22.407625
15.066667	1	19.511125
15.083333	1	16.879750
15.100000	1	14.530000
15.116667	1	12.465125
15.133333	1	10.672750
15.150000	1	9.135125
15.166667	1	7.827500
15.183333	1	6.726250
15.200000	1	5.803375
15.216667	1	5.035000
15.233333	1	4.397500
15.250000	1	3.873250
15.266667	1	3.444750
15.283333	1	3.097375
15.300000	1	2.818875
15.316667	1	2.599125
15.333333	1	2.428000
15.350000	1	2.298375
15.366667	1	2.202250
15.383333	1	2.134625
15.400000	1	2.089750
15.416667	1	2.061500
15.433333	1	2.045500
15.450000	1	2.037500
15.466667	1	2.032875
15.483333	1	2.028125
15.500000	1	2.021250
15.516667	1	2.011375
15.533333	1	1.994875
15.550000	1	1.971250
15.566667	1	1.941625
15.583333	1	1.906875
15.600000	1	1.867375
15.616667	1	1.823875
15.633333	1	1.778625
15.650000	1	1.732125
15.666667	1	1.686000
15.683333	1	1.641500
15.700000	1	1.598625
15.716667	1	1.558250
15.733333	1	1.520250
15.750000	1	1.485750
15.766667	1	1.452750
15.783333	1	1.422500
15.800000	1	1.393625
15.816667	1	1.367500
15.833333	1	1.343000
15.850000	1	1.320500
15.866667	1	1.299125
15.883333	1	1.280000
15.900000	1	1.262250
15.916667	1	1.246750
15.933333	1	1.233750
15.950000	1	1.222875
15.966667	1	1.215125
15.983333	1	1.208250
16.000000	1	1.203875
16.016667	1	1.201000
16.033333	1	1.200375
16.050000	1	1.201375
16.066667	1	1.203250
16.083333	1	1.205750
16.100000	1	1.208875
16.116667	1	1.212125
16.133333	1	1.216125
16.150000	1	1.219375
16.166667	1	1.223125
16.183333	1	1.226500
16.200000	1	1.228625
16.216667	1	1.229625
16.233333	1	1.229750
16.250000	1	1.229000
16.266667	1	1.227500
16.283333	1	1.224375
16.300000	1	1.222000
16.316667	1	1.218625
16.333333	1	1.215625
16.350000	1	1.212875
16.366667	1	1.209750
16.383333	1	1.208500
16.400000	1	1.207375
16.416667	1	1.208500
16.433333	1	1.209750
16.450000	1	1.211750
16.466667	1	1.215625
16.483333	1	1.220375
16.500000	1	1.224625
16.516667	1	1.230250
16.533333	1	1.235000
16.550000	1	1.239250
16.566667	1	1.242625
16.583333	1	1.244375
16.600000	1	1.245500
16.616667	1	1.245250
16.633333	1	1.243625
16.650000	1	1.242000
16.666667	1	1.239000
16.683333	1	1.235875
16.700000	1	1.234000
16.716667	1	1.232750
16.733333	1	1.232500
16.750000	1	1.233250
16.766667	1	1.235625
16.783333	1	1.239125
16.800000	1	1.243500
16.816667	1	1.249500
16.833333	1	1.255625
16.850000	1	1.262375
16.866667	1	1.268250
16.883333	1	1.273750
16.900000	1	1.278500
16.916667	1	1.282250
16.933333	1	1.284875
16.950000	1	1.284625
16.966667	1	1.283125
16.983333	1	1.280500
17.000000	1	1.277625
17.016667	1	1.273625
17.033333	1	1.268625
17.050000	1	1.263000
17.066667	1	1.257500
17.083333	1	1.252000
17.100000	1	1.247250
17.116667	1	1.242750
17.133333	1	1.239500
17.150000	1	1.236875
17.166667	1	1.235750
17.183333	1	1.234875
17.200000	1	1.235125
17.216667	1	1.236625
17.233333	1	1.238250
17.250000	1	1.241000
17.266667	1	1.244625
17.283333	1	1.249125
17.300000	1	1.253625
17.316667	1	1.259250
17.333333	1	1.263875
17.350000	1	1.269750
17.366667	1	1.275250
17.383333	1	1.280625
17.400000	1	1.285500
17.416667	1	1.289625
17.433333	1	1.292500
17.450000	1	1.293875
17.466667	1	1.294125
17.483333	1	1.292500
17.500000	1	1.289875
17.516667	1	1.284000
17.533333	1	1.277125
17.550000	1	1.268625
17.566667	1	1.258375
17.583333	1	1.246500
17.600000	1	1.232750
17.616667	1	1.218500
17.633333	1	1.203625
17.650000	1	1.188750
17.666667	1	1.172625
17.683333	1	1.156625
17.700000	1	1.140875
17.716667	1	1.125125
17.733333	1	1.110750
17.750000	1	1.096875
17.766667	1	1.084125
17.783333	1	1.072125
17.800000	1	1.060500
17.816667	1	1.050625
17.833333	1	1.041375
17.850000	1	1.032750
17.866667	1	1.025000
17.883333	1	1.017750
17.900000	1	1.010500
17.916667	1	1.004125
17.933333	1	0.997625
17.950000	1	0.991500
17.966667	1	0.984250
17.983333	1	0.977375
18.000000	1	0.970500
18.016667	1	0.963750
18.033333	1	0.956375
18.050000	1	0.949125
18.066667	1	0.942250
18.083333	1	0.934625
18.100000	1	0.927125
18.116667	1	0.920250
18.133333	1	0.913375
18.150000	1	0.907500
18.166667	1	0.902375
18.183333	1	0.896750
18.200000	1	0.891875
18.216667	1	0.888125
18.233333	1	0.885375
18.250000	1	0.882500
18.266667	1	0.880250
18.283333	1	0.878250
18.300000	1	0.876750
18.316667	1	0.875500
18.333333	1	0.875250
18.350000	1	0.875875
18.366667	1	0.877000
18.383333	1	0.878625
18.400000	1	0.881875
18.416667	1	0.886750
18.433333	1	0.893000
18.450000	1	0.901000
18.466667	1	0.911250
18.483333	1	0.923250
18.500000	1	0.937250
18.516667	1	0.953125
18.533333	1	0.970625
18.550000	1	0.990750
18.566667	1	1.013625
18.583333	1	1.038500
18.600000	1	1.064125
18.616667	1	1.092000
18.633333	1	1.121500
18.650000	1	1.152750
18.666667	1	1.184875
18.683333	1	1.217375
18.700000	1	1.251500
18.716667	1	1.285750
18.733333	1	1.319625
18.750000	1	1.353250
18.766667	1	1.385625
18.783333	1	1.417625
18.800000	1	1.448250
18.816667	1	1.476750
18.833333	1	1.502500
18.850000	1	1.524625
18.866667	1	1.542500
18.883333	1	1.555375
18.900000	1	1.563375
18.916667	1	1.565000
18.933333	1	1.561125
18.950000	1	1.551625
18.966667	1	1.535625
18.983333	1	1.513125
19.000000	1	1.485125
19.016667	1	1.451875
19.033333	1	1.413500
19.050000	1	1.371250
19.066667	1	1.325375
19.083333	1	1.278250
19.100000	1	1.230750
19.116667	1	1.183125
19.133333	1	1.136000
19.150000	1	1.090500
19.166667	1	1.047375
19.183333	1	1.008000
19.200000	1	0.973625
19.216667	1	0.943125
19.233333	1	0.918625
19.250000	1	0.899125
19.266667	1	0.885000
19.283333	1	0.877375
19.300000	1	0.876125
19.316667	1	0.880125
19.333333	1	0.889375
19.350000	1	0.905125
19.366667	1	0.925375
19.383333	1	0.950250
19.400000	1	0.978375
19.416667	1	1.009875
19.433333	1	1.042125
19.450000	1	1.076000
19.466667	1	1.109125
19.483333	1	1.142125
19.500000	1	1.172250
19.516667	1	1.199875
19.533333	1	1.224625
19.550000	1	1.244875
19.566667	1	1.260875
19.583333	1	1.271500
19.600000	1	1.277750
19.616667	1	1.278250
19.633333	1	1.274125
19.650000	1	1.265125
19.666667	1	1.252375
19.683333	1	1.234875
19.700000	1	1.213750
19.716667	1	1.189750
19.733333	1	1.163500
19.750000	1	1.134875
19.766667	1	1.105375
19.783333	1	1.074625
19.800000	1	1.042375
19.816667	1	1.011125
19.833333	1	0.980125
19.850000	1	0.950125
19.866667	1	0.920875
19.883333	1	0.893500
19.900000	1	0.868125
19.916667	1	0.845625
19.933333	1	0.825625
19.950000	1	0.808750
19.966667	1	0.795875
19.983333	1	0.786875
20.000000	1	0.782000
20.016667	1	0.782125
20.033333	1	0.787000
20.050000	1	0.797000
20.066667	1	0.812250
20.083333	1	0.833625
20.100000	1	0.859500
20.116667	1	0.890875
20.133333	1	0.927000
20.150000	1	0.967000
20.166667	1	1.010375
20.183333	1	1.055250
20.200000	1	1.101250
20.216667	1	1.146750
20.233333	1	1.190625
20.250000	1	1.230000
20.266667	1	1.264250
20.283333	1	1.292750
20.300000	1	1.313750
20.316667	1	1.326750
20.333333	1	1.330875
20.350000	1	1.325375
20.366667	1	1.311250
20.383333	1	1.288750
20.400000	1	1.259750
20.416667	1	1.224125
20.433333	1	1.183750
20.450000	1	1.140375
20.466667	1	1.095250
20.483333	1	1.050125
20.500000	1	1.007375
20.516667	1	0.968375
20.533333	1	0.934125
20.550000	1	0.906125
20.566667	1	0.885500
20.583333	1	0.872375
20.600000	1	0.867625
20.616667	1	0.872750
20.633333	1	0.887875
20.650000	1	0.912250
20.666667	1	0.946500
20.683333	1	0.989625
20.700000	1	1.041500
20.716667	1	1.101500
20.733333	1	1.167875
20.750000	1	1.238750
20.766667	1	1.312500
20.783333	1	1.386750
20.800000	1	1.459375
20.816667	1	1.527625
20.833333	1	1.589375
20.850000	1	1.643500
20.866667	1	1.686375
20.883333	1	1.718250
20.900000	1	1.737250
20.916667	1	1.742250
20.933333	1	1.733875
20.950000	1	1.712625
20.966667	1	1.679125
20.983333	1	1.634375
21.000000	1	1.581125
21.016667	1	1.519875
21.033333	1	1.453375
21.050000	1	1.383250
21.066667	1	1.311875
21.083333	1	1.239750
21.100000	1	1.169625
21.116667	1	1.102875
21.133333	1	1.039000
21.150000	1	0.979375
21.166667	1	0.924000
21.183333	1	0.873625
21.200000	1	0.828250
21.216667	1	0.787125
21.233333	1	0.750375
21.250000	1	0.718250
21.266667	1	0.691000
21.283333	1	0.666625
21.300000	1	0.646750
21.316667	1	0.629500
21.333333	1	0.614250
21.350000	1	0.601875
21.366667	1	0.591250
21.383333	1	0.582750
21.400000	1	0.575375
21.416667	1	0.569125
21.433333	1	0.564625
21.450000	1	0.562250
21.466667	1	0.560500
21.483333	1	0.559750
21.500000	1	0.560750
21.516667	1	0.563250
21.533333	1	0.566750
21.550000	1	0.572500
21.566667	1	0.579375
21.583333	1	0.588875
21.600000	1	0.600250
21.616667	1	0.613375
21.633333	1	0.630125
21.650000	1	0.649375
21.666667	1	0.671500
21.683333	1	0.695875
21.700000	1	0.723500
21.716667	1	0.753875
21.733333	1	0.786375
21.750000	1	0.822500
21.766667	1	0.861625
21.783333	1	0.902000
21.800000	1	0.944125
21.816667	1	0.986250
21.833333	1	1.028625
21.850000	1	1.069875
21.866667	1	1.109250
21.883333	1	1.146875
21.900000	1	1.181125
21.916667	1	1.211125
21.933333	1	1.236500
21.950000	1	1.256875
21.966667	1	1.271500
21.983333	1	1.280375
22.000000	1	1.282750
22.016667	1	1.279625
22.033333	1	1.270750
22.050000	1	1.256750
22.066667	1	1.236875
22.083333	1	1.214125
22.100000	1	1.187875
22.116667	1	1.157750
22.133333	1	1.125500
22.150000	1	1.091375
22.166667	1	1.056250
22.183333	1	1.020375
22.200000	1	0.984250
22.216667	1	0.948750
22.233333	1	0.913375
22.250000	1	0.878125
22.266667	1	0.844000
22.283333	1	0.811625
22.300000	1	0.781125
22.316667	1	0.751500
22.333333	1	0.723750
22.350000	1	0.698000
22.366667	1	0.673250
22.383333	1	0.649875
22.400000	1	0.628875
22.416667	1	0.608875
22.433333	1	0.592000
22.450000	1	0.575250
22.466667	1	0.560875
22.483333	1	0.548500
22.500000	1	0.537125
22.516667	1	0.526250
22.533333	1	0.517250
22.550000	1	0.509250
22.566667	1	0.501750
22.583333	1	0.495000
22.600000	1	0.488875
22.616667	1	0.481875
22.633333	1	0.476750
22.650000	1	0.471875
22.666667	1	0.466125
22.683333	1	0.461125
22.700000	1	0.455625
22.716667	1	0.449250
22.733333	1	0.443000
22.750000	1	0.437500
22.766667	1	0.430750
22.783333	1	0.423875
22.800000	1	0.417500
22.816667	1	0.410750
22.833333	1	0.404000
22.850000	1	0.398000
22.866667	1	0.391625
22.883333	1	0.385875
22.900000	1	0.380500
22.916667	1	0.374875
22.933333	1	0.369875
22.950000	1	0.365625
22.966667	1	0.361875
22.983333	1	0.358750
23.000000	1	0.356250
23.016667	1	0.353500
23.033333	1	0.352375
23.050000	1	0.351375
23.066667	1	0.350750
23.083333	1	0.350625
23.100000	1	0.351625
23.116667	1	0.353250
23.133333	1	0.354875
23.150000	1	0.357250
23.166667	1	0.360625
23.183333	1	0.364125
23.200000	1	0.368375
23.216667	1	0.373125
23.233333	1	0.379875
23.250000	1	0.386875
23.266667	1	0.395875
23.283333	1	0.407000
23.300000	1	0.420750
23.316667	1	0.436375
23.333333	1	0.456250
23.350000	1	0.480750
23.366667	1	0.509500
23.383333	1	0.543750
23.400000	1	0.585125
23.416667	1	0.634875
23.433333	1	0.693625
23.450000	1	0.763375
23.466667	1	0.844625
23.483333	1	0.939375
23.500000	1	1.048500
23.516667	1	1.174625
23.533333	1	1.316750
23.550000	1	1.476750
23.566667	1	1.654625
23.583333	1	1.850500
23.600000	1	2.064000
23.616667	1	2.293625
23.633333	1	2.539375
23.650000	1	2.795750
23.666667	1	3.062250
23.683333	1	3.333750
23.700000	1	3.607250
23.716667	1	3.877250
23.733333	1	4.139750
23.750000	1	4.389000
23.766667	1	4.619125
23.783333	1	4.825125
23.800000	1	5.002375
23.816667	1	5.146000
23.833333	1	5.255125
23.850000	1	5.325500
23.866667	1	5.356875
23.883333	1	5.349000
23.900000	1	5.303500
23.916667	1	5.220750
23.933333	1	5.103375
23.950000	1	4.955625
23.966667	1	4.780375
23.983333	1	4.583625
24.000000	1	4.368625
24.016667	1	4.140500
24.033333	1	3.903875
24.050000	1	3.663375
24.066667	1	3.422625
24.083333	1	3.184875
24.100000	1	2.952375
24.116667	1	2.728000
24.133333	1	2.513625
24.150000	1	2.310750
24.166667	1	2.120375
24.183333	1	1.942250
24.200000	1	1.777875
24.216667	1	1.626500
24.233333	1	1.488500
24.250000	1	1.363000
24.266667	1	1.249000
24.283333	1	1.145875
24.300000	1	1.053000
24.316667	1	0.969000
24.333333	1	0.895375
24.350000	1	0.829125
24.366667	1	0.771000
24.383333	1	0.719500
24.400000	1	0.674750
24.416667	1	0.635875
24.433333	1	0.603125
24.450000	1	0.574125
24.466667	1	0.549000
24.483333	1	0.528625
24.500000	1	0.511625
24.516667	1	0.496750
24.533333	1	0.485250
24.550000	1	0.475875
24.566667	1	0.468125
24.583333	1	0.461250
24.600000	1	0.455125
24.616667	1	0.450000
24.633333	1	0.445875
24.650000	1	0.442375
24.666667	1	0.439500
24.683333	1	0.437000
24.700000	1	0.434250
24.716667	1	0.431500
24.733333	1	0.428125
24.750000	1	0.425000
24.766667	1	0.421500
24.783333	1	0.418250
24.800000	1	0.414500
24.816667	1	0.410625
24.833333	1	0.406875
24.850000	1	0.403125
24.866667	1	0.399250
24.883333	1	0.396000
24.900000	1	0.391875
24.916667	1	0.388625
24.933333	1	0.384500
24.950000	1	0.381000
24.966667	1	0.376750
24.983333	1	0.373375
25.000000	1	0.369500
25.016667	1	0.366125
25.033333	1	0.362375
25.050000	1	0.358750
25.066667	1	0.355375
25.083333	1	0.351500
25.100000	1	0.348500
25.116667	1	0.345250
25.133333	1	0.341625
25.150000	1	0.337625
25.166667	1	0.334375
25.183333	1	0.330500
25.200000	1	0.327125
25.216667	1	0.324000
25.233333	1	0.320875
25.250000	1	0.317500
25.266667	1	0.313750
25.283333	1	0.310625
25.300000	1	0.307750
25.316667	1	0.304500
25.333333	1	0.302125
25.350000	1	0.298875
25.366667	1	0.296625
25.383333	1	0.294000
25.400000	1	0.291875
25.416667	1	0.289500
25.433333	1	0.287625
25.450000	1	0.286750
25.466667	1	0.285750
25.483333	1	0.285125
25.500000	1	0.284500
25.516667	1	0.284250
25.533333	1	0.284000
25.550000	1	0.284000
25.566667	1	0.283250
25.583333	1	0.284250
25.600000	1	0.285000
25.616667	1	0.286125
25.633333	1	0.286375
25.650000	1	0.286875
25.666667	1	0.287875
25.683333	1	0.288500
25.700000	1	0.289500
25.716667	1	0.289750
25.733333	1	0.290625
25.750000	1	0.291125
25.766667	1	0.291250
25.783333	1	0.292000
25.800000	1	0.292000
25.816667	1	0.292125
25.833333	1	0.292750
25.850000	1	0.292750
25.866667	1	0.293750
25.883333	1	0.294750
25.900000	1	0.295875
25.916667	1	0.296625
25.933333	1	0.298000
25.950000	1	0.299000
25.966667	1	0.301375
25.983333	1	0.303500
26.000000	1	0.305750
26.016667	1	0.308375
26.033333	1	0.312000
26.050000	1	0.316125
26.066667	1	0.320875
26.083333	1	0.325125
26.100000	1	0.330250
26.116667	1	0.335375
26.133333	1	0.340375
26.150000	1	0.345875
26.166667	1	0.351750
26.183333	1	0.357125
26.200000	1	0.362875
26.216667	1	0.368750
26.233333	1	0.374750
26.250000	1	0.380125
26.266667	1	0.384375
26.283333	1	0.388000
26.300000	1	0.391875
26.316667	1	0.395500
26.333333	1	0.398125
26.350000	1	0.400000
26.366667	1	0.400250
26.383333	1	0.400625
26.400000	1	0.399500
26.416667	1	0.398500
26.433333	1	0.396125
26.450000	1	0.393125
26.466667	1	0.389750
26.483333	1	0.384625
26.500000	1	0.379750
26.516667	1	0.373875
26.533333	1	0.367875
26.550000	1	0.360500
26.566667	1	0.353500
26.583333	1	0.345875
26.600000	1	0.337875
26.616667	1	0.329250
26.633333	1	0.321375
26.650000	1	0.313125
26.666667	1	0.305500
26.683333	1	0.298500
26.700000	1	0.290875
26.716667	1	0.283000
26.733333	1	0.276125
26.750000	1	0.268375
26.766667	1	0.261625
26.783333	1	0.255875
26.800000	1	0.250375
26.816667	1	0.245125
26.833333	1	0.240500
26.850000	1	0.235750
26.866667	1	0.232500
26.883333	1	0.229750
26.900000	1	0.226750
26.916667	1	0.224125
26.933333	1	0.222375
26.950000	1	0.220875
26.966667	1	0.220000
26.983333	1	0.220375
27.000000	1	0.220000
27.016667	1	0.220500
27.033333	1	0.222250
27.050000	1	0.224500
27.066667	1	0.226750
27.083333	1	0.230125
27.100000	1	0.234250
27.116667	1	0.239250
27.133333	1	0.244500
27.150000	1	0.251125
27.166667	1	0.260000
27.183333	1	0.270875
27.200000	1	0.281750
27.216667	1	0.295250
27.233333	1	0.311000
27.250000	1	0.328750
27.266667	1	0.349375
27.283333	1	0.373375
27.300000	1	0.400250
27.316667	1	0.431375
27.333333	1	0.466375
27.350000	1	0.506375
27.366667	1	0.552125
27.383333	1	0.603875
27.400000	1	0.662250
27.416667	1	0.728625
27.433333	1	0.802625
27.450000	1	0.885375
27.466667	1	0.977125
27.483333	1	1.078000
27.500000	1	1.188375
27.516667	1	1.309125
27.533333	1	1.439500
27.550000	1	1.579500
27.566667	1	1.729250
27.583333	1	1.887125
27.600000	1	2.053625
27.616667	1	2.227375
27.633333	1	2.406000
27.650000	1	2.589625
27.666667	1	2.776000
27.683333	1	2.963375
27.700000	1	3.148500
27.716667	1	3.329000
27.733333	1	3.503125
27.750000	1	3.667625
27.766667	1	3.819500
27.783333	1	3.957750
27.800000	1	4.080000
27.816667	1	4.183000
27.833333	1	4.266000
27.850000	1	4.327375
27.866667	1	4.365875
27.883333	1	4.381000
27.900000	1	4.371125
27.916667	1	4.336625
27.933333	1	4.278750
27.950000	1	4.198500
27.966667	1	4.098000
27.983333	1	3.978750
28.000000	1	3.842375
28.016667	1	3.691625
28.033333	1	3.529500
28.050000	1	3.357125
28.066667	1	3.178875
28.083333	1	2.995875
28.100000	1	2.810375
28.116667	1	2.626250
28.133333	1	2.445000
28.150000	1	2.268375
28.166667	1	2.097750
28.183333	1	1.935250
28.200000	1	1.780750
28.216667	1	1.636125
28.233333	1	1.500625
28.250000	1	1.375750
28.266667	1	1.259625
28.283333	1	1.153875
28.300000	1	1.058000
28.316667	1	0.970750
28.333333	1	0.892000
28.350000	1	0.821625
28.366667	1	0.759125
28.383333	1	0.704375
28.400000	1	0.656625
28.416667	1	0.614375
28.433333	1	0.578375
28.450000	1	0.547250
28.466667	1	0.521500
28.483333	1	0.499625
28.500000	1	0.482125
28.516667	1	0.468375
28.533333	1	0.457750
28.550000	1	0.450875
28.566667	1	0.445750
28.583333	1	0.443500
28.600000	1	0.443125
28.616667	1	0.445250
28.633333	1	0.449250
28.650000	1	0.454125
28.666667	1	0.460000
28.683333	1	0.466500
28.700000	1	0.474875
28.716667	1	0.483750
28.733333	1	0.493250
28.750000	1	0.503125
28.766667	1	0.512625
28.783333	1	0.522000
28.800000	1	0.531500
28.816667	1	0.541125
28.833333	1	0.549375
28.850000	1	0.557625
28.866667	1	0.564375
28.883333	1	0.570125
28.900000	1	0.575125
28.916667	1	0.578875
28.933333	1	0.581500
28.950000	1	0.582250
28.966667	1	0.581625
28.983333	1	0.579750
29.000000	1	0.576000
29.016667	1	0.570625
29.033333	1	0.563750
29.050000	1	0.554750
29.066667	1	0.544000
29.083333	1	0.531250
29.100000	1	0.515625
29.116667	1	0.498250
29.133333	1	0.479375
29.150000	1	0.458125
29.166667	1	0.434500
29.183333	1	0.409000
29.200000	1	0.381500
29.216667	1	0.351500
29.233333	1	0.319750
29.250000	1	0.285625
29.266667	1	0.248750
29.283333	1	0.210500
29.300000	1	0.168875
29.316667	1	0.125250
29.333333	1	0.080250
29.350000	1	0.033500
29.366667	1	-0.015500
29.383333	1	-0.066375
29.400000	1	-0.118375
29.416667	1	-0.171875
29.433333	1	-0.226250
29.450000	1	-0.281750
29.466667	1	-0.337500
29.483333	1	-0.393625
29.500000	1	-0.449750
29.516667	1	-0.505875
29.533333	1	-0.560125
29.550000	1	-0.613000
29.566667	1	-0.664250
29.583333	1	-0.714250
29.600000	1	-0.761500
29.616667	1	-0.805875
29.633333	1	-0.847250
29.650000	1	-0.885250
29.666667	1	-0.918500
29.683333	1	-0.947500
29.700000	1	-0.973000
29.716667	1	-0.993750
29.733333	1	-1.010375
29.750000	1	-1.021750
29.766667	1	-1.028125
29.783333	1	-1.030250
29.800000	1	-1.027375
29.816667	1	-1.020125
29.833333	1	-1.007875
29.850000	1	-0.992125
29.866667	1	-0.972250
29.883333	1	-0.948750
29.900000	1	-0.922875
29.916667	1	-0.893375
29.933333	1	-0.861000
29.950000	1	-0.826750
29.966667	1	-0.790250
29.983333	1	-0.753000
30.000000	1	-0.714000
30.016667	1	-0.674750
30.033333	1	-0.634250
30.050000	1	-0.593625
30.066667	1	-0.553250
30.083333	1	-0.513750
30.100000	1	-0.474875
30.116667	1	-0.436625
30.133333	1	-0.399375
30.150000	1	-0.363375
30.166667	1	-0.329125
30.183333	1	-0.296500
30.200000	1	-0.265125
30.216667	1	-0.235500
30.233333	1	-0.207875
30.250000	1	-0.181000
30.266667	1	-0.156750
30.283333	1	-0.133375
30.300000	1	-0.112500
30.316667	1	-0.092625
30.333333	1	-0.074500
30.350000	1	-0.058375
30.366667	1	-0.043625
30.383333	1	-0.029500
30.400000	1	-0.016500
30.416667	1	-0.004875
30.433333	1	0.005625
30.450000	1	0.016000
30.466667	1	0.025500
30.483333	1	0.034250
30.500000	1	0.042875
30.516667	1	0.050000
30.533333	1	0.057625
30.550000	1	0.064500
30.566667	1	0.071625
30.583333	1	0.079250
30.600000	1	0.086875
30.616667	1	0.093125
30.633333	1	0.100500
30.650000	1	0.108000
30.666667	1	0.116500
30.683333	1	0.125125
30.700000	1	0.134000
30.716667	1	0.142500
30.733333	1	0.152125
30.750000	1	0.162250
30.766667	1	0.172625
30.783333	1	0.183125
30.800000	1	0.194750
30.816667	1	0.206500
30.833333	1	0.219375
30.850000	1	0.231875
30.866667	1	0.245500
30.883333	1	0.260125
30.900000	1	0.274750
30.916667	1	0.290125
30.933333	1	0.306625
30.950000	1	0.325250
30.966667	1	0.344875
30.983333	1	0.365625
31.000000	1	0.388125
31.016667	1	0.412750
31.033333	1	0.439250
31.050000	1	0.468625
31.066667	1	0.500000
31.083333	1	0.535250
31.100000	1	0.574250
31.116667	1	0.617375
31.133333	1	0.663750
31.150000	1	0.714625
31.166667	1	0.770250
31.183333	1	0.831250
31.200000	1	0.898250
31.216667	1	0.970625
31.233333	1	1.047750
31.250000	1	1.130375
31.266667	1	1.218625
31.283333	1	1.311750
31.300000	1	1.409125
31.316667	1	1.511000
31.333333	1	1.616875
31.350000	1	1.725875
31.366667	1	1.837125
31.383333	1	1.949625
31.400000	1	2.062250
31.416667	1	2.174000
31.433333	1	2.283500
31.450000	1	2.389875
31.466667	1	2.491375
31.483333	1	2.587500
31.500000	1	2.675875
31.516667	1	2.756000
31.533333	1	2.826875
31.550000	1	2.886875
31.566667	1	2.936500
31.583333	1	2.974500
31.600000	1	3.000375
31.616667	1	3.013375
31.633333	1	3.013500
31.650000	1	3.001125
31.666667	1	2.976875
31.683333	1	2.940500
31.700000	1	2.893000
31.716667	1	2.835375
31.733333	1	2.766375
31.750000	1	2.689500
31.766667	1	2.604750
31.783333	1	2.513375
31.800000	1	2.417125
31.816667	1	2.316250
31.833333	1	2.211375
31.850000	1	2.104250
31.866667	1	1.996000
31.883333	1	1.888250
31.900000	1	1.781125
31.916667	1	1.675750
31.933333	1	1.572750
31.950000	1	1.472875
31.966667	1	1.376000
31.983333	1	1.282125
32.000000	1	1.193000
32.016667	1	1.107500
32.033333	1	1.027250
32.050000	1	0.950250
32.066667	1	0.879000
32.083333	1	0.811375
32.100000	1	0.748500
32.116667	1	0.689750
32.133333	1	0.635875
32.150000	1	0.585625
32.166667	1	0.538750
32.183333	1	0.495250
32.200000	1	0.455125
32.216667	1	0.417750
32.233333	1	0.382875
32.250000	1	0.351750
32.266667	1	0.322875
32.283333	1	0.296625
32.300000	1	0.272250
32.316667	1	0.249250
32.333333	1	0.228625
32.350000	1	0.210000
32.366667	1	0.192750
32.383333	1	0.176875
32.400000	1	0.162125
32.416667	1	0.148750
32.433333	1	0.136375
32.450000	1	0.125375
32.466667	1	0.115125
32.483333	1	0.106875
32.500000	1	0.098625
32.516667	1	0.091625
32.533333	1	0.084375
32.550000	1	0.077625
32.566667	1	0.072000
32.583333	1	0.066750
32.600000	1	0.062500
32.616667	1	0.058875
32.633333	1	0.054875
32.650000	1	0.051125
32.666667	1	0.048125
32.683333	1	0.044875
32.700000	1	0.042250
32.716667	1	0.039750
32.733333	1	0.037875
32.750000	1	0.034500
32.766667	1	0.032375
32.783333	1	0.030500
32.800000	1	0.028750
32.816667	1	0.026000
32.833333	1	0.023625
32.850000	1	0.022250
32.866667	1	0.019375
32.883333	1	0.017250
32.900000	1	0.014625
32.916667	1	0.012125
32.933333	1	0.010000
32.950000	1	0.008500
32.966667	1	0.006250
32.983333	1	0.004375
33.000000	1	0.002625
33.016667	1	0.000000
33.033333	1	-0.002750
33.050000	1	-0.004375
33.066667	1	-0.006000
33.083333	1	-0.007750
33.100000	1	-0.009250
33.116667	1	-0.011000
33.133333	1	-0.011750
33.150000	1	-0.013000
33.166667	1	-0.013125
33.183333	1	-0.014125
33.200000	1	-0.015000
33.216667	1	-0.014875
33.233333	1	-0.015250
33.250000	1	-0.014875
33.266667	1	-0.014625
33.283333	1	-0.014250
33.300000	1	-0.013500
33.316667	1	-0.013000
33.333333	1	-0.011625
33.350000	1	-0.009875
33.366667	1	-0.008250
33.383333	1	-0.006500
33.400000	1	-0.004875
33.416667	1	-0.002125
33.433333	1	0.000250
33.450000	1	0.002000
33.466667	1	0.004750
33.483333	1	0.007875
33.500000	1	0.011000
33.516667	1	0.014375
33.533333	1	0.018000
33.550000	1	0.021750
33.566667	1	0.025875
33.583333	1	0.028000
33.600000	1	0.032375
33.616667	1	0.036125
33.633333	1	0.039625
33.650000	1	0.043000
33.666667	1	0.046625
33.683333	1	0.050375
33.700000	1	0.054125
33.716667	1	0.057000
33.733333	1	0.060250
33.750000	1	0.063500
33.766667	1	0.066250
33.783333	1	0.069250
33.800000	1	0.071625
33.816667	1	0.074625
33.833333	1	0.077000
33.850000	1	0.078875
33.866667	1	0.080750
33.883333	1	0.082250
33.900000	1	0.084250
33.916667	1	0.086375
33.933333	1	0.087375
33.950000	1	0.088375
33.966667	1	0.088625
33.983333	1	0.089375
34.000000	1	0.089750
34.016667	1	0.090125
34.033333	1	0.090000
34.050000	1	0.090000
34.066667	1	0.089625
34.083333	1	0.089375
34.100000	1	0.089250
34.116667	1	0.088375
34.133333	1	0.087375
34.150000	1	0.086625
34.166667	1	0.086000
34.183333	1	0.085625
34.200000	1	0.085500
34.216667	1	0.085250
34.233333	1	0.085000
34.250000	1	0.085500
34.266667	1	0.085875
34.283333	1	0.086125
34.300000	1	0.086250
34.316667	1	0.087375
34.333333	1	0.088500
34.350000	1	0.090250
34.366667	1	0.092375
34.383333	1	0.094375
34.400000	1	0.096500
34.416667	1	0.098625
34.433333	1	0.102000
34.450000	1	0.105250
34.466667	1	0.108500
34.483333	1	0.111875
34.500000	1	0.115375
34.516667	1	0.119875
34.533333	1	0.123375
34.550000	1	0.127375
34.566667	1	0.131250
34.583333	1	0.134375
34.600000	1	0.138000
34.616667	1	0.140750
34.633333	1	0.144125
34.650000	1	0.147500
34.666667	1	0.150875
34.683333	1	0.153375
34.700000	1	0.155500
34.716667	1	0.157375
34.733333	1	0.159750
34.750000	1	0.161750
34.766667	1	0.163000
34.783333	1	0.164250
34.800000	1	0.164500
34.816667	1	0.165125
34.833333	1	0.165500
34.850000	1	0.165125
34.866667	1	0.164125
34.883333	1	0.162625
34.900000	1	0.162125
34.916667	1	0.161375
34.933333	1	0.159875
34.950000	1	0.158875
34.966667	1	0.157500
34.983333	1	0.155875
35.000000	1	0.153625
35.016667	1	0.151875
35.033333	1	0.149875
35.050000	1	0.147875
35.066667	1	0.146000
35.083333	1	0.143750
35.100000	1	0.142000
35.116667	1	0.139875
35.133333	1	0.137875
35.150000	1	0.136125
35.166667	1	0.134375
35.183333	1	0.132125
35.200000	1	0.129750
35.216667	1	0.127750
35.233333	1	0.125125
35.250000	1	0.123125
35.266667	1	0.121000
35.283333	1	0.119875
35.300000	1	0.118500
35.316667	1	0.116750
35.333333	1	0.115250
35.350000	1	0.114125
35.366667	1	0.113125
35.383333	1	0.111875
35.400000	1	0.110250
35.416667	1	0.109125
35.433333	1	0.107625
35.450000	1	0.106750
35.466667	1	0.105875
35.483333	1	0.105250
35.500000	1	0.105375
35.516667	1	0.105125
35.533333	1	0.105375
35.550000	1	0.105875
35.566667	1	0.106500
35.583333	1	0.106625
35.600000	1	0.106875
35.616667	1	0.107375
35.633333	1	0.108500
35.650000	1	0.108750
35.666667	1	0.109250
35.683333	1	0.109625
35.700000	1	0.110375
35.716667	1	0.111500
35.733333	1	0.112500
35.750000	1	0.113125
35.766667	1	0.113625
35.783333	1	0.113875
35.800000	1	0.113750
35.816667	1	0.113875
35.833333	1	0.114000
35.850000	1	0.113750
35.866667	1	0.113125
35.883333	1	0.112625
35.900000	1	0.111625
35.916667	1	0.111375
35.933333	1	0.110625
35.950000	1	0.110000
35.966667	1	0.108750
35.983333	1	0.107625
36.000000	1	0.105750
36.016667	1	0.104375
36.033333	1	0.102375
36.050000	1	0.100875
36.066667	1	0.099500
36.083333	1	0.098625
36.100000	1	0.096625
36.116667	1	0.094875
36.133333	1	0.093125
36.150000	1	0.092000
36.166667	1	0.090375
36.183333	1	0.088750
36.200000	1	0.087375
36.216667	1	0.085750
36.233333	1	0.083875
36.250000	1	0.082750
36.266667	1	0.081875
36.283333	1	0.080625
36.300000	1	0.079750
36.316667	1	0.078750
36.333333	1	0.078250
36.350000	1	0.077625
36.366667	1	0.076250
36.383333	1	0.075375
36.400000	1	0.074625
36.416667	1	0.073250
36.433333	1	0.073250
36.450000	1	0.072000
36.466667	1	0.071375
36.483333	1	0.070625
36.500000	1	0.069250
36.516667	1	0.068125
36.533333	1	0.066750
36.550000	1	0.065625
36.566667	1	0.064250
36.583333	1	0.063250
36.600000	1	0.061875
36.616667	1	0.060625
36.633333	1	0.058750
36.650000	1	0.057250
36.666667	1	0.055750
36.683333	1	0.054750
36.700000	1	0.052375
36.716667	1	0.051125
36.733333	1	0.049000
36.750000	1	0.047125
36.766667	1	0.045000
36.783333	1	0.042875
36.800000	1	0.041750
36.816667	1	0.040000
36.833333	1	0.038750
36.850000	1	0.037000
36.866667	1	0.035750
36.883333	1	0.034875
36.900000	1	0.033500
36.916667	1	0.032250
36.933333	1	0.031125
36.950000	1	0.030250
36.966667	1	0.029500
36.983333	1	0.029125
37.000000	1	0.028125
37.016667	1	0.027875
37.033333	1	0.028000
37.050000	1	0.027250
37.066667	1	0.027000
37.083333	1	0.027125
37.100000	1	0.027750
37.116667	1	0.027625
37.133333	1	0.028250
37.150000	1	0.027625
37.166667	1	0.028125
37.183333	1	0.028125
37.200000	1	0.028000
37.216667	1	0.028125
37.233333	1	0.028250
37.250000	1	0.028500
37.266667	1	0.028875
37.283333	1	0.029000
37.300000	1	0.029625
37.316667	1	0.029875
37.333333	1	0.029625
37.350000	1	0.029125
37.366667	1	0.028875
37.383333	1	0.028625
37.400000	1	0.028125
37.416667	1	0.027750
37.433333	1	0.027250
37.450000	1	0.026875
37.466667	1	0.026375
37.483333	1	0.026000
37.500000	1	0.025125
37.516667	1	0.024250
37.533333	1	0.023750
37.550000	1	0.024125
37.566667	1	0.023000
37.583333	1	0.022875
37.600000	1	0.021625
37.616667	1	0.020875
37.633333	1	0.019750
37.650000	1	0.018875
37.666667	1	0.018750
37.683333	1	0.017625
37.700000	1	0.017375
37.716667	1	0.016500
37.733333	1	0.016500
37.750000	1	0.015375
37.766667	1	0.014875
37.783333	1	0.014750
37.800000	1	0.014250
37.816667	1	0.013625
37.833333	1	0.013625
37.850000	1	0.013750
37.866667	1	0.014125
37.883333	1	0.014375
37.900000	1	0.014875
37.916667	1	0.015625
37.933333	1	0.016125
37.950000	1	0.016500
37.966667	1	0.016750
37.983333	1	0.017250
38.000000	1	0.017750
38.016667	1	0.018125
38.033333	1	0.019375
38.050000	1	0.019500
38.066667	1	0.020000
38.083333	1	0.020875
38.100000	1	0.021875
38.116667	1	0.022375
38.133333	1	0.023125
38.150000	1	0.023500
38.166667	1	0.023750
38.183333	1	0.024375
38.200000	1	0.024875
38.216667	1	0.024875
38.233333	1	0.024625
38.250000	1	0.024875
38.266667	1	0.025000
38.283333	1	0.024625
38.300000	1	0.024250
38.316667	1	0.024625
38.333333	1	0.024125
38.350000	1	0.023750
38.366667	1	0.023000
38.383333	1	0.022375
38.400000	1	0.021625
38.416667	1	0.020000
38.433333	1	0.019375
38.450000	1	0.018000
38.466667	1	0.016625
38.483333	1	0.014250
38.500000	1	0.012625
38.516667	1	0.010875
38.533333	1	0.009250
38.550000	1	0.007125
38.566667	1	0.004750
38.583333	1	0.002500
38.600000	1	0.000625
38.616667	1	-0.001875
38.633333	1	-0.004000
38.650000	1	-0.006125
38.666667	1	-0.008000
38.683333	1	-0.009375
38.700000	1	-0.011375
38.716667	1	-0.012875
38.733333	1	-0.014750
38.750000	1	-0.016625
38.766667	1	-0.018125
38.783333	1	-0.019750
38.800000	1	-0.020500
38.816667	1	-0.020750
38.833333	1	-0.021500
38.850000	1	-0.021250
38.866667	1	-0.020375
38.883333	1	-0.019625
38.900000	1	-0.019500
38.916667	1	-0.019625
38.933333	1	-0.019500
38.950000	1	-0.018250
38.966667	1	-0.017375
38.983333	1	-0.016625
39.000000	1	-0.015750
39.016667	1	-0.014875
39.033333	1	-0.013625
39.050000	1	-0.012875
39.066667	1	-0.011500
39.083333	1	-0.010875
39.100000	1	-0.009000
39.116667	1	-0.008000
39.133333	1	-0.007375
39.150000	1	-0.007250
39.166667	1	-0.006250
39.183333	1	-0.005375
39.200000	1	-0.005125
39.216667	1	-0.005500
39.233333	1	-0.004875
39.250000	1	-0.004375
39.266667	1	-0.003750
39.283333	1	-0.003750
39.300000	1	-0.003250
39.316667	1	-0.003250
39.333333	1	-0.003250
39.350000	1	-0.002875
39.366667	1	-0.002875
39.383333	1	-0.003125
39.400000	1	-0.003000
39.416667	1	-0.003125
39.433333	1	-0.003250
39.450000	1	-0.003500
39.466667	1	-0.003125
39.483333	1	-0.002375
39.500000	1	-0.002250
39.516667	1	-0.001250
39.533333	1	-0.000750
39.550000	1	-0.000625
39.566667	1	-0.000250
39.583333	1	0.000500
39.600000	1	0.001125
39.616667	1	0.001625
39.633333	1	0.002250
39.650000	1	0.003750
39.666667	1	0.005000
39.683333	1	0.006375
39.700000	1	0.008125
39.716667	1	0.009750
39.733333	1	0.011500
39.750000	1	0.012500
39.766667	1	0.013875
39.783333	1	0.015250
39.800000	1	0.016625
39.816667	1	0.019000
39.833333	1	0.021500
39.850000	1	0.023250
39.866667	1	0.026375
39.883333	1	0.027625
39.900000	1	0.029250
39.916667	1	0.031000
39.933333	1	0.032875
39.950000	1	0.034875
39.966667	1	0.036500
39.983333	1	0.037875
40.000000	1	0.039375
