URL	chrom://bioreactor/micro_cm7/HPLC_Ultimate_3000/Users/markusar/20240517_CMO_FP23_FP25_MarkusDeplate.seq/570.smp/RI_1.channel/RI_1.chm
Channel	RI_1

Injection Information:
Data Vault	micro_cm7
Sequence	20240517_CMO_FP23_FP25_MarkusDeplate
Name	FP28_22.4_s4
Number	159
Position	BC1
Comment	
Processing Method	
Instrument Method	run_25B_method
Type	Unknown
Status	Finished
Inject Time	01.06.2024 07:42:04 +02:00
Volume (µl)	20.0000
Dilution Factor	1.0000
Weight	1.0000

Chromatogram Data Information:
Time Min. (min)	0.000000
Time Max. (min)	40.000000
Data Points	2401
Detector	RI
Generating Data System	Chromeleon 7.3.2.11814
Exporting Data System	Chromeleon 7.3.2.0
Operator	Instrument Controller
Signal Quantity	Refractive 
Signal Unit	µRIU
Signal Min.	-0.791000
Signal Max.	51.404250
Channel	RI_1
Driver Name	RID520Driver.dll
Channel Type	Evaluation
Min. Step (s)	1
Max. Step (s)	1
Average Step (s)	1

Signal Parameter Information:
Signal Info	

Chromatogram Data:
Time (min)	Step (s)	Value (µRIU)
0.000000	n.a.	0.039000
0.016667	1	0.037500
0.033333	1	0.037000
0.050000	1	0.035625
0.066667	1	0.035250
0.083333	1	0.034500
0.100000	1	0.033500
0.116667	1	0.032875
0.133333	1	0.033125
0.150000	1	0.032875
0.166667	1	0.032125
0.183333	1	0.031125
0.200000	1	0.030250
0.216667	1	0.030000
0.233333	1	0.029250
0.250000	1	0.029125
0.266667	1	0.028250
0.283333	1	0.027000
0.300000	1	0.026625
0.316667	1	0.026125
0.333333	1	0.025625
0.350000	1	0.024000
0.366667	1	0.022750
0.383333	1	0.021625
0.400000	1	0.020625
0.416667	1	0.019625
0.433333	1	0.019500
0.450000	1	0.019000
0.466667	1	0.018625
0.483333	1	0.017875
0.500000	1	0.017125
0.516667	1	0.016750
0.533333	1	0.016375
0.550000	1	0.015125
0.566667	1	0.014625
0.583333	1	0.014375
0.600000	1	0.013250
0.616667	1	0.012250
0.633333	1	0.012000
0.650000	1	0.011625
0.666667	1	0.011125
0.683333	1	0.010875
0.700000	1	0.011375
0.716667	1	0.011375
0.733333	1	0.011500
0.750000	1	0.012250
0.766667	1	0.012625
0.783333	1	0.013250
0.800000	1	0.014000
0.816667	1	0.014750
0.833333	1	0.016000
0.850000	1	0.017000
0.866667	1	0.018000
0.883333	1	0.018750
0.900000	1	0.019500
0.916667	1	0.021000
0.933333	1	0.022250
0.950000	1	0.022750
0.966667	1	0.024125
0.983333	1	0.024875
1.000000	1	0.025875
1.016667	1	0.027250
1.033333	1	0.028750
1.050000	1	0.030000
1.066667	1	0.030875
1.083333	1	0.031625
1.100000	1	0.032250
1.116667	1	0.033125
1.133333	1	0.034000
1.150000	1	0.034625
1.166667	1	0.035250
1.183333	1	0.036000
1.200000	1	0.036250
1.216667	1	0.037125
1.233333	1	0.038250
1.250000	1	0.039500
1.266667	1	0.040500
1.283333	1	0.041500
1.300000	1	0.042375
1.316667	1	0.043375
1.333333	1	0.044375
1.350000	1	0.044875
1.366667	1	0.046500
1.383333	1	0.047875
1.400000	1	0.049000
1.416667	1	0.049125
1.433333	1	0.050250
1.450000	1	0.051000
1.466667	1	0.051375
1.483333	1	0.052125
1.500000	1	0.053375
1.516667	1	0.053625
1.533333	1	0.054250
1.550000	1	0.054625
1.566667	1	0.055000
1.583333	1	0.055125
1.600000	1	0.056125
1.616667	1	0.056000
1.633333	1	0.056750
1.650000	1	0.056875
1.666667	1	0.057875
1.683333	1	0.057375
1.700000	1	0.056625
1.716667	1	0.057125
1.733333	1	0.057500
1.750000	1	0.057875
1.766667	1	0.057250
1.783333	1	0.057000
1.800000	1	0.056250
1.816667	1	0.055875
1.833333	1	0.055625
1.850000	1	0.055375
1.866667	1	0.054500
1.883333	1	0.053875
1.900000	1	0.052875
1.916667	1	0.052000
1.933333	1	0.050125
1.950000	1	0.048750
1.966667	1	0.047250
1.983333	1	0.045750
2.000000	1	0.045000
2.016667	1	0.043500
2.033333	1	0.042000
2.050000	1	0.040375
2.066667	1	0.039125
2.083333	1	0.037500
2.100000	1	0.036250
2.116667	1	0.034250
2.133333	1	0.032375
2.150000	1	0.031000
2.166667	1	0.029250
2.183333	1	0.027625
2.200000	1	0.026125
2.216667	1	0.024625
2.233333	1	0.023500
2.250000	1	0.021875
2.266667	1	0.021125
2.283333	1	0.020250
2.300000	1	0.019250
2.316667	1	0.017875
2.333333	1	0.017125
2.350000	1	0.015375
2.366667	1	0.014250
2.383333	1	0.013750
2.400000	1	0.013500
2.416667	1	0.013000
2.433333	1	0.012875
2.450000	1	0.012500
2.466667	1	0.012625
2.483333	1	0.012000
2.500000	1	0.011250
2.516667	1	0.011500
2.533333	1	0.011250
2.550000	1	0.011250
2.566667	1	0.011000
2.583333	1	0.010750
2.600000	1	0.010875
2.616667	1	0.012000
2.633333	1	0.012875
2.650000	1	0.013625
2.666667	1	0.014375
2.683333	1	0.015125
2.700000	1	0.016125
2.716667	1	0.016250
2.733333	1	0.017375
2.750000	1	0.018625
2.766667	1	0.019625
2.783333	1	0.020500
2.800000	1	0.021500
2.816667	1	0.022250
2.833333	1	0.023250
2.850000	1	0.025000
2.866667	1	0.025750
2.883333	1	0.027250
2.900000	1	0.028875
2.916667	1	0.030000
2.933333	1	0.032125
2.950000	1	0.033500
2.966667	1	0.035250
2.983333	1	0.037625
3.000000	1	0.039375
3.016667	1	0.041750
3.033333	1	0.044500
3.050000	1	0.046500
3.066667	1	0.048750
3.083333	1	0.052000
3.100000	1	0.054875
3.116667	1	0.057375
3.133333	1	0.059750
3.150000	1	0.062250
3.166667	1	0.064875
3.183333	1	0.068250
3.200000	1	0.070875
3.216667	1	0.073750
3.233333	1	0.075500
3.250000	1	0.077750
3.266667	1	0.080000
3.283333	1	0.082250
3.300000	1	0.084125
3.316667	1	0.086000
3.333333	1	0.087750
3.350000	1	0.089375
3.366667	1	0.090125
3.383333	1	0.090875
3.400000	1	0.092000
3.416667	1	0.093125
3.433333	1	0.093250
3.450000	1	0.093625
3.466667	1	0.093875
3.483333	1	0.093500
3.500000	1	0.093250
3.516667	1	0.092750
3.533333	1	0.091750
3.550000	1	0.090875
3.566667	1	0.089625
3.583333	1	0.088000
3.600000	1	0.087375
3.616667	1	0.086875
3.633333	1	0.086375
3.650000	1	0.084625
3.666667	1	0.082875
3.683333	1	0.081750
3.700000	1	0.081000
3.716667	1	0.079625
3.733333	1	0.078125
3.750000	1	0.076750
3.766667	1	0.075125
3.783333	1	0.073500
3.800000	1	0.072000
3.816667	1	0.070500
3.833333	1	0.068875
3.850000	1	0.068125
3.866667	1	0.067125
3.883333	1	0.066250
3.900000	1	0.065375
3.916667	1	0.064250
3.933333	1	0.063125
3.950000	1	0.062625
3.966667	1	0.061500
3.983333	1	0.061125
4.000000	1	0.060750
4.016667	1	0.060750
4.033333	1	0.060500
4.050000	1	0.060250
4.066667	1	0.060250
4.083333	1	0.060125
4.100000	1	0.061000
4.116667	1	0.062000
4.133333	1	0.063625
4.150000	1	0.064625
4.166667	1	0.065375
4.183333	1	0.066000
4.200000	1	0.067875
4.216667	1	0.069250
4.233333	1	0.070875
4.250000	1	0.072375
4.266667	1	0.074000
4.283333	1	0.075000
4.300000	1	0.076750
4.316667	1	0.077875
4.333333	1	0.079500
4.350000	1	0.080875
4.366667	1	0.082750
4.383333	1	0.084625
4.400000	1	0.086750
4.416667	1	0.087875
4.433333	1	0.089500
4.450000	1	0.092250
4.466667	1	0.093875
4.483333	1	0.095625
4.500000	1	0.097000
4.516667	1	0.099875
4.533333	1	0.102125
4.550000	1	0.104625
4.566667	1	0.106750
4.583333	1	0.109125
4.600000	1	0.112500
4.616667	1	0.115000
4.633333	1	0.117500
4.650000	1	0.120125
4.666667	1	0.123500
4.683333	1	0.127500
4.700000	1	0.130875
4.716667	1	0.133500
4.733333	1	0.137250
4.750000	1	0.141250
4.766667	1	0.145625
4.783333	1	0.150625
4.800000	1	0.154750
4.816667	1	0.159125
4.833333	1	0.164000
4.850000	1	0.169000
4.866667	1	0.173250
4.883333	1	0.178000
4.900000	1	0.183125
4.916667	1	0.188250
4.933333	1	0.193375
4.950000	1	0.198125
4.966667	1	0.203125
4.983333	1	0.208250
5.000000	1	0.213375
5.016667	1	0.218375
5.033333	1	0.223625
5.050000	1	0.228250
5.066667	1	0.232875
5.083333	1	0.237250
5.100000	1	0.242000
5.116667	1	0.246375
5.133333	1	0.250500
5.150000	1	0.254375
5.166667	1	0.257625
5.183333	1	0.260875
5.200000	1	0.264375
5.216667	1	0.267000
5.233333	1	0.270250
5.250000	1	0.273000
5.266667	1	0.275375
5.283333	1	0.278125
5.300000	1	0.279875
5.316667	1	0.281500
5.333333	1	0.282875
5.350000	1	0.284750
5.366667	1	0.286250
5.383333	1	0.287500
5.400000	1	0.288750
5.416667	1	0.290000
5.433333	1	0.290500
5.450000	1	0.291500
5.466667	1	0.292375
5.483333	1	0.292625
5.500000	1	0.293375
5.516667	1	0.294250
5.533333	1	0.295125
5.550000	1	0.296000
5.566667	1	0.296500
5.583333	1	0.297500
5.600000	1	0.297375
5.616667	1	0.298000
5.633333	1	0.299250
5.650000	1	0.299625
5.666667	1	0.300125
5.683333	1	0.300625
5.700000	1	0.301750
5.716667	1	0.302250
5.733333	1	0.302625
5.750000	1	0.303500
5.766667	1	0.304500
5.783333	1	0.305750
5.800000	1	0.306250
5.816667	1	0.306875
5.833333	1	0.307250
5.850000	1	0.308375
5.866667	1	0.309125
5.883333	1	0.309625
5.900000	1	0.309875
5.916667	1	0.310375
5.933333	1	0.310250
5.950000	1	0.310750
5.966667	1	0.310875
5.983333	1	0.311000
6.000000	1	0.310625
6.016667	1	0.310625
6.033333	1	0.310125
6.050000	1	0.309750
6.066667	1	0.309000
6.083333	1	0.308000
6.100000	1	0.306500
6.116667	1	0.304875
6.133333	1	0.303625
6.150000	1	0.302125
6.166667	1	0.299875
6.183333	1	0.297875
6.200000	1	0.295250
6.216667	1	0.292625
6.233333	1	0.289250
6.250000	1	0.285625
6.266667	1	0.281750
6.283333	1	0.277750
6.300000	1	0.273750
6.316667	1	0.269875
6.333333	1	0.266000
6.350000	1	0.261250
6.366667	1	0.256625
6.383333	1	0.252000
6.400000	1	0.248000
6.416667	1	0.242000
6.433333	1	0.237500
6.450000	1	0.233750
6.466667	1	0.228750
6.483333	1	0.223875
6.500000	1	0.219625
6.516667	1	0.215250
6.533333	1	0.211250
6.550000	1	0.207625
6.566667	1	0.203125
6.583333	1	0.199625
6.600000	1	0.197375
6.616667	1	0.194625
6.633333	1	0.191875
6.650000	1	0.189375
6.666667	1	0.187750
6.683333	1	0.186125
6.700000	1	0.184500
6.716667	1	0.182750
6.733333	1	0.182125
6.750000	1	0.180625
6.766667	1	0.180250
6.783333	1	0.179500
6.800000	1	0.178875
6.816667	1	0.178125
6.833333	1	0.177875
6.850000	1	0.177750
6.866667	1	0.176625
6.883333	1	0.176250
6.900000	1	0.175750
6.916667	1	0.175125
6.933333	1	0.174750
6.950000	1	0.174625
6.966667	1	0.175125
6.983333	1	0.175625
7.000000	1	0.175875
7.016667	1	0.176625
7.033333	1	0.176750
7.050000	1	0.177125
7.066667	1	0.178000
7.083333	1	0.179000
7.100000	1	0.179500
7.116667	1	0.180750
7.133333	1	0.181875
7.150000	1	0.183750
7.166667	1	0.185750
7.183333	1	0.187500
7.200000	1	0.189250
7.216667	1	0.191500
7.233333	1	0.194000
7.250000	1	0.195250
7.266667	1	0.197250
7.283333	1	0.199000
7.300000	1	0.200625
7.316667	1	0.202875
7.333333	1	0.205250
7.350000	1	0.207250
7.366667	1	0.208875
7.383333	1	0.210625
7.400000	1	0.211375
7.416667	1	0.212625
7.433333	1	0.213125
7.450000	1	0.213125
7.466667	1	0.214000
7.483333	1	0.214500
7.500000	1	0.214625
7.516667	1	0.213750
7.533333	1	0.213125
7.550000	1	0.212500
7.566667	1	0.211000
7.583333	1	0.209875
7.600000	1	0.208375
7.616667	1	0.207000
7.633333	1	0.204375
7.650000	1	0.202125
7.666667	1	0.199625
7.683333	1	0.196875
7.700000	1	0.193625
7.716667	1	0.190500
7.733333	1	0.187875
7.750000	1	0.184875
7.766667	1	0.181125
7.783333	1	0.177500
7.800000	1	0.174000
7.816667	1	0.170625
7.833333	1	0.167625
7.850000	1	0.164125
7.866667	1	0.160500
7.883333	1	0.157125
7.900000	1	0.153875
7.916667	1	0.150875
7.933333	1	0.147625
7.950000	1	0.144750
7.966667	1	0.141500
7.983333	1	0.138500
8.000000	1	0.135875
8.016667	1	0.133250
8.033333	1	0.131500
8.050000	1	0.129750
8.066667	1	0.127875
8.083333	1	0.126000
8.100000	1	0.125000
8.116667	1	0.123625
8.133333	1	0.123125
8.150000	1	0.121125
8.166667	1	0.119875
8.183333	1	0.119375
8.200000	1	0.118125
8.216667	1	0.117875
8.233333	1	0.117750
8.250000	1	0.117375
8.266667	1	0.116250
8.283333	1	0.115375
8.300000	1	0.114375
8.316667	1	0.113000
8.333333	1	0.111875
8.350000	1	0.111375
8.366667	1	0.110375
8.383333	1	0.109125
8.400000	1	0.108500
8.416667	1	0.106875
8.433333	1	0.105625
8.450000	1	0.105000
8.466667	1	0.104250
8.483333	1	0.103250
8.500000	1	0.103375
8.516667	1	0.103750
8.533333	1	0.103625
8.550000	1	0.103375
8.566667	1	0.102875
8.583333	1	0.103500
8.600000	1	0.104125
8.616667	1	0.105125
8.633333	1	0.106250
8.650000	1	0.107250
8.666667	1	0.108625
8.683333	1	0.109875
8.700000	1	0.111250
8.716667	1	0.113500
8.733333	1	0.115125
8.750000	1	0.116875
8.766667	1	0.119000
8.783333	1	0.120750
8.800000	1	0.122750
8.816667	1	0.125000
8.833333	1	0.126750
8.850000	1	0.128500
8.866667	1	0.130000
8.883333	1	0.131250
8.900000	1	0.132500
8.916667	1	0.133750
8.933333	1	0.135375
8.950000	1	0.136250
8.966667	1	0.137000
8.983333	1	0.137500
9.000000	1	0.137750
9.016667	1	0.138500
9.033333	1	0.138375
9.050000	1	0.139000
9.066667	1	0.139000
9.083333	1	0.139375
9.100000	1	0.139000
9.116667	1	0.139250
9.133333	1	0.139000
9.150000	1	0.138875
9.166667	1	0.138750
9.183333	1	0.138375
9.200000	1	0.137750
9.216667	1	0.137250
9.233333	1	0.137125
9.250000	1	0.135875
9.266667	1	0.135250
9.283333	1	0.133750
9.300000	1	0.133250
9.316667	1	0.132625
9.333333	1	0.132000
9.350000	1	0.131250
9.366667	1	0.130625
9.383333	1	0.129625
9.400000	1	0.129125
9.416667	1	0.127875
9.433333	1	0.127125
9.450000	1	0.126000
9.466667	1	0.125250
9.483333	1	0.126000
9.500000	1	0.125500
9.516667	1	0.125250
9.533333	1	0.125000
9.550000	1	0.124375
9.566667	1	0.124875
9.583333	1	0.124875
9.600000	1	0.125375
9.616667	1	0.125250
9.633333	1	0.125875
9.650000	1	0.126750
9.666667	1	0.127250
9.683333	1	0.128000
9.700000	1	0.128500
9.716667	1	0.129375
9.733333	1	0.130500
9.750000	1	0.131625
9.766667	1	0.132375
9.783333	1	0.133125
9.800000	1	0.133625
9.816667	1	0.134000
9.833333	1	0.134375
9.850000	1	0.134875
9.866667	1	0.135625
9.883333	1	0.136000
9.900000	1	0.135000
9.916667	1	0.134750
9.933333	1	0.134500
9.950000	1	0.132875
9.966667	1	0.131625
9.983333	1	0.131000
10.000000	1	0.129750
10.016667	1	0.128000
10.033333	1	0.126500
10.050000	1	0.124625
10.066667	1	0.123375
10.083333	1	0.122750
10.100000	1	0.123000
10.116667	1	0.123875
10.133333	1	0.125875
10.150000	1	0.128500
10.166667	1	0.133125
10.183333	1	0.138500
10.200000	1	0.145750
10.216667	1	0.154750
10.233333	1	0.166250
10.250000	1	0.179750
10.266667	1	0.196375
10.283333	1	0.215000
10.300000	1	0.236875
10.316667	1	0.261625
10.333333	1	0.287750
10.350000	1	0.315375
10.366667	1	0.342250
10.383333	1	0.366125
10.400000	1	0.386000
10.416667	1	0.400750
10.433333	1	0.410625
10.450000	1	0.419250
10.466667	1	0.435000
10.483333	1	0.471250
10.500000	1	0.548000
10.516667	1	0.694875
10.533333	1	0.951500
10.550000	1	1.367750
10.566667	1	2.000750
10.583333	1	2.909250
10.600000	1	4.150000
10.616667	1	5.771125
10.633333	1	7.806625
10.650000	1	10.271000
10.666667	1	13.170250
10.683333	1	16.486625
10.700000	1	20.188750
10.716667	1	24.218250
10.733333	1	28.492500
10.750000	1	32.890625
10.766667	1	37.250125
10.783333	1	41.354250
10.800000	1	44.935750
10.816667	1	47.687500
10.833333	1	49.304625
10.850000	1	49.550875
10.866667	1	48.325875
10.883333	1	45.711000
10.900000	1	41.969625
10.916667	1	37.492250
10.933333	1	32.704625
10.950000	1	27.977375
10.966667	1	23.582000
10.983333	1	19.670500
11.000000	1	16.301500
11.016667	1	13.473500
11.033333	1	11.148125
11.050000	1	9.264750
11.066667	1	7.758000
11.083333	1	6.562375
11.100000	1	5.618125
11.116667	1	4.872250
11.133333	1	4.281500
11.150000	1	3.809250
11.166667	1	3.429250
11.183333	1	3.118875
11.200000	1	2.863000
11.216667	1	2.649250
11.233333	1	2.468625
11.250000	1	2.315500
11.266667	1	2.182875
11.283333	1	2.066500
11.300000	1	1.963750
11.316667	1	1.873125
11.333333	1	1.793000
11.350000	1	1.721125
11.366667	1	1.658000
11.383333	1	1.600875
11.400000	1	1.550250
11.416667	1	1.504875
11.433333	1	1.465500
11.450000	1	1.429875
11.466667	1	1.397250
11.483333	1	1.368375
11.500000	1	1.343000
11.516667	1	1.319250
11.533333	1	1.297500
11.550000	1	1.278375
11.566667	1	1.261750
11.583333	1	1.246500
11.600000	1	1.233000
11.616667	1	1.220750
11.633333	1	1.209875
11.650000	1	1.201000
11.666667	1	1.193375
11.683333	1	1.188000
11.700000	1	1.182750
11.716667	1	1.179750
11.733333	1	1.178000
11.750000	1	1.177250
11.766667	1	1.177625
11.783333	1	1.179750
11.800000	1	1.182125
11.816667	1	1.185875
11.833333	1	1.190375
11.850000	1	1.194875
11.866667	1	1.199250
11.883333	1	1.204500
11.900000	1	1.209125
11.916667	1	1.214500
11.933333	1	1.219250
11.950000	1	1.224250
11.966667	1	1.228625
11.983333	1	1.233375
12.000000	1	1.238500
12.016667	1	1.243750
12.033333	1	1.249375
12.050000	1	1.255000
12.066667	1	1.262375
12.083333	1	1.269750
12.100000	1	1.276750
12.116667	1	1.284625
12.133333	1	1.292375
12.150000	1	1.301625
12.166667	1	1.311250
12.183333	1	1.321125
12.200000	1	1.331000
12.216667	1	1.343000
12.233333	1	1.356875
12.250000	1	1.373375
12.266667	1	1.392125
12.283333	1	1.414125
12.300000	1	1.440375
12.316667	1	1.471250
12.333333	1	1.509000
12.350000	1	1.554375
12.366667	1	1.609125
12.383333	1	1.675000
12.400000	1	1.755250
12.416667	1	1.853875
12.433333	1	1.973875
12.450000	1	2.119250
12.466667	1	2.294875
12.483333	1	2.506375
12.500000	1	2.755625
12.516667	1	3.044375
12.533333	1	3.371875
12.550000	1	3.735375
12.566667	1	4.127500
12.583333	1	4.539750
12.600000	1	4.958375
12.616667	1	5.367375
12.633333	1	5.751000
12.650000	1	6.091750
12.666667	1	6.375625
12.683333	1	6.589625
12.700000	1	6.727500
12.716667	1	6.785500
12.733333	1	6.764250
12.750000	1	6.671875
12.766667	1	6.516375
12.783333	1	6.309250
12.800000	1	6.063000
12.816667	1	5.790750
12.833333	1	5.503625
12.850000	1	5.211500
12.866667	1	4.922500
12.883333	1	4.642875
12.900000	1	4.378375
12.916667	1	4.132875
12.933333	1	3.907750
12.950000	1	3.704125
12.966667	1	3.522000
12.983333	1	3.360500
13.000000	1	3.217250
13.016667	1	3.091375
13.033333	1	2.981000
13.050000	1	2.883375
13.066667	1	2.797500
13.083333	1	2.721125
13.100000	1	2.653125
13.116667	1	2.591750
13.133333	1	2.535625
13.150000	1	2.484750
13.166667	1	2.437125
13.183333	1	2.393250
13.200000	1	2.352000
13.216667	1	2.312875
13.233333	1	2.275750
13.250000	1	2.239750
13.266667	1	2.205000
13.283333	1	2.172000
13.300000	1	2.139250
13.316667	1	2.107875
13.333333	1	2.078125
13.350000	1	2.050500
13.366667	1	2.023750
13.383333	1	1.999000
13.400000	1	1.976500
13.416667	1	1.956500
13.433333	1	1.938625
13.450000	1	1.923625
13.466667	1	1.911125
13.483333	1	1.901000
13.500000	1	1.893125
13.516667	1	1.887875
13.533333	1	1.885500
13.550000	1	1.884625
13.566667	1	1.884250
13.583333	1	1.883750
13.600000	1	1.882500
13.616667	1	1.881500
13.633333	1	1.878125
13.650000	1	1.873500
13.666667	1	1.866000
13.683333	1	1.856000
13.700000	1	1.843000
13.716667	1	1.827375
13.733333	1	1.809000
13.750000	1	1.790000
13.766667	1	1.769500
13.783333	1	1.749000
13.800000	1	1.727875
13.816667	1	1.707375
13.833333	1	1.686875
13.850000	1	1.668000
13.866667	1	1.650125
13.883333	1	1.633250
13.900000	1	1.617250
13.916667	1	1.602500
13.933333	1	1.588875
13.950000	1	1.575625
13.966667	1	1.563750
13.983333	1	1.552625
14.000000	1	1.541500
14.016667	1	1.531625
14.033333	1	1.522875
14.050000	1	1.513000
14.066667	1	1.504625
14.083333	1	1.496000
14.100000	1	1.488375
14.116667	1	1.480250
14.133333	1	1.473125
14.150000	1	1.465250
14.166667	1	1.459250
14.183333	1	1.453500
14.200000	1	1.448875
14.216667	1	1.445500
14.233333	1	1.443500
14.250000	1	1.443500
14.266667	1	1.445375
14.283333	1	1.449000
14.300000	1	1.456125
14.316667	1	1.466125
14.333333	1	1.479250
14.350000	1	1.496875
14.366667	1	1.519875
14.383333	1	1.550000
14.400000	1	1.587125
14.416667	1	1.636125
14.433333	1	1.699250
14.450000	1	1.782375
14.466667	1	1.892250
14.483333	1	2.039000
14.500000	1	2.235625
14.516667	1	2.499625
14.533333	1	2.852250
14.550000	1	3.321625
14.566667	1	3.939250
14.583333	1	4.741750
14.600000	1	5.770500
14.616667	1	7.070125
14.633333	1	8.685125
14.650000	1	10.653250
14.666667	1	13.004500
14.683333	1	15.750875
14.700000	1	18.881875
14.716667	1	22.359125
14.733333	1	26.116375
14.750000	1	30.058625
14.766667	1	34.061750
14.783333	1	37.977125
14.800000	1	41.649875
14.816667	1	44.923125
14.833333	1	47.647625
14.850000	1	49.694500
14.866667	1	50.965000
14.883333	1	51.404250
14.900000	1	51.001750
14.916667	1	49.796375
14.933333	1	47.865000
14.950000	1	45.317750
14.966667	1	42.289250
14.983333	1	38.930000
15.000000	1	35.381375
15.016667	1	31.776500
15.033333	1	28.228375
15.050000	1	24.833500
15.066667	1	21.663250
15.083333	1	18.765750
15.100000	1	16.165875
15.116667	1	13.871875
15.133333	1	11.874375
15.150000	1	10.156625
15.166667	1	8.693125
15.183333	1	7.457750
15.200000	1	6.422000
15.216667	1	5.560250
15.233333	1	4.847250
15.250000	1	4.260375
15.266667	1	3.781250
15.283333	1	3.392375
15.300000	1	3.079625
15.316667	1	2.830875
15.333333	1	2.637250
15.350000	1	2.487750
15.366667	1	2.376125
15.383333	1	2.294250
15.400000	1	2.237250
15.416667	1	2.199000
15.433333	1	2.174750
15.450000	1	2.160000
15.466667	1	2.150500
15.483333	1	2.142625
15.500000	1	2.133750
15.516667	1	2.121875
15.533333	1	2.104000
15.550000	1	2.080500
15.566667	1	2.051125
15.583333	1	2.016000
15.600000	1	1.975875
15.616667	1	1.932125
15.633333	1	1.885125
15.650000	1	1.837375
15.666667	1	1.789250
15.683333	1	1.742625
15.700000	1	1.698875
15.716667	1	1.656500
15.733333	1	1.616625
15.750000	1	1.579375
15.766667	1	1.545375
15.783333	1	1.514125
15.800000	1	1.485625
15.816667	1	1.458000
15.833333	1	1.432750
15.850000	1	1.409875
15.866667	1	1.388625
15.883333	1	1.369375
15.900000	1	1.352750
15.916667	1	1.337375
15.933333	1	1.324125
15.950000	1	1.313625
15.966667	1	1.305625
15.983333	1	1.299500
16.000000	1	1.295375
16.016667	1	1.293250
16.033333	1	1.292750
16.050000	1	1.292750
16.066667	1	1.295375
16.083333	1	1.298500
16.100000	1	1.302000
16.116667	1	1.306000
16.133333	1	1.310125
16.150000	1	1.313375
16.166667	1	1.316875
16.183333	1	1.319250
16.200000	1	1.322125
16.216667	1	1.323250
16.233333	1	1.323125
16.250000	1	1.322000
16.266667	1	1.319875
16.283333	1	1.317125
16.300000	1	1.313750
16.316667	1	1.309750
16.333333	1	1.305375
16.350000	1	1.301125
16.366667	1	1.296875
16.383333	1	1.293750
16.400000	1	1.291125
16.416667	1	1.289125
16.433333	1	1.287750
16.450000	1	1.286625
16.466667	1	1.287500
16.483333	1	1.290000
16.500000	1	1.291125
16.516667	1	1.293500
16.533333	1	1.295250
16.550000	1	1.296375
16.566667	1	1.296750
16.583333	1	1.296000
16.600000	1	1.295125
16.616667	1	1.293250
16.633333	1	1.290625
16.650000	1	1.287125
16.666667	1	1.283375
16.683333	1	1.279250
16.700000	1	1.275875
16.716667	1	1.272875
16.733333	1	1.271500
16.750000	1	1.271625
16.766667	1	1.273250
16.783333	1	1.276625
16.800000	1	1.282125
16.816667	1	1.288125
16.833333	1	1.295500
16.850000	1	1.302875
16.866667	1	1.311000
16.883333	1	1.318250
16.900000	1	1.324750
16.916667	1	1.330125
16.933333	1	1.334625
16.950000	1	1.337875
16.966667	1	1.339750
16.983333	1	1.340125
17.000000	1	1.339750
17.016667	1	1.339125
17.033333	1	1.336375
17.050000	1	1.333000
17.066667	1	1.329875
17.083333	1	1.326750
17.100000	1	1.324000
17.116667	1	1.321750
17.133333	1	1.319875
17.150000	1	1.318250
17.166667	1	1.317875
17.183333	1	1.318375
17.200000	1	1.318875
17.216667	1	1.319875
17.233333	1	1.320875
17.250000	1	1.323375
17.266667	1	1.326250
17.283333	1	1.329000
17.300000	1	1.332125
17.316667	1	1.335500
17.333333	1	1.338750
17.350000	1	1.342000
17.366667	1	1.344750
17.383333	1	1.347500
17.400000	1	1.349375
17.416667	1	1.350750
17.433333	1	1.351250
17.450000	1	1.349625
17.466667	1	1.347000
17.483333	1	1.342875
17.500000	1	1.337250
17.516667	1	1.329375
17.533333	1	1.320125
17.550000	1	1.309375
17.566667	1	1.297125
17.583333	1	1.282625
17.600000	1	1.268125
17.616667	1	1.251125
17.633333	1	1.233875
17.650000	1	1.216125
17.666667	1	1.198625
17.683333	1	1.180500
17.700000	1	1.163375
17.716667	1	1.146625
17.733333	1	1.130750
17.750000	1	1.114875
17.766667	1	1.100625
17.783333	1	1.087500
17.800000	1	1.074875
17.816667	1	1.064125
17.833333	1	1.053375
17.850000	1	1.044500
17.866667	1	1.035500
17.883333	1	1.028250
17.900000	1	1.021750
17.916667	1	1.015375
17.933333	1	1.009000
17.950000	1	1.003000
17.966667	1	0.998000
17.983333	1	0.993250
18.000000	1	0.988000
18.016667	1	0.983125
18.033333	1	0.978125
18.050000	1	0.973875
18.066667	1	0.969750
18.083333	1	0.965625
18.100000	1	0.962875
18.116667	1	0.960000
18.133333	1	0.958000
18.150000	1	0.956250
18.166667	1	0.955500
18.183333	1	0.956000
18.200000	1	0.956875
18.216667	1	0.959125
18.233333	1	0.961375
18.250000	1	0.964125
18.266667	1	0.967875
18.283333	1	0.971500
18.300000	1	0.975875
18.316667	1	0.979750
18.333333	1	0.984000
18.350000	1	0.989000
18.366667	1	0.995125
18.383333	1	1.001375
18.400000	1	1.008500
18.416667	1	1.017000
18.433333	1	1.026750
18.450000	1	1.038375
18.466667	1	1.050000
18.483333	1	1.063250
18.500000	1	1.078125
18.516667	1	1.095000
18.533333	1	1.113375
18.550000	1	1.134125
18.566667	1	1.156375
18.583333	1	1.180250
18.600000	1	1.205375
18.616667	1	1.231625
18.633333	1	1.259750
18.650000	1	1.289750
18.666667	1	1.320375
18.683333	1	1.351625
18.700000	1	1.383000
18.716667	1	1.414125
18.733333	1	1.445750
18.750000	1	1.477125
18.766667	1	1.507125
18.783333	1	1.536875
18.800000	1	1.565250
18.816667	1	1.590875
18.833333	1	1.614375
18.850000	1	1.633500
18.866667	1	1.649625
18.883333	1	1.660500
18.900000	1	1.667000
18.916667	1	1.667625
18.933333	1	1.662750
18.950000	1	1.651875
18.966667	1	1.635625
18.983333	1	1.613625
19.000000	1	1.585250
19.016667	1	1.552125
19.033333	1	1.514250
19.050000	1	1.472125
19.066667	1	1.427625
19.083333	1	1.382000
19.100000	1	1.335125
19.116667	1	1.287375
19.133333	1	1.240500
19.150000	1	1.195375
19.166667	1	1.153625
19.183333	1	1.114875
19.200000	1	1.079000
19.216667	1	1.048000
19.233333	1	1.022125
19.250000	1	1.001375
19.266667	1	0.986875
19.283333	1	0.976750
19.300000	1	0.973375
19.316667	1	0.976250
19.333333	1	0.984750
19.350000	1	0.998000
19.366667	1	1.016375
19.383333	1	1.038625
19.400000	1	1.063875
19.416667	1	1.092375
19.433333	1	1.123625
19.450000	1	1.155750
19.466667	1	1.188125
19.483333	1	1.219375
19.500000	1	1.249250
19.516667	1	1.276125
19.533333	1	1.300250
19.550000	1	1.320500
19.566667	1	1.336750
19.583333	1	1.348000
19.600000	1	1.354375
19.616667	1	1.355750
19.633333	1	1.352500
19.650000	1	1.343875
19.666667	1	1.331500
19.683333	1	1.314625
19.700000	1	1.294750
19.716667	1	1.271000
19.733333	1	1.245375
19.750000	1	1.216500
19.766667	1	1.186875
19.783333	1	1.155625
19.800000	1	1.123875
19.816667	1	1.091625
19.833333	1	1.060125
19.850000	1	1.029625
19.866667	1	1.000125
19.883333	1	0.972375
19.900000	1	0.945750
19.916667	1	0.921875
19.933333	1	0.900750
19.950000	1	0.883250
19.966667	1	0.868875
19.983333	1	0.858500
20.000000	1	0.851750
20.016667	1	0.849250
20.033333	1	0.851250
20.050000	1	0.859250
20.066667	1	0.871625
20.083333	1	0.888000
20.100000	1	0.909250
20.116667	1	0.935125
20.133333	1	0.965750
20.150000	1	0.999750
20.166667	1	1.036500
20.183333	1	1.075625
20.200000	1	1.115625
20.216667	1	1.155250
20.233333	1	1.193500
20.250000	1	1.228625
20.266667	1	1.260000
20.283333	1	1.285625
20.300000	1	1.306375
20.316667	1	1.319500
20.333333	1	1.325500
20.350000	1	1.324500
20.366667	1	1.315750
20.383333	1	1.299625
20.400000	1	1.277000
20.416667	1	1.249125
20.433333	1	1.217125
20.450000	1	1.182750
20.466667	1	1.146500
20.483333	1	1.110000
20.500000	1	1.076000
20.516667	1	1.043750
20.533333	1	1.015750
20.550000	1	0.993625
20.566667	1	0.977500
20.583333	1	0.968875
20.600000	1	0.967625
20.616667	1	0.974375
20.633333	1	0.990250
20.650000	1	1.016250
20.666667	1	1.050000
20.683333	1	1.092125
20.700000	1	1.142750
20.716667	1	1.199500
20.733333	1	1.262500
20.750000	1	1.330250
20.766667	1	1.399750
20.783333	1	1.470625
20.800000	1	1.538875
20.816667	1	1.604000
20.833333	1	1.662750
20.850000	1	1.713875
20.866667	1	1.755375
20.883333	1	1.786000
20.900000	1	1.804125
20.916667	1	1.809000
20.933333	1	1.801875
20.950000	1	1.780750
20.966667	1	1.748750
20.983333	1	1.705875
21.000000	1	1.654000
21.016667	1	1.593625
21.033333	1	1.528625
21.050000	1	1.459250
21.066667	1	1.387625
21.083333	1	1.315750
21.100000	1	1.245375
21.116667	1	1.176625
21.133333	1	1.111625
21.150000	1	1.049625
21.166667	1	0.992125
21.183333	1	0.939000
21.200000	1	0.890500
21.216667	1	0.846750
21.233333	1	0.808000
21.250000	1	0.772750
21.266667	1	0.741375
21.283333	1	0.714500
21.300000	1	0.691750
21.316667	1	0.671500
21.333333	1	0.653625
21.350000	1	0.638000
21.366667	1	0.624000
21.383333	1	0.612000
21.400000	1	0.601875
21.416667	1	0.593875
21.433333	1	0.586625
21.450000	1	0.580750
21.466667	1	0.576500
21.483333	1	0.573750
21.500000	1	0.572375
21.516667	1	0.572375
21.533333	1	0.573125
21.550000	1	0.575000
21.566667	1	0.578625
21.583333	1	0.584375
21.600000	1	0.592125
21.616667	1	0.602250
21.633333	1	0.613875
21.650000	1	0.627500
21.666667	1	0.643750
21.683333	1	0.662750
21.700000	1	0.684250
21.716667	1	0.708125
21.733333	1	0.734500
21.750000	1	0.762875
21.766667	1	0.793000
21.783333	1	0.825125
21.800000	1	0.858625
21.816667	1	0.893125
21.833333	1	0.926500
21.850000	1	0.959875
21.866667	1	0.992750
21.883333	1	1.023250
21.900000	1	1.052125
21.916667	1	1.078000
21.933333	1	1.101000
21.950000	1	1.120125
21.966667	1	1.134125
21.983333	1	1.143750
22.000000	1	1.149000
22.016667	1	1.149750
22.033333	1	1.145625
22.050000	1	1.137750
22.066667	1	1.125750
22.083333	1	1.111125
22.100000	1	1.092875
22.116667	1	1.072375
22.133333	1	1.050125
22.150000	1	1.026125
22.166667	1	1.000875
22.183333	1	0.974625
22.200000	1	0.948000
22.216667	1	0.921375
22.233333	1	0.895250
22.250000	1	0.869250
22.266667	1	0.844000
22.283333	1	0.819625
22.300000	1	0.796000
22.316667	1	0.773625
22.333333	1	0.751875
22.350000	1	0.731750
22.366667	1	0.711750
22.383333	1	0.693250
22.400000	1	0.675875
22.416667	1	0.660000
22.433333	1	0.645250
22.450000	1	0.631250
22.466667	1	0.618875
22.483333	1	0.607750
22.500000	1	0.597875
22.516667	1	0.589000
22.533333	1	0.581000
22.550000	1	0.574250
22.566667	1	0.567875
22.583333	1	0.561875
22.600000	1	0.557000
22.616667	1	0.552125
22.633333	1	0.548000
22.650000	1	0.544750
22.666667	1	0.539875
22.683333	1	0.536500
22.700000	1	0.532625
22.716667	1	0.528500
22.733333	1	0.524000
22.750000	1	0.519375
22.766667	1	0.513625
22.783333	1	0.509250
22.800000	1	0.503875
22.816667	1	0.498500
22.833333	1	0.492750
22.850000	1	0.487125
22.866667	1	0.481750
22.883333	1	0.476125
22.900000	1	0.470875
22.916667	1	0.466375
22.933333	1	0.461750
22.950000	1	0.457500
22.966667	1	0.453875
22.983333	1	0.450000
23.000000	1	0.446875
23.016667	1	0.443500
23.033333	1	0.441125
23.050000	1	0.438625
23.066667	1	0.437000
23.083333	1	0.435625
23.100000	1	0.435000
23.116667	1	0.434875
23.133333	1	0.435250
23.150000	1	0.435250
23.166667	1	0.436500
23.183333	1	0.439250
23.200000	1	0.441875
23.216667	1	0.445125
23.233333	1	0.448750
23.250000	1	0.454375
23.266667	1	0.462375
23.283333	1	0.470875
23.300000	1	0.482125
23.316667	1	0.496750
23.333333	1	0.514750
23.350000	1	0.537875
23.366667	1	0.564875
23.383333	1	0.598500
23.400000	1	0.638125
23.416667	1	0.686250
23.433333	1	0.743125
23.450000	1	0.810375
23.466667	1	0.888250
23.483333	1	0.979375
23.500000	1	1.085000
23.516667	1	1.205125
23.533333	1	1.341625
23.550000	1	1.494750
23.566667	1	1.664625
23.583333	1	1.852250
23.600000	1	2.056250
23.616667	1	2.275125
23.633333	1	2.507625
23.650000	1	2.751500
23.666667	1	3.004250
23.683333	1	3.263375
23.700000	1	3.523375
23.716667	1	3.780000
23.733333	1	4.030250
23.750000	1	4.267875
23.766667	1	4.488250
23.783333	1	4.686500
23.800000	1	4.858750
23.816667	1	4.999875
23.833333	1	5.108625
23.850000	1	5.181125
23.866667	1	5.216875
23.883333	1	5.216500
23.900000	1	5.178750
23.916667	1	5.105750
23.933333	1	4.999875
23.950000	1	4.864625
23.966667	1	4.702625
23.983333	1	4.518375
24.000000	1	4.316250
24.016667	1	4.101750
24.033333	1	3.877625
24.050000	1	3.648875
24.066667	1	3.418125
24.083333	1	3.190375
24.100000	1	2.966750
24.116667	1	2.750750
24.133333	1	2.543125
24.150000	1	2.346750
24.166667	1	2.162000
24.183333	1	1.990250
24.200000	1	1.830750
24.216667	1	1.684375
24.233333	1	1.550250
24.250000	1	1.427750
24.266667	1	1.316625
24.283333	1	1.216875
24.300000	1	1.126875
24.316667	1	1.045625
24.333333	1	0.973500
24.350000	1	0.909875
24.366667	1	0.853500
24.383333	1	0.803500
24.400000	1	0.760125
24.416667	1	0.721875
24.433333	1	0.688750
24.450000	1	0.660250
24.466667	1	0.636500
24.483333	1	0.616375
24.500000	1	0.599750
24.516667	1	0.585625
24.533333	1	0.573375
24.550000	1	0.563375
24.566667	1	0.555625
24.583333	1	0.548750
24.600000	1	0.543000
24.616667	1	0.538000
24.633333	1	0.533000
24.650000	1	0.529000
24.666667	1	0.524750
24.683333	1	0.521625
24.700000	1	0.518375
24.716667	1	0.515375
24.733333	1	0.511875
24.750000	1	0.508750
24.766667	1	0.505750
24.783333	1	0.502125
24.800000	1	0.498750
24.816667	1	0.495000
24.833333	1	0.491500
24.850000	1	0.488375
24.866667	1	0.484750
24.883333	1	0.481875
24.900000	1	0.478375
24.916667	1	0.475000
24.933333	1	0.471375
24.950000	1	0.468750
24.966667	1	0.466250
24.983333	1	0.462875
25.000000	1	0.459500
25.016667	1	0.456125
25.033333	1	0.453500
25.050000	1	0.451250
25.066667	1	0.448625
25.083333	1	0.445375
25.100000	1	0.443250
25.116667	1	0.440375
25.133333	1	0.437500
25.150000	1	0.434750
25.166667	1	0.432000
25.183333	1	0.429750
25.200000	1	0.427000
25.216667	1	0.423875
25.233333	1	0.420750
25.250000	1	0.418500
25.266667	1	0.416625
25.283333	1	0.415000
25.300000	1	0.412625
25.316667	1	0.410500
25.333333	1	0.409250
25.350000	1	0.407375
25.366667	1	0.405875
25.383333	1	0.404625
25.400000	1	0.404000
25.416667	1	0.403125
25.433333	1	0.402750
25.450000	1	0.402250
25.466667	1	0.401375
25.483333	1	0.402125
25.500000	1	0.402375
25.516667	1	0.402250
25.533333	1	0.402500
25.550000	1	0.403125
25.566667	1	0.403625
25.583333	1	0.403250
25.600000	1	0.402875
25.616667	1	0.402625
25.633333	1	0.402625
25.650000	1	0.402750
25.666667	1	0.403625
25.683333	1	0.403000
25.700000	1	0.402375
25.716667	1	0.401625
25.733333	1	0.400875
25.750000	1	0.399875
25.766667	1	0.398625
25.783333	1	0.397000
25.800000	1	0.395875
25.816667	1	0.393875
25.833333	1	0.393125
25.850000	1	0.391625
25.866667	1	0.390625
25.883333	1	0.389625
25.900000	1	0.389000
25.916667	1	0.388625
25.933333	1	0.388125
25.950000	1	0.388500
25.966667	1	0.388625
25.983333	1	0.390000
26.000000	1	0.391750
26.016667	1	0.394375
26.033333	1	0.396375
26.050000	1	0.399375
26.066667	1	0.403250
26.083333	1	0.408000
26.100000	1	0.412625
26.116667	1	0.418750
26.133333	1	0.424125
26.150000	1	0.430375
26.166667	1	0.436250
26.183333	1	0.442500
26.200000	1	0.449000
26.216667	1	0.455000
26.233333	1	0.461500
26.250000	1	0.467875
26.266667	1	0.474000
26.283333	1	0.479125
26.300000	1	0.483875
26.316667	1	0.488875
26.333333	1	0.492375
26.350000	1	0.496000
26.366667	1	0.498125
26.383333	1	0.499000
26.400000	1	0.499625
26.416667	1	0.498625
26.433333	1	0.497375
26.450000	1	0.494750
26.466667	1	0.492000
26.483333	1	0.487750
26.500000	1	0.481875
26.516667	1	0.475500
26.533333	1	0.469000
26.550000	1	0.461125
26.566667	1	0.452625
26.583333	1	0.443875
26.600000	1	0.435375
26.616667	1	0.425375
26.633333	1	0.415750
26.650000	1	0.405250
26.666667	1	0.395375
26.683333	1	0.385750
26.700000	1	0.375250
26.716667	1	0.365125
26.733333	1	0.355625
26.750000	1	0.346125
26.766667	1	0.336375
26.783333	1	0.327875
26.800000	1	0.319875
26.816667	1	0.312375
26.833333	1	0.305125
26.850000	1	0.298625
26.866667	1	0.292750
26.883333	1	0.287375
26.900000	1	0.282875
26.916667	1	0.278750
26.933333	1	0.275000
26.950000	1	0.272125
26.966667	1	0.270250
26.983333	1	0.268875
27.000000	1	0.267875
27.016667	1	0.268250
27.033333	1	0.269625
27.050000	1	0.271875
27.066667	1	0.274875
27.083333	1	0.278250
27.100000	1	0.283250
27.116667	1	0.289375
27.133333	1	0.296625
27.150000	1	0.304875
27.166667	1	0.315250
27.183333	1	0.326250
27.200000	1	0.339875
27.216667	1	0.355250
27.233333	1	0.372500
27.250000	1	0.392750
27.266667	1	0.415375
27.283333	1	0.441000
27.300000	1	0.469750
27.316667	1	0.502125
27.333333	1	0.539750
27.350000	1	0.582125
27.366667	1	0.629000
27.383333	1	0.682375
27.400000	1	0.742625
27.416667	1	0.809250
27.433333	1	0.883875
27.450000	1	0.965875
27.466667	1	1.057500
27.483333	1	1.157125
27.500000	1	1.266625
27.516667	1	1.385250
27.533333	1	1.512750
27.550000	1	1.650000
27.566667	1	1.796875
27.583333	1	1.951000
27.600000	1	2.112125
27.616667	1	2.280500
27.633333	1	2.454000
27.650000	1	2.631875
27.666667	1	2.811250
27.683333	1	2.990625
27.700000	1	3.168000
27.716667	1	3.340750
27.733333	1	3.507000
27.750000	1	3.665000
27.766667	1	3.810500
27.783333	1	3.942250
27.800000	1	4.057500
27.816667	1	4.155375
27.833333	1	4.233875
27.850000	1	4.291625
27.866667	1	4.327500
27.883333	1	4.340000
27.900000	1	4.329250
27.916667	1	4.295125
27.933333	1	4.239250
27.950000	1	4.161125
27.966667	1	4.063250
27.983333	1	3.947500
28.000000	1	3.815125
28.016667	1	3.668750
28.033333	1	3.510875
28.050000	1	3.342875
28.066667	1	3.167875
28.083333	1	2.989250
28.100000	1	2.808375
28.116667	1	2.628375
28.133333	1	2.451500
28.150000	1	2.278125
28.166667	1	2.111000
28.183333	1	1.951250
28.200000	1	1.799875
28.216667	1	1.657625
28.233333	1	1.523875
28.250000	1	1.400375
28.266667	1	1.286625
28.283333	1	1.182750
28.300000	1	1.087250
28.316667	1	1.001125
28.333333	1	0.923625
28.350000	1	0.854000
28.366667	1	0.793750
28.383333	1	0.740250
28.400000	1	0.693625
28.416667	1	0.653250
28.433333	1	0.618125
28.450000	1	0.589625
28.466667	1	0.565625
28.483333	1	0.545750
28.500000	1	0.530500
28.516667	1	0.518625
28.533333	1	0.510375
28.550000	1	0.505375
28.566667	1	0.503250
28.583333	1	0.502750
28.600000	1	0.505500
28.616667	1	0.509625
28.633333	1	0.515375
28.650000	1	0.522375
28.666667	1	0.530500
28.683333	1	0.539250
28.700000	1	0.549250
28.716667	1	0.559000
28.733333	1	0.569375
28.750000	1	0.579375
28.766667	1	0.589375
28.783333	1	0.599875
28.800000	1	0.609750
28.816667	1	0.618625
28.833333	1	0.627375
28.850000	1	0.634875
28.866667	1	0.640750
28.883333	1	0.645875
28.900000	1	0.648875
28.916667	1	0.651250
28.933333	1	0.651875
28.950000	1	0.652250
28.966667	1	0.650125
28.983333	1	0.646375
29.000000	1	0.640625
29.016667	1	0.634375
29.033333	1	0.625875
29.050000	1	0.615500
29.066667	1	0.603500
29.083333	1	0.590250
29.100000	1	0.574375
29.116667	1	0.556750
29.133333	1	0.537125
29.150000	1	0.515500
29.166667	1	0.492375
29.183333	1	0.467500
29.200000	1	0.441125
29.216667	1	0.412125
29.233333	1	0.382250
29.250000	1	0.350000
29.266667	1	0.316375
29.283333	1	0.280125
29.300000	1	0.242875
29.316667	1	0.202750
29.333333	1	0.162125
29.350000	1	0.120000
29.366667	1	0.076250
29.383333	1	0.031875
29.400000	1	-0.013875
29.416667	1	-0.061625
29.433333	1	-0.109375
29.450000	1	-0.158000
29.466667	1	-0.206500
29.483333	1	-0.255625
29.500000	1	-0.303750
29.516667	1	-0.351250
29.533333	1	-0.398000
29.550000	1	-0.443625
29.566667	1	-0.487875
29.583333	1	-0.530000
29.600000	1	-0.569875
29.616667	1	-0.607125
29.633333	1	-0.642000
29.650000	1	-0.673125
29.666667	1	-0.700750
29.683333	1	-0.725625
29.700000	1	-0.746250
29.716667	1	-0.763000
29.733333	1	-0.776250
29.750000	1	-0.784875
29.766667	1	-0.790125
29.783333	1	-0.791000
29.800000	1	-0.787750
29.816667	1	-0.780375
29.833333	1	-0.770000
29.850000	1	-0.756125
29.866667	1	-0.738500
29.883333	1	-0.718375
29.900000	1	-0.695375
29.916667	1	-0.670000
29.933333	1	-0.642625
29.950000	1	-0.613125
29.966667	1	-0.582875
29.983333	1	-0.550875
30.000000	1	-0.518375
30.016667	1	-0.485375
30.033333	1	-0.451375
30.050000	1	-0.417625
30.066667	1	-0.384375
30.083333	1	-0.350875
30.100000	1	-0.317875
30.116667	1	-0.285500
30.133333	1	-0.254125
30.150000	1	-0.223625
30.166667	1	-0.194625
30.183333	1	-0.166875
30.200000	1	-0.140000
30.216667	1	-0.113875
30.233333	1	-0.089500
30.250000	1	-0.066250
30.266667	1	-0.044125
30.283333	1	-0.022875
30.300000	1	-0.003875
30.316667	1	0.014000
30.333333	1	0.030625
30.350000	1	0.046375
30.366667	1	0.061500
30.383333	1	0.075750
30.400000	1	0.088375
30.416667	1	0.101125
30.433333	1	0.112125
30.450000	1	0.122875
30.466667	1	0.133000
30.483333	1	0.142125
30.500000	1	0.150875
30.516667	1	0.159375
30.533333	1	0.167500
30.550000	1	0.174750
30.566667	1	0.182125
30.583333	1	0.189000
30.600000	1	0.195375
30.616667	1	0.201375
30.633333	1	0.207750
30.650000	1	0.214250
30.666667	1	0.219625
30.683333	1	0.225875
30.700000	1	0.231625
30.716667	1	0.236875
30.733333	1	0.243875
30.750000	1	0.250750
30.766667	1	0.258375
30.783333	1	0.266250
30.800000	1	0.275625
30.816667	1	0.284750
30.833333	1	0.294625
30.850000	1	0.305000
30.866667	1	0.316875
30.883333	1	0.330125
30.900000	1	0.344125
30.916667	1	0.359375
30.933333	1	0.376250
30.950000	1	0.395500
30.966667	1	0.416500
30.983333	1	0.440375
31.000000	1	0.466500
31.016667	1	0.495500
31.033333	1	0.528250
31.050000	1	0.564375
31.066667	1	0.604500
31.083333	1	0.648625
31.100000	1	0.698250
31.116667	1	0.753000
31.133333	1	0.813625
31.150000	1	0.880000
31.166667	1	0.953250
31.183333	1	1.032500
31.200000	1	1.118875
31.216667	1	1.212250
31.233333	1	1.312250
31.250000	1	1.418500
31.266667	1	1.531250
31.283333	1	1.650125
31.300000	1	1.774875
31.316667	1	1.904750
31.333333	1	2.039000
31.350000	1	2.175250
31.366667	1	2.314375
31.383333	1	2.455375
31.400000	1	2.596000
31.416667	1	2.734875
31.433333	1	2.870250
31.450000	1	3.001500
31.466667	1	3.126000
31.483333	1	3.242125
31.500000	1	3.349750
31.516667	1	3.446250
31.533333	1	3.531375
31.550000	1	3.603625
31.566667	1	3.662125
31.583333	1	3.706125
31.600000	1	3.734750
31.616667	1	3.748125
31.633333	1	3.745625
31.650000	1	3.728500
31.666667	1	3.695750
31.683333	1	3.648625
31.700000	1	3.588000
31.716667	1	3.514000
31.733333	1	3.428625
31.750000	1	3.333250
31.766667	1	3.227625
31.783333	1	3.114125
31.800000	1	2.993625
31.816667	1	2.868750
31.833333	1	2.739250
31.850000	1	2.607000
31.866667	1	2.474000
31.883333	1	2.341000
31.900000	1	2.208875
31.916667	1	2.078625
31.933333	1	1.950875
31.950000	1	1.826875
31.966667	1	1.706750
31.983333	1	1.590750
32.000000	1	1.479750
32.016667	1	1.373125
32.033333	1	1.272250
32.050000	1	1.176500
32.066667	1	1.086875
32.083333	1	1.001750
32.100000	1	0.922625
32.116667	1	0.848250
32.133333	1	0.780250
32.150000	1	0.716250
32.166667	1	0.656500
32.183333	1	0.601375
32.200000	1	0.549875
32.216667	1	0.503000
32.233333	1	0.460000
32.250000	1	0.420500
32.266667	1	0.383875
32.283333	1	0.350250
32.300000	1	0.318750
32.316667	1	0.290875
32.333333	1	0.265250
32.350000	1	0.242250
32.366667	1	0.221250
32.383333	1	0.202000
32.400000	1	0.184750
32.416667	1	0.168750
32.433333	1	0.154750
32.450000	1	0.141750
32.466667	1	0.129750
32.483333	1	0.119500
32.500000	1	0.110750
32.516667	1	0.103375
32.533333	1	0.096250
32.550000	1	0.090500
32.566667	1	0.084875
32.583333	1	0.080375
32.600000	1	0.076500
32.616667	1	0.072875
32.633333	1	0.070250
32.650000	1	0.067875
32.666667	1	0.065750
32.683333	1	0.063750
32.700000	1	0.063000
32.716667	1	0.061750
32.733333	1	0.061000
32.750000	1	0.060125
32.766667	1	0.060000
32.783333	1	0.059750
32.800000	1	0.059625
32.816667	1	0.059375
32.833333	1	0.059750
32.850000	1	0.059625
32.866667	1	0.059625
32.883333	1	0.059875
32.900000	1	0.060500
32.916667	1	0.060625
32.933333	1	0.062000
32.950000	1	0.062625
32.966667	1	0.063500
32.983333	1	0.064750
33.000000	1	0.065250
33.016667	1	0.066500
33.033333	1	0.067375
33.050000	1	0.068125
33.066667	1	0.069375
33.083333	1	0.070750
33.100000	1	0.072125
33.116667	1	0.074250
33.133333	1	0.075875
33.150000	1	0.077375
33.166667	1	0.079375
33.183333	1	0.080750
33.200000	1	0.082125
33.216667	1	0.084125
33.233333	1	0.085875
33.250000	1	0.087500
33.266667	1	0.088625
33.283333	1	0.090875
33.300000	1	0.092250
33.316667	1	0.093875
33.333333	1	0.095375
33.350000	1	0.095875
33.366667	1	0.097125
33.383333	1	0.098125
33.400000	1	0.099125
33.416667	1	0.099750
33.433333	1	0.101000
33.450000	1	0.101375
33.466667	1	0.102250
33.483333	1	0.102375
33.500000	1	0.102250
33.516667	1	0.102875
33.533333	1	0.103375
33.550000	1	0.104375
33.566667	1	0.104000
33.583333	1	0.104250
33.600000	1	0.103875
33.616667	1	0.103875
33.633333	1	0.103750
33.650000	1	0.103500
33.666667	1	0.103375
33.683333	1	0.102875
33.700000	1	0.102875
33.716667	1	0.103500
33.733333	1	0.103750
33.750000	1	0.104875
33.766667	1	0.104500
33.783333	1	0.105375
33.800000	1	0.105875
33.816667	1	0.106500
33.833333	1	0.106875
33.850000	1	0.108125
33.866667	1	0.108625
33.883333	1	0.110000
33.900000	1	0.110875
33.916667	1	0.111875
33.933333	1	0.113625
33.950000	1	0.115500
33.966667	1	0.117000
33.983333	1	0.118750
34.000000	1	0.120500
34.016667	1	0.121500
34.033333	1	0.122250
34.050000	1	0.123375
34.066667	1	0.124750
34.083333	1	0.125500
34.100000	1	0.127500
34.116667	1	0.127750
34.133333	1	0.128250
34.150000	1	0.128875
34.166667	1	0.130625
34.183333	1	0.131000
34.200000	1	0.132375
34.216667	1	0.133125
34.233333	1	0.133375
34.250000	1	0.133625
34.266667	1	0.133875
34.283333	1	0.133875
34.300000	1	0.134625
34.316667	1	0.135250
34.333333	1	0.135625
34.350000	1	0.136000
34.366667	1	0.135750
34.383333	1	0.136125
34.400000	1	0.136125
34.416667	1	0.136500
34.433333	1	0.136500
34.450000	1	0.136750
34.466667	1	0.136500
34.483333	1	0.136750
34.500000	1	0.137250
34.516667	1	0.137625
34.533333	1	0.138375
34.550000	1	0.139125
34.566667	1	0.140500
34.583333	1	0.141250
34.600000	1	0.142250
34.616667	1	0.143500
34.633333	1	0.144750
34.650000	1	0.145750
34.666667	1	0.146250
34.683333	1	0.148125
34.700000	1	0.149500
34.716667	1	0.150500
34.733333	1	0.152625
34.750000	1	0.153500
34.766667	1	0.154750
34.783333	1	0.156000
34.800000	1	0.157250
34.816667	1	0.158375
34.833333	1	0.159000
34.850000	1	0.159625
34.866667	1	0.160500
34.883333	1	0.160750
34.900000	1	0.160750
34.916667	1	0.160375
34.933333	1	0.159750
34.950000	1	0.159500
34.966667	1	0.158875
34.983333	1	0.158125
35.000000	1	0.156375
35.016667	1	0.155375
35.033333	1	0.154250
35.050000	1	0.152125
35.066667	1	0.150625
35.083333	1	0.148500
35.100000	1	0.146875
35.116667	1	0.144875
35.133333	1	0.142000
35.150000	1	0.140250
35.166667	1	0.137375
35.183333	1	0.135250
35.200000	1	0.132250
35.216667	1	0.130500
35.233333	1	0.128750
35.250000	1	0.126875
35.266667	1	0.125250
35.283333	1	0.124000
35.300000	1	0.122125
35.316667	1	0.120875
35.333333	1	0.120125
35.350000	1	0.118750
35.366667	1	0.117500
35.383333	1	0.117625
35.400000	1	0.117375
35.416667	1	0.117125
35.433333	1	0.117375
35.450000	1	0.117750
35.466667	1	0.118000
35.483333	1	0.118500
35.500000	1	0.119000
35.516667	1	0.120125
35.533333	1	0.121250
35.550000	1	0.121750
35.566667	1	0.123375
35.583333	1	0.124875
35.600000	1	0.126625
35.616667	1	0.127375
35.633333	1	0.128500
35.650000	1	0.129500
35.666667	1	0.130875
35.683333	1	0.131750
35.700000	1	0.133000
35.716667	1	0.134000
35.733333	1	0.134750
35.750000	1	0.135750
35.766667	1	0.136125
35.783333	1	0.136250
35.800000	1	0.136125
35.816667	1	0.135875
35.833333	1	0.135875
35.850000	1	0.135250
35.866667	1	0.135125
35.883333	1	0.134750
35.900000	1	0.134250
35.916667	1	0.133250
35.933333	1	0.132750
35.950000	1	0.131500
35.966667	1	0.131250
35.983333	1	0.130250
36.000000	1	0.129125
36.016667	1	0.128125
36.033333	1	0.127375
36.050000	1	0.125875
36.066667	1	0.125125
36.083333	1	0.124625
36.100000	1	0.124375
36.116667	1	0.123250
36.133333	1	0.122750
36.150000	1	0.122125
36.166667	1	0.122250
36.183333	1	0.121875
36.200000	1	0.122625
36.216667	1	0.123000
36.233333	1	0.123875
36.250000	1	0.124500
36.266667	1	0.125750
36.283333	1	0.126500
36.300000	1	0.128375
36.316667	1	0.130250
36.333333	1	0.132000
36.350000	1	0.134375
36.366667	1	0.137000
36.383333	1	0.138875
36.400000	1	0.141250
36.416667	1	0.143625
36.433333	1	0.146250
36.450000	1	0.149125
36.466667	1	0.151625
36.483333	1	0.154125
36.500000	1	0.156375
36.516667	1	0.158375
36.533333	1	0.160500
36.550000	1	0.162375
36.566667	1	0.163000
36.583333	1	0.164125
36.600000	1	0.164750
36.616667	1	0.165125
36.633333	1	0.165000
36.650000	1	0.164875
36.666667	1	0.163250
36.683333	1	0.161875
36.700000	1	0.159875
36.716667	1	0.158250
36.733333	1	0.155500
36.750000	1	0.152750
36.766667	1	0.150000
36.783333	1	0.146625
36.800000	1	0.142875
36.816667	1	0.138875
36.833333	1	0.135750
36.850000	1	0.131250
36.866667	1	0.126875
36.883333	1	0.122250
36.900000	1	0.118625
36.916667	1	0.114875
36.933333	1	0.112000
36.950000	1	0.108000
36.966667	1	0.104250
36.983333	1	0.101000
37.000000	1	0.098000
37.016667	1	0.094375
37.033333	1	0.091375
37.050000	1	0.088500
37.066667	1	0.085875
37.083333	1	0.084000
37.100000	1	0.082500
37.116667	1	0.080500
37.133333	1	0.079875
37.150000	1	0.079500
37.166667	1	0.078000
37.183333	1	0.077750
37.200000	1	0.077125
37.216667	1	0.077375
37.233333	1	0.077250
37.250000	1	0.078000
37.266667	1	0.078375
37.283333	1	0.079500
37.300000	1	0.080500
37.316667	1	0.081625
37.333333	1	0.083000
37.350000	1	0.084500
37.366667	1	0.086000
37.383333	1	0.088375
37.400000	1	0.089875
37.416667	1	0.092000
37.433333	1	0.094000
37.450000	1	0.096625
37.466667	1	0.098250
37.483333	1	0.100125
37.500000	1	0.102500
37.516667	1	0.104250
37.533333	1	0.106625
37.550000	1	0.108375
37.566667	1	0.109750
37.583333	1	0.111250
37.600000	1	0.112750
37.616667	1	0.114375
37.633333	1	0.115750
37.650000	1	0.117000
37.666667	1	0.118125
37.683333	1	0.119125
37.700000	1	0.120125
37.716667	1	0.120000
37.733333	1	0.120625
37.750000	1	0.120750
37.766667	1	0.120125
37.783333	1	0.118875
37.800000	1	0.118500
37.816667	1	0.117750
37.833333	1	0.116250
37.850000	1	0.115500
37.866667	1	0.113750
37.883333	1	0.112750
37.900000	1	0.110750
37.916667	1	0.109125
37.933333	1	0.106625
37.950000	1	0.105750
37.966667	1	0.103625
37.983333	1	0.101250
38.000000	1	0.099125
38.016667	1	0.097125
38.033333	1	0.094625
38.050000	1	0.092125
38.066667	1	0.089625
38.083333	1	0.087375
38.100000	1	0.085375
38.116667	1	0.083875
38.133333	1	0.082375
38.150000	1	0.080000
38.166667	1	0.078125
38.183333	1	0.076750
38.200000	1	0.075375
38.216667	1	0.074000
38.233333	1	0.073750
38.250000	1	0.073375
38.266667	1	0.072500
38.283333	1	0.071625
38.300000	1	0.071125
38.316667	1	0.070625
38.333333	1	0.070750
38.350000	1	0.070750
38.366667	1	0.070625
38.383333	1	0.070750
38.400000	1	0.071125
38.416667	1	0.071250
38.433333	1	0.071625
38.450000	1	0.071750
38.466667	1	0.072125
38.483333	1	0.072375
38.500000	1	0.072750
38.516667	1	0.072875
38.533333	1	0.073250
38.550000	1	0.073000
38.566667	1	0.072875
38.583333	1	0.072625
38.600000	1	0.071750
38.616667	1	0.070750
38.633333	1	0.069125
38.650000	1	0.068625
38.666667	1	0.067250
38.683333	1	0.065875
38.700000	1	0.064250
38.716667	1	0.061750
38.733333	1	0.060250
38.750000	1	0.059625
38.766667	1	0.057875
38.783333	1	0.056875
38.800000	1	0.055375
38.816667	1	0.054125
38.833333	1	0.052625
38.850000	1	0.051750
38.866667	1	0.050625
38.883333	1	0.050125
38.900000	1	0.049375
38.916667	1	0.049375
38.933333	1	0.049000
38.950000	1	0.049000
38.966667	1	0.048750
38.983333	1	0.049375
39.000000	1	0.049375
39.016667	1	0.049625
39.033333	1	0.050375
39.050000	1	0.050250
39.066667	1	0.050750
39.083333	1	0.051125
39.100000	1	0.051625
39.116667	1	0.052250
39.133333	1	0.052500
39.150000	1	0.052750
39.166667	1	0.051750
39.183333	1	0.051500
39.200000	1	0.051125
39.216667	1	0.050375
39.233333	1	0.049125
39.250000	1	0.048125
39.266667	1	0.047375
39.283333	1	0.046125
39.300000	1	0.043875
39.316667	1	0.042000
39.333333	1	0.040000
39.350000	1	0.037750
39.366667	1	0.035375
39.383333	1	0.032875
39.400000	1	0.030375
39.416667	1	0.028125
39.433333	1	0.026375
39.450000	1	0.024125
39.466667	1	0.022875
39.483333	1	0.020875
39.500000	1	0.019125
39.516667	1	0.018125
39.533333	1	0.016125
39.550000	1	0.015000
39.566667	1	0.014125
39.583333	1	0.012750
39.600000	1	0.012125
39.616667	1	0.012375
39.633333	1	0.012250
39.650000	1	0.011750
39.666667	1	0.011875
39.683333	1	0.012000
39.700000	1	0.013375
39.716667	1	0.014000
39.733333	1	0.014375
39.750000	1	0.015500
39.766667	1	0.016875
39.783333	1	0.017250
39.800000	1	0.018750
39.816667	1	0.019250
39.833333	1	0.021500
39.850000	1	0.023500
39.866667	1	0.025125
39.883333	1	0.026750
39.900000	1	0.028375
39.916667	1	0.030375
39.933333	1	0.032000
39.950000	1	0.033500
39.966667	1	0.034625
39.983333	1	0.035625
40.000000	1	0.037625
