URL	chrom://bioreactor/micro_cm7/HPLC_Ultimate_3000/Users/markusar/20240517_CMO_FP23_FP25_MarkusDeplate.seq/682.smp/RI_1.channel/RI_1.chm
Channel	RI_1

Injection Information:
Data Vault	micro_cm7
Sequence	20240517_CMO_FP23_FP25_MarkusDeplate
Name	FP28_22.1_s9
Number	150
Position	BB4
Comment	
Processing Method	
Instrument Method	run_25B_method
Type	Unknown
Status	Finished
Inject Time	01.06.2024 01:33:19 +02:00
Volume (µl)	20.0000
Dilution Factor	1.0000
Weight	1.0000

Chromatogram Data Information:
Time Min. (min)	0.000000
Time Max. (min)	40.000000
Data Points	2401
Detector	RI
Generating Data System	Chromeleon 7.3.2.11814
Exporting Data System	Chromeleon 7.3.2.0
Operator	Instrument Controller
Signal Quantity	Refractive 
Signal Unit	µRIU
Signal Min.	-0.876375
Signal Max.	50.991375
Channel	RI_1
Driver Name	RID520Driver.dll
Channel Type	Evaluation
Min. Step (s)	1
Max. Step (s)	1
Average Step (s)	1

Signal Parameter Information:
Signal Info	

Chromatogram Data:
Time (min)	Step (s)	Value (µRIU)
0.000000	n.a.	0.012000
0.016667	1	0.013125
0.033333	1	0.015250
0.050000	1	0.016500
0.066667	1	0.017750
0.083333	1	0.019125
0.100000	1	0.020625
0.116667	1	0.022500
0.133333	1	0.023375
0.150000	1	0.025125
0.166667	1	0.026250
0.183333	1	0.027750
0.200000	1	0.028250
0.216667	1	0.029500
0.233333	1	0.031250
0.250000	1	0.032750
0.266667	1	0.034500
0.283333	1	0.035875
0.300000	1	0.036625
0.316667	1	0.038500
0.333333	1	0.039750
0.350000	1	0.040375
0.366667	1	0.041375
0.383333	1	0.042375
0.400000	1	0.042500
0.416667	1	0.043125
0.433333	1	0.044375
0.450000	1	0.045500
0.466667	1	0.046375
0.483333	1	0.046875
0.500000	1	0.047000
0.516667	1	0.046875
0.533333	1	0.047125
0.550000	1	0.047000
0.566667	1	0.047250
0.583333	1	0.046875
0.600000	1	0.047125
0.616667	1	0.046375
0.633333	1	0.045500
0.650000	1	0.045000
0.666667	1	0.045000
0.683333	1	0.043750
0.700000	1	0.043375
0.716667	1	0.042500
0.733333	1	0.041750
0.750000	1	0.040750
0.766667	1	0.040625
0.783333	1	0.040125
0.800000	1	0.039625
0.816667	1	0.039125
0.833333	1	0.038625
0.850000	1	0.038625
0.866667	1	0.039125
0.883333	1	0.039750
0.900000	1	0.040125
0.916667	1	0.040125
0.933333	1	0.040125
0.950000	1	0.040750
0.966667	1	0.041375
0.983333	1	0.042625
1.000000	1	0.043750
1.016667	1	0.045250
1.033333	1	0.046750
1.050000	1	0.048000
1.066667	1	0.049875
1.083333	1	0.051625
1.100000	1	0.053375
1.116667	1	0.055125
1.133333	1	0.057125
1.150000	1	0.058875
1.166667	1	0.060375
1.183333	1	0.062250
1.200000	1	0.063875
1.216667	1	0.065500
1.233333	1	0.066875
1.250000	1	0.068250
1.266667	1	0.069625
1.283333	1	0.071375
1.300000	1	0.072750
1.316667	1	0.073875
1.333333	1	0.075125
1.350000	1	0.076250
1.366667	1	0.077500
1.383333	1	0.078875
1.400000	1	0.079500
1.416667	1	0.080875
1.433333	1	0.081625
1.450000	1	0.082375
1.466667	1	0.083375
1.483333	1	0.084500
1.500000	1	0.085250
1.516667	1	0.086000
1.533333	1	0.085875
1.550000	1	0.087125
1.566667	1	0.087750
1.583333	1	0.088375
1.600000	1	0.088500
1.616667	1	0.089125
1.633333	1	0.089750
1.650000	1	0.090375
1.666667	1	0.090000
1.683333	1	0.090125
1.700000	1	0.091000
1.716667	1	0.092000
1.733333	1	0.092500
1.750000	1	0.093125
1.766667	1	0.092875
1.783333	1	0.092875
1.800000	1	0.093125
1.816667	1	0.094000
1.833333	1	0.094500
1.850000	1	0.094750
1.866667	1	0.095250
1.883333	1	0.094750
1.900000	1	0.094250
1.916667	1	0.094500
1.933333	1	0.094250
1.950000	1	0.093125
1.966667	1	0.092500
1.983333	1	0.091625
2.000000	1	0.090625
2.016667	1	0.089750
2.033333	1	0.088875
2.050000	1	0.087625
2.066667	1	0.085500
2.083333	1	0.083500
2.100000	1	0.082000
2.116667	1	0.079875
2.133333	1	0.077500
2.150000	1	0.075125
2.166667	1	0.073000
2.183333	1	0.071250
2.200000	1	0.069125
2.216667	1	0.066875
2.233333	1	0.064875
2.250000	1	0.063125
2.266667	1	0.062125
2.283333	1	0.060375
2.300000	1	0.059000
2.316667	1	0.058000
2.333333	1	0.056625
2.350000	1	0.056500
2.366667	1	0.055625
2.383333	1	0.055500
2.400000	1	0.056000
2.416667	1	0.056375
2.433333	1	0.056750
2.450000	1	0.057125
2.466667	1	0.058000
2.483333	1	0.059625
2.500000	1	0.061125
2.516667	1	0.062375
2.533333	1	0.064000
2.550000	1	0.065375
2.566667	1	0.067875
2.583333	1	0.069750
2.600000	1	0.072000
2.616667	1	0.074250
2.633333	1	0.076000
2.650000	1	0.077500
2.666667	1	0.080125
2.683333	1	0.082500
2.700000	1	0.083750
2.716667	1	0.085250
2.733333	1	0.086500
2.750000	1	0.088125
2.766667	1	0.089750
2.783333	1	0.091000
2.800000	1	0.092250
2.816667	1	0.093875
2.833333	1	0.094875
2.850000	1	0.095375
2.866667	1	0.096500
2.883333	1	0.097500
2.900000	1	0.097625
2.916667	1	0.097625
2.933333	1	0.098125
2.950000	1	0.098250
2.966667	1	0.097750
2.983333	1	0.098250
3.000000	1	0.097875
3.016667	1	0.097625
3.033333	1	0.097000
3.050000	1	0.096750
3.066667	1	0.096875
3.083333	1	0.097000
3.100000	1	0.097250
3.116667	1	0.097125
3.133333	1	0.096625
3.150000	1	0.096250
3.166667	1	0.096750
3.183333	1	0.097000
3.200000	1	0.097250
3.216667	1	0.097500
3.233333	1	0.097750
3.250000	1	0.097875
3.266667	1	0.098250
3.283333	1	0.099125
3.300000	1	0.100125
3.316667	1	0.101250
3.333333	1	0.102250
3.350000	1	0.102750
3.366667	1	0.103750
3.383333	1	0.105375
3.400000	1	0.107375
3.416667	1	0.108750
3.433333	1	0.110125
3.450000	1	0.111500
3.466667	1	0.112750
3.483333	1	0.114500
3.500000	1	0.116000
3.516667	1	0.117125
3.533333	1	0.118375
3.550000	1	0.119500
3.566667	1	0.120500
3.583333	1	0.121375
3.600000	1	0.121875
3.616667	1	0.122750
3.633333	1	0.123125
3.650000	1	0.122625
3.666667	1	0.123125
3.683333	1	0.122625
3.700000	1	0.122250
3.716667	1	0.121875
3.733333	1	0.121875
3.750000	1	0.121125
3.766667	1	0.120375
3.783333	1	0.119625
3.800000	1	0.119500
3.816667	1	0.118125
3.833333	1	0.117250
3.850000	1	0.117125
3.866667	1	0.116750
3.883333	1	0.116625
3.900000	1	0.116000
3.916667	1	0.115250
3.933333	1	0.114500
3.950000	1	0.113875
3.966667	1	0.112750
3.983333	1	0.112750
4.000000	1	0.112125
4.016667	1	0.111750
4.033333	1	0.111125
4.050000	1	0.110375
4.066667	1	0.110125
4.083333	1	0.109250
4.100000	1	0.108875
4.116667	1	0.107750
4.133333	1	0.107375
4.150000	1	0.107125
4.166667	1	0.107375
4.183333	1	0.107000
4.200000	1	0.106750
4.216667	1	0.106500
4.233333	1	0.107125
4.250000	1	0.107500
4.266667	1	0.108250
4.283333	1	0.108750
4.300000	1	0.109500
4.316667	1	0.110250
4.333333	1	0.110875
4.350000	1	0.111625
4.366667	1	0.112000
4.383333	1	0.113125
4.400000	1	0.114125
4.416667	1	0.115000
4.433333	1	0.116625
4.450000	1	0.118250
4.466667	1	0.119500
4.483333	1	0.120875
4.500000	1	0.121875
4.516667	1	0.123750
4.533333	1	0.125625
4.550000	1	0.127625
4.566667	1	0.128875
4.583333	1	0.130625
4.600000	1	0.131625
4.616667	1	0.133875
4.633333	1	0.135750
4.650000	1	0.138500
4.666667	1	0.140000
4.683333	1	0.141875
4.700000	1	0.143625
4.716667	1	0.146250
4.733333	1	0.147875
4.750000	1	0.150000
4.766667	1	0.152250
4.783333	1	0.155500
4.800000	1	0.158500
4.816667	1	0.160750
4.833333	1	0.163375
4.850000	1	0.166625
4.866667	1	0.169750
4.883333	1	0.173000
4.900000	1	0.175625
4.916667	1	0.179000
4.933333	1	0.182375
4.950000	1	0.186250
4.966667	1	0.189375
4.983333	1	0.192750
5.000000	1	0.196750
5.016667	1	0.200000
5.033333	1	0.203750
5.050000	1	0.208000
5.066667	1	0.211750
5.083333	1	0.216000
5.100000	1	0.219625
5.116667	1	0.223500
5.133333	1	0.227250
5.150000	1	0.231500
5.166667	1	0.235750
5.183333	1	0.239750
5.200000	1	0.243500
5.216667	1	0.247875
5.233333	1	0.252500
5.250000	1	0.257125
5.266667	1	0.260250
5.283333	1	0.264250
5.300000	1	0.268375
5.316667	1	0.272500
5.333333	1	0.275875
5.350000	1	0.279375
5.366667	1	0.283250
5.383333	1	0.286750
5.400000	1	0.290000
5.416667	1	0.292875
5.433333	1	0.295750
5.450000	1	0.298375
5.466667	1	0.300875
5.483333	1	0.303250
5.500000	1	0.305000
5.516667	1	0.306625
5.533333	1	0.308750
5.550000	1	0.310875
5.566667	1	0.312375
5.583333	1	0.313750
5.600000	1	0.315125
5.616667	1	0.316625
5.633333	1	0.317625
5.650000	1	0.318000
5.666667	1	0.318250
5.683333	1	0.318625
5.700000	1	0.319625
5.716667	1	0.319500
5.733333	1	0.319500
5.750000	1	0.319625
5.766667	1	0.319250
5.783333	1	0.318750
5.800000	1	0.318625
5.816667	1	0.317875
5.833333	1	0.316625
5.850000	1	0.315750
5.866667	1	0.313125
5.883333	1	0.311500
5.900000	1	0.310375
5.916667	1	0.307750
5.933333	1	0.305125
5.950000	1	0.302375
5.966667	1	0.298625
5.983333	1	0.295750
6.000000	1	0.292250
6.016667	1	0.288250
6.033333	1	0.284000
6.050000	1	0.279125
6.066667	1	0.274375
6.083333	1	0.269375
6.100000	1	0.263875
6.116667	1	0.259750
6.133333	1	0.254500
6.150000	1	0.249750
6.166667	1	0.243875
6.183333	1	0.238375
6.200000	1	0.233250
6.216667	1	0.228000
6.233333	1	0.222125
6.250000	1	0.217500
6.266667	1	0.212750
6.283333	1	0.207750
6.300000	1	0.203250
6.316667	1	0.198500
6.333333	1	0.194625
6.350000	1	0.190250
6.366667	1	0.186375
6.383333	1	0.183500
6.400000	1	0.180875
6.416667	1	0.177625
6.433333	1	0.175375
6.450000	1	0.173000
6.466667	1	0.170750
6.483333	1	0.169500
6.500000	1	0.167875
6.516667	1	0.166750
6.533333	1	0.166000
6.550000	1	0.166125
6.566667	1	0.165250
6.583333	1	0.165125
6.600000	1	0.165500
6.616667	1	0.165500
6.633333	1	0.166250
6.650000	1	0.166625
6.666667	1	0.166875
6.683333	1	0.168750
6.700000	1	0.169250
6.716667	1	0.170000
6.733333	1	0.170750
6.750000	1	0.173000
6.766667	1	0.174375
6.783333	1	0.175750
6.800000	1	0.176875
6.816667	1	0.177625
6.833333	1	0.179000
6.850000	1	0.179750
6.866667	1	0.180750
6.883333	1	0.181625
6.900000	1	0.183000
6.916667	1	0.183500
6.933333	1	0.184250
6.950000	1	0.185500
6.966667	1	0.186500
6.983333	1	0.187125
7.000000	1	0.187125
7.016667	1	0.188125
7.033333	1	0.188500
7.050000	1	0.189375
7.066667	1	0.189750
7.083333	1	0.190125
7.100000	1	0.190500
7.116667	1	0.191125
7.133333	1	0.191250
7.150000	1	0.191375
7.166667	1	0.192000
7.183333	1	0.192125
7.200000	1	0.192625
7.216667	1	0.192750
7.233333	1	0.193250
7.250000	1	0.194125
7.266667	1	0.194875
7.283333	1	0.195500
7.300000	1	0.196000
7.316667	1	0.196250
7.333333	1	0.196750
7.350000	1	0.197250
7.366667	1	0.198375
7.383333	1	0.198500
7.400000	1	0.199375
7.416667	1	0.199375
7.433333	1	0.198875
7.450000	1	0.199250
7.466667	1	0.199000
7.483333	1	0.199000
7.500000	1	0.198875
7.516667	1	0.198500
7.533333	1	0.199000
7.550000	1	0.198500
7.566667	1	0.198375
7.583333	1	0.197500
7.600000	1	0.197500
7.616667	1	0.197125
7.633333	1	0.196750
7.650000	1	0.195875
7.666667	1	0.196000
7.683333	1	0.194875
7.700000	1	0.194250
7.716667	1	0.193125
7.733333	1	0.192250
7.750000	1	0.190875
7.766667	1	0.190375
7.783333	1	0.189375
7.800000	1	0.188875
7.816667	1	0.187750
7.833333	1	0.187125
7.850000	1	0.186000
7.866667	1	0.184375
7.883333	1	0.183500
7.900000	1	0.181750
7.916667	1	0.179750
7.933333	1	0.178750
7.950000	1	0.177625
7.966667	1	0.176375
7.983333	1	0.175000
8.000000	1	0.172750
8.016667	1	0.171125
8.033333	1	0.169375
8.050000	1	0.167250
8.066667	1	0.165625
8.083333	1	0.163000
8.100000	1	0.160625
8.116667	1	0.158125
8.133333	1	0.155500
8.150000	1	0.154250
8.166667	1	0.152500
8.183333	1	0.149875
8.200000	1	0.148125
8.216667	1	0.145750
8.233333	1	0.144500
8.250000	1	0.142875
8.266667	1	0.141000
8.283333	1	0.140125
8.300000	1	0.139375
8.316667	1	0.138375
8.333333	1	0.137375
8.350000	1	0.136250
8.366667	1	0.135250
8.383333	1	0.134625
8.400000	1	0.134500
8.416667	1	0.133750
8.433333	1	0.132875
8.450000	1	0.132250
8.466667	1	0.131750
8.483333	1	0.132000
8.500000	1	0.131625
8.516667	1	0.131375
8.533333	1	0.130625
8.550000	1	0.130125
8.566667	1	0.129625
8.583333	1	0.129625
8.600000	1	0.129000
8.616667	1	0.129125
8.633333	1	0.129000
8.650000	1	0.128250
8.666667	1	0.127500
8.683333	1	0.127000
8.700000	1	0.126500
8.716667	1	0.126500
8.733333	1	0.125625
8.750000	1	0.124250
8.766667	1	0.123625
8.783333	1	0.123000
8.800000	1	0.122125
8.816667	1	0.121625
8.833333	1	0.120375
8.850000	1	0.119500
8.866667	1	0.118375
8.883333	1	0.118000
8.900000	1	0.117625
8.916667	1	0.117250
8.933333	1	0.117250
8.950000	1	0.116750
8.966667	1	0.116625
8.983333	1	0.117250
9.000000	1	0.117750
9.016667	1	0.117750
9.033333	1	0.118000
9.050000	1	0.119000
9.066667	1	0.119250
9.083333	1	0.120625
9.100000	1	0.121625
9.116667	1	0.122875
9.133333	1	0.124125
9.150000	1	0.126375
9.166667	1	0.128125
9.183333	1	0.129250
9.200000	1	0.131250
9.216667	1	0.132375
9.233333	1	0.134375
9.250000	1	0.135750
9.266667	1	0.137250
9.283333	1	0.138125
9.300000	1	0.140375
9.316667	1	0.142250
9.333333	1	0.143000
9.350000	1	0.144500
9.366667	1	0.145500
9.383333	1	0.146125
9.400000	1	0.145875
9.416667	1	0.146500
9.433333	1	0.147250
9.450000	1	0.147375
9.466667	1	0.147125
9.483333	1	0.146875
9.500000	1	0.146375
9.516667	1	0.145875
9.533333	1	0.145375
9.550000	1	0.145250
9.566667	1	0.144125
9.583333	1	0.142625
9.600000	1	0.141625
9.616667	1	0.140250
9.633333	1	0.139125
9.650000	1	0.137250
9.666667	1	0.136000
9.683333	1	0.135125
9.700000	1	0.133500
9.716667	1	0.131625
9.733333	1	0.129625
9.750000	1	0.128500
9.766667	1	0.126375
9.783333	1	0.124875
9.800000	1	0.123625
9.816667	1	0.122000
9.833333	1	0.120500
9.850000	1	0.119000
9.866667	1	0.117625
9.883333	1	0.116000
9.900000	1	0.114875
9.916667	1	0.113625
9.933333	1	0.113375
9.950000	1	0.112375
9.966667	1	0.111250
9.983333	1	0.109875
10.000000	1	0.110250
10.016667	1	0.109500
10.033333	1	0.110125
10.050000	1	0.111125
10.066667	1	0.112750
10.083333	1	0.115000
10.100000	1	0.117500
10.116667	1	0.122125
10.133333	1	0.127250
10.150000	1	0.133875
10.166667	1	0.141375
10.183333	1	0.151000
10.200000	1	0.161500
10.216667	1	0.173750
10.233333	1	0.187875
10.250000	1	0.204375
10.266667	1	0.223500
10.283333	1	0.245375
10.300000	1	0.270125
10.316667	1	0.297500
10.333333	1	0.326375
10.350000	1	0.357000
10.366667	1	0.385125
10.383333	1	0.411000
10.400000	1	0.432500
10.416667	1	0.448625
10.433333	1	0.460250
10.450000	1	0.471250
10.466667	1	0.488500
10.483333	1	0.525125
10.500000	1	0.604750
10.516667	1	0.758250
10.533333	1	1.030250
10.550000	1	1.474875
10.566667	1	2.153500
10.583333	1	3.129250
10.600000	1	4.461250
10.616667	1	6.198125
10.633333	1	8.372125
10.650000	1	10.997125
10.666667	1	14.075125
10.683333	1	17.588000
10.700000	1	21.496750
10.716667	1	25.737625
10.733333	1	30.216000
10.750000	1	34.798000
10.766667	1	39.298125
10.783333	1	43.476875
10.800000	1	47.036250
10.816667	1	49.644750
10.833333	1	50.991375
10.850000	1	50.860625
10.866667	1	49.196625
10.883333	1	46.147125
10.900000	1	42.036250
10.916667	1	37.296500
10.933333	1	32.360500
10.950000	1	27.583625
10.966667	1	23.202750
10.983333	1	19.341875
11.000000	1	16.038000
11.016667	1	13.276375
11.033333	1	11.012875
11.050000	1	9.183250
11.066667	1	7.720750
11.083333	1	6.560375
11.100000	1	5.644000
11.116667	1	4.918500
11.133333	1	4.340625
11.150000	1	3.876000
11.166667	1	3.497875
11.183333	1	3.186500
11.200000	1	2.927125
11.216667	1	2.708625
11.233333	1	2.522250
11.250000	1	2.362250
11.266667	1	2.223875
11.283333	1	2.102750
11.300000	1	1.996625
11.316667	1	1.902750
11.333333	1	1.819500
11.350000	1	1.746250
11.366667	1	1.680625
11.383333	1	1.622625
11.400000	1	1.571500
11.416667	1	1.526500
11.433333	1	1.486375
11.450000	1	1.451125
11.466667	1	1.419875
11.483333	1	1.391875
11.500000	1	1.366625
11.516667	1	1.344500
11.533333	1	1.324250
11.550000	1	1.306125
11.566667	1	1.289750
11.583333	1	1.276125
11.600000	1	1.263750
11.616667	1	1.252250
11.633333	1	1.243125
11.650000	1	1.235375
11.666667	1	1.229250
11.683333	1	1.224625
11.700000	1	1.221000
11.716667	1	1.218625
11.733333	1	1.217625
11.750000	1	1.218250
11.766667	1	1.219750
11.783333	1	1.222250
11.800000	1	1.225375
11.816667	1	1.230375
11.833333	1	1.235625
11.850000	1	1.240625
11.866667	1	1.245500
11.883333	1	1.250000
11.900000	1	1.255375
11.916667	1	1.260750
11.933333	1	1.265500
11.950000	1	1.270000
11.966667	1	1.275750
11.983333	1	1.280750
12.000000	1	1.286375
12.016667	1	1.291875
12.033333	1	1.297250
12.050000	1	1.303625
12.066667	1	1.310500
12.083333	1	1.316875
12.100000	1	1.324125
12.116667	1	1.331000
12.133333	1	1.338500
12.150000	1	1.345625
12.166667	1	1.353250
12.183333	1	1.362000
12.200000	1	1.371500
12.216667	1	1.382500
12.233333	1	1.394875
12.250000	1	1.409750
12.266667	1	1.425875
12.283333	1	1.445625
12.300000	1	1.469375
12.316667	1	1.498250
12.333333	1	1.533125
12.350000	1	1.576125
12.366667	1	1.629000
12.383333	1	1.695125
12.400000	1	1.776125
12.416667	1	1.874875
12.433333	1	1.997125
12.450000	1	2.147250
12.466667	1	2.330625
12.483333	1	2.551375
12.500000	1	2.813125
12.516667	1	3.117375
12.533333	1	3.462875
12.550000	1	3.845625
12.566667	1	4.259125
12.583333	1	4.691750
12.600000	1	5.129375
12.616667	1	5.555125
12.633333	1	5.951875
12.650000	1	6.302625
12.666667	1	6.592125
12.683333	1	6.808375
12.700000	1	6.944750
12.716667	1	6.997375
12.733333	1	6.970500
12.750000	1	6.870750
12.766667	1	6.707500
12.783333	1	6.493625
12.800000	1	6.242375
12.816667	1	5.966375
12.833333	1	5.676000
12.850000	1	5.380625
12.866667	1	5.089000
12.883333	1	4.806125
12.900000	1	4.537125
12.916667	1	4.286625
12.933333	1	4.056625
12.950000	1	3.847875
12.966667	1	3.660125
12.983333	1	3.493375
13.000000	1	3.345750
13.016667	1	3.216000
13.033333	1	3.101625
13.050000	1	3.001625
13.066667	1	2.913625
13.083333	1	2.834750
13.100000	1	2.765250
13.116667	1	2.702250
13.133333	1	2.645750
13.150000	1	2.593750
13.166667	1	2.546625
13.183333	1	2.502625
13.200000	1	2.461750
13.216667	1	2.422625
13.233333	1	2.385375
13.250000	1	2.348625
13.266667	1	2.313750
13.283333	1	2.280250
13.300000	1	2.247500
13.316667	1	2.216000
13.333333	1	2.185375
13.350000	1	2.156000
13.366667	1	2.128500
13.383333	1	2.102875
13.400000	1	2.078625
13.416667	1	2.057375
13.433333	1	2.038375
13.450000	1	2.020750
13.466667	1	2.006625
13.483333	1	1.995375
13.500000	1	1.985625
13.516667	1	1.979500
13.533333	1	1.975375
13.550000	1	1.971375
13.566667	1	1.969250
13.583333	1	1.966500
13.600000	1	1.962500
13.616667	1	1.957875
13.633333	1	1.951125
13.650000	1	1.941125
13.666667	1	1.927750
13.683333	1	1.911375
13.700000	1	1.892250
13.716667	1	1.869875
13.733333	1	1.845375
13.750000	1	1.819500
13.766667	1	1.793125
13.783333	1	1.766125
13.800000	1	1.739500
13.816667	1	1.714125
13.833333	1	1.689625
13.850000	1	1.666250
13.866667	1	1.644000
13.883333	1	1.622875
13.900000	1	1.603500
13.916667	1	1.585125
13.933333	1	1.569125
13.950000	1	1.553500
13.966667	1	1.539625
13.983333	1	1.526750
14.000000	1	1.513625
14.016667	1	1.501375
14.033333	1	1.489875
14.050000	1	1.479375
14.066667	1	1.470000
14.083333	1	1.460250
14.100000	1	1.451875
14.116667	1	1.442875
14.133333	1	1.434750
14.150000	1	1.427000
14.166667	1	1.420750
14.183333	1	1.415875
14.200000	1	1.412375
14.216667	1	1.410125
14.233333	1	1.409875
14.250000	1	1.411625
14.266667	1	1.416000
14.283333	1	1.422625
14.300000	1	1.431875
14.316667	1	1.444500
14.333333	1	1.460375
14.350000	1	1.480875
14.366667	1	1.504875
14.383333	1	1.534500
14.400000	1	1.569750
14.416667	1	1.613625
14.433333	1	1.668125
14.450000	1	1.738500
14.466667	1	1.829375
14.483333	1	1.949875
14.500000	1	2.111250
14.516667	1	2.327250
14.533333	1	2.617250
14.550000	1	3.004875
14.566667	1	3.518125
14.583333	1	4.186750
14.600000	1	5.047875
14.616667	1	6.137500
14.633333	1	7.492750
14.650000	1	9.145000
14.666667	1	11.115750
14.683333	1	13.410500
14.700000	1	16.016125
14.716667	1	18.894875
14.733333	1	21.986125
14.750000	1	25.205125
14.766667	1	28.443250
14.783333	1	31.573250
14.800000	1	34.465250
14.816667	1	36.991000
14.833333	1	39.031000
14.850000	1	40.488125
14.866667	1	41.294000
14.883333	1	41.415875
14.900000	1	40.861125
14.916667	1	39.674500
14.933333	1	37.932375
14.950000	1	35.733000
14.966667	1	33.191750
14.983333	1	30.431125
15.000000	1	27.562000
15.016667	1	24.685875
15.033333	1	21.887625
15.050000	1	19.236750
15.066667	1	16.782625
15.083333	1	14.555500
15.100000	1	12.569000
15.116667	1	10.822875
15.133333	1	9.308750
15.150000	1	8.009125
15.166667	1	6.905125
15.183333	1	5.973500
15.200000	1	5.192875
15.216667	1	4.543625
15.233333	1	4.006000
15.250000	1	3.563750
15.266667	1	3.203125
15.283333	1	2.911500
15.300000	1	2.679125
15.316667	1	2.496125
15.333333	1	2.355500
15.350000	1	2.250750
15.366667	1	2.174750
15.383333	1	2.122500
15.400000	1	2.089250
15.416667	1	2.071000
15.433333	1	2.062500
15.450000	1	2.060125
15.466667	1	2.060250
15.483333	1	2.060125
15.500000	1	2.055750
15.516667	1	2.046500
15.533333	1	2.031000
15.550000	1	2.008750
15.566667	1	1.979500
15.583333	1	1.944750
15.600000	1	1.905000
15.616667	1	1.861625
15.633333	1	1.815750
15.650000	1	1.769375
15.666667	1	1.722875
15.683333	1	1.677875
15.700000	1	1.634875
15.716667	1	1.594250
15.733333	1	1.556500
15.750000	1	1.521250
15.766667	1	1.488250
15.783333	1	1.457000
15.800000	1	1.428750
15.816667	1	1.401750
15.833333	1	1.376875
15.850000	1	1.353625
15.866667	1	1.333125
15.883333	1	1.314250
15.900000	1	1.296750
15.916667	1	1.281250
15.933333	1	1.268000
15.950000	1	1.257000
15.966667	1	1.248625
15.983333	1	1.242500
16.000000	1	1.238500
16.016667	1	1.235375
16.033333	1	1.235000
16.050000	1	1.236000
16.066667	1	1.238625
16.083333	1	1.241625
16.100000	1	1.245000
16.116667	1	1.248875
16.133333	1	1.253500
16.150000	1	1.257625
16.166667	1	1.262000
16.183333	1	1.265125
16.200000	1	1.268125
16.216667	1	1.270625
16.233333	1	1.271750
16.250000	1	1.273625
16.266667	1	1.274125
16.283333	1	1.273750
16.300000	1	1.272500
16.316667	1	1.271375
16.333333	1	1.269875
16.350000	1	1.268875
16.366667	1	1.268000
16.383333	1	1.269125
16.400000	1	1.270500
16.416667	1	1.272875
16.433333	1	1.276000
16.450000	1	1.279750
16.466667	1	1.285375
16.483333	1	1.290625
16.500000	1	1.296500
16.516667	1	1.302125
16.533333	1	1.307250
16.550000	1	1.311250
16.566667	1	1.314500
16.583333	1	1.316500
16.600000	1	1.317125
16.616667	1	1.316375
16.633333	1	1.314375
16.650000	1	1.310875
16.666667	1	1.307375
16.683333	1	1.303750
16.700000	1	1.300125
16.716667	1	1.297250
16.733333	1	1.296000
16.750000	1	1.295875
16.766667	1	1.297500
16.783333	1	1.300125
16.800000	1	1.303875
16.816667	1	1.309125
16.833333	1	1.314375
16.850000	1	1.320250
16.866667	1	1.324875
16.883333	1	1.329875
16.900000	1	1.334125
16.916667	1	1.336500
16.933333	1	1.338000
16.950000	1	1.338000
16.966667	1	1.336500
16.983333	1	1.334375
17.000000	1	1.330750
17.016667	1	1.326375
17.033333	1	1.321500
17.050000	1	1.316500
17.066667	1	1.311125
17.083333	1	1.306250
17.100000	1	1.301750
17.116667	1	1.297000
17.133333	1	1.293250
17.150000	1	1.290375
17.166667	1	1.288125
17.183333	1	1.287375
17.200000	1	1.287625
17.216667	1	1.288625
17.233333	1	1.290250
17.250000	1	1.291375
17.266667	1	1.294625
17.283333	1	1.297625
17.300000	1	1.300625
17.316667	1	1.303625
17.333333	1	1.307875
17.350000	1	1.312250
17.366667	1	1.316375
17.383333	1	1.320375
17.400000	1	1.323875
17.416667	1	1.326250
17.433333	1	1.327250
17.450000	1	1.326875
17.466667	1	1.325750
17.483333	1	1.322625
17.500000	1	1.318125
17.516667	1	1.311875
17.533333	1	1.303375
17.550000	1	1.293250
17.566667	1	1.281750
17.583333	1	1.269250
17.600000	1	1.255375
17.616667	1	1.240625
17.633333	1	1.225000
17.650000	1	1.208750
17.666667	1	1.192375
17.683333	1	1.176125
17.700000	1	1.160125
17.716667	1	1.144375
17.733333	1	1.128375
17.750000	1	1.114000
17.766667	1	1.100750
17.783333	1	1.088125
17.800000	1	1.076125
17.816667	1	1.065250
17.833333	1	1.055000
17.850000	1	1.045875
17.866667	1	1.036250
17.883333	1	1.026875
17.900000	1	1.019625
17.916667	1	1.011750
17.933333	1	1.003875
17.950000	1	0.996625
17.966667	1	0.989375
17.983333	1	0.982625
18.000000	1	0.976375
18.016667	1	0.969125
18.033333	1	0.962375
18.050000	1	0.955625
18.066667	1	0.948625
18.083333	1	0.941500
18.100000	1	0.935375
18.116667	1	0.929750
18.133333	1	0.925125
18.150000	1	0.920875
18.166667	1	0.917500
18.183333	1	0.915375
18.200000	1	0.913250
18.216667	1	0.911375
18.233333	1	0.909875
18.250000	1	0.909250
18.266667	1	0.909000
18.283333	1	0.909875
18.300000	1	0.911250
18.316667	1	0.912375
18.333333	1	0.914625
18.350000	1	0.916625
18.366667	1	0.920250
18.383333	1	0.924500
18.400000	1	0.929750
18.416667	1	0.936000
18.433333	1	0.942750
18.450000	1	0.951875
18.466667	1	0.962625
18.483333	1	0.975625
18.500000	1	0.989125
18.516667	1	1.005750
18.533333	1	1.023250
18.550000	1	1.042750
18.566667	1	1.064375
18.583333	1	1.088250
18.600000	1	1.114500
18.616667	1	1.141125
18.633333	1	1.169875
18.650000	1	1.199875
18.666667	1	1.230875
18.683333	1	1.262750
18.700000	1	1.295375
18.716667	1	1.328375
18.733333	1	1.361875
18.750000	1	1.395625
18.766667	1	1.428250
18.783333	1	1.459625
18.800000	1	1.490625
18.816667	1	1.518250
18.833333	1	1.543875
18.850000	1	1.566250
18.866667	1	1.583625
18.883333	1	1.596125
18.900000	1	1.603875
18.916667	1	1.605875
18.933333	1	1.601875
18.950000	1	1.592500
18.966667	1	1.576750
18.983333	1	1.555125
19.000000	1	1.526875
19.016667	1	1.494250
19.033333	1	1.456500
19.050000	1	1.415750
19.066667	1	1.371250
19.083333	1	1.324750
19.100000	1	1.277250
19.116667	1	1.230625
19.133333	1	1.185250
19.150000	1	1.141000
19.166667	1	1.100000
19.183333	1	1.061625
19.200000	1	1.028125
19.216667	1	0.999500
19.233333	1	0.976000
19.250000	1	0.958125
19.266667	1	0.946000
19.283333	1	0.939750
19.300000	1	0.939125
19.316667	1	0.945500
19.333333	1	0.957375
19.350000	1	0.974125
19.366667	1	0.996500
19.383333	1	1.022375
19.400000	1	1.051750
19.416667	1	1.084500
19.433333	1	1.118375
19.450000	1	1.153500
19.466667	1	1.187875
19.483333	1	1.221875
19.500000	1	1.252500
19.516667	1	1.280500
19.533333	1	1.305250
19.550000	1	1.325375
19.566667	1	1.341000
19.583333	1	1.351750
19.600000	1	1.356750
19.616667	1	1.356500
19.633333	1	1.350625
19.650000	1	1.340250
19.666667	1	1.326000
19.683333	1	1.307375
19.700000	1	1.284625
19.716667	1	1.259500
19.733333	1	1.231000
19.750000	1	1.201000
19.766667	1	1.169625
19.783333	1	1.137375
19.800000	1	1.104875
19.816667	1	1.072375
19.833333	1	1.040250
19.850000	1	1.009375
19.866667	1	0.979000
19.883333	1	0.951250
19.900000	1	0.925375
19.916667	1	0.902750
19.933333	1	0.882875
19.950000	1	0.867625
19.966667	1	0.855375
19.983333	1	0.847500
20.000000	1	0.844500
20.016667	1	0.846250
20.033333	1	0.853750
20.050000	1	0.867375
20.066667	1	0.886750
20.083333	1	0.912375
20.100000	1	0.944000
20.116667	1	0.981500
20.133333	1	1.024000
20.150000	1	1.071125
20.166667	1	1.122000
20.183333	1	1.174875
20.200000	1	1.229750
20.216667	1	1.282500
20.233333	1	1.333625
20.250000	1	1.380125
20.266667	1	1.421000
20.283333	1	1.454375
20.300000	1	1.480500
20.316667	1	1.496500
20.333333	1	1.502875
20.350000	1	1.499125
20.366667	1	1.486125
20.383333	1	1.463625
20.400000	1	1.433000
20.416667	1	1.396125
20.433333	1	1.352375
20.450000	1	1.305750
20.466667	1	1.257125
20.483333	1	1.208625
20.500000	1	1.161375
20.516667	1	1.117875
20.533333	1	1.078625
20.550000	1	1.046000
20.566667	1	1.020625
20.583333	1	1.004250
20.600000	1	0.996250
20.616667	1	0.998000
20.633333	1	1.009375
20.650000	1	1.031250
20.666667	1	1.063125
20.683333	1	1.104500
20.700000	1	1.154875
20.716667	1	1.211750
20.733333	1	1.275750
20.750000	1	1.343000
20.766667	1	1.414000
20.783333	1	1.485250
20.800000	1	1.555125
20.816667	1	1.620625
20.833333	1	1.680375
20.850000	1	1.730500
20.866667	1	1.769875
20.883333	1	1.798375
20.900000	1	1.814125
20.916667	1	1.815375
20.933333	1	1.804125
20.950000	1	1.779750
20.966667	1	1.743250
20.983333	1	1.696000
21.000000	1	1.639625
21.016667	1	1.576125
21.033333	1	1.506875
21.050000	1	1.434500
21.066667	1	1.360375
21.083333	1	1.286375
21.100000	1	1.212875
21.116667	1	1.143000
21.133333	1	1.076000
21.150000	1	1.013500
21.166667	1	0.955125
21.183333	1	0.902500
21.200000	1	0.854625
21.216667	1	0.811375
21.233333	1	0.773250
21.250000	1	0.739250
21.266667	1	0.709375
21.283333	1	0.683250
21.300000	1	0.661250
21.316667	1	0.642250
21.333333	1	0.625875
21.350000	1	0.611750
21.366667	1	0.600500
21.383333	1	0.591500
21.400000	1	0.584500
21.416667	1	0.578625
21.433333	1	0.574875
21.450000	1	0.572500
21.466667	1	0.571875
21.483333	1	0.572625
21.500000	1	0.576000
21.516667	1	0.580375
21.533333	1	0.586375
21.550000	1	0.594375
21.566667	1	0.605000
21.583333	1	0.617375
21.600000	1	0.632625
21.616667	1	0.650625
21.633333	1	0.672250
21.650000	1	0.696000
21.666667	1	0.723750
21.683333	1	0.754750
21.700000	1	0.789875
21.716667	1	0.828375
21.733333	1	0.870625
21.750000	1	0.915625
21.766667	1	0.963500
21.783333	1	1.013500
21.800000	1	1.064500
21.816667	1	1.116875
21.833333	1	1.168875
21.850000	1	1.219750
21.866667	1	1.267625
21.883333	1	1.313625
21.900000	1	1.355000
21.916667	1	1.392250
21.933333	1	1.423000
21.950000	1	1.447500
21.966667	1	1.464875
21.983333	1	1.474875
22.000000	1	1.477375
22.016667	1	1.472375
22.033333	1	1.460375
22.050000	1	1.441875
22.066667	1	1.417625
22.083333	1	1.388125
22.100000	1	1.354750
22.116667	1	1.316625
22.133333	1	1.277125
22.150000	1	1.235375
22.166667	1	1.192000
22.183333	1	1.148250
22.200000	1	1.104750
22.216667	1	1.061875
22.233333	1	1.020125
22.250000	1	0.978750
22.266667	1	0.940125
22.283333	1	0.903000
22.300000	1	0.867375
22.316667	1	0.835125
22.333333	1	0.804750
22.350000	1	0.776000
22.366667	1	0.750250
22.383333	1	0.726125
22.400000	1	0.704875
22.416667	1	0.685125
22.433333	1	0.667500
22.450000	1	0.652625
22.466667	1	0.638750
22.483333	1	0.628250
22.500000	1	0.618625
22.516667	1	0.610250
22.533333	1	0.603000
22.550000	1	0.597125
22.566667	1	0.592000
22.583333	1	0.587500
22.600000	1	0.583375
22.616667	1	0.580250
22.633333	1	0.575625
22.650000	1	0.571500
22.666667	1	0.567500
22.683333	1	0.563000
22.700000	1	0.557875
22.716667	1	0.552000
22.733333	1	0.545750
22.750000	1	0.538000
22.766667	1	0.530500
22.783333	1	0.521875
22.800000	1	0.512750
22.816667	1	0.503500
22.833333	1	0.494000
22.850000	1	0.484125
22.866667	1	0.474375
22.883333	1	0.464625
22.900000	1	0.455125
22.916667	1	0.445875
22.933333	1	0.437250
22.950000	1	0.429000
22.966667	1	0.421875
22.983333	1	0.415125
23.000000	1	0.409875
23.016667	1	0.404250
23.033333	1	0.399500
23.050000	1	0.395625
23.066667	1	0.392375
23.083333	1	0.391125
23.100000	1	0.390625
23.116667	1	0.391000
23.133333	1	0.391125
23.150000	1	0.392375
23.166667	1	0.394500
23.183333	1	0.397625
23.200000	1	0.401375
23.216667	1	0.406250
23.233333	1	0.412500
23.250000	1	0.420250
23.266667	1	0.429375
23.283333	1	0.441125
23.300000	1	0.454625
23.316667	1	0.471500
23.333333	1	0.491625
23.350000	1	0.516000
23.366667	1	0.545875
23.383333	1	0.582250
23.400000	1	0.625625
23.416667	1	0.676250
23.433333	1	0.736250
23.450000	1	0.807750
23.466667	1	0.891875
23.483333	1	0.989250
23.500000	1	1.102250
23.516667	1	1.231250
23.533333	1	1.377625
23.550000	1	1.542375
23.566667	1	1.726375
23.583333	1	1.928250
23.600000	1	2.147500
23.616667	1	2.383375
23.633333	1	2.634375
23.650000	1	2.897000
23.666667	1	3.169000
23.683333	1	3.445750
23.700000	1	3.724250
23.716667	1	3.998750
23.733333	1	4.264750
23.750000	1	4.516250
23.766667	1	4.748625
23.783333	1	4.955000
23.800000	1	5.131875
23.816667	1	5.275500
23.833333	1	5.382625
23.850000	1	5.451500
23.866667	1	5.480125
23.883333	1	5.469875
23.900000	1	5.420125
23.916667	1	5.334125
23.933333	1	5.212625
23.950000	1	5.060000
23.966667	1	4.880500
23.983333	1	4.678750
24.000000	1	4.459250
24.016667	1	4.227000
24.033333	1	3.986375
24.050000	1	3.741875
24.066667	1	3.498250
24.083333	1	3.256875
24.100000	1	3.021375
24.116667	1	2.794500
24.133333	1	2.577500
24.150000	1	2.371500
24.166667	1	2.179250
24.183333	1	2.000125
24.200000	1	1.834375
24.216667	1	1.682375
24.233333	1	1.543375
24.250000	1	1.417125
24.266667	1	1.302750
24.283333	1	1.199125
24.300000	1	1.106000
24.316667	1	1.023125
24.333333	1	0.949125
24.350000	1	0.883375
24.366667	1	0.824625
24.383333	1	0.773750
24.400000	1	0.727750
24.416667	1	0.689000
24.433333	1	0.655125
24.450000	1	0.626000
24.466667	1	0.600875
24.483333	1	0.579625
24.500000	1	0.561125
24.516667	1	0.545375
24.533333	1	0.532000
24.550000	1	0.520750
24.566667	1	0.511000
24.583333	1	0.502750
24.600000	1	0.494375
24.616667	1	0.486875
24.633333	1	0.480000
24.650000	1	0.473375
24.666667	1	0.466750
24.683333	1	0.461250
24.700000	1	0.454750
24.716667	1	0.447750
24.733333	1	0.441500
24.750000	1	0.434750
24.766667	1	0.428375
24.783333	1	0.421625
24.800000	1	0.415375
24.816667	1	0.408750
24.833333	1	0.402125
24.850000	1	0.396125
24.866667	1	0.390875
24.883333	1	0.385750
24.900000	1	0.381000
24.916667	1	0.376375
24.933333	1	0.372250
24.950000	1	0.368750
24.966667	1	0.365125
24.983333	1	0.362375
25.000000	1	0.360000
25.016667	1	0.358250
25.033333	1	0.356125
25.050000	1	0.355000
25.066667	1	0.354625
25.083333	1	0.354375
25.100000	1	0.354500
25.116667	1	0.354250
25.133333	1	0.354125
25.150000	1	0.355000
25.166667	1	0.356000
25.183333	1	0.356750
25.200000	1	0.357750
25.216667	1	0.358375
25.233333	1	0.359250
25.250000	1	0.360250
25.266667	1	0.360750
25.283333	1	0.361375
25.300000	1	0.362250
25.316667	1	0.363625
25.333333	1	0.364625
25.350000	1	0.365625
25.366667	1	0.365375
25.383333	1	0.365625
25.400000	1	0.366125
25.416667	1	0.365750
25.433333	1	0.366375
25.450000	1	0.366875
25.466667	1	0.367125
25.483333	1	0.367500
25.500000	1	0.368125
25.516667	1	0.368375
25.533333	1	0.368125
25.550000	1	0.368000
25.566667	1	0.368125
25.583333	1	0.368125
25.600000	1	0.368125
25.616667	1	0.368375
25.633333	1	0.368625
25.650000	1	0.368375
25.666667	1	0.368250
25.683333	1	0.368375
25.700000	1	0.368125
25.716667	1	0.367500
25.733333	1	0.367125
25.750000	1	0.366375
25.766667	1	0.365750
25.783333	1	0.364500
25.800000	1	0.363875
25.816667	1	0.363625
25.833333	1	0.363625
25.850000	1	0.363625
25.866667	1	0.363375
25.883333	1	0.363250
25.900000	1	0.362625
25.916667	1	0.363375
25.933333	1	0.363500
25.950000	1	0.364250
25.966667	1	0.365750
25.983333	1	0.367625
26.000000	1	0.369750
26.016667	1	0.372250
26.033333	1	0.374000
26.050000	1	0.376625
26.066667	1	0.379625
26.083333	1	0.383000
26.100000	1	0.386125
26.116667	1	0.389625
26.133333	1	0.393500
26.150000	1	0.397875
26.166667	1	0.401875
26.183333	1	0.406125
26.200000	1	0.410250
26.216667	1	0.413375
26.233333	1	0.417375
26.250000	1	0.420375
26.266667	1	0.423625
26.283333	1	0.425750
26.300000	1	0.428500
26.316667	1	0.430250
26.333333	1	0.431500
26.350000	1	0.432125
26.366667	1	0.432000
26.383333	1	0.431750
26.400000	1	0.431000
26.416667	1	0.429375
26.433333	1	0.427500
26.450000	1	0.425250
26.466667	1	0.421875
26.483333	1	0.418500
26.500000	1	0.414500
26.516667	1	0.409375
26.533333	1	0.404500
26.550000	1	0.399625
26.566667	1	0.393750
26.583333	1	0.387625
26.600000	1	0.382250
26.616667	1	0.376375
26.633333	1	0.370875
26.650000	1	0.365125
26.666667	1	0.360250
26.683333	1	0.354875
26.700000	1	0.349625
26.716667	1	0.345125
26.733333	1	0.340750
26.750000	1	0.336625
26.766667	1	0.333250
26.783333	1	0.329375
26.800000	1	0.326375
26.816667	1	0.323750
26.833333	1	0.321625
26.850000	1	0.319625
26.866667	1	0.318000
26.883333	1	0.316250
26.900000	1	0.315500
26.916667	1	0.314875
26.933333	1	0.314500
26.950000	1	0.313375
26.966667	1	0.312875
26.983333	1	0.312625
27.000000	1	0.312500
27.016667	1	0.314000
27.033333	1	0.316125
27.050000	1	0.317750
27.066667	1	0.320125
27.083333	1	0.322625
27.100000	1	0.326000
27.116667	1	0.330500
27.133333	1	0.335250
27.150000	1	0.340750
27.166667	1	0.348375
27.183333	1	0.356750
27.200000	1	0.367000
27.216667	1	0.379250
27.233333	1	0.393250
27.250000	1	0.410250
27.266667	1	0.428625
27.283333	1	0.451000
27.300000	1	0.476375
27.316667	1	0.505125
27.333333	1	0.538500
27.350000	1	0.576875
27.366667	1	0.620625
27.383333	1	0.670750
27.400000	1	0.727625
27.416667	1	0.792250
27.433333	1	0.864000
27.450000	1	0.945125
27.466667	1	1.034875
27.483333	1	1.134000
27.500000	1	1.242250
27.516667	1	1.361750
27.533333	1	1.490500
27.550000	1	1.629250
27.566667	1	1.778125
27.583333	1	1.935250
27.600000	1	2.100500
27.616667	1	2.272125
27.633333	1	2.449750
27.650000	1	2.631500
27.666667	1	2.817125
27.683333	1	3.002125
27.700000	1	3.185125
27.716667	1	3.363000
27.733333	1	3.533750
27.750000	1	3.696250
27.766667	1	3.846000
27.783333	1	3.980750
27.800000	1	4.100000
27.816667	1	4.199875
27.833333	1	4.279500
27.850000	1	4.337375
27.866667	1	4.371375
27.883333	1	4.382250
27.900000	1	4.368500
27.916667	1	4.331750
27.933333	1	4.270625
27.950000	1	4.187875
27.966667	1	4.084250
27.983333	1	3.962625
28.000000	1	3.824375
28.016667	1	3.672375
28.033333	1	3.507625
28.050000	1	3.334375
28.066667	1	3.153750
28.083333	1	2.969750
28.100000	1	2.783875
28.116667	1	2.599000
28.133333	1	2.417250
28.150000	1	2.240125
28.166667	1	2.069000
28.183333	1	1.905500
28.200000	1	1.751875
28.216667	1	1.606500
28.233333	1	1.471000
28.250000	1	1.345750
28.266667	1	1.230250
28.283333	1	1.125125
28.300000	1	1.029250
28.316667	1	0.942750
28.333333	1	0.865000
28.350000	1	0.795875
28.366667	1	0.735375
28.383333	1	0.681875
28.400000	1	0.635500
28.416667	1	0.595750
28.433333	1	0.561625
28.450000	1	0.533000
28.466667	1	0.509875
28.483333	1	0.490125
28.500000	1	0.475500
28.516667	1	0.464125
28.533333	1	0.456375
28.550000	1	0.451500
28.566667	1	0.450125
28.583333	1	0.450750
28.600000	1	0.453750
28.616667	1	0.458125
28.633333	1	0.463750
28.650000	1	0.471625
28.666667	1	0.479875
28.683333	1	0.489250
28.700000	1	0.498750
28.716667	1	0.509125
28.733333	1	0.519375
28.750000	1	0.530250
28.766667	1	0.541000
28.783333	1	0.551000
28.800000	1	0.560750
28.816667	1	0.569500
28.833333	1	0.577250
28.850000	1	0.584250
28.866667	1	0.590125
28.883333	1	0.595250
28.900000	1	0.598500
28.916667	1	0.601375
28.933333	1	0.602125
28.950000	1	0.601375
28.966667	1	0.600375
28.983333	1	0.596875
29.000000	1	0.592250
29.016667	1	0.584875
29.033333	1	0.576500
29.050000	1	0.565875
29.066667	1	0.554125
29.083333	1	0.540000
29.100000	1	0.524375
29.116667	1	0.506375
29.133333	1	0.486625
29.150000	1	0.464250
29.166667	1	0.440625
29.183333	1	0.415125
29.200000	1	0.387000
29.216667	1	0.357125
29.233333	1	0.325750
29.250000	1	0.292000
29.266667	1	0.255500
29.283333	1	0.217625
29.300000	1	0.178000
29.316667	1	0.136500
29.333333	1	0.092875
29.350000	1	0.048375
29.366667	1	0.001625
29.383333	1	-0.045125
29.400000	1	-0.094500
29.416667	1	-0.143500
29.433333	1	-0.194375
29.450000	1	-0.244750
29.466667	1	-0.295875
29.483333	1	-0.346875
29.500000	1	-0.397375
29.516667	1	-0.446750
29.533333	1	-0.495500
29.550000	1	-0.542750
29.566667	1	-0.587375
29.583333	1	-0.629750
29.600000	1	-0.670000
29.616667	1	-0.707125
29.633333	1	-0.741125
29.650000	1	-0.772125
29.666667	1	-0.799500
29.683333	1	-0.822500
29.700000	1	-0.841875
29.716667	1	-0.856500
29.733333	1	-0.867375
29.750000	1	-0.874250
29.766667	1	-0.876375
29.783333	1	-0.874375
29.800000	1	-0.867750
29.816667	1	-0.857625
29.833333	1	-0.843875
29.850000	1	-0.826375
29.866667	1	-0.805750
29.883333	1	-0.782125
29.900000	1	-0.756625
29.916667	1	-0.727250
29.933333	1	-0.697000
29.950000	1	-0.664875
29.966667	1	-0.631500
29.983333	1	-0.597000
30.000000	1	-0.561375
30.016667	1	-0.525000
30.033333	1	-0.489375
30.050000	1	-0.452875
30.066667	1	-0.417375
30.083333	1	-0.382500
30.100000	1	-0.348750
30.116667	1	-0.314125
30.133333	1	-0.281750
30.150000	1	-0.250750
30.166667	1	-0.220500
30.183333	1	-0.191125
30.200000	1	-0.163375
30.216667	1	-0.136875
30.233333	1	-0.112000
30.250000	1	-0.088250
30.266667	1	-0.066000
30.283333	1	-0.045250
30.300000	1	-0.025375
30.316667	1	-0.006875
30.333333	1	0.009875
30.350000	1	0.025500
30.366667	1	0.040125
30.383333	1	0.053750
30.400000	1	0.066125
30.416667	1	0.077875
30.433333	1	0.088875
30.450000	1	0.099000
30.466667	1	0.108625
30.483333	1	0.116875
30.500000	1	0.124500
30.516667	1	0.131375
30.533333	1	0.138625
30.550000	1	0.145750
30.566667	1	0.152000
30.583333	1	0.158500
30.600000	1	0.165500
30.616667	1	0.171500
30.633333	1	0.178125
30.650000	1	0.184125
30.666667	1	0.191125
30.683333	1	0.198000
30.700000	1	0.204875
30.716667	1	0.211750
30.733333	1	0.219500
30.750000	1	0.227625
30.766667	1	0.235125
30.783333	1	0.244000
30.800000	1	0.252750
30.816667	1	0.262125
30.833333	1	0.271375
30.850000	1	0.281750
30.866667	1	0.292375
30.883333	1	0.304625
30.900000	1	0.317250
30.916667	1	0.330500
30.933333	1	0.345250
30.950000	1	0.361125
30.966667	1	0.378625
30.983333	1	0.397750
31.000000	1	0.418750
31.016667	1	0.441625
31.033333	1	0.467250
31.050000	1	0.496000
31.066667	1	0.528500
31.083333	1	0.563375
31.100000	1	0.601875
31.116667	1	0.644500
31.133333	1	0.692500
31.150000	1	0.744875
31.166667	1	0.801750
31.183333	1	0.864000
31.200000	1	0.932125
31.216667	1	1.005750
31.233333	1	1.085000
31.250000	1	1.170125
31.266667	1	1.259250
31.283333	1	1.354250
31.300000	1	1.454125
31.316667	1	1.557500
31.333333	1	1.664500
31.350000	1	1.774500
31.366667	1	1.887125
31.383333	1	1.999875
31.400000	1	2.113250
31.416667	1	2.225500
31.433333	1	2.334500
31.450000	1	2.440625
31.466667	1	2.542250
31.483333	1	2.637375
31.500000	1	2.725375
31.516667	1	2.804250
31.533333	1	2.874125
31.550000	1	2.934000
31.566667	1	2.982875
31.583333	1	3.020125
31.600000	1	3.043750
31.616667	1	3.055750
31.633333	1	3.054750
31.650000	1	3.041250
31.666667	1	3.015500
31.683333	1	2.977875
31.700000	1	2.929000
31.716667	1	2.869625
31.733333	1	2.800375
31.750000	1	2.722750
31.766667	1	2.637625
31.783333	1	2.546000
31.800000	1	2.449250
31.816667	1	2.347625
31.833333	1	2.242625
31.850000	1	2.135625
31.866667	1	2.027625
31.883333	1	1.918875
31.900000	1	1.812250
31.916667	1	1.707125
31.933333	1	1.604500
31.950000	1	1.504000
31.966667	1	1.407250
31.983333	1	1.313625
32.000000	1	1.224375
32.016667	1	1.140250
32.033333	1	1.059625
32.050000	1	0.983125
32.066667	1	0.911375
32.083333	1	0.844500
32.100000	1	0.781000
32.116667	1	0.722250
32.133333	1	0.666750
32.150000	1	0.615250
32.166667	1	0.568500
32.183333	1	0.524875
32.200000	1	0.484000
32.216667	1	0.446250
32.233333	1	0.411125
32.250000	1	0.378750
32.266667	1	0.349000
32.283333	1	0.321500
32.300000	1	0.295375
32.316667	1	0.271875
32.333333	1	0.250625
32.350000	1	0.231000
32.366667	1	0.212375
32.383333	1	0.195500
32.400000	1	0.179500
32.416667	1	0.165375
32.433333	1	0.152875
32.450000	1	0.140750
32.466667	1	0.130375
32.483333	1	0.119625
32.500000	1	0.109875
32.516667	1	0.101875
32.533333	1	0.094000
32.550000	1	0.087125
32.566667	1	0.080750
32.583333	1	0.075500
32.600000	1	0.070625
32.616667	1	0.065875
32.633333	1	0.061750
32.650000	1	0.057875
32.666667	1	0.054375
32.683333	1	0.050375
32.700000	1	0.047875
32.716667	1	0.044500
32.733333	1	0.041250
32.750000	1	0.038750
32.766667	1	0.036500
32.783333	1	0.034375
32.800000	1	0.031875
32.816667	1	0.029875
32.833333	1	0.027875
32.850000	1	0.026125
32.866667	1	0.024125
32.883333	1	0.022625
32.900000	1	0.021000
32.916667	1	0.018750
32.933333	1	0.017375
32.950000	1	0.016000
32.966667	1	0.014375
32.983333	1	0.013750
33.000000	1	0.012500
33.016667	1	0.011375
33.033333	1	0.010125
33.050000	1	0.008625
33.066667	1	0.008125
33.083333	1	0.007125
33.100000	1	0.006000
33.116667	1	0.005750
33.133333	1	0.005000
33.150000	1	0.005000
33.166667	1	0.004625
33.183333	1	0.004750
33.200000	1	0.004875
33.216667	1	0.005625
33.233333	1	0.006000
33.250000	1	0.006250
33.266667	1	0.007625
33.283333	1	0.009125
33.300000	1	0.010000
33.316667	1	0.011875
33.333333	1	0.013750
33.350000	1	0.015875
33.366667	1	0.019000
33.383333	1	0.021500
33.400000	1	0.024750
33.416667	1	0.028375
33.433333	1	0.031000
33.450000	1	0.034125
33.466667	1	0.037625
33.483333	1	0.040750
33.500000	1	0.044375
33.516667	1	0.048000
33.533333	1	0.051500
33.550000	1	0.055250
33.566667	1	0.058750
33.583333	1	0.062000
33.600000	1	0.066125
33.616667	1	0.069375
33.633333	1	0.072250
33.650000	1	0.075250
33.666667	1	0.078125
33.683333	1	0.081250
33.700000	1	0.084000
33.716667	1	0.086500
33.733333	1	0.088750
33.750000	1	0.090750
33.766667	1	0.092875
33.783333	1	0.094250
33.800000	1	0.096000
33.816667	1	0.098000
33.833333	1	0.099625
33.850000	1	0.099875
33.866667	1	0.101000
33.883333	1	0.102000
33.900000	1	0.102250
33.916667	1	0.103000
33.933333	1	0.103250
33.950000	1	0.103375
33.966667	1	0.103625
33.983333	1	0.104125
34.000000	1	0.104375
34.016667	1	0.104750
34.033333	1	0.104250
34.050000	1	0.103750
34.066667	1	0.103625
34.083333	1	0.103875
34.100000	1	0.103625
34.116667	1	0.103250
34.133333	1	0.102375
34.150000	1	0.102750
34.166667	1	0.102625
34.183333	1	0.102250
34.200000	1	0.102250
34.216667	1	0.102125
34.233333	1	0.102250
34.250000	1	0.101625
34.266667	1	0.101125
34.283333	1	0.100875
34.300000	1	0.101125
34.316667	1	0.101500
34.333333	1	0.102000
34.350000	1	0.102625
34.366667	1	0.102625
34.383333	1	0.103000
34.400000	1	0.103500
34.416667	1	0.104000
34.433333	1	0.104875
34.450000	1	0.105375
34.466667	1	0.106250
34.483333	1	0.106625
34.500000	1	0.107750
34.516667	1	0.109500
34.533333	1	0.111500
34.550000	1	0.112750
34.566667	1	0.114125
34.583333	1	0.115625
34.600000	1	0.117125
34.616667	1	0.118875
34.633333	1	0.120250
34.650000	1	0.122125
34.666667	1	0.123625
34.683333	1	0.124250
34.700000	1	0.126750
34.716667	1	0.128625
34.733333	1	0.130125
34.750000	1	0.132375
34.766667	1	0.133500
34.783333	1	0.135000
34.800000	1	0.135875
34.816667	1	0.136875
34.833333	1	0.138375
34.850000	1	0.139375
34.866667	1	0.139875
34.883333	1	0.140375
34.900000	1	0.140625
34.916667	1	0.141500
34.933333	1	0.142250
34.950000	1	0.141875
34.966667	1	0.141875
34.983333	1	0.141625
35.000000	1	0.141125
35.016667	1	0.140125
35.033333	1	0.138875
35.050000	1	0.137625
35.066667	1	0.136250
35.083333	1	0.134875
35.100000	1	0.133000
35.116667	1	0.131750
35.133333	1	0.130500
35.150000	1	0.129250
35.166667	1	0.127625
35.183333	1	0.126125
35.200000	1	0.124750
35.216667	1	0.123375
35.233333	1	0.121875
35.250000	1	0.121000
35.266667	1	0.120250
35.283333	1	0.120000
35.300000	1	0.119875
35.316667	1	0.120625
35.333333	1	0.121125
35.350000	1	0.122000
35.366667	1	0.123625
35.383333	1	0.125625
35.400000	1	0.127500
35.416667	1	0.129375
35.433333	1	0.131750
35.450000	1	0.134750
35.466667	1	0.138250
35.483333	1	0.141250
35.500000	1	0.144250
35.516667	1	0.147375
35.533333	1	0.151750
35.550000	1	0.155625
35.566667	1	0.160250
35.583333	1	0.164625
35.600000	1	0.168750
35.616667	1	0.173250
35.633333	1	0.177750
35.650000	1	0.182750
35.666667	1	0.187000
35.683333	1	0.190375
35.700000	1	0.194250
35.716667	1	0.198500
35.733333	1	0.202500
35.750000	1	0.206000
35.766667	1	0.208875
35.783333	1	0.211625
35.800000	1	0.213500
35.816667	1	0.215875
35.833333	1	0.217250
35.850000	1	0.218500
35.866667	1	0.219375
35.883333	1	0.219875
35.900000	1	0.221000
35.916667	1	0.220375
35.933333	1	0.219750
35.950000	1	0.219125
35.966667	1	0.218000
35.983333	1	0.215875
36.000000	1	0.214750
36.016667	1	0.212875
36.033333	1	0.210625
36.050000	1	0.207875
36.066667	1	0.205250
36.083333	1	0.202750
36.100000	1	0.200000
36.116667	1	0.196750
36.133333	1	0.193750
36.150000	1	0.191125
36.166667	1	0.187625
36.183333	1	0.184250
36.200000	1	0.181375
36.216667	1	0.177625
36.233333	1	0.174125
36.250000	1	0.171000
36.266667	1	0.167625
36.283333	1	0.164250
36.300000	1	0.161250
36.316667	1	0.158875
36.333333	1	0.155875
36.350000	1	0.153500
36.366667	1	0.150000
36.383333	1	0.147375
36.400000	1	0.144625
36.416667	1	0.142000
36.433333	1	0.139625
36.450000	1	0.136625
36.466667	1	0.134750
36.483333	1	0.132625
36.500000	1	0.130500
36.516667	1	0.127875
36.533333	1	0.126000
36.550000	1	0.124125
36.566667	1	0.122625
36.583333	1	0.120625
36.600000	1	0.119000
36.616667	1	0.118000
36.633333	1	0.116000
36.650000	1	0.114125
36.666667	1	0.112625
36.683333	1	0.111250
36.700000	1	0.109750
36.716667	1	0.108250
36.733333	1	0.107000
36.750000	1	0.105500
36.766667	1	0.104125
36.783333	1	0.102375
36.800000	1	0.100750
36.816667	1	0.099000
36.833333	1	0.097750
36.850000	1	0.096500
36.866667	1	0.095750
36.883333	1	0.094125
36.900000	1	0.093375
36.916667	1	0.092500
36.933333	1	0.091375
36.950000	1	0.090375
36.966667	1	0.089625
36.983333	1	0.089375
37.000000	1	0.088625
37.016667	1	0.088625
37.033333	1	0.087875
37.050000	1	0.087875
37.066667	1	0.087875
37.083333	1	0.087875
37.100000	1	0.088250
37.116667	1	0.088000
37.133333	1	0.087875
37.150000	1	0.088625
37.166667	1	0.088625
37.183333	1	0.088875
37.200000	1	0.088875
37.216667	1	0.089000
37.233333	1	0.089125
37.250000	1	0.089125
37.266667	1	0.088875
37.283333	1	0.088875
37.300000	1	0.088750
37.316667	1	0.088000
37.333333	1	0.086875
37.350000	1	0.086375
37.366667	1	0.086000
37.383333	1	0.084375
37.400000	1	0.083875
37.416667	1	0.082250
37.433333	1	0.081000
37.450000	1	0.079750
37.466667	1	0.078625
37.483333	1	0.077750
37.500000	1	0.076500
37.516667	1	0.074875
37.533333	1	0.074125
37.550000	1	0.072875
37.566667	1	0.071500
37.583333	1	0.069750
37.600000	1	0.068375
37.616667	1	0.067250
37.633333	1	0.066000
37.650000	1	0.064875
37.666667	1	0.064250
37.683333	1	0.062875
37.700000	1	0.061375
37.716667	1	0.060250
37.733333	1	0.059500
37.750000	1	0.059000
37.766667	1	0.059500
37.783333	1	0.059125
37.800000	1	0.058500
37.816667	1	0.058625
37.833333	1	0.059250
37.850000	1	0.059375
37.866667	1	0.058875
37.883333	1	0.059375
37.900000	1	0.060250
37.916667	1	0.060375
37.933333	1	0.060875
37.950000	1	0.061875
37.966667	1	0.062750
37.983333	1	0.063625
38.000000	1	0.064625
38.016667	1	0.065125
38.033333	1	0.066250
38.050000	1	0.067250
38.066667	1	0.068625
38.083333	1	0.069625
38.100000	1	0.070750
38.116667	1	0.071375
38.133333	1	0.072625
38.150000	1	0.073750
38.166667	1	0.074750
38.183333	1	0.075500
38.200000	1	0.076375
38.216667	1	0.076750
38.233333	1	0.076625
38.250000	1	0.076750
38.266667	1	0.076875
38.283333	1	0.077000
38.300000	1	0.077000
38.316667	1	0.076000
38.333333	1	0.075750
38.350000	1	0.075000
38.366667	1	0.074000
38.383333	1	0.073250
38.400000	1	0.072250
38.416667	1	0.071750
38.433333	1	0.071000
38.450000	1	0.070125
38.466667	1	0.069250
38.483333	1	0.068375
38.500000	1	0.067250
38.516667	1	0.066375
38.533333	1	0.064250
38.550000	1	0.063000
38.566667	1	0.061250
38.583333	1	0.060250
38.600000	1	0.058500
38.616667	1	0.056250
38.633333	1	0.054500
38.650000	1	0.053125
38.666667	1	0.051375
38.683333	1	0.050250
38.700000	1	0.048375
38.716667	1	0.047375
38.733333	1	0.045750
38.750000	1	0.044250
38.766667	1	0.042500
38.783333	1	0.041250
38.800000	1	0.039500
38.816667	1	0.039000
38.833333	1	0.037875
38.850000	1	0.036750
38.866667	1	0.035750
38.883333	1	0.033625
38.900000	1	0.032625
38.916667	1	0.031625
38.933333	1	0.030625
38.950000	1	0.029375
38.966667	1	0.028500
38.983333	1	0.027375
39.000000	1	0.026375
39.016667	1	0.024750
39.033333	1	0.023625
39.050000	1	0.023125
39.066667	1	0.021500
39.083333	1	0.020375
39.100000	1	0.019125
39.116667	1	0.018625
39.133333	1	0.017000
39.150000	1	0.015000
39.166667	1	0.013750
39.183333	1	0.012250
39.200000	1	0.011500
39.216667	1	0.010875
39.233333	1	0.010000
39.250000	1	0.009250
39.266667	1	0.008500
39.283333	1	0.007875
39.300000	1	0.006250
39.316667	1	0.006000
39.333333	1	0.005750
39.350000	1	0.005250
39.366667	1	0.004750
39.383333	1	0.005000
39.400000	1	0.005125
39.416667	1	0.004750
39.433333	1	0.005000
39.450000	1	0.005500
39.466667	1	0.005875
39.483333	1	0.006375
39.500000	1	0.006375
39.516667	1	0.006500
39.533333	1	0.006875
39.550000	1	0.007750
39.566667	1	0.008875
39.583333	1	0.009250
39.600000	1	0.010375
39.616667	1	0.011125
39.633333	1	0.012250
39.650000	1	0.013500
39.666667	1	0.014625
39.683333	1	0.015375
39.700000	1	0.016875
39.716667	1	0.017625
39.733333	1	0.019375
39.750000	1	0.020625
39.766667	1	0.021375
39.783333	1	0.022375
39.800000	1	0.023750
39.816667	1	0.025750
39.833333	1	0.028125
39.850000	1	0.028875
39.866667	1	0.030375
39.883333	1	0.032000
39.900000	1	0.033125
39.916667	1	0.034125
39.933333	1	0.035500
39.950000	1	0.037000
39.966667	1	0.038250
39.983333	1	0.039250
40.000000	1	0.040250
