URL	chrom://bioreactor/micro_cm7/HPLC_Ultimate_3000/Users/markusar/20240517_CMO_FP23_FP25_MarkusDeplate.seq/272.smp/RI_1.channel/RI_1.chm
Channel	RI_1

Injection Information:
Data Vault	micro_cm7
Sequence	20240517_CMO_FP23_FP25_MarkusDeplate
Name	FP28_22.1_s2
Number	137
Position	BA3
Comment	
Processing Method	
Instrument Method	run_25B_method
Type	Unknown
Status	Finished
Inject Time	31.05.2024 16:40:41 +02:00
Volume (µl)	20.0000
Dilution Factor	1.0000
Weight	1.0000

Chromatogram Data Information:
Time Min. (min)	0.000000
Time Max. (min)	40.000000
Data Points	2401
Detector	RI
Generating Data System	Chromeleon 7.3.2.11814
Exporting Data System	Chromeleon 7.3.2.0
Operator	Instrument Controller
Signal Quantity	Refractive 
Signal Unit	µRIU
Signal Min.	-1.335875
Signal Max.	55.024875
Channel	RI_1
Driver Name	RID520Driver.dll
Channel Type	Evaluation
Min. Step (s)	1
Max. Step (s)	1
Average Step (s)	1

Signal Parameter Information:
Signal Info	

Chromatogram Data:
Time (min)	Step (s)	Value (µRIU)
0.000000	n.a.	0.001000
0.016667	1	0.000500
0.033333	1	0.000000
0.050000	1	0.000000
0.066667	1	0.000625
0.083333	1	0.000750
0.100000	1	0.001000
0.116667	1	0.000875
0.133333	1	0.001000
0.150000	1	0.001375
0.166667	1	0.001875
0.183333	1	0.002125
0.200000	1	0.001750
0.216667	1	0.002000
0.233333	1	0.001875
0.250000	1	0.002500
0.266667	1	0.003000
0.283333	1	0.004125
0.300000	1	0.003750
0.316667	1	0.004250
0.333333	1	0.004250
0.350000	1	0.004000
0.366667	1	0.003125
0.383333	1	0.003250
0.400000	1	0.002625
0.416667	1	0.002250
0.433333	1	0.001875
0.450000	1	0.001750
0.466667	1	0.001125
0.483333	1	0.000875
0.500000	1	0.000250
0.516667	1	-0.000250
0.533333	1	-0.000750
0.550000	1	-0.001375
0.566667	1	-0.001500
0.583333	1	-0.002125
0.600000	1	-0.002875
0.616667	1	-0.003375
0.633333	1	-0.004875
0.650000	1	-0.005375
0.666667	1	-0.005875
0.683333	1	-0.006625
0.700000	1	-0.007625
0.716667	1	-0.008000
0.733333	1	-0.008250
0.750000	1	-0.008875
0.766667	1	-0.009125
0.783333	1	-0.009500
0.800000	1	-0.010125
0.816667	1	-0.010625
0.833333	1	-0.011500
0.850000	1	-0.011625
0.866667	1	-0.012250
0.883333	1	-0.012625
0.900000	1	-0.012500
0.916667	1	-0.013750
0.933333	1	-0.015250
0.950000	1	-0.015750
0.966667	1	-0.016125
0.983333	1	-0.017000
1.000000	1	-0.018375
1.016667	1	-0.019750
1.033333	1	-0.020500
1.050000	1	-0.021500
1.066667	1	-0.023125
1.083333	1	-0.023250
1.100000	1	-0.023875
1.116667	1	-0.025125
1.133333	1	-0.026375
1.150000	1	-0.027500
1.166667	1	-0.028750
1.183333	1	-0.029750
1.200000	1	-0.030500
1.216667	1	-0.031500
1.233333	1	-0.032000
1.250000	1	-0.032875
1.266667	1	-0.033250
1.283333	1	-0.034625
1.300000	1	-0.035250
1.316667	1	-0.036125
1.333333	1	-0.036250
1.350000	1	-0.036750
1.366667	1	-0.036750
1.383333	1	-0.037000
1.400000	1	-0.036625
1.416667	1	-0.036125
1.433333	1	-0.035250
1.450000	1	-0.034000
1.466667	1	-0.033125
1.483333	1	-0.032250
1.500000	1	-0.030875
1.516667	1	-0.029125
1.533333	1	-0.027750
1.550000	1	-0.025375
1.566667	1	-0.023375
1.583333	1	-0.021500
1.600000	1	-0.019250
1.616667	1	-0.016250
1.633333	1	-0.014000
1.650000	1	-0.011125
1.666667	1	-0.009000
1.683333	1	-0.006250
1.700000	1	-0.004000
1.716667	1	-0.002000
1.733333	1	0.000125
1.750000	1	0.001875
1.766667	1	0.004250
1.783333	1	0.006750
1.800000	1	0.008375
1.816667	1	0.010125
1.833333	1	0.012500
1.850000	1	0.014375
1.866667	1	0.016375
1.883333	1	0.017750
1.900000	1	0.019500
1.916667	1	0.020125
1.933333	1	0.021875
1.950000	1	0.022625
1.966667	1	0.023375
1.983333	1	0.023750
2.000000	1	0.024375
2.016667	1	0.024750
2.033333	1	0.025875
2.050000	1	0.026375
2.066667	1	0.026625
2.083333	1	0.027000
2.100000	1	0.026750
2.116667	1	0.027000
2.133333	1	0.027250
2.150000	1	0.027000
2.166667	1	0.026250
2.183333	1	0.025750
2.200000	1	0.024750
2.216667	1	0.024500
2.233333	1	0.024125
2.250000	1	0.023250
2.266667	1	0.022125
2.283333	1	0.020875
2.300000	1	0.020125
2.316667	1	0.019375
2.333333	1	0.018125
2.350000	1	0.016875
2.366667	1	0.016125
2.383333	1	0.015750
2.400000	1	0.014500
2.416667	1	0.013500
2.433333	1	0.012375
2.450000	1	0.011625
2.466667	1	0.010625
2.483333	1	0.010875
2.500000	1	0.010250
2.516667	1	0.009750
2.533333	1	0.009375
2.550000	1	0.008250
2.566667	1	0.007750
2.583333	1	0.007625
2.600000	1	0.007250
2.616667	1	0.007375
2.633333	1	0.007625
2.650000	1	0.007250
2.666667	1	0.007875
2.683333	1	0.007750
2.700000	1	0.007875
2.716667	1	0.007500
2.733333	1	0.007000
2.750000	1	0.006250
2.766667	1	0.005625
2.783333	1	0.004625
2.800000	1	0.003750
2.816667	1	0.003125
2.833333	1	0.002625
2.850000	1	0.001750
2.866667	1	0.001000
2.883333	1	0.000875
2.900000	1	0.000000
2.916667	1	-0.001250
2.933333	1	-0.002375
2.950000	1	-0.004125
2.966667	1	-0.004625
2.983333	1	-0.006125
3.000000	1	-0.006875
3.016667	1	-0.007125
3.033333	1	-0.008250
3.050000	1	-0.008750
3.066667	1	-0.009000
3.083333	1	-0.008875
3.100000	1	-0.008375
3.116667	1	-0.008125
3.133333	1	-0.007875
3.150000	1	-0.007125
3.166667	1	-0.006000
3.183333	1	-0.005125
3.200000	1	-0.003625
3.216667	1	-0.001375
3.233333	1	0.000875
3.250000	1	0.003125
3.266667	1	0.004875
3.283333	1	0.007750
3.300000	1	0.010250
3.316667	1	0.013000
3.333333	1	0.015625
3.350000	1	0.018000
3.366667	1	0.021125
3.383333	1	0.023375
3.400000	1	0.026250
3.416667	1	0.029375
3.433333	1	0.032125
3.450000	1	0.034375
3.466667	1	0.038000
3.483333	1	0.040125
3.500000	1	0.042125
3.516667	1	0.043375
3.533333	1	0.045875
3.550000	1	0.048125
3.566667	1	0.049875
3.583333	1	0.051000
3.600000	1	0.053000
3.616667	1	0.054625
3.633333	1	0.056125
3.650000	1	0.057625
3.666667	1	0.059250
3.683333	1	0.060125
3.700000	1	0.061250
3.716667	1	0.062750
3.733333	1	0.064000
3.750000	1	0.064875
3.766667	1	0.066000
3.783333	1	0.066625
3.800000	1	0.067875
3.816667	1	0.069000
3.833333	1	0.070250
3.850000	1	0.071500
3.866667	1	0.072625
3.883333	1	0.073750
3.900000	1	0.075625
3.916667	1	0.077125
3.933333	1	0.078375
3.950000	1	0.080125
3.966667	1	0.080500
3.983333	1	0.082375
4.000000	1	0.084125
4.016667	1	0.084250
4.033333	1	0.085500
4.050000	1	0.086375
4.066667	1	0.087000
4.083333	1	0.087875
4.100000	1	0.088750
4.116667	1	0.089125
4.133333	1	0.089000
4.150000	1	0.088875
4.166667	1	0.089625
4.183333	1	0.089375
4.200000	1	0.090000
4.216667	1	0.089625
4.233333	1	0.089125
4.250000	1	0.088250
4.266667	1	0.087125
4.283333	1	0.086250
4.300000	1	0.084750
4.316667	1	0.083875
4.333333	1	0.082375
4.350000	1	0.081375
4.366667	1	0.079500
4.383333	1	0.077500
4.400000	1	0.076375
4.416667	1	0.074500
4.433333	1	0.072750
4.450000	1	0.071250
4.466667	1	0.070000
4.483333	1	0.068500
4.500000	1	0.066875
4.516667	1	0.066000
4.533333	1	0.065250
4.550000	1	0.065125
4.566667	1	0.064750
4.583333	1	0.065000
4.600000	1	0.065750
4.616667	1	0.066250
4.633333	1	0.067625
4.650000	1	0.068625
4.666667	1	0.070000
4.683333	1	0.071875
4.700000	1	0.074000
4.716667	1	0.076125
4.733333	1	0.078125
4.750000	1	0.081375
4.766667	1	0.084125
4.783333	1	0.087750
4.800000	1	0.091250
4.816667	1	0.095000
4.833333	1	0.098750
4.850000	1	0.102750
4.866667	1	0.106875
4.883333	1	0.110750
4.900000	1	0.114625
4.916667	1	0.118500
4.933333	1	0.123000
4.950000	1	0.127625
4.966667	1	0.132250
4.983333	1	0.136000
5.000000	1	0.141000
5.016667	1	0.145250
5.033333	1	0.149375
5.050000	1	0.153625
5.066667	1	0.157750
5.083333	1	0.162500
5.100000	1	0.166125
5.116667	1	0.169750
5.133333	1	0.173625
5.150000	1	0.177750
5.166667	1	0.181375
5.183333	1	0.186500
5.200000	1	0.190750
5.216667	1	0.195125
5.233333	1	0.199875
5.250000	1	0.204000
5.266667	1	0.207625
5.283333	1	0.211250
5.300000	1	0.215125
5.316667	1	0.220000
5.333333	1	0.223500
5.350000	1	0.228250
5.366667	1	0.232250
5.383333	1	0.235750
5.400000	1	0.239125
5.416667	1	0.242500
5.433333	1	0.245875
5.450000	1	0.249750
5.466667	1	0.253125
5.483333	1	0.256500
5.500000	1	0.259375
5.516667	1	0.262625
5.533333	1	0.265750
5.550000	1	0.268750
5.566667	1	0.271750
5.583333	1	0.273875
5.600000	1	0.275625
5.616667	1	0.277625
5.633333	1	0.279125
5.650000	1	0.280250
5.666667	1	0.280625
5.683333	1	0.280625
5.700000	1	0.280125
5.716667	1	0.280000
5.733333	1	0.280125
5.750000	1	0.278875
5.766667	1	0.277250
5.783333	1	0.275625
5.800000	1	0.273875
5.816667	1	0.271750
5.833333	1	0.269000
5.850000	1	0.266625
5.866667	1	0.262750
5.883333	1	0.260375
5.900000	1	0.257375
5.916667	1	0.254000
5.933333	1	0.249875
5.950000	1	0.246000
5.966667	1	0.242500
5.983333	1	0.239000
6.000000	1	0.235500
6.016667	1	0.231125
6.033333	1	0.226625
6.050000	1	0.222000
6.066667	1	0.217875
6.083333	1	0.213375
6.100000	1	0.208750
6.116667	1	0.204875
6.133333	1	0.201125
6.150000	1	0.197375
6.166667	1	0.192750
6.183333	1	0.188625
6.200000	1	0.184000
6.216667	1	0.179625
6.233333	1	0.174875
6.250000	1	0.170125
6.266667	1	0.166375
6.283333	1	0.161875
6.300000	1	0.157875
6.316667	1	0.153875
6.333333	1	0.150000
6.350000	1	0.146250
6.366667	1	0.142875
6.383333	1	0.139500
6.400000	1	0.135625
6.416667	1	0.132250
6.433333	1	0.129500
6.450000	1	0.126125
6.466667	1	0.122625
6.483333	1	0.119500
6.500000	1	0.115875
6.516667	1	0.112875
6.533333	1	0.110125
6.550000	1	0.107500
6.566667	1	0.105000
6.583333	1	0.103250
6.600000	1	0.100625
6.616667	1	0.098250
6.633333	1	0.095750
6.650000	1	0.093750
6.666667	1	0.091875
6.683333	1	0.090375
6.700000	1	0.088750
6.716667	1	0.088000
6.733333	1	0.087125
6.750000	1	0.085875
6.766667	1	0.084875
6.783333	1	0.084375
6.800000	1	0.084250
6.816667	1	0.083750
6.833333	1	0.082625
6.850000	1	0.082375
6.866667	1	0.082125
6.883333	1	0.082125
6.900000	1	0.081750
6.916667	1	0.081875
6.933333	1	0.083375
6.950000	1	0.084000
6.966667	1	0.085875
6.983333	1	0.087000
7.000000	1	0.088375
7.016667	1	0.088875
7.033333	1	0.090250
7.050000	1	0.091500
7.066667	1	0.093500
7.083333	1	0.095250
7.100000	1	0.097875
7.116667	1	0.099875
7.133333	1	0.101750
7.150000	1	0.104625
7.166667	1	0.108375
7.183333	1	0.111750
7.200000	1	0.115500
7.216667	1	0.119250
7.233333	1	0.123250
7.250000	1	0.127125
7.266667	1	0.130750
7.283333	1	0.134750
7.300000	1	0.138250
7.316667	1	0.142125
7.333333	1	0.146875
7.350000	1	0.151250
7.366667	1	0.155375
7.383333	1	0.159500
7.400000	1	0.163375
7.416667	1	0.167375
7.433333	1	0.170500
7.450000	1	0.173750
7.466667	1	0.176500
7.483333	1	0.179000
7.500000	1	0.181250
7.516667	1	0.183375
7.533333	1	0.184625
7.550000	1	0.185625
7.566667	1	0.186625
7.583333	1	0.187875
7.600000	1	0.187875
7.616667	1	0.187625
7.633333	1	0.188000
7.650000	1	0.187375
7.666667	1	0.186625
7.683333	1	0.185000
7.700000	1	0.182625
7.716667	1	0.179875
7.733333	1	0.177875
7.750000	1	0.175125
7.766667	1	0.172125
7.783333	1	0.168750
7.800000	1	0.165375
7.816667	1	0.163000
7.833333	1	0.159875
7.850000	1	0.156500
7.866667	1	0.153750
7.883333	1	0.150000
7.900000	1	0.147125
7.916667	1	0.143750
7.933333	1	0.140500
7.950000	1	0.138000
7.966667	1	0.135375
7.983333	1	0.132375
8.000000	1	0.129500
8.016667	1	0.126875
8.033333	1	0.125125
8.050000	1	0.123375
8.066667	1	0.120875
8.083333	1	0.119000
8.100000	1	0.116875
8.116667	1	0.115375
8.133333	1	0.114500
8.150000	1	0.113500
8.166667	1	0.112125
8.183333	1	0.111125
8.200000	1	0.110250
8.216667	1	0.109375
8.233333	1	0.108375
8.250000	1	0.108000
8.266667	1	0.107000
8.283333	1	0.106375
8.300000	1	0.106500
8.316667	1	0.106125
8.333333	1	0.106000
8.350000	1	0.105875
8.366667	1	0.106000
8.383333	1	0.105250
8.400000	1	0.105375
8.416667	1	0.105375
8.433333	1	0.105000
8.450000	1	0.104750
8.466667	1	0.104500
8.483333	1	0.104500
8.500000	1	0.104125
8.516667	1	0.103875
8.533333	1	0.103500
8.550000	1	0.103500
8.566667	1	0.103375
8.583333	1	0.103000
8.600000	1	0.103000
8.616667	1	0.102000
8.633333	1	0.101375
8.650000	1	0.101500
8.666667	1	0.101125
8.683333	1	0.100750
8.700000	1	0.100875
8.716667	1	0.100250
8.733333	1	0.099875
8.750000	1	0.099500
8.766667	1	0.099625
8.783333	1	0.099000
8.800000	1	0.098875
8.816667	1	0.098750
8.833333	1	0.098375
8.850000	1	0.098250
8.866667	1	0.098000
8.883333	1	0.097250
8.900000	1	0.097875
8.916667	1	0.098000
8.933333	1	0.098500
8.950000	1	0.098750
8.966667	1	0.099375
8.983333	1	0.099375
9.000000	1	0.100000
9.016667	1	0.099625
9.033333	1	0.100750
9.050000	1	0.101000
9.066667	1	0.101625
9.083333	1	0.101750
9.100000	1	0.102250
9.116667	1	0.102750
9.133333	1	0.103750
9.150000	1	0.104250
9.166667	1	0.105750
9.183333	1	0.105875
9.200000	1	0.106875
9.216667	1	0.107625
9.233333	1	0.108375
9.250000	1	0.109250
9.266667	1	0.110250
9.283333	1	0.110750
9.300000	1	0.111625
9.316667	1	0.112750
9.333333	1	0.113500
9.350000	1	0.114125
9.366667	1	0.115375
9.383333	1	0.116375
9.400000	1	0.117000
9.416667	1	0.118375
9.433333	1	0.118875
9.450000	1	0.119875
9.466667	1	0.119750
9.483333	1	0.121125
9.500000	1	0.121750
9.516667	1	0.123125
9.533333	1	0.124125
9.550000	1	0.125500
9.566667	1	0.126875
9.583333	1	0.127125
9.600000	1	0.127375
9.616667	1	0.127625
9.633333	1	0.128000
9.650000	1	0.129250
9.666667	1	0.129250
9.683333	1	0.129750
9.700000	1	0.129875
9.716667	1	0.130250
9.733333	1	0.130250
9.750000	1	0.130250
9.766667	1	0.130250
9.783333	1	0.129375
9.800000	1	0.128250
9.816667	1	0.127000
9.833333	1	0.126000
9.850000	1	0.125625
9.866667	1	0.125000
9.883333	1	0.124625
9.900000	1	0.123750
9.916667	1	0.123375
9.933333	1	0.121875
9.950000	1	0.120625
9.966667	1	0.119125
9.983333	1	0.117250
10.000000	1	0.115625
10.016667	1	0.113250
10.033333	1	0.111250
10.050000	1	0.110125
10.066667	1	0.109625
10.083333	1	0.109500
10.100000	1	0.108875
10.116667	1	0.109500
10.133333	1	0.111125
10.150000	1	0.113875
10.166667	1	0.117250
10.183333	1	0.122250
10.200000	1	0.129500
10.216667	1	0.138750
10.233333	1	0.149750
10.250000	1	0.163875
10.266667	1	0.179375
10.283333	1	0.198375
10.300000	1	0.219750
10.316667	1	0.243875
10.333333	1	0.270125
10.350000	1	0.298125
10.366667	1	0.324875
10.383333	1	0.349500
10.400000	1	0.370750
10.416667	1	0.386375
10.433333	1	0.395750
10.450000	1	0.402250
10.466667	1	0.413000
10.483333	1	0.438000
10.500000	1	0.500625
10.516667	1	0.630500
10.533333	1	0.871625
10.550000	1	1.278250
10.566667	1	1.911875
10.583333	1	2.835500
10.600000	1	4.107625
10.616667	1	5.775500
10.633333	1	7.871625
10.650000	1	10.407250
10.666667	1	13.381250
10.683333	1	16.772500
10.700000	1	20.542250
10.716667	1	24.625250
10.733333	1	28.928125
10.750000	1	33.319625
10.766667	1	37.618625
10.783333	1	41.592375
10.800000	1	44.954375
10.816667	1	47.388250
10.833333	1	48.596125
10.850000	1	48.377250
10.866667	1	46.687375
10.883333	1	43.677750
10.900000	1	39.669500
10.916667	1	35.081500
10.933333	1	30.330125
10.950000	1	25.752875
10.966667	1	21.574875
10.983333	1	17.908625
11.000000	1	14.787250
11.016667	1	12.191125
11.033333	1	10.073000
11.050000	1	8.369500
11.066667	1	7.012500
11.083333	1	5.939250
11.100000	1	5.094000
11.116667	1	4.426375
11.133333	1	3.897750
11.150000	1	3.475625
11.166667	1	3.135625
11.183333	1	2.859000
11.200000	1	2.631125
11.216667	1	2.440125
11.233333	1	2.278750
11.250000	1	2.140625
11.266667	1	2.021625
11.283333	1	1.917375
11.300000	1	1.824625
11.316667	1	1.743375
11.333333	1	1.671625
11.350000	1	1.607250
11.366667	1	1.549750
11.383333	1	1.498750
11.400000	1	1.453375
11.416667	1	1.413125
11.433333	1	1.376875
11.450000	1	1.344625
11.466667	1	1.315500
11.483333	1	1.290125
11.500000	1	1.267000
11.516667	1	1.246250
11.533333	1	1.226625
11.550000	1	1.209375
11.566667	1	1.193875
11.583333	1	1.180000
11.600000	1	1.167625
11.616667	1	1.156250
11.633333	1	1.146375
11.650000	1	1.137500
11.666667	1	1.130500
11.683333	1	1.125250
11.700000	1	1.121250
11.716667	1	1.118000
11.733333	1	1.116250
11.750000	1	1.115500
11.766667	1	1.115875
11.783333	1	1.117375
11.800000	1	1.119875
11.816667	1	1.123000
11.833333	1	1.126375
11.850000	1	1.129500
11.866667	1	1.132875
11.883333	1	1.136250
11.900000	1	1.140125
11.916667	1	1.143500
11.933333	1	1.146375
11.950000	1	1.148875
11.966667	1	1.152625
11.983333	1	1.156000
12.000000	1	1.159375
12.016667	1	1.163625
12.033333	1	1.168875
12.050000	1	1.173875
12.066667	1	1.179375
12.083333	1	1.185375
12.100000	1	1.191750
12.116667	1	1.199375
12.133333	1	1.207000
12.150000	1	1.215125
12.166667	1	1.223250
12.183333	1	1.232500
12.200000	1	1.242750
12.216667	1	1.253625
12.233333	1	1.266375
12.250000	1	1.281125
12.266667	1	1.298750
12.283333	1	1.319500
12.300000	1	1.343750
12.316667	1	1.373000
12.333333	1	1.408375
12.350000	1	1.452000
12.366667	1	1.504875
12.383333	1	1.570375
12.400000	1	1.650875
12.416667	1	1.750125
12.433333	1	1.872750
12.450000	1	2.024125
12.466667	1	2.208625
12.483333	1	2.431125
12.500000	1	2.696375
12.516667	1	3.005875
12.533333	1	3.361500
12.550000	1	3.759375
12.566667	1	4.193875
12.583333	1	4.653750
12.600000	1	5.127750
12.616667	1	5.599125
12.633333	1	6.051500
12.650000	1	6.466500
12.666667	1	6.827875
12.683333	1	7.121625
12.700000	1	7.335250
12.716667	1	7.462375
12.733333	1	7.502500
12.750000	1	7.457875
12.766667	1	7.337875
12.783333	1	7.153125
12.800000	1	6.915500
12.816667	1	6.638625
12.833333	1	6.333750
12.850000	1	6.012000
12.866667	1	5.681625
12.883333	1	5.352125
12.900000	1	5.029375
12.916667	1	4.720000
12.933333	1	4.428000
12.950000	1	4.157500
12.966667	1	3.911000
12.983333	1	3.688125
13.000000	1	3.489625
13.016667	1	3.314875
13.033333	1	3.161500
13.050000	1	3.026500
13.066667	1	2.909375
13.083333	1	2.806625
13.100000	1	2.717250
13.116667	1	2.638375
13.133333	1	2.568375
13.150000	1	2.506000
13.166667	1	2.449875
13.183333	1	2.399375
13.200000	1	2.353000
13.216667	1	2.309625
13.233333	1	2.268875
13.250000	1	2.230125
13.266667	1	2.193125
13.283333	1	2.157625
13.300000	1	2.123125
13.316667	1	2.090375
13.333333	1	2.059000
13.350000	1	2.029125
13.366667	1	2.001375
13.383333	1	1.975750
13.400000	1	1.951625
13.416667	1	1.930750
13.433333	1	1.911750
13.450000	1	1.895000
13.466667	1	1.880375
13.483333	1	1.868500
13.500000	1	1.857500
13.516667	1	1.850375
13.533333	1	1.844250
13.550000	1	1.840000
13.566667	1	1.836125
13.583333	1	1.832250
13.600000	1	1.827625
13.616667	1	1.823375
13.633333	1	1.815625
13.650000	1	1.806375
13.666667	1	1.795125
13.683333	1	1.780750
13.700000	1	1.764000
13.716667	1	1.744750
13.733333	1	1.724000
13.750000	1	1.701750
13.766667	1	1.678750
13.783333	1	1.655625
13.800000	1	1.632000
13.816667	1	1.609375
13.833333	1	1.587250
13.850000	1	1.565750
13.866667	1	1.545875
13.883333	1	1.526500
13.900000	1	1.508500
13.916667	1	1.491125
13.933333	1	1.476000
13.950000	1	1.461250
13.966667	1	1.446500
13.983333	1	1.433125
14.000000	1	1.420125
14.016667	1	1.408125
14.033333	1	1.396625
14.050000	1	1.385625
14.066667	1	1.375500
14.083333	1	1.366125
14.100000	1	1.357125
14.116667	1	1.348625
14.133333	1	1.340750
14.150000	1	1.333625
14.166667	1	1.326625
14.183333	1	1.320375
14.200000	1	1.315750
14.216667	1	1.313000
14.233333	1	1.310000
14.250000	1	1.309875
14.266667	1	1.311750
14.283333	1	1.315500
14.300000	1	1.322250
14.316667	1	1.332625
14.333333	1	1.345750
14.350000	1	1.362750
14.366667	1	1.385000
14.383333	1	1.414375
14.400000	1	1.451625
14.416667	1	1.499625
14.433333	1	1.562125
14.450000	1	1.643875
14.466667	1	1.753250
14.483333	1	1.898250
14.500000	1	2.093625
14.516667	1	2.356625
14.533333	1	2.709875
14.550000	1	3.180625
14.566667	1	3.804625
14.583333	1	4.622625
14.600000	1	5.678500
14.616667	1	7.022875
14.633333	1	8.706000
14.650000	1	10.773250
14.666667	1	13.258875
14.683333	1	16.181000
14.700000	1	19.531000
14.716667	1	23.270500
14.733333	1	27.330375
14.750000	1	31.609250
14.766667	1	35.971000
14.783333	1	40.252250
14.800000	1	44.279625
14.816667	1	47.876375
14.833333	1	50.875500
14.850000	1	53.132000
14.866667	1	54.535500
14.883333	1	55.024875
14.900000	1	54.589750
14.916667	1	53.274625
14.933333	1	51.165875
14.950000	1	48.389750
14.966667	1	45.097250
14.983333	1	41.453875
15.000000	1	37.615125
15.016667	1	33.724125
15.033333	1	29.904875
15.050000	1	26.258250
15.066667	1	22.860000
15.083333	1	19.758875
15.100000	1	16.980250
15.116667	1	14.530875
15.133333	1	12.401125
15.150000	1	10.569750
15.166667	1	9.010375
15.183333	1	7.695375
15.200000	1	6.592625
15.216667	1	5.673500
15.233333	1	4.912250
15.250000	1	4.284750
15.266667	1	3.770500
15.283333	1	3.352250
15.300000	1	3.015125
15.316667	1	2.746000
15.333333	1	2.533750
15.350000	1	2.369125
15.366667	1	2.244500
15.383333	1	2.152500
15.400000	1	2.086875
15.416667	1	2.042125
15.433333	1	2.012000
15.450000	1	1.992625
15.466667	1	1.979375
15.483333	1	1.969000
15.500000	1	1.958375
15.516667	1	1.945250
15.533333	1	1.926750
15.550000	1	1.902500
15.566667	1	1.873125
15.583333	1	1.839000
15.600000	1	1.800375
15.616667	1	1.758250
15.633333	1	1.714500
15.650000	1	1.670000
15.666667	1	1.626125
15.683333	1	1.583750
15.700000	1	1.543250
15.716667	1	1.504625
15.733333	1	1.469125
15.750000	1	1.435875
15.766667	1	1.405375
15.783333	1	1.377500
15.800000	1	1.351125
15.816667	1	1.326875
15.833333	1	1.304375
15.850000	1	1.283375
15.866667	1	1.264375
15.883333	1	1.246875
15.900000	1	1.231000
15.916667	1	1.216875
15.933333	1	1.204625
15.950000	1	1.193625
15.966667	1	1.184875
15.983333	1	1.178125
16.000000	1	1.172750
16.016667	1	1.169250
16.033333	1	1.167125
16.050000	1	1.166250
16.066667	1	1.166125
16.083333	1	1.167000
16.100000	1	1.169000
16.116667	1	1.171250
16.133333	1	1.173625
16.150000	1	1.175875
16.166667	1	1.177250
16.183333	1	1.178500
16.200000	1	1.179000
16.216667	1	1.178500
16.233333	1	1.177750
16.250000	1	1.176500
16.266667	1	1.173750
16.283333	1	1.171125
16.300000	1	1.168000
16.316667	1	1.164375
16.333333	1	1.160875
16.350000	1	1.156750
16.366667	1	1.154125
16.383333	1	1.151875
16.400000	1	1.150500
16.416667	1	1.151000
16.433333	1	1.152500
16.450000	1	1.155000
16.466667	1	1.158250
16.483333	1	1.162500
16.500000	1	1.167875
16.516667	1	1.172625
16.533333	1	1.177625
16.550000	1	1.181875
16.566667	1	1.185250
16.583333	1	1.187625
16.600000	1	1.188750
16.616667	1	1.188625
16.633333	1	1.188500
16.650000	1	1.186625
16.666667	1	1.185000
16.683333	1	1.182750
16.700000	1	1.180125
16.716667	1	1.179500
16.733333	1	1.179250
16.750000	1	1.180875
16.766667	1	1.183625
16.783333	1	1.187875
16.800000	1	1.194250
16.816667	1	1.201250
16.833333	1	1.208750
16.850000	1	1.216750
16.866667	1	1.224875
16.883333	1	1.232750
16.900000	1	1.240000
16.916667	1	1.245500
16.933333	1	1.249875
16.950000	1	1.252625
16.966667	1	1.254500
16.983333	1	1.255250
17.000000	1	1.253875
17.016667	1	1.251500
17.033333	1	1.247750
17.050000	1	1.243375
17.066667	1	1.239500
17.083333	1	1.235375
17.100000	1	1.231000
17.116667	1	1.227250
17.133333	1	1.223500
17.150000	1	1.220250
17.166667	1	1.217875
17.183333	1	1.216125
17.200000	1	1.215750
17.216667	1	1.214875
17.233333	1	1.214875
17.250000	1	1.214750
17.266667	1	1.215625
17.283333	1	1.216875
17.300000	1	1.218500
17.316667	1	1.220500
17.333333	1	1.222500
17.350000	1	1.224750
17.366667	1	1.226250
17.383333	1	1.228000
17.400000	1	1.229000
17.416667	1	1.228625
17.433333	1	1.227625
17.450000	1	1.225750
17.466667	1	1.222625
17.483333	1	1.217750
17.500000	1	1.210875
17.516667	1	1.202500
17.533333	1	1.192500
17.550000	1	1.181125
17.566667	1	1.167875
17.583333	1	1.153125
17.600000	1	1.137875
17.616667	1	1.121375
17.633333	1	1.104375
17.650000	1	1.086875
17.666667	1	1.069000
17.683333	1	1.051250
17.700000	1	1.034500
17.716667	1	1.018250
17.733333	1	1.003125
17.750000	1	0.988375
17.766667	1	0.974875
17.783333	1	0.963250
17.800000	1	0.952375
17.816667	1	0.942000
17.833333	1	0.932875
17.850000	1	0.925250
17.866667	1	0.918000
17.883333	1	0.911000
17.900000	1	0.905750
17.916667	1	0.901125
17.933333	1	0.895500
17.950000	1	0.891000
17.966667	1	0.887125
17.983333	1	0.883000
18.000000	1	0.879250
18.016667	1	0.875250
18.033333	1	0.870000
18.050000	1	0.865125
18.066667	1	0.860875
18.083333	1	0.856625
18.100000	1	0.853000
18.116667	1	0.850125
18.133333	1	0.847000
18.150000	1	0.844625
18.166667	1	0.844000
18.183333	1	0.843750
18.200000	1	0.843750
18.216667	1	0.843750
18.233333	1	0.845000
18.250000	1	0.846625
18.266667	1	0.848750
18.283333	1	0.851125
18.300000	1	0.853625
18.316667	1	0.856875
18.333333	1	0.861000
18.350000	1	0.865000
18.366667	1	0.868875
18.383333	1	0.874125
18.400000	1	0.880500
18.416667	1	0.887750
18.433333	1	0.895625
18.450000	1	0.904750
18.466667	1	0.915500
18.483333	1	0.927000
18.500000	1	0.941125
18.516667	1	0.956250
18.533333	1	0.973375
18.550000	1	0.992125
18.566667	1	1.013000
18.583333	1	1.035625
18.600000	1	1.060000
18.616667	1	1.085000
18.633333	1	1.111875
18.650000	1	1.139875
18.666667	1	1.169375
18.683333	1	1.198250
18.700000	1	1.229125
18.716667	1	1.259125
18.733333	1	1.290375
18.750000	1	1.321000
18.766667	1	1.350500
18.783333	1	1.379500
18.800000	1	1.407000
18.816667	1	1.432375
18.833333	1	1.455625
18.850000	1	1.475125
18.866667	1	1.491625
18.883333	1	1.502875
18.900000	1	1.509750
18.916667	1	1.511375
18.933333	1	1.507125
18.950000	1	1.497375
18.966667	1	1.480750
18.983333	1	1.459125
19.000000	1	1.432000
19.016667	1	1.399625
19.033333	1	1.362250
19.050000	1	1.321500
19.066667	1	1.277875
19.083333	1	1.232000
19.100000	1	1.184875
19.116667	1	1.137125
19.133333	1	1.091250
19.150000	1	1.046375
19.166667	1	1.003750
19.183333	1	0.965375
19.200000	1	0.930375
19.216667	1	0.900125
19.233333	1	0.874125
19.250000	1	0.853750
19.266667	1	0.838375
19.283333	1	0.829500
19.300000	1	0.826250
19.316667	1	0.829000
19.333333	1	0.837250
19.350000	1	0.850125
19.366667	1	0.867750
19.383333	1	0.890125
19.400000	1	0.916250
19.416667	1	0.945250
19.433333	1	0.976125
19.450000	1	1.007000
19.466667	1	1.038875
19.483333	1	1.070375
19.500000	1	1.100250
19.516667	1	1.126750
19.533333	1	1.151500
19.550000	1	1.171375
19.566667	1	1.186875
19.583333	1	1.198625
19.600000	1	1.205500
19.616667	1	1.206875
19.633333	1	1.203000
19.650000	1	1.194625
19.666667	1	1.181000
19.683333	1	1.164000
19.700000	1	1.143375
19.716667	1	1.119500
19.733333	1	1.092750
19.750000	1	1.064250
19.766667	1	1.034750
19.783333	1	1.004625
19.800000	1	0.972875
19.816667	1	0.941125
19.833333	1	0.909000
19.850000	1	0.878375
19.866667	1	0.847750
19.883333	1	0.820125
19.900000	1	0.794125
19.916667	1	0.770000
19.933333	1	0.749000
19.950000	1	0.730750
19.966667	1	0.715250
19.983333	1	0.703500
20.000000	1	0.696000
20.016667	1	0.692625
20.033333	1	0.692625
20.050000	1	0.697375
20.066667	1	0.706625
20.083333	1	0.720875
20.100000	1	0.739625
20.116667	1	0.761875
20.133333	1	0.788875
20.150000	1	0.819375
20.166667	1	0.852500
20.183333	1	0.886875
20.200000	1	0.922625
20.216667	1	0.959000
20.233333	1	0.994000
20.250000	1	1.026250
20.266667	1	1.055125
20.283333	1	1.080250
20.300000	1	1.099250
20.316667	1	1.112125
20.333333	1	1.118750
20.350000	1	1.118375
20.366667	1	1.111750
20.383333	1	1.098375
20.400000	1	1.079500
20.416667	1	1.055625
20.433333	1	1.027500
20.450000	1	0.996625
20.466667	1	0.964500
20.483333	1	0.932875
20.500000	1	0.902500
20.516667	1	0.874500
20.533333	1	0.850250
20.550000	1	0.831375
20.566667	1	0.817625
20.583333	1	0.811000
20.600000	1	0.811625
20.616667	1	0.820125
20.633333	1	0.837125
20.650000	1	0.863125
20.666667	1	0.897750
20.683333	1	0.940375
20.700000	1	0.991750
20.716667	1	1.049500
20.733333	1	1.113375
20.750000	1	1.182375
20.766667	1	1.254875
20.783333	1	1.327375
20.800000	1	1.398375
20.816667	1	1.467250
20.833333	1	1.530875
20.850000	1	1.586000
20.866667	1	1.632125
20.883333	1	1.667250
20.900000	1	1.689250
20.916667	1	1.698625
20.933333	1	1.696000
20.950000	1	1.680500
20.966667	1	1.651875
20.983333	1	1.612625
21.000000	1	1.563125
21.016667	1	1.505625
21.033333	1	1.441625
21.050000	1	1.374375
21.066667	1	1.304500
21.083333	1	1.233875
21.100000	1	1.163750
21.116667	1	1.096250
21.133333	1	1.031250
21.150000	1	0.970750
21.166667	1	0.914375
21.183333	1	0.862000
21.200000	1	0.814375
21.216667	1	0.771250
21.233333	1	0.733125
21.250000	1	0.699625
21.266667	1	0.669625
21.283333	1	0.642875
21.300000	1	0.619750
21.316667	1	0.599375
21.333333	1	0.582125
21.350000	1	0.567500
21.366667	1	0.554875
21.383333	1	0.543625
21.400000	1	0.534500
21.416667	1	0.526875
21.433333	1	0.520000
21.450000	1	0.514625
21.466667	1	0.510625
21.483333	1	0.507375
21.500000	1	0.505375
21.516667	1	0.504375
21.533333	1	0.504500
21.550000	1	0.505250
21.566667	1	0.508750
21.583333	1	0.513000
21.600000	1	0.519500
21.616667	1	0.527000
21.633333	1	0.535750
21.650000	1	0.546500
21.666667	1	0.559500
21.683333	1	0.574375
21.700000	1	0.591750
21.716667	1	0.611375
21.733333	1	0.632625
21.750000	1	0.656500
21.766667	1	0.681375
21.783333	1	0.707750
21.800000	1	0.735375
21.816667	1	0.763750
21.833333	1	0.792000
21.850000	1	0.820625
21.866667	1	0.847250
21.883333	1	0.873125
21.900000	1	0.896750
21.916667	1	0.918500
21.933333	1	0.937750
21.950000	1	0.953125
21.966667	1	0.965125
21.983333	1	0.973500
22.000000	1	0.977750
22.016667	1	0.979000
22.033333	1	0.976500
22.050000	1	0.969750
22.066667	1	0.959750
22.083333	1	0.947875
22.100000	1	0.933000
22.116667	1	0.916000
22.133333	1	0.896875
22.150000	1	0.876250
22.166667	1	0.855625
22.183333	1	0.833750
22.200000	1	0.811250
22.216667	1	0.788500
22.233333	1	0.765625
22.250000	1	0.743375
22.266667	1	0.721625
22.283333	1	0.699875
22.300000	1	0.678875
22.316667	1	0.658250
22.333333	1	0.639000
22.350000	1	0.619875
22.366667	1	0.601875
22.383333	1	0.584875
22.400000	1	0.569500
22.416667	1	0.554625
22.433333	1	0.541000
22.450000	1	0.528375
22.466667	1	0.517000
22.483333	1	0.508000
22.500000	1	0.499250
22.516667	1	0.491250
22.533333	1	0.484500
22.550000	1	0.478750
22.566667	1	0.473375
22.583333	1	0.468375
22.600000	1	0.463625
22.616667	1	0.459500
22.633333	1	0.456000
22.650000	1	0.452625
22.666667	1	0.449750
22.683333	1	0.446125
22.700000	1	0.443125
22.716667	1	0.440000
22.733333	1	0.436500
22.750000	1	0.432250
22.766667	1	0.428375
22.783333	1	0.424000
22.800000	1	0.420000
22.816667	1	0.415375
22.833333	1	0.410750
22.850000	1	0.406500
22.866667	1	0.402125
22.883333	1	0.398125
22.900000	1	0.394375
22.916667	1	0.390625
22.933333	1	0.387125
22.950000	1	0.384250
22.966667	1	0.381375
22.983333	1	0.378750
23.000000	1	0.376625
23.016667	1	0.374500
23.033333	1	0.372875
23.050000	1	0.371750
23.066667	1	0.370625
23.083333	1	0.369625
23.100000	1	0.369875
23.116667	1	0.369875
23.133333	1	0.370125
23.150000	1	0.371125
23.166667	1	0.372625
23.183333	1	0.374000
23.200000	1	0.375750
23.216667	1	0.378000
23.233333	1	0.381000
23.250000	1	0.384375
23.266667	1	0.389250
23.283333	1	0.395750
23.300000	1	0.404750
23.316667	1	0.415375
23.333333	1	0.430125
23.350000	1	0.447875
23.366667	1	0.470125
23.383333	1	0.496875
23.400000	1	0.529250
23.416667	1	0.569000
23.433333	1	0.617750
23.450000	1	0.675375
23.466667	1	0.743625
23.483333	1	0.824000
23.500000	1	0.917875
23.516667	1	1.026875
23.533333	1	1.151750
23.550000	1	1.292875
23.566667	1	1.451625
23.583333	1	1.627375
23.600000	1	1.820000
23.616667	1	2.029375
23.633333	1	2.254125
23.650000	1	2.491000
23.666667	1	2.738500
23.683333	1	2.992750
23.700000	1	3.250500
23.716667	1	3.507500
23.733333	1	3.759125
23.750000	1	4.000000
23.766667	1	4.225250
23.783333	1	4.428625
23.800000	1	4.607000
23.816667	1	4.755750
23.833333	1	4.871625
23.850000	1	4.951875
23.866667	1	4.995250
23.883333	1	5.001125
23.900000	1	4.969750
23.916667	1	4.903625
23.933333	1	4.803500
23.950000	1	4.673750
23.966667	1	4.516125
23.983333	1	4.336250
24.000000	1	4.138375
24.016667	1	3.926125
24.033333	1	3.705250
24.050000	1	3.479000
24.066667	1	3.250750
24.083333	1	3.024250
24.100000	1	2.802500
24.116667	1	2.588250
24.133333	1	2.382625
24.150000	1	2.187375
24.166667	1	2.003500
24.183333	1	1.832625
24.200000	1	1.673875
24.216667	1	1.527750
24.233333	1	1.394375
24.250000	1	1.273250
24.266667	1	1.162875
24.283333	1	1.063500
24.300000	1	0.974500
24.316667	1	0.895125
24.333333	1	0.824000
24.350000	1	0.761625
24.366667	1	0.706625
24.383333	1	0.659000
24.400000	1	0.618000
24.416667	1	0.582625
24.433333	1	0.551875
24.450000	1	0.525625
24.466667	1	0.504000
24.483333	1	0.486500
24.500000	1	0.472000
24.516667	1	0.460000
24.533333	1	0.450625
24.550000	1	0.442875
24.566667	1	0.436250
24.583333	1	0.431125
24.600000	1	0.427500
24.616667	1	0.424750
24.633333	1	0.421875
24.650000	1	0.420125
24.666667	1	0.417875
24.683333	1	0.416000
24.700000	1	0.414000
24.716667	1	0.412375
24.733333	1	0.410250
24.750000	1	0.407625
24.766667	1	0.404500
24.783333	1	0.401000
24.800000	1	0.397625
24.816667	1	0.394375
24.833333	1	0.390625
24.850000	1	0.387000
24.866667	1	0.383125
24.883333	1	0.379625
24.900000	1	0.376250
24.916667	1	0.372625
24.933333	1	0.369250
24.950000	1	0.365250
24.966667	1	0.360625
24.983333	1	0.357125
25.000000	1	0.353500
25.016667	1	0.350125
25.033333	1	0.347125
25.050000	1	0.344000
25.066667	1	0.341250
25.083333	1	0.338125
25.100000	1	0.335250
25.116667	1	0.331625
25.133333	1	0.328375
25.150000	1	0.325625
25.166667	1	0.322750
25.183333	1	0.320625
25.200000	1	0.318000
25.216667	1	0.315500
25.233333	1	0.313750
25.250000	1	0.311375
25.266667	1	0.309500
25.283333	1	0.307625
25.300000	1	0.305625
25.316667	1	0.303875
25.333333	1	0.302875
25.350000	1	0.301750
25.366667	1	0.301250
25.383333	1	0.300625
25.400000	1	0.300125
25.416667	1	0.300375
25.433333	1	0.300375
25.450000	1	0.300625
25.466667	1	0.301625
25.483333	1	0.303000
25.500000	1	0.304375
25.516667	1	0.304625
25.533333	1	0.306250
25.550000	1	0.307375
25.566667	1	0.309500
25.583333	1	0.311750
25.600000	1	0.313250
25.616667	1	0.314750
25.633333	1	0.316875
25.650000	1	0.318625
25.666667	1	0.319875
25.683333	1	0.321375
25.700000	1	0.322750
25.716667	1	0.323875
25.733333	1	0.325000
25.750000	1	0.326500
25.766667	1	0.326750
25.783333	1	0.326875
25.800000	1	0.327250
25.816667	1	0.328125
25.833333	1	0.328125
25.850000	1	0.328500
25.866667	1	0.328500
25.883333	1	0.329625
25.900000	1	0.330125
25.916667	1	0.331125
25.933333	1	0.331375
25.950000	1	0.332625
25.966667	1	0.334250
25.983333	1	0.336000
26.000000	1	0.338375
26.016667	1	0.340250
26.033333	1	0.342875
26.050000	1	0.346125
26.066667	1	0.349500
26.083333	1	0.352750
26.100000	1	0.357250
26.116667	1	0.362500
26.133333	1	0.366625
26.150000	1	0.371625
26.166667	1	0.376750
26.183333	1	0.382875
26.200000	1	0.388875
26.216667	1	0.393875
26.233333	1	0.399250
26.250000	1	0.404625
26.266667	1	0.409375
26.283333	1	0.414250
26.300000	1	0.418875
26.316667	1	0.423250
26.333333	1	0.426875
26.350000	1	0.429375
26.366667	1	0.431375
26.383333	1	0.431875
26.400000	1	0.431875
26.416667	1	0.431375
26.433333	1	0.429625
26.450000	1	0.427125
26.466667	1	0.423750
26.483333	1	0.419375
26.500000	1	0.413625
26.516667	1	0.406750
26.533333	1	0.399875
26.550000	1	0.392750
26.566667	1	0.384500
26.583333	1	0.375750
26.600000	1	0.367250
26.616667	1	0.358500
26.633333	1	0.349000
26.650000	1	0.339875
26.666667	1	0.330500
26.683333	1	0.321500
26.700000	1	0.312000
26.716667	1	0.302875
26.733333	1	0.294000
26.750000	1	0.285375
26.766667	1	0.276750
26.783333	1	0.269625
26.800000	1	0.261750
26.816667	1	0.255250
26.833333	1	0.249250
26.850000	1	0.243750
26.866667	1	0.238750
26.883333	1	0.234375
26.900000	1	0.230375
26.916667	1	0.227125
26.933333	1	0.224000
26.950000	1	0.221625
26.966667	1	0.220250
26.983333	1	0.218500
27.000000	1	0.218875
27.016667	1	0.219500
27.033333	1	0.220750
27.050000	1	0.222375
27.066667	1	0.225250
27.083333	1	0.229125
27.100000	1	0.234625
27.116667	1	0.240125
27.133333	1	0.247625
27.150000	1	0.255375
27.166667	1	0.265625
27.183333	1	0.276875
27.200000	1	0.289875
27.216667	1	0.304500
27.233333	1	0.320750
27.250000	1	0.339625
27.266667	1	0.361250
27.283333	1	0.385625
27.300000	1	0.413250
27.316667	1	0.444000
27.333333	1	0.479500
27.350000	1	0.519000
27.366667	1	0.563250
27.383333	1	0.613250
27.400000	1	0.669250
27.416667	1	0.732000
27.433333	1	0.801875
27.450000	1	0.879625
27.466667	1	0.964750
27.483333	1	1.058875
27.500000	1	1.162125
27.516667	1	1.275250
27.533333	1	1.396500
27.550000	1	1.527250
27.566667	1	1.666750
27.583333	1	1.815500
27.600000	1	1.971750
27.616667	1	2.134250
27.633333	1	2.303625
27.650000	1	2.477125
27.666667	1	2.653875
27.683333	1	2.831125
27.700000	1	3.007500
27.716667	1	3.180000
27.733333	1	3.347000
27.750000	1	3.505500
27.766667	1	3.653000
27.783333	1	3.787250
27.800000	1	3.906000
27.816667	1	4.006625
27.833333	1	4.088000
27.850000	1	4.148625
27.866667	1	4.187000
27.883333	1	4.201750
27.900000	1	4.193625
27.916667	1	4.162125
27.933333	1	4.107125
27.950000	1	4.029875
27.966667	1	3.933000
27.983333	1	3.817250
28.000000	1	3.684000
28.016667	1	3.537125
28.033333	1	3.377875
28.050000	1	3.208500
28.066667	1	3.032375
28.083333	1	2.852750
28.100000	1	2.671000
28.116667	1	2.489750
28.133333	1	2.310375
28.150000	1	2.136125
28.166667	1	1.967375
28.183333	1	1.807375
28.200000	1	1.654625
28.216667	1	1.511375
28.233333	1	1.377250
28.250000	1	1.253250
28.266667	1	1.137875
28.283333	1	1.032250
28.300000	1	0.936500
28.316667	1	0.849750
28.333333	1	0.772625
28.350000	1	0.703250
28.366667	1	0.641250
28.383333	1	0.587250
28.400000	1	0.540625
28.416667	1	0.499750
28.433333	1	0.464375
28.450000	1	0.434625
28.466667	1	0.409875
28.483333	1	0.389750
28.500000	1	0.374000
28.516667	1	0.362000
28.533333	1	0.352875
28.550000	1	0.347125
28.566667	1	0.343625
28.583333	1	0.343375
28.600000	1	0.345250
28.616667	1	0.348875
28.633333	1	0.354500
28.650000	1	0.362375
28.666667	1	0.370875
28.683333	1	0.380625
28.700000	1	0.391000
28.716667	1	0.402625
28.733333	1	0.414125
28.750000	1	0.426125
28.766667	1	0.438250
28.783333	1	0.450875
28.800000	1	0.462625
28.816667	1	0.473625
28.833333	1	0.484250
28.850000	1	0.494875
28.866667	1	0.504625
28.883333	1	0.513000
28.900000	1	0.520625
28.916667	1	0.527000
28.933333	1	0.531750
28.950000	1	0.535375
28.966667	1	0.537875
28.983333	1	0.538375
29.000000	1	0.537625
29.016667	1	0.534625
29.033333	1	0.530250
29.050000	1	0.523625
29.066667	1	0.515000
29.083333	1	0.504375
29.100000	1	0.491375
29.116667	1	0.475750
29.133333	1	0.458250
29.150000	1	0.437750
29.166667	1	0.414000
29.183333	1	0.388250
29.200000	1	0.360375
29.216667	1	0.329000
29.233333	1	0.294875
29.250000	1	0.257625
29.266667	1	0.217500
29.283333	1	0.174375
29.300000	1	0.127750
29.316667	1	0.078250
29.333333	1	0.025750
29.350000	1	-0.029875
29.366667	1	-0.087000
29.383333	1	-0.146125
29.400000	1	-0.208250
29.416667	1	-0.272125
29.433333	1	-0.338125
29.450000	1	-0.405625
29.466667	1	-0.474625
29.483333	1	-0.544250
29.500000	1	-0.614000
29.516667	1	-0.683000
29.533333	1	-0.751125
29.550000	1	-0.817875
29.566667	1	-0.882875
29.583333	1	-0.944750
29.600000	1	-1.003750
29.616667	1	-1.059625
29.633333	1	-1.111500
29.650000	1	-1.158625
29.666667	1	-1.201250
29.683333	1	-1.238875
29.700000	1	-1.270500
29.716667	1	-1.296125
29.733333	1	-1.315000
29.750000	1	-1.328250
29.766667	1	-1.334875
29.783333	1	-1.335875
29.800000	1	-1.331000
29.816667	1	-1.319750
29.833333	1	-1.302625
29.850000	1	-1.281125
29.866667	1	-1.253625
29.883333	1	-1.221500
29.900000	1	-1.185125
29.916667	1	-1.145125
29.933333	1	-1.102875
29.950000	1	-1.057625
29.966667	1	-1.009750
29.983333	1	-0.960375
30.000000	1	-0.909500
30.016667	1	-0.857750
30.033333	1	-0.806000
30.050000	1	-0.753750
30.066667	1	-0.702125
30.083333	1	-0.651125
30.100000	1	-0.601500
30.116667	1	-0.553625
30.133333	1	-0.506750
30.150000	1	-0.461375
30.166667	1	-0.418625
30.183333	1	-0.377875
30.200000	1	-0.338750
30.216667	1	-0.302625
30.233333	1	-0.268250
30.250000	1	-0.234875
30.266667	1	-0.203875
30.283333	1	-0.175500
30.300000	1	-0.149125
30.316667	1	-0.124750
30.333333	1	-0.101375
30.350000	1	-0.080125
30.366667	1	-0.060375
30.383333	1	-0.041500
30.400000	1	-0.024750
30.416667	1	-0.009125
30.433333	1	0.005375
30.450000	1	0.018875
30.466667	1	0.031250
30.483333	1	0.042875
30.500000	1	0.054125
30.516667	1	0.064000
30.533333	1	0.072750
30.550000	1	0.081375
30.566667	1	0.090250
30.583333	1	0.099000
30.600000	1	0.107250
30.616667	1	0.115125
30.633333	1	0.123125
30.650000	1	0.130500
30.666667	1	0.138500
30.683333	1	0.145875
30.700000	1	0.154250
30.716667	1	0.162500
30.733333	1	0.171625
30.750000	1	0.181000
30.766667	1	0.190750
30.783333	1	0.201500
30.800000	1	0.212750
30.816667	1	0.225375
30.833333	1	0.239000
30.850000	1	0.254250
30.866667	1	0.270250
30.883333	1	0.288625
30.900000	1	0.307875
30.916667	1	0.330375
30.933333	1	0.356250
30.950000	1	0.384500
30.966667	1	0.415750
30.983333	1	0.451875
31.000000	1	0.492750
31.016667	1	0.538000
31.033333	1	0.589125
31.050000	1	0.647125
31.066667	1	0.713000
31.083333	1	0.786250
31.100000	1	0.868625
31.116667	1	0.960500
31.133333	1	1.062250
31.150000	1	1.175625
31.166667	1	1.300625
31.183333	1	1.438500
31.200000	1	1.588875
31.216667	1	1.753500
31.233333	1	1.932250
31.250000	1	2.123500
31.266667	1	2.328625
31.283333	1	2.546125
31.300000	1	2.775875
31.316667	1	3.016750
31.333333	1	3.267375
31.350000	1	3.525500
31.366667	1	3.790125
31.383333	1	4.059750
31.400000	1	4.330125
31.416667	1	4.600875
31.433333	1	4.867250
31.450000	1	5.127500
31.466667	1	5.377250
31.483333	1	5.614000
31.500000	1	5.835500
31.516667	1	6.038375
31.533333	1	6.219625
31.550000	1	6.378125
31.566667	1	6.511750
31.583333	1	6.617875
31.600000	1	6.695750
31.616667	1	6.743625
31.633333	1	6.761375
31.650000	1	6.749875
31.666667	1	6.708625
31.683333	1	6.639250
31.700000	1	6.543125
31.716667	1	6.421375
31.733333	1	6.276750
31.750000	1	6.110875
31.766667	1	5.925750
31.783333	1	5.723875
31.800000	1	5.507750
31.816667	1	5.280250
31.833333	1	5.043750
31.850000	1	4.801375
31.866667	1	4.555875
31.883333	1	4.308375
31.900000	1	4.062000
31.916667	1	3.818875
31.933333	1	3.580125
31.950000	1	3.347875
31.966667	1	3.122250
31.983333	1	2.904500
32.000000	1	2.695875
32.016667	1	2.495000
32.033333	1	2.304500
32.050000	1	2.124875
32.066667	1	1.955625
32.083333	1	1.797000
32.100000	1	1.647125
32.116667	1	1.508250
32.133333	1	1.379375
32.150000	1	1.260125
32.166667	1	1.149250
32.183333	1	1.046625
32.200000	1	0.952250
32.216667	1	0.865125
32.233333	1	0.784500
32.250000	1	0.710750
32.266667	1	0.643500
32.283333	1	0.582375
32.300000	1	0.526125
32.316667	1	0.474625
32.333333	1	0.427625
32.350000	1	0.384500
32.366667	1	0.345500
32.383333	1	0.311250
32.400000	1	0.279125
32.416667	1	0.250500
32.433333	1	0.223750
32.450000	1	0.199375
32.466667	1	0.177875
32.483333	1	0.158875
32.500000	1	0.142250
32.516667	1	0.126625
32.533333	1	0.113250
32.550000	1	0.100875
32.566667	1	0.090375
32.583333	1	0.081000
32.600000	1	0.072250
32.616667	1	0.065000
32.633333	1	0.058375
32.650000	1	0.052625
32.666667	1	0.047750
32.683333	1	0.043000
32.700000	1	0.039375
32.716667	1	0.036500
32.733333	1	0.032875
32.750000	1	0.030125
32.766667	1	0.027500
32.783333	1	0.026250
32.800000	1	0.024250
32.816667	1	0.022250
32.833333	1	0.020625
32.850000	1	0.019000
32.866667	1	0.016875
32.883333	1	0.015125
32.900000	1	0.012250
32.916667	1	0.010125
32.933333	1	0.008125
32.950000	1	0.006500
32.966667	1	0.004125
32.983333	1	0.002125
33.000000	1	-0.000375
33.016667	1	-0.003250
33.033333	1	-0.005375
33.050000	1	-0.007250
33.066667	1	-0.008625
33.083333	1	-0.010500
33.100000	1	-0.012375
33.116667	1	-0.014250
33.133333	1	-0.014875
33.150000	1	-0.015750
33.166667	1	-0.016000
33.183333	1	-0.016500
33.200000	1	-0.016375
33.216667	1	-0.016625
33.233333	1	-0.015500
33.250000	1	-0.014625
33.266667	1	-0.013250
33.283333	1	-0.011375
33.300000	1	-0.009375
33.316667	1	-0.006250
33.333333	1	-0.003375
33.350000	1	-0.000500
33.366667	1	0.002500
33.383333	1	0.005875
33.400000	1	0.009000
33.416667	1	0.012875
33.433333	1	0.016375
33.450000	1	0.020500
33.466667	1	0.023375
33.483333	1	0.026375
33.500000	1	0.029250
33.516667	1	0.032625
33.533333	1	0.035375
33.550000	1	0.038500
33.566667	1	0.040750
33.583333	1	0.042875
33.600000	1	0.044875
33.616667	1	0.047375
33.633333	1	0.048875
33.650000	1	0.050250
33.666667	1	0.051375
33.683333	1	0.051875
33.700000	1	0.052875
33.716667	1	0.053125
33.733333	1	0.054000
33.750000	1	0.054375
33.766667	1	0.054750
33.783333	1	0.054625
33.800000	1	0.055500
33.816667	1	0.056250
33.833333	1	0.056625
33.850000	1	0.056375
33.866667	1	0.057000
33.883333	1	0.057250
33.900000	1	0.058375
33.916667	1	0.058875
33.933333	1	0.060250
33.950000	1	0.061000
33.966667	1	0.062500
33.983333	1	0.063125
34.000000	1	0.064375
34.016667	1	0.065625
34.033333	1	0.066625
34.050000	1	0.067375
34.066667	1	0.068375
34.083333	1	0.068875
34.100000	1	0.069375
34.116667	1	0.070000
34.133333	1	0.071250
34.150000	1	0.073000
34.166667	1	0.073750
34.183333	1	0.074250
34.200000	1	0.074250
34.216667	1	0.074250
34.233333	1	0.074250
34.250000	1	0.074875
34.266667	1	0.074750
34.283333	1	0.075125
34.300000	1	0.075375
34.316667	1	0.075000
34.333333	1	0.074625
34.350000	1	0.074875
34.366667	1	0.074500
34.383333	1	0.074250
34.400000	1	0.073375
34.416667	1	0.072500
34.433333	1	0.072125
34.450000	1	0.071500
34.466667	1	0.070750
34.483333	1	0.070625
34.500000	1	0.069875
34.516667	1	0.069750
34.533333	1	0.070125
34.550000	1	0.070000
34.566667	1	0.070250
34.583333	1	0.069875
34.600000	1	0.070000
34.616667	1	0.069750
34.633333	1	0.069375
34.650000	1	0.069500
34.666667	1	0.069125
34.683333	1	0.069375
34.700000	1	0.069625
34.716667	1	0.069125
34.733333	1	0.069000
34.750000	1	0.068875
34.766667	1	0.069000
34.783333	1	0.068875
34.800000	1	0.069000
34.816667	1	0.068250
34.833333	1	0.067500
34.850000	1	0.067250
34.866667	1	0.066500
34.883333	1	0.066750
34.900000	1	0.066625
34.916667	1	0.065875
34.933333	1	0.064500
34.950000	1	0.063500
34.966667	1	0.062375
34.983333	1	0.060875
35.000000	1	0.059625
35.016667	1	0.058375
35.033333	1	0.057250
35.050000	1	0.055500
35.066667	1	0.054250
35.083333	1	0.053750
35.100000	1	0.052500
35.116667	1	0.051250
35.133333	1	0.049500
35.150000	1	0.047500
35.166667	1	0.046125
35.183333	1	0.044625
35.200000	1	0.043125
35.216667	1	0.041125
35.233333	1	0.039125
35.250000	1	0.037875
35.266667	1	0.037375
35.283333	1	0.036375
35.300000	1	0.035375
35.316667	1	0.035250
35.333333	1	0.035125
35.350000	1	0.034375
35.366667	1	0.034125
35.383333	1	0.034375
35.400000	1	0.034875
35.416667	1	0.035500
35.433333	1	0.036625
35.450000	1	0.037500
35.466667	1	0.039125
35.483333	1	0.041375
35.500000	1	0.043375
35.516667	1	0.045875
35.533333	1	0.048500
35.550000	1	0.051625
35.566667	1	0.054500
35.583333	1	0.058125
35.600000	1	0.061375
35.616667	1	0.065125
35.633333	1	0.069125
35.650000	1	0.073625
35.666667	1	0.076875
35.683333	1	0.081500
35.700000	1	0.085375
35.716667	1	0.090000
35.733333	1	0.093625
35.750000	1	0.097375
35.766667	1	0.100875
35.783333	1	0.104500
35.800000	1	0.107875
35.816667	1	0.111250
35.833333	1	0.113875
35.850000	1	0.116750
35.866667	1	0.119625
35.883333	1	0.123000
35.900000	1	0.125250
35.916667	1	0.127375
35.933333	1	0.130000
35.950000	1	0.132000
35.966667	1	0.133750
35.983333	1	0.134750
36.000000	1	0.135625
36.016667	1	0.136750
36.033333	1	0.137750
36.050000	1	0.137875
36.066667	1	0.139125
36.083333	1	0.139250
36.100000	1	0.139625
36.116667	1	0.139625
36.133333	1	0.139875
36.150000	1	0.138750
36.166667	1	0.139125
36.183333	1	0.139125
36.200000	1	0.138625
36.216667	1	0.137500
36.233333	1	0.137000
36.250000	1	0.136125
36.266667	1	0.135750
36.283333	1	0.135625
36.300000	1	0.134625
36.316667	1	0.133875
36.333333	1	0.133375
36.350000	1	0.132625
36.366667	1	0.131750
36.383333	1	0.131250
36.400000	1	0.130125
36.416667	1	0.129250
36.433333	1	0.128000
36.450000	1	0.126875
36.466667	1	0.125625
36.483333	1	0.124750
36.500000	1	0.123375
36.516667	1	0.122125
36.533333	1	0.121250
36.550000	1	0.119000
36.566667	1	0.117500
36.583333	1	0.115000
36.600000	1	0.113000
36.616667	1	0.111000
36.633333	1	0.108625
36.650000	1	0.105375
36.666667	1	0.103125
36.683333	1	0.099875
36.700000	1	0.097000
36.716667	1	0.094000
36.733333	1	0.090375
36.750000	1	0.087000
36.766667	1	0.084125
36.783333	1	0.080750
36.800000	1	0.077000
36.816667	1	0.073625
36.833333	1	0.070375
36.850000	1	0.066625
36.866667	1	0.063250
36.883333	1	0.060250
36.900000	1	0.057750
36.916667	1	0.054625
36.933333	1	0.052500
36.950000	1	0.050250
36.966667	1	0.048625
36.983333	1	0.047500
37.000000	1	0.045375
37.016667	1	0.043875
37.033333	1	0.043000
37.050000	1	0.042875
37.066667	1	0.042500
37.083333	1	0.042875
37.100000	1	0.043250
37.116667	1	0.043125
37.133333	1	0.044500
37.150000	1	0.046125
37.166667	1	0.048125
37.183333	1	0.049750
37.200000	1	0.050750
37.216667	1	0.052500
37.233333	1	0.053750
37.250000	1	0.055250
37.266667	1	0.057000
37.283333	1	0.058375
37.300000	1	0.060125
37.316667	1	0.061500
37.333333	1	0.062625
37.350000	1	0.063750
37.366667	1	0.064625
37.383333	1	0.065375
37.400000	1	0.066500
37.416667	1	0.066250
37.433333	1	0.066375
37.450000	1	0.065250
37.466667	1	0.064375
37.483333	1	0.063125
37.500000	1	0.061375
37.516667	1	0.059875
37.533333	1	0.057875
37.550000	1	0.056125
37.566667	1	0.054125
37.583333	1	0.051750
37.600000	1	0.048250
37.616667	1	0.044750
37.633333	1	0.041750
37.650000	1	0.038875
37.666667	1	0.035250
37.683333	1	0.031875
37.700000	1	0.028250
37.716667	1	0.024875
37.733333	1	0.021375
37.750000	1	0.017750
37.766667	1	0.014000
37.783333	1	0.011125
37.800000	1	0.007875
37.816667	1	0.004500
37.833333	1	0.001500
37.850000	1	-0.000750
37.866667	1	-0.003250
37.883333	1	-0.005500
37.900000	1	-0.007875
37.916667	1	-0.009000
37.933333	1	-0.010250
37.950000	1	-0.012250
37.966667	1	-0.013000
37.983333	1	-0.014625
38.000000	1	-0.015625
38.016667	1	-0.016750
38.033333	1	-0.017625
38.050000	1	-0.018875
38.066667	1	-0.018875
38.083333	1	-0.019375
38.100000	1	-0.019500
38.116667	1	-0.019750
38.133333	1	-0.019875
38.150000	1	-0.020125
38.166667	1	-0.020875
38.183333	1	-0.021625
38.200000	1	-0.021375
38.216667	1	-0.022125
38.233333	1	-0.022375
38.250000	1	-0.022875
38.266667	1	-0.023750
38.283333	1	-0.023500
38.300000	1	-0.023250
38.316667	1	-0.023500
38.333333	1	-0.023500
38.350000	1	-0.024125
38.366667	1	-0.024250
38.383333	1	-0.024625
38.400000	1	-0.024625
38.416667	1	-0.024750
38.433333	1	-0.025125
38.450000	1	-0.024625
38.466667	1	-0.023500
38.483333	1	-0.022500
38.500000	1	-0.021375
38.516667	1	-0.020875
38.533333	1	-0.020500
38.550000	1	-0.019250
38.566667	1	-0.018750
38.583333	1	-0.017000
38.600000	1	-0.016000
38.616667	1	-0.014875
38.633333	1	-0.013250
38.650000	1	-0.011500
38.666667	1	-0.009875
38.683333	1	-0.008000
38.700000	1	-0.006000
38.716667	1	-0.003875
38.733333	1	-0.002250
38.750000	1	-0.000375
38.766667	1	0.001500
38.783333	1	0.003000
38.800000	1	0.004750
38.816667	1	0.007000
38.833333	1	0.008625
38.850000	1	0.010125
38.866667	1	0.012125
38.883333	1	0.013875
38.900000	1	0.015375
38.916667	1	0.017125
38.933333	1	0.018625
38.950000	1	0.020375
38.966667	1	0.021625
38.983333	1	0.022250
39.000000	1	0.023125
39.016667	1	0.024000
39.033333	1	0.025375
39.050000	1	0.025750
39.066667	1	0.025875
39.083333	1	0.026375
39.100000	1	0.026625
39.116667	1	0.026375
39.133333	1	0.026000
39.150000	1	0.026125
39.166667	1	0.025375
39.183333	1	0.024500
39.200000	1	0.023625
39.216667	1	0.023000
39.233333	1	0.022125
39.250000	1	0.020750
39.266667	1	0.019000
39.283333	1	0.017750
39.300000	1	0.015875
39.316667	1	0.014250
39.333333	1	0.013000
39.350000	1	0.011250
39.366667	1	0.009875
39.383333	1	0.008375
39.400000	1	0.007000
39.416667	1	0.005375
39.433333	1	0.004625
39.450000	1	0.003500
39.466667	1	0.003000
39.483333	1	0.002000
39.500000	1	0.001250
39.516667	1	0.001375
39.533333	1	0.000500
39.550000	1	-0.000125
39.566667	1	0.000250
39.583333	1	0.000500
39.600000	1	0.000250
39.616667	1	0.000250
39.633333	1	0.000250
39.650000	1	0.000625
39.666667	1	0.001250
39.683333	1	0.001125
39.700000	1	0.001500
39.716667	1	0.002125
39.733333	1	0.002500
39.750000	1	0.002250
39.766667	1	0.002375
39.783333	1	0.001875
39.800000	1	0.001500
39.816667	1	0.001125
39.833333	1	0.001000
39.850000	1	0.001375
39.866667	1	0.001625
39.883333	1	0.001875
39.900000	1	0.002000
39.916667	1	0.001750
39.933333	1	0.001375
39.950000	1	0.001000
39.966667	1	0.000125
39.983333	1	0.000000
40.000000	1	-0.000500
