URL	chrom://bioreactor/micro_cm7/HPLC_Ultimate_3000/Users/markusar/20240517_CMO_FP23_FP25_MarkusDeplate.seq/476.smp/RI_1.channel/RI_1.chm
Channel	RI_1

Injection Information:
Data Vault	micro_cm7
Sequence	20240517_CMO_FP23_FP25_MarkusDeplate
Name	FP28_22.1_s7
Number	148
Position	BB2
Comment	
Processing Method	
Instrument Method	run_25B_method
Type	Unknown
Status	Finished
Inject Time	01.06.2024 00:11:23 +02:00
Volume (µl)	20.0000
Dilution Factor	1.0000
Weight	1.0000

Chromatogram Data Information:
Time Min. (min)	0.000000
Time Max. (min)	40.000000
Data Points	2401
Detector	RI
Generating Data System	Chromeleon 7.3.2.11814
Exporting Data System	Chromeleon 7.3.2.0
Operator	Instrument Controller
Signal Quantity	Refractive 
Signal Unit	µRIU
Signal Min.	-0.992250
Signal Max.	51.321500
Channel	RI_1
Driver Name	RID520Driver.dll
Channel Type	Evaluation
Min. Step (s)	1
Max. Step (s)	1
Average Step (s)	1

Signal Parameter Information:
Signal Info	

Chromatogram Data:
Time (min)	Step (s)	Value (µRIU)
0.000000	n.a.	-0.079375
0.016667	1	-0.079000
0.033333	1	-0.077500
0.050000	1	-0.076000
0.066667	1	-0.075250
0.083333	1	-0.073250
0.100000	1	-0.071500
0.116667	1	-0.069375
0.133333	1	-0.067000
0.150000	1	-0.064875
0.166667	1	-0.063125
0.183333	1	-0.060750
0.200000	1	-0.059375
0.216667	1	-0.056750
0.233333	1	-0.054500
0.250000	1	-0.052750
0.266667	1	-0.051375
0.283333	1	-0.049500
0.300000	1	-0.047875
0.316667	1	-0.046125
0.333333	1	-0.044625
0.350000	1	-0.043500
0.366667	1	-0.042750
0.383333	1	-0.041875
0.400000	1	-0.040500
0.416667	1	-0.039500
0.433333	1	-0.038125
0.450000	1	-0.037750
0.466667	1	-0.037500
0.483333	1	-0.037750
0.500000	1	-0.038000
0.516667	1	-0.038375
0.533333	1	-0.038500
0.550000	1	-0.039500
0.566667	1	-0.040875
0.583333	1	-0.042500
0.600000	1	-0.044250
0.616667	1	-0.045625
0.633333	1	-0.047625
0.650000	1	-0.049375
0.666667	1	-0.051250
0.683333	1	-0.053250
0.700000	1	-0.055250
0.716667	1	-0.056625
0.733333	1	-0.059000
0.750000	1	-0.060625
0.766667	1	-0.062625
0.783333	1	-0.064375
0.800000	1	-0.066625
0.816667	1	-0.067625
0.833333	1	-0.069125
0.850000	1	-0.069875
0.866667	1	-0.070625
0.883333	1	-0.071125
0.900000	1	-0.071375
0.916667	1	-0.072125
0.933333	1	-0.071375
0.950000	1	-0.070750
0.966667	1	-0.070375
0.983333	1	-0.069625
1.000000	1	-0.068375
1.016667	1	-0.067125
1.033333	1	-0.065750
1.050000	1	-0.063750
1.066667	1	-0.062125
1.083333	1	-0.060125
1.100000	1	-0.057375
1.116667	1	-0.054375
1.133333	1	-0.052375
1.150000	1	-0.050125
1.166667	1	-0.047375
1.183333	1	-0.044750
1.200000	1	-0.041625
1.216667	1	-0.039000
1.233333	1	-0.037000
1.250000	1	-0.034375
1.266667	1	-0.031625
1.283333	1	-0.029125
1.300000	1	-0.026750
1.316667	1	-0.025000
1.333333	1	-0.022750
1.350000	1	-0.020625
1.366667	1	-0.019250
1.383333	1	-0.017625
1.400000	1	-0.016125
1.416667	1	-0.014875
1.433333	1	-0.013375
1.450000	1	-0.011750
1.466667	1	-0.010750
1.483333	1	-0.009250
1.500000	1	-0.007625
1.516667	1	-0.007125
1.533333	1	-0.005375
1.550000	1	-0.003500
1.566667	1	-0.002125
1.583333	1	-0.001750
1.600000	1	-0.000125
1.616667	1	0.002125
1.633333	1	0.003750
1.650000	1	0.005750
1.666667	1	0.007250
1.683333	1	0.009000
1.700000	1	0.010125
1.716667	1	0.012500
1.733333	1	0.013750
1.750000	1	0.015000
1.766667	1	0.016750
1.783333	1	0.017625
1.800000	1	0.019000
1.816667	1	0.019750
1.833333	1	0.021125
1.850000	1	0.021875
1.866667	1	0.022250
1.883333	1	0.022000
1.900000	1	0.021750
1.916667	1	0.021375
1.933333	1	0.021250
1.950000	1	0.020500
1.966667	1	0.020375
1.983333	1	0.019375
2.000000	1	0.018625
2.016667	1	0.017375
2.033333	1	0.015625
2.050000	1	0.013625
2.066667	1	0.010875
2.083333	1	0.009250
2.100000	1	0.007125
2.116667	1	0.004875
2.133333	1	0.003125
2.150000	1	0.000375
2.166667	1	-0.002500
2.183333	1	-0.004875
2.200000	1	-0.007375
2.216667	1	-0.009500
2.233333	1	-0.012000
2.250000	1	-0.013750
2.266667	1	-0.015750
2.283333	1	-0.017625
2.300000	1	-0.019750
2.316667	1	-0.021750
2.333333	1	-0.022750
2.350000	1	-0.023875
2.366667	1	-0.024875
2.383333	1	-0.025875
2.400000	1	-0.026375
2.416667	1	-0.026750
2.433333	1	-0.027250
2.450000	1	-0.028125
2.466667	1	-0.027875
2.483333	1	-0.028500
2.500000	1	-0.028750
2.516667	1	-0.029125
2.533333	1	-0.029250
2.550000	1	-0.029125
2.566667	1	-0.029125
2.583333	1	-0.029500
2.600000	1	-0.030000
2.616667	1	-0.030500
2.633333	1	-0.031375
2.650000	1	-0.032375
2.666667	1	-0.032750
2.683333	1	-0.033375
2.700000	1	-0.033000
2.716667	1	-0.033500
2.733333	1	-0.034375
2.750000	1	-0.035000
2.766667	1	-0.036000
2.783333	1	-0.037000
2.800000	1	-0.037625
2.816667	1	-0.038375
2.833333	1	-0.039500
2.850000	1	-0.041000
2.866667	1	-0.042500
2.883333	1	-0.043375
2.900000	1	-0.043875
2.916667	1	-0.044500
2.933333	1	-0.045500
2.950000	1	-0.046500
2.966667	1	-0.047250
2.983333	1	-0.048375
3.000000	1	-0.048625
3.016667	1	-0.048375
3.033333	1	-0.049000
3.050000	1	-0.049375
3.066667	1	-0.049625
3.083333	1	-0.049375
3.100000	1	-0.049125
3.116667	1	-0.049500
3.133333	1	-0.048750
3.150000	1	-0.048500
3.166667	1	-0.047250
3.183333	1	-0.046625
3.200000	1	-0.044875
3.216667	1	-0.044125
3.233333	1	-0.042750
3.250000	1	-0.041875
3.266667	1	-0.040500
3.283333	1	-0.039250
3.300000	1	-0.037000
3.316667	1	-0.035375
3.333333	1	-0.034625
3.350000	1	-0.033250
3.366667	1	-0.031250
3.383333	1	-0.030000
3.400000	1	-0.028750
3.416667	1	-0.026500
3.433333	1	-0.024250
3.450000	1	-0.022500
3.466667	1	-0.021625
3.483333	1	-0.020375
3.500000	1	-0.019500
3.516667	1	-0.018500
3.533333	1	-0.017625
3.550000	1	-0.016625
3.566667	1	-0.016125
3.583333	1	-0.015250
3.600000	1	-0.014750
3.616667	1	-0.013125
3.633333	1	-0.012375
3.650000	1	-0.011625
3.666667	1	-0.011000
3.683333	1	-0.010875
3.700000	1	-0.010500
3.716667	1	-0.010000
3.733333	1	-0.010000
3.750000	1	-0.009375
3.766667	1	-0.009125
3.783333	1	-0.008750
3.800000	1	-0.008250
3.816667	1	-0.007375
3.833333	1	-0.006875
3.850000	1	-0.006250
3.866667	1	-0.005250
3.883333	1	-0.003750
3.900000	1	-0.002875
3.916667	1	-0.001625
3.933333	1	-0.000250
3.950000	1	0.001375
3.966667	1	0.003250
3.983333	1	0.005250
4.000000	1	0.007375
4.016667	1	0.009750
4.033333	1	0.012125
4.050000	1	0.014875
4.066667	1	0.017125
4.083333	1	0.020250
4.100000	1	0.024000
4.116667	1	0.026750
4.133333	1	0.029625
4.150000	1	0.032500
4.166667	1	0.035125
4.183333	1	0.038375
4.200000	1	0.041875
4.216667	1	0.045125
4.233333	1	0.048625
4.250000	1	0.052375
4.266667	1	0.055750
4.283333	1	0.058000
4.300000	1	0.061375
4.316667	1	0.064375
4.333333	1	0.067125
4.350000	1	0.070250
4.366667	1	0.072500
4.383333	1	0.075250
4.400000	1	0.077750
4.416667	1	0.080250
4.433333	1	0.083000
4.450000	1	0.085000
4.466667	1	0.087125
4.483333	1	0.089000
4.500000	1	0.090875
4.516667	1	0.092250
4.533333	1	0.094000
4.550000	1	0.095125
4.566667	1	0.096375
4.583333	1	0.097250
4.600000	1	0.098250
4.616667	1	0.098125
4.633333	1	0.098000
4.650000	1	0.098500
4.666667	1	0.098375
4.683333	1	0.097625
4.700000	1	0.097000
4.716667	1	0.096875
4.733333	1	0.096000
4.750000	1	0.094875
4.766667	1	0.094500
4.783333	1	0.094000
4.800000	1	0.093250
4.816667	1	0.092375
4.833333	1	0.091875
4.850000	1	0.091000
4.866667	1	0.090000
4.883333	1	0.089625
4.900000	1	0.089750
4.916667	1	0.089750
4.933333	1	0.089375
4.950000	1	0.089375
4.966667	1	0.089250
4.983333	1	0.090125
5.000000	1	0.091125
5.016667	1	0.092125
5.033333	1	0.093750
5.050000	1	0.094625
5.066667	1	0.096000
5.083333	1	0.098000
5.100000	1	0.099750
5.116667	1	0.101875
5.133333	1	0.104000
5.150000	1	0.106750
5.166667	1	0.109625
5.183333	1	0.112500
5.200000	1	0.115500
5.216667	1	0.118750
5.233333	1	0.121750
5.250000	1	0.125250
5.266667	1	0.128625
5.283333	1	0.131625
5.300000	1	0.134625
5.316667	1	0.138000
5.333333	1	0.141500
5.350000	1	0.145250
5.366667	1	0.149250
5.383333	1	0.152750
5.400000	1	0.156750
5.416667	1	0.160125
5.433333	1	0.163875
5.450000	1	0.167625
5.466667	1	0.171750
5.483333	1	0.175250
5.500000	1	0.178750
5.516667	1	0.182250
5.533333	1	0.185625
5.550000	1	0.189000
5.566667	1	0.193125
5.583333	1	0.196500
5.600000	1	0.199875
5.616667	1	0.203250
5.633333	1	0.206125
5.650000	1	0.209250
5.666667	1	0.212125
5.683333	1	0.214625
5.700000	1	0.217250
5.716667	1	0.219375
5.733333	1	0.221750
5.750000	1	0.223750
5.766667	1	0.224875
5.783333	1	0.226375
5.800000	1	0.227875
5.816667	1	0.228875
5.833333	1	0.229500
5.850000	1	0.229750
5.866667	1	0.229625
5.883333	1	0.228750
5.900000	1	0.227750
5.916667	1	0.226375
5.933333	1	0.225250
5.950000	1	0.223500
5.966667	1	0.221250
5.983333	1	0.219250
6.000000	1	0.216875
6.016667	1	0.214125
6.033333	1	0.212625
6.050000	1	0.209875
6.066667	1	0.206875
6.083333	1	0.202750
6.100000	1	0.200125
6.116667	1	0.196875
6.133333	1	0.193875
6.150000	1	0.190875
6.166667	1	0.188000
6.183333	1	0.184625
6.200000	1	0.181875
6.216667	1	0.178625
6.233333	1	0.175250
6.250000	1	0.172125
6.266667	1	0.169500
6.283333	1	0.166000
6.300000	1	0.163500
6.316667	1	0.161125
6.333333	1	0.159125
6.350000	1	0.156875
6.366667	1	0.154125
6.383333	1	0.151750
6.400000	1	0.149750
6.416667	1	0.148125
6.433333	1	0.146625
6.450000	1	0.144875
6.466667	1	0.143000
6.483333	1	0.141250
6.500000	1	0.139625
6.516667	1	0.138625
6.533333	1	0.137125
6.550000	1	0.135875
6.566667	1	0.135000
6.583333	1	0.134750
6.600000	1	0.133750
6.616667	1	0.133375
6.633333	1	0.132125
6.650000	1	0.131875
6.666667	1	0.131500
6.683333	1	0.130750
6.700000	1	0.131250
6.716667	1	0.130625
6.733333	1	0.130250
6.750000	1	0.130500
6.766667	1	0.130875
6.783333	1	0.130125
6.800000	1	0.130500
6.816667	1	0.130875
6.833333	1	0.130875
6.850000	1	0.131125
6.866667	1	0.131625
6.883333	1	0.132250
6.900000	1	0.132875
6.916667	1	0.133500
6.933333	1	0.134625
6.950000	1	0.135625
6.966667	1	0.136625
6.983333	1	0.137375
7.000000	1	0.139000
7.016667	1	0.140125
7.033333	1	0.141625
7.050000	1	0.143375
7.066667	1	0.145000
7.083333	1	0.146625
7.100000	1	0.147875
7.116667	1	0.150750
7.133333	1	0.153375
7.150000	1	0.156625
7.166667	1	0.158875
7.183333	1	0.161625
7.200000	1	0.164250
7.216667	1	0.167125
7.233333	1	0.169875
7.250000	1	0.172375
7.266667	1	0.174750
7.283333	1	0.177500
7.300000	1	0.180250
7.316667	1	0.182750
7.333333	1	0.185000
7.350000	1	0.187125
7.366667	1	0.188875
7.383333	1	0.190750
7.400000	1	0.191875
7.416667	1	0.192875
7.433333	1	0.193750
7.450000	1	0.194500
7.466667	1	0.195000
7.483333	1	0.194875
7.500000	1	0.194875
7.516667	1	0.194500
7.533333	1	0.194250
7.550000	1	0.193625
7.566667	1	0.193000
7.583333	1	0.191625
7.600000	1	0.190375
7.616667	1	0.188250
7.633333	1	0.185750
7.650000	1	0.183125
7.666667	1	0.180500
7.683333	1	0.178250
7.700000	1	0.175250
7.716667	1	0.171500
7.733333	1	0.167500
7.750000	1	0.164625
7.766667	1	0.161000
7.783333	1	0.157375
7.800000	1	0.153625
7.816667	1	0.149750
7.833333	1	0.145000
7.850000	1	0.140500
7.866667	1	0.136000
7.883333	1	0.132000
7.900000	1	0.127625
7.916667	1	0.123375
7.933333	1	0.119875
7.950000	1	0.115500
7.966667	1	0.112000
7.983333	1	0.108125
8.000000	1	0.105125
8.016667	1	0.101500
8.033333	1	0.097500
8.050000	1	0.094000
8.066667	1	0.091125
8.083333	1	0.087375
8.100000	1	0.084125
8.116667	1	0.081375
8.133333	1	0.078875
8.150000	1	0.076500
8.166667	1	0.074250
8.183333	1	0.072000
8.200000	1	0.070250
8.216667	1	0.067625
8.233333	1	0.066125
8.250000	1	0.064500
8.266667	1	0.062750
8.283333	1	0.061000
8.300000	1	0.060125
8.316667	1	0.058375
8.333333	1	0.057500
8.350000	1	0.057000
8.366667	1	0.056375
8.383333	1	0.055500
8.400000	1	0.054250
8.416667	1	0.053750
8.433333	1	0.052375
8.450000	1	0.052250
8.466667	1	0.051500
8.483333	1	0.050000
8.500000	1	0.048750
8.516667	1	0.047500
8.533333	1	0.046250
8.550000	1	0.044750
8.566667	1	0.043875
8.583333	1	0.042750
8.600000	1	0.041750
8.616667	1	0.040750
8.633333	1	0.039375
8.650000	1	0.038250
8.666667	1	0.037000
8.683333	1	0.035000
8.700000	1	0.033750
8.716667	1	0.033000
8.733333	1	0.031875
8.750000	1	0.031250
8.766667	1	0.029500
8.783333	1	0.028750
8.800000	1	0.027750
8.816667	1	0.026625
8.833333	1	0.025375
8.850000	1	0.024375
8.866667	1	0.023750
8.883333	1	0.023000
8.900000	1	0.023000
8.916667	1	0.022875
8.933333	1	0.022000
8.950000	1	0.021375
8.966667	1	0.021625
8.983333	1	0.021250
9.000000	1	0.021625
9.016667	1	0.021250
9.033333	1	0.021500
9.050000	1	0.021375
9.066667	1	0.021875
9.083333	1	0.022250
9.100000	1	0.023000
9.116667	1	0.022875
9.133333	1	0.023375
9.150000	1	0.023875
9.166667	1	0.024375
9.183333	1	0.025125
9.200000	1	0.026000
9.216667	1	0.026750
9.233333	1	0.027125
9.250000	1	0.027750
9.266667	1	0.027375
9.283333	1	0.028375
9.300000	1	0.029750
9.316667	1	0.030750
9.333333	1	0.031750
9.350000	1	0.032625
9.366667	1	0.032875
9.383333	1	0.034250
9.400000	1	0.034375
9.416667	1	0.035000
9.433333	1	0.035750
9.450000	1	0.036625
9.466667	1	0.037000
9.483333	1	0.037375
9.500000	1	0.038375
9.516667	1	0.038875
9.533333	1	0.039250
9.550000	1	0.039375
9.566667	1	0.040250
9.583333	1	0.041000
9.600000	1	0.042500
9.616667	1	0.043250
9.633333	1	0.044125
9.650000	1	0.044625
9.666667	1	0.046375
9.683333	1	0.047125
9.700000	1	0.048375
9.716667	1	0.050375
9.733333	1	0.052000
9.750000	1	0.053625
9.766667	1	0.055500
9.783333	1	0.057125
9.800000	1	0.059750
9.816667	1	0.062000
9.833333	1	0.064625
9.850000	1	0.067250
9.866667	1	0.068875
9.883333	1	0.071500
9.900000	1	0.074125
9.916667	1	0.076375
9.933333	1	0.079125
9.950000	1	0.081875
9.966667	1	0.084000
9.983333	1	0.085625
10.000000	1	0.087375
10.016667	1	0.088750
10.033333	1	0.090500
10.050000	1	0.092500
10.066667	1	0.094000
10.083333	1	0.095750
10.100000	1	0.097375
10.116667	1	0.100000
10.133333	1	0.102625
10.150000	1	0.106125
10.166667	1	0.111125
10.183333	1	0.116625
10.200000	1	0.122625
10.216667	1	0.130125
10.233333	1	0.140375
10.250000	1	0.152500
10.266667	1	0.167375
10.283333	1	0.184750
10.300000	1	0.205375
10.316667	1	0.228625
10.333333	1	0.254000
10.350000	1	0.280000
10.366667	1	0.306750
10.383333	1	0.329875
10.400000	1	0.350625
10.416667	1	0.365500
10.433333	1	0.375875
10.450000	1	0.383375
10.466667	1	0.394500
10.483333	1	0.420750
10.500000	1	0.483000
10.516667	1	0.610125
10.533333	1	0.843625
10.550000	1	1.236375
10.566667	1	1.849250
10.583333	1	2.745625
10.600000	1	3.985875
10.616667	1	5.623375
10.633333	1	7.694500
10.650000	1	10.217375
10.666667	1	13.195000
10.683333	1	16.615000
10.700000	1	20.444500
10.716667	1	24.626000
10.733333	1	29.075625
10.750000	1	33.671750
10.766667	1	38.244500
10.783333	1	42.568000
10.800000	1	46.359000
10.816667	1	49.288875
10.833333	1	51.027750
10.850000	1	51.321500
10.866667	1	50.062250
10.883333	1	47.340750
10.900000	1	43.441000
10.916667	1	38.780125
10.933333	1	33.807250
10.950000	1	28.908500
10.966667	1	24.354625
10.983333	1	20.305250
11.000000	1	16.819875
11.016667	1	13.892375
11.033333	1	11.483500
11.050000	1	9.531500
11.066667	1	7.968125
11.083333	1	6.726000
11.100000	1	5.744500
11.116667	1	4.967750
11.133333	1	4.351000
11.150000	1	3.856625
11.166667	1	3.455875
11.183333	1	3.127875
11.200000	1	2.856625
11.216667	1	2.628750
11.233333	1	2.437125
11.250000	1	2.272625
11.266667	1	2.130500
11.283333	1	2.007375
11.300000	1	1.899000
11.316667	1	1.804125
11.333333	1	1.720125
11.350000	1	1.646375
11.366667	1	1.580625
11.383333	1	1.523250
11.400000	1	1.471125
11.416667	1	1.425375
11.433333	1	1.385625
11.450000	1	1.350375
11.466667	1	1.318500
11.483333	1	1.289875
11.500000	1	1.265250
11.516667	1	1.242875
11.533333	1	1.222500
11.550000	1	1.204875
11.566667	1	1.189500
11.583333	1	1.175750
11.600000	1	1.163000
11.616667	1	1.152125
11.633333	1	1.143750
11.650000	1	1.136625
11.666667	1	1.131625
11.683333	1	1.126875
11.700000	1	1.124500
11.716667	1	1.123000
11.733333	1	1.124375
11.750000	1	1.126750
11.766667	1	1.130375
11.783333	1	1.135625
11.800000	1	1.141375
11.816667	1	1.148250
11.833333	1	1.156375
11.850000	1	1.164000
11.866667	1	1.172625
11.883333	1	1.181750
11.900000	1	1.189875
11.916667	1	1.198250
11.933333	1	1.205875
11.950000	1	1.213625
11.966667	1	1.221250
11.983333	1	1.228875
12.000000	1	1.236500
12.016667	1	1.243750
12.033333	1	1.251250
12.050000	1	1.258750
12.066667	1	1.266750
12.083333	1	1.274125
12.100000	1	1.281250
12.116667	1	1.288125
12.133333	1	1.296125
12.150000	1	1.303500
12.166667	1	1.310875
12.183333	1	1.318750
12.200000	1	1.327125
12.216667	1	1.336375
12.233333	1	1.346375
12.250000	1	1.358500
12.266667	1	1.373250
12.283333	1	1.390375
12.300000	1	1.411375
12.316667	1	1.438125
12.333333	1	1.470375
12.350000	1	1.510000
12.366667	1	1.559750
12.383333	1	1.620750
12.400000	1	1.696750
12.416667	1	1.789875
12.433333	1	1.906375
12.450000	1	2.049500
12.466667	1	2.225250
12.483333	1	2.437125
12.500000	1	2.690875
12.516667	1	2.987875
12.533333	1	3.328500
12.550000	1	3.708375
12.566667	1	4.122250
12.583333	1	4.559750
12.600000	1	5.007375
12.616667	1	5.448500
12.633333	1	5.865625
12.650000	1	6.241750
12.666667	1	6.561125
12.683333	1	6.809500
12.700000	1	6.976250
12.716667	1	7.059625
12.733333	1	7.059375
12.750000	1	6.982250
12.766667	1	6.837500
12.783333	1	6.636125
12.800000	1	6.391750
12.816667	1	6.117750
12.833333	1	5.824875
12.850000	1	5.523875
12.866667	1	5.223000
12.883333	1	4.928375
12.900000	1	4.645375
12.916667	1	4.379625
12.933333	1	4.133375
12.950000	1	3.907750
12.966667	1	3.703875
12.983333	1	3.522250
13.000000	1	3.360875
13.016667	1	3.218375
13.033333	1	3.093000
13.050000	1	2.982250
13.066667	1	2.885375
13.083333	1	2.799875
13.100000	1	2.723375
13.116667	1	2.655000
13.133333	1	2.593875
13.150000	1	2.537250
13.166667	1	2.485875
13.183333	1	2.438500
13.200000	1	2.394250
13.216667	1	2.352375
13.233333	1	2.312500
13.250000	1	2.274125
13.266667	1	2.237375
13.283333	1	2.201625
13.300000	1	2.167125
13.316667	1	2.133875
13.333333	1	2.102000
13.350000	1	2.071875
13.366667	1	2.043000
13.383333	1	2.016625
13.400000	1	1.991625
13.416667	1	1.969250
13.433333	1	1.949125
13.450000	1	1.932375
13.466667	1	1.917375
13.483333	1	1.906500
13.500000	1	1.897875
13.516667	1	1.891250
13.533333	1	1.886625
13.550000	1	1.883625
13.566667	1	1.882500
13.583333	1	1.880500
13.600000	1	1.879375
13.616667	1	1.876125
13.633333	1	1.871125
13.650000	1	1.863875
13.666667	1	1.853375
13.683333	1	1.839375
13.700000	1	1.823000
13.716667	1	1.803375
13.733333	1	1.781625
13.750000	1	1.758000
13.766667	1	1.734000
13.783333	1	1.708875
13.800000	1	1.684375
13.816667	1	1.660875
13.833333	1	1.637375
13.850000	1	1.615500
13.866667	1	1.595750
13.883333	1	1.576125
13.900000	1	1.558500
13.916667	1	1.541625
13.933333	1	1.526250
13.950000	1	1.512500
13.966667	1	1.499500
13.983333	1	1.487125
14.000000	1	1.476125
14.016667	1	1.466250
14.033333	1	1.456750
14.050000	1	1.448500
14.066667	1	1.440375
14.083333	1	1.433000
14.100000	1	1.426000
14.116667	1	1.420250
14.133333	1	1.414625
14.150000	1	1.410125
14.166667	1	1.405750
14.183333	1	1.402500
14.200000	1	1.401875
14.216667	1	1.400875
14.233333	1	1.402750
14.250000	1	1.405875
14.266667	1	1.411250
14.283333	1	1.419250
14.300000	1	1.430500
14.316667	1	1.445875
14.333333	1	1.464125
14.350000	1	1.485375
14.366667	1	1.511375
14.383333	1	1.542625
14.400000	1	1.580250
14.416667	1	1.626375
14.433333	1	1.684125
14.450000	1	1.757125
14.466667	1	1.852375
14.483333	1	1.978000
14.500000	1	2.145000
14.516667	1	2.369250
14.533333	1	2.669375
14.550000	1	3.071125
14.566667	1	3.605250
14.583333	1	4.303625
14.600000	1	5.206125
14.616667	1	6.353125
14.633333	1	7.787625
14.650000	1	9.547750
14.666667	1	11.661875
14.683333	1	14.142000
14.700000	1	16.980375
14.716667	1	20.141750
14.733333	1	23.565125
14.750000	1	27.164125
14.766667	1	30.822125
14.783333	1	34.400625
14.800000	1	37.751125
14.816667	1	40.728875
14.833333	1	43.193875
14.850000	1	45.029250
14.866667	1	46.145625
14.883333	1	46.494625
14.900000	1	46.069750
14.916667	1	44.909125
14.933333	1	43.091750
14.950000	1	40.725500
14.966667	1	37.938125
14.983333	1	34.868500
15.000000	1	31.646125
15.016667	1	28.389750
15.033333	1	25.200875
15.050000	1	22.161125
15.066667	1	19.332375
15.083333	1	16.753500
15.100000	1	14.444500
15.116667	1	12.409000
15.133333	1	10.639500
15.150000	1	9.117125
15.166667	1	7.821250
15.183333	1	6.726750
15.200000	1	5.808750
15.216667	1	5.043000
15.233333	1	4.408125
15.250000	1	3.884000
15.266667	1	3.455500
15.283333	1	3.107125
15.300000	1	2.827000
15.316667	1	2.604625
15.333333	1	2.431000
15.350000	1	2.298125
15.366667	1	2.200125
15.383333	1	2.129500
15.400000	1	2.081500
15.416667	1	2.051375
15.433333	1	2.033125
15.450000	1	2.024375
15.466667	1	2.019875
15.483333	1	2.016125
15.500000	1	2.010375
15.516667	1	2.000750
15.533333	1	1.985125
15.550000	1	1.963250
15.566667	1	1.934500
15.583333	1	1.900375
15.600000	1	1.861125
15.616667	1	1.818375
15.633333	1	1.772750
15.650000	1	1.725875
15.666667	1	1.678750
15.683333	1	1.633875
15.700000	1	1.590875
15.716667	1	1.549625
15.733333	1	1.511500
15.750000	1	1.475250
15.766667	1	1.441750
15.783333	1	1.410125
15.800000	1	1.381000
15.816667	1	1.353500
15.833333	1	1.327625
15.850000	1	1.303750
15.866667	1	1.281125
15.883333	1	1.260625
15.900000	1	1.242125
15.916667	1	1.224750
15.933333	1	1.209625
15.950000	1	1.196750
15.966667	1	1.186500
15.983333	1	1.178500
16.000000	1	1.172000
16.016667	1	1.167375
16.033333	1	1.164625
16.050000	1	1.163375
16.066667	1	1.163250
16.083333	1	1.164375
16.100000	1	1.165750
16.116667	1	1.168125
16.133333	1	1.170750
16.150000	1	1.173250
16.166667	1	1.175250
16.183333	1	1.177375
16.200000	1	1.178625
16.216667	1	1.178875
16.233333	1	1.178000
16.250000	1	1.176750
16.266667	1	1.175750
16.283333	1	1.173125
16.300000	1	1.170000
16.316667	1	1.166375
16.333333	1	1.163250
16.350000	1	1.159750
16.366667	1	1.157375
16.383333	1	1.155375
16.400000	1	1.155250
16.416667	1	1.155125
16.433333	1	1.156375
16.450000	1	1.158750
16.466667	1	1.162375
16.483333	1	1.166000
16.500000	1	1.170625
16.516667	1	1.174625
16.533333	1	1.179000
16.550000	1	1.182375
16.566667	1	1.184875
16.583333	1	1.186625
16.600000	1	1.187375
16.616667	1	1.186875
16.633333	1	1.185625
16.650000	1	1.182375
16.666667	1	1.179250
16.683333	1	1.176250
16.700000	1	1.173250
16.716667	1	1.171000
16.733333	1	1.169625
16.750000	1	1.170625
16.766667	1	1.172750
16.783333	1	1.175875
16.800000	1	1.180250
16.816667	1	1.186500
16.833333	1	1.192125
16.850000	1	1.199375
16.866667	1	1.206750
16.883333	1	1.213750
16.900000	1	1.219125
16.916667	1	1.224000
16.933333	1	1.226625
16.950000	1	1.228250
16.966667	1	1.228500
16.983333	1	1.227750
17.000000	1	1.226000
17.016667	1	1.223500
17.033333	1	1.219625
17.050000	1	1.216000
17.066667	1	1.211750
17.083333	1	1.208125
17.100000	1	1.205000
17.116667	1	1.202125
17.133333	1	1.200375
17.150000	1	1.199875
17.166667	1	1.200125
17.183333	1	1.200375
17.200000	1	1.201875
17.216667	1	1.204125
17.233333	1	1.208000
17.250000	1	1.211875
17.266667	1	1.217000
17.283333	1	1.222125
17.300000	1	1.228250
17.316667	1	1.234500
17.333333	1	1.240375
17.350000	1	1.247000
17.366667	1	1.253125
17.383333	1	1.258625
17.400000	1	1.263500
17.416667	1	1.268125
17.433333	1	1.270625
17.450000	1	1.272000
17.466667	1	1.271250
17.483333	1	1.269625
17.500000	1	1.266125
17.516667	1	1.260625
17.533333	1	1.253750
17.550000	1	1.245250
17.566667	1	1.234000
17.583333	1	1.221750
17.600000	1	1.208500
17.616667	1	1.193625
17.633333	1	1.178250
17.650000	1	1.161375
17.666667	1	1.144750
17.683333	1	1.128500
17.700000	1	1.112250
17.716667	1	1.096125
17.733333	1	1.081250
17.750000	1	1.067750
17.766667	1	1.054875
17.783333	1	1.042375
17.800000	1	1.031500
17.816667	1	1.021375
17.833333	1	1.012000
17.850000	1	1.003375
17.866667	1	0.996375
17.883333	1	0.989625
17.900000	1	0.983500
17.916667	1	0.977750
17.933333	1	0.972500
17.950000	1	0.967125
17.966667	1	0.962375
17.983333	1	0.957125
18.000000	1	0.952250
18.016667	1	0.947875
18.033333	1	0.942625
18.050000	1	0.937875
18.066667	1	0.933125
18.083333	1	0.928750
18.100000	1	0.924125
18.116667	1	0.920125
18.133333	1	0.917750
18.150000	1	0.915125
18.166667	1	0.912500
18.183333	1	0.911375
18.200000	1	0.910250
18.216667	1	0.910375
18.233333	1	0.910500
18.250000	1	0.910750
18.266667	1	0.912125
18.283333	1	0.913375
18.300000	1	0.914875
18.316667	1	0.917375
18.333333	1	0.919250
18.350000	1	0.922375
18.366667	1	0.926125
18.383333	1	0.930250
18.400000	1	0.934500
18.416667	1	0.939500
18.433333	1	0.946750
18.450000	1	0.955250
18.466667	1	0.964625
18.483333	1	0.975625
18.500000	1	0.989000
18.516667	1	1.003250
18.533333	1	1.019500
18.550000	1	1.037750
18.566667	1	1.057750
18.583333	1	1.079375
18.600000	1	1.103125
18.616667	1	1.128125
18.633333	1	1.154500
18.650000	1	1.181875
18.666667	1	1.211000
18.683333	1	1.239750
18.700000	1	1.270000
18.716667	1	1.300500
18.733333	1	1.332125
18.750000	1	1.362500
18.766667	1	1.392875
18.783333	1	1.422625
18.800000	1	1.451250
18.816667	1	1.477250
18.833333	1	1.501000
18.850000	1	1.520875
18.866667	1	1.537625
18.883333	1	1.549625
18.900000	1	1.556500
18.916667	1	1.558875
18.933333	1	1.555625
18.950000	1	1.546125
18.966667	1	1.530250
18.983333	1	1.508250
19.000000	1	1.480500
19.016667	1	1.448500
19.033333	1	1.411000
19.050000	1	1.369625
19.066667	1	1.325500
19.083333	1	1.279625
19.100000	1	1.231625
19.116667	1	1.184000
19.133333	1	1.136625
19.150000	1	1.091750
19.166667	1	1.049625
19.183333	1	1.011125
19.200000	1	0.975875
19.216667	1	0.945625
19.233333	1	0.920750
19.250000	1	0.901125
19.266667	1	0.887375
19.283333	1	0.879000
19.300000	1	0.877250
19.316667	1	0.880500
19.333333	1	0.890000
19.350000	1	0.904875
19.366667	1	0.924750
19.383333	1	0.948875
19.400000	1	0.977250
19.416667	1	1.008375
19.433333	1	1.040000
19.450000	1	1.073000
19.466667	1	1.106500
19.483333	1	1.138875
19.500000	1	1.169875
19.516667	1	1.197625
19.533333	1	1.221875
19.550000	1	1.242250
19.566667	1	1.257875
19.583333	1	1.268125
19.600000	1	1.272750
19.616667	1	1.273125
19.633333	1	1.267875
19.650000	1	1.258000
19.666667	1	1.243875
19.683333	1	1.226500
19.700000	1	1.205000
19.716667	1	1.180000
19.733333	1	1.152750
19.750000	1	1.123500
19.766667	1	1.092375
19.783333	1	1.059875
19.800000	1	1.027875
19.816667	1	0.996000
19.833333	1	0.964500
19.850000	1	0.933750
19.866667	1	0.904625
19.883333	1	0.877250
19.900000	1	0.852500
19.916667	1	0.830375
19.933333	1	0.811625
19.950000	1	0.796125
19.966667	1	0.783750
19.983333	1	0.775750
20.000000	1	0.772000
20.016667	1	0.773375
20.033333	1	0.780125
20.050000	1	0.792000
20.066667	1	0.810250
20.083333	1	0.833250
20.100000	1	0.862500
20.116667	1	0.896625
20.133333	1	0.936250
20.150000	1	0.979375
20.166667	1	1.026250
20.183333	1	1.076250
20.200000	1	1.127125
20.216667	1	1.177750
20.233333	1	1.226625
20.250000	1	1.271750
20.266667	1	1.312375
20.283333	1	1.346250
20.300000	1	1.372625
20.316667	1	1.391500
20.333333	1	1.400750
20.350000	1	1.399875
20.366667	1	1.389750
20.383333	1	1.370750
20.400000	1	1.344375
20.416667	1	1.311000
20.433333	1	1.272250
20.450000	1	1.229250
20.466667	1	1.183750
20.483333	1	1.138125
20.500000	1	1.094875
20.516667	1	1.053875
20.533333	1	1.017125
20.550000	1	0.985750
20.566667	1	0.961125
20.583333	1	0.944000
20.600000	1	0.935875
20.616667	1	0.936750
20.633333	1	0.947375
20.650000	1	0.967125
20.666667	1	0.996875
20.683333	1	1.035750
20.700000	1	1.083750
20.716667	1	1.138500
20.733333	1	1.200125
20.750000	1	1.266625
20.766667	1	1.336000
20.783333	1	1.406625
20.800000	1	1.476750
20.816667	1	1.542375
20.833333	1	1.601875
20.850000	1	1.653125
20.866667	1	1.695125
20.883333	1	1.725625
20.900000	1	1.743750
20.916667	1	1.748375
20.933333	1	1.739500
20.950000	1	1.718875
20.966667	1	1.685375
20.983333	1	1.641625
21.000000	1	1.586500
21.016667	1	1.524500
21.033333	1	1.456875
21.050000	1	1.386250
21.066667	1	1.313125
21.083333	1	1.239125
21.100000	1	1.166375
21.116667	1	1.096500
21.133333	1	1.029125
21.150000	1	0.965750
21.166667	1	0.907250
21.183333	1	0.853875
21.200000	1	0.805750
21.216667	1	0.761500
21.233333	1	0.722000
21.250000	1	0.687375
21.266667	1	0.656375
21.283333	1	0.628500
21.300000	1	0.604625
21.316667	1	0.583500
21.333333	1	0.565125
21.350000	1	0.549250
21.366667	1	0.535625
21.383333	1	0.523875
21.400000	1	0.514250
21.416667	1	0.505500
21.433333	1	0.498875
21.450000	1	0.493500
21.466667	1	0.489500
21.483333	1	0.486750
21.500000	1	0.485750
21.516667	1	0.486250
21.533333	1	0.489250
21.550000	1	0.493375
21.566667	1	0.499750
21.583333	1	0.508375
21.600000	1	0.519125
21.616667	1	0.533125
21.633333	1	0.550000
21.650000	1	0.570375
21.666667	1	0.593250
21.683333	1	0.619500
21.700000	1	0.649750
21.716667	1	0.683500
21.733333	1	0.720125
21.750000	1	0.759625
21.766667	1	0.802125
21.783333	1	0.847000
21.800000	1	0.893875
21.816667	1	0.941500
21.833333	1	0.989750
21.850000	1	1.037500
21.866667	1	1.083750
21.883333	1	1.126875
21.900000	1	1.167375
21.916667	1	1.204125
21.933333	1	1.235625
21.950000	1	1.261375
21.966667	1	1.281250
21.983333	1	1.294500
22.000000	1	1.302625
22.016667	1	1.302875
22.033333	1	1.296500
22.050000	1	1.285500
22.066667	1	1.267875
22.083333	1	1.245875
22.100000	1	1.219500
22.116667	1	1.190000
22.133333	1	1.156750
22.150000	1	1.122125
22.166667	1	1.085250
22.183333	1	1.047500
22.200000	1	1.009625
22.216667	1	0.971875
22.233333	1	0.934375
22.250000	1	0.897625
22.266667	1	0.861875
22.283333	1	0.827500
22.300000	1	0.794625
22.316667	1	0.764375
22.333333	1	0.734750
22.350000	1	0.706750
22.366667	1	0.680500
22.383333	1	0.656625
22.400000	1	0.634500
22.416667	1	0.614375
22.433333	1	0.595500
22.450000	1	0.579000
22.466667	1	0.564500
22.483333	1	0.551750
22.500000	1	0.540625
22.516667	1	0.530250
22.533333	1	0.521875
22.550000	1	0.514500
22.566667	1	0.507625
22.583333	1	0.501750
22.600000	1	0.496750
22.616667	1	0.491500
22.633333	1	0.486750
22.650000	1	0.481000
22.666667	1	0.475625
22.683333	1	0.469875
22.700000	1	0.463500
22.716667	1	0.457375
22.733333	1	0.450000
22.750000	1	0.442375
22.766667	1	0.434875
22.783333	1	0.426625
22.800000	1	0.418375
22.816667	1	0.409000
22.833333	1	0.400250
22.850000	1	0.391375
22.866667	1	0.382625
22.883333	1	0.374250
22.900000	1	0.365875
22.916667	1	0.358000
22.933333	1	0.350875
22.950000	1	0.344375
22.966667	1	0.338625
22.983333	1	0.333500
23.000000	1	0.328875
23.016667	1	0.325250
23.033333	1	0.322625
23.050000	1	0.320125
23.066667	1	0.319375
23.083333	1	0.319250
23.100000	1	0.319250
23.116667	1	0.320750
23.133333	1	0.322875
23.150000	1	0.325750
23.166667	1	0.328750
23.183333	1	0.333125
23.200000	1	0.338250
23.216667	1	0.344625
23.233333	1	0.351500
23.250000	1	0.360250
23.266667	1	0.369625
23.283333	1	0.381000
23.300000	1	0.395125
23.316667	1	0.412000
23.333333	1	0.431375
23.350000	1	0.454500
23.366667	1	0.483250
23.383333	1	0.516500
23.400000	1	0.557375
23.416667	1	0.605625
23.433333	1	0.662625
23.450000	1	0.730000
23.466667	1	0.808875
23.483333	1	0.900625
23.500000	1	1.006250
23.516667	1	1.128375
23.533333	1	1.267250
23.550000	1	1.424750
23.566667	1	1.599875
23.583333	1	1.794125
23.600000	1	2.006000
23.616667	1	2.234500
23.633333	1	2.478750
23.650000	1	2.735250
23.666667	1	3.002250
23.683333	1	3.275875
23.700000	1	3.552250
23.716667	1	3.826750
23.733333	1	4.093875
23.750000	1	4.348750
23.766667	1	4.584875
23.783333	1	4.798000
23.800000	1	4.982875
23.816667	1	5.136000
23.833333	1	5.253750
23.850000	1	5.334000
23.866667	1	5.374625
23.883333	1	5.375375
23.900000	1	5.337000
23.916667	1	5.260500
23.933333	1	5.150000
23.950000	1	5.006750
23.966667	1	4.836250
23.983333	1	4.641875
24.000000	1	4.428375
24.016667	1	4.201750
24.033333	1	3.965000
24.050000	1	3.723125
24.066667	1	3.479875
24.083333	1	3.238500
24.100000	1	3.002500
24.116667	1	2.773625
24.133333	1	2.555625
24.150000	1	2.348125
24.166667	1	2.153750
24.183333	1	1.972375
24.200000	1	1.804375
24.216667	1	1.648875
24.233333	1	1.506625
24.250000	1	1.377375
24.266667	1	1.260375
24.283333	1	1.154250
24.300000	1	1.059250
24.316667	1	0.973750
24.333333	1	0.897375
24.350000	1	0.829750
24.366667	1	0.768875
24.383333	1	0.716000
24.400000	1	0.669875
24.416667	1	0.629500
24.433333	1	0.594750
24.450000	1	0.565125
24.466667	1	0.539750
24.483333	1	0.518000
24.500000	1	0.499750
24.516667	1	0.485125
24.533333	1	0.472250
24.550000	1	0.461375
24.566667	1	0.451750
24.583333	1	0.443250
24.600000	1	0.436500
24.616667	1	0.430250
24.633333	1	0.425500
24.650000	1	0.419750
24.666667	1	0.414375
24.683333	1	0.409375
24.700000	1	0.404625
24.716667	1	0.399875
24.733333	1	0.394875
24.750000	1	0.389250
24.766667	1	0.383125
24.783333	1	0.377375
24.800000	1	0.372250
24.816667	1	0.366125
24.833333	1	0.360000
24.850000	1	0.354875
24.866667	1	0.349625
24.883333	1	0.344875
24.900000	1	0.340125
24.916667	1	0.335625
24.933333	1	0.331250
24.950000	1	0.326500
24.966667	1	0.322625
24.983333	1	0.319000
25.000000	1	0.315875
25.016667	1	0.313500
25.033333	1	0.310875
25.050000	1	0.309250
25.066667	1	0.307250
25.083333	1	0.305875
25.100000	1	0.304000
25.116667	1	0.302875
25.133333	1	0.302000
25.150000	1	0.301750
25.166667	1	0.300625
25.183333	1	0.299625
25.200000	1	0.299375
25.216667	1	0.298875
25.233333	1	0.298250
25.250000	1	0.298250
25.266667	1	0.298125
25.283333	1	0.298375
25.300000	1	0.298625
25.316667	1	0.299375
25.333333	1	0.300125
25.350000	1	0.300250
25.366667	1	0.301000
25.383333	1	0.301875
25.400000	1	0.303250
25.416667	1	0.303750
25.433333	1	0.305125
25.450000	1	0.306250
25.466667	1	0.308000
25.483333	1	0.310500
25.500000	1	0.312750
25.516667	1	0.314000
25.533333	1	0.315500
25.550000	1	0.317125
25.566667	1	0.318875
25.583333	1	0.320250
25.600000	1	0.323000
25.616667	1	0.324750
25.633333	1	0.326000
25.650000	1	0.327125
25.666667	1	0.328000
25.683333	1	0.329375
25.700000	1	0.330000
25.716667	1	0.330250
25.733333	1	0.329875
25.750000	1	0.330000
25.766667	1	0.329250
25.783333	1	0.328125
25.800000	1	0.327000
25.816667	1	0.326000
25.833333	1	0.324625
25.850000	1	0.323500
25.866667	1	0.322125
25.883333	1	0.320500
25.900000	1	0.319125
25.916667	1	0.317750
25.933333	1	0.317250
25.950000	1	0.316250
25.966667	1	0.316000
25.983333	1	0.316125
26.000000	1	0.316250
26.016667	1	0.316375
26.033333	1	0.317750
26.050000	1	0.318875
26.066667	1	0.320375
26.083333	1	0.321750
26.100000	1	0.324375
26.116667	1	0.326750
26.133333	1	0.330375
26.150000	1	0.333500
26.166667	1	0.336750
26.183333	1	0.340625
26.200000	1	0.344500
26.216667	1	0.348000
26.233333	1	0.351875
26.250000	1	0.356000
26.266667	1	0.360250
26.283333	1	0.364125
26.300000	1	0.367250
26.316667	1	0.369875
26.333333	1	0.372000
26.350000	1	0.374375
26.366667	1	0.376000
26.383333	1	0.377125
26.400000	1	0.377000
26.416667	1	0.375750
26.433333	1	0.374750
26.450000	1	0.373750
26.466667	1	0.371125
26.483333	1	0.368375
26.500000	1	0.365125
26.516667	1	0.360875
26.533333	1	0.355500
26.550000	1	0.350000
26.566667	1	0.343875
26.583333	1	0.338000
26.600000	1	0.331625
26.616667	1	0.325125
26.633333	1	0.318125
26.650000	1	0.311375
26.666667	1	0.304375
26.683333	1	0.297500
26.700000	1	0.290250
26.716667	1	0.283250
26.733333	1	0.276500
26.750000	1	0.270125
26.766667	1	0.263875
26.783333	1	0.258500
26.800000	1	0.252875
26.816667	1	0.248500
26.833333	1	0.244125
26.850000	1	0.239625
26.866667	1	0.235875
26.883333	1	0.232250
26.900000	1	0.229625
26.916667	1	0.227000
26.933333	1	0.225500
26.950000	1	0.224500
26.966667	1	0.223500
26.983333	1	0.222875
27.000000	1	0.222625
27.016667	1	0.223000
27.033333	1	0.223125
27.050000	1	0.224000
27.066667	1	0.226000
27.083333	1	0.228875
27.100000	1	0.232250
27.116667	1	0.236125
27.133333	1	0.241750
27.150000	1	0.248250
27.166667	1	0.256125
27.183333	1	0.264625
27.200000	1	0.274000
27.216667	1	0.285500
27.233333	1	0.299125
27.250000	1	0.316000
27.266667	1	0.334500
27.283333	1	0.356250
27.300000	1	0.381000
27.316667	1	0.409250
27.333333	1	0.441500
27.350000	1	0.478875
27.366667	1	0.521750
27.383333	1	0.569750
27.400000	1	0.623500
27.416667	1	0.685000
27.433333	1	0.754125
27.450000	1	0.832125
27.466667	1	0.918375
27.483333	1	1.013750
27.500000	1	1.118625
27.516667	1	1.234125
27.533333	1	1.359625
27.550000	1	1.494375
27.566667	1	1.638875
27.583333	1	1.792375
27.600000	1	1.954250
27.616667	1	2.123750
27.633333	1	2.299375
27.650000	1	2.479000
27.666667	1	2.662750
27.683333	1	2.847500
27.700000	1	3.030750
27.716667	1	3.211250
27.733333	1	3.384750
27.750000	1	3.550250
27.766667	1	3.705125
27.783333	1	3.845000
27.800000	1	3.969125
27.816667	1	4.075750
27.833333	1	4.161750
27.850000	1	4.226625
27.866667	1	4.268500
27.883333	1	4.286500
27.900000	1	4.280375
27.916667	1	4.250500
27.933333	1	4.197250
27.950000	1	4.121625
27.966667	1	4.024750
27.983333	1	3.908625
28.000000	1	3.776000
28.016667	1	3.627875
28.033333	1	3.466875
28.050000	1	3.296625
28.066667	1	3.118625
28.083333	1	2.936000
28.100000	1	2.751875
28.116667	1	2.568250
28.133333	1	2.387625
28.150000	1	2.211500
28.166667	1	2.041750
28.183333	1	1.879375
28.200000	1	1.725375
28.216667	1	1.580500
28.233333	1	1.445625
28.250000	1	1.320875
28.266667	1	1.205625
28.283333	1	1.100125
28.300000	1	1.005125
28.316667	1	0.918875
28.333333	1	0.841750
28.350000	1	0.772875
28.366667	1	0.711625
28.383333	1	0.658750
28.400000	1	0.612500
28.416667	1	0.572000
28.433333	1	0.537500
28.450000	1	0.508375
28.466667	1	0.484125
28.483333	1	0.464625
28.500000	1	0.448875
28.516667	1	0.437000
28.533333	1	0.428125
28.550000	1	0.422625
28.566667	1	0.419375
28.583333	1	0.418500
28.600000	1	0.419750
28.616667	1	0.422750
28.633333	1	0.427750
28.650000	1	0.434625
28.666667	1	0.442500
28.683333	1	0.450750
28.700000	1	0.459625
28.716667	1	0.469875
28.733333	1	0.479625
28.750000	1	0.489500
28.766667	1	0.499625
28.783333	1	0.509250
28.800000	1	0.518125
28.816667	1	0.527500
28.833333	1	0.536000
28.850000	1	0.544125
28.866667	1	0.551000
28.883333	1	0.556000
28.900000	1	0.560750
28.916667	1	0.563625
28.933333	1	0.565375
28.950000	1	0.565625
28.966667	1	0.564625
28.983333	1	0.561625
29.000000	1	0.557250
29.016667	1	0.550875
29.033333	1	0.542500
29.050000	1	0.532375
29.066667	1	0.520750
29.083333	1	0.507125
29.100000	1	0.491625
29.116667	1	0.474250
29.133333	1	0.455500
29.150000	1	0.434375
29.166667	1	0.410625
29.183333	1	0.384875
29.200000	1	0.357625
29.216667	1	0.327375
29.233333	1	0.296250
29.250000	1	0.263125
29.266667	1	0.227750
29.283333	1	0.190250
29.300000	1	0.150500
29.316667	1	0.108750
29.333333	1	0.064625
29.350000	1	0.019500
29.366667	1	-0.027250
29.383333	1	-0.075500
29.400000	1	-0.126125
29.416667	1	-0.177375
29.433333	1	-0.229750
29.450000	1	-0.282875
29.466667	1	-0.336500
29.483333	1	-0.390500
29.500000	1	-0.444500
29.516667	1	-0.496625
29.533333	1	-0.549000
29.550000	1	-0.600000
29.566667	1	-0.649250
29.583333	1	-0.696500
29.600000	1	-0.740750
29.616667	1	-0.782875
29.633333	1	-0.821625
29.650000	1	-0.857250
29.666667	1	-0.889500
29.683333	1	-0.917750
29.700000	1	-0.941250
29.716667	1	-0.960625
29.733333	1	-0.975375
29.750000	1	-0.985875
29.766667	1	-0.991500
29.783333	1	-0.992250
29.800000	1	-0.988750
29.816667	1	-0.980500
29.833333	1	-0.968500
29.850000	1	-0.952125
29.866667	1	-0.932625
29.883333	1	-0.910000
29.900000	1	-0.884250
29.916667	1	-0.855375
29.933333	1	-0.824375
29.950000	1	-0.790875
29.966667	1	-0.756500
29.983333	1	-0.720125
30.000000	1	-0.682500
30.016667	1	-0.644875
30.033333	1	-0.607375
30.050000	1	-0.569625
30.066667	1	-0.532250
30.083333	1	-0.495750
30.100000	1	-0.460375
30.116667	1	-0.425625
30.133333	1	-0.391500
30.150000	1	-0.359000
30.166667	1	-0.327875
30.183333	1	-0.298125
30.200000	1	-0.270500
30.216667	1	-0.243750
30.233333	1	-0.218125
30.250000	1	-0.194750
30.266667	1	-0.172500
30.283333	1	-0.151500
30.300000	1	-0.131750
30.316667	1	-0.114375
30.333333	1	-0.097750
30.350000	1	-0.082125
30.366667	1	-0.067625
30.383333	1	-0.055000
30.400000	1	-0.042375
30.416667	1	-0.030500
30.433333	1	-0.019625
30.450000	1	-0.009375
30.466667	1	0.000625
30.483333	1	0.009875
30.500000	1	0.018625
30.516667	1	0.027625
30.533333	1	0.035000
30.550000	1	0.043125
30.566667	1	0.051000
30.583333	1	0.058875
30.600000	1	0.066375
30.616667	1	0.074375
30.633333	1	0.082000
30.650000	1	0.090500
30.666667	1	0.099125
30.683333	1	0.106875
30.700000	1	0.115500
30.716667	1	0.124250
30.733333	1	0.133250
30.750000	1	0.142750
30.766667	1	0.152125
30.783333	1	0.161625
30.800000	1	0.171625
30.816667	1	0.182625
30.833333	1	0.193875
30.850000	1	0.205625
30.866667	1	0.217875
30.883333	1	0.230875
30.900000	1	0.244250
30.916667	1	0.258250
30.933333	1	0.273250
30.950000	1	0.289000
30.966667	1	0.306625
30.983333	1	0.324875
31.000000	1	0.344875
31.016667	1	0.366500
31.033333	1	0.391375
31.050000	1	0.416625
31.066667	1	0.445000
31.083333	1	0.476000
31.100000	1	0.510250
31.116667	1	0.547625
31.133333	1	0.588250
31.150000	1	0.633125
31.166667	1	0.682625
31.183333	1	0.736250
31.200000	1	0.794125
31.216667	1	0.856000
31.233333	1	0.923750
31.250000	1	0.995625
31.266667	1	1.071625
31.283333	1	1.152625
31.300000	1	1.238125
31.316667	1	1.326250
31.333333	1	1.418125
31.350000	1	1.512625
31.366667	1	1.608875
31.383333	1	1.706750
31.400000	1	1.804875
31.416667	1	1.902250
31.433333	1	1.998000
31.450000	1	2.090750
31.466667	1	2.179250
31.483333	1	2.261875
31.500000	1	2.339000
31.516667	1	2.409000
31.533333	1	2.470500
31.550000	1	2.524000
31.566667	1	2.567625
31.583333	1	2.601375
31.600000	1	2.624625
31.616667	1	2.636750
31.633333	1	2.637125
31.650000	1	2.626875
31.666667	1	2.605375
31.683333	1	2.572750
31.700000	1	2.531875
31.716667	1	2.481250
31.733333	1	2.421875
31.750000	1	2.354000
31.766667	1	2.280000
31.783333	1	2.199625
31.800000	1	2.114625
31.816667	1	2.025250
31.833333	1	1.932875
31.850000	1	1.838000
31.866667	1	1.742375
31.883333	1	1.646500
31.900000	1	1.551500
31.916667	1	1.457875
31.933333	1	1.365500
31.950000	1	1.276000
31.966667	1	1.188625
31.983333	1	1.105000
32.000000	1	1.024375
32.016667	1	0.947125
32.033333	1	0.873375
32.050000	1	0.804000
32.066667	1	0.738000
32.083333	1	0.676000
32.100000	1	0.618000
32.116667	1	0.563875
32.133333	1	0.513000
32.150000	1	0.465250
32.166667	1	0.420875
32.183333	1	0.379625
32.200000	1	0.340750
32.216667	1	0.304500
32.233333	1	0.271500
32.250000	1	0.240750
32.266667	1	0.212375
32.283333	1	0.186000
32.300000	1	0.161125
32.316667	1	0.138625
32.333333	1	0.117750
32.350000	1	0.098125
32.366667	1	0.080125
32.383333	1	0.062500
32.400000	1	0.047750
32.416667	1	0.033000
32.433333	1	0.020125
32.450000	1	0.007875
32.466667	1	-0.002875
32.483333	1	-0.012250
32.500000	1	-0.021125
32.516667	1	-0.029500
32.533333	1	-0.037125
32.550000	1	-0.043750
32.566667	1	-0.049875
32.583333	1	-0.055500
32.600000	1	-0.060250
32.616667	1	-0.064750
32.633333	1	-0.068625
32.650000	1	-0.071500
32.666667	1	-0.074875
32.683333	1	-0.077625
32.700000	1	-0.080125
32.716667	1	-0.081750
32.733333	1	-0.082500
32.750000	1	-0.083375
32.766667	1	-0.084625
32.783333	1	-0.084875
32.800000	1	-0.085625
32.816667	1	-0.086000
32.833333	1	-0.086250
32.850000	1	-0.086250
32.866667	1	-0.086000
32.883333	1	-0.085375
32.900000	1	-0.085000
32.916667	1	-0.084500
32.933333	1	-0.082875
32.950000	1	-0.081500
32.966667	1	-0.079125
32.983333	1	-0.077375
33.000000	1	-0.075500
33.016667	1	-0.073250
33.033333	1	-0.071125
33.050000	1	-0.069250
33.066667	1	-0.066500
33.083333	1	-0.063375
33.100000	1	-0.060625
33.116667	1	-0.058250
33.133333	1	-0.056125
33.150000	1	-0.053000
33.166667	1	-0.050000
33.183333	1	-0.046750
33.200000	1	-0.043375
33.216667	1	-0.040250
33.233333	1	-0.037250
33.250000	1	-0.035000
33.266667	1	-0.032125
33.283333	1	-0.029500
33.300000	1	-0.026750
33.316667	1	-0.024500
33.333333	1	-0.022375
33.350000	1	-0.020125
33.366667	1	-0.017875
33.383333	1	-0.016125
33.400000	1	-0.014000
33.416667	1	-0.011500
33.433333	1	-0.009750
33.450000	1	-0.007125
33.466667	1	-0.005750
33.483333	1	-0.003125
33.500000	1	-0.001000
33.516667	1	0.001500
33.533333	1	0.003375
33.550000	1	0.005125
33.566667	1	0.007000
33.583333	1	0.009375
33.600000	1	0.012000
33.616667	1	0.014375
33.633333	1	0.016750
33.650000	1	0.019375
33.666667	1	0.021625
33.683333	1	0.023500
33.700000	1	0.026000
33.716667	1	0.028125
33.733333	1	0.030875
33.750000	1	0.032250
33.766667	1	0.034375
33.783333	1	0.036875
33.800000	1	0.039375
33.816667	1	0.041375
33.833333	1	0.043375
33.850000	1	0.046500
33.866667	1	0.048625
33.883333	1	0.050250
33.900000	1	0.052125
33.916667	1	0.053500
33.933333	1	0.054875
33.950000	1	0.056625
33.966667	1	0.058375
33.983333	1	0.059750
34.000000	1	0.060750
34.016667	1	0.062000
34.033333	1	0.062625
34.050000	1	0.063750
34.066667	1	0.064000
34.083333	1	0.064875
34.100000	1	0.064750
34.116667	1	0.065250
34.133333	1	0.065250
34.150000	1	0.064750
34.166667	1	0.064250
34.183333	1	0.064000
34.200000	1	0.063250
34.216667	1	0.063000
34.233333	1	0.062375
34.250000	1	0.062125
34.266667	1	0.061375
34.283333	1	0.060875
34.300000	1	0.060125
34.316667	1	0.059750
34.333333	1	0.058875
34.350000	1	0.059250
34.366667	1	0.058750
34.383333	1	0.058250
34.400000	1	0.058375
34.416667	1	0.057750
34.433333	1	0.057125
34.450000	1	0.056875
34.466667	1	0.057000
34.483333	1	0.056875
34.500000	1	0.056500
34.516667	1	0.056000
34.533333	1	0.056250
34.550000	1	0.055625
34.566667	1	0.055125
34.583333	1	0.054875
34.600000	1	0.054500
34.616667	1	0.054375
34.633333	1	0.053625
34.650000	1	0.052750
34.666667	1	0.052000
34.683333	1	0.051000
34.700000	1	0.049875
34.716667	1	0.048750
34.733333	1	0.047250
34.750000	1	0.046500
34.766667	1	0.045250
34.783333	1	0.043625
34.800000	1	0.042250
34.816667	1	0.041000
34.833333	1	0.038875
34.850000	1	0.037875
34.866667	1	0.036000
34.883333	1	0.034875
34.900000	1	0.034000
34.916667	1	0.032250
34.933333	1	0.031125
34.950000	1	0.030125
34.966667	1	0.029250
34.983333	1	0.028500
35.000000	1	0.027375
35.016667	1	0.026375
35.033333	1	0.025875
35.050000	1	0.025000
35.066667	1	0.024750
35.083333	1	0.024375
35.100000	1	0.025000
35.116667	1	0.024625
35.133333	1	0.025750
35.150000	1	0.025875
35.166667	1	0.026625
35.183333	1	0.027375
35.200000	1	0.027125
35.216667	1	0.027750
35.233333	1	0.029000
35.250000	1	0.030375
35.266667	1	0.031125
35.283333	1	0.032625
35.300000	1	0.034250
35.316667	1	0.035625
35.333333	1	0.036875
35.350000	1	0.039250
35.366667	1	0.040625
35.383333	1	0.042250
35.400000	1	0.044250
35.416667	1	0.046375
35.433333	1	0.048125
35.450000	1	0.050500
35.466667	1	0.052500
35.483333	1	0.055375
35.500000	1	0.057625
35.516667	1	0.060000
35.533333	1	0.062250
35.550000	1	0.064750
35.566667	1	0.067875
35.583333	1	0.070250
35.600000	1	0.072375
35.616667	1	0.075375
35.633333	1	0.077625
35.650000	1	0.079000
35.666667	1	0.081125
35.683333	1	0.082875
35.700000	1	0.085125
35.716667	1	0.086375
35.733333	1	0.088125
35.750000	1	0.088875
35.766667	1	0.089500
35.783333	1	0.090375
35.800000	1	0.090625
35.816667	1	0.090375
35.833333	1	0.089750
35.850000	1	0.088250
35.866667	1	0.087750
35.883333	1	0.087000
35.900000	1	0.085250
35.916667	1	0.083750
35.933333	1	0.082250
35.950000	1	0.080250
35.966667	1	0.077875
35.983333	1	0.075000
36.000000	1	0.072625
36.016667	1	0.070125
36.033333	1	0.067250
36.050000	1	0.064125
36.066667	1	0.060625
36.083333	1	0.057125
36.100000	1	0.053500
36.116667	1	0.050500
36.133333	1	0.048000
36.150000	1	0.044500
36.166667	1	0.041500
36.183333	1	0.038625
36.200000	1	0.036125
36.216667	1	0.033625
36.233333	1	0.030500
36.250000	1	0.028625
36.266667	1	0.025625
36.283333	1	0.023750
36.300000	1	0.021500
36.316667	1	0.020125
36.333333	1	0.018375
36.350000	1	0.017500
36.366667	1	0.016375
36.383333	1	0.016125
36.400000	1	0.015375
36.416667	1	0.014875
36.433333	1	0.013500
36.450000	1	0.012625
36.466667	1	0.012375
36.483333	1	0.011500
36.500000	1	0.011625
36.516667	1	0.011250
36.533333	1	0.010875
36.550000	1	0.010375
36.566667	1	0.009625
36.583333	1	0.009500
36.600000	1	0.009375
36.616667	1	0.008500
36.633333	1	0.007625
36.650000	1	0.007250
36.666667	1	0.006750
36.683333	1	0.006250
36.700000	1	0.005250
36.716667	1	0.004625
36.733333	1	0.003750
36.750000	1	0.002500
36.766667	1	0.001750
36.783333	1	0.000250
36.800000	1	-0.000750
36.816667	1	-0.002000
36.833333	1	-0.003000
36.850000	1	-0.003625
36.866667	1	-0.004750
36.883333	1	-0.006125
36.900000	1	-0.007500
36.916667	1	-0.008750
36.933333	1	-0.009125
36.950000	1	-0.009875
36.966667	1	-0.010875
36.983333	1	-0.011625
37.000000	1	-0.012375
37.016667	1	-0.013375
37.033333	1	-0.013875
37.050000	1	-0.014750
37.066667	1	-0.015125
37.083333	1	-0.015250
37.100000	1	-0.015125
37.116667	1	-0.014625
37.133333	1	-0.015000
37.150000	1	-0.015250
37.166667	1	-0.015250
37.183333	1	-0.014625
37.200000	1	-0.014125
37.216667	1	-0.014250
37.233333	1	-0.013625
37.250000	1	-0.013250
37.266667	1	-0.012625
37.283333	1	-0.011875
37.300000	1	-0.010625
37.316667	1	-0.009125
37.333333	1	-0.008125
37.350000	1	-0.007625
37.366667	1	-0.006375
37.383333	1	-0.005375
37.400000	1	-0.005000
37.416667	1	-0.004125
37.433333	1	-0.002625
37.450000	1	-0.001375
37.466667	1	-0.000500
37.483333	1	-0.000125
37.500000	1	0.000125
37.516667	1	0.000500
37.533333	1	0.001000
37.550000	1	0.001125
37.566667	1	0.001000
37.583333	1	0.000750
37.600000	1	0.001000
37.616667	1	0.000625
37.633333	1	0.000250
37.650000	1	-0.000500
37.666667	1	-0.000750
37.683333	1	-0.001375
37.700000	1	-0.001125
37.716667	1	-0.000750
37.733333	1	-0.001750
37.750000	1	-0.002875
37.766667	1	-0.003875
37.783333	1	-0.004875
37.800000	1	-0.005625
37.816667	1	-0.006375
37.833333	1	-0.006875
37.850000	1	-0.007125
37.866667	1	-0.007500
37.883333	1	-0.007875
37.900000	1	-0.009125
37.916667	1	-0.009500
37.933333	1	-0.009625
37.950000	1	-0.009875
37.966667	1	-0.010000
37.983333	1	-0.010625
38.000000	1	-0.010250
38.016667	1	-0.011250
38.033333	1	-0.011875
38.050000	1	-0.013250
38.066667	1	-0.014000
38.083333	1	-0.015250
38.100000	1	-0.015375
38.116667	1	-0.016375
38.133333	1	-0.017125
38.150000	1	-0.017625
38.166667	1	-0.018375
38.183333	1	-0.018750
38.200000	1	-0.018500
38.216667	1	-0.019250
38.233333	1	-0.019500
38.250000	1	-0.020000
38.266667	1	-0.020125
38.283333	1	-0.019750
38.300000	1	-0.020125
38.316667	1	-0.020500
38.333333	1	-0.020625
38.350000	1	-0.020000
38.366667	1	-0.019750
38.383333	1	-0.019875
38.400000	1	-0.019875
38.416667	1	-0.019375
38.433333	1	-0.019000
38.450000	1	-0.018250
38.466667	1	-0.017500
38.483333	1	-0.017375
38.500000	1	-0.016125
38.516667	1	-0.015750
38.533333	1	-0.015000
38.550000	1	-0.014625
38.566667	1	-0.013750
38.583333	1	-0.013500
38.600000	1	-0.013000
38.616667	1	-0.012625
38.633333	1	-0.012250
38.650000	1	-0.011750
38.666667	1	-0.011500
38.683333	1	-0.010750
38.700000	1	-0.010125
38.716667	1	-0.009750
38.733333	1	-0.009000
38.750000	1	-0.008625
38.766667	1	-0.007875
38.783333	1	-0.007625
38.800000	1	-0.007500
38.816667	1	-0.007250
38.833333	1	-0.006750
38.850000	1	-0.006500
38.866667	1	-0.005750
38.883333	1	-0.005375
38.900000	1	-0.005000
38.916667	1	-0.004500
38.933333	1	-0.003875
38.950000	1	-0.003125
38.966667	1	-0.002750
38.983333	1	-0.002250
39.000000	1	-0.001625
39.016667	1	-0.001375
39.033333	1	-0.000875
39.050000	1	-0.000625
39.066667	1	-0.000250
39.083333	1	0.000125
39.100000	1	0.000500
39.116667	1	0.000750
39.133333	1	0.000625
39.150000	1	0.000125
39.166667	1	0.000000
39.183333	1	-0.000500
39.200000	1	-0.001250
39.216667	1	-0.001875
39.233333	1	-0.002750
39.250000	1	-0.004000
39.266667	1	-0.005000
39.283333	1	-0.007125
39.300000	1	-0.008125
39.316667	1	-0.010375
39.333333	1	-0.012375
39.350000	1	-0.014500
39.366667	1	-0.016500
39.383333	1	-0.018625
39.400000	1	-0.021625
39.416667	1	-0.023875
39.433333	1	-0.026000
39.450000	1	-0.028125
39.466667	1	-0.030125
39.483333	1	-0.032250
39.500000	1	-0.034000
39.516667	1	-0.036000
39.533333	1	-0.037625
39.550000	1	-0.039500
39.566667	1	-0.040750
39.583333	1	-0.042250
39.600000	1	-0.043375
39.616667	1	-0.044250
39.633333	1	-0.044750
39.650000	1	-0.045000
39.666667	1	-0.045125
39.683333	1	-0.045250
39.700000	1	-0.045500
39.716667	1	-0.045375
39.733333	1	-0.045250
39.750000	1	-0.045000
39.766667	1	-0.044625
39.783333	1	-0.044375
39.800000	1	-0.043875
39.816667	1	-0.043125
39.833333	1	-0.042500
39.850000	1	-0.041875
39.866667	1	-0.041125
39.883333	1	-0.040375
39.900000	1	-0.039875
39.916667	1	-0.039250
39.933333	1	-0.039125
39.950000	1	-0.039125
39.966667	1	-0.039375
39.983333	1	-0.039500
40.000000	1	-0.039875
