URL	chrom://bioreactor/micro_cm7/HPLC_Ultimate_3000/Users/markusar/20240517_CMO_FP23_FP25_MarkusDeplate.seq/638.smp/RI_1.channel/RI_1.chm
Channel	RI_1

Injection Information:
Data Vault	micro_cm7
Sequence	20240517_CMO_FP23_FP25_MarkusDeplate
Name	FP28_22.3_s2
Number	146
Position	BA12
Comment	
Processing Method	
Instrument Method	run_25B_method
Type	Unknown
Status	Finished
Inject Time	31.05.2024 22:49:26 +02:00
Volume (µl)	20.0000
Dilution Factor	1.0000
Weight	1.0000

Chromatogram Data Information:
Time Min. (min)	0.000000
Time Max. (min)	40.000000
Data Points	2401
Detector	RI
Generating Data System	Chromeleon 7.3.2.11814
Exporting Data System	Chromeleon 7.3.2.0
Operator	Instrument Controller
Signal Quantity	Refractive 
Signal Unit	µRIU
Signal Min.	-1.041375
Signal Max.	62.752875
Channel	RI_1
Driver Name	RID520Driver.dll
Channel Type	Evaluation
Min. Step (s)	1
Max. Step (s)	1
Average Step (s)	1

Signal Parameter Information:
Signal Info	

Chromatogram Data:
Time (min)	Step (s)	Value (µRIU)
0.000000	n.a.	0.011625
0.016667	1	0.011375
0.033333	1	0.010125
0.050000	1	0.009625
0.066667	1	0.008625
0.083333	1	0.008000
0.100000	1	0.006750
0.116667	1	0.005375
0.133333	1	0.004500
0.150000	1	0.003375
0.166667	1	0.001125
0.183333	1	-0.001125
0.200000	1	-0.003000
0.216667	1	-0.004875
0.233333	1	-0.006750
0.250000	1	-0.008250
0.266667	1	-0.010375
0.283333	1	-0.012750
0.300000	1	-0.014875
0.316667	1	-0.016875
0.333333	1	-0.019125
0.350000	1	-0.020875
0.366667	1	-0.023375
0.383333	1	-0.025875
0.400000	1	-0.028125
0.416667	1	-0.030000
0.433333	1	-0.032000
0.450000	1	-0.033375
0.466667	1	-0.034250
0.483333	1	-0.035625
0.500000	1	-0.036625
0.516667	1	-0.038250
0.533333	1	-0.040000
0.550000	1	-0.040625
0.566667	1	-0.041375
0.583333	1	-0.042375
0.600000	1	-0.043125
0.616667	1	-0.043750
0.633333	1	-0.043625
0.650000	1	-0.043875
0.666667	1	-0.043250
0.683333	1	-0.042875
0.700000	1	-0.043000
0.716667	1	-0.042750
0.733333	1	-0.042625
0.750000	1	-0.041875
0.766667	1	-0.040875
0.783333	1	-0.040750
0.800000	1	-0.039625
0.816667	1	-0.038000
0.833333	1	-0.036875
0.850000	1	-0.034750
0.866667	1	-0.033625
0.883333	1	-0.031875
0.900000	1	-0.030000
0.916667	1	-0.028375
0.933333	1	-0.026250
0.950000	1	-0.024000
0.966667	1	-0.022375
0.983333	1	-0.020500
1.000000	1	-0.018500
1.016667	1	-0.016125
1.033333	1	-0.013750
1.050000	1	-0.011875
1.066667	1	-0.010125
1.083333	1	-0.007625
1.100000	1	-0.005500
1.116667	1	-0.003375
1.133333	1	-0.002250
1.150000	1	-0.001250
1.166667	1	0.001000
1.183333	1	0.002375
1.200000	1	0.004375
1.216667	1	0.004750
1.233333	1	0.006250
1.250000	1	0.007625
1.266667	1	0.008500
1.283333	1	0.009500
1.300000	1	0.010500
1.316667	1	0.011375
1.333333	1	0.012125
1.350000	1	0.013125
1.366667	1	0.013375
1.383333	1	0.013875
1.400000	1	0.013750
1.416667	1	0.014125
1.433333	1	0.014875
1.450000	1	0.015750
1.466667	1	0.017000
1.483333	1	0.018125
1.500000	1	0.019125
1.516667	1	0.020625
1.533333	1	0.021250
1.550000	1	0.022375
1.566667	1	0.023500
1.583333	1	0.024750
1.600000	1	0.026125
1.616667	1	0.028375
1.633333	1	0.029500
1.650000	1	0.031375
1.666667	1	0.033125
1.683333	1	0.035375
1.700000	1	0.036625
1.716667	1	0.037500
1.733333	1	0.039500
1.750000	1	0.040750
1.766667	1	0.041625
1.783333	1	0.042500
1.800000	1	0.044000
1.816667	1	0.044500
1.833333	1	0.045750
1.850000	1	0.046500
1.866667	1	0.047125
1.883333	1	0.047250
1.900000	1	0.047500
1.916667	1	0.047875
1.933333	1	0.048000
1.950000	1	0.048250
1.966667	1	0.048750
1.983333	1	0.048500
2.000000	1	0.048375
2.016667	1	0.049000
2.033333	1	0.049375
2.050000	1	0.049750
2.066667	1	0.049875
2.083333	1	0.049875
2.100000	1	0.050625
2.116667	1	0.050625
2.133333	1	0.051000
2.150000	1	0.051750
2.166667	1	0.053000
2.183333	1	0.053375
2.200000	1	0.054250
2.216667	1	0.055000
2.233333	1	0.056125
2.250000	1	0.056750
2.266667	1	0.057250
2.283333	1	0.058875
2.300000	1	0.059625
2.316667	1	0.060375
2.333333	1	0.061375
2.350000	1	0.062500
2.366667	1	0.062500
2.383333	1	0.063500
2.400000	1	0.064500
2.416667	1	0.065250
2.433333	1	0.066000
2.450000	1	0.067250
2.466667	1	0.067500
2.483333	1	0.068125
2.500000	1	0.067750
2.516667	1	0.067625
2.533333	1	0.067375
2.550000	1	0.066750
2.566667	1	0.066500
2.583333	1	0.065875
2.600000	1	0.065625
2.616667	1	0.064875
2.633333	1	0.064500
2.650000	1	0.064000
2.666667	1	0.063125
2.683333	1	0.062375
2.700000	1	0.062250
2.716667	1	0.061375
2.733333	1	0.060750
2.750000	1	0.059625
2.766667	1	0.059750
2.783333	1	0.059625
2.800000	1	0.058625
2.816667	1	0.058500
2.833333	1	0.058500
2.850000	1	0.059125
2.866667	1	0.059375
2.883333	1	0.059875
2.900000	1	0.059875
2.916667	1	0.059875
2.933333	1	0.060000
2.950000	1	0.060750
2.966667	1	0.060250
2.983333	1	0.061000
3.000000	1	0.061750
3.016667	1	0.062000
3.033333	1	0.062000
3.050000	1	0.062000
3.066667	1	0.062000
3.083333	1	0.062125
3.100000	1	0.062250
3.116667	1	0.061375
3.133333	1	0.060875
3.150000	1	0.060375
3.166667	1	0.060125
3.183333	1	0.059625
3.200000	1	0.059125
3.216667	1	0.058750
3.233333	1	0.058250
3.250000	1	0.057750
3.266667	1	0.057625
3.283333	1	0.056500
3.300000	1	0.056125
3.316667	1	0.056000
3.333333	1	0.055875
3.350000	1	0.055500
3.366667	1	0.055500
3.383333	1	0.055000
3.400000	1	0.054750
3.416667	1	0.054375
3.433333	1	0.054250
3.450000	1	0.053250
3.466667	1	0.052750
3.483333	1	0.052375
3.500000	1	0.052125
3.516667	1	0.051625
3.533333	1	0.051000
3.550000	1	0.051625
3.566667	1	0.051500
3.583333	1	0.051875
3.600000	1	0.052000
3.616667	1	0.052750
3.633333	1	0.053375
3.650000	1	0.054250
3.666667	1	0.054250
3.683333	1	0.054875
3.700000	1	0.055250
3.716667	1	0.056125
3.733333	1	0.057250
3.750000	1	0.058125
3.766667	1	0.059000
3.783333	1	0.059750
3.800000	1	0.060625
3.816667	1	0.061875
3.833333	1	0.063000
3.850000	1	0.064250
3.866667	1	0.065250
3.883333	1	0.067375
3.900000	1	0.069500
3.916667	1	0.071750
3.933333	1	0.073625
3.950000	1	0.075750
3.966667	1	0.077750
3.983333	1	0.079875
4.000000	1	0.082250
4.016667	1	0.084750
4.033333	1	0.087750
4.050000	1	0.090375
4.066667	1	0.091875
4.083333	1	0.094000
4.100000	1	0.097000
4.116667	1	0.099125
4.133333	1	0.101000
4.150000	1	0.102375
4.166667	1	0.104000
4.183333	1	0.104750
4.200000	1	0.106875
4.216667	1	0.107375
4.233333	1	0.108625
4.250000	1	0.109375
4.266667	1	0.108625
4.283333	1	0.107875
4.300000	1	0.107500
4.316667	1	0.107000
4.333333	1	0.106250
4.350000	1	0.104500
4.366667	1	0.103500
4.383333	1	0.101625
4.400000	1	0.100250
4.416667	1	0.098875
4.433333	1	0.096750
4.450000	1	0.094500
4.466667	1	0.092125
4.483333	1	0.090750
4.500000	1	0.088750
4.516667	1	0.087250
4.533333	1	0.085375
4.550000	1	0.084250
4.566667	1	0.083250
4.583333	1	0.082875
4.600000	1	0.082375
4.616667	1	0.082250
4.633333	1	0.082250
4.650000	1	0.081875
4.666667	1	0.082125
4.683333	1	0.083250
4.700000	1	0.084625
4.716667	1	0.085625
4.733333	1	0.087000
4.750000	1	0.088750
4.766667	1	0.090875
4.783333	1	0.093000
4.800000	1	0.095375
4.816667	1	0.097500
4.833333	1	0.100750
4.850000	1	0.103250
4.866667	1	0.105500
4.883333	1	0.108000
4.900000	1	0.110375
4.916667	1	0.113125
4.933333	1	0.115500
4.950000	1	0.118125
4.966667	1	0.121375
4.983333	1	0.124500
5.000000	1	0.127875
5.016667	1	0.131250
5.033333	1	0.133750
5.050000	1	0.136500
5.066667	1	0.139875
5.083333	1	0.143125
5.100000	1	0.146000
5.116667	1	0.148875
5.133333	1	0.152000
5.150000	1	0.155000
5.166667	1	0.158375
5.183333	1	0.162375
5.200000	1	0.165875
5.216667	1	0.169500
5.233333	1	0.173500
5.250000	1	0.177625
5.266667	1	0.181875
5.283333	1	0.186375
5.300000	1	0.190125
5.316667	1	0.194250
5.333333	1	0.198625
5.350000	1	0.203375
5.366667	1	0.207750
5.383333	1	0.212250
5.400000	1	0.216625
5.416667	1	0.220500
5.433333	1	0.224250
5.450000	1	0.228000
5.466667	1	0.232500
5.483333	1	0.237000
5.500000	1	0.241250
5.516667	1	0.244875
5.533333	1	0.247875
5.550000	1	0.251750
5.566667	1	0.254500
5.583333	1	0.258000
5.600000	1	0.261250
5.616667	1	0.264000
5.633333	1	0.266250
5.650000	1	0.268875
5.666667	1	0.271250
5.683333	1	0.273750
5.700000	1	0.275250
5.716667	1	0.277000
5.733333	1	0.278125
5.750000	1	0.279750
5.766667	1	0.280125
5.783333	1	0.280375
5.800000	1	0.281250
5.816667	1	0.281375
5.833333	1	0.281375
5.850000	1	0.281125
5.866667	1	0.280000
5.883333	1	0.279250
5.900000	1	0.277875
5.916667	1	0.276875
5.933333	1	0.275125
5.950000	1	0.273250
5.966667	1	0.271500
5.983333	1	0.269500
6.000000	1	0.267375
6.016667	1	0.265000
6.033333	1	0.262625
6.050000	1	0.259375
6.066667	1	0.256500
6.083333	1	0.254125
6.100000	1	0.250750
6.116667	1	0.247625
6.133333	1	0.244000
6.150000	1	0.240000
6.166667	1	0.236500
6.183333	1	0.232125
6.200000	1	0.228750
6.216667	1	0.225000
6.233333	1	0.221375
6.250000	1	0.217500
6.266667	1	0.213625
6.283333	1	0.209500
6.300000	1	0.206000
6.316667	1	0.202875
6.333333	1	0.200000
6.350000	1	0.196750
6.366667	1	0.193250
6.383333	1	0.189500
6.400000	1	0.186750
6.416667	1	0.183625
6.433333	1	0.180750
6.450000	1	0.178000
6.466667	1	0.175500
6.483333	1	0.173375
6.500000	1	0.170250
6.516667	1	0.167750
6.533333	1	0.165125
6.550000	1	0.162625
6.566667	1	0.160000
6.583333	1	0.158375
6.600000	1	0.155875
6.616667	1	0.153625
6.633333	1	0.151125
6.650000	1	0.148250
6.666667	1	0.145375
6.683333	1	0.142375
6.700000	1	0.139625
6.716667	1	0.136750
6.733333	1	0.134000
6.750000	1	0.131250
6.766667	1	0.127750
6.783333	1	0.124625
6.800000	1	0.122000
6.816667	1	0.121250
6.833333	1	0.119125
6.850000	1	0.113625
6.866667	1	0.109375
6.883333	1	0.105375
6.900000	1	0.101875
6.916667	1	0.097750
6.933333	1	0.094875
6.950000	1	0.091625
6.966667	1	0.089000
6.983333	1	0.086625
7.000000	1	0.084625
7.016667	1	0.083125
7.033333	1	0.081375
7.050000	1	0.079125
7.066667	1	0.078000
7.083333	1	0.077375
7.100000	1	0.076125
7.116667	1	0.075750
7.133333	1	0.076250
7.150000	1	0.077375
7.166667	1	0.078125
7.183333	1	0.080375
7.200000	1	0.082000
7.216667	1	0.085250
7.233333	1	0.088250
7.250000	1	0.091625
7.266667	1	0.094500
7.283333	1	0.098625
7.300000	1	0.103250
7.316667	1	0.108375
7.333333	1	0.113625
7.350000	1	0.119625
7.366667	1	0.125500
7.383333	1	0.131750
7.400000	1	0.137750
7.416667	1	0.144250
7.433333	1	0.151125
7.450000	1	0.158250
7.466667	1	0.165000
7.483333	1	0.171125
7.500000	1	0.177375
7.516667	1	0.184000
7.533333	1	0.190250
7.550000	1	0.196375
7.566667	1	0.202625
7.583333	1	0.207875
7.600000	1	0.212625
7.616667	1	0.217250
7.633333	1	0.221375
7.650000	1	0.224250
7.666667	1	0.227750
7.683333	1	0.230500
7.700000	1	0.233500
7.716667	1	0.235625
7.733333	1	0.237125
7.750000	1	0.238250
7.766667	1	0.238750
7.783333	1	0.238750
7.800000	1	0.238375
7.816667	1	0.237500
7.833333	1	0.236250
7.850000	1	0.234750
7.866667	1	0.232625
7.883333	1	0.230625
7.900000	1	0.227875
7.916667	1	0.224750
7.933333	1	0.220875
7.950000	1	0.217625
7.966667	1	0.213500
7.983333	1	0.209125
8.000000	1	0.204875
8.016667	1	0.199875
8.033333	1	0.195000
8.050000	1	0.189500
8.066667	1	0.184375
8.083333	1	0.179250
8.100000	1	0.173625
8.116667	1	0.167500
8.133333	1	0.161250
8.150000	1	0.155750
8.166667	1	0.150125
8.183333	1	0.144250
8.200000	1	0.139125
8.216667	1	0.133125
8.233333	1	0.127125
8.250000	1	0.121750
8.266667	1	0.116625
8.283333	1	0.111250
8.300000	1	0.106500
8.316667	1	0.101625
8.333333	1	0.097375
8.350000	1	0.093125
8.366667	1	0.089500
8.383333	1	0.086125
8.400000	1	0.082375
8.416667	1	0.079125
8.433333	1	0.075250
8.450000	1	0.072125
8.466667	1	0.068875
8.483333	1	0.067125
8.500000	1	0.064750
8.516667	1	0.063000
8.533333	1	0.060625
8.550000	1	0.059125
8.566667	1	0.057750
8.583333	1	0.055750
8.600000	1	0.054500
8.616667	1	0.053375
8.633333	1	0.052375
8.650000	1	0.052375
8.666667	1	0.051875
8.683333	1	0.051875
8.700000	1	0.051875
8.716667	1	0.052375
8.733333	1	0.052875
8.750000	1	0.054750
8.766667	1	0.055875
8.783333	1	0.057125
8.800000	1	0.058625
8.816667	1	0.060625
8.833333	1	0.062500
8.850000	1	0.065000
8.866667	1	0.067750
8.883333	1	0.070750
8.900000	1	0.073375
8.916667	1	0.075875
8.933333	1	0.079250
8.950000	1	0.082250
8.966667	1	0.085000
8.983333	1	0.087500
9.000000	1	0.090625
9.016667	1	0.092375
9.033333	1	0.095125
9.050000	1	0.098000
9.066667	1	0.099750
9.083333	1	0.102125
9.100000	1	0.103875
9.116667	1	0.105250
9.133333	1	0.107125
9.150000	1	0.107875
9.166667	1	0.109375
9.183333	1	0.109000
9.200000	1	0.109250
9.216667	1	0.109000
9.233333	1	0.108375
9.250000	1	0.108500
9.266667	1	0.107375
9.283333	1	0.106375
9.300000	1	0.104625
9.316667	1	0.103375
9.333333	1	0.102250
9.350000	1	0.100500
9.366667	1	0.098375
9.383333	1	0.097875
9.400000	1	0.096000
9.416667	1	0.094375
9.433333	1	0.093000
9.450000	1	0.091750
9.466667	1	0.090000
9.483333	1	0.089125
9.500000	1	0.087750
9.516667	1	0.086875
9.533333	1	0.086250
9.550000	1	0.086375
9.566667	1	0.086500
9.583333	1	0.086250
9.600000	1	0.086625
9.616667	1	0.087625
9.633333	1	0.088625
9.650000	1	0.089625
9.666667	1	0.090875
9.683333	1	0.092750
9.700000	1	0.094125
9.716667	1	0.095750
9.733333	1	0.097750
9.750000	1	0.099750
9.766667	1	0.102500
9.783333	1	0.104000
9.800000	1	0.106250
9.816667	1	0.108500
9.833333	1	0.110625
9.850000	1	0.112750
9.866667	1	0.115000
9.883333	1	0.116375
9.900000	1	0.117500
9.916667	1	0.118875
9.933333	1	0.120375
9.950000	1	0.121375
9.966667	1	0.121125
9.983333	1	0.120875
10.000000	1	0.120625
10.016667	1	0.119500
10.033333	1	0.119250
10.050000	1	0.118125
10.066667	1	0.117500
10.083333	1	0.116625
10.100000	1	0.116625
10.116667	1	0.117750
10.133333	1	0.119250
10.150000	1	0.122250
10.166667	1	0.125500
10.183333	1	0.131000
10.200000	1	0.138000
10.216667	1	0.147000
10.233333	1	0.158250
10.250000	1	0.172000
10.266667	1	0.188750
10.283333	1	0.207875
10.300000	1	0.230000
10.316667	1	0.254500
10.333333	1	0.280625
10.350000	1	0.307375
10.366667	1	0.333875
10.383333	1	0.357250
10.400000	1	0.375625
10.416667	1	0.388875
10.433333	1	0.397625
10.450000	1	0.405125
10.466667	1	0.420500
10.483333	1	0.455875
10.500000	1	0.536750
10.516667	1	0.696375
10.533333	1	0.980375
10.550000	1	1.444625
10.566667	1	2.151500
10.583333	1	3.166875
10.600000	1	4.547125
10.616667	1	6.338750
10.633333	1	8.571500
10.650000	1	11.256750
10.666667	1	14.393250
10.683333	1	17.959125
10.700000	1	21.911375
10.716667	1	26.183875
10.733333	1	30.677000
10.750000	1	35.252000
10.766667	1	39.716875
10.783333	1	43.820875
10.800000	1	47.257125
10.816667	1	49.690125
10.833333	1	50.812750
10.850000	1	50.426750
10.866667	1	48.503250
10.883333	1	45.220875
10.900000	1	40.931500
10.916667	1	36.082625
10.933333	1	31.105625
10.950000	1	26.345250
10.966667	1	22.025375
10.983333	1	18.250375
11.000000	1	15.047750
11.016667	1	12.393375
11.033333	1	10.232750
11.050000	1	8.497375
11.066667	1	7.117125
11.083333	1	6.026375
11.100000	1	5.166500
11.116667	1	4.487625
11.133333	1	3.948875
11.150000	1	3.517875
11.166667	1	3.170250
11.183333	1	2.887375
11.200000	1	2.652875
11.216667	1	2.456750
11.233333	1	2.290500
11.250000	1	2.147375
11.266667	1	2.024000
11.283333	1	1.915750
11.300000	1	1.820125
11.316667	1	1.734500
11.333333	1	1.659250
11.350000	1	1.593125
11.366667	1	1.534250
11.383333	1	1.481750
11.400000	1	1.435000
11.416667	1	1.394375
11.433333	1	1.357500
11.450000	1	1.325750
11.466667	1	1.297375
11.483333	1	1.272750
11.500000	1	1.250375
11.516667	1	1.231500
11.533333	1	1.214875
11.550000	1	1.200125
11.566667	1	1.187125
11.583333	1	1.175625
11.600000	1	1.166625
11.616667	1	1.159125
11.633333	1	1.153250
11.650000	1	1.149625
11.666667	1	1.146375
11.683333	1	1.144125
11.700000	1	1.144250
11.716667	1	1.145000
11.733333	1	1.147000
11.750000	1	1.150000
11.766667	1	1.154250
11.783333	1	1.159000
11.800000	1	1.164625
11.816667	1	1.170375
11.833333	1	1.175750
11.850000	1	1.181375
11.866667	1	1.186250
11.883333	1	1.191500
11.900000	1	1.195750
11.916667	1	1.200125
11.933333	1	1.203375
11.950000	1	1.206750
11.966667	1	1.209250
11.983333	1	1.211875
12.000000	1	1.214750
12.016667	1	1.218500
12.033333	1	1.222000
12.050000	1	1.226375
12.066667	1	1.230625
12.083333	1	1.235375
12.100000	1	1.241125
12.116667	1	1.247000
12.133333	1	1.252375
12.150000	1	1.258625
12.166667	1	1.265625
12.183333	1	1.273500
12.200000	1	1.282625
12.216667	1	1.293125
12.233333	1	1.305250
12.250000	1	1.320000
12.266667	1	1.337375
12.283333	1	1.358000
12.300000	1	1.382500
12.316667	1	1.412500
12.333333	1	1.449875
12.350000	1	1.495250
12.366667	1	1.551125
12.383333	1	1.620000
12.400000	1	1.705500
12.416667	1	1.810250
12.433333	1	1.939750
12.450000	1	2.098625
12.466667	1	2.291625
12.483333	1	2.524250
12.500000	1	2.799875
12.516667	1	3.119500
12.533333	1	3.483000
12.550000	1	3.885250
12.566667	1	4.318375
12.583333	1	4.770875
12.600000	1	5.229875
12.616667	1	5.675625
12.633333	1	6.091875
12.650000	1	6.460250
12.666667	1	6.767125
12.683333	1	6.999000
12.700000	1	7.147375
12.716667	1	7.210500
12.733333	1	7.191125
12.750000	1	7.095875
12.766667	1	6.935500
12.783333	1	6.722750
12.800000	1	6.469250
12.816667	1	6.188375
12.833333	1	5.891250
12.850000	1	5.587625
12.866667	1	5.283875
12.883333	1	4.988625
12.900000	1	4.705500
12.916667	1	4.439000
12.933333	1	4.192000
12.950000	1	3.965500
12.966667	1	3.761000
12.983333	1	3.577875
13.000000	1	3.415500
13.016667	1	3.272000
13.033333	1	3.146125
13.050000	1	3.034875
13.066667	1	2.936375
13.083333	1	2.848750
13.100000	1	2.770750
13.116667	1	2.701250
13.133333	1	2.638375
13.150000	1	2.581750
13.166667	1	2.529000
13.183333	1	2.479875
13.200000	1	2.434500
13.216667	1	2.391125
13.233333	1	2.350500
13.250000	1	2.311750
13.266667	1	2.274250
13.283333	1	2.238125
13.300000	1	2.203500
13.316667	1	2.169750
13.333333	1	2.138000
13.350000	1	2.108375
13.366667	1	2.080875
13.383333	1	2.054500
13.400000	1	2.030625
13.416667	1	2.010750
13.433333	1	1.992125
13.450000	1	1.976375
13.466667	1	1.963000
13.483333	1	1.952125
13.500000	1	1.942875
13.516667	1	1.937375
13.533333	1	1.933250
13.550000	1	1.929625
13.566667	1	1.927000
13.583333	1	1.924750
13.600000	1	1.921750
13.616667	1	1.918000
13.633333	1	1.911750
13.650000	1	1.904000
13.666667	1	1.894375
13.683333	1	1.881250
13.700000	1	1.865750
13.716667	1	1.848750
13.733333	1	1.830500
13.750000	1	1.811000
13.766667	1	1.790125
13.783333	1	1.769625
13.800000	1	1.749125
13.816667	1	1.728250
13.833333	1	1.708625
13.850000	1	1.689875
13.866667	1	1.672375
13.883333	1	1.655250
13.900000	1	1.639000
13.916667	1	1.624125
13.933333	1	1.610000
13.950000	1	1.596750
13.966667	1	1.583875
13.983333	1	1.572125
14.000000	1	1.560875
14.016667	1	1.549750
14.033333	1	1.539250
14.050000	1	1.529125
14.066667	1	1.519375
14.083333	1	1.509875
14.100000	1	1.500750
14.116667	1	1.491750
14.133333	1	1.482875
14.150000	1	1.475250
14.166667	1	1.467000
14.183333	1	1.459750
14.200000	1	1.453250
14.216667	1	1.447875
14.233333	1	1.443625
14.250000	1	1.442000
14.266667	1	1.442000
14.283333	1	1.443875
14.300000	1	1.447375
14.316667	1	1.455250
14.333333	1	1.467250
14.350000	1	1.484250
14.366667	1	1.507625
14.383333	1	1.538375
14.400000	1	1.579750
14.416667	1	1.636000
14.433333	1	1.710500
14.450000	1	1.810750
14.466667	1	1.946750
14.483333	1	2.130625
14.500000	1	2.379875
14.516667	1	2.717000
14.533333	1	3.171000
14.550000	1	3.778250
14.566667	1	4.581250
14.583333	1	5.626500
14.600000	1	6.969250
14.616667	1	8.667125
14.633333	1	10.776625
14.650000	1	13.345125
14.666667	1	16.404625
14.683333	1	19.962250
14.700000	1	23.995250
14.716667	1	28.444000
14.733333	1	33.213250
14.750000	1	38.169625
14.766667	1	43.143750
14.783333	1	47.939875
14.800000	1	52.358375
14.816667	1	56.202250
14.833333	1	59.288125
14.850000	1	61.468250
14.866667	1	62.638250
14.883333	1	62.752875
14.900000	1	61.825875
14.916667	1	59.928875
14.933333	1	57.181000
14.950000	1	53.740000
14.966667	1	49.786500
14.983333	1	45.508125
15.000000	1	41.077750
15.016667	1	36.650500
15.033333	1	32.358750
15.050000	1	28.305000
15.066667	1	24.562000
15.083333	1	21.173125
15.100000	1	18.158500
15.116667	1	15.516000
15.133333	1	13.229250
15.150000	1	11.271250
15.166667	1	9.610000
15.183333	1	8.211125
15.200000	1	7.040625
15.216667	1	6.065875
15.233333	1	5.258750
15.250000	1	4.594000
15.266667	1	4.049500
15.283333	1	3.606875
15.300000	1	3.249500
15.316667	1	2.964750
15.333333	1	2.740625
15.350000	1	2.567250
15.366667	1	2.435750
15.383333	1	2.338250
15.400000	1	2.267625
15.416667	1	2.217875
15.433333	1	2.183875
15.450000	1	2.160125
15.466667	1	2.141875
15.483333	1	2.126250
15.500000	1	2.109125
15.516667	1	2.088500
15.533333	1	2.063250
15.550000	1	2.033250
15.566667	1	1.997625
15.583333	1	1.957625
15.600000	1	1.912750
15.616667	1	1.865875
15.633333	1	1.817625
15.650000	1	1.769125
15.666667	1	1.721125
15.683333	1	1.675500
15.700000	1	1.631750
15.716667	1	1.591250
15.733333	1	1.552625
15.750000	1	1.517250
15.766667	1	1.484500
15.783333	1	1.453875
15.800000	1	1.426250
15.816667	1	1.400250
15.833333	1	1.375250
15.850000	1	1.351750
15.866667	1	1.329625
15.883333	1	1.310250
15.900000	1	1.292500
15.916667	1	1.276250
15.933333	1	1.262125
15.950000	1	1.249750
15.966667	1	1.240125
15.983333	1	1.232125
16.000000	1	1.226125
16.016667	1	1.222125
16.033333	1	1.218500
16.050000	1	1.216750
16.066667	1	1.216500
16.083333	1	1.216375
16.100000	1	1.217875
16.116667	1	1.219500
16.133333	1	1.221000
16.150000	1	1.222250
16.166667	1	1.223375
16.183333	1	1.223500
16.200000	1	1.223500
16.216667	1	1.222375
16.233333	1	1.221000
16.250000	1	1.219500
16.266667	1	1.216000
16.283333	1	1.212500
16.300000	1	1.208625
16.316667	1	1.204875
16.333333	1	1.200875
16.350000	1	1.197750
16.366667	1	1.194625
16.383333	1	1.193000
16.400000	1	1.193000
16.416667	1	1.193125
16.433333	1	1.194875
16.450000	1	1.197000
16.466667	1	1.200875
16.483333	1	1.204875
16.500000	1	1.210750
16.516667	1	1.215625
16.533333	1	1.220500
16.550000	1	1.224250
16.566667	1	1.227875
16.583333	1	1.229625
16.600000	1	1.230500
16.616667	1	1.230250
16.633333	1	1.230000
16.650000	1	1.228375
16.666667	1	1.226125
16.683333	1	1.224000
16.700000	1	1.223125
16.716667	1	1.222625
16.733333	1	1.223250
16.750000	1	1.225000
16.766667	1	1.228500
16.783333	1	1.234125
16.800000	1	1.240125
16.816667	1	1.248125
16.833333	1	1.256375
16.850000	1	1.264875
16.866667	1	1.272625
16.883333	1	1.279750
16.900000	1	1.286375
16.916667	1	1.291375
16.933333	1	1.295000
16.950000	1	1.297500
16.966667	1	1.298875
16.983333	1	1.298500
17.000000	1	1.296500
17.016667	1	1.293375
17.033333	1	1.289875
17.050000	1	1.285750
17.066667	1	1.282125
17.083333	1	1.278250
17.100000	1	1.274125
17.116667	1	1.270750
17.133333	1	1.267125
17.150000	1	1.264875
17.166667	1	1.262625
17.183333	1	1.261875
17.200000	1	1.261625
17.216667	1	1.261750
17.233333	1	1.262625
17.250000	1	1.263750
17.266667	1	1.265750
17.283333	1	1.267875
17.300000	1	1.269875
17.316667	1	1.273250
17.333333	1	1.276750
17.350000	1	1.279375
17.366667	1	1.281875
17.383333	1	1.284500
17.400000	1	1.286625
17.416667	1	1.287250
17.433333	1	1.287000
17.450000	1	1.284875
17.466667	1	1.281375
17.483333	1	1.276375
17.500000	1	1.270000
17.516667	1	1.261500
17.533333	1	1.251375
17.550000	1	1.240250
17.566667	1	1.227000
17.583333	1	1.212500
17.600000	1	1.196750
17.616667	1	1.180250
17.633333	1	1.162875
17.650000	1	1.145750
17.666667	1	1.127750
17.683333	1	1.110250
17.700000	1	1.093250
17.716667	1	1.076500
17.733333	1	1.061125
17.750000	1	1.046750
17.766667	1	1.033750
17.783333	1	1.022125
17.800000	1	1.010875
17.816667	1	1.001125
17.833333	1	0.992500
17.850000	1	0.985000
17.866667	1	0.978125
17.883333	1	0.971500
17.900000	1	0.966375
17.916667	1	0.961125
17.933333	1	0.956375
17.950000	1	0.951750
17.966667	1	0.947750
17.983333	1	0.942875
18.000000	1	0.938500
18.016667	1	0.933750
18.033333	1	0.929250
18.050000	1	0.924500
18.066667	1	0.919625
18.083333	1	0.915625
18.100000	1	0.910500
18.116667	1	0.906750
18.133333	1	0.903875
18.150000	1	0.901125
18.166667	1	0.898375
18.183333	1	0.896500
18.200000	1	0.895250
18.216667	1	0.894250
18.233333	1	0.893750
18.250000	1	0.893875
18.266667	1	0.893875
18.283333	1	0.894375
18.300000	1	0.895250
18.316667	1	0.896375
18.333333	1	0.897750
18.350000	1	0.900125
18.366667	1	0.902750
18.383333	1	0.906125
18.400000	1	0.910250
18.416667	1	0.915750
18.433333	1	0.922000
18.450000	1	0.930125
18.466667	1	0.939750
18.483333	1	0.951250
18.500000	1	0.964625
18.516667	1	0.979500
18.533333	1	0.996625
18.550000	1	1.015250
18.566667	1	1.036875
18.583333	1	1.059750
18.600000	1	1.083625
18.616667	1	1.109125
18.633333	1	1.136500
18.650000	1	1.164875
18.666667	1	1.195250
18.683333	1	1.225875
18.700000	1	1.257875
18.716667	1	1.289875
18.733333	1	1.321625
18.750000	1	1.353125
18.766667	1	1.384500
18.783333	1	1.415000
18.800000	1	1.443500
18.816667	1	1.470000
18.833333	1	1.494375
18.850000	1	1.514875
18.866667	1	1.531000
18.883333	1	1.542875
18.900000	1	1.549625
18.916667	1	1.550750
18.933333	1	1.546500
18.950000	1	1.536750
18.966667	1	1.520250
18.983333	1	1.498000
19.000000	1	1.470625
19.016667	1	1.437250
19.033333	1	1.400125
19.050000	1	1.359875
19.066667	1	1.316750
19.083333	1	1.271625
19.100000	1	1.226000
19.116667	1	1.180875
19.133333	1	1.136875
19.150000	1	1.095250
19.166667	1	1.056250
19.183333	1	1.020375
19.200000	1	0.989750
19.216667	1	0.963375
19.233333	1	0.941750
19.250000	1	0.925500
19.266667	1	0.915375
19.283333	1	0.910875
19.300000	1	0.912375
19.316667	1	0.919500
19.333333	1	0.932875
19.350000	1	0.950500
19.366667	1	0.973750
19.383333	1	1.000875
19.400000	1	1.032250
19.416667	1	1.065750
19.433333	1	1.100375
19.450000	1	1.135875
19.466667	1	1.171000
19.483333	1	1.205375
19.500000	1	1.238250
19.516667	1	1.267750
19.533333	1	1.294250
19.550000	1	1.316125
19.566667	1	1.333875
19.583333	1	1.346875
19.600000	1	1.354125
19.616667	1	1.356125
19.633333	1	1.353125
19.650000	1	1.345625
19.666667	1	1.333250
19.683333	1	1.316375
19.700000	1	1.296250
19.716667	1	1.272625
19.733333	1	1.246625
19.750000	1	1.218000
19.766667	1	1.186625
19.783333	1	1.154500
19.800000	1	1.120875
19.816667	1	1.086000
19.833333	1	1.052625
19.850000	1	1.018500
19.866667	1	0.984875
19.883333	1	0.952875
19.900000	1	0.922250
19.916667	1	0.894000
19.933333	1	0.867750
19.950000	1	0.843375
19.966667	1	0.822750
19.983333	1	0.804750
20.000000	1	0.790500
20.016667	1	0.779625
20.033333	1	0.772875
20.050000	1	0.770125
20.066667	1	0.771625
20.083333	1	0.777125
20.100000	1	0.786625
20.116667	1	0.799500
20.133333	1	0.817250
20.150000	1	0.836875
20.166667	1	0.859750
20.183333	1	0.883750
20.200000	1	0.908875
20.216667	1	0.934625
20.233333	1	0.958375
20.250000	1	0.980875
20.266667	1	1.000125
20.283333	1	1.016000
20.300000	1	1.026500
20.316667	1	1.032875
20.333333	1	1.033875
20.350000	1	1.030125
20.366667	1	1.021000
20.383333	1	1.007000
20.400000	1	0.988750
20.416667	1	0.967625
20.433333	1	0.943750
20.450000	1	0.918750
20.466667	1	0.893250
20.483333	1	0.869000
20.500000	1	0.845625
20.516667	1	0.826375
20.533333	1	0.811375
20.550000	1	0.801875
20.566667	1	0.797750
20.583333	1	0.799875
20.600000	1	0.810000
20.616667	1	0.827625
20.633333	1	0.854500
20.650000	1	0.890250
20.666667	1	0.933500
20.683333	1	0.984375
20.700000	1	1.043250
20.716667	1	1.107875
20.733333	1	1.177500
20.750000	1	1.251375
20.766667	1	1.328000
20.783333	1	1.403500
20.800000	1	1.475625
20.816667	1	1.543125
20.833333	1	1.604250
20.850000	1	1.656125
20.866667	1	1.696625
20.883333	1	1.725125
20.900000	1	1.740500
20.916667	1	1.742375
20.933333	1	1.729875
20.950000	1	1.705500
20.966667	1	1.669000
20.983333	1	1.622125
21.000000	1	1.564875
21.016667	1	1.501750
21.033333	1	1.432875
21.050000	1	1.361250
21.066667	1	1.288250
21.083333	1	1.216000
21.100000	1	1.145500
21.116667	1	1.077375
21.133333	1	1.013625
21.150000	1	0.954125
21.166667	1	0.899375
21.183333	1	0.849375
21.200000	1	0.805000
21.216667	1	0.765000
21.233333	1	0.729625
21.250000	1	0.699250
21.266667	1	0.672500
21.283333	1	0.649000
21.300000	1	0.629000
21.316667	1	0.612125
21.333333	1	0.598375
21.350000	1	0.585500
21.366667	1	0.575375
21.383333	1	0.566250
21.400000	1	0.559250
21.416667	1	0.553125
21.433333	1	0.548750
21.450000	1	0.544625
21.466667	1	0.541375
21.483333	1	0.538875
21.500000	1	0.537500
21.516667	1	0.537000
21.533333	1	0.537250
21.550000	1	0.538000
21.566667	1	0.540000
21.583333	1	0.543125
21.600000	1	0.547375
21.616667	1	0.552750
21.633333	1	0.559000
21.650000	1	0.566500
21.666667	1	0.576000
21.683333	1	0.586000
21.700000	1	0.598250
21.716667	1	0.611875
21.733333	1	0.626875
21.750000	1	0.643750
21.766667	1	0.660000
21.783333	1	0.678125
21.800000	1	0.696875
21.816667	1	0.716250
21.833333	1	0.735500
21.850000	1	0.753750
21.866667	1	0.771375
21.883333	1	0.788875
21.900000	1	0.803875
21.916667	1	0.818375
21.933333	1	0.829875
21.950000	1	0.839750
21.966667	1	0.847000
21.983333	1	0.852125
22.000000	1	0.855375
22.016667	1	0.856125
22.033333	1	0.855000
22.050000	1	0.851125
22.066667	1	0.845375
22.083333	1	0.838125
22.100000	1	0.828750
22.116667	1	0.818500
22.133333	1	0.806625
22.150000	1	0.794125
22.166667	1	0.780875
22.183333	1	0.765875
22.200000	1	0.750875
22.216667	1	0.734750
22.233333	1	0.718375
22.250000	1	0.701625
22.266667	1	0.684625
22.283333	1	0.667750
22.300000	1	0.651000
22.316667	1	0.634250
22.333333	1	0.616875
22.350000	1	0.600375
22.366667	1	0.584000
22.383333	1	0.567875
22.400000	1	0.552250
22.416667	1	0.538125
22.433333	1	0.523750
22.450000	1	0.510625
22.466667	1	0.498375
22.483333	1	0.487750
22.500000	1	0.477250
22.516667	1	0.467000
22.533333	1	0.457500
22.550000	1	0.449375
22.566667	1	0.441625
22.583333	1	0.434500
22.600000	1	0.428625
22.616667	1	0.421750
22.633333	1	0.416250
22.650000	1	0.410375
22.666667	1	0.405250
22.683333	1	0.400625
22.700000	1	0.396000
22.716667	1	0.392000
22.733333	1	0.387500
22.750000	1	0.382750
22.766667	1	0.378375
22.783333	1	0.373875
22.800000	1	0.369000
22.816667	1	0.364750
22.833333	1	0.361125
22.850000	1	0.357625
22.866667	1	0.354375
22.883333	1	0.351250
22.900000	1	0.349375
22.916667	1	0.346500
22.933333	1	0.344250
22.950000	1	0.342500
22.966667	1	0.341125
22.983333	1	0.339875
23.000000	1	0.339250
23.016667	1	0.339250
23.033333	1	0.340000
23.050000	1	0.340375
23.066667	1	0.341875
23.083333	1	0.343250
23.100000	1	0.345250
23.116667	1	0.347250
23.133333	1	0.350000
23.150000	1	0.353750
23.166667	1	0.356625
23.183333	1	0.361250
23.200000	1	0.365250
23.216667	1	0.370500
23.233333	1	0.376250
23.250000	1	0.383125
23.266667	1	0.391125
23.283333	1	0.401625
23.300000	1	0.414250
23.316667	1	0.428375
23.333333	1	0.446500
23.350000	1	0.468125
23.366667	1	0.494750
23.383333	1	0.526875
23.400000	1	0.565125
23.416667	1	0.611750
23.433333	1	0.666750
23.450000	1	0.732625
23.466667	1	0.810375
23.483333	1	0.900125
23.500000	1	1.005125
23.516667	1	1.124625
23.533333	1	1.261250
23.550000	1	1.415000
23.566667	1	1.587000
23.583333	1	1.775625
23.600000	1	1.981250
23.616667	1	2.202750
23.633333	1	2.438250
23.650000	1	2.685750
23.666667	1	2.941375
23.683333	1	3.202750
23.700000	1	3.466000
23.716667	1	3.726125
23.733333	1	3.976875
23.750000	1	4.214875
23.766667	1	4.433625
23.783333	1	4.629250
23.800000	1	4.796750
23.816667	1	4.932875
23.833333	1	5.034625
23.850000	1	5.100125
23.866667	1	5.127375
23.883333	1	5.117125
23.900000	1	5.070875
23.916667	1	4.989250
23.933333	1	4.875250
23.950000	1	4.732500
23.966667	1	4.565250
23.983333	1	4.376250
24.000000	1	4.171375
24.016667	1	3.955000
24.033333	1	3.730125
24.050000	1	3.501875
24.066667	1	3.274625
24.083333	1	3.049250
24.100000	1	2.829125
24.116667	1	2.617000
24.133333	1	2.414250
24.150000	1	2.222625
24.166667	1	2.043125
24.183333	1	1.876125
24.200000	1	1.721375
24.216667	1	1.579750
24.233333	1	1.450000
24.250000	1	1.331375
24.266667	1	1.224625
24.283333	1	1.127625
24.300000	1	1.040375
24.316667	1	0.961750
24.333333	1	0.891250
24.350000	1	0.828875
24.366667	1	0.773500
24.383333	1	0.724625
24.400000	1	0.682125
24.416667	1	0.644625
24.433333	1	0.613125
24.450000	1	0.586250
24.466667	1	0.562250
24.483333	1	0.542875
24.500000	1	0.526000
24.516667	1	0.511750
24.533333	1	0.499750
24.550000	1	0.489625
24.566667	1	0.480500
24.583333	1	0.473750
24.600000	1	0.467500
24.616667	1	0.462375
24.633333	1	0.457250
24.650000	1	0.452750
24.666667	1	0.448500
24.683333	1	0.444375
24.700000	1	0.440000
24.716667	1	0.435500
24.733333	1	0.431750
24.750000	1	0.427500
24.766667	1	0.422875
24.783333	1	0.418625
24.800000	1	0.413625
24.816667	1	0.408375
24.833333	1	0.403125
24.850000	1	0.397875
24.866667	1	0.393000
24.883333	1	0.387750
24.900000	1	0.382875
24.916667	1	0.378000
24.933333	1	0.373500
24.950000	1	0.369625
24.966667	1	0.365500
24.983333	1	0.360875
25.000000	1	0.356125
25.016667	1	0.352125
25.033333	1	0.348375
25.050000	1	0.344875
25.066667	1	0.341500
25.083333	1	0.338500
25.100000	1	0.335750
25.116667	1	0.332375
25.133333	1	0.328875
25.150000	1	0.326625
25.166667	1	0.323875
25.183333	1	0.321625
25.200000	1	0.319250
25.216667	1	0.317000
25.233333	1	0.313875
25.250000	1	0.310875
25.266667	1	0.309000
25.283333	1	0.307000
25.300000	1	0.305875
25.316667	1	0.303875
25.333333	1	0.302625
25.350000	1	0.302000
25.366667	1	0.300750
25.383333	1	0.299625
25.400000	1	0.298625
25.416667	1	0.298125
25.433333	1	0.297750
25.450000	1	0.297625
25.466667	1	0.297250
25.483333	1	0.298125
25.500000	1	0.298500
25.516667	1	0.299250
25.533333	1	0.299875
25.550000	1	0.300875
25.566667	1	0.301375
25.583333	1	0.303000
25.600000	1	0.303875
25.616667	1	0.305375
25.633333	1	0.306625
25.650000	1	0.307750
25.666667	1	0.308625
25.683333	1	0.309625
25.700000	1	0.310625
25.716667	1	0.311875
25.733333	1	0.313000
25.750000	1	0.314500
25.766667	1	0.315375
25.783333	1	0.317000
25.800000	1	0.318750
25.816667	1	0.320625
25.833333	1	0.321750
25.850000	1	0.323000
25.866667	1	0.324875
25.883333	1	0.327000
25.900000	1	0.329500
25.916667	1	0.332625
25.933333	1	0.335000
25.950000	1	0.338250
25.966667	1	0.342125
25.983333	1	0.347625
26.000000	1	0.352250
26.016667	1	0.356750
26.033333	1	0.362000
26.050000	1	0.367750
26.066667	1	0.374750
26.083333	1	0.381875
26.100000	1	0.389125
26.116667	1	0.396500
26.133333	1	0.404000
26.150000	1	0.411875
26.166667	1	0.418875
26.183333	1	0.426125
26.200000	1	0.434375
26.216667	1	0.441125
26.233333	1	0.448625
26.250000	1	0.455375
26.266667	1	0.461500
26.283333	1	0.466875
26.300000	1	0.472875
26.316667	1	0.476750
26.333333	1	0.480750
26.350000	1	0.483250
26.366667	1	0.485250
26.383333	1	0.486250
26.400000	1	0.486125
26.416667	1	0.485250
26.433333	1	0.483875
26.450000	1	0.481625
26.466667	1	0.478000
26.483333	1	0.473750
26.500000	1	0.468625
26.516667	1	0.463125
26.533333	1	0.456125
26.550000	1	0.449125
26.566667	1	0.441375
26.583333	1	0.432875
26.600000	1	0.423500
26.616667	1	0.414375
26.633333	1	0.404625
26.650000	1	0.395500
26.666667	1	0.385375
26.683333	1	0.375875
26.700000	1	0.366000
26.716667	1	0.356500
26.733333	1	0.347250
26.750000	1	0.338125
26.766667	1	0.329000
26.783333	1	0.320250
26.800000	1	0.312000
26.816667	1	0.303750
26.833333	1	0.296000
26.850000	1	0.288500
26.866667	1	0.281875
26.883333	1	0.275750
26.900000	1	0.270000
26.916667	1	0.264750
26.933333	1	0.260875
26.950000	1	0.256000
26.966667	1	0.253000
26.983333	1	0.250125
27.000000	1	0.248250
27.016667	1	0.246375
27.033333	1	0.245750
27.050000	1	0.245875
27.066667	1	0.246375
27.083333	1	0.248375
27.100000	1	0.250625
27.116667	1	0.254000
27.133333	1	0.258625
27.150000	1	0.264250
27.166667	1	0.271125
27.183333	1	0.279250
27.200000	1	0.288875
27.216667	1	0.301250
27.233333	1	0.315875
27.250000	1	0.332625
27.266667	1	0.352125
27.283333	1	0.374125
27.300000	1	0.400250
27.316667	1	0.430875
27.333333	1	0.465000
27.350000	1	0.504500
27.366667	1	0.548875
27.383333	1	0.599500
27.400000	1	0.657000
27.416667	1	0.722375
27.433333	1	0.795375
27.450000	1	0.876375
27.466667	1	0.967750
27.483333	1	1.067875
27.500000	1	1.178750
27.516667	1	1.298625
27.533333	1	1.429125
27.550000	1	1.569000
27.566667	1	1.719625
27.583333	1	1.878375
27.600000	1	2.045000
27.616667	1	2.218875
27.633333	1	2.399000
27.650000	1	2.583625
27.666667	1	2.770625
27.683333	1	2.956875
27.700000	1	3.142250
27.716667	1	3.322875
27.733333	1	3.496750
27.750000	1	3.660125
27.766667	1	3.811375
27.783333	1	3.947500
27.800000	1	4.067500
27.816667	1	4.168250
27.833333	1	4.247875
27.850000	1	4.305125
27.866667	1	4.339500
27.883333	1	4.349250
27.900000	1	4.334625
27.916667	1	4.296375
27.933333	1	4.234250
27.950000	1	4.150375
27.966667	1	4.045375
27.983333	1	3.922125
28.000000	1	3.781875
28.016667	1	3.627250
28.033333	1	3.461500
28.050000	1	3.286500
28.066667	1	3.104625
28.083333	1	2.920000
28.100000	1	2.733625
28.116667	1	2.548750
28.133333	1	2.366625
28.150000	1	2.190500
28.166667	1	2.021125
28.183333	1	1.859500
28.200000	1	1.706625
28.216667	1	1.563375
28.233333	1	1.428875
28.250000	1	1.305625
28.266667	1	1.191625
28.283333	1	1.087625
28.300000	1	0.993625
28.316667	1	0.908875
28.333333	1	0.833500
28.350000	1	0.766125
28.366667	1	0.706250
28.383333	1	0.654125
28.400000	1	0.608875
28.416667	1	0.570125
28.433333	1	0.536750
28.450000	1	0.508625
28.466667	1	0.485000
28.483333	1	0.466625
28.500000	1	0.452750
28.516667	1	0.441125
28.533333	1	0.432625
28.550000	1	0.427750
28.566667	1	0.425750
28.583333	1	0.426500
28.600000	1	0.428250
28.616667	1	0.432875
28.633333	1	0.439125
28.650000	1	0.446375
28.666667	1	0.453875
28.683333	1	0.463000
28.700000	1	0.472625
28.716667	1	0.482875
28.733333	1	0.493250
28.750000	1	0.503375
28.766667	1	0.513875
28.783333	1	0.524625
28.800000	1	0.534625
28.816667	1	0.544625
28.833333	1	0.553000
28.850000	1	0.560750
28.866667	1	0.568250
28.883333	1	0.574250
28.900000	1	0.578625
28.916667	1	0.581750
28.933333	1	0.583125
28.950000	1	0.583625
28.966667	1	0.582750
28.983333	1	0.580375
29.000000	1	0.575875
29.016667	1	0.569500
29.033333	1	0.561125
29.050000	1	0.551250
29.066667	1	0.539500
29.083333	1	0.525875
29.100000	1	0.510500
29.116667	1	0.492250
29.133333	1	0.472625
29.150000	1	0.450000
29.166667	1	0.426250
29.183333	1	0.400750
29.200000	1	0.371875
29.216667	1	0.341625
29.233333	1	0.308625
29.250000	1	0.274125
29.266667	1	0.236875
29.283333	1	0.198250
29.300000	1	0.156625
29.316667	1	0.112750
29.333333	1	0.066875
29.350000	1	0.019875
29.366667	1	-0.029125
29.383333	1	-0.080125
29.400000	1	-0.133000
29.416667	1	-0.187250
29.433333	1	-0.242250
29.450000	1	-0.298000
29.466667	1	-0.354625
29.483333	1	-0.411125
29.500000	1	-0.468000
29.516667	1	-0.524125
29.533333	1	-0.579500
29.550000	1	-0.633500
29.566667	1	-0.685250
29.583333	1	-0.734750
29.600000	1	-0.782375
29.616667	1	-0.827000
29.633333	1	-0.868375
29.650000	1	-0.906250
29.666667	1	-0.939250
29.683333	1	-0.967875
29.700000	1	-0.991875
29.716667	1	-1.011625
29.733333	1	-1.026500
29.750000	1	-1.036125
29.766667	1	-1.040875
29.783333	1	-1.041375
29.800000	1	-1.036375
29.816667	1	-1.026500
29.833333	1	-1.012250
29.850000	1	-0.994375
29.866667	1	-0.971625
29.883333	1	-0.946000
29.900000	1	-0.916250
29.916667	1	-0.884000
29.933333	1	-0.849250
29.950000	1	-0.812250
29.966667	1	-0.773500
29.983333	1	-0.733875
30.000000	1	-0.693625
30.016667	1	-0.651625
30.033333	1	-0.609500
30.050000	1	-0.566875
30.066667	1	-0.525000
30.083333	1	-0.483500
30.100000	1	-0.443125
30.116667	1	-0.404125
30.133333	1	-0.365500
30.150000	1	-0.328625
30.166667	1	-0.292250
30.183333	1	-0.257875
30.200000	1	-0.224500
30.216667	1	-0.193125
30.233333	1	-0.163375
30.250000	1	-0.135125
30.266667	1	-0.108625
30.283333	1	-0.083625
30.300000	1	-0.060375
30.316667	1	-0.038500
30.333333	1	-0.018250
30.350000	1	0.000125
30.366667	1	0.017625
30.383333	1	0.033625
30.400000	1	0.048875
30.416667	1	0.062000
30.433333	1	0.075000
30.450000	1	0.086750
30.466667	1	0.098000
30.483333	1	0.107625
30.500000	1	0.117250
30.516667	1	0.125750
30.533333	1	0.133625
30.550000	1	0.141375
30.566667	1	0.148750
30.583333	1	0.155375
30.600000	1	0.162125
30.616667	1	0.169125
30.633333	1	0.177000
30.650000	1	0.183750
30.666667	1	0.190125
30.683333	1	0.196875
30.700000	1	0.203875
30.716667	1	0.211250
30.733333	1	0.218750
30.750000	1	0.227625
30.766667	1	0.236125
30.783333	1	0.244500
30.800000	1	0.253750
30.816667	1	0.264375
30.833333	1	0.275000
30.850000	1	0.287625
30.866667	1	0.300250
30.883333	1	0.313875
30.900000	1	0.328250
30.916667	1	0.344250
30.933333	1	0.361875
30.950000	1	0.381125
30.966667	1	0.400875
30.983333	1	0.423625
31.000000	1	0.448500
31.016667	1	0.475500
31.033333	1	0.505625
31.050000	1	0.539000
31.066667	1	0.575625
31.083333	1	0.616375
31.100000	1	0.661000
31.116667	1	0.709875
31.133333	1	0.764125
31.150000	1	0.823625
31.166667	1	0.889250
31.183333	1	0.960000
31.200000	1	1.037250
31.216667	1	1.120375
31.233333	1	1.210250
31.250000	1	1.306000
31.266667	1	1.407250
31.283333	1	1.514500
31.300000	1	1.627000
31.316667	1	1.743625
31.333333	1	1.864125
31.350000	1	1.987625
31.366667	1	2.113375
31.383333	1	2.240625
31.400000	1	2.367000
31.416667	1	2.493000
31.433333	1	2.616375
31.450000	1	2.734750
31.466667	1	2.847375
31.483333	1	2.953000
31.500000	1	3.050875
31.516667	1	3.139000
31.533333	1	3.215875
31.550000	1	3.281625
31.566667	1	3.334125
31.583333	1	3.374250
31.600000	1	3.399875
31.616667	1	3.411500
31.633333	1	3.408375
31.650000	1	3.390875
31.666667	1	3.359750
31.683333	1	3.315625
31.700000	1	3.259125
31.716667	1	3.190750
31.733333	1	3.111875
31.750000	1	3.023250
31.766667	1	2.926875
31.783333	1	2.822875
31.800000	1	2.713250
31.816667	1	2.598750
31.833333	1	2.480750
31.850000	1	2.360250
31.866667	1	2.239375
31.883333	1	2.118625
31.900000	1	1.998500
31.916667	1	1.880250
31.933333	1	1.764875
31.950000	1	1.652625
31.966667	1	1.544500
31.983333	1	1.440500
32.000000	1	1.340750
32.016667	1	1.244750
32.033333	1	1.154625
32.050000	1	1.068625
32.066667	1	0.987250
32.083333	1	0.910625
32.100000	1	0.839625
32.116667	1	0.772500
32.133333	1	0.709125
32.150000	1	0.650125
32.166667	1	0.595125
32.183333	1	0.543500
32.200000	1	0.496000
32.216667	1	0.451750
32.233333	1	0.410375
32.250000	1	0.371875
32.266667	1	0.336250
32.283333	1	0.302750
32.300000	1	0.271625
32.316667	1	0.242875
32.333333	1	0.215875
32.350000	1	0.191000
32.366667	1	0.168875
32.383333	1	0.148500
32.400000	1	0.129500
32.416667	1	0.111875
32.433333	1	0.095500
32.450000	1	0.080625
32.466667	1	0.068250
32.483333	1	0.056125
32.500000	1	0.045250
32.516667	1	0.036000
32.533333	1	0.027500
32.550000	1	0.020500
32.566667	1	0.013250
32.583333	1	0.007875
32.600000	1	0.003500
32.616667	1	-0.000500
32.633333	1	-0.004250
32.650000	1	-0.007125
32.666667	1	-0.009750
32.683333	1	-0.012375
32.700000	1	-0.015125
32.716667	1	-0.017625
32.733333	1	-0.018875
32.750000	1	-0.019500
32.766667	1	-0.020625
32.783333	1	-0.021125
32.800000	1	-0.022500
32.816667	1	-0.023500
32.833333	1	-0.024875
32.850000	1	-0.025375
32.866667	1	-0.026875
32.883333	1	-0.028250
32.900000	1	-0.028250
32.916667	1	-0.029500
32.933333	1	-0.029875
32.950000	1	-0.030500
32.966667	1	-0.031375
32.983333	1	-0.032000
33.000000	1	-0.033125
33.016667	1	-0.034000
33.033333	1	-0.034500
33.050000	1	-0.035000
33.066667	1	-0.035375
33.083333	1	-0.035375
33.100000	1	-0.035625
33.116667	1	-0.035875
33.133333	1	-0.035500
33.150000	1	-0.035375
33.166667	1	-0.034375
33.183333	1	-0.033750
33.200000	1	-0.033125
33.216667	1	-0.033375
33.233333	1	-0.032625
33.250000	1	-0.031625
33.266667	1	-0.031000
33.283333	1	-0.030000
33.300000	1	-0.028875
33.316667	1	-0.028125
33.333333	1	-0.027000
33.350000	1	-0.026000
33.366667	1	-0.024625
33.383333	1	-0.023250
33.400000	1	-0.021125
33.416667	1	-0.019000
33.433333	1	-0.016500
33.450000	1	-0.013875
33.466667	1	-0.011375
33.483333	1	-0.008625
33.500000	1	-0.005625
33.516667	1	-0.002250
33.533333	1	0.001375
33.550000	1	0.006000
33.566667	1	0.010250
33.583333	1	0.013625
33.600000	1	0.018125
33.616667	1	0.022250
33.633333	1	0.026375
33.650000	1	0.030625
33.666667	1	0.034750
33.683333	1	0.038625
33.700000	1	0.042500
33.716667	1	0.046750
33.733333	1	0.050750
33.750000	1	0.054625
33.766667	1	0.059250
33.783333	1	0.063500
33.800000	1	0.066500
33.816667	1	0.070375
33.833333	1	0.073875
33.850000	1	0.077000
33.866667	1	0.079875
33.883333	1	0.082875
33.900000	1	0.085625
33.916667	1	0.087000
33.933333	1	0.088750
33.950000	1	0.090750
33.966667	1	0.092750
33.983333	1	0.094625
34.000000	1	0.096750
34.016667	1	0.098375
34.033333	1	0.100000
34.050000	1	0.100375
34.066667	1	0.101125
34.083333	1	0.102000
34.100000	1	0.102750
34.116667	1	0.103625
34.133333	1	0.104000
34.150000	1	0.105000
34.166667	1	0.105500
34.183333	1	0.105500
34.200000	1	0.106125
34.216667	1	0.107000
34.233333	1	0.107500
34.250000	1	0.107375
34.266667	1	0.106500
34.283333	1	0.106125
34.300000	1	0.105750
34.316667	1	0.106125
34.333333	1	0.106375
34.350000	1	0.106375
34.366667	1	0.106125
34.383333	1	0.105875
34.400000	1	0.106250
34.416667	1	0.106375
34.433333	1	0.106375
34.450000	1	0.106250
34.466667	1	0.106500
34.483333	1	0.106500
34.500000	1	0.107000
34.516667	1	0.107125
34.533333	1	0.108000
34.550000	1	0.108250
34.566667	1	0.109125
34.583333	1	0.109625
34.600000	1	0.110250
34.616667	1	0.111000
34.633333	1	0.111250
34.650000	1	0.111375
34.666667	1	0.111375
34.683333	1	0.111750
34.700000	1	0.112125
34.716667	1	0.112375
34.733333	1	0.112625
34.750000	1	0.112250
34.766667	1	0.112375
34.783333	1	0.112750
34.800000	1	0.112875
34.816667	1	0.113625
34.833333	1	0.114125
34.850000	1	0.113875
34.866667	1	0.113875
34.883333	1	0.113750
34.900000	1	0.113625
34.916667	1	0.113625
34.933333	1	0.114000
34.950000	1	0.113750
34.966667	1	0.113375
34.983333	1	0.113375
35.000000	1	0.113375
35.016667	1	0.113375
35.033333	1	0.113125
35.050000	1	0.113000
35.066667	1	0.113125
35.083333	1	0.113500
35.100000	1	0.114000
35.116667	1	0.114250
35.133333	1	0.114125
35.150000	1	0.114000
35.166667	1	0.113625
35.183333	1	0.112875
35.200000	1	0.113125
35.216667	1	0.112375
35.233333	1	0.112500
35.250000	1	0.112125
35.266667	1	0.111500
35.283333	1	0.110875
35.300000	1	0.110250
35.316667	1	0.110250
35.333333	1	0.109625
35.350000	1	0.109000
35.366667	1	0.107875
35.383333	1	0.106500
35.400000	1	0.105375
35.416667	1	0.103750
35.433333	1	0.102125
35.450000	1	0.100875
35.466667	1	0.099750
35.483333	1	0.098625
35.500000	1	0.098250
35.516667	1	0.097375
35.533333	1	0.096875
35.550000	1	0.096000
35.566667	1	0.095500
35.583333	1	0.095000
35.600000	1	0.094375
35.616667	1	0.094250
35.633333	1	0.093750
35.650000	1	0.093500
35.666667	1	0.093875
35.683333	1	0.094375
35.700000	1	0.095000
35.716667	1	0.095875
35.733333	1	0.097000
35.750000	1	0.097750
35.766667	1	0.099125
35.783333	1	0.100000
35.800000	1	0.100375
35.816667	1	0.101250
35.833333	1	0.102000
35.850000	1	0.103250
35.866667	1	0.104625
35.883333	1	0.105625
35.900000	1	0.106625
35.916667	1	0.107750
35.933333	1	0.109125
35.950000	1	0.110125
35.966667	1	0.111625
35.983333	1	0.112125
36.000000	1	0.112500
36.016667	1	0.113250
36.033333	1	0.113750
36.050000	1	0.114875
36.066667	1	0.115000
36.083333	1	0.115125
36.100000	1	0.116500
36.116667	1	0.117875
36.133333	1	0.119125
36.150000	1	0.120125
36.166667	1	0.120625
36.183333	1	0.121500
36.200000	1	0.122375
36.216667	1	0.123750
36.233333	1	0.124125
36.250000	1	0.125125
36.266667	1	0.126625
36.283333	1	0.128500
36.300000	1	0.130375
36.316667	1	0.132000
36.333333	1	0.133625
36.350000	1	0.136125
36.366667	1	0.138125
36.383333	1	0.140625
36.400000	1	0.142500
36.416667	1	0.145125
36.433333	1	0.148125
36.450000	1	0.149750
36.466667	1	0.152000
36.483333	1	0.154625
36.500000	1	0.157750
36.516667	1	0.159875
36.533333	1	0.162375
36.550000	1	0.164750
36.566667	1	0.167250
36.583333	1	0.168625
36.600000	1	0.170250
36.616667	1	0.171500
36.633333	1	0.173000
36.650000	1	0.173500
36.666667	1	0.174125
36.683333	1	0.174875
36.700000	1	0.175625
36.716667	1	0.175500
36.733333	1	0.175250
36.750000	1	0.174625
36.766667	1	0.174125
36.783333	1	0.172875
36.800000	1	0.171875
36.816667	1	0.170250
36.833333	1	0.168500
36.850000	1	0.165500
36.866667	1	0.163125
36.883333	1	0.160875
36.900000	1	0.158375
36.916667	1	0.156250
36.933333	1	0.152750
36.950000	1	0.149375
36.966667	1	0.146250
36.983333	1	0.143000
37.000000	1	0.139625
37.016667	1	0.135875
37.033333	1	0.132625
37.050000	1	0.129125
37.066667	1	0.126750
37.083333	1	0.124000
37.100000	1	0.120875
37.116667	1	0.117750
37.133333	1	0.115375
37.150000	1	0.113250
37.166667	1	0.110625
37.183333	1	0.108625
37.200000	1	0.106250
37.216667	1	0.103625
37.233333	1	0.101500
37.250000	1	0.099750
37.266667	1	0.098125
37.283333	1	0.096000
37.300000	1	0.094500
37.316667	1	0.093375
37.333333	1	0.091750
37.350000	1	0.089875
37.366667	1	0.087500
37.383333	1	0.085000
37.400000	1	0.082875
37.416667	1	0.080750
37.433333	1	0.078375
37.450000	1	0.076750
37.466667	1	0.074500
37.483333	1	0.071875
37.500000	1	0.069750
37.516667	1	0.066750
37.533333	1	0.064250
37.550000	1	0.061625
37.566667	1	0.058875
37.583333	1	0.055750
37.600000	1	0.053500
37.616667	1	0.051750
37.633333	1	0.049000
37.650000	1	0.046625
37.666667	1	0.044375
37.683333	1	0.042500
37.700000	1	0.041125
37.716667	1	0.040125
37.733333	1	0.038875
37.750000	1	0.038000
37.766667	1	0.037250
37.783333	1	0.037000
37.800000	1	0.037375
37.816667	1	0.037500
37.833333	1	0.037000
37.850000	1	0.038125
37.866667	1	0.039125
37.883333	1	0.039875
37.900000	1	0.040875
37.916667	1	0.041875
37.933333	1	0.043625
37.950000	1	0.044250
37.966667	1	0.045375
37.983333	1	0.046500
38.000000	1	0.046875
38.016667	1	0.047625
38.033333	1	0.048375
38.050000	1	0.049500
38.066667	1	0.050375
38.083333	1	0.050000
38.100000	1	0.050125
38.116667	1	0.050000
38.133333	1	0.050000
38.150000	1	0.050000
38.166667	1	0.049500
38.183333	1	0.048500
38.200000	1	0.047250
38.216667	1	0.045250
38.233333	1	0.043625
38.250000	1	0.042125
38.266667	1	0.040500
38.283333	1	0.038750
38.300000	1	0.036250
38.316667	1	0.034000
38.333333	1	0.031625
38.350000	1	0.029250
38.366667	1	0.026875
38.383333	1	0.023875
38.400000	1	0.021500
38.416667	1	0.019250
38.433333	1	0.016875
38.450000	1	0.014625
38.466667	1	0.013250
38.483333	1	0.011250
38.500000	1	0.009625
38.516667	1	0.007375
38.533333	1	0.005625
38.550000	1	0.004000
38.566667	1	0.002750
38.583333	1	0.002000
38.600000	1	0.000875
38.616667	1	0.000250
38.633333	1	-0.000750
38.650000	1	-0.001750
38.666667	1	-0.002500
38.683333	1	-0.003250
38.700000	1	-0.003250
38.716667	1	-0.003500
38.733333	1	-0.004000
38.750000	1	-0.004875
38.766667	1	-0.005375
38.783333	1	-0.005375
38.800000	1	-0.004750
38.816667	1	-0.005375
38.833333	1	-0.006375
38.850000	1	-0.006625
38.866667	1	-0.007500
38.883333	1	-0.008750
38.900000	1	-0.008750
38.916667	1	-0.010125
38.933333	1	-0.011000
38.950000	1	-0.012125
38.966667	1	-0.012875
38.983333	1	-0.014125
39.000000	1	-0.015250
39.016667	1	-0.016375
39.033333	1	-0.017375
39.050000	1	-0.018625
39.066667	1	-0.019250
39.083333	1	-0.019875
39.100000	1	-0.020750
39.116667	1	-0.021000
39.133333	1	-0.023000
39.150000	1	-0.024125
39.166667	1	-0.025750
39.183333	1	-0.026250
39.200000	1	-0.027125
39.216667	1	-0.028250
39.233333	1	-0.030000
39.250000	1	-0.031000
39.266667	1	-0.031875
39.283333	1	-0.032875
39.300000	1	-0.033750
39.316667	1	-0.034375
39.333333	1	-0.035250
39.350000	1	-0.036500
39.366667	1	-0.037500
39.383333	1	-0.038250
39.400000	1	-0.038500
39.416667	1	-0.038750
39.433333	1	-0.038750
39.450000	1	-0.039125
39.466667	1	-0.038875
39.483333	1	-0.038125
39.500000	1	-0.037000
39.516667	1	-0.036250
39.533333	1	-0.035500
39.550000	1	-0.034875
39.566667	1	-0.033500
39.583333	1	-0.031500
39.600000	1	-0.030000
39.616667	1	-0.027875
39.633333	1	-0.025625
39.650000	1	-0.023125
39.666667	1	-0.021000
39.683333	1	-0.018750
39.700000	1	-0.015750
39.716667	1	-0.013125
39.733333	1	-0.009875
39.750000	1	-0.006875
39.766667	1	-0.004375
39.783333	1	-0.001625
39.800000	1	0.000875
39.816667	1	0.003875
39.833333	1	0.006125
39.850000	1	0.008375
39.866667	1	0.010625
39.883333	1	0.013250
39.900000	1	0.015000
39.916667	1	0.017250
39.933333	1	0.019125
39.950000	1	0.020750
39.966667	1	0.022000
39.983333	1	0.023750
40.000000	1	0.024625
