URL	chrom://bioreactor/micro_cm7/HPLC_Ultimate_3000/Users/markusar/20240517_CMO_FP23_FP25_MarkusDeplate.seq/193.smp/RI_1.channel/RI_1.chm
Channel	RI_1

Injection Information:
Data Vault	micro_cm7
Sequence	20240517_CMO_FP23_FP25_MarkusDeplate
Name	FP28_22.1_s3
Number	143
Position	BA9
Comment	
Processing Method	
Instrument Method	run_25B_method
Type	Unknown
Status	Finished
Inject Time	31.05.2024 20:46:31 +02:00
Volume (µl)	20.0000
Dilution Factor	1.0000
Weight	1.0000

Chromatogram Data Information:
Time Min. (min)	0.000000
Time Max. (min)	40.000000
Data Points	2401
Detector	RI
Generating Data System	Chromeleon 7.3.2.11814
Exporting Data System	Chromeleon 7.3.2.0
Operator	Instrument Controller
Signal Quantity	Refractive 
Signal Unit	µRIU
Signal Min.	-1.049250
Signal Max.	49.231000
Channel	RI_1
Driver Name	RID520Driver.dll
Channel Type	Evaluation
Min. Step (s)	1
Max. Step (s)	1
Average Step (s)	1

Signal Parameter Information:
Signal Info	

Chromatogram Data:
Time (min)	Step (s)	Value (µRIU)
0.000000	n.a.	0.015625
0.016667	1	0.016875
0.033333	1	0.018250
0.050000	1	0.020000
0.066667	1	0.022125
0.083333	1	0.024000
0.100000	1	0.025375
0.116667	1	0.026250
0.133333	1	0.027500
0.150000	1	0.028375
0.166667	1	0.029125
0.183333	1	0.029000
0.200000	1	0.029000
0.216667	1	0.029625
0.233333	1	0.030250
0.250000	1	0.031000
0.266667	1	0.031250
0.283333	1	0.032375
0.300000	1	0.032125
0.316667	1	0.032125
0.333333	1	0.031750
0.350000	1	0.030875
0.366667	1	0.030250
0.383333	1	0.029500
0.400000	1	0.028250
0.416667	1	0.027500
0.433333	1	0.026375
0.450000	1	0.025500
0.466667	1	0.024125
0.483333	1	0.023625
0.500000	1	0.022125
0.516667	1	0.020375
0.533333	1	0.018375
0.550000	1	0.016500
0.566667	1	0.014625
0.583333	1	0.013000
0.600000	1	0.011250
0.616667	1	0.009250
0.633333	1	0.007250
0.650000	1	0.005500
0.666667	1	0.003750
0.683333	1	0.002625
0.700000	1	0.001625
0.716667	1	0.001250
0.733333	1	0.000750
0.750000	1	-0.000125
0.766667	1	-0.000125
0.783333	1	0.000000
0.800000	1	-0.000625
0.816667	1	-0.000250
0.833333	1	0.000125
0.850000	1	0.001250
0.866667	1	0.002875
0.883333	1	0.004500
0.900000	1	0.007000
0.916667	1	0.009250
0.933333	1	0.011500
0.950000	1	0.013750
0.966667	1	0.016750
0.983333	1	0.019500
1.000000	1	0.021875
1.016667	1	0.026000
1.033333	1	0.029500
1.050000	1	0.032750
1.066667	1	0.036750
1.083333	1	0.041000
1.100000	1	0.044500
1.116667	1	0.048750
1.133333	1	0.053000
1.150000	1	0.056500
1.166667	1	0.059500
1.183333	1	0.063500
1.200000	1	0.066500
1.216667	1	0.070250
1.233333	1	0.073750
1.250000	1	0.077000
1.266667	1	0.079250
1.283333	1	0.081250
1.300000	1	0.083500
1.316667	1	0.085750
1.333333	1	0.087625
1.350000	1	0.088500
1.366667	1	0.089500
1.383333	1	0.089875
1.400000	1	0.090500
1.416667	1	0.090000
1.433333	1	0.088625
1.450000	1	0.087750
1.466667	1	0.086250
1.483333	1	0.084625
1.500000	1	0.082500
1.516667	1	0.080125
1.533333	1	0.077875
1.550000	1	0.075375
1.566667	1	0.072500
1.583333	1	0.069250
1.600000	1	0.066375
1.616667	1	0.062375
1.633333	1	0.058875
1.650000	1	0.056375
1.666667	1	0.053250
1.683333	1	0.049625
1.700000	1	0.046375
1.716667	1	0.043625
1.733333	1	0.040750
1.750000	1	0.038375
1.766667	1	0.035625
1.783333	1	0.034125
1.800000	1	0.031750
1.816667	1	0.029875
1.833333	1	0.027750
1.850000	1	0.026125
1.866667	1	0.024500
1.883333	1	0.023000
1.900000	1	0.021250
1.916667	1	0.019375
1.933333	1	0.018250
1.950000	1	0.017625
1.966667	1	0.016375
1.983333	1	0.015625
2.000000	1	0.013875
2.016667	1	0.012250
2.033333	1	0.011375
2.050000	1	0.010375
2.066667	1	0.009000
2.083333	1	0.007375
2.100000	1	0.006375
2.116667	1	0.005125
2.133333	1	0.004500
2.150000	1	0.002500
2.166667	1	0.000875
2.183333	1	-0.000500
2.200000	1	-0.001875
2.216667	1	-0.002875
2.233333	1	-0.004000
2.250000	1	-0.004875
2.266667	1	-0.005875
2.283333	1	-0.006750
2.300000	1	-0.007750
2.316667	1	-0.008750
2.333333	1	-0.009250
2.350000	1	-0.009250
2.366667	1	-0.009625
2.383333	1	-0.009625
2.400000	1	-0.009125
2.416667	1	-0.008875
2.433333	1	-0.008625
2.450000	1	-0.008125
2.466667	1	-0.007625
2.483333	1	-0.006875
2.500000	1	-0.006250
2.516667	1	-0.005500
2.533333	1	-0.005125
2.550000	1	-0.004500
2.566667	1	-0.003500
2.583333	1	-0.002375
2.600000	1	-0.001250
2.616667	1	-0.000375
2.633333	1	0.000250
2.650000	1	0.001375
2.666667	1	0.002250
2.683333	1	0.003750
2.700000	1	0.005375
2.716667	1	0.006625
2.733333	1	0.007625
2.750000	1	0.009000
2.766667	1	0.010875
2.783333	1	0.012625
2.800000	1	0.014750
2.816667	1	0.016625
2.833333	1	0.018625
2.850000	1	0.020875
2.866667	1	0.023250
2.883333	1	0.025250
2.900000	1	0.027500
2.916667	1	0.029500
2.933333	1	0.031875
2.950000	1	0.034750
2.966667	1	0.037375
2.983333	1	0.039875
3.000000	1	0.042250
3.016667	1	0.044250
3.033333	1	0.046875
3.050000	1	0.048625
3.066667	1	0.050625
3.083333	1	0.052625
3.100000	1	0.053500
3.116667	1	0.055250
3.133333	1	0.056875
3.150000	1	0.057750
3.166667	1	0.058000
3.183333	1	0.058500
3.200000	1	0.058750
3.216667	1	0.059250
3.233333	1	0.059375
3.250000	1	0.058875
3.266667	1	0.058625
3.283333	1	0.057625
3.300000	1	0.057125
3.316667	1	0.056875
3.333333	1	0.056250
3.350000	1	0.055125
3.366667	1	0.054500
3.383333	1	0.053375
3.400000	1	0.052375
3.416667	1	0.052000
3.433333	1	0.051375
3.450000	1	0.051250
3.466667	1	0.050625
3.483333	1	0.050125
3.500000	1	0.050375
3.516667	1	0.050625
3.533333	1	0.050375
3.550000	1	0.051000
3.566667	1	0.051000
3.583333	1	0.050625
3.600000	1	0.051000
3.616667	1	0.051625
3.633333	1	0.052875
3.650000	1	0.053875
3.666667	1	0.054625
3.683333	1	0.055875
3.700000	1	0.056750
3.716667	1	0.058125
3.733333	1	0.059625
3.750000	1	0.060375
3.766667	1	0.061375
3.783333	1	0.063000
3.800000	1	0.063875
3.816667	1	0.065000
3.833333	1	0.065875
3.850000	1	0.066750
3.866667	1	0.067625
3.883333	1	0.068125
3.900000	1	0.068750
3.916667	1	0.069875
3.933333	1	0.070875
3.950000	1	0.071250
3.966667	1	0.071500
3.983333	1	0.072500
4.000000	1	0.073000
4.016667	1	0.072750
4.033333	1	0.072875
4.050000	1	0.073875
4.066667	1	0.074250
4.083333	1	0.075250
4.100000	1	0.075875
4.116667	1	0.076375
4.133333	1	0.076250
4.150000	1	0.077125
4.166667	1	0.077750
4.183333	1	0.078125
4.200000	1	0.079000
4.216667	1	0.079875
4.233333	1	0.080875
4.250000	1	0.081500
4.266667	1	0.083125
4.283333	1	0.084250
4.300000	1	0.085500
4.316667	1	0.086500
4.333333	1	0.087750
4.350000	1	0.088625
4.366667	1	0.090625
4.383333	1	0.091875
4.400000	1	0.093375
4.416667	1	0.094625
4.433333	1	0.096625
4.450000	1	0.097625
4.466667	1	0.099000
4.483333	1	0.100250
4.500000	1	0.101625
4.516667	1	0.103000
4.533333	1	0.104500
4.550000	1	0.106500
4.566667	1	0.107625
4.583333	1	0.109375
4.600000	1	0.110625
4.616667	1	0.112000
4.633333	1	0.113000
4.650000	1	0.114250
4.666667	1	0.115750
4.683333	1	0.117375
4.700000	1	0.119000
4.716667	1	0.120500
4.733333	1	0.121625
4.750000	1	0.122375
4.766667	1	0.124125
4.783333	1	0.125500
4.800000	1	0.126750
4.816667	1	0.127625
4.833333	1	0.129625
4.850000	1	0.131500
4.866667	1	0.133250
4.883333	1	0.135500
4.900000	1	0.137000
4.916667	1	0.138750
4.933333	1	0.141875
4.950000	1	0.144125
4.966667	1	0.147125
4.983333	1	0.150125
5.000000	1	0.152875
5.016667	1	0.155125
5.033333	1	0.158625
5.050000	1	0.161875
5.066667	1	0.165250
5.083333	1	0.168250
5.100000	1	0.172250
5.116667	1	0.175250
5.133333	1	0.179000
5.150000	1	0.183250
5.166667	1	0.186875
5.183333	1	0.191000
5.200000	1	0.194750
5.216667	1	0.198500
5.233333	1	0.202375
5.250000	1	0.206000
5.266667	1	0.209125
5.283333	1	0.213000
5.300000	1	0.216375
5.316667	1	0.220000
5.333333	1	0.222750
5.350000	1	0.226250
5.366667	1	0.229375
5.383333	1	0.232250
5.400000	1	0.235625
5.416667	1	0.239000
5.433333	1	0.241875
5.450000	1	0.244875
5.466667	1	0.246875
5.483333	1	0.249500
5.500000	1	0.252375
5.516667	1	0.255500
5.533333	1	0.258250
5.550000	1	0.261625
5.566667	1	0.265000
5.583333	1	0.267875
5.600000	1	0.270875
5.616667	1	0.274125
5.633333	1	0.277375
5.650000	1	0.280500
5.666667	1	0.283250
5.683333	1	0.286250
5.700000	1	0.289250
5.716667	1	0.292500
5.733333	1	0.295375
5.750000	1	0.297625
5.766667	1	0.300625
5.783333	1	0.302625
5.800000	1	0.304875
5.816667	1	0.306625
5.833333	1	0.307875
5.850000	1	0.308750
5.866667	1	0.310000
5.883333	1	0.310750
5.900000	1	0.311875
5.916667	1	0.311750
5.933333	1	0.311000
5.950000	1	0.310125
5.966667	1	0.309250
5.983333	1	0.308250
6.000000	1	0.306000
6.016667	1	0.304875
6.033333	1	0.302375
6.050000	1	0.298875
6.066667	1	0.294500
6.083333	1	0.290375
6.100000	1	0.285625
6.116667	1	0.281875
6.133333	1	0.277375
6.150000	1	0.272750
6.166667	1	0.267250
6.183333	1	0.262000
6.200000	1	0.256625
6.216667	1	0.250750
6.233333	1	0.245375
6.250000	1	0.239375
6.266667	1	0.234000
6.283333	1	0.228625
6.300000	1	0.223125
6.316667	1	0.217375
6.333333	1	0.211750
6.350000	1	0.206375
6.366667	1	0.201875
6.383333	1	0.196875
6.400000	1	0.192375
6.416667	1	0.187250
6.433333	1	0.183750
6.450000	1	0.180250
6.466667	1	0.177250
6.483333	1	0.174125
6.500000	1	0.170875
6.516667	1	0.169000
6.533333	1	0.167125
6.550000	1	0.164875
6.566667	1	0.164000
6.583333	1	0.163125
6.600000	1	0.161750
6.616667	1	0.161250
6.633333	1	0.161125
6.650000	1	0.160625
6.666667	1	0.160500
6.683333	1	0.161250
6.700000	1	0.161750
6.716667	1	0.163125
6.733333	1	0.163875
6.750000	1	0.165000
6.766667	1	0.166500
6.783333	1	0.167375
6.800000	1	0.168500
6.816667	1	0.169000
6.833333	1	0.169625
6.850000	1	0.171250
6.866667	1	0.172250
6.883333	1	0.173500
6.900000	1	0.174750
6.916667	1	0.175875
6.933333	1	0.176750
6.950000	1	0.178125
6.966667	1	0.178625
6.983333	1	0.180500
7.000000	1	0.181500
7.016667	1	0.182875
7.033333	1	0.184125
7.050000	1	0.184875
7.066667	1	0.185375
7.083333	1	0.185750
7.100000	1	0.186875
7.116667	1	0.187250
7.133333	1	0.187750
7.150000	1	0.188500
7.166667	1	0.189000
7.183333	1	0.189375
7.200000	1	0.189875
7.216667	1	0.190750
7.233333	1	0.191125
7.250000	1	0.191000
7.266667	1	0.191500
7.283333	1	0.191750
7.300000	1	0.191750
7.316667	1	0.192125
7.333333	1	0.192375
7.350000	1	0.192375
7.366667	1	0.193375
7.383333	1	0.193750
7.400000	1	0.194000
7.416667	1	0.194250
7.433333	1	0.194125
7.450000	1	0.195250
7.466667	1	0.194750
7.483333	1	0.195000
7.500000	1	0.195125
7.516667	1	0.195375
7.533333	1	0.195625
7.550000	1	0.196250
7.566667	1	0.196000
7.583333	1	0.196000
7.600000	1	0.195375
7.616667	1	0.194750
7.633333	1	0.193625
7.650000	1	0.191875
7.666667	1	0.191500
7.683333	1	0.190250
7.700000	1	0.188375
7.716667	1	0.187125
7.733333	1	0.185250
7.750000	1	0.183625
7.766667	1	0.182000
7.783333	1	0.179250
7.800000	1	0.176500
7.816667	1	0.173375
7.833333	1	0.171000
7.850000	1	0.168375
7.866667	1	0.165125
7.883333	1	0.162000
7.900000	1	0.159375
7.916667	1	0.156000
7.933333	1	0.152250
7.950000	1	0.148375
7.966667	1	0.144875
7.983333	1	0.141625
8.000000	1	0.138625
8.016667	1	0.135375
8.033333	1	0.132125
8.050000	1	0.128875
8.066667	1	0.125125
8.083333	1	0.122250
8.100000	1	0.119125
8.116667	1	0.115500
8.133333	1	0.112750
8.150000	1	0.110000
8.166667	1	0.107000
8.183333	1	0.104500
8.200000	1	0.101875
8.216667	1	0.099500
8.233333	1	0.097000
8.250000	1	0.095750
8.266667	1	0.094000
8.283333	1	0.091875
8.300000	1	0.089625
8.316667	1	0.087375
8.333333	1	0.086625
8.350000	1	0.085750
8.366667	1	0.084625
8.383333	1	0.083375
8.400000	1	0.083000
8.416667	1	0.082875
8.433333	1	0.082500
8.450000	1	0.081750
8.466667	1	0.081375
8.483333	1	0.081125
8.500000	1	0.080875
8.516667	1	0.080375
8.533333	1	0.080750
8.550000	1	0.080375
8.566667	1	0.080625
8.583333	1	0.080375
8.600000	1	0.080500
8.616667	1	0.080125
8.633333	1	0.079875
8.650000	1	0.080250
8.666667	1	0.080375
8.683333	1	0.079250
8.700000	1	0.078500
8.716667	1	0.078000
8.733333	1	0.076625
8.750000	1	0.075875
8.766667	1	0.075125
8.783333	1	0.075000
8.800000	1	0.074375
8.816667	1	0.074125
8.833333	1	0.072625
8.850000	1	0.071500
8.866667	1	0.070375
8.883333	1	0.070000
8.900000	1	0.069750
8.916667	1	0.069125
8.933333	1	0.068500
8.950000	1	0.068500
8.966667	1	0.067875
8.983333	1	0.067500
9.000000	1	0.067750
9.016667	1	0.068000
9.033333	1	0.067875
9.050000	1	0.068375
9.066667	1	0.068875
9.083333	1	0.069250
9.100000	1	0.069750
9.116667	1	0.070000
9.133333	1	0.071125
9.150000	1	0.072750
9.166667	1	0.073625
9.183333	1	0.074500
9.200000	1	0.075500
9.216667	1	0.077000
9.233333	1	0.078000
9.250000	1	0.079750
9.266667	1	0.081750
9.283333	1	0.083125
9.300000	1	0.084500
9.316667	1	0.085625
9.333333	1	0.086875
9.350000	1	0.087625
9.366667	1	0.088375
9.383333	1	0.089750
9.400000	1	0.090500
9.416667	1	0.091750
9.433333	1	0.092875
9.450000	1	0.093500
9.466667	1	0.094500
9.483333	1	0.094750
9.500000	1	0.095000
9.516667	1	0.095500
9.533333	1	0.094875
9.550000	1	0.094875
9.566667	1	0.094875
9.583333	1	0.095000
9.600000	1	0.094875
9.616667	1	0.094500
9.633333	1	0.094500
9.650000	1	0.094375
9.666667	1	0.094625
9.683333	1	0.094500
9.700000	1	0.095125
9.716667	1	0.095500
9.733333	1	0.096500
9.750000	1	0.096750
9.766667	1	0.097250
9.783333	1	0.097500
9.800000	1	0.098000
9.816667	1	0.098750
9.833333	1	0.099750
9.850000	1	0.100250
9.866667	1	0.101000
9.883333	1	0.101125
9.900000	1	0.102000
9.916667	1	0.102000
9.933333	1	0.102125
9.950000	1	0.101500
9.966667	1	0.101250
9.983333	1	0.100125
10.000000	1	0.099875
10.016667	1	0.099000
10.033333	1	0.098750
10.050000	1	0.097000
10.066667	1	0.096625
10.083333	1	0.096000
10.100000	1	0.095875
10.116667	1	0.096500
10.133333	1	0.098125
10.150000	1	0.100625
10.166667	1	0.104500
10.183333	1	0.109875
10.200000	1	0.117125
10.216667	1	0.126125
10.233333	1	0.136875
10.250000	1	0.150000
10.266667	1	0.166125
10.283333	1	0.185000
10.300000	1	0.206375
10.316667	1	0.231000
10.333333	1	0.257250
10.350000	1	0.285500
10.366667	1	0.313375
10.383333	1	0.338875
10.400000	1	0.360500
10.416667	1	0.377375
10.433333	1	0.388750
10.450000	1	0.397750
10.466667	1	0.410125
10.483333	1	0.436875
10.500000	1	0.498750
10.516667	1	0.623625
10.533333	1	0.855000
10.550000	1	1.244625
10.566667	1	1.853875
10.583333	1	2.747000
10.600000	1	3.985000
10.616667	1	5.618000
10.633333	1	7.681375
10.650000	1	10.190375
10.666667	1	13.147875
10.683333	1	16.536250
10.700000	1	20.319625
10.716667	1	24.436125
10.733333	1	28.794125
10.750000	1	33.263625
10.766667	1	37.666000
10.783333	1	41.765625
10.800000	1	45.273250
10.816667	1	47.863125
10.833333	1	49.231000
10.850000	1	49.159625
10.866667	1	47.591000
10.883333	1	44.663125
10.900000	1	40.691250
10.916667	1	36.097375
10.933333	1	31.304750
10.950000	1	26.659625
10.966667	1	22.393625
10.983333	1	18.634625
11.000000	1	15.421250
11.016667	1	12.739750
11.033333	1	10.543125
11.050000	1	8.771500
11.066667	1	7.358375
11.083333	1	6.239375
11.100000	1	5.355625
11.116667	1	4.658000
11.133333	1	4.103250
11.150000	1	3.658750
11.166667	1	3.297875
11.183333	1	3.001750
11.200000	1	2.756125
11.216667	1	2.550000
11.233333	1	2.375125
11.250000	1	2.225000
11.266667	1	2.093875
11.283333	1	1.979000
11.300000	1	1.878375
11.316667	1	1.789500
11.333333	1	1.710750
11.350000	1	1.640875
11.366667	1	1.578750
11.383333	1	1.523625
11.400000	1	1.474375
11.416667	1	1.430625
11.433333	1	1.392125
11.450000	1	1.357875
11.466667	1	1.328000
11.483333	1	1.300000
11.500000	1	1.276125
11.516667	1	1.254500
11.533333	1	1.234750
11.550000	1	1.218125
11.566667	1	1.203125
11.583333	1	1.190000
11.600000	1	1.177875
11.616667	1	1.167750
11.633333	1	1.159000
11.650000	1	1.151375
11.666667	1	1.145875
11.683333	1	1.141625
11.700000	1	1.138125
11.716667	1	1.136125
11.733333	1	1.136250
11.750000	1	1.136375
11.766667	1	1.138750
11.783333	1	1.141750
11.800000	1	1.145250
11.816667	1	1.150500
11.833333	1	1.155875
11.850000	1	1.161625
11.866667	1	1.167875
11.883333	1	1.173000
11.900000	1	1.178125
11.916667	1	1.183000
11.933333	1	1.187875
11.950000	1	1.193125
11.966667	1	1.198250
11.983333	1	1.203125
12.000000	1	1.208375
12.016667	1	1.214000
12.033333	1	1.219250
12.050000	1	1.224375
12.066667	1	1.230750
12.083333	1	1.236625
12.100000	1	1.243375
12.116667	1	1.249875
12.133333	1	1.256875
12.150000	1	1.264000
12.166667	1	1.271750
12.183333	1	1.280375
12.200000	1	1.289875
12.216667	1	1.300250
12.233333	1	1.312000
12.250000	1	1.327125
12.266667	1	1.344875
12.283333	1	1.366125
12.300000	1	1.390500
12.316667	1	1.420000
12.333333	1	1.455500
12.350000	1	1.499625
12.366667	1	1.553125
12.383333	1	1.618125
12.400000	1	1.697375
12.416667	1	1.795500
12.433333	1	1.915625
12.450000	1	2.063250
12.466667	1	2.243125
12.483333	1	2.459625
12.500000	1	2.717750
12.516667	1	3.019000
12.533333	1	3.363500
12.550000	1	3.749000
12.566667	1	4.167750
12.583333	1	4.609625
12.600000	1	5.060625
12.616667	1	5.505500
12.633333	1	5.926375
12.650000	1	6.305625
12.666667	1	6.627625
12.683333	1	6.878625
12.700000	1	7.049250
12.716667	1	7.135625
12.733333	1	7.137750
12.750000	1	7.062750
12.766667	1	6.918625
12.783333	1	6.718125
12.800000	1	6.474375
12.816667	1	6.200625
12.833333	1	5.906625
12.850000	1	5.602875
12.866667	1	5.297875
12.883333	1	4.998750
12.900000	1	4.710750
12.916667	1	4.439000
12.933333	1	4.185375
12.950000	1	3.953125
12.966667	1	3.742000
12.983333	1	3.553500
13.000000	1	3.385625
13.016667	1	3.236875
13.033333	1	3.105250
13.050000	1	2.989750
13.066667	1	2.888250
13.083333	1	2.797250
13.100000	1	2.716625
13.116667	1	2.644750
13.133333	1	2.578875
13.150000	1	2.519750
13.166667	1	2.466000
13.183333	1	2.416000
13.200000	1	2.368750
13.216667	1	2.324375
13.233333	1	2.282375
13.250000	1	2.242250
13.266667	1	2.203000
13.283333	1	2.165625
13.300000	1	2.128750
13.316667	1	2.094500
13.333333	1	2.062250
13.350000	1	2.031000
13.366667	1	2.001500
13.383333	1	1.973875
13.400000	1	1.949000
13.416667	1	1.926125
13.433333	1	1.906000
13.450000	1	1.888625
13.466667	1	1.874000
13.483333	1	1.862250
13.500000	1	1.853000
13.516667	1	1.846750
13.533333	1	1.842000
13.550000	1	1.839500
13.566667	1	1.838125
13.583333	1	1.837625
13.600000	1	1.836125
13.616667	1	1.833375
13.633333	1	1.828375
13.650000	1	1.821750
13.666667	1	1.811875
13.683333	1	1.799250
13.700000	1	1.783750
13.716667	1	1.766375
13.733333	1	1.746625
13.750000	1	1.725125
13.766667	1	1.703375
13.783333	1	1.681000
13.800000	1	1.658125
13.816667	1	1.636250
13.833333	1	1.614750
13.850000	1	1.593625
13.866667	1	1.575000
13.883333	1	1.556750
13.900000	1	1.539875
13.916667	1	1.524375
13.933333	1	1.509875
13.950000	1	1.495750
13.966667	1	1.482750
13.983333	1	1.470375
14.000000	1	1.458375
14.016667	1	1.447500
14.033333	1	1.437875
14.050000	1	1.428000
14.066667	1	1.418625
14.083333	1	1.410250
14.100000	1	1.402000
14.116667	1	1.393875
14.133333	1	1.386250
14.150000	1	1.380125
14.166667	1	1.374000
14.183333	1	1.369250
14.200000	1	1.365500
14.216667	1	1.363250
14.233333	1	1.362500
14.250000	1	1.364625
14.266667	1	1.368250
14.283333	1	1.374125
14.300000	1	1.382500
14.316667	1	1.394375
14.333333	1	1.409250
14.350000	1	1.428625
14.366667	1	1.451750
14.383333	1	1.480375
14.400000	1	1.514875
14.416667	1	1.558375
14.433333	1	1.612250
14.450000	1	1.681125
14.466667	1	1.771375
14.483333	1	1.890875
14.500000	1	2.050750
14.516667	1	2.265625
14.533333	1	2.556000
14.550000	1	2.944000
14.566667	1	3.460375
14.583333	1	4.138000
14.600000	1	5.014375
14.616667	1	6.130875
14.633333	1	7.530000
14.650000	1	9.247250
14.666667	1	11.311375
14.683333	1	13.733625
14.700000	1	16.506625
14.716667	1	19.594625
14.733333	1	22.938750
14.750000	1	26.450375
14.766667	1	30.016375
14.783333	1	33.498875
14.800000	1	36.756375
14.816667	1	39.643875
14.833333	1	42.027000
14.850000	1	43.790000
14.866667	1	44.847375
14.883333	1	45.153750
14.900000	1	44.705875
14.916667	1	43.542750
14.933333	1	41.744750
14.950000	1	39.418250
14.966667	1	36.688000
14.983333	1	33.690125
15.000000	1	30.550875
15.016667	1	27.384625
15.033333	1	24.289000
15.050000	1	21.344875
15.066667	1	18.608125
15.083333	1	16.116125
15.100000	1	13.887375
15.116667	1	11.924625
15.133333	1	10.219625
15.150000	1	8.753875
15.166667	1	7.506875
15.183333	1	6.454625
15.200000	1	5.573000
15.216667	1	4.838250
15.233333	1	4.228500
15.250000	1	3.726125
15.266667	1	3.314750
15.283333	1	2.980875
15.300000	1	2.712750
15.316667	1	2.500750
15.333333	1	2.336000
15.350000	1	2.210125
15.366667	1	2.118250
15.383333	1	2.052375
15.400000	1	2.008500
15.416667	1	1.980625
15.433333	1	1.965000
15.450000	1	1.957750
15.466667	1	1.954625
15.483333	1	1.953125
15.500000	1	1.949375
15.516667	1	1.941125
15.533333	1	1.927500
15.550000	1	1.907250
15.566667	1	1.880625
15.583333	1	1.848750
15.600000	1	1.812125
15.616667	1	1.772375
15.633333	1	1.730250
15.650000	1	1.687500
15.666667	1	1.644875
15.683333	1	1.603000
15.700000	1	1.563375
15.716667	1	1.526500
15.733333	1	1.491375
15.750000	1	1.459625
15.766667	1	1.429625
15.783333	1	1.401625
15.800000	1	1.376000
15.816667	1	1.352750
15.833333	1	1.329375
15.850000	1	1.308375
15.866667	1	1.288625
15.883333	1	1.271000
15.900000	1	1.254375
15.916667	1	1.240375
15.933333	1	1.228250
15.950000	1	1.217625
15.966667	1	1.208250
15.983333	1	1.201750
16.000000	1	1.197750
16.016667	1	1.194375
16.033333	1	1.192375
16.050000	1	1.192500
16.066667	1	1.192875
16.083333	1	1.194625
16.100000	1	1.197250
16.116667	1	1.199625
16.133333	1	1.202500
16.150000	1	1.204875
16.166667	1	1.206500
16.183333	1	1.208250
16.200000	1	1.209375
16.216667	1	1.209875
16.233333	1	1.209000
16.250000	1	1.207875
16.266667	1	1.205125
16.283333	1	1.202125
16.300000	1	1.199250
16.316667	1	1.196500
16.333333	1	1.192625
16.350000	1	1.188875
16.366667	1	1.186125
16.383333	1	1.184875
16.400000	1	1.183625
16.416667	1	1.184000
16.433333	1	1.185875
16.450000	1	1.188875
16.466667	1	1.192875
16.483333	1	1.197625
16.500000	1	1.202250
16.516667	1	1.207875
16.533333	1	1.212875
16.550000	1	1.217625
16.566667	1	1.221125
16.583333	1	1.223375
16.600000	1	1.225000
16.616667	1	1.225000
16.633333	1	1.223375
16.650000	1	1.221500
16.666667	1	1.219000
16.683333	1	1.216500
16.700000	1	1.214875
16.716667	1	1.213250
16.733333	1	1.213375
16.750000	1	1.213875
16.766667	1	1.216500
16.783333	1	1.219875
16.800000	1	1.224625
16.816667	1	1.230625
16.833333	1	1.237500
16.850000	1	1.244125
16.866667	1	1.250625
16.883333	1	1.256750
16.900000	1	1.261625
16.916667	1	1.265500
16.933333	1	1.267875
16.950000	1	1.269000
16.966667	1	1.269125
16.983333	1	1.267750
17.000000	1	1.264375
17.016667	1	1.261000
17.033333	1	1.255875
17.050000	1	1.251375
17.066667	1	1.246625
17.083333	1	1.242000
17.100000	1	1.236750
17.116667	1	1.233125
17.133333	1	1.230500
17.150000	1	1.228375
17.166667	1	1.226875
17.183333	1	1.225500
17.200000	1	1.226000
17.216667	1	1.226875
17.233333	1	1.229000
17.250000	1	1.232000
17.266667	1	1.235125
17.283333	1	1.238750
17.300000	1	1.242750
17.316667	1	1.247250
17.333333	1	1.252625
17.350000	1	1.258000
17.366667	1	1.262750
17.383333	1	1.267875
17.400000	1	1.272375
17.416667	1	1.276000
17.433333	1	1.278000
17.450000	1	1.278875
17.466667	1	1.279125
17.483333	1	1.277250
17.500000	1	1.274250
17.516667	1	1.268750
17.533333	1	1.262375
17.550000	1	1.254500
17.566667	1	1.245000
17.583333	1	1.234125
17.600000	1	1.221750
17.616667	1	1.207875
17.633333	1	1.193750
17.650000	1	1.179250
17.666667	1	1.164250
17.683333	1	1.149750
17.700000	1	1.135250
17.716667	1	1.121000
17.733333	1	1.107750
17.750000	1	1.095375
17.766667	1	1.083250
17.783333	1	1.073000
17.800000	1	1.063125
17.816667	1	1.054125
17.833333	1	1.045625
17.850000	1	1.038500
17.866667	1	1.031875
17.883333	1	1.027000
17.900000	1	1.021625
17.916667	1	1.016500
17.933333	1	1.011375
17.950000	1	1.007375
17.966667	1	1.002750
17.983333	1	0.998375
18.000000	1	0.993750
18.016667	1	0.989000
18.033333	1	0.983750
18.050000	1	0.978250
18.066667	1	0.972750
18.083333	1	0.967375
18.100000	1	0.961750
18.116667	1	0.957250
18.133333	1	0.952375
18.150000	1	0.947625
18.166667	1	0.943750
18.183333	1	0.940875
18.200000	1	0.938125
18.216667	1	0.935125
18.233333	1	0.933250
18.250000	1	0.931250
18.266667	1	0.929000
18.283333	1	0.927250
18.300000	1	0.926250
18.316667	1	0.924375
18.333333	1	0.923250
18.350000	1	0.922500
18.366667	1	0.922500
18.383333	1	0.922250
18.400000	1	0.923000
18.416667	1	0.924875
18.433333	1	0.928375
18.450000	1	0.933000
18.466667	1	0.939375
18.483333	1	0.947375
18.500000	1	0.956625
18.516667	1	0.968500
18.533333	1	0.982375
18.550000	1	0.998500
18.566667	1	1.016375
18.583333	1	1.036375
18.600000	1	1.058375
18.616667	1	1.082875
18.633333	1	1.107875
18.650000	1	1.135250
18.666667	1	1.163125
18.683333	1	1.192375
18.700000	1	1.223125
18.716667	1	1.254875
18.733333	1	1.287500
18.750000	1	1.319875
18.766667	1	1.352500
18.783333	1	1.384500
18.800000	1	1.415125
18.816667	1	1.443875
18.833333	1	1.470625
18.850000	1	1.493250
18.866667	1	1.513625
18.883333	1	1.529000
18.900000	1	1.540375
18.916667	1	1.546250
18.933333	1	1.546000
18.950000	1	1.539125
18.966667	1	1.527250
18.983333	1	1.509625
19.000000	1	1.485750
19.016667	1	1.456000
19.033333	1	1.421875
19.050000	1	1.384000
19.066667	1	1.342875
19.083333	1	1.299750
19.100000	1	1.254750
19.116667	1	1.209125
19.133333	1	1.164500
19.150000	1	1.120875
19.166667	1	1.080000
19.183333	1	1.041250
19.200000	1	1.006625
19.216667	1	0.976625
19.233333	1	0.951250
19.250000	1	0.930750
19.266667	1	0.915375
19.283333	1	0.905500
19.300000	1	0.901500
19.316667	1	0.902625
19.333333	1	0.908875
19.350000	1	0.920500
19.366667	1	0.936750
19.383333	1	0.957625
19.400000	1	0.982250
19.416667	1	1.009500
19.433333	1	1.038250
19.450000	1	1.068125
19.466667	1	1.098250
19.483333	1	1.127125
19.500000	1	1.154125
19.516667	1	1.179375
19.533333	1	1.201000
19.550000	1	1.219250
19.566667	1	1.232625
19.583333	1	1.241875
19.600000	1	1.246250
19.616667	1	1.246000
19.633333	1	1.240750
19.650000	1	1.230375
19.666667	1	1.216125
19.683333	1	1.198375
19.700000	1	1.177000
19.716667	1	1.153375
19.733333	1	1.127250
19.750000	1	1.098625
19.766667	1	1.069625
19.783333	1	1.038750
19.800000	1	1.007500
19.816667	1	0.976750
19.833333	1	0.945625
19.850000	1	0.915125
19.866667	1	0.886375
19.883333	1	0.858875
19.900000	1	0.833750
19.916667	1	0.811250
19.933333	1	0.791250
19.950000	1	0.775125
19.966667	1	0.762750
19.983333	1	0.753250
20.000000	1	0.748125
20.016667	1	0.747875
20.033333	1	0.752500
20.050000	1	0.762500
20.066667	1	0.778625
20.083333	1	0.800250
20.100000	1	0.827750
20.116667	1	0.859875
20.133333	1	0.897750
20.150000	1	0.939625
20.166667	1	0.986125
20.183333	1	1.034750
20.200000	1	1.084500
20.216667	1	1.133875
20.233333	1	1.182125
20.250000	1	1.226750
20.266667	1	1.267375
20.283333	1	1.301500
20.300000	1	1.328250
20.316667	1	1.346875
20.333333	1	1.357500
20.350000	1	1.357875
20.366667	1	1.350625
20.383333	1	1.334250
20.400000	1	1.310375
20.416667	1	1.280250
20.433333	1	1.244750
20.450000	1	1.205875
20.466667	1	1.163875
20.483333	1	1.122000
20.500000	1	1.081250
20.516667	1	1.042375
20.533333	1	1.008625
20.550000	1	0.980875
20.566667	1	0.959250
20.583333	1	0.944500
20.600000	1	0.938250
20.616667	1	0.941000
20.633333	1	0.952500
20.650000	1	0.974000
20.666667	1	1.004500
20.683333	1	1.045000
20.700000	1	1.093375
20.716667	1	1.149500
20.733333	1	1.211500
20.750000	1	1.278500
20.766667	1	1.348875
20.783333	1	1.419750
20.800000	1	1.489500
20.816667	1	1.555875
20.833333	1	1.616375
20.850000	1	1.668750
20.866667	1	1.711000
20.883333	1	1.741750
20.900000	1	1.759875
20.916667	1	1.764875
20.933333	1	1.757375
20.950000	1	1.735625
20.966667	1	1.702625
20.983333	1	1.657750
21.000000	1	1.603875
21.016667	1	1.541625
21.033333	1	1.474500
21.050000	1	1.402000
21.066667	1	1.328500
21.083333	1	1.255000
21.100000	1	1.183375
21.116667	1	1.113250
21.133333	1	1.046250
21.150000	1	0.983000
21.166667	1	0.925500
21.183333	1	0.872625
21.200000	1	0.823500
21.216667	1	0.780000
21.233333	1	0.741125
21.250000	1	0.707000
21.266667	1	0.676750
21.283333	1	0.650500
21.300000	1	0.628250
21.316667	1	0.608750
21.333333	1	0.592250
21.350000	1	0.577500
21.366667	1	0.565625
21.383333	1	0.555500
21.400000	1	0.546750
21.416667	1	0.539875
21.433333	1	0.533875
21.450000	1	0.530125
21.466667	1	0.527000
21.483333	1	0.525500
21.500000	1	0.525625
21.516667	1	0.526625
21.533333	1	0.528750
21.550000	1	0.533625
21.566667	1	0.540375
21.583333	1	0.549000
21.600000	1	0.559625
21.616667	1	0.572375
21.633333	1	0.587625
21.650000	1	0.606000
21.666667	1	0.627875
21.683333	1	0.653000
21.700000	1	0.681250
21.716667	1	0.712875
21.733333	1	0.747250
21.750000	1	0.784875
21.766667	1	0.825625
21.783333	1	0.867875
21.800000	1	0.912250
21.816667	1	0.957500
21.833333	1	1.002125
21.850000	1	1.047250
21.866667	1	1.090625
21.883333	1	1.131250
21.900000	1	1.168750
21.916667	1	1.202875
21.933333	1	1.231375
21.950000	1	1.255375
21.966667	1	1.272625
21.983333	1	1.284750
22.000000	1	1.289750
22.016667	1	1.288750
22.033333	1	1.281125
22.050000	1	1.268250
22.066667	1	1.249875
22.083333	1	1.226875
22.100000	1	1.200750
22.116667	1	1.170875
22.133333	1	1.138500
22.150000	1	1.103750
22.166667	1	1.067750
22.183333	1	1.030875
22.200000	1	0.994250
22.216667	1	0.957625
22.233333	1	0.921625
22.250000	1	0.886500
22.266667	1	0.852500
22.283333	1	0.820125
22.300000	1	0.789625
22.316667	1	0.760500
22.333333	1	0.732875
22.350000	1	0.707250
22.366667	1	0.682625
22.383333	1	0.660625
22.400000	1	0.640750
22.416667	1	0.622750
22.433333	1	0.606375
22.450000	1	0.592000
22.466667	1	0.579500
22.483333	1	0.568625
22.500000	1	0.559125
22.516667	1	0.551375
22.533333	1	0.545125
22.550000	1	0.539750
22.566667	1	0.535000
22.583333	1	0.531125
22.600000	1	0.527625
22.616667	1	0.524500
22.633333	1	0.521375
22.650000	1	0.518500
22.666667	1	0.515125
22.683333	1	0.511500
22.700000	1	0.507500
22.716667	1	0.502875
22.733333	1	0.498500
22.750000	1	0.492875
22.766667	1	0.486125
22.783333	1	0.480000
22.800000	1	0.473000
22.816667	1	0.465125
22.833333	1	0.456625
22.850000	1	0.448500
22.866667	1	0.440375
22.883333	1	0.432500
22.900000	1	0.425375
22.916667	1	0.416875
22.933333	1	0.408750
22.950000	1	0.401250
22.966667	1	0.394125
22.983333	1	0.387500
23.000000	1	0.381250
23.016667	1	0.375375
23.033333	1	0.370625
23.050000	1	0.365250
23.066667	1	0.361250
23.083333	1	0.358125
23.100000	1	0.355250
23.116667	1	0.353500
23.133333	1	0.352000
23.150000	1	0.350375
23.166667	1	0.350250
23.183333	1	0.350750
23.200000	1	0.351500
23.216667	1	0.353875
23.233333	1	0.357000
23.250000	1	0.361500
23.266667	1	0.367125
23.283333	1	0.374625
23.300000	1	0.384500
23.316667	1	0.397875
23.333333	1	0.413625
23.350000	1	0.434125
23.366667	1	0.458250
23.383333	1	0.488750
23.400000	1	0.525875
23.416667	1	0.569875
23.433333	1	0.622625
23.450000	1	0.685375
23.466667	1	0.760125
23.483333	1	0.847125
23.500000	1	0.948375
23.516667	1	1.064875
23.533333	1	1.197375
23.550000	1	1.347875
23.566667	1	1.515250
23.583333	1	1.701125
23.600000	1	1.905250
23.616667	1	2.125125
23.633333	1	2.360625
23.650000	1	2.608125
23.666667	1	2.866000
23.683333	1	3.130500
23.700000	1	3.397875
23.716667	1	3.663625
23.733333	1	3.923375
23.750000	1	4.170750
23.766667	1	4.400875
23.783333	1	4.608875
23.800000	1	4.790250
23.816667	1	4.940500
23.833333	1	5.056500
23.850000	1	5.135500
23.866667	1	5.177250
23.883333	1	5.180125
23.900000	1	5.145000
23.916667	1	5.073875
23.933333	1	4.968875
23.950000	1	4.832500
23.966667	1	4.669750
23.983333	1	4.483875
24.000000	1	4.280125
24.016667	1	4.062750
24.033333	1	3.835625
24.050000	1	3.604125
24.066667	1	3.371875
24.083333	1	3.141500
24.100000	1	2.916625
24.116667	1	2.698375
24.133333	1	2.489250
24.150000	1	2.292000
24.166667	1	2.105375
24.183333	1	1.931875
24.200000	1	1.770750
24.216667	1	1.622500
24.233333	1	1.486125
24.250000	1	1.362750
24.266667	1	1.250875
24.283333	1	1.149750
24.300000	1	1.058375
24.316667	1	0.975375
24.333333	1	0.901375
24.350000	1	0.836125
24.366667	1	0.778625
24.383333	1	0.727250
24.400000	1	0.682125
24.416667	1	0.642500
24.433333	1	0.608125
24.450000	1	0.578500
24.466667	1	0.553375
24.483333	1	0.531375
24.500000	1	0.513000
24.516667	1	0.497625
24.533333	1	0.483750
24.550000	1	0.472250
24.566667	1	0.462625
24.583333	1	0.454375
24.600000	1	0.446750
24.616667	1	0.441000
24.633333	1	0.435750
24.650000	1	0.430875
24.666667	1	0.426000
24.683333	1	0.421750
24.700000	1	0.417875
24.716667	1	0.413875
24.733333	1	0.409750
24.750000	1	0.405500
24.766667	1	0.401250
24.783333	1	0.397000
24.800000	1	0.393125
24.816667	1	0.389125
24.833333	1	0.385625
24.850000	1	0.382250
24.866667	1	0.379125
24.883333	1	0.376125
24.900000	1	0.373250
24.916667	1	0.371000
24.933333	1	0.369250
24.950000	1	0.367875
24.966667	1	0.367250
24.983333	1	0.367250
25.000000	1	0.368000
25.016667	1	0.369250
25.033333	1	0.370500
25.050000	1	0.371875
25.066667	1	0.373750
25.083333	1	0.376250
25.100000	1	0.379500
25.116667	1	0.383125
25.133333	1	0.387000
25.150000	1	0.391250
25.166667	1	0.395625
25.183333	1	0.399750
25.200000	1	0.404000
25.216667	1	0.407000
25.233333	1	0.410000
25.250000	1	0.413250
25.266667	1	0.416125
25.283333	1	0.418500
25.300000	1	0.420000
25.316667	1	0.421375
25.333333	1	0.421875
25.350000	1	0.422125
25.366667	1	0.421375
25.383333	1	0.419500
25.400000	1	0.417500
25.416667	1	0.415500
25.433333	1	0.412750
25.450000	1	0.410500
25.466667	1	0.408125
25.483333	1	0.404625
25.500000	1	0.402375
25.516667	1	0.399375
25.533333	1	0.396125
25.550000	1	0.392875
25.566667	1	0.390000
25.583333	1	0.386875
25.600000	1	0.384125
25.616667	1	0.382000
25.633333	1	0.380125
25.650000	1	0.377625
25.666667	1	0.375500
25.683333	1	0.373375
25.700000	1	0.370750
25.716667	1	0.368750
25.733333	1	0.367000
25.750000	1	0.364250
25.766667	1	0.362375
25.783333	1	0.359375
25.800000	1	0.357500
25.816667	1	0.354875
25.833333	1	0.353000
25.850000	1	0.352000
25.866667	1	0.350125
25.883333	1	0.348375
25.900000	1	0.347000
25.916667	1	0.345875
25.933333	1	0.344250
25.950000	1	0.343625
25.966667	1	0.343875
25.983333	1	0.344625
26.000000	1	0.346000
26.016667	1	0.347375
26.033333	1	0.349250
26.050000	1	0.351875
26.066667	1	0.355625
26.083333	1	0.359000
26.100000	1	0.363250
26.116667	1	0.367625
26.133333	1	0.372125
26.150000	1	0.377375
26.166667	1	0.382500
26.183333	1	0.388000
26.200000	1	0.393375
26.216667	1	0.399125
26.233333	1	0.405250
26.250000	1	0.410500
26.266667	1	0.415875
26.283333	1	0.420625
26.300000	1	0.425125
26.316667	1	0.429125
26.333333	1	0.431875
26.350000	1	0.434375
26.366667	1	0.436375
26.383333	1	0.437250
26.400000	1	0.437625
26.416667	1	0.436750
26.433333	1	0.435875
26.450000	1	0.433375
26.466667	1	0.430125
26.483333	1	0.425625
26.500000	1	0.420125
26.516667	1	0.413875
26.533333	1	0.407375
26.550000	1	0.400625
26.566667	1	0.392875
26.583333	1	0.384750
26.600000	1	0.375875
26.616667	1	0.367250
26.633333	1	0.358625
26.650000	1	0.349500
26.666667	1	0.340375
26.683333	1	0.331500
26.700000	1	0.323000
26.716667	1	0.314125
26.733333	1	0.305500
26.750000	1	0.297500
26.766667	1	0.289375
26.783333	1	0.281750
26.800000	1	0.274500
26.816667	1	0.268500
26.833333	1	0.262625
26.850000	1	0.257125
26.866667	1	0.252125
26.883333	1	0.247125
26.900000	1	0.243125
26.916667	1	0.239625
26.933333	1	0.236750
26.950000	1	0.234750
26.966667	1	0.233250
26.983333	1	0.232000
27.000000	1	0.231000
27.016667	1	0.230625
27.033333	1	0.230750
27.050000	1	0.232375
27.066667	1	0.234125
27.083333	1	0.236125
27.100000	1	0.239125
27.116667	1	0.243750
27.133333	1	0.248500
27.150000	1	0.255000
27.166667	1	0.262625
27.183333	1	0.271000
27.200000	1	0.281375
27.216667	1	0.293000
27.233333	1	0.306875
27.250000	1	0.322875
27.266667	1	0.341500
27.283333	1	0.363250
27.300000	1	0.388375
27.316667	1	0.416500
27.333333	1	0.449125
27.350000	1	0.485625
27.366667	1	0.528250
27.383333	1	0.575750
27.400000	1	0.630500
27.416667	1	0.691500
27.433333	1	0.760000
27.450000	1	0.837000
27.466667	1	0.922625
27.483333	1	1.016875
27.500000	1	1.120625
27.516667	1	1.234250
27.533333	1	1.357625
27.550000	1	1.490625
27.566667	1	1.632500
27.583333	1	1.783750
27.600000	1	1.942875
27.616667	1	2.109125
27.633333	1	2.281375
27.650000	1	2.459875
27.666667	1	2.641125
27.683333	1	2.823125
27.700000	1	3.004750
27.716667	1	3.182500
27.733333	1	3.354375
27.750000	1	3.516750
27.766667	1	3.669000
27.783333	1	3.807375
27.800000	1	3.930750
27.816667	1	4.036250
27.833333	1	4.122375
27.850000	1	4.187375
27.866667	1	4.230750
27.883333	1	4.249375
27.900000	1	4.244750
27.916667	1	4.216000
27.933333	1	4.165000
27.950000	1	4.092125
27.966667	1	3.997875
27.983333	1	3.884500
28.000000	1	3.755250
28.016667	1	3.610750
28.033333	1	3.454500
28.050000	1	3.287500
28.066667	1	3.113375
28.083333	1	2.934750
28.100000	1	2.753875
28.116667	1	2.573875
28.133333	1	2.394875
28.150000	1	2.220875
28.166667	1	2.052750
28.183333	1	1.891875
28.200000	1	1.739250
28.216667	1	1.594750
28.233333	1	1.459750
28.250000	1	1.334375
28.266667	1	1.218500
28.283333	1	1.112000
28.300000	1	1.015375
28.316667	1	0.927125
28.333333	1	0.848500
28.350000	1	0.777125
28.366667	1	0.715375
28.383333	1	0.660500
28.400000	1	0.612750
28.416667	1	0.571375
28.433333	1	0.536125
28.450000	1	0.505875
28.466667	1	0.480875
28.483333	1	0.460375
28.500000	1	0.444250
28.516667	1	0.431250
28.533333	1	0.422000
28.550000	1	0.415750
28.566667	1	0.413375
28.583333	1	0.412000
28.600000	1	0.414125
28.616667	1	0.418125
28.633333	1	0.424000
28.650000	1	0.431375
28.666667	1	0.440125
28.683333	1	0.449375
28.700000	1	0.459500
28.716667	1	0.470000
28.733333	1	0.481125
28.750000	1	0.492750
28.766667	1	0.503875
28.783333	1	0.515750
28.800000	1	0.526375
28.816667	1	0.536250
28.833333	1	0.545750
28.850000	1	0.555250
28.866667	1	0.563875
28.883333	1	0.571625
28.900000	1	0.577500
28.916667	1	0.583125
28.933333	1	0.586625
28.950000	1	0.589000
28.966667	1	0.589500
28.983333	1	0.588375
29.000000	1	0.586750
29.016667	1	0.583125
29.033333	1	0.577125
29.050000	1	0.570125
29.066667	1	0.560375
29.083333	1	0.548625
29.100000	1	0.534875
29.116667	1	0.519375
29.133333	1	0.501750
29.150000	1	0.481625
29.166667	1	0.459750
29.183333	1	0.435750
29.200000	1	0.410125
29.216667	1	0.381125
29.233333	1	0.350125
29.250000	1	0.316000
29.266667	1	0.280000
29.283333	1	0.241500
29.300000	1	0.200625
29.316667	1	0.158125
29.333333	1	0.113000
29.350000	1	0.065625
29.366667	1	0.015875
29.383333	1	-0.035625
29.400000	1	-0.088375
29.416667	1	-0.142750
29.433333	1	-0.198250
29.450000	1	-0.255000
29.466667	1	-0.312375
29.483333	1	-0.370375
29.500000	1	-0.428375
29.516667	1	-0.485500
29.533333	1	-0.542875
29.550000	1	-0.598625
29.566667	1	-0.653125
29.583333	1	-0.705625
29.600000	1	-0.755375
29.616667	1	-0.802000
29.633333	1	-0.846375
29.650000	1	-0.886875
29.666667	1	-0.923250
29.683333	1	-0.955250
29.700000	1	-0.982750
29.716667	1	-1.006375
29.733333	1	-1.023875
29.750000	1	-1.037500
29.766667	1	-1.045500
29.783333	1	-1.049250
29.800000	1	-1.047375
29.816667	1	-1.040500
29.833333	1	-1.029750
29.850000	1	-1.013500
29.866667	1	-0.993875
29.883333	1	-0.970875
29.900000	1	-0.944250
29.916667	1	-0.914375
29.933333	1	-0.881375
29.950000	1	-0.846250
29.966667	1	-0.808500
29.983333	1	-0.769625
30.000000	1	-0.730125
30.016667	1	-0.689375
30.033333	1	-0.648500
30.050000	1	-0.607750
30.066667	1	-0.566500
30.083333	1	-0.525750
30.100000	1	-0.485125
30.116667	1	-0.445625
30.133333	1	-0.407750
30.150000	1	-0.371250
30.166667	1	-0.336125
30.183333	1	-0.302375
30.200000	1	-0.269750
30.216667	1	-0.238750
30.233333	1	-0.209750
30.250000	1	-0.181625
30.266667	1	-0.155750
30.283333	1	-0.131000
30.300000	1	-0.108625
30.316667	1	-0.087000
30.333333	1	-0.067500
30.350000	1	-0.048750
30.366667	1	-0.031750
30.383333	1	-0.016125
30.400000	1	-0.001625
30.416667	1	0.012125
30.433333	1	0.025250
30.450000	1	0.037625
30.466667	1	0.048500
30.483333	1	0.059250
30.500000	1	0.069125
30.516667	1	0.078875
30.533333	1	0.088500
30.550000	1	0.097625
30.566667	1	0.106000
30.583333	1	0.114750
30.600000	1	0.123750
30.616667	1	0.132375
30.633333	1	0.141875
30.650000	1	0.150375
30.666667	1	0.159000
30.683333	1	0.168625
30.700000	1	0.179000
30.716667	1	0.189375
30.733333	1	0.199375
30.750000	1	0.210875
30.766667	1	0.223375
30.783333	1	0.236750
30.800000	1	0.250625
30.816667	1	0.266125
30.833333	1	0.282625
30.850000	1	0.299500
30.866667	1	0.319125
30.883333	1	0.340250
30.900000	1	0.362625
30.916667	1	0.387250
30.933333	1	0.414125
30.950000	1	0.443625
30.966667	1	0.476500
30.983333	1	0.512875
31.000000	1	0.553000
31.016667	1	0.598500
31.033333	1	0.648125
31.050000	1	0.704375
31.066667	1	0.765875
31.083333	1	0.835500
31.100000	1	0.912750
31.116667	1	0.997250
31.133333	1	1.091500
31.150000	1	1.195500
31.166667	1	1.309750
31.183333	1	1.434875
31.200000	1	1.570750
31.216667	1	1.718375
31.233333	1	1.878125
31.250000	1	2.049000
31.266667	1	2.231375
31.283333	1	2.424000
31.300000	1	2.626250
31.316667	1	2.837750
31.333333	1	3.057500
31.350000	1	3.283000
31.366667	1	3.513125
31.383333	1	3.746750
31.400000	1	3.981625
31.416667	1	4.214500
31.433333	1	4.442750
31.450000	1	4.664250
31.466667	1	4.876000
31.483333	1	5.075000
31.500000	1	5.259750
31.516667	1	5.428125
31.533333	1	5.576875
31.550000	1	5.704750
31.566667	1	5.809375
31.583333	1	5.891250
31.600000	1	5.947625
31.616667	1	5.978250
31.633333	1	5.981500
31.650000	1	5.959250
31.666667	1	5.912125
31.683333	1	5.840375
31.700000	1	5.744500
31.716667	1	5.627625
31.733333	1	5.490875
31.750000	1	5.337125
31.766667	1	5.167000
31.783333	1	4.982750
31.800000	1	4.787000
31.816667	1	4.582000
31.833333	1	4.369750
31.850000	1	4.153000
31.866667	1	3.934625
31.883333	1	3.715000
31.900000	1	3.498250
31.916667	1	3.283375
31.933333	1	3.074125
31.950000	1	2.869750
31.966667	1	2.672625
31.983333	1	2.481750
32.000000	1	2.299375
32.016667	1	2.125375
32.033333	1	1.960875
32.050000	1	1.805000
32.066667	1	1.659125
32.083333	1	1.522000
32.100000	1	1.393500
32.116667	1	1.275125
32.133333	1	1.165500
32.150000	1	1.063750
32.166667	1	0.969875
32.183333	1	0.883125
32.200000	1	0.803125
32.216667	1	0.730500
32.233333	1	0.663625
32.250000	1	0.602375
32.266667	1	0.546250
32.283333	1	0.495375
32.300000	1	0.448375
32.316667	1	0.405500
32.333333	1	0.367000
32.350000	1	0.332000
32.366667	1	0.299250
32.383333	1	0.270250
32.400000	1	0.243250
32.416667	1	0.219125
32.433333	1	0.196500
32.450000	1	0.176375
32.466667	1	0.158375
32.483333	1	0.141500
32.500000	1	0.125875
32.516667	1	0.111375
32.533333	1	0.098625
32.550000	1	0.086125
32.566667	1	0.075125
32.583333	1	0.065375
32.600000	1	0.055875
32.616667	1	0.046875
32.633333	1	0.038750
32.650000	1	0.032000
32.666667	1	0.026000
32.683333	1	0.019875
32.700000	1	0.014125
32.716667	1	0.008375
32.733333	1	0.004125
32.750000	1	0.000125
32.766667	1	-0.003375
32.783333	1	-0.007000
32.800000	1	-0.010500
32.816667	1	-0.013000
32.833333	1	-0.015250
32.850000	1	-0.017500
32.866667	1	-0.019375
32.883333	1	-0.021250
32.900000	1	-0.022375
32.916667	1	-0.023750
32.933333	1	-0.026000
32.950000	1	-0.026625
32.966667	1	-0.028250
32.983333	1	-0.028625
33.000000	1	-0.029500
33.016667	1	-0.030500
33.033333	1	-0.031000
33.050000	1	-0.031750
33.066667	1	-0.032500
33.083333	1	-0.033125
33.100000	1	-0.033000
33.116667	1	-0.033250
33.133333	1	-0.033500
33.150000	1	-0.034000
33.166667	1	-0.033625
33.183333	1	-0.033500
33.200000	1	-0.031875
33.216667	1	-0.031750
33.233333	1	-0.029875
33.250000	1	-0.028500
33.266667	1	-0.027000
33.283333	1	-0.025000
33.300000	1	-0.022750
33.316667	1	-0.020375
33.333333	1	-0.018250
33.350000	1	-0.015500
33.366667	1	-0.012375
33.383333	1	-0.009250
33.400000	1	-0.006500
33.416667	1	-0.003125
33.433333	1	0.000500
33.450000	1	0.003625
33.466667	1	0.007250
33.483333	1	0.011000
33.500000	1	0.014250
33.516667	1	0.018125
33.533333	1	0.022000
33.550000	1	0.025250
33.566667	1	0.028625
33.583333	1	0.032500
33.600000	1	0.035250
33.616667	1	0.039500
33.633333	1	0.043125
33.650000	1	0.045750
33.666667	1	0.049000
33.683333	1	0.052750
33.700000	1	0.055750
33.716667	1	0.058750
33.733333	1	0.061375
33.750000	1	0.064625
33.766667	1	0.067750
33.783333	1	0.070750
33.800000	1	0.073875
33.816667	1	0.076375
33.833333	1	0.079375
33.850000	1	0.082250
33.866667	1	0.085000
33.883333	1	0.088250
33.900000	1	0.090250
33.916667	1	0.093250
33.933333	1	0.095875
33.950000	1	0.097875
33.966667	1	0.100375
33.983333	1	0.102625
34.000000	1	0.104625
34.016667	1	0.105875
34.033333	1	0.107500
34.050000	1	0.109000
34.066667	1	0.110625
34.083333	1	0.111000
34.100000	1	0.111625
34.116667	1	0.112125
34.133333	1	0.112750
34.150000	1	0.112625
34.166667	1	0.112500
34.183333	1	0.112250
34.200000	1	0.111625
34.216667	1	0.110625
34.233333	1	0.109875
34.250000	1	0.109000
34.266667	1	0.108000
34.283333	1	0.107625
34.300000	1	0.106250
34.316667	1	0.105000
34.333333	1	0.104000
34.350000	1	0.102625
34.366667	1	0.101375
34.383333	1	0.101125
34.400000	1	0.100750
34.416667	1	0.099625
34.433333	1	0.098375
34.450000	1	0.097500
34.466667	1	0.096875
34.483333	1	0.096875
34.500000	1	0.096250
34.516667	1	0.095875
34.533333	1	0.096375
34.550000	1	0.097750
34.566667	1	0.099000
34.583333	1	0.100250
34.600000	1	0.101625
34.616667	1	0.102000
34.633333	1	0.102250
34.650000	1	0.103125
34.666667	1	0.104125
34.683333	1	0.106125
34.700000	1	0.107000
34.716667	1	0.107750
34.733333	1	0.109500
34.750000	1	0.110875
34.766667	1	0.111750
34.783333	1	0.112625
34.800000	1	0.113750
34.816667	1	0.114375
34.833333	1	0.115625
34.850000	1	0.116500
34.866667	1	0.116875
34.883333	1	0.117500
34.900000	1	0.117625
34.916667	1	0.118125
34.933333	1	0.118000
34.950000	1	0.118125
34.966667	1	0.117500
34.983333	1	0.117375
35.000000	1	0.116000
35.016667	1	0.115000
35.033333	1	0.114625
35.050000	1	0.113500
35.066667	1	0.112000
35.083333	1	0.110250
35.100000	1	0.108500
35.116667	1	0.107125
35.133333	1	0.105625
35.150000	1	0.103375
35.166667	1	0.100750
35.183333	1	0.098500
35.200000	1	0.096125
35.216667	1	0.093625
35.233333	1	0.090375
35.250000	1	0.086875
35.266667	1	0.084750
35.283333	1	0.082125
35.300000	1	0.079625
35.316667	1	0.077500
35.333333	1	0.075375
35.350000	1	0.073375
35.366667	1	0.071625
35.383333	1	0.070000
35.400000	1	0.068000
35.416667	1	0.067000
35.433333	1	0.065625
35.450000	1	0.064375
35.466667	1	0.063875
35.483333	1	0.062500
35.500000	1	0.062250
35.516667	1	0.062500
35.533333	1	0.062625
35.550000	1	0.064000
35.566667	1	0.064875
35.583333	1	0.064750
35.600000	1	0.066250
35.616667	1	0.067500
35.633333	1	0.069375
35.650000	1	0.070125
35.666667	1	0.072250
35.683333	1	0.074750
35.700000	1	0.076625
35.716667	1	0.078000
35.733333	1	0.079750
35.750000	1	0.082250
35.766667	1	0.084500
35.783333	1	0.086875
35.800000	1	0.090125
35.816667	1	0.092625
35.833333	1	0.095375
35.850000	1	0.098500
35.866667	1	0.101125
35.883333	1	0.103625
35.900000	1	0.106375
35.916667	1	0.108250
35.933333	1	0.110375
35.950000	1	0.112875
35.966667	1	0.115000
35.983333	1	0.117250
36.000000	1	0.119000
36.016667	1	0.120875
36.033333	1	0.121750
36.050000	1	0.123250
36.066667	1	0.125250
36.083333	1	0.127125
36.100000	1	0.129375
36.116667	1	0.130750
36.133333	1	0.132375
36.150000	1	0.133250
36.166667	1	0.134500
36.183333	1	0.135500
36.200000	1	0.137000
36.216667	1	0.138500
36.233333	1	0.139500
36.250000	1	0.140250
36.266667	1	0.141750
36.283333	1	0.144125
36.300000	1	0.145750
36.316667	1	0.147375
36.333333	1	0.149000
36.350000	1	0.150625
36.366667	1	0.151000
36.383333	1	0.152625
36.400000	1	0.153750
36.416667	1	0.154875
36.433333	1	0.155750
36.450000	1	0.156875
36.466667	1	0.158000
36.483333	1	0.158750
36.500000	1	0.159250
36.516667	1	0.160125
36.533333	1	0.160500
36.550000	1	0.160250
36.566667	1	0.159750
36.583333	1	0.158875
36.600000	1	0.157500
36.616667	1	0.156625
36.633333	1	0.155125
36.650000	1	0.153375
36.666667	1	0.150875
36.683333	1	0.148500
36.700000	1	0.145625
36.716667	1	0.142625
36.733333	1	0.138750
36.750000	1	0.134875
36.766667	1	0.131375
36.783333	1	0.127375
36.800000	1	0.122625
36.816667	1	0.117125
36.833333	1	0.112625
36.850000	1	0.107250
36.866667	1	0.102750
36.883333	1	0.097625
36.900000	1	0.093500
36.916667	1	0.089000
36.933333	1	0.084375
36.950000	1	0.079625
36.966667	1	0.075625
36.983333	1	0.071875
37.000000	1	0.069125
37.016667	1	0.065375
37.033333	1	0.062000
37.050000	1	0.059750
37.066667	1	0.057375
37.083333	1	0.055875
37.100000	1	0.054125
37.116667	1	0.053500
37.133333	1	0.052250
37.150000	1	0.051625
37.166667	1	0.051250
37.183333	1	0.051000
37.200000	1	0.050875
37.216667	1	0.051250
37.233333	1	0.051375
37.250000	1	0.051500
37.266667	1	0.051875
37.283333	1	0.052625
37.300000	1	0.053625
37.316667	1	0.054500
37.333333	1	0.054875
37.350000	1	0.054875
37.366667	1	0.054875
37.383333	1	0.054875
37.400000	1	0.054500
37.416667	1	0.054875
37.433333	1	0.054875
37.450000	1	0.054750
37.466667	1	0.054625
37.483333	1	0.054125
37.500000	1	0.053375
37.516667	1	0.053000
37.533333	1	0.052500
37.550000	1	0.052125
37.566667	1	0.051750
37.583333	1	0.050750
37.600000	1	0.049625
37.616667	1	0.048625
37.633333	1	0.047750
37.650000	1	0.047000
37.666667	1	0.046750
37.683333	1	0.045875
37.700000	1	0.044750
37.716667	1	0.043250
37.733333	1	0.042250
37.750000	1	0.041500
37.766667	1	0.039875
37.783333	1	0.038125
37.800000	1	0.036750
37.816667	1	0.035000
37.833333	1	0.032500
37.850000	1	0.030750
37.866667	1	0.028625
37.883333	1	0.026875
37.900000	1	0.024125
37.916667	1	0.022250
37.933333	1	0.019750
37.950000	1	0.017500
37.966667	1	0.015375
37.983333	1	0.013000
38.000000	1	0.010500
38.016667	1	0.008500
38.033333	1	0.006500
38.050000	1	0.005000
38.066667	1	0.002750
38.083333	1	0.001125
38.100000	1	0.000000
38.116667	1	-0.001375
38.133333	1	-0.002250
38.150000	1	-0.003125
38.166667	1	-0.004125
38.183333	1	-0.004250
38.200000	1	-0.004250
38.216667	1	-0.004125
38.233333	1	-0.003625
38.250000	1	-0.002875
38.266667	1	-0.002250
38.283333	1	-0.001750
38.300000	1	-0.001125
38.316667	1	0.000125
38.333333	1	0.001250
38.350000	1	0.002000
38.366667	1	0.003000
38.383333	1	0.005375
38.400000	1	0.006250
38.416667	1	0.007125
38.433333	1	0.008250
38.450000	1	0.009125
38.466667	1	0.009500
38.483333	1	0.010500
38.500000	1	0.010500
38.516667	1	0.010375
38.533333	1	0.010375
38.550000	1	0.010375
38.566667	1	0.010250
38.583333	1	0.009875
38.600000	1	0.009125
38.616667	1	0.009125
38.633333	1	0.008625
38.650000	1	0.008125
38.666667	1	0.007750
38.683333	1	0.007500
38.700000	1	0.007375
38.716667	1	0.007000
38.733333	1	0.006750
38.750000	1	0.007250
38.766667	1	0.008000
38.783333	1	0.008625
38.800000	1	0.009625
38.816667	1	0.010500
38.833333	1	0.011000
38.850000	1	0.012750
38.866667	1	0.014000
38.883333	1	0.015250
38.900000	1	0.016875
38.916667	1	0.018750
38.933333	1	0.021000
38.950000	1	0.022625
38.966667	1	0.025125
38.983333	1	0.027125
39.000000	1	0.029000
39.016667	1	0.031000
39.033333	1	0.032750
39.050000	1	0.034750
39.066667	1	0.035875
39.083333	1	0.037125
39.100000	1	0.038750
39.116667	1	0.038500
39.133333	1	0.038250
39.150000	1	0.038000
39.166667	1	0.037875
39.183333	1	0.037625
39.200000	1	0.037375
39.216667	1	0.036375
39.233333	1	0.035250
39.250000	1	0.034500
39.266667	1	0.033625
39.283333	1	0.032250
39.300000	1	0.030500
39.316667	1	0.028750
39.333333	1	0.027250
39.350000	1	0.025375
39.366667	1	0.023875
39.383333	1	0.022875
39.400000	1	0.021500
39.416667	1	0.020375
39.433333	1	0.018625
39.450000	1	0.017750
39.466667	1	0.017375
39.483333	1	0.016250
39.500000	1	0.015750
39.516667	1	0.015250
39.533333	1	0.013875
39.550000	1	0.013125
39.566667	1	0.013125
39.583333	1	0.013000
39.600000	1	0.012875
39.616667	1	0.012750
39.633333	1	0.013375
39.650000	1	0.014000
39.666667	1	0.013625
39.683333	1	0.014000
39.700000	1	0.014000
39.716667	1	0.013375
39.733333	1	0.013750
39.750000	1	0.013125
39.766667	1	0.013250
39.783333	1	0.012875
39.800000	1	0.012500
39.816667	1	0.012625
39.833333	1	0.011625
39.850000	1	0.011000
39.866667	1	0.010625
39.883333	1	0.010375
39.900000	1	0.009375
39.916667	1	0.008500
39.933333	1	0.006875
39.950000	1	0.005750
39.966667	1	0.003750
39.983333	1	0.002125
40.000000	1	0.000750
