URL	chrom://bioreactor/micro_cm7/HPLC_Ultimate_3000/Users/markusar/20240517_CMO_FP23_FP25_MarkusDeplate.seq/594.smp/RI_1.channel/RI_1.chm
Channel	RI_1

Injection Information:
Data Vault	micro_cm7
Sequence	20240517_CMO_FP23_FP25_MarkusDeplate
Name	FP28_22.4_s1
Number	156
Position	BB10
Comment	
Processing Method	
Instrument Method	run_25B_method
Type	Unknown
Status	Finished
Inject Time	01.06.2024 05:39:09 +02:00
Volume (µl)	20.0000
Dilution Factor	1.0000
Weight	1.0000

Chromatogram Data Information:
Time Min. (min)	0.000000
Time Max. (min)	40.000000
Data Points	2401
Detector	RI
Generating Data System	Chromeleon 7.3.2.11814
Exporting Data System	Chromeleon 7.3.2.0
Operator	Instrument Controller
Signal Quantity	Refractive 
Signal Unit	µRIU
Signal Min.	-0.976500
Signal Max.	60.665375
Channel	RI_1
Driver Name	RID520Driver.dll
Channel Type	Evaluation
Min. Step (s)	1
Max. Step (s)	1
Average Step (s)	1

Signal Parameter Information:
Signal Info	

Chromatogram Data:
Time (min)	Step (s)	Value (µRIU)
0.000000	n.a.	0.008750
0.016667	1	0.007250
0.033333	1	0.006875
0.050000	1	0.006750
0.066667	1	0.006125
0.083333	1	0.006500
0.100000	1	0.007000
0.116667	1	0.007125
0.133333	1	0.007875
0.150000	1	0.008750
0.166667	1	0.009500
0.183333	1	0.010625
0.200000	1	0.011375
0.216667	1	0.012625
0.233333	1	0.013750
0.250000	1	0.016125
0.266667	1	0.018000
0.283333	1	0.020250
0.300000	1	0.022000
0.316667	1	0.024375
0.333333	1	0.027125
0.350000	1	0.029500
0.366667	1	0.032375
0.383333	1	0.034625
0.400000	1	0.038000
0.416667	1	0.041125
0.433333	1	0.044125
0.450000	1	0.047750
0.466667	1	0.051125
0.483333	1	0.054500
0.500000	1	0.058000
0.516667	1	0.061125
0.533333	1	0.064750
0.550000	1	0.067625
0.566667	1	0.070125
0.583333	1	0.073000
0.600000	1	0.075625
0.616667	1	0.078000
0.633333	1	0.080125
0.650000	1	0.083125
0.666667	1	0.085750
0.683333	1	0.087500
0.700000	1	0.088875
0.716667	1	0.091125
0.733333	1	0.092000
0.750000	1	0.093375
0.766667	1	0.094125
0.783333	1	0.095000
0.800000	1	0.094750
0.816667	1	0.094625
0.833333	1	0.094000
0.850000	1	0.093750
0.866667	1	0.092875
0.883333	1	0.091875
0.900000	1	0.090750
0.916667	1	0.088750
0.933333	1	0.087375
0.950000	1	0.085500
0.966667	1	0.084250
0.983333	1	0.082250
1.000000	1	0.080875
1.016667	1	0.078875
1.033333	1	0.077000
1.050000	1	0.075000
1.066667	1	0.072625
1.083333	1	0.071000
1.100000	1	0.069125
1.116667	1	0.067500
1.133333	1	0.065125
1.150000	1	0.063875
1.166667	1	0.061875
1.183333	1	0.059750
1.200000	1	0.057750
1.216667	1	0.056375
1.233333	1	0.054625
1.250000	1	0.053125
1.266667	1	0.052250
1.283333	1	0.051375
1.300000	1	0.049625
1.316667	1	0.048750
1.333333	1	0.047375
1.350000	1	0.046750
1.366667	1	0.045625
1.383333	1	0.044875
1.400000	1	0.043750
1.416667	1	0.042750
1.433333	1	0.041500
1.450000	1	0.040125
1.466667	1	0.039250
1.483333	1	0.038875
1.500000	1	0.037750
1.516667	1	0.036750
1.533333	1	0.035625
1.550000	1	0.035625
1.566667	1	0.034875
1.583333	1	0.034875
1.600000	1	0.034375
1.616667	1	0.034000
1.633333	1	0.034000
1.650000	1	0.034375
1.666667	1	0.035750
1.683333	1	0.036125
1.700000	1	0.037625
1.716667	1	0.037750
1.733333	1	0.038875
1.750000	1	0.039875
1.766667	1	0.041125
1.783333	1	0.043125
1.800000	1	0.045750
1.816667	1	0.048125
1.833333	1	0.049875
1.850000	1	0.052875
1.866667	1	0.055625
1.883333	1	0.058875
1.900000	1	0.062000
1.916667	1	0.064875
1.933333	1	0.067625
1.950000	1	0.070125
1.966667	1	0.072875
1.983333	1	0.076250
2.000000	1	0.079000
2.016667	1	0.081500
2.033333	1	0.083875
2.050000	1	0.086250
2.066667	1	0.088500
2.083333	1	0.090375
2.100000	1	0.091750
2.116667	1	0.093125
2.133333	1	0.093625
2.150000	1	0.093500
2.166667	1	0.093500
2.183333	1	0.093750
2.200000	1	0.093500
2.216667	1	0.093125
2.233333	1	0.092500
2.250000	1	0.091250
2.266667	1	0.090000
2.283333	1	0.088500
2.300000	1	0.087375
2.316667	1	0.086250
2.333333	1	0.085875
2.350000	1	0.083875
2.366667	1	0.082375
2.383333	1	0.081625
2.400000	1	0.080125
2.416667	1	0.078875
2.433333	1	0.078125
2.450000	1	0.077250
2.466667	1	0.076375
2.483333	1	0.075625
2.500000	1	0.075500
2.516667	1	0.075500
2.533333	1	0.074625
2.550000	1	0.074625
2.566667	1	0.074125
2.583333	1	0.074125
2.600000	1	0.073750
2.616667	1	0.074625
2.633333	1	0.074750
2.650000	1	0.075000
2.666667	1	0.075000
2.683333	1	0.075875
2.700000	1	0.076000
2.716667	1	0.076500
2.733333	1	0.076750
2.750000	1	0.077000
2.766667	1	0.078000
2.783333	1	0.079125
2.800000	1	0.079875
2.816667	1	0.081125
2.833333	1	0.082000
2.850000	1	0.082750
2.866667	1	0.083250
2.883333	1	0.084625
2.900000	1	0.085125
2.916667	1	0.085875
2.933333	1	0.086625
2.950000	1	0.086875
2.966667	1	0.087250
2.983333	1	0.086875
3.000000	1	0.087500
3.016667	1	0.087750
3.033333	1	0.087750
3.050000	1	0.087625
3.066667	1	0.087375
3.083333	1	0.087125
3.100000	1	0.087125
3.116667	1	0.086875
3.133333	1	0.086750
3.150000	1	0.086000
3.166667	1	0.085500
3.183333	1	0.084875
3.200000	1	0.084500
3.216667	1	0.083625
3.233333	1	0.083000
3.250000	1	0.082625
3.266667	1	0.082625
3.283333	1	0.082875
3.300000	1	0.082500
3.316667	1	0.083375
3.333333	1	0.083250
3.350000	1	0.083500
3.366667	1	0.084125
3.383333	1	0.085375
3.400000	1	0.086250
3.416667	1	0.088000
3.433333	1	0.089375
3.450000	1	0.091875
3.466667	1	0.093250
3.483333	1	0.095625
3.500000	1	0.097375
3.516667	1	0.100000
3.533333	1	0.102250
3.550000	1	0.104250
3.566667	1	0.106750
3.583333	1	0.108875
3.600000	1	0.111375
3.616667	1	0.114375
3.633333	1	0.116750
3.650000	1	0.119500
3.666667	1	0.121625
3.683333	1	0.123750
3.700000	1	0.125750
3.716667	1	0.127125
3.733333	1	0.128000
3.750000	1	0.129500
3.766667	1	0.130375
3.783333	1	0.131250
3.800000	1	0.131875
3.816667	1	0.131500
3.833333	1	0.132375
3.850000	1	0.132000
3.866667	1	0.132375
3.883333	1	0.132250
3.900000	1	0.132625
3.916667	1	0.133125
3.933333	1	0.132875
3.950000	1	0.132500
3.966667	1	0.132375
3.983333	1	0.132500
4.000000	1	0.132875
4.016667	1	0.132500
4.033333	1	0.133125
4.050000	1	0.133750
4.066667	1	0.134125
4.083333	1	0.134875
4.100000	1	0.135625
4.116667	1	0.136250
4.133333	1	0.137000
4.150000	1	0.138125
4.166667	1	0.139125
4.183333	1	0.139500
4.200000	1	0.140750
4.216667	1	0.141875
4.233333	1	0.143250
4.250000	1	0.144500
4.266667	1	0.145875
4.283333	1	0.146750
4.300000	1	0.148000
4.316667	1	0.148750
4.333333	1	0.149250
4.350000	1	0.150500
4.366667	1	0.151500
4.383333	1	0.152875
4.400000	1	0.153125
4.416667	1	0.153375
4.433333	1	0.154375
4.450000	1	0.154500
4.466667	1	0.155125
4.483333	1	0.156000
4.500000	1	0.156750
4.516667	1	0.157250
4.533333	1	0.157625
4.550000	1	0.157875
4.566667	1	0.158375
4.583333	1	0.158500
4.600000	1	0.159500
4.616667	1	0.160250
4.633333	1	0.161375
4.650000	1	0.161750
4.666667	1	0.162375
4.683333	1	0.163125
4.700000	1	0.164250
4.716667	1	0.165375
4.733333	1	0.166125
4.750000	1	0.167250
4.766667	1	0.168375
4.783333	1	0.169750
4.800000	1	0.171500
4.816667	1	0.173125
4.833333	1	0.174375
4.850000	1	0.176125
4.866667	1	0.177000
4.883333	1	0.178375
4.900000	1	0.178625
4.916667	1	0.180000
4.933333	1	0.181125
4.950000	1	0.182500
4.966667	1	0.184125
4.983333	1	0.186125
5.000000	1	0.187750
5.016667	1	0.189625
5.033333	1	0.191500
5.050000	1	0.193375
5.066667	1	0.195375
5.083333	1	0.197875
5.100000	1	0.199875
5.116667	1	0.202125
5.133333	1	0.204875
5.150000	1	0.207750
5.166667	1	0.211000
5.183333	1	0.214125
5.200000	1	0.217625
5.216667	1	0.220500
5.233333	1	0.223500
5.250000	1	0.226750
5.266667	1	0.230750
5.283333	1	0.234125
5.300000	1	0.238000
5.316667	1	0.241875
5.333333	1	0.245875
5.350000	1	0.249875
5.366667	1	0.253625
5.383333	1	0.258000
5.400000	1	0.262375
5.416667	1	0.266875
5.433333	1	0.270875
5.450000	1	0.274875
5.466667	1	0.279500
5.483333	1	0.284000
5.500000	1	0.288000
5.516667	1	0.292375
5.533333	1	0.296000
5.550000	1	0.299750
5.566667	1	0.303000
5.583333	1	0.306375
5.600000	1	0.309750
5.616667	1	0.312625
5.633333	1	0.315625
5.650000	1	0.318875
5.666667	1	0.321500
5.683333	1	0.323875
5.700000	1	0.325500
5.716667	1	0.327625
5.733333	1	0.329000
5.750000	1	0.329750
5.766667	1	0.330625
5.783333	1	0.330875
5.800000	1	0.331000
5.816667	1	0.330875
5.833333	1	0.330500
5.850000	1	0.329875
5.866667	1	0.329000
5.883333	1	0.328625
5.900000	1	0.327875
5.916667	1	0.326125
5.933333	1	0.324625
5.950000	1	0.323125
5.966667	1	0.321375
5.983333	1	0.319750
6.000000	1	0.317625
6.016667	1	0.315500
6.033333	1	0.313125
6.050000	1	0.310875
6.066667	1	0.308875
6.083333	1	0.306125
6.100000	1	0.303000
6.116667	1	0.300000
6.133333	1	0.296875
6.150000	1	0.293750
6.166667	1	0.290375
6.183333	1	0.286500
6.200000	1	0.283125
6.216667	1	0.279125
6.233333	1	0.274750
6.250000	1	0.270750
6.266667	1	0.265875
6.283333	1	0.261250
6.300000	1	0.256375
6.316667	1	0.252125
6.333333	1	0.247375
6.350000	1	0.243000
6.366667	1	0.238875
6.383333	1	0.234250
6.400000	1	0.229250
6.416667	1	0.224125
6.433333	1	0.220375
6.450000	1	0.216625
6.466667	1	0.212250
6.483333	1	0.207750
6.500000	1	0.204375
6.516667	1	0.200875
6.533333	1	0.197500
6.550000	1	0.194750
6.566667	1	0.191750
6.583333	1	0.189875
6.600000	1	0.187125
6.616667	1	0.185125
6.633333	1	0.183250
6.650000	1	0.181250
6.666667	1	0.179875
6.683333	1	0.178250
6.700000	1	0.177375
6.716667	1	0.177250
6.733333	1	0.176875
6.750000	1	0.177125
6.766667	1	0.177125
6.783333	1	0.177000
6.800000	1	0.177000
6.816667	1	0.177625
6.833333	1	0.178000
6.850000	1	0.179375
6.866667	1	0.180375
6.883333	1	0.181000
6.900000	1	0.182250
6.916667	1	0.182875
6.933333	1	0.184625
6.950000	1	0.185875
6.966667	1	0.187375
6.983333	1	0.189500
7.000000	1	0.191500
7.016667	1	0.193875
7.033333	1	0.195375
7.050000	1	0.196625
7.066667	1	0.198000
7.083333	1	0.199625
7.100000	1	0.201000
7.116667	1	0.202000
7.133333	1	0.203250
7.150000	1	0.204500
7.166667	1	0.205875
7.183333	1	0.207375
7.200000	1	0.208125
7.216667	1	0.209000
7.233333	1	0.210000
7.250000	1	0.210375
7.266667	1	0.210875
7.283333	1	0.212000
7.300000	1	0.212625
7.316667	1	0.213625
7.333333	1	0.214000
7.350000	1	0.214500
7.366667	1	0.215500
7.383333	1	0.216125
7.400000	1	0.216625
7.416667	1	0.217250
7.433333	1	0.217250
7.450000	1	0.218000
7.466667	1	0.217625
7.483333	1	0.218250
7.500000	1	0.219625
7.516667	1	0.219500
7.533333	1	0.219375
7.550000	1	0.220375
7.566667	1	0.221250
7.583333	1	0.221375
7.600000	1	0.221500
7.616667	1	0.221875
7.633333	1	0.222000
7.650000	1	0.221500
7.666667	1	0.221375
7.683333	1	0.222125
7.700000	1	0.222000
7.716667	1	0.221500
7.733333	1	0.220875
7.750000	1	0.220625
7.766667	1	0.220250
7.783333	1	0.219875
7.800000	1	0.218500
7.816667	1	0.217250
7.833333	1	0.216125
7.850000	1	0.214375
7.866667	1	0.212250
7.883333	1	0.210250
7.900000	1	0.208000
7.916667	1	0.206125
7.933333	1	0.204125
7.950000	1	0.201750
7.966667	1	0.198625
7.983333	1	0.195875
8.000000	1	0.193125
8.016667	1	0.189375
8.033333	1	0.185625
8.050000	1	0.181250
8.066667	1	0.177625
8.083333	1	0.173875
8.100000	1	0.170500
8.116667	1	0.167375
8.133333	1	0.163625
8.150000	1	0.159750
8.166667	1	0.156125
8.183333	1	0.152750
8.200000	1	0.149250
8.216667	1	0.145500
8.233333	1	0.142250
8.250000	1	0.138875
8.266667	1	0.136125
8.283333	1	0.133875
8.300000	1	0.131375
8.316667	1	0.128750
8.333333	1	0.126750
8.350000	1	0.124625
8.366667	1	0.123250
8.383333	1	0.121000
8.400000	1	0.119250
8.416667	1	0.118250
8.433333	1	0.117000
8.450000	1	0.116250
8.466667	1	0.115375
8.483333	1	0.114125
8.500000	1	0.113125
8.516667	1	0.112000
8.533333	1	0.111500
8.550000	1	0.110625
8.566667	1	0.109750
8.583333	1	0.109250
8.600000	1	0.108875
8.616667	1	0.109000
8.633333	1	0.108875
8.650000	1	0.108125
8.666667	1	0.107500
8.683333	1	0.106750
8.700000	1	0.106000
8.716667	1	0.106000
8.733333	1	0.106000
8.750000	1	0.105375
8.766667	1	0.105500
8.783333	1	0.104875
8.800000	1	0.104625
8.816667	1	0.104250
8.833333	1	0.104375
8.850000	1	0.104000
8.866667	1	0.103625
8.883333	1	0.103500
8.900000	1	0.103125
8.916667	1	0.102750
8.933333	1	0.102875
8.950000	1	0.102375
8.966667	1	0.102500
8.983333	1	0.102875
9.000000	1	0.103125
9.016667	1	0.103500
9.033333	1	0.103625
9.050000	1	0.103875
9.066667	1	0.103625
9.083333	1	0.104000
9.100000	1	0.103750
9.116667	1	0.103875
9.133333	1	0.103625
9.150000	1	0.104000
9.166667	1	0.104000
9.183333	1	0.104000
9.200000	1	0.103875
9.216667	1	0.103500
9.233333	1	0.103625
9.250000	1	0.103500
9.266667	1	0.103500
9.283333	1	0.103875
9.300000	1	0.103500
9.316667	1	0.104500
9.333333	1	0.104375
9.350000	1	0.104500
9.366667	1	0.104750
9.383333	1	0.105500
9.400000	1	0.105750
9.416667	1	0.105875
9.433333	1	0.106000
9.450000	1	0.107125
9.466667	1	0.107500
9.483333	1	0.108125
9.500000	1	0.108750
9.516667	1	0.109000
9.533333	1	0.109500
9.550000	1	0.110500
9.566667	1	0.110250
9.583333	1	0.110250
9.600000	1	0.110375
9.616667	1	0.110000
9.633333	1	0.109375
9.650000	1	0.109500
9.666667	1	0.108500
9.683333	1	0.108250
9.700000	1	0.107750
9.716667	1	0.106625
9.733333	1	0.105375
9.750000	1	0.104375
9.766667	1	0.102750
9.783333	1	0.101750
9.800000	1	0.100625
9.816667	1	0.099375
9.833333	1	0.098000
9.850000	1	0.096500
9.866667	1	0.095000
9.883333	1	0.094125
9.900000	1	0.092375
9.916667	1	0.090875
9.933333	1	0.089125
9.950000	1	0.088250
9.966667	1	0.087750
9.983333	1	0.087250
10.000000	1	0.086750
10.016667	1	0.086750
10.033333	1	0.086875
10.050000	1	0.088125
10.066667	1	0.090500
10.083333	1	0.093375
10.100000	1	0.097125
10.116667	1	0.102250
10.133333	1	0.108500
10.150000	1	0.115250
10.166667	1	0.123375
10.183333	1	0.133000
10.200000	1	0.143875
10.216667	1	0.156000
10.233333	1	0.170500
10.250000	1	0.187875
10.266667	1	0.206125
10.283333	1	0.227000
10.300000	1	0.250000
10.316667	1	0.275375
10.333333	1	0.302875
10.350000	1	0.330125
10.366667	1	0.357000
10.383333	1	0.381000
10.400000	1	0.399375
10.416667	1	0.413000
10.433333	1	0.421750
10.450000	1	0.428625
10.466667	1	0.441875
10.483333	1	0.473875
10.500000	1	0.544625
10.516667	1	0.684375
10.533333	1	0.932500
10.550000	1	1.340875
10.566667	1	1.966750
10.583333	1	2.871500
10.600000	1	4.113625
10.616667	1	5.739625
10.633333	1	7.784250
10.650000	1	10.262875
10.666667	1	13.178000
10.683333	1	16.514250
10.700000	1	20.236250
10.716667	1	24.286125
10.733333	1	28.578125
10.750000	1	32.989625
10.766667	1	37.352875
10.783333	1	41.447750
10.800000	1	44.999500
10.816667	1	47.696750
10.833333	1	49.235125
10.850000	1	49.384375
10.866667	1	48.055000
10.883333	1	45.342375
10.900000	1	41.525250
10.916667	1	37.000375
10.933333	1	32.194125
10.950000	1	27.473625
10.966667	1	23.097500
10.983333	1	19.217375
11.000000	1	15.888125
11.016667	1	13.103375
11.033333	1	10.820000
11.050000	1	8.976750
11.066667	1	7.506000
11.083333	1	6.341500
11.100000	1	5.423250
11.116667	1	4.699250
11.133333	1	4.127000
11.150000	1	3.671125
11.166667	1	3.304625
11.183333	1	3.007500
11.200000	1	2.763250
11.216667	1	2.560000
11.233333	1	2.389000
11.250000	1	2.242875
11.266667	1	2.115875
11.283333	1	2.006500
11.300000	1	1.909750
11.316667	1	1.823250
11.333333	1	1.746875
11.350000	1	1.679125
11.366667	1	1.618250
11.383333	1	1.564500
11.400000	1	1.515750
11.416667	1	1.473000
11.433333	1	1.433500
11.450000	1	1.398500
11.466667	1	1.367500
11.483333	1	1.339625
11.500000	1	1.314750
11.516667	1	1.292250
11.533333	1	1.272375
11.550000	1	1.253625
11.566667	1	1.237750
11.583333	1	1.222625
11.600000	1	1.209500
11.616667	1	1.197750
11.633333	1	1.187625
11.650000	1	1.178875
11.666667	1	1.171625
11.683333	1	1.166125
11.700000	1	1.162750
11.716667	1	1.160375
11.733333	1	1.159125
11.750000	1	1.159000
11.766667	1	1.161500
11.783333	1	1.164875
11.800000	1	1.169000
11.816667	1	1.174375
11.833333	1	1.180125
11.850000	1	1.186375
11.866667	1	1.191375
11.883333	1	1.197125
11.900000	1	1.203000
11.916667	1	1.209125
11.933333	1	1.214750
11.950000	1	1.220875
11.966667	1	1.226500
11.983333	1	1.232625
12.000000	1	1.239000
12.016667	1	1.245000
12.033333	1	1.251250
12.050000	1	1.258375
12.066667	1	1.265000
12.083333	1	1.272375
12.100000	1	1.279750
12.116667	1	1.287375
12.133333	1	1.296000
12.150000	1	1.304875
12.166667	1	1.313500
12.183333	1	1.323250
12.200000	1	1.334375
12.216667	1	1.345125
12.233333	1	1.358375
12.250000	1	1.373250
12.266667	1	1.391250
12.283333	1	1.411375
12.300000	1	1.436000
12.316667	1	1.465125
12.333333	1	1.499875
12.350000	1	1.541750
12.366667	1	1.592750
12.383333	1	1.655125
12.400000	1	1.732375
12.416667	1	1.827250
12.433333	1	1.943875
12.450000	1	2.086750
12.466667	1	2.260625
12.483333	1	2.469500
12.500000	1	2.717625
12.516667	1	3.006125
12.533333	1	3.335875
12.550000	1	3.702250
12.566667	1	4.098875
12.583333	1	4.516000
12.600000	1	4.939750
12.616667	1	5.354000
12.633333	1	5.742250
12.650000	1	6.089000
12.666667	1	6.378500
12.683333	1	6.598875
12.700000	1	6.742500
12.716667	1	6.806625
12.733333	1	6.791500
12.750000	1	6.704375
12.766667	1	6.553500
12.783333	1	6.351500
12.800000	1	6.109500
12.816667	1	5.841250
12.833333	1	5.556250
12.850000	1	5.266125
12.866667	1	4.977500
12.883333	1	4.697875
12.900000	1	4.432000
12.916667	1	4.183000
12.933333	1	3.954500
12.950000	1	3.746750
12.966667	1	3.560625
12.983333	1	3.394125
13.000000	1	3.246625
13.016667	1	3.117625
13.033333	1	3.003875
13.050000	1	2.903125
13.066667	1	2.814500
13.083333	1	2.735750
13.100000	1	2.665250
13.116667	1	2.601875
13.133333	1	2.544625
13.150000	1	2.492375
13.166667	1	2.443875
13.183333	1	2.399875
13.200000	1	2.357625
13.216667	1	2.317750
13.233333	1	2.280625
13.250000	1	2.244625
13.266667	1	2.210500
13.283333	1	2.177125
13.300000	1	2.145000
13.316667	1	2.114250
13.333333	1	2.084625
13.350000	1	2.056750
13.366667	1	2.029875
13.383333	1	2.004875
13.400000	1	1.982000
13.416667	1	1.960625
13.433333	1	1.942625
13.450000	1	1.926125
13.466667	1	1.911750
13.483333	1	1.899875
13.500000	1	1.889875
13.516667	1	1.882875
13.533333	1	1.877125
13.550000	1	1.872250
13.566667	1	1.868375
13.583333	1	1.864875
13.600000	1	1.861125
13.616667	1	1.856625
13.633333	1	1.850000
13.650000	1	1.841875
13.666667	1	1.831875
13.683333	1	1.819125
13.700000	1	1.804625
13.716667	1	1.788250
13.733333	1	1.770375
13.750000	1	1.751125
13.766667	1	1.731000
13.783333	1	1.710500
13.800000	1	1.690625
13.816667	1	1.670875
13.833333	1	1.651125
13.850000	1	1.633500
13.866667	1	1.615875
13.883333	1	1.599750
13.900000	1	1.583875
13.916667	1	1.569750
13.933333	1	1.556125
13.950000	1	1.544375
13.966667	1	1.532625
13.983333	1	1.522375
14.000000	1	1.511875
14.016667	1	1.502625
14.033333	1	1.494000
14.050000	1	1.485750
14.066667	1	1.477250
14.083333	1	1.469750
14.100000	1	1.462250
14.116667	1	1.455250
14.133333	1	1.449125
14.150000	1	1.442875
14.166667	1	1.436875
14.183333	1	1.432250
14.200000	1	1.429000
14.216667	1	1.425750
14.233333	1	1.424750
14.250000	1	1.424625
14.266667	1	1.427000
14.283333	1	1.430250
14.300000	1	1.436375
14.316667	1	1.446125
14.333333	1	1.459750
14.350000	1	1.478000
14.366667	1	1.501750
14.383333	1	1.532875
14.400000	1	1.573750
14.416667	1	1.627500
14.433333	1	1.698875
14.450000	1	1.793875
14.466667	1	1.921000
14.483333	1	2.093250
14.500000	1	2.324625
14.516667	1	2.637375
14.533333	1	3.055750
14.550000	1	3.612750
14.566667	1	4.346625
14.583333	1	5.301750
14.600000	1	6.526125
14.616667	1	8.074500
14.633333	1	9.997750
14.650000	1	12.342750
14.666667	1	15.143750
14.683333	1	18.412875
14.700000	1	22.138125
14.716667	1	26.273250
14.733333	1	30.739375
14.750000	1	35.422125
14.766667	1	40.172000
14.783333	1	44.814750
14.800000	1	49.165875
14.816667	1	53.040000
14.833333	1	56.259875
14.850000	1	58.672500
14.866667	1	60.163000
14.883333	1	60.665375
14.900000	1	60.169750
14.916667	1	58.721375
14.933333	1	56.414750
14.950000	1	53.381000
14.966667	1	49.781500
14.983333	1	45.793875
15.000000	1	41.588000
15.016667	1	37.319125
15.033333	1	33.122750
15.050000	1	29.110000
15.066667	1	25.365625
15.083333	1	21.944500
15.100000	1	18.876000
15.116667	1	16.168375
15.133333	1	13.810875
15.150000	1	11.781125
15.166667	1	10.052250
15.183333	1	8.590375
15.200000	1	7.363250
15.216667	1	6.339125
15.233333	1	5.489375
15.250000	1	4.787125
15.266667	1	4.210500
15.283333	1	3.740375
15.300000	1	3.359625
15.316667	1	3.055000
15.333333	1	2.813625
15.350000	1	2.625000
15.366667	1	2.480875
15.383333	1	2.372500
15.400000	1	2.293125
15.416667	1	2.236875
15.433333	1	2.197250
15.450000	1	2.170125
15.466667	1	2.150750
15.483333	1	2.134750
15.500000	1	2.119250
15.516667	1	2.101250
15.533333	1	2.081000
15.550000	1	2.055250
15.566667	1	2.024375
15.583333	1	1.988875
15.600000	1	1.949375
15.616667	1	1.906750
15.633333	1	1.862750
15.650000	1	1.817875
15.666667	1	1.774375
15.683333	1	1.731000
15.700000	1	1.690250
15.716667	1	1.651750
15.733333	1	1.616500
15.750000	1	1.583625
15.766667	1	1.553625
15.783333	1	1.525500
15.800000	1	1.500000
15.816667	1	1.476250
15.833333	1	1.454000
15.850000	1	1.433750
15.866667	1	1.415500
15.883333	1	1.398500
15.900000	1	1.382500
15.916667	1	1.369500
15.933333	1	1.357625
15.950000	1	1.347500
15.966667	1	1.339000
15.983333	1	1.331750
16.000000	1	1.326750
16.016667	1	1.322625
16.033333	1	1.321125
16.050000	1	1.320250
16.066667	1	1.319750
16.083333	1	1.320375
16.100000	1	1.321625
16.116667	1	1.323125
16.133333	1	1.324375
16.150000	1	1.325125
16.166667	1	1.325875
16.183333	1	1.325875
16.200000	1	1.324750
16.216667	1	1.322875
16.233333	1	1.320750
16.250000	1	1.317000
16.266667	1	1.312125
16.283333	1	1.306500
16.300000	1	1.300500
16.316667	1	1.293375
16.333333	1	1.287125
16.350000	1	1.280375
16.366667	1	1.274375
16.383333	1	1.269125
16.400000	1	1.264375
16.416667	1	1.260875
16.433333	1	1.258500
16.450000	1	1.257625
16.466667	1	1.257750
16.483333	1	1.258125
16.500000	1	1.259000
16.516667	1	1.260000
16.533333	1	1.261250
16.550000	1	1.262125
16.566667	1	1.261750
16.583333	1	1.261250
16.600000	1	1.259625
16.616667	1	1.257125
16.633333	1	1.253875
16.650000	1	1.251000
16.666667	1	1.247625
16.683333	1	1.244750
16.700000	1	1.241500
16.716667	1	1.239500
16.733333	1	1.238250
16.750000	1	1.238875
16.766667	1	1.240875
16.783333	1	1.244625
16.800000	1	1.250000
16.816667	1	1.256500
16.833333	1	1.263250
16.850000	1	1.270875
16.866667	1	1.278375
16.883333	1	1.285625
16.900000	1	1.292125
16.916667	1	1.297750
16.933333	1	1.302250
16.950000	1	1.305000
16.966667	1	1.306375
16.983333	1	1.306250
17.000000	1	1.305000
17.016667	1	1.302375
17.033333	1	1.299875
17.050000	1	1.297250
17.066667	1	1.293250
17.083333	1	1.288750
17.100000	1	1.285375
17.116667	1	1.282375
17.133333	1	1.280375
17.150000	1	1.278625
17.166667	1	1.276625
17.183333	1	1.276375
17.200000	1	1.276875
17.216667	1	1.277500
17.233333	1	1.279000
17.250000	1	1.281000
17.266667	1	1.283000
17.283333	1	1.285125
17.300000	1	1.287625
17.316667	1	1.291375
17.333333	1	1.295000
17.350000	1	1.298375
17.366667	1	1.301625
17.383333	1	1.305000
17.400000	1	1.308000
17.416667	1	1.309875
17.433333	1	1.309500
17.450000	1	1.309375
17.466667	1	1.307125
17.483333	1	1.303750
17.500000	1	1.298250
17.516667	1	1.291250
17.533333	1	1.282875
17.550000	1	1.273250
17.566667	1	1.261375
17.583333	1	1.248125
17.600000	1	1.234375
17.616667	1	1.219500
17.633333	1	1.204125
17.650000	1	1.187875
17.666667	1	1.171250
17.683333	1	1.153875
17.700000	1	1.138000
17.716667	1	1.122625
17.733333	1	1.107875
17.750000	1	1.093750
17.766667	1	1.081125
17.783333	1	1.069750
17.800000	1	1.059500
17.816667	1	1.050000
17.833333	1	1.042000
17.850000	1	1.034500
17.866667	1	1.028500
17.883333	1	1.023000
17.900000	1	1.018250
17.916667	1	1.013875
17.933333	1	1.010250
17.950000	1	1.006625
17.966667	1	1.003750
17.983333	1	1.001125
18.000000	1	0.998250
18.016667	1	0.996000
18.033333	1	0.993125
18.050000	1	0.990000
18.066667	1	0.987000
18.083333	1	0.984250
18.100000	1	0.982250
18.116667	1	0.980250
18.133333	1	0.978625
18.150000	1	0.977750
18.166667	1	0.977250
18.183333	1	0.977625
18.200000	1	0.978125
18.216667	1	0.979000
18.233333	1	0.980000
18.250000	1	0.981875
18.266667	1	0.983875
18.283333	1	0.985875
18.300000	1	0.988125
18.316667	1	0.991000
18.333333	1	0.993875
18.350000	1	0.996375
18.366667	1	1.000625
18.383333	1	1.004375
18.400000	1	1.009000
18.416667	1	1.013875
18.433333	1	1.020625
18.450000	1	1.028250
18.466667	1	1.037375
18.483333	1	1.047750
18.500000	1	1.059625
18.516667	1	1.073000
18.533333	1	1.088500
18.550000	1	1.106375
18.566667	1	1.124500
18.583333	1	1.145250
18.600000	1	1.168000
18.616667	1	1.191500
18.633333	1	1.216750
18.650000	1	1.243250
18.666667	1	1.270500
18.683333	1	1.298625
18.700000	1	1.327375
18.716667	1	1.357250
18.733333	1	1.387125
18.750000	1	1.417000
18.766667	1	1.445875
18.783333	1	1.474500
18.800000	1	1.501250
18.816667	1	1.525875
18.833333	1	1.547625
18.850000	1	1.567250
18.866667	1	1.582125
18.883333	1	1.593125
18.900000	1	1.599875
18.916667	1	1.600500
18.933333	1	1.595000
18.950000	1	1.583875
18.966667	1	1.567625
18.983333	1	1.545500
19.000000	1	1.517500
19.016667	1	1.485000
19.033333	1	1.447875
19.050000	1	1.407625
19.066667	1	1.363750
19.083333	1	1.318250
19.100000	1	1.271000
19.116667	1	1.223625
19.133333	1	1.178000
19.150000	1	1.134375
19.166667	1	1.092875
19.183333	1	1.054375
19.200000	1	1.020625
19.216667	1	0.990625
19.233333	1	0.966250
19.250000	1	0.946625
19.266667	1	0.932250
19.283333	1	0.924375
19.300000	1	0.921500
19.316667	1	0.924500
19.333333	1	0.932875
19.350000	1	0.946750
19.366667	1	0.965250
19.383333	1	0.988125
19.400000	1	1.014875
19.416667	1	1.044125
19.433333	1	1.075000
19.450000	1	1.108000
19.466667	1	1.140000
19.483333	1	1.171750
19.500000	1	1.201375
19.516667	1	1.228625
19.533333	1	1.253250
19.550000	1	1.274000
19.566667	1	1.290625
19.583333	1	1.302500
19.600000	1	1.309625
19.616667	1	1.311625
19.633333	1	1.309125
19.650000	1	1.301750
19.666667	1	1.289750
19.683333	1	1.273375
19.700000	1	1.253375
19.716667	1	1.230375
19.733333	1	1.205125
19.750000	1	1.177125
19.766667	1	1.148125
19.783333	1	1.117500
19.800000	1	1.085125
19.816667	1	1.053125
19.833333	1	1.021250
19.850000	1	0.989875
19.866667	1	0.958750
19.883333	1	0.928875
19.900000	1	0.901750
19.916667	1	0.876500
19.933333	1	0.853125
19.950000	1	0.831750
19.966667	1	0.814125
19.983333	1	0.799375
20.000000	1	0.787875
20.016667	1	0.781000
20.033333	1	0.777625
20.050000	1	0.777375
20.066667	1	0.780625
20.083333	1	0.788250
20.100000	1	0.800375
20.116667	1	0.816250
20.133333	1	0.835125
20.150000	1	0.857000
20.166667	1	0.882000
20.183333	1	0.908375
20.200000	1	0.934750
20.216667	1	0.962000
20.233333	1	0.987875
20.250000	1	1.012250
20.266667	1	1.033375
20.283333	1	1.051000
20.300000	1	1.064125
20.316667	1	1.072250
20.333333	1	1.076375
20.350000	1	1.074500
20.366667	1	1.066875
20.383333	1	1.054625
20.400000	1	1.038250
20.416667	1	1.018375
20.433333	1	0.995125
20.450000	1	0.969250
20.466667	1	0.944125
20.483333	1	0.918875
20.500000	1	0.895500
20.516667	1	0.874500
20.533333	1	0.858375
20.550000	1	0.847000
20.566667	1	0.841125
20.583333	1	0.841500
20.600000	1	0.849000
20.616667	1	0.864500
20.633333	1	0.887750
20.650000	1	0.919875
20.666667	1	0.960000
20.683333	1	1.007500
20.700000	1	1.062750
20.716667	1	1.124500
20.733333	1	1.191625
20.750000	1	1.262000
20.766667	1	1.335000
20.783333	1	1.408250
20.800000	1	1.479500
20.816667	1	1.547000
20.833333	1	1.607875
20.850000	1	1.660625
20.866667	1	1.703250
20.883333	1	1.735250
20.900000	1	1.754500
20.916667	1	1.761000
20.933333	1	1.754000
20.950000	1	1.734250
20.966667	1	1.702375
20.983333	1	1.660125
21.000000	1	1.608875
21.016667	1	1.549125
21.033333	1	1.483500
21.050000	1	1.414625
21.066667	1	1.343750
21.083333	1	1.272375
21.100000	1	1.202250
21.116667	1	1.133750
21.133333	1	1.069375
21.150000	1	1.008500
21.166667	1	0.952000
21.183333	1	0.900125
21.200000	1	0.852875
21.216667	1	0.809875
21.233333	1	0.771250
21.250000	1	0.736625
21.266667	1	0.706625
21.283333	1	0.680500
21.300000	1	0.657500
21.316667	1	0.637500
21.333333	1	0.619750
21.350000	1	0.604500
21.366667	1	0.591250
21.383333	1	0.579375
21.400000	1	0.569625
21.416667	1	0.561625
21.433333	1	0.553875
21.450000	1	0.547250
21.466667	1	0.542750
21.483333	1	0.539250
21.500000	1	0.536500
21.516667	1	0.534125
21.533333	1	0.533000
21.550000	1	0.533750
21.566667	1	0.534750
21.583333	1	0.537750
21.600000	1	0.541000
21.616667	1	0.546250
21.633333	1	0.553125
21.650000	1	0.560500
21.666667	1	0.569875
21.683333	1	0.581125
21.700000	1	0.594375
21.716667	1	0.608875
21.733333	1	0.624500
21.750000	1	0.641500
21.766667	1	0.659875
21.783333	1	0.678875
21.800000	1	0.698625
21.816667	1	0.718750
21.833333	1	0.739625
21.850000	1	0.760375
21.866667	1	0.781000
21.883333	1	0.800250
21.900000	1	0.818125
21.916667	1	0.834250
21.933333	1	0.849250
21.950000	1	0.861500
21.966667	1	0.871625
21.983333	1	0.879625
22.000000	1	0.885125
22.016667	1	0.888875
22.033333	1	0.889875
22.050000	1	0.888000
22.066667	1	0.884375
22.083333	1	0.878500
22.100000	1	0.870875
22.116667	1	0.862500
22.133333	1	0.851875
22.150000	1	0.840500
22.166667	1	0.827625
22.183333	1	0.814375
22.200000	1	0.799625
22.216667	1	0.784875
22.233333	1	0.769125
22.250000	1	0.753500
22.266667	1	0.737375
22.283333	1	0.721375
22.300000	1	0.704875
22.316667	1	0.688250
22.333333	1	0.671125
22.350000	1	0.655375
22.366667	1	0.638875
22.383333	1	0.622750
22.400000	1	0.607750
22.416667	1	0.592625
22.433333	1	0.578125
22.450000	1	0.564500
22.466667	1	0.551625
22.483333	1	0.539625
22.500000	1	0.528750
22.516667	1	0.518000
22.533333	1	0.507125
22.550000	1	0.497750
22.566667	1	0.489125
22.583333	1	0.480625
22.600000	1	0.473125
22.616667	1	0.465000
22.633333	1	0.458125
22.650000	1	0.450875
22.666667	1	0.443375
22.683333	1	0.436250
22.700000	1	0.428875
22.716667	1	0.421875
22.733333	1	0.414875
22.750000	1	0.407625
22.766667	1	0.400625
22.783333	1	0.393250
22.800000	1	0.386125
22.816667	1	0.380000
22.833333	1	0.372875
22.850000	1	0.366250
22.866667	1	0.360375
22.883333	1	0.354750
22.900000	1	0.348500
22.916667	1	0.343375
22.933333	1	0.338125
22.950000	1	0.333750
22.966667	1	0.329750
22.983333	1	0.324875
23.000000	1	0.321750
23.016667	1	0.319000
23.033333	1	0.317000
23.050000	1	0.315125
23.066667	1	0.313750
23.083333	1	0.313750
23.100000	1	0.313750
23.116667	1	0.314750
23.133333	1	0.316125
23.150000	1	0.317750
23.166667	1	0.320250
23.183333	1	0.323125
23.200000	1	0.326375
23.216667	1	0.330750
23.233333	1	0.336625
23.250000	1	0.343000
23.266667	1	0.351625
23.283333	1	0.362000
23.300000	1	0.375750
23.316667	1	0.391875
23.333333	1	0.411500
23.350000	1	0.435875
23.366667	1	0.464250
23.383333	1	0.498250
23.400000	1	0.538750
23.416667	1	0.587250
23.433333	1	0.644125
23.450000	1	0.710625
23.466667	1	0.790125
23.483333	1	0.880000
23.500000	1	0.984875
23.516667	1	1.104500
23.533333	1	1.239750
23.550000	1	1.390750
23.566667	1	1.558500
23.583333	1	1.742750
23.600000	1	1.943000
23.616667	1	2.158875
23.633333	1	2.387000
23.650000	1	2.627125
23.666667	1	2.876125
23.683333	1	3.130875
23.700000	1	3.386625
23.716667	1	3.640000
23.733333	1	3.886250
23.750000	1	4.121000
23.766667	1	4.338375
23.783333	1	4.534250
23.800000	1	4.703750
23.816667	1	4.843625
23.833333	1	4.950125
23.850000	1	5.022000
23.866667	1	5.058250
23.883333	1	5.058125
23.900000	1	5.021750
23.916667	1	4.950625
23.933333	1	4.847875
23.950000	1	4.715125
23.966667	1	4.556625
23.983333	1	4.376375
24.000000	1	4.179750
24.016667	1	3.969500
24.033333	1	3.750375
24.050000	1	3.527000
24.066667	1	3.303000
24.083333	1	3.080125
24.100000	1	2.862125
24.116667	1	2.651125
24.133333	1	2.449750
24.150000	1	2.258125
24.166667	1	2.077750
24.183333	1	1.910250
24.200000	1	1.754625
24.216667	1	1.612375
24.233333	1	1.481375
24.250000	1	1.363500
24.266667	1	1.256000
24.283333	1	1.159000
24.300000	1	1.071875
24.316667	1	0.994750
24.333333	1	0.925250
24.350000	1	0.863875
24.366667	1	0.809875
24.383333	1	0.762000
24.400000	1	0.720750
24.416667	1	0.685125
24.433333	1	0.654000
24.450000	1	0.628500
24.466667	1	0.605875
24.483333	1	0.587750
24.500000	1	0.572125
24.516667	1	0.559750
24.533333	1	0.549125
24.550000	1	0.540125
24.566667	1	0.533125
24.583333	1	0.526750
24.600000	1	0.522500
24.616667	1	0.518125
24.633333	1	0.514250
24.650000	1	0.510750
24.666667	1	0.507750
24.683333	1	0.504125
24.700000	1	0.501375
24.716667	1	0.498375
24.733333	1	0.494750
24.750000	1	0.491500
24.766667	1	0.487750
24.783333	1	0.484375
24.800000	1	0.480625
24.816667	1	0.476625
24.833333	1	0.473000
24.850000	1	0.469250
24.866667	1	0.465000
24.883333	1	0.461125
24.900000	1	0.458375
24.916667	1	0.454875
24.933333	1	0.451500
24.950000	1	0.448125
24.966667	1	0.445125
24.983333	1	0.442125
25.000000	1	0.439500
25.016667	1	0.437375
25.033333	1	0.434750
25.050000	1	0.432500
25.066667	1	0.430750
25.083333	1	0.429000
25.100000	1	0.427375
25.116667	1	0.425750
25.133333	1	0.423625
25.150000	1	0.422000
25.166667	1	0.420875
25.183333	1	0.418625
25.200000	1	0.416375
25.216667	1	0.415250
25.233333	1	0.413875
25.250000	1	0.412000
25.266667	1	0.410500
25.283333	1	0.408250
25.300000	1	0.406375
25.316667	1	0.405000
25.333333	1	0.403500
25.350000	1	0.400375
25.366667	1	0.398875
25.383333	1	0.396875
25.400000	1	0.394625
25.416667	1	0.392125
25.433333	1	0.390375
25.450000	1	0.388375
25.466667	1	0.386625
25.483333	1	0.384750
25.500000	1	0.383000
25.516667	1	0.381750
25.533333	1	0.380000
25.550000	1	0.377875
25.566667	1	0.375875
25.583333	1	0.374750
25.600000	1	0.372875
25.616667	1	0.370375
25.633333	1	0.368750
25.650000	1	0.366375
25.666667	1	0.364375
25.683333	1	0.362750
25.700000	1	0.361250
25.716667	1	0.359000
25.733333	1	0.356375
25.750000	1	0.354375
25.766667	1	0.352250
25.783333	1	0.350875
25.800000	1	0.348500
25.816667	1	0.346375
25.833333	1	0.344000
25.850000	1	0.341875
25.866667	1	0.341500
25.883333	1	0.340500
25.900000	1	0.339250
25.916667	1	0.338250
25.933333	1	0.337375
25.950000	1	0.336375
25.966667	1	0.336375
25.983333	1	0.336375
26.000000	1	0.337250
26.016667	1	0.337625
26.033333	1	0.338250
26.050000	1	0.340250
26.066667	1	0.342000
26.083333	1	0.344000
26.100000	1	0.347125
26.116667	1	0.349875
26.133333	1	0.353000
26.150000	1	0.357000
26.166667	1	0.360375
26.183333	1	0.363375
26.200000	1	0.366875
26.216667	1	0.370250
26.233333	1	0.373500
26.250000	1	0.377000
26.266667	1	0.380500
26.283333	1	0.383875
26.300000	1	0.386625
26.316667	1	0.389000
26.333333	1	0.390875
26.350000	1	0.391500
26.366667	1	0.392250
26.383333	1	0.393125
26.400000	1	0.391875
26.416667	1	0.390875
26.433333	1	0.388875
26.450000	1	0.386500
26.466667	1	0.383625
26.483333	1	0.380125
26.500000	1	0.375875
26.516667	1	0.370250
26.533333	1	0.365000
26.550000	1	0.358750
26.566667	1	0.351375
26.583333	1	0.344250
26.600000	1	0.336875
26.616667	1	0.328750
26.633333	1	0.320875
26.650000	1	0.313500
26.666667	1	0.304625
26.683333	1	0.296875
26.700000	1	0.289625
26.716667	1	0.281375
26.733333	1	0.274125
26.750000	1	0.267375
26.766667	1	0.260250
26.783333	1	0.254375
26.800000	1	0.248750
26.816667	1	0.243875
26.833333	1	0.239250
26.850000	1	0.235500
26.866667	1	0.232375
26.883333	1	0.229125
26.900000	1	0.227750
26.916667	1	0.226375
26.933333	1	0.226250
26.950000	1	0.226375
26.966667	1	0.227125
26.983333	1	0.229000
27.000000	1	0.231250
27.016667	1	0.234875
27.033333	1	0.238250
27.050000	1	0.243000
27.066667	1	0.249000
27.083333	1	0.256250
27.100000	1	0.263250
27.116667	1	0.271500
27.133333	1	0.280000
27.150000	1	0.290875
27.166667	1	0.302500
27.183333	1	0.315375
27.200000	1	0.329625
27.216667	1	0.345500
27.233333	1	0.362750
27.250000	1	0.382750
27.266667	1	0.405375
27.283333	1	0.430625
27.300000	1	0.458500
27.316667	1	0.490375
27.333333	1	0.525000
27.350000	1	0.564875
27.366667	1	0.611000
27.383333	1	0.661125
27.400000	1	0.718250
27.416667	1	0.782250
27.433333	1	0.854000
27.450000	1	0.933125
27.466667	1	1.021000
27.483333	1	1.117125
27.500000	1	1.222750
27.516667	1	1.337500
27.533333	1	1.462625
27.550000	1	1.596375
27.566667	1	1.739625
27.583333	1	1.890875
27.600000	1	2.048875
27.616667	1	2.213875
27.633333	1	2.385375
27.650000	1	2.560375
27.666667	1	2.738125
27.683333	1	2.915375
27.700000	1	3.091500
27.716667	1	3.263125
27.733333	1	3.428625
27.750000	1	3.585375
27.766667	1	3.730625
27.783333	1	3.862125
27.800000	1	3.977250
27.816667	1	4.075000
27.833333	1	4.153250
27.850000	1	4.210250
27.866667	1	4.246250
27.883333	1	4.258625
27.900000	1	4.247625
27.916667	1	4.213500
27.933333	1	4.157000
27.950000	1	4.078750
27.966667	1	3.981000
27.983333	1	3.865750
28.000000	1	3.734375
28.016667	1	3.589500
28.033333	1	3.431875
28.050000	1	3.266250
28.066667	1	3.093875
28.083333	1	2.917125
28.100000	1	2.739375
28.116667	1	2.562500
28.133333	1	2.388625
28.150000	1	2.219750
28.166667	1	2.056750
28.183333	1	1.901500
28.200000	1	1.754875
28.216667	1	1.616125
28.233333	1	1.486750
28.250000	1	1.368000
28.266667	1	1.258750
28.283333	1	1.158875
28.300000	1	1.068375
28.316667	1	0.987000
28.333333	1	0.914125
28.350000	1	0.849625
28.366667	1	0.792625
28.383333	1	0.743625
28.400000	1	0.700000
28.416667	1	0.662875
28.433333	1	0.631125
28.450000	1	0.604500
28.466667	1	0.581375
28.483333	1	0.563500
28.500000	1	0.548625
28.516667	1	0.537250
28.533333	1	0.528875
28.550000	1	0.522750
28.566667	1	0.519125
28.583333	1	0.517375
28.600000	1	0.517750
28.616667	1	0.519125
28.633333	1	0.521625
28.650000	1	0.525500
28.666667	1	0.529625
28.683333	1	0.534875
28.700000	1	0.540875
28.716667	1	0.546875
28.733333	1	0.552875
28.750000	1	0.559250
28.766667	1	0.565000
28.783333	1	0.569875
28.800000	1	0.575250
28.816667	1	0.579500
28.833333	1	0.583500
28.850000	1	0.586500
28.866667	1	0.588625
28.883333	1	0.589375
28.900000	1	0.590125
28.916667	1	0.588875
28.933333	1	0.586750
28.950000	1	0.584125
28.966667	1	0.580375
28.983333	1	0.574625
29.000000	1	0.568125
29.016667	1	0.560375
29.033333	1	0.551250
29.050000	1	0.541000
29.066667	1	0.528250
29.083333	1	0.514625
29.100000	1	0.499375
29.116667	1	0.482000
29.133333	1	0.463625
29.150000	1	0.443250
29.166667	1	0.421000
29.183333	1	0.397375
29.200000	1	0.371250
29.216667	1	0.343625
29.233333	1	0.314000
29.250000	1	0.282125
29.266667	1	0.247750
29.283333	1	0.211875
29.300000	1	0.173750
29.316667	1	0.133500
29.333333	1	0.091750
29.350000	1	0.047625
29.366667	1	0.002000
29.383333	1	-0.044750
29.400000	1	-0.093500
29.416667	1	-0.144000
29.433333	1	-0.195125
29.450000	1	-0.247625
29.466667	1	-0.300625
29.483333	1	-0.354250
29.500000	1	-0.407375
29.516667	1	-0.460625
29.533333	1	-0.513750
29.550000	1	-0.565375
29.566667	1	-0.614875
29.583333	1	-0.663125
29.600000	1	-0.708500
29.616667	1	-0.751750
29.633333	1	-0.791750
29.650000	1	-0.828875
29.666667	1	-0.861875
29.683333	1	-0.891375
29.700000	1	-0.916875
29.716667	1	-0.937750
29.733333	1	-0.954125
29.750000	1	-0.966000
29.766667	1	-0.973500
29.783333	1	-0.976500
29.800000	1	-0.974875
29.816667	1	-0.968125
29.833333	1	-0.957750
29.850000	1	-0.943750
29.866667	1	-0.926250
29.883333	1	-0.905000
29.900000	1	-0.881250
29.916667	1	-0.854125
29.933333	1	-0.823625
29.950000	1	-0.791750
29.966667	1	-0.757750
29.983333	1	-0.722750
30.000000	1	-0.686625
30.016667	1	-0.649750
30.033333	1	-0.612125
30.050000	1	-0.574750
30.066667	1	-0.537375
30.083333	1	-0.499625
30.100000	1	-0.463125
30.116667	1	-0.427000
30.133333	1	-0.392500
30.150000	1	-0.358250
30.166667	1	-0.325625
30.183333	1	-0.294375
30.200000	1	-0.264750
30.216667	1	-0.236750
30.233333	1	-0.210000
30.250000	1	-0.184500
30.266667	1	-0.160375
30.283333	1	-0.137875
30.300000	1	-0.116625
30.316667	1	-0.096625
30.333333	1	-0.078125
30.350000	1	-0.060500
30.366667	1	-0.044000
30.383333	1	-0.028750
30.400000	1	-0.014750
30.416667	1	-0.000250
30.433333	1	0.012000
30.450000	1	0.024250
30.466667	1	0.035875
30.483333	1	0.047250
30.500000	1	0.058000
30.516667	1	0.068250
30.533333	1	0.078750
30.550000	1	0.088750
30.566667	1	0.098750
30.583333	1	0.108625
30.600000	1	0.118500
30.616667	1	0.129000
30.633333	1	0.138750
30.650000	1	0.148500
30.666667	1	0.159250
30.683333	1	0.170375
30.700000	1	0.181500
30.716667	1	0.192125
30.733333	1	0.203750
30.750000	1	0.215000
30.766667	1	0.227625
30.783333	1	0.239250
30.800000	1	0.251875
30.816667	1	0.264625
30.833333	1	0.278500
30.850000	1	0.293000
30.866667	1	0.307875
30.883333	1	0.323625
30.900000	1	0.340250
30.916667	1	0.358000
30.933333	1	0.377500
30.950000	1	0.398000
30.966667	1	0.420500
30.983333	1	0.445000
31.000000	1	0.472250
31.016667	1	0.501750
31.033333	1	0.534375
31.050000	1	0.570000
31.066667	1	0.609750
31.083333	1	0.654000
31.100000	1	0.702875
31.116667	1	0.756500
31.133333	1	0.816125
31.150000	1	0.881125
31.166667	1	0.951875
31.183333	1	1.029125
31.200000	1	1.113125
31.216667	1	1.204375
31.233333	1	1.302000
31.250000	1	1.407125
31.266667	1	1.518000
31.283333	1	1.636125
31.300000	1	1.758750
31.316667	1	1.887125
31.333333	1	2.020250
31.350000	1	2.156375
31.366667	1	2.295000
31.383333	1	2.434375
31.400000	1	2.574375
31.416667	1	2.712875
31.433333	1	2.848875
31.450000	1	2.979875
31.466667	1	3.104875
31.483333	1	3.222375
31.500000	1	3.331375
31.516667	1	3.428625
31.533333	1	3.515125
31.550000	1	3.588500
31.566667	1	3.648000
31.583333	1	3.692250
31.600000	1	3.722625
31.616667	1	3.737625
31.633333	1	3.735625
31.650000	1	3.718875
31.666667	1	3.686375
31.683333	1	3.639375
31.700000	1	3.578125
31.716667	1	3.503875
31.733333	1	3.418000
31.750000	1	3.321250
31.766667	1	3.215125
31.783333	1	3.100625
31.800000	1	2.979250
31.816667	1	2.852375
31.833333	1	2.722000
31.850000	1	2.588875
31.866667	1	2.454250
31.883333	1	2.319875
31.900000	1	2.185625
31.916667	1	2.054875
31.933333	1	1.925750
31.950000	1	1.800500
31.966667	1	1.679500
31.983333	1	1.563000
32.000000	1	1.450750
32.016667	1	1.344500
32.033333	1	1.243375
32.050000	1	1.147750
32.066667	1	1.057250
32.083333	1	0.972500
32.100000	1	0.893625
32.116667	1	0.820125
32.133333	1	0.750750
32.150000	1	0.686500
32.166667	1	0.627000
32.183333	1	0.572125
32.200000	1	0.520875
32.216667	1	0.473750
32.233333	1	0.430625
32.250000	1	0.390500
32.266667	1	0.353125
32.283333	1	0.319125
32.300000	1	0.287500
32.316667	1	0.258250
32.333333	1	0.232250
32.350000	1	0.207875
32.366667	1	0.185625
32.383333	1	0.165250
32.400000	1	0.146875
32.416667	1	0.130000
32.433333	1	0.114500
32.450000	1	0.100375
32.466667	1	0.087500
32.483333	1	0.076125
32.500000	1	0.065625
32.516667	1	0.055875
32.533333	1	0.046875
32.550000	1	0.039750
32.566667	1	0.032875
32.583333	1	0.027500
32.600000	1	0.021375
32.616667	1	0.016250
32.633333	1	0.011375
32.650000	1	0.007125
32.666667	1	0.003750
32.683333	1	0.001000
32.700000	1	-0.001750
32.716667	1	-0.004500
32.733333	1	-0.007125
32.750000	1	-0.009250
32.766667	1	-0.011000
32.783333	1	-0.012875
32.800000	1	-0.014125
32.816667	1	-0.015125
32.833333	1	-0.016750
32.850000	1	-0.017875
32.866667	1	-0.019000
32.883333	1	-0.020875
32.900000	1	-0.021000
32.916667	1	-0.021250
32.933333	1	-0.021875
32.950000	1	-0.022250
32.966667	1	-0.022500
32.983333	1	-0.022125
33.000000	1	-0.022000
33.016667	1	-0.021750
33.033333	1	-0.021250
33.050000	1	-0.020625
33.066667	1	-0.019125
33.083333	1	-0.016875
33.100000	1	-0.015750
33.116667	1	-0.014125
33.133333	1	-0.012125
33.150000	1	-0.010000
33.166667	1	-0.008125
33.183333	1	-0.005750
33.200000	1	-0.003500
33.216667	1	-0.000625
33.233333	1	0.002500
33.250000	1	0.004250
33.266667	1	0.006750
33.283333	1	0.009625
33.300000	1	0.012250
33.316667	1	0.014625
33.333333	1	0.016750
33.350000	1	0.019375
33.366667	1	0.021250
33.383333	1	0.022875
33.400000	1	0.024375
33.416667	1	0.026500
33.433333	1	0.027875
33.450000	1	0.028875
33.466667	1	0.030375
33.483333	1	0.031500
33.500000	1	0.032625
33.516667	1	0.034625
33.533333	1	0.035375
33.550000	1	0.036500
33.566667	1	0.038000
33.583333	1	0.039625
33.600000	1	0.040875
33.616667	1	0.042500
33.633333	1	0.043625
33.650000	1	0.044875
33.666667	1	0.046875
33.683333	1	0.048500
33.700000	1	0.049625
33.716667	1	0.051625
33.733333	1	0.053625
33.750000	1	0.056125
33.766667	1	0.058000
33.783333	1	0.060500
33.800000	1	0.062625
33.816667	1	0.065125
33.833333	1	0.067375
33.850000	1	0.069750
33.866667	1	0.072375
33.883333	1	0.075125
33.900000	1	0.077375
33.916667	1	0.079625
33.933333	1	0.081875
33.950000	1	0.084875
33.966667	1	0.087750
33.983333	1	0.090000
34.000000	1	0.092250
34.016667	1	0.094750
34.033333	1	0.097500
34.050000	1	0.099500
34.066667	1	0.102000
34.083333	1	0.104625
34.100000	1	0.106500
34.116667	1	0.108375
34.133333	1	0.110625
34.150000	1	0.112500
34.166667	1	0.114125
34.183333	1	0.116125
34.200000	1	0.118125
34.216667	1	0.119500
34.233333	1	0.120500
34.250000	1	0.121875
34.266667	1	0.122875
34.283333	1	0.123750
34.300000	1	0.125250
34.316667	1	0.125875
34.333333	1	0.126875
34.350000	1	0.127625
34.366667	1	0.127875
34.383333	1	0.127750
34.400000	1	0.128125
34.416667	1	0.128500
34.433333	1	0.128125
34.450000	1	0.128250
34.466667	1	0.127625
34.483333	1	0.127000
34.500000	1	0.126625
34.516667	1	0.126250
34.533333	1	0.126500
34.550000	1	0.125750
34.566667	1	0.125375
34.583333	1	0.124750
34.600000	1	0.123125
34.616667	1	0.121875
34.633333	1	0.121000
34.650000	1	0.119500
34.666667	1	0.118500
34.683333	1	0.117000
34.700000	1	0.115250
34.716667	1	0.113875
34.733333	1	0.111875
34.750000	1	0.110000
34.766667	1	0.108250
34.783333	1	0.106625
34.800000	1	0.104625
34.816667	1	0.102625
34.833333	1	0.100125
34.850000	1	0.097500
34.866667	1	0.095125
34.883333	1	0.092875
34.900000	1	0.090500
34.916667	1	0.088125
34.933333	1	0.086500
34.950000	1	0.084250
34.966667	1	0.081875
34.983333	1	0.080000
35.000000	1	0.078625
35.016667	1	0.075875
35.033333	1	0.074000
35.050000	1	0.071750
35.066667	1	0.069875
35.083333	1	0.068875
35.100000	1	0.068500
35.116667	1	0.067000
35.133333	1	0.065625
35.150000	1	0.065000
35.166667	1	0.064375
35.183333	1	0.063750
35.200000	1	0.063250
35.216667	1	0.063375
35.233333	1	0.063500
35.250000	1	0.063750
35.266667	1	0.063125
35.283333	1	0.063500
35.300000	1	0.064125
35.316667	1	0.064875
35.333333	1	0.065625
35.350000	1	0.066500
35.366667	1	0.067250
35.383333	1	0.068375
35.400000	1	0.068875
35.416667	1	0.070125
35.433333	1	0.071000
35.450000	1	0.072375
35.466667	1	0.073750
35.483333	1	0.074875
35.500000	1	0.076375
35.516667	1	0.077625
35.533333	1	0.079250
35.550000	1	0.080250
35.566667	1	0.081750
35.583333	1	0.083375
35.600000	1	0.085000
35.616667	1	0.086500
35.633333	1	0.088125
35.650000	1	0.089875
35.666667	1	0.090375
35.683333	1	0.091125
35.700000	1	0.092625
35.716667	1	0.093875
35.733333	1	0.094750
35.750000	1	0.095750
35.766667	1	0.096625
35.783333	1	0.097500
35.800000	1	0.098000
35.816667	1	0.098750
35.833333	1	0.099875
35.850000	1	0.100625
35.866667	1	0.100375
35.883333	1	0.101000
35.900000	1	0.101750
35.916667	1	0.102875
35.933333	1	0.103750
35.950000	1	0.104250
35.966667	1	0.104500
35.983333	1	0.105875
36.000000	1	0.105875
36.016667	1	0.106625
36.033333	1	0.107250
36.050000	1	0.106750
36.066667	1	0.107000
36.083333	1	0.107250
36.100000	1	0.107875
36.116667	1	0.108625
36.133333	1	0.109625
36.150000	1	0.110750
36.166667	1	0.111000
36.183333	1	0.111625
36.200000	1	0.111875
36.216667	1	0.112875
36.233333	1	0.112625
36.250000	1	0.112625
36.266667	1	0.113250
36.283333	1	0.114125
36.300000	1	0.114250
36.316667	1	0.113750
36.333333	1	0.113250
36.350000	1	0.113000
36.366667	1	0.113125
36.383333	1	0.113250
36.400000	1	0.113250
36.416667	1	0.112375
36.433333	1	0.111250
36.450000	1	0.109875
36.466667	1	0.109875
36.483333	1	0.108875
36.500000	1	0.108000
36.516667	1	0.107250
36.533333	1	0.105875
36.550000	1	0.104875
36.566667	1	0.103625
36.583333	1	0.101750
36.600000	1	0.099750
36.616667	1	0.098000
36.633333	1	0.096625
36.650000	1	0.094500
36.666667	1	0.092250
36.683333	1	0.090500
36.700000	1	0.088500
36.716667	1	0.086750
36.733333	1	0.084125
36.750000	1	0.082125
36.766667	1	0.079500
36.783333	1	0.076750
36.800000	1	0.074375
36.816667	1	0.072125
36.833333	1	0.070375
36.850000	1	0.068875
36.866667	1	0.066000
36.883333	1	0.064250
36.900000	1	0.062000
36.916667	1	0.060375
36.933333	1	0.058500
36.950000	1	0.057375
36.966667	1	0.056500
36.983333	1	0.055500
37.000000	1	0.054125
37.016667	1	0.053500
37.033333	1	0.052625
37.050000	1	0.051750
37.066667	1	0.051625
37.083333	1	0.051125
37.100000	1	0.051250
37.116667	1	0.051375
37.133333	1	0.052125
37.150000	1	0.052875
37.166667	1	0.053250
37.183333	1	0.054375
37.200000	1	0.055250
37.216667	1	0.056125
37.233333	1	0.057250
37.250000	1	0.058500
37.266667	1	0.060875
37.283333	1	0.061875
37.300000	1	0.063250
37.316667	1	0.065250
37.333333	1	0.066750
37.350000	1	0.068125
37.366667	1	0.070250
37.383333	1	0.071500
37.400000	1	0.073625
37.416667	1	0.075000
37.433333	1	0.077125
37.450000	1	0.078375
37.466667	1	0.080000
37.483333	1	0.082000
37.500000	1	0.083875
37.516667	1	0.085375
37.533333	1	0.086250
37.550000	1	0.088125
37.566667	1	0.089250
37.583333	1	0.090500
37.600000	1	0.091875
37.616667	1	0.093375
37.633333	1	0.094375
37.650000	1	0.095500
37.666667	1	0.096375
37.683333	1	0.098000
37.700000	1	0.098750
37.716667	1	0.099625
37.733333	1	0.100375
37.750000	1	0.101000
37.766667	1	0.101500
37.783333	1	0.101125
37.800000	1	0.101000
37.816667	1	0.100750
37.833333	1	0.100250
37.850000	1	0.098375
37.866667	1	0.098625
37.883333	1	0.097500
37.900000	1	0.097000
37.916667	1	0.096250
37.933333	1	0.094875
37.950000	1	0.093000
37.966667	1	0.091250
37.983333	1	0.088625
38.000000	1	0.086500
38.016667	1	0.084250
38.033333	1	0.082375
38.050000	1	0.080125
38.066667	1	0.078500
38.083333	1	0.076875
38.100000	1	0.075000
38.116667	1	0.073625
38.133333	1	0.071750
38.150000	1	0.070125
38.166667	1	0.068250
38.183333	1	0.066625
38.200000	1	0.065750
38.216667	1	0.064625
38.233333	1	0.063875
38.250000	1	0.063000
38.266667	1	0.061875
38.283333	1	0.061375
38.300000	1	0.061250
38.316667	1	0.061250
38.333333	1	0.061125
38.350000	1	0.060875
38.366667	1	0.061125
38.383333	1	0.061125
38.400000	1	0.061125
38.416667	1	0.061875
38.433333	1	0.061875
38.450000	1	0.061875
38.466667	1	0.062125
38.483333	1	0.062875
38.500000	1	0.063750
38.516667	1	0.063875
38.533333	1	0.064625
38.550000	1	0.064625
38.566667	1	0.065250
38.583333	1	0.065750
38.600000	1	0.065625
38.616667	1	0.065500
38.633333	1	0.066125
38.650000	1	0.065625
38.666667	1	0.065375
38.683333	1	0.065250
38.700000	1	0.065250
38.716667	1	0.064375
38.733333	1	0.064000
38.750000	1	0.062875
38.766667	1	0.061875
38.783333	1	0.060625
38.800000	1	0.059125
38.816667	1	0.057500
38.833333	1	0.054875
38.850000	1	0.053000
38.866667	1	0.050500
38.883333	1	0.048000
38.900000	1	0.045375
38.916667	1	0.042250
38.933333	1	0.039500
38.950000	1	0.036625
38.966667	1	0.033375
38.983333	1	0.030625
39.000000	1	0.027500
39.016667	1	0.024875
39.033333	1	0.022250
39.050000	1	0.019625
39.066667	1	0.016500
39.083333	1	0.013375
39.100000	1	0.010125
39.116667	1	0.007000
39.133333	1	0.004125
39.150000	1	0.001500
39.166667	1	-0.000750
39.183333	1	-0.003500
39.200000	1	-0.006500
39.216667	1	-0.009125
39.233333	1	-0.011125
39.250000	1	-0.013750
39.266667	1	-0.016000
39.283333	1	-0.018375
39.300000	1	-0.020625
39.316667	1	-0.022375
39.333333	1	-0.023250
39.350000	1	-0.025375
39.366667	1	-0.026625
39.383333	1	-0.028125
39.400000	1	-0.029375
39.416667	1	-0.030625
39.433333	1	-0.031375
39.450000	1	-0.032375
39.466667	1	-0.033375
39.483333	1	-0.033750
39.500000	1	-0.034625
39.516667	1	-0.035250
39.533333	1	-0.035250
39.550000	1	-0.034750
39.566667	1	-0.034750
39.583333	1	-0.034875
39.600000	1	-0.034375
39.616667	1	-0.034000
39.633333	1	-0.033625
39.650000	1	-0.032875
39.666667	1	-0.032375
39.683333	1	-0.031000
39.700000	1	-0.031000
39.716667	1	-0.030000
39.733333	1	-0.030250
39.750000	1	-0.029875
39.766667	1	-0.029250
39.783333	1	-0.028750
39.800000	1	-0.027625
39.816667	1	-0.027125
39.833333	1	-0.025750
39.850000	1	-0.024125
39.866667	1	-0.022750
39.883333	1	-0.021000
39.900000	1	-0.019250
39.916667	1	-0.017875
39.933333	1	-0.016625
39.950000	1	-0.014500
39.966667	1	-0.012375
39.983333	1	-0.010000
40.000000	1	-0.007625
