URL	chrom://bioreactor/micro_cm7/HPLC_Ultimate_3000/Users/markusar/20240517_CMO_FP23_FP25_MarkusDeplate.seq/972.smp/RI_1.channel/RI_1.chm
Channel	RI_1

Injection Information:
Data Vault	micro_cm7
Sequence	20240517_CMO_FP23_FP25_MarkusDeplate
Name	FP28_22.2_s5
Number	151
Position	BB5
Comment	
Processing Method	
Instrument Method	run_25B_method
Type	Unknown
Status	Finished
Inject Time	01.06.2024 02:14:18 +02:00
Volume (µl)	20.0000
Dilution Factor	1.0000
Weight	1.0000

Chromatogram Data Information:
Time Min. (min)	0.000000
Time Max. (min)	40.000000
Data Points	2401
Detector	RI
Generating Data System	Chromeleon 7.3.2.11814
Exporting Data System	Chromeleon 7.3.2.0
Operator	Instrument Controller
Signal Quantity	Refractive 
Signal Unit	µRIU
Signal Min.	-0.909875
Signal Max.	50.533125
Channel	RI_1
Driver Name	RID520Driver.dll
Channel Type	Evaluation
Min. Step (s)	1
Max. Step (s)	1
Average Step (s)	1

Signal Parameter Information:
Signal Info	

Chromatogram Data:
Time (min)	Step (s)	Value (µRIU)
0.000000	n.a.	-0.062250
0.016667	1	-0.064375
0.033333	1	-0.066125
0.050000	1	-0.067625
0.066667	1	-0.069125
0.083333	1	-0.070625
0.100000	1	-0.071375
0.116667	1	-0.073500
0.133333	1	-0.074625
0.150000	1	-0.075625
0.166667	1	-0.076500
0.183333	1	-0.077750
0.200000	1	-0.078750
0.216667	1	-0.079000
0.233333	1	-0.078500
0.250000	1	-0.079000
0.266667	1	-0.078125
0.283333	1	-0.078375
0.300000	1	-0.078250
0.316667	1	-0.077875
0.333333	1	-0.077875
0.350000	1	-0.076750
0.366667	1	-0.076500
0.383333	1	-0.076125
0.400000	1	-0.075375
0.416667	1	-0.074375
0.433333	1	-0.073250
0.450000	1	-0.072750
0.466667	1	-0.072000
0.483333	1	-0.070125
0.500000	1	-0.068250
0.516667	1	-0.066875
0.533333	1	-0.066250
0.550000	1	-0.064750
0.566667	1	-0.063000
0.583333	1	-0.060625
0.600000	1	-0.059000
0.616667	1	-0.057625
0.633333	1	-0.055250
0.650000	1	-0.052625
0.666667	1	-0.050000
0.683333	1	-0.046750
0.700000	1	-0.043500
0.716667	1	-0.040625
0.733333	1	-0.038125
0.750000	1	-0.035125
0.766667	1	-0.032125
0.783333	1	-0.029125
0.800000	1	-0.025500
0.816667	1	-0.022000
0.833333	1	-0.018500
0.850000	1	-0.014750
0.866667	1	-0.011750
0.883333	1	-0.008625
0.900000	1	-0.005625
0.916667	1	-0.002125
0.933333	1	0.000750
0.950000	1	0.004000
0.966667	1	0.006375
0.983333	1	0.009250
1.000000	1	0.012125
1.016667	1	0.014750
1.033333	1	0.017500
1.050000	1	0.019500
1.066667	1	0.021875
1.083333	1	0.025000
1.100000	1	0.026750
1.116667	1	0.028750
1.133333	1	0.029750
1.150000	1	0.031625
1.166667	1	0.032750
1.183333	1	0.033750
1.200000	1	0.034875
1.216667	1	0.036000
1.233333	1	0.036625
1.250000	1	0.037250
1.266667	1	0.036875
1.283333	1	0.037125
1.300000	1	0.037125
1.316667	1	0.036875
1.333333	1	0.036125
1.350000	1	0.035125
1.366667	1	0.034125
1.383333	1	0.033500
1.400000	1	0.032125
1.416667	1	0.030750
1.433333	1	0.029625
1.450000	1	0.028375
1.466667	1	0.026500
1.483333	1	0.024250
1.500000	1	0.023000
1.516667	1	0.021000
1.533333	1	0.020000
1.550000	1	0.018125
1.566667	1	0.016250
1.583333	1	0.015375
1.600000	1	0.013750
1.616667	1	0.012750
1.633333	1	0.011750
1.650000	1	0.011125
1.666667	1	0.010750
1.683333	1	0.010625
1.700000	1	0.010625
1.716667	1	0.010750
1.733333	1	0.011000
1.750000	1	0.011625
1.766667	1	0.012250
1.783333	1	0.012875
1.800000	1	0.013750
1.816667	1	0.014625
1.833333	1	0.015875
1.850000	1	0.017375
1.866667	1	0.018625
1.883333	1	0.020000
1.900000	1	0.021375
1.916667	1	0.022625
1.933333	1	0.023500
1.950000	1	0.024250
1.966667	1	0.024750
1.983333	1	0.025375
2.000000	1	0.026250
2.016667	1	0.026375
2.033333	1	0.026375
2.050000	1	0.026500
2.066667	1	0.027000
2.083333	1	0.027625
2.100000	1	0.027625
2.116667	1	0.026750
2.133333	1	0.026375
2.150000	1	0.025750
2.166667	1	0.025500
2.183333	1	0.024625
2.200000	1	0.023750
2.216667	1	0.023875
2.233333	1	0.024000
2.250000	1	0.023875
2.266667	1	0.023750
2.283333	1	0.024000
2.300000	1	0.023750
2.316667	1	0.023875
2.333333	1	0.023750
2.350000	1	0.023875
2.366667	1	0.024750
2.383333	1	0.025750
2.400000	1	0.026125
2.416667	1	0.027125
2.433333	1	0.028125
2.450000	1	0.029250
2.466667	1	0.030625
2.483333	1	0.032125
2.500000	1	0.033125
2.516667	1	0.034500
2.533333	1	0.036375
2.550000	1	0.037625
2.566667	1	0.038875
2.583333	1	0.041125
2.600000	1	0.042875
2.616667	1	0.044875
2.633333	1	0.046625
2.650000	1	0.048500
2.666667	1	0.050500
2.683333	1	0.053000
2.700000	1	0.055125
2.716667	1	0.057375
2.733333	1	0.059125
2.750000	1	0.061500
2.766667	1	0.063500
2.783333	1	0.065000
2.800000	1	0.066250
2.816667	1	0.067750
2.833333	1	0.070000
2.850000	1	0.071250
2.866667	1	0.073500
2.883333	1	0.074625
2.900000	1	0.075625
2.916667	1	0.076625
2.933333	1	0.077875
2.950000	1	0.078625
2.966667	1	0.078750
2.983333	1	0.078750
3.000000	1	0.079375
3.016667	1	0.079500
3.033333	1	0.080250
3.050000	1	0.080500
3.066667	1	0.080250
3.083333	1	0.080125
3.100000	1	0.079000
3.116667	1	0.078500
3.133333	1	0.077875
3.150000	1	0.076875
3.166667	1	0.076625
3.183333	1	0.076000
3.200000	1	0.075500
3.216667	1	0.075125
3.233333	1	0.074625
3.250000	1	0.074000
3.266667	1	0.073625
3.283333	1	0.072875
3.300000	1	0.072625
3.316667	1	0.072000
3.333333	1	0.071125
3.350000	1	0.070750
3.366667	1	0.070250
3.383333	1	0.070125
3.400000	1	0.069750
3.416667	1	0.069250
3.433333	1	0.068875
3.450000	1	0.068000
3.466667	1	0.067500
3.483333	1	0.066250
3.500000	1	0.064875
3.516667	1	0.063875
3.533333	1	0.063750
3.550000	1	0.062000
3.566667	1	0.060750
3.583333	1	0.059375
3.600000	1	0.058250
3.616667	1	0.056750
3.633333	1	0.054875
3.650000	1	0.052750
3.666667	1	0.050625
3.683333	1	0.047875
3.700000	1	0.046000
3.716667	1	0.044000
3.733333	1	0.041375
3.750000	1	0.039500
3.766667	1	0.037375
3.783333	1	0.034375
3.800000	1	0.032750
3.816667	1	0.030750
3.833333	1	0.029000
3.850000	1	0.026875
3.866667	1	0.024750
3.883333	1	0.023250
3.900000	1	0.020875
3.916667	1	0.019750
3.933333	1	0.018875
3.950000	1	0.017625
3.966667	1	0.016375
3.983333	1	0.015250
4.000000	1	0.014625
4.016667	1	0.014875
4.033333	1	0.015125
4.050000	1	0.015125
4.066667	1	0.015750
4.083333	1	0.016500
4.100000	1	0.017375
4.116667	1	0.017500
4.133333	1	0.018375
4.150000	1	0.019500
4.166667	1	0.021250
4.183333	1	0.023250
4.200000	1	0.025500
4.216667	1	0.028375
4.233333	1	0.030625
4.250000	1	0.033125
4.266667	1	0.035875
4.283333	1	0.038875
4.300000	1	0.041875
4.316667	1	0.045625
4.333333	1	0.049250
4.350000	1	0.052125
4.366667	1	0.055500
4.383333	1	0.059375
4.400000	1	0.063375
4.416667	1	0.066625
4.433333	1	0.070375
4.450000	1	0.074375
4.466667	1	0.078000
4.483333	1	0.081000
4.500000	1	0.084125
4.516667	1	0.086625
4.533333	1	0.089875
4.550000	1	0.092500
4.566667	1	0.095500
4.583333	1	0.098125
4.600000	1	0.100375
4.616667	1	0.102625
4.633333	1	0.104875
4.650000	1	0.107250
4.666667	1	0.109250
4.683333	1	0.110375
4.700000	1	0.112125
4.716667	1	0.113250
4.733333	1	0.114250
4.750000	1	0.116375
4.766667	1	0.117125
4.783333	1	0.117625
4.800000	1	0.118375
4.816667	1	0.119250
4.833333	1	0.120375
4.850000	1	0.121750
4.866667	1	0.122625
4.883333	1	0.123500
4.900000	1	0.124000
4.916667	1	0.124750
4.933333	1	0.125750
4.950000	1	0.126875
4.966667	1	0.128125
4.983333	1	0.129000
5.000000	1	0.130500
5.016667	1	0.132000
5.033333	1	0.133375
5.050000	1	0.134500
5.066667	1	0.136500
5.083333	1	0.137750
5.100000	1	0.140375
5.116667	1	0.143125
5.133333	1	0.145000
5.150000	1	0.147125
5.166667	1	0.150000
5.183333	1	0.153000
5.200000	1	0.156500
5.216667	1	0.159250
5.233333	1	0.162750
5.250000	1	0.166250
5.266667	1	0.170375
5.283333	1	0.174750
5.300000	1	0.179125
5.316667	1	0.184000
5.333333	1	0.189125
5.350000	1	0.194000
5.366667	1	0.199750
5.383333	1	0.205625
5.400000	1	0.211250
5.416667	1	0.217000
5.433333	1	0.223375
5.450000	1	0.230000
5.466667	1	0.236000
5.483333	1	0.241625
5.500000	1	0.247875
5.516667	1	0.253875
5.533333	1	0.260000
5.550000	1	0.266125
5.566667	1	0.272125
5.583333	1	0.278125
5.600000	1	0.283875
5.616667	1	0.289250
5.633333	1	0.294625
5.650000	1	0.299000
5.666667	1	0.303250
5.683333	1	0.307375
5.700000	1	0.310875
5.716667	1	0.314250
5.733333	1	0.316875
5.750000	1	0.318750
5.766667	1	0.320500
5.783333	1	0.321750
5.800000	1	0.323000
5.816667	1	0.324125
5.833333	1	0.324625
5.850000	1	0.323375
5.866667	1	0.322000
5.883333	1	0.321375
5.900000	1	0.319500
5.916667	1	0.317500
5.933333	1	0.314500
5.950000	1	0.312000
5.966667	1	0.308500
5.983333	1	0.305625
6.000000	1	0.302500
6.016667	1	0.299000
6.033333	1	0.295000
6.050000	1	0.291125
6.066667	1	0.286875
6.083333	1	0.282625
6.100000	1	0.277750
6.116667	1	0.272750
6.133333	1	0.267750
6.150000	1	0.262500
6.166667	1	0.257875
6.183333	1	0.253250
6.200000	1	0.248750
6.216667	1	0.244000
6.233333	1	0.238875
6.250000	1	0.234375
6.266667	1	0.230000
6.283333	1	0.225500
6.300000	1	0.220875
6.316667	1	0.216375
6.333333	1	0.211625
6.350000	1	0.207250
6.366667	1	0.202500
6.383333	1	0.198125
6.400000	1	0.194000
6.416667	1	0.189750
6.433333	1	0.185500
6.450000	1	0.182125
6.466667	1	0.178375
6.483333	1	0.173750
6.500000	1	0.170000
6.516667	1	0.165875
6.533333	1	0.161625
6.550000	1	0.157500
6.566667	1	0.154000
6.583333	1	0.150125
6.600000	1	0.147250
6.616667	1	0.143875
6.633333	1	0.141125
6.650000	1	0.138375
6.666667	1	0.136375
6.683333	1	0.134000
6.700000	1	0.131625
6.716667	1	0.129000
6.733333	1	0.126500
6.750000	1	0.124500
6.766667	1	0.123125
6.783333	1	0.121750
6.800000	1	0.120250
6.816667	1	0.118875
6.833333	1	0.117375
6.850000	1	0.116250
6.866667	1	0.115750
6.883333	1	0.115375
6.900000	1	0.114250
6.916667	1	0.114375
6.933333	1	0.113750
6.950000	1	0.114500
6.966667	1	0.114500
6.983333	1	0.115000
7.000000	1	0.115875
7.016667	1	0.116625
7.033333	1	0.117375
7.050000	1	0.118375
7.066667	1	0.119250
7.083333	1	0.121625
7.100000	1	0.123250
7.116667	1	0.124375
7.133333	1	0.126625
7.150000	1	0.129000
7.166667	1	0.132250
7.183333	1	0.134875
7.200000	1	0.137250
7.216667	1	0.140875
7.233333	1	0.144375
7.250000	1	0.147250
7.266667	1	0.150500
7.283333	1	0.152875
7.300000	1	0.155375
7.316667	1	0.158000
7.333333	1	0.161250
7.350000	1	0.163500
7.366667	1	0.166375
7.383333	1	0.169125
7.400000	1	0.171875
7.416667	1	0.174125
7.433333	1	0.176125
7.450000	1	0.177875
7.466667	1	0.179750
7.483333	1	0.181250
7.500000	1	0.182750
7.516667	1	0.183875
7.533333	1	0.184125
7.550000	1	0.184000
7.566667	1	0.183625
7.583333	1	0.183250
7.600000	1	0.183000
7.616667	1	0.183125
7.633333	1	0.182125
7.650000	1	0.181125
7.666667	1	0.179500
7.683333	1	0.178125
7.700000	1	0.176375
7.716667	1	0.174750
7.733333	1	0.172125
7.750000	1	0.170500
7.766667	1	0.168250
7.783333	1	0.166500
7.800000	1	0.164375
7.816667	1	0.162500
7.833333	1	0.159750
7.850000	1	0.157375
7.866667	1	0.155250
7.883333	1	0.152875
7.900000	1	0.150250
7.916667	1	0.147625
7.933333	1	0.145125
7.950000	1	0.142875
7.966667	1	0.140625
7.983333	1	0.138500
8.000000	1	0.136250
8.016667	1	0.133500
8.033333	1	0.131125
8.050000	1	0.128500
8.066667	1	0.125750
8.083333	1	0.123000
8.100000	1	0.120875
8.116667	1	0.117750
8.133333	1	0.115625
8.150000	1	0.113125
8.166667	1	0.110625
8.183333	1	0.108000
8.200000	1	0.105875
8.216667	1	0.103875
8.233333	1	0.101500
8.250000	1	0.098625
8.266667	1	0.096625
8.283333	1	0.094250
8.300000	1	0.091875
8.316667	1	0.090250
8.333333	1	0.088250
8.350000	1	0.086625
8.366667	1	0.085000
8.383333	1	0.083375
8.400000	1	0.082500
8.416667	1	0.080625
8.433333	1	0.079375
8.450000	1	0.078250
8.466667	1	0.077125
8.483333	1	0.076250
8.500000	1	0.074625
8.516667	1	0.073625
8.533333	1	0.072625
8.550000	1	0.071875
8.566667	1	0.070750
8.583333	1	0.069625
8.600000	1	0.069250
8.616667	1	0.068375
8.633333	1	0.067500
8.650000	1	0.066500
8.666667	1	0.066000
8.683333	1	0.065625
8.700000	1	0.065750
8.716667	1	0.065000
8.733333	1	0.064500
8.750000	1	0.064500
8.766667	1	0.065125
8.783333	1	0.065000
8.800000	1	0.064750
8.816667	1	0.065375
8.833333	1	0.065750
8.850000	1	0.065750
8.866667	1	0.066750
8.883333	1	0.067750
8.900000	1	0.069375
8.916667	1	0.070500
8.933333	1	0.071500
8.950000	1	0.072250
8.966667	1	0.074125
8.983333	1	0.076000
9.000000	1	0.077375
9.016667	1	0.078625
9.033333	1	0.080250
9.050000	1	0.082000
9.066667	1	0.082750
9.083333	1	0.084375
9.100000	1	0.086000
9.116667	1	0.088250
9.133333	1	0.090250
9.150000	1	0.091875
9.166667	1	0.093375
9.183333	1	0.095500
9.200000	1	0.096500
9.216667	1	0.097875
9.233333	1	0.099000
9.250000	1	0.099625
9.266667	1	0.100875
9.283333	1	0.101875
9.300000	1	0.102875
9.316667	1	0.104125
9.333333	1	0.105250
9.350000	1	0.105375
9.366667	1	0.105875
9.383333	1	0.106375
9.400000	1	0.107000
9.416667	1	0.107000
9.433333	1	0.107000
9.450000	1	0.106125
9.466667	1	0.105500
9.483333	1	0.104875
9.500000	1	0.104750
9.516667	1	0.104000
9.533333	1	0.102875
9.550000	1	0.101625
9.566667	1	0.099875
9.583333	1	0.098125
9.600000	1	0.095875
9.616667	1	0.093250
9.633333	1	0.090750
9.650000	1	0.088375
9.666667	1	0.085750
9.683333	1	0.083500
9.700000	1	0.080000
9.716667	1	0.076625
9.733333	1	0.072750
9.750000	1	0.069750
9.766667	1	0.065750
9.783333	1	0.061625
9.800000	1	0.057750
9.816667	1	0.054000
9.833333	1	0.050250
9.850000	1	0.046250
9.866667	1	0.042750
9.883333	1	0.039875
9.900000	1	0.037250
9.916667	1	0.035250
9.933333	1	0.032500
9.950000	1	0.030875
9.966667	1	0.029500
9.983333	1	0.028625
10.000000	1	0.028625
10.016667	1	0.029500
10.033333	1	0.030875
10.050000	1	0.032875
10.066667	1	0.035750
10.083333	1	0.040125
10.100000	1	0.045125
10.116667	1	0.051375
10.133333	1	0.058875
10.150000	1	0.066875
10.166667	1	0.075750
10.183333	1	0.086250
10.200000	1	0.097375
10.216667	1	0.109625
10.233333	1	0.124500
10.250000	1	0.141000
10.266667	1	0.159625
10.283333	1	0.181000
10.300000	1	0.204625
10.316667	1	0.230500
10.333333	1	0.259250
10.350000	1	0.288750
10.366667	1	0.318625
10.383333	1	0.346125
10.400000	1	0.368875
10.416667	1	0.387250
10.433333	1	0.400500
10.450000	1	0.411375
10.466667	1	0.426000
10.483333	1	0.456000
10.500000	1	0.520125
10.516667	1	0.646625
10.533333	1	0.875875
10.550000	1	1.258500
10.566667	1	1.853500
10.583333	1	2.721875
10.600000	1	3.926125
10.616667	1	5.519000
10.633333	1	7.537750
10.650000	1	10.001250
10.666667	1	12.915750
10.683333	1	16.268875
10.700000	1	20.028750
10.716667	1	24.140375
10.733333	1	28.518375
10.750000	1	33.044625
10.766667	1	37.551750
10.783333	1	41.816000
10.800000	1	45.561375
10.816667	1	48.462750
10.833333	1	50.203125
10.850000	1	50.533125
10.866667	1	49.347250
10.883333	1	46.729375
10.900000	1	42.952250
10.916667	1	38.417625
10.933333	1	33.561250
10.950000	1	28.761625
10.966667	1	24.286500
10.983333	1	20.294375
11.000000	1	16.848250
11.016667	1	13.949000
11.033333	1	11.556500
11.050000	1	9.615750
11.066667	1	8.060125
11.083333	1	6.824500
11.100000	1	5.847625
11.116667	1	5.075250
11.133333	1	4.461875
11.150000	1	3.970875
11.166667	1	3.572750
11.183333	1	3.247125
11.200000	1	2.976000
11.216667	1	2.749625
11.233333	1	2.557500
11.250000	1	2.393125
11.266667	1	2.250875
11.283333	1	2.127875
11.300000	1	2.020000
11.316667	1	1.925250
11.333333	1	1.841000
11.350000	1	1.766750
11.366667	1	1.701000
11.383333	1	1.642625
11.400000	1	1.591500
11.416667	1	1.545875
11.433333	1	1.505750
11.450000	1	1.470000
11.466667	1	1.438625
11.483333	1	1.410375
11.500000	1	1.385000
11.516667	1	1.361375
11.533333	1	1.340625
11.550000	1	1.322000
11.566667	1	1.305625
11.583333	1	1.290125
11.600000	1	1.276250
11.616667	1	1.263375
11.633333	1	1.252125
11.650000	1	1.242750
11.666667	1	1.234125
11.683333	1	1.226375
11.700000	1	1.220250
11.716667	1	1.215000
11.733333	1	1.210250
11.750000	1	1.207875
11.766667	1	1.205625
11.783333	1	1.205125
11.800000	1	1.204375
11.816667	1	1.205000
11.833333	1	1.206250
11.850000	1	1.207000
11.866667	1	1.208375
11.883333	1	1.209250
11.900000	1	1.209875
11.916667	1	1.210875
11.933333	1	1.212125
11.950000	1	1.213000
11.966667	1	1.214250
11.983333	1	1.215500
12.000000	1	1.217000
12.016667	1	1.219875
12.033333	1	1.222250
12.050000	1	1.225375
12.066667	1	1.229250
12.083333	1	1.233500
12.100000	1	1.238750
12.116667	1	1.243750
12.133333	1	1.249875
12.150000	1	1.256375
12.166667	1	1.263500
12.183333	1	1.271750
12.200000	1	1.281250
12.216667	1	1.291500
12.233333	1	1.304500
12.250000	1	1.319375
12.266667	1	1.337375
12.283333	1	1.357875
12.300000	1	1.382750
12.316667	1	1.412875
12.333333	1	1.449375
12.350000	1	1.492625
12.366667	1	1.545000
12.383333	1	1.609500
12.400000	1	1.688875
12.416667	1	1.785000
12.433333	1	1.902250
12.450000	1	2.045375
12.466667	1	2.218875
12.483333	1	2.428375
12.500000	1	2.676750
12.516667	1	2.966250
12.533333	1	3.297250
12.550000	1	3.666250
12.566667	1	4.066875
12.583333	1	4.489875
12.600000	1	4.921750
12.616667	1	5.345875
12.633333	1	5.746500
12.650000	1	6.106500
12.666667	1	6.410250
12.683333	1	6.643875
12.700000	1	6.800250
12.716667	1	6.874625
12.733333	1	6.868500
12.750000	1	6.788500
12.766667	1	6.643500
12.783333	1	6.443000
12.800000	1	6.202250
12.816667	1	5.932500
12.833333	1	5.646250
12.850000	1	5.352250
12.866667	1	5.059375
12.883333	1	4.774375
12.900000	1	4.502625
12.916667	1	4.247000
12.933333	1	4.011875
12.950000	1	3.798625
12.966667	1	3.606000
12.983333	1	3.434125
13.000000	1	3.282250
13.016667	1	3.147500
13.033333	1	3.029000
13.050000	1	2.925000
13.066667	1	2.832625
13.083333	1	2.750875
13.100000	1	2.677500
13.116667	1	2.611375
13.133333	1	2.552500
13.150000	1	2.499250
13.166667	1	2.449250
13.183333	1	2.403750
13.200000	1	2.360875
13.216667	1	2.320625
13.233333	1	2.283125
13.250000	1	2.246750
13.266667	1	2.211625
13.283333	1	2.178125
13.300000	1	2.145500
13.316667	1	2.114250
13.333333	1	2.084625
13.350000	1	2.056750
13.366667	1	2.030500
13.383333	1	2.005125
13.400000	1	1.982750
13.416667	1	1.962750
13.433333	1	1.945750
13.450000	1	1.931375
13.466667	1	1.919375
13.483333	1	1.910375
13.500000	1	1.904375
13.516667	1	1.900375
13.533333	1	1.898875
13.550000	1	1.898125
13.566667	1	1.899500
13.583333	1	1.900750
13.600000	1	1.901625
13.616667	1	1.901500
13.633333	1	1.899500
13.650000	1	1.894750
13.666667	1	1.886250
13.683333	1	1.875000
13.700000	1	1.860625
13.716667	1	1.842875
13.733333	1	1.822875
13.750000	1	1.800500
13.766667	1	1.777500
13.783333	1	1.753500
13.800000	1	1.729125
13.816667	1	1.705875
13.833333	1	1.682750
13.850000	1	1.661750
13.866667	1	1.640375
13.883333	1	1.620625
13.900000	1	1.602125
13.916667	1	1.584625
13.933333	1	1.568250
13.950000	1	1.552875
13.966667	1	1.538875
13.983333	1	1.524750
14.000000	1	1.511500
14.016667	1	1.499250
14.033333	1	1.488125
14.050000	1	1.476375
14.066667	1	1.465375
14.083333	1	1.454750
14.100000	1	1.444625
14.116667	1	1.434750
14.133333	1	1.425875
14.150000	1	1.417250
14.166667	1	1.410125
14.183333	1	1.403625
14.200000	1	1.397875
14.216667	1	1.393750
14.233333	1	1.391375
14.250000	1	1.390375
14.266667	1	1.391375
14.283333	1	1.395875
14.300000	1	1.403375
14.316667	1	1.413875
14.333333	1	1.427500
14.350000	1	1.445000
14.366667	1	1.466375
14.383333	1	1.493125
14.400000	1	1.524750
14.416667	1	1.563500
14.433333	1	1.612625
14.450000	1	1.674250
14.466667	1	1.753375
14.483333	1	1.858500
14.500000	1	1.998250
14.516667	1	2.186750
14.533333	1	2.440000
14.550000	1	2.778000
14.566667	1	3.226750
14.583333	1	3.814500
14.600000	1	4.573625
14.616667	1	5.538625
14.633333	1	6.745500
14.650000	1	8.226000
14.666667	1	10.002500
14.683333	1	12.087750
14.700000	1	14.473875
14.716667	1	17.131250
14.733333	1	20.009500
14.750000	1	23.036625
14.766667	1	26.116125
14.783333	1	29.132000
14.800000	1	31.962625
14.816667	1	34.484125
14.833333	1	36.582000
14.850000	1	38.154750
14.866667	1	39.129375
14.883333	1	39.461375
14.900000	1	39.146625
14.916667	1	38.212500
14.933333	1	36.723125
14.950000	1	34.767000
14.966667	1	32.449375
14.983333	1	29.885125
15.000000	1	27.184250
15.016667	1	24.445500
15.033333	1	21.755500
15.050000	1	19.184875
15.066667	1	16.786125
15.083333	1	14.594875
15.100000	1	12.627500
15.116667	1	10.890500
15.133333	1	9.376875
15.150000	1	8.072750
15.166667	1	6.960625
15.183333	1	6.021500
15.200000	1	5.232250
15.216667	1	4.573375
15.233333	1	4.026000
15.250000	1	3.574125
15.266667	1	3.203875
15.283333	1	2.903375
15.300000	1	2.661875
15.316667	1	2.470375
15.333333	1	2.322125
15.350000	1	2.209750
15.366667	1	2.127750
15.383333	1	2.070125
15.400000	1	2.033000
15.416667	1	2.010500
15.433333	1	1.998875
15.450000	1	1.994875
15.466667	1	1.995000
15.483333	1	1.994625
15.500000	1	1.991750
15.516667	1	1.984750
15.533333	1	1.971375
15.550000	1	1.950875
15.566667	1	1.924875
15.583333	1	1.892000
15.600000	1	1.854500
15.616667	1	1.812375
15.633333	1	1.768875
15.650000	1	1.723375
15.666667	1	1.678250
15.683333	1	1.634125
15.700000	1	1.591875
15.716667	1	1.552125
15.733333	1	1.514250
15.750000	1	1.479500
15.766667	1	1.447500
15.783333	1	1.418000
15.800000	1	1.390375
15.816667	1	1.364875
15.833333	1	1.340750
15.850000	1	1.318625
15.866667	1	1.298500
15.883333	1	1.280750
15.900000	1	1.264875
15.916667	1	1.251125
15.933333	1	1.238750
15.950000	1	1.229000
15.966667	1	1.220500
15.983333	1	1.214750
16.000000	1	1.210625
16.016667	1	1.208375
16.033333	1	1.208375
16.050000	1	1.209000
16.066667	1	1.211750
16.083333	1	1.215000
16.100000	1	1.218750
16.116667	1	1.222750
16.133333	1	1.227250
16.150000	1	1.231000
16.166667	1	1.234875
16.183333	1	1.236875
16.200000	1	1.238875
16.216667	1	1.239750
16.233333	1	1.240125
16.250000	1	1.238750
16.266667	1	1.237125
16.283333	1	1.234500
16.300000	1	1.230750
16.316667	1	1.226375
16.333333	1	1.221625
16.350000	1	1.217250
16.366667	1	1.213250
16.383333	1	1.210375
16.400000	1	1.207500
16.416667	1	1.205750
16.433333	1	1.204750
16.450000	1	1.205125
16.466667	1	1.207000
16.483333	1	1.209375
16.500000	1	1.212000
16.516667	1	1.214625
16.533333	1	1.217500
16.550000	1	1.219875
16.566667	1	1.221375
16.583333	1	1.222375
16.600000	1	1.221875
16.616667	1	1.220625
16.633333	1	1.218125
16.650000	1	1.216000
16.666667	1	1.212250
16.683333	1	1.209125
16.700000	1	1.206500
16.716667	1	1.204625
16.733333	1	1.204500
16.750000	1	1.205250
16.766667	1	1.207500
16.783333	1	1.211625
16.800000	1	1.216750
16.816667	1	1.222625
16.833333	1	1.230000
16.850000	1	1.238000
16.866667	1	1.245500
16.883333	1	1.252625
16.900000	1	1.259375
16.916667	1	1.264250
16.933333	1	1.268125
16.950000	1	1.270250
16.966667	1	1.270750
16.983333	1	1.270125
17.000000	1	1.269000
17.016667	1	1.267000
17.033333	1	1.263250
17.050000	1	1.259500
17.066667	1	1.255500
17.083333	1	1.251625
17.100000	1	1.247750
17.116667	1	1.244625
17.133333	1	1.241875
17.150000	1	1.239625
17.166667	1	1.238125
17.183333	1	1.238125
17.200000	1	1.238125
17.216667	1	1.239750
17.233333	1	1.241125
17.250000	1	1.243875
17.266667	1	1.246125
17.283333	1	1.250000
17.300000	1	1.254625
17.316667	1	1.259500
17.333333	1	1.264625
17.350000	1	1.269750
17.366667	1	1.274500
17.383333	1	1.279500
17.400000	1	1.284125
17.416667	1	1.287125
17.433333	1	1.289250
17.450000	1	1.289625
17.466667	1	1.289500
17.483333	1	1.288375
17.500000	1	1.284875
17.516667	1	1.278875
17.533333	1	1.272250
17.550000	1	1.263500
17.566667	1	1.252625
17.583333	1	1.239625
17.600000	1	1.226625
17.616667	1	1.212000
17.633333	1	1.196250
17.650000	1	1.180500
17.666667	1	1.164500
17.683333	1	1.147875
17.700000	1	1.131625
17.716667	1	1.115000
17.733333	1	1.099250
17.750000	1	1.084750
17.766667	1	1.070375
17.783333	1	1.058250
17.800000	1	1.046500
17.816667	1	1.034875
17.833333	1	1.024750
17.850000	1	1.015250
17.866667	1	1.006250
17.883333	1	0.998875
17.900000	1	0.991000
17.916667	1	0.983750
17.933333	1	0.976625
17.950000	1	0.969875
17.966667	1	0.962750
17.983333	1	0.955125
18.000000	1	0.947875
18.016667	1	0.940500
18.033333	1	0.933250
18.050000	1	0.926375
18.066667	1	0.919250
18.083333	1	0.912500
18.100000	1	0.905250
18.116667	1	0.899125
18.133333	1	0.893750
18.150000	1	0.888750
18.166667	1	0.884500
18.183333	1	0.880625
18.200000	1	0.877375
18.216667	1	0.874500
18.233333	1	0.873250
18.250000	1	0.871875
18.266667	1	0.871000
18.283333	1	0.870375
18.300000	1	0.869375
18.316667	1	0.869125
18.333333	1	0.869000
18.350000	1	0.870125
18.366667	1	0.872000
18.383333	1	0.874375
18.400000	1	0.876625
18.416667	1	0.880500
18.433333	1	0.885750
18.450000	1	0.893125
18.466667	1	0.902000
18.483333	1	0.912625
18.500000	1	0.924875
18.516667	1	0.938125
18.533333	1	0.954000
18.550000	1	0.972125
18.566667	1	0.991875
18.583333	1	1.014375
18.600000	1	1.038000
18.616667	1	1.063375
18.633333	1	1.090125
18.650000	1	1.119750
18.666667	1	1.149125
18.683333	1	1.180250
18.700000	1	1.212000
18.716667	1	1.244500
18.733333	1	1.277375
18.750000	1	1.310250
18.766667	1	1.343125
18.783333	1	1.374375
18.800000	1	1.405000
18.816667	1	1.433750
18.833333	1	1.459625
18.850000	1	1.482500
18.866667	1	1.501625
18.883333	1	1.516000
18.900000	1	1.526625
18.916667	1	1.531500
18.933333	1	1.530250
18.950000	1	1.523500
18.966667	1	1.510750
18.983333	1	1.493000
19.000000	1	1.469125
19.016667	1	1.440250
19.033333	1	1.405750
19.050000	1	1.367250
19.066667	1	1.326250
19.083333	1	1.283250
19.100000	1	1.239000
19.116667	1	1.194375
19.133333	1	1.151500
19.150000	1	1.110125
19.166667	1	1.070000
19.183333	1	1.033250
19.200000	1	1.000875
19.216667	1	0.972375
19.233333	1	0.949375
19.250000	1	0.931000
19.266667	1	0.918250
19.283333	1	0.911750
19.300000	1	0.910500
19.316667	1	0.914750
19.333333	1	0.925000
19.350000	1	0.940750
19.366667	1	0.960250
19.383333	1	0.984500
19.400000	1	1.011625
19.416667	1	1.042125
19.433333	1	1.073375
19.450000	1	1.106250
19.466667	1	1.138875
19.483333	1	1.171500
19.500000	1	1.201625
19.516667	1	1.229000
19.533333	1	1.253000
19.550000	1	1.273125
19.566667	1	1.289125
19.583333	1	1.300500
19.600000	1	1.306375
19.616667	1	1.306875
19.633333	1	1.303500
19.650000	1	1.294750
19.666667	1	1.281375
19.683333	1	1.264750
19.700000	1	1.244500
19.716667	1	1.221500
19.733333	1	1.195875
19.750000	1	1.169000
19.766667	1	1.139250
19.783333	1	1.108875
19.800000	1	1.078125
19.816667	1	1.047250
19.833333	1	1.017125
19.850000	1	0.986500
19.866667	1	0.957875
19.883333	1	0.930625
19.900000	1	0.905750
19.916667	1	0.883625
19.933333	1	0.863375
19.950000	1	0.846375
19.966667	1	0.833250
19.983333	1	0.824625
20.000000	1	0.820750
20.016667	1	0.820875
20.033333	1	0.826750
20.050000	1	0.838750
20.066667	1	0.856500
20.083333	1	0.880500
20.100000	1	0.910000
20.116667	1	0.945875
20.133333	1	0.986750
20.150000	1	1.032250
20.166667	1	1.081500
20.183333	1	1.134125
20.200000	1	1.187750
20.216667	1	1.241250
20.233333	1	1.292625
20.250000	1	1.340375
20.266667	1	1.382750
20.283333	1	1.418500
20.300000	1	1.446000
20.316667	1	1.464625
20.333333	1	1.474250
20.350000	1	1.472500
20.366667	1	1.460750
20.383333	1	1.439375
20.400000	1	1.409125
20.416667	1	1.371250
20.433333	1	1.327875
20.450000	1	1.280375
20.466667	1	1.230500
20.483333	1	1.179375
20.500000	1	1.129500
20.516667	1	1.083375
20.533333	1	1.041000
20.550000	1	1.004750
20.566667	1	0.975625
20.583333	1	0.954250
20.600000	1	0.941500
20.616667	1	0.938750
20.633333	1	0.945750
20.650000	1	0.963500
20.666667	1	0.990750
20.683333	1	1.028250
20.700000	1	1.074750
20.716667	1	1.128500
20.733333	1	1.188750
20.750000	1	1.254125
20.766667	1	1.323000
20.783333	1	1.393750
20.800000	1	1.463000
20.816667	1	1.529250
20.833333	1	1.589625
20.850000	1	1.642125
20.866667	1	1.685375
20.883333	1	1.716875
20.900000	1	1.737000
20.916667	1	1.744750
20.933333	1	1.738500
20.950000	1	1.720250
20.966667	1	1.689625
20.983333	1	1.648625
21.000000	1	1.597875
21.016667	1	1.539125
21.033333	1	1.475375
21.050000	1	1.407250
21.066667	1	1.337125
21.083333	1	1.266500
21.100000	1	1.197750
21.116667	1	1.131125
21.133333	1	1.067500
21.150000	1	1.007750
21.166667	1	0.951750
21.183333	1	0.900750
21.200000	1	0.854750
21.216667	1	0.812500
21.233333	1	0.775125
21.250000	1	0.741875
21.266667	1	0.712375
21.283333	1	0.686375
21.300000	1	0.663875
21.316667	1	0.644500
21.333333	1	0.626375
21.350000	1	0.611625
21.366667	1	0.598500
21.383333	1	0.587875
21.400000	1	0.577750
21.416667	1	0.569500
21.433333	1	0.561875
21.450000	1	0.557000
21.466667	1	0.553250
21.483333	1	0.550125
21.500000	1	0.548625
21.516667	1	0.548750
21.533333	1	0.550625
21.550000	1	0.555125
21.566667	1	0.561500
21.583333	1	0.570000
21.600000	1	0.581625
21.616667	1	0.596125
21.633333	1	0.613750
21.650000	1	0.634875
21.666667	1	0.659500
21.683333	1	0.688000
21.700000	1	0.721250
21.716667	1	0.757125
21.733333	1	0.797875
21.750000	1	0.841875
21.766667	1	0.889375
21.783333	1	0.940375
21.800000	1	0.993500
21.816667	1	1.048125
21.833333	1	1.101875
21.850000	1	1.155125
21.866667	1	1.206625
21.883333	1	1.255375
21.900000	1	1.300625
21.916667	1	1.341250
21.933333	1	1.375250
21.950000	1	1.403375
21.966667	1	1.423625
21.983333	1	1.437875
22.000000	1	1.443000
22.016667	1	1.441125
22.033333	1	1.431000
22.050000	1	1.414000
22.066667	1	1.391000
22.083333	1	1.362000
22.100000	1	1.328500
22.116667	1	1.291500
22.133333	1	1.250875
22.150000	1	1.207375
22.166667	1	1.162875
22.183333	1	1.116875
22.200000	1	1.071125
22.216667	1	1.026375
22.233333	1	0.982625
22.250000	1	0.941500
22.266667	1	0.901000
22.283333	1	0.863125
22.300000	1	0.827125
22.316667	1	0.793375
22.333333	1	0.761625
22.350000	1	0.732875
22.366667	1	0.705875
22.383333	1	0.681500
22.400000	1	0.659375
22.416667	1	0.640125
22.433333	1	0.623750
22.450000	1	0.608875
22.466667	1	0.595625
22.483333	1	0.584125
22.500000	1	0.575000
22.516667	1	0.567250
22.533333	1	0.560375
22.550000	1	0.555000
22.566667	1	0.550500
22.583333	1	0.546625
22.600000	1	0.543500
22.616667	1	0.540625
22.633333	1	0.538000
22.650000	1	0.535250
22.666667	1	0.532375
22.683333	1	0.528375
22.700000	1	0.524375
22.716667	1	0.519875
22.733333	1	0.515375
22.750000	1	0.510375
22.766667	1	0.503750
22.783333	1	0.497500
22.800000	1	0.489750
22.816667	1	0.482125
22.833333	1	0.474000
22.850000	1	0.466375
22.866667	1	0.458375
22.883333	1	0.449875
22.900000	1	0.442000
22.916667	1	0.435000
22.933333	1	0.427500
22.950000	1	0.420625
22.966667	1	0.414000
22.983333	1	0.407750
23.000000	1	0.402500
23.016667	1	0.397750
23.033333	1	0.393375
23.050000	1	0.389625
23.066667	1	0.386375
23.083333	1	0.384000
23.100000	1	0.382625
23.116667	1	0.381375
23.133333	1	0.380125
23.150000	1	0.379875
23.166667	1	0.380000
23.183333	1	0.380750
23.200000	1	0.382750
23.216667	1	0.385125
23.233333	1	0.388625
23.250000	1	0.393250
23.266667	1	0.399500
23.283333	1	0.408250
23.300000	1	0.417500
23.316667	1	0.430625
23.333333	1	0.446625
23.350000	1	0.467375
23.366667	1	0.493000
23.383333	1	0.523750
23.400000	1	0.561250
23.416667	1	0.606625
23.433333	1	0.661750
23.450000	1	0.726625
23.466667	1	0.802875
23.483333	1	0.893625
23.500000	1	0.998875
23.516667	1	1.120125
23.533333	1	1.257750
23.550000	1	1.413875
23.566667	1	1.587875
23.583333	1	1.780625
23.600000	1	1.991500
23.616667	1	2.219875
23.633333	1	2.462250
23.650000	1	2.717375
23.666667	1	2.983625
23.683333	1	3.255375
23.700000	1	3.530000
23.716667	1	3.802750
23.733333	1	4.068375
23.750000	1	4.321875
23.766667	1	4.557750
23.783333	1	4.770500
23.800000	1	4.956125
23.816667	1	5.109000
23.833333	1	5.227375
23.850000	1	5.308250
23.866667	1	5.350125
23.883333	1	5.353125
23.900000	1	5.317875
23.916667	1	5.244250
23.933333	1	5.136750
23.950000	1	4.996875
23.966667	1	4.829500
23.983333	1	4.638875
24.000000	1	4.429625
24.016667	1	4.206250
24.033333	1	3.972000
24.050000	1	3.733375
24.066667	1	3.493750
24.083333	1	3.255625
24.100000	1	3.023375
24.116667	1	2.798500
24.133333	1	2.582875
24.150000	1	2.378375
24.166667	1	2.185750
24.183333	1	2.005750
24.200000	1	1.839500
24.216667	1	1.686875
24.233333	1	1.546000
24.250000	1	1.418750
24.266667	1	1.302750
24.283333	1	1.198625
24.300000	1	1.105000
24.316667	1	1.020875
24.333333	1	0.945500
24.350000	1	0.878875
24.366667	1	0.820250
24.383333	1	0.768750
24.400000	1	0.723875
24.416667	1	0.684125
24.433333	1	0.650125
24.450000	1	0.620875
24.466667	1	0.596250
24.483333	1	0.575500
24.500000	1	0.558625
24.516667	1	0.543875
24.533333	1	0.531125
24.550000	1	0.520625
24.566667	1	0.512375
24.583333	1	0.504375
24.600000	1	0.497625
24.616667	1	0.492125
24.633333	1	0.487000
24.650000	1	0.483125
24.666667	1	0.478625
24.683333	1	0.473500
24.700000	1	0.469125
24.716667	1	0.464625
24.733333	1	0.460125
24.750000	1	0.455500
24.766667	1	0.451375
24.783333	1	0.446625
24.800000	1	0.441250
24.816667	1	0.436625
24.833333	1	0.431500
24.850000	1	0.425875
24.866667	1	0.420375
24.883333	1	0.416375
24.900000	1	0.412625
24.916667	1	0.408875
24.933333	1	0.405250
24.950000	1	0.401625
24.966667	1	0.398000
24.983333	1	0.394250
25.000000	1	0.391125
25.016667	1	0.388625
25.033333	1	0.385625
25.050000	1	0.383000
25.066667	1	0.380500
25.083333	1	0.378750
25.100000	1	0.376375
25.116667	1	0.373875
25.133333	1	0.371875
25.150000	1	0.370500
25.166667	1	0.368750
25.183333	1	0.366250
25.200000	1	0.365000
25.216667	1	0.363000
25.233333	1	0.361250
25.250000	1	0.359500
25.266667	1	0.357750
25.283333	1	0.355625
25.300000	1	0.354125
25.316667	1	0.352875
25.333333	1	0.351250
25.350000	1	0.349625
25.366667	1	0.348875
25.383333	1	0.347750
25.400000	1	0.346750
25.416667	1	0.346375
25.433333	1	0.345875
25.450000	1	0.345875
25.466667	1	0.345125
25.483333	1	0.345500
25.500000	1	0.345125
25.516667	1	0.346250
25.533333	1	0.346500
25.550000	1	0.346500
25.566667	1	0.346875
25.583333	1	0.347375
25.600000	1	0.346875
25.616667	1	0.347000
25.633333	1	0.347000
25.650000	1	0.346750
25.666667	1	0.346125
25.683333	1	0.345875
25.700000	1	0.345250
25.716667	1	0.343875
25.733333	1	0.342625
25.750000	1	0.341000
25.766667	1	0.339250
25.783333	1	0.337875
25.800000	1	0.336375
25.816667	1	0.334625
25.833333	1	0.333250
25.850000	1	0.330875
25.866667	1	0.328750
25.883333	1	0.327125
25.900000	1	0.326125
25.916667	1	0.324750
25.933333	1	0.324000
25.950000	1	0.323250
25.966667	1	0.323000
25.983333	1	0.322250
26.000000	1	0.321750
26.016667	1	0.322000
26.033333	1	0.322625
26.050000	1	0.323500
26.066667	1	0.325375
26.083333	1	0.327875
26.100000	1	0.329750
26.116667	1	0.332375
26.133333	1	0.335250
26.150000	1	0.337250
26.166667	1	0.339250
26.183333	1	0.341500
26.200000	1	0.344000
26.216667	1	0.346500
26.233333	1	0.348500
26.250000	1	0.350750
26.266667	1	0.352000
26.283333	1	0.354125
26.300000	1	0.355000
26.316667	1	0.356125
26.333333	1	0.356000
26.350000	1	0.355000
26.366667	1	0.354125
26.383333	1	0.353250
26.400000	1	0.350500
26.416667	1	0.347500
26.433333	1	0.344000
26.450000	1	0.340000
26.466667	1	0.334875
26.483333	1	0.330000
26.500000	1	0.324500
26.516667	1	0.318125
26.533333	1	0.311750
26.550000	1	0.304750
26.566667	1	0.297625
26.583333	1	0.289125
26.600000	1	0.281375
26.616667	1	0.273875
26.633333	1	0.266125
26.650000	1	0.258625
26.666667	1	0.251250
26.683333	1	0.243625
26.700000	1	0.237000
26.716667	1	0.230125
26.733333	1	0.223375
26.750000	1	0.216500
26.766667	1	0.209000
26.783333	1	0.203000
26.800000	1	0.197750
26.816667	1	0.193125
26.833333	1	0.188500
26.850000	1	0.184750
26.866667	1	0.181500
26.883333	1	0.178875
26.900000	1	0.176750
26.916667	1	0.174125
26.933333	1	0.173125
26.950000	1	0.172500
26.966667	1	0.172500
26.983333	1	0.173250
27.000000	1	0.174875
27.016667	1	0.176875
27.033333	1	0.179500
27.050000	1	0.183250
27.066667	1	0.187250
27.083333	1	0.193375
27.100000	1	0.199250
27.116667	1	0.205250
27.133333	1	0.212625
27.150000	1	0.221625
27.166667	1	0.231250
27.183333	1	0.242375
27.200000	1	0.254625
27.216667	1	0.268875
27.233333	1	0.284125
27.250000	1	0.302125
27.266667	1	0.322875
27.283333	1	0.346625
27.300000	1	0.373750
27.316667	1	0.403625
27.333333	1	0.437500
27.350000	1	0.475875
27.366667	1	0.519750
27.383333	1	0.568875
27.400000	1	0.624500
27.416667	1	0.687125
27.433333	1	0.757625
27.450000	1	0.835625
27.466667	1	0.922500
27.483333	1	1.019625
27.500000	1	1.125250
27.516667	1	1.241125
27.533333	1	1.365500
27.550000	1	1.500000
27.566667	1	1.644125
27.583333	1	1.797375
27.600000	1	1.958375
27.616667	1	2.127125
27.633333	1	2.300875
27.650000	1	2.480125
27.666667	1	2.661875
27.683333	1	2.845000
27.700000	1	3.026625
27.716667	1	3.205250
27.733333	1	3.376875
27.750000	1	3.540250
27.766667	1	3.692750
27.783333	1	3.831250
27.800000	1	3.953500
27.816667	1	4.057625
27.833333	1	4.142500
27.850000	1	4.206625
27.866667	1	4.248500
27.883333	1	4.266125
27.900000	1	4.260500
27.916667	1	4.230500
27.933333	1	4.177625
27.950000	1	4.102250
27.966667	1	4.007500
27.983333	1	3.891750
28.000000	1	3.760125
28.016667	1	3.614375
28.033333	1	3.456500
28.050000	1	3.287250
28.066667	1	3.111500
28.083333	1	2.931250
28.100000	1	2.748750
28.116667	1	2.566000
28.133333	1	2.386750
28.150000	1	2.210375
28.166667	1	2.041625
28.183333	1	1.880250
28.200000	1	1.727125
28.216667	1	1.583125
28.233333	1	1.448375
28.250000	1	1.323250
28.266667	1	1.208375
28.283333	1	1.102875
28.300000	1	1.006875
28.316667	1	0.920375
28.333333	1	0.842625
28.350000	1	0.774375
28.366667	1	0.713000
28.383333	1	0.660000
28.400000	1	0.613375
28.416667	1	0.572875
28.433333	1	0.538625
28.450000	1	0.510250
28.466667	1	0.486750
28.483333	1	0.467625
28.500000	1	0.451750
28.516667	1	0.439875
28.533333	1	0.431500
28.550000	1	0.426375
28.566667	1	0.423375
28.583333	1	0.424250
28.600000	1	0.426250
28.616667	1	0.430375
28.633333	1	0.436000
28.650000	1	0.443125
28.666667	1	0.451250
28.683333	1	0.460250
28.700000	1	0.469375
28.716667	1	0.479125
28.733333	1	0.490125
28.750000	1	0.500250
28.766667	1	0.511000
28.783333	1	0.521250
28.800000	1	0.531875
28.816667	1	0.540625
28.833333	1	0.549375
28.850000	1	0.556875
28.866667	1	0.563500
28.883333	1	0.569500
28.900000	1	0.573500
28.916667	1	0.576125
28.933333	1	0.577875
28.950000	1	0.578125
28.966667	1	0.576750
28.983333	1	0.573375
29.000000	1	0.568375
29.016667	1	0.562125
29.033333	1	0.554375
29.050000	1	0.544375
29.066667	1	0.532125
29.083333	1	0.518250
29.100000	1	0.502625
29.116667	1	0.484750
29.133333	1	0.464875
29.150000	1	0.442375
29.166667	1	0.418875
29.183333	1	0.393750
29.200000	1	0.366750
29.216667	1	0.337875
29.233333	1	0.306875
29.250000	1	0.273500
29.266667	1	0.238750
29.283333	1	0.201375
29.300000	1	0.162750
29.316667	1	0.121875
29.333333	1	0.079875
29.350000	1	0.035875
29.366667	1	-0.008875
29.383333	1	-0.055625
29.400000	1	-0.102625
29.416667	1	-0.151500
29.433333	1	-0.200625
29.450000	1	-0.250125
29.466667	1	-0.300000
29.483333	1	-0.351000
29.500000	1	-0.401125
29.516667	1	-0.451125
29.533333	1	-0.499000
29.550000	1	-0.546625
29.566667	1	-0.592250
29.583333	1	-0.635875
29.600000	1	-0.677250
29.616667	1	-0.715875
29.633333	1	-0.751875
29.650000	1	-0.784250
29.666667	1	-0.814000
29.683333	1	-0.839875
29.700000	1	-0.861750
29.716667	1	-0.879875
29.733333	1	-0.894000
29.750000	1	-0.903375
29.766667	1	-0.908875
29.783333	1	-0.909875
29.800000	1	-0.907750
29.816667	1	-0.900500
29.833333	1	-0.890000
29.850000	1	-0.875750
29.866667	1	-0.858000
29.883333	1	-0.837375
29.900000	1	-0.813375
29.916667	1	-0.787500
29.933333	1	-0.759125
29.950000	1	-0.729000
29.966667	1	-0.696875
29.983333	1	-0.663750
30.000000	1	-0.629125
30.016667	1	-0.593875
30.033333	1	-0.557750
30.050000	1	-0.522500
30.066667	1	-0.485875
30.083333	1	-0.450625
30.100000	1	-0.415500
30.116667	1	-0.381000
30.133333	1	-0.347125
30.150000	1	-0.314625
30.166667	1	-0.282875
30.183333	1	-0.251625
30.200000	1	-0.221875
30.216667	1	-0.193500
30.233333	1	-0.165875
30.250000	1	-0.140125
30.266667	1	-0.115750
30.283333	1	-0.093000
30.300000	1	-0.071250
30.316667	1	-0.050500
30.333333	1	-0.030000
30.350000	1	-0.012625
30.366667	1	0.004750
30.383333	1	0.020625
30.400000	1	0.035750
30.416667	1	0.050125
30.433333	1	0.063250
30.450000	1	0.075500
30.466667	1	0.087125
30.483333	1	0.098000
30.500000	1	0.108625
30.516667	1	0.118375
30.533333	1	0.126750
30.550000	1	0.134875
30.566667	1	0.142500
30.583333	1	0.150000
30.600000	1	0.157250
30.616667	1	0.164125
30.633333	1	0.170500
30.650000	1	0.177500
30.666667	1	0.183625
30.683333	1	0.189125
30.700000	1	0.195125
30.716667	1	0.201000
30.733333	1	0.207375
30.750000	1	0.213500
30.766667	1	0.219875
30.783333	1	0.227125
30.800000	1	0.234125
30.816667	1	0.241250
30.833333	1	0.249375
30.850000	1	0.258125
30.866667	1	0.267375
30.883333	1	0.277000
30.900000	1	0.287750
30.916667	1	0.299125
30.933333	1	0.312125
30.950000	1	0.325625
30.966667	1	0.341000
30.983333	1	0.358125
31.000000	1	0.377500
31.016667	1	0.398500
31.033333	1	0.422500
31.050000	1	0.449750
31.066667	1	0.478875
31.083333	1	0.512375
31.100000	1	0.549375
31.116667	1	0.590000
31.133333	1	0.635500
31.150000	1	0.685500
31.166667	1	0.740750
31.183333	1	0.801500
31.200000	1	0.868250
31.216667	1	0.940875
31.233333	1	1.019000
31.250000	1	1.102375
31.266667	1	1.191750
31.283333	1	1.286625
31.300000	1	1.386125
31.316667	1	1.489875
31.333333	1	1.597375
31.350000	1	1.708625
31.366667	1	1.823125
31.383333	1	1.938375
31.400000	1	2.054250
31.416667	1	2.169000
31.433333	1	2.283000
31.450000	1	2.394000
31.466667	1	2.499500
31.483333	1	2.599625
31.500000	1	2.692125
31.516667	1	2.777125
31.533333	1	2.852625
31.550000	1	2.917125
31.566667	1	2.970250
31.583333	1	3.012000
31.600000	1	3.041500
31.616667	1	3.058250
31.633333	1	3.061000
31.650000	1	3.050250
31.666667	1	3.028375
31.683333	1	2.993500
31.700000	1	2.947500
31.716667	1	2.890000
31.733333	1	2.822250
31.750000	1	2.745375
31.766667	1	2.660875
31.783333	1	2.568875
31.800000	1	2.469875
31.816667	1	2.367000
31.833333	1	2.259750
31.850000	1	2.150375
31.866667	1	2.039375
31.883333	1	1.928000
31.900000	1	1.816750
31.916667	1	1.706500
31.933333	1	1.598250
31.950000	1	1.493500
31.966667	1	1.391625
31.983333	1	1.293625
32.000000	1	1.199000
32.016667	1	1.108125
32.033333	1	1.021875
32.050000	1	0.939500
32.066667	1	0.861875
32.083333	1	0.789375
32.100000	1	0.721250
32.116667	1	0.658125
32.133333	1	0.600125
32.150000	1	0.545625
32.166667	1	0.494500
32.183333	1	0.447000
32.200000	1	0.404000
32.216667	1	0.363625
32.233333	1	0.326875
32.250000	1	0.292625
32.266667	1	0.261500
32.283333	1	0.233000
32.300000	1	0.206875
32.316667	1	0.182250
32.333333	1	0.160250
32.350000	1	0.140250
32.366667	1	0.121875
32.383333	1	0.104875
32.400000	1	0.089750
32.416667	1	0.075875
32.433333	1	0.063625
32.450000	1	0.051750
32.466667	1	0.040500
32.483333	1	0.030500
32.500000	1	0.021375
32.516667	1	0.013000
32.533333	1	0.006000
32.550000	1	0.000000
32.566667	1	-0.006500
32.583333	1	-0.011375
32.600000	1	-0.016375
32.616667	1	-0.021250
32.633333	1	-0.025875
32.650000	1	-0.029625
32.666667	1	-0.033250
32.683333	1	-0.036375
32.700000	1	-0.038625
32.716667	1	-0.041000
32.733333	1	-0.042375
32.750000	1	-0.043750
32.766667	1	-0.044625
32.783333	1	-0.045625
32.800000	1	-0.046000
32.816667	1	-0.045625
32.833333	1	-0.044875
32.850000	1	-0.044375
32.866667	1	-0.043750
32.883333	1	-0.043250
32.900000	1	-0.041375
32.916667	1	-0.039500
32.933333	1	-0.037875
32.950000	1	-0.035750
32.966667	1	-0.034125
32.983333	1	-0.031750
33.000000	1	-0.029250
33.016667	1	-0.027625
33.033333	1	-0.025125
33.050000	1	-0.023250
33.066667	1	-0.021250
33.083333	1	-0.018750
33.100000	1	-0.016375
33.116667	1	-0.014000
33.133333	1	-0.012250
33.150000	1	-0.009500
33.166667	1	-0.007500
33.183333	1	-0.005125
33.200000	1	-0.003375
33.216667	1	-0.002000
33.233333	1	0.000000
33.250000	1	0.002000
33.266667	1	0.003125
33.283333	1	0.004625
33.300000	1	0.005875
33.316667	1	0.007750
33.333333	1	0.009625
33.350000	1	0.011625
33.366667	1	0.013250
33.383333	1	0.015500
33.400000	1	0.017500
33.416667	1	0.018500
33.433333	1	0.020375
33.450000	1	0.021875
33.466667	1	0.023375
33.483333	1	0.024625
33.500000	1	0.026375
33.516667	1	0.028000
33.533333	1	0.029875
33.550000	1	0.031375
33.566667	1	0.033000
33.583333	1	0.034125
33.600000	1	0.035750
33.616667	1	0.037375
33.633333	1	0.039000
33.650000	1	0.040000
33.666667	1	0.041500
33.683333	1	0.042750
33.700000	1	0.043750
33.716667	1	0.045250
33.733333	1	0.046250
33.750000	1	0.047000
33.766667	1	0.049000
33.783333	1	0.049750
33.800000	1	0.050875
33.816667	1	0.051875
33.833333	1	0.052750
33.850000	1	0.054625
33.866667	1	0.056375
33.883333	1	0.057375
33.900000	1	0.057875
33.916667	1	0.058750
33.933333	1	0.059875
33.950000	1	0.061625
33.966667	1	0.062750
33.983333	1	0.063625
34.000000	1	0.064125
34.016667	1	0.065125
34.033333	1	0.066125
34.050000	1	0.066375
34.066667	1	0.066625
34.083333	1	0.066250
34.100000	1	0.066250
34.116667	1	0.065625
34.133333	1	0.065625
34.150000	1	0.065625
34.166667	1	0.064875
34.183333	1	0.064375
34.200000	1	0.063625
34.216667	1	0.063250
34.233333	1	0.062500
34.250000	1	0.062125
34.266667	1	0.062000
34.283333	1	0.061375
34.300000	1	0.061500
34.316667	1	0.061125
34.333333	1	0.060875
34.350000	1	0.061125
34.366667	1	0.061125
34.383333	1	0.061000
34.400000	1	0.061000
34.416667	1	0.061625
34.433333	1	0.062500
34.450000	1	0.062750
34.466667	1	0.063250
34.483333	1	0.064250
34.500000	1	0.065000
34.516667	1	0.065625
34.533333	1	0.066625
34.550000	1	0.067250
34.566667	1	0.068250
34.583333	1	0.069625
34.600000	1	0.071125
34.616667	1	0.072500
34.633333	1	0.073375
34.650000	1	0.074750
34.666667	1	0.075500
34.683333	1	0.076625
34.700000	1	0.077500
34.716667	1	0.078500
34.733333	1	0.079125
34.750000	1	0.080125
34.766667	1	0.081125
34.783333	1	0.081875
34.800000	1	0.082250
34.816667	1	0.083000
34.833333	1	0.083625
34.850000	1	0.085000
34.866667	1	0.085875
34.883333	1	0.086125
34.900000	1	0.086375
34.916667	1	0.086125
34.933333	1	0.086250
34.950000	1	0.086500
34.966667	1	0.086750
34.983333	1	0.085750
35.000000	1	0.084875
35.016667	1	0.084625
35.033333	1	0.083875
35.050000	1	0.082375
35.066667	1	0.081125
35.083333	1	0.078750
35.100000	1	0.077250
35.116667	1	0.075125
35.133333	1	0.073125
35.150000	1	0.071375
35.166667	1	0.069500
35.183333	1	0.067500
35.200000	1	0.065500
35.216667	1	0.063000
35.233333	1	0.060375
35.250000	1	0.058000
35.266667	1	0.055750
35.283333	1	0.053750
35.300000	1	0.050875
35.316667	1	0.049000
35.333333	1	0.046750
35.350000	1	0.044875
35.366667	1	0.043375
35.383333	1	0.041250
35.400000	1	0.040000
35.416667	1	0.038625
35.433333	1	0.037875
35.450000	1	0.037375
35.466667	1	0.036750
35.483333	1	0.036250
35.500000	1	0.036625
35.516667	1	0.037000
35.533333	1	0.037375
35.550000	1	0.038125
35.566667	1	0.038625
35.583333	1	0.040375
35.600000	1	0.041875
35.616667	1	0.043000
35.633333	1	0.044500
35.650000	1	0.045750
35.666667	1	0.047500
35.683333	1	0.050375
35.700000	1	0.052625
35.716667	1	0.054625
35.733333	1	0.057125
35.750000	1	0.059250
35.766667	1	0.061750
35.783333	1	0.064125
35.800000	1	0.066875
35.816667	1	0.069625
35.833333	1	0.071875
35.850000	1	0.074375
35.866667	1	0.076375
35.883333	1	0.078875
35.900000	1	0.080250
35.916667	1	0.082125
35.933333	1	0.083875
35.950000	1	0.085875
35.966667	1	0.087000
35.983333	1	0.087875
36.000000	1	0.088500
36.016667	1	0.089000
36.033333	1	0.088875
36.050000	1	0.089000
36.066667	1	0.088875
36.083333	1	0.088875
36.100000	1	0.087875
36.116667	1	0.087000
36.133333	1	0.086250
36.150000	1	0.085250
36.166667	1	0.084500
36.183333	1	0.084125
36.200000	1	0.082875
36.216667	1	0.081750
36.233333	1	0.080625
36.250000	1	0.079250
36.266667	1	0.078250
36.283333	1	0.076750
36.300000	1	0.075625
36.316667	1	0.074250
36.333333	1	0.073250
36.350000	1	0.073000
36.366667	1	0.072125
36.383333	1	0.071500
36.400000	1	0.071250
36.416667	1	0.070625
36.433333	1	0.070625
36.450000	1	0.070250
36.466667	1	0.070000
36.483333	1	0.070875
36.500000	1	0.070875
36.516667	1	0.071625
36.533333	1	0.071500
36.550000	1	0.072250
36.566667	1	0.071875
36.583333	1	0.072625
36.600000	1	0.072750
36.616667	1	0.072750
36.633333	1	0.072625
36.650000	1	0.072500
36.666667	1	0.072750
36.683333	1	0.072750
36.700000	1	0.071750
36.716667	1	0.071500
36.733333	1	0.070750
36.750000	1	0.069375
36.766667	1	0.068125
36.783333	1	0.067000
36.800000	1	0.065625
36.816667	1	0.064250
36.833333	1	0.062625
36.850000	1	0.061250
36.866667	1	0.059875
36.883333	1	0.059250
36.900000	1	0.058500
36.916667	1	0.057125
36.933333	1	0.056625
36.950000	1	0.055875
36.966667	1	0.054625
36.983333	1	0.053125
37.000000	1	0.051500
37.016667	1	0.051125
37.033333	1	0.050125
37.050000	1	0.049125
37.066667	1	0.048125
37.083333	1	0.047000
37.100000	1	0.047250
37.116667	1	0.046875
37.133333	1	0.047750
37.150000	1	0.047750
37.166667	1	0.047125
37.183333	1	0.046625
37.200000	1	0.046625
37.216667	1	0.045875
37.233333	1	0.045750
37.250000	1	0.045750
37.266667	1	0.046000
37.283333	1	0.045875
37.300000	1	0.045875
37.316667	1	0.046125
37.333333	1	0.045750
37.350000	1	0.045750
37.366667	1	0.045875
37.383333	1	0.045375
37.400000	1	0.045250
37.416667	1	0.045500
37.433333	1	0.044875
37.450000	1	0.044625
37.466667	1	0.043375
37.483333	1	0.043000
37.500000	1	0.042125
37.516667	1	0.041625
37.533333	1	0.041125
37.550000	1	0.040250
37.566667	1	0.039125
37.583333	1	0.038750
37.600000	1	0.038250
37.616667	1	0.036875
37.633333	1	0.036375
37.650000	1	0.035750
37.666667	1	0.034875
37.683333	1	0.034625
37.700000	1	0.034125
37.716667	1	0.033125
37.733333	1	0.032500
37.750000	1	0.031125
37.766667	1	0.030875
37.783333	1	0.029875
37.800000	1	0.029625
37.816667	1	0.029000
37.833333	1	0.028625
37.850000	1	0.027500
37.866667	1	0.027250
37.883333	1	0.028125
37.900000	1	0.028125
37.916667	1	0.027875
37.933333	1	0.028625
37.950000	1	0.029375
37.966667	1	0.030125
37.983333	1	0.030875
38.000000	1	0.031875
38.016667	1	0.032250
38.033333	1	0.032500
38.050000	1	0.033750
38.066667	1	0.034500
38.083333	1	0.035625
38.100000	1	0.036000
38.116667	1	0.036875
38.133333	1	0.037750
38.150000	1	0.039000
38.166667	1	0.039125
38.183333	1	0.040500
38.200000	1	0.041875
38.216667	1	0.042125
38.233333	1	0.042750
38.250000	1	0.043875
38.266667	1	0.044000
38.283333	1	0.044625
38.300000	1	0.044125
38.316667	1	0.043750
38.333333	1	0.043250
38.350000	1	0.042375
38.366667	1	0.041750
38.383333	1	0.041000
38.400000	1	0.039750
38.416667	1	0.037875
38.433333	1	0.037250
38.450000	1	0.035625
38.466667	1	0.034250
38.483333	1	0.032750
38.500000	1	0.031000
38.516667	1	0.028625
38.533333	1	0.025625
38.550000	1	0.023625
38.566667	1	0.021000
38.583333	1	0.018500
38.600000	1	0.015875
38.616667	1	0.013125
38.633333	1	0.011000
38.650000	1	0.008500
38.666667	1	0.006250
38.683333	1	0.004125
38.700000	1	0.001750
38.716667	1	0.000375
38.733333	1	-0.001750
38.750000	1	-0.003250
38.766667	1	-0.004500
38.783333	1	-0.006000
38.800000	1	-0.007500
38.816667	1	-0.008500
38.833333	1	-0.009000
38.850000	1	-0.009750
38.866667	1	-0.010625
38.883333	1	-0.010500
38.900000	1	-0.010500
38.916667	1	-0.010750
38.933333	1	-0.010625
38.950000	1	-0.010125
38.966667	1	-0.009875
38.983333	1	-0.008875
39.000000	1	-0.007625
39.016667	1	-0.007375
39.033333	1	-0.006750
39.050000	1	-0.005875
39.066667	1	-0.005125
39.083333	1	-0.004125
39.100000	1	-0.003125
39.116667	1	-0.002750
39.133333	1	-0.002125
39.150000	1	-0.001125
39.166667	1	0.000000
39.183333	1	0.000000
39.200000	1	0.000500
39.216667	1	0.001000
39.233333	1	0.001625
39.250000	1	0.002000
39.266667	1	0.003125
39.283333	1	0.003625
39.300000	1	0.005000
39.316667	1	0.005500
39.333333	1	0.005750
39.350000	1	0.006875
39.366667	1	0.008000
39.383333	1	0.007875
39.400000	1	0.008625
39.416667	1	0.008750
39.433333	1	0.008750
39.450000	1	0.008875
39.466667	1	0.009000
39.483333	1	0.009000
39.500000	1	0.009250
39.516667	1	0.009375
39.533333	1	0.009375
39.550000	1	0.009250
39.566667	1	0.008375
39.583333	1	0.007500
39.600000	1	0.006250
39.616667	1	0.005500
39.633333	1	0.004750
39.650000	1	0.004250
39.666667	1	0.003250
39.683333	1	0.002375
39.700000	1	0.001375
39.716667	1	0.000625
39.733333	1	-0.000875
39.750000	1	-0.001625
39.766667	1	-0.002000
39.783333	1	-0.003500
39.800000	1	-0.004625
39.816667	1	-0.005125
39.833333	1	-0.006125
39.850000	1	-0.007125
39.866667	1	-0.007625
39.883333	1	-0.009125
39.900000	1	-0.010375
39.916667	1	-0.011250
39.933333	1	-0.012125
39.950000	1	-0.012750
39.966667	1	-0.013625
39.983333	1	-0.014500
40.000000	1	-0.015000
