URL	chrom://bioreactor/micro_cm7/HPLC_Ultimate_3000/Users/markusar/20240708_MA_pHrange1.seq/988.smp/RI_1.channel/RI_1.chm
Channel	RI_1

Injection Information:
Data Vault	micro_cm7
Sequence	20240708_MA_pHrange1
Name	Fp2_6.5_2
Number	52
Position	BE6
Comment	
Processing Method	
Instrument Method	run_25B_method
Type	Unknown
Status	Finished
Inject Time	10.07.2024 02:24:06 +02:00
Volume (µl)	20.0000
Dilution Factor	1.0000
Weight	1.0000

Chromatogram Data Information:
Time Min. (min)	0.000000
Time Max. (min)	40.000000
Data Points	2401
Detector	RI
Generating Data System	Chromeleon 7.3.2.11814
Exporting Data System	Chromeleon 7.3.2.0
Operator	Instrument Controller
Signal Quantity	Refractive 
Signal Unit	µRIU
Signal Min.	-0.061750
Signal Max.	82.656375
Channel	RI_1
Driver Name	RID520Driver.dll
Channel Type	Evaluation
Min. Step (s)	1
Max. Step (s)	1
Average Step (s)	1

Signal Parameter Information:
Signal Info	

Chromatogram Data:
Time (min)	Step (s)	Value (µRIU)
0.000000	n.a.	0.004750
0.016667	1	0.005875
0.033333	1	0.007000
0.050000	1	0.007875
0.066667	1	0.010500
0.083333	1	0.012750
0.100000	1	0.014250
0.116667	1	0.015375
0.133333	1	0.016875
0.150000	1	0.018500
0.166667	1	0.020125
0.183333	1	0.022125
0.200000	1	0.023375
0.216667	1	0.025500
0.233333	1	0.027250
0.250000	1	0.029625
0.266667	1	0.031250
0.283333	1	0.032625
0.300000	1	0.034000
0.316667	1	0.035625
0.333333	1	0.037750
0.350000	1	0.039125
0.366667	1	0.040625
0.383333	1	0.041875
0.400000	1	0.042750
0.416667	1	0.044000
0.433333	1	0.046875
0.450000	1	0.049750
0.466667	1	0.052000
0.483333	1	0.054625
0.500000	1	0.056375
0.516667	1	0.058125
0.533333	1	0.059875
0.550000	1	0.061125
0.566667	1	0.060500
0.583333	1	0.060125
0.600000	1	0.057875
0.616667	1	0.056125
0.633333	1	0.054750
0.650000	1	0.053625
0.666667	1	0.052875
0.683333	1	0.052625
0.700000	1	0.052375
0.716667	1	0.052000
0.733333	1	0.051625
0.750000	1	0.050875
0.766667	1	0.050125
0.783333	1	0.050125
0.800000	1	0.048750
0.816667	1	0.048250
0.833333	1	0.047000
0.850000	1	0.045750
0.866667	1	0.044125
0.883333	1	0.042750
0.900000	1	0.041000
0.916667	1	0.039625
0.933333	1	0.038375
0.950000	1	0.036750
0.966667	1	0.034750
0.983333	1	0.032875
1.000000	1	0.031375
1.016667	1	0.029875
1.033333	1	0.027375
1.050000	1	0.025500
1.066667	1	0.023625
1.083333	1	0.021625
1.100000	1	0.019625
1.116667	1	0.017625
1.133333	1	0.014875
1.150000	1	0.012000
1.166667	1	0.009750
1.183333	1	0.007250
1.200000	1	0.004750
1.216667	1	0.002375
1.233333	1	0.001000
1.250000	1	-0.000875
1.266667	1	-0.002625
1.283333	1	-0.004500
1.300000	1	-0.006750
1.316667	1	-0.008750
1.333333	1	-0.010500
1.350000	1	-0.012875
1.366667	1	-0.014250
1.383333	1	-0.015500
1.400000	1	-0.017250
1.416667	1	-0.017750
1.433333	1	-0.019375
1.450000	1	-0.020625
1.466667	1	-0.021625
1.483333	1	-0.022125
1.500000	1	-0.023250
1.516667	1	-0.023750
1.533333	1	-0.024625
1.550000	1	-0.025250
1.566667	1	-0.026250
1.583333	1	-0.026750
1.600000	1	-0.027125
1.616667	1	-0.027750
1.633333	1	-0.027750
1.650000	1	-0.027250
1.666667	1	-0.027625
1.683333	1	-0.027375
1.700000	1	-0.027875
1.716667	1	-0.027625
1.733333	1	-0.027250
1.750000	1	-0.027125
1.766667	1	-0.027000
1.783333	1	-0.026875
1.800000	1	-0.025750
1.816667	1	-0.025625
1.833333	1	-0.024875
1.850000	1	-0.024125
1.866667	1	-0.023250
1.883333	1	-0.022250
1.900000	1	-0.021000
1.916667	1	-0.020000
1.933333	1	-0.019875
1.950000	1	-0.019000
1.966667	1	-0.018250
1.983333	1	-0.017875
2.000000	1	-0.017750
2.016667	1	-0.017000
2.033333	1	-0.016000
2.050000	1	-0.014750
2.066667	1	-0.014750
2.083333	1	-0.013625
2.100000	1	-0.012375
2.116667	1	-0.011750
2.133333	1	-0.010750
2.150000	1	-0.010375
2.166667	1	-0.010250
2.183333	1	-0.009250
2.200000	1	-0.008500
2.216667	1	-0.007375
2.233333	1	-0.007000
2.250000	1	-0.005375
2.266667	1	-0.004500
2.283333	1	-0.003625
2.300000	1	-0.003375
2.316667	1	-0.003000
2.333333	1	-0.001750
2.350000	1	-0.000125
2.366667	1	0.000625
2.383333	1	0.001250
2.400000	1	0.002125
2.416667	1	0.003125
2.433333	1	0.003500
2.450000	1	0.003875
2.466667	1	0.004875
2.483333	1	0.004875
2.500000	1	0.005250
2.516667	1	0.005500
2.533333	1	0.006125
2.550000	1	0.006000
2.566667	1	0.005875
2.583333	1	0.006500
2.600000	1	0.006750
2.616667	1	0.006125
2.633333	1	0.006125
2.650000	1	0.005750
2.666667	1	0.005375
2.683333	1	0.004750
2.700000	1	0.004875
2.716667	1	0.004500
2.733333	1	0.003875
2.750000	1	0.003375
2.766667	1	0.003375
2.783333	1	0.002750
2.800000	1	0.002625
2.816667	1	0.002375
2.833333	1	0.002250
2.850000	1	0.002375
2.866667	1	0.002375
2.883333	1	0.002000
2.900000	1	0.001500
2.916667	1	0.001875
2.933333	1	0.002000
2.950000	1	0.002000
2.966667	1	0.002000
2.983333	1	0.002250
3.000000	1	0.002375
3.016667	1	0.002625
3.033333	1	0.002750
3.050000	1	0.002750
3.066667	1	0.003125
3.083333	1	0.003375
3.100000	1	0.003625
3.116667	1	0.004750
3.133333	1	0.006125
3.150000	1	0.006875
3.166667	1	0.008375
3.183333	1	0.009375
3.200000	1	0.010375
3.216667	1	0.011625
3.233333	1	0.013000
3.250000	1	0.013750
3.266667	1	0.015625
3.283333	1	0.017125
3.300000	1	0.018750
3.316667	1	0.020375
3.333333	1	0.021625
3.350000	1	0.022875
3.366667	1	0.024625
3.383333	1	0.026500
3.400000	1	0.028375
3.416667	1	0.030500
3.433333	1	0.031625
3.450000	1	0.033000
3.466667	1	0.033875
3.483333	1	0.035375
3.500000	1	0.036500
3.516667	1	0.038000
3.533333	1	0.038500
3.550000	1	0.039375
3.566667	1	0.039250
3.583333	1	0.040000
3.600000	1	0.040125
3.616667	1	0.039875
3.633333	1	0.039875
3.650000	1	0.039875
3.666667	1	0.039250
3.683333	1	0.039250
3.700000	1	0.038875
3.716667	1	0.038125
3.733333	1	0.037000
3.750000	1	0.035750
3.766667	1	0.034125
3.783333	1	0.032500
3.800000	1	0.030750
3.816667	1	0.029625
3.833333	1	0.028750
3.850000	1	0.027250
3.866667	1	0.026125
3.883333	1	0.025125
3.900000	1	0.024500
3.916667	1	0.023000
3.933333	1	0.022750
3.950000	1	0.021750
3.966667	1	0.021250
3.983333	1	0.020000
4.000000	1	0.020000
4.016667	1	0.019500
4.033333	1	0.019500
4.050000	1	0.019375
4.066667	1	0.020250
4.083333	1	0.020875
4.100000	1	0.021625
4.116667	1	0.022750
4.133333	1	0.023875
4.150000	1	0.025375
4.166667	1	0.026875
4.183333	1	0.028250
4.200000	1	0.031125
4.216667	1	0.033500
4.233333	1	0.035625
4.250000	1	0.037500
4.266667	1	0.039625
4.283333	1	0.042375
4.300000	1	0.044875
4.316667	1	0.047500
4.333333	1	0.050000
4.350000	1	0.052875
4.366667	1	0.055500
4.383333	1	0.058500
4.400000	1	0.061125
4.416667	1	0.063750
4.433333	1	0.068125
4.450000	1	0.070750
4.466667	1	0.073000
4.483333	1	0.075875
4.500000	1	0.078750
4.516667	1	0.081000
4.533333	1	0.083500
4.550000	1	0.085750
4.566667	1	0.087750
4.583333	1	0.089875
4.600000	1	0.092750
4.616667	1	0.095000
4.633333	1	0.097250
4.650000	1	0.099250
4.666667	1	0.102000
4.683333	1	0.104000
4.700000	1	0.106375
4.716667	1	0.108375
4.733333	1	0.111000
4.750000	1	0.113625
4.766667	1	0.116000
4.783333	1	0.118750
4.800000	1	0.121375
4.816667	1	0.124750
4.833333	1	0.127875
4.850000	1	0.130875
4.866667	1	0.133875
4.883333	1	0.137000
4.900000	1	0.140250
4.916667	1	0.143750
4.933333	1	0.147750
4.950000	1	0.151750
4.966667	1	0.156625
4.983333	1	0.160625
5.000000	1	0.164750
5.016667	1	0.169875
5.033333	1	0.175125
5.050000	1	0.179250
5.066667	1	0.183375
5.083333	1	0.188375
5.100000	1	0.193125
5.116667	1	0.197250
5.133333	1	0.202625
5.150000	1	0.207250
5.166667	1	0.211500
5.183333	1	0.216000
5.200000	1	0.220375
5.216667	1	0.225000
5.233333	1	0.229625
5.250000	1	0.233000
5.266667	1	0.237000
5.283333	1	0.241000
5.300000	1	0.244875
5.316667	1	0.248250
5.333333	1	0.251125
5.350000	1	0.254250
5.366667	1	0.257250
5.383333	1	0.260000
5.400000	1	0.262500
5.416667	1	0.264500
5.433333	1	0.265250
5.450000	1	0.266625
5.466667	1	0.267500
5.483333	1	0.268500
5.500000	1	0.269125
5.516667	1	0.269125
5.533333	1	0.269125
5.550000	1	0.268375
5.566667	1	0.267750
5.583333	1	0.267000
5.600000	1	0.266000
5.616667	1	0.264750
5.633333	1	0.263375
5.650000	1	0.261125
5.666667	1	0.258750
5.683333	1	0.256250
5.700000	1	0.253000
5.716667	1	0.249250
5.733333	1	0.246125
5.750000	1	0.242500
5.766667	1	0.238250
5.783333	1	0.234000
5.800000	1	0.230250
5.816667	1	0.225625
5.833333	1	0.221125
5.850000	1	0.216500
5.866667	1	0.210750
5.883333	1	0.205375
5.900000	1	0.200000
5.916667	1	0.194375
5.933333	1	0.189000
5.950000	1	0.183625
5.966667	1	0.178500
5.983333	1	0.173000
6.000000	1	0.167375
6.016667	1	0.161875
6.033333	1	0.155750
6.050000	1	0.150000
6.066667	1	0.144000
6.083333	1	0.138625
6.100000	1	0.133125
6.116667	1	0.127625
6.133333	1	0.122875
6.150000	1	0.117250
6.166667	1	0.112250
6.183333	1	0.107625
6.200000	1	0.102750
6.216667	1	0.097625
6.233333	1	0.092875
6.250000	1	0.087625
6.266667	1	0.083375
6.283333	1	0.079375
6.300000	1	0.075125
6.316667	1	0.071125
6.333333	1	0.067500
6.350000	1	0.064125
6.366667	1	0.060375
6.383333	1	0.057750
6.400000	1	0.054750
6.416667	1	0.051750
6.433333	1	0.048750
6.450000	1	0.045875
6.466667	1	0.043375
6.483333	1	0.041000
6.500000	1	0.038875
6.516667	1	0.036875
6.533333	1	0.035125
6.550000	1	0.033375
6.566667	1	0.031375
6.583333	1	0.030500
6.600000	1	0.028375
6.616667	1	0.027250
6.633333	1	0.025875
6.650000	1	0.025000
6.666667	1	0.024625
6.683333	1	0.023375
6.700000	1	0.023000
6.716667	1	0.022500
6.733333	1	0.023125
6.750000	1	0.023000
6.766667	1	0.023000
6.783333	1	0.023125
6.800000	1	0.023375
6.816667	1	0.024000
6.833333	1	0.024375
6.850000	1	0.025125
6.866667	1	0.026125
6.883333	1	0.027250
6.900000	1	0.028625
6.916667	1	0.029875
6.933333	1	0.032000
6.950000	1	0.034000
6.966667	1	0.037375
6.983333	1	0.039375
7.000000	1	0.042000
7.016667	1	0.044750
7.033333	1	0.048250
7.050000	1	0.051875
7.066667	1	0.055500
7.083333	1	0.058250
7.100000	1	0.062500
7.116667	1	0.065875
7.133333	1	0.069750
7.150000	1	0.073750
7.166667	1	0.077125
7.183333	1	0.080875
7.200000	1	0.084000
7.216667	1	0.087250
7.233333	1	0.091250
7.250000	1	0.095000
7.266667	1	0.099125
7.283333	1	0.102500
7.300000	1	0.105500
7.316667	1	0.108625
7.333333	1	0.112500
7.350000	1	0.114875
7.366667	1	0.117125
7.383333	1	0.119625
7.400000	1	0.122000
7.416667	1	0.123250
7.433333	1	0.124875
7.450000	1	0.125750
7.466667	1	0.126625
7.483333	1	0.126625
7.500000	1	0.126875
7.516667	1	0.126125
7.533333	1	0.125500
7.550000	1	0.124125
7.566667	1	0.123000
7.583333	1	0.121125
7.600000	1	0.119250
7.616667	1	0.116750
7.633333	1	0.113875
7.650000	1	0.110750
7.666667	1	0.107875
7.683333	1	0.104125
7.700000	1	0.100500
7.716667	1	0.096375
7.733333	1	0.092500
7.750000	1	0.088375
7.766667	1	0.084250
7.783333	1	0.080750
7.800000	1	0.076625
7.816667	1	0.072250
7.833333	1	0.068250
7.850000	1	0.064500
7.866667	1	0.059750
7.883333	1	0.055500
7.900000	1	0.051500
7.916667	1	0.047750
7.933333	1	0.044375
7.950000	1	0.040625
7.966667	1	0.038000
7.983333	1	0.033875
8.000000	1	0.030875
8.016667	1	0.028625
8.033333	1	0.026000
8.050000	1	0.023625
8.066667	1	0.021250
8.083333	1	0.019125
8.100000	1	0.017375
8.116667	1	0.016500
8.133333	1	0.015375
8.150000	1	0.014000
8.166667	1	0.013875
8.183333	1	0.013125
8.200000	1	0.012625
8.216667	1	0.013000
8.233333	1	0.012875
8.250000	1	0.012625
8.266667	1	0.012125
8.283333	1	0.012750
8.300000	1	0.013750
8.316667	1	0.013875
8.333333	1	0.014125
8.350000	1	0.015125
8.366667	1	0.015375
8.383333	1	0.016500
8.400000	1	0.017500
8.416667	1	0.018375
8.433333	1	0.019000
8.450000	1	0.019250
8.466667	1	0.020125
8.483333	1	0.021000
8.500000	1	0.022250
8.516667	1	0.023250
8.533333	1	0.024125
8.550000	1	0.024750
8.566667	1	0.025875
8.583333	1	0.027000
8.600000	1	0.027625
8.616667	1	0.028250
8.633333	1	0.029125
8.650000	1	0.029500
8.666667	1	0.030000
8.683333	1	0.030125
8.700000	1	0.030875
8.716667	1	0.031375
8.733333	1	0.031750
8.750000	1	0.031875
8.766667	1	0.032500
8.783333	1	0.032750
8.800000	1	0.033500
8.816667	1	0.033750
8.833333	1	0.034375
8.850000	1	0.034625
8.866667	1	0.034625
8.883333	1	0.034250
8.900000	1	0.035000
8.916667	1	0.035375
8.933333	1	0.035250
8.950000	1	0.035000
8.966667	1	0.034875
8.983333	1	0.034625
9.000000	1	0.034250
9.016667	1	0.034000
9.033333	1	0.033625
9.050000	1	0.032875
9.066667	1	0.031875
9.083333	1	0.031125
9.100000	1	0.030000
9.116667	1	0.029125
9.133333	1	0.028750
9.150000	1	0.027500
9.166667	1	0.026125
9.183333	1	0.024500
9.200000	1	0.022750
9.216667	1	0.021500
9.233333	1	0.020250
9.250000	1	0.018375
9.266667	1	0.015875
9.283333	1	0.013500
9.300000	1	0.011000
9.316667	1	0.008000
9.333333	1	0.005375
9.350000	1	0.002875
9.366667	1	0.000375
9.383333	1	-0.002125
9.400000	1	-0.005125
9.416667	1	-0.008250
9.433333	1	-0.011125
9.450000	1	-0.013875
9.466667	1	-0.017125
9.483333	1	-0.019875
9.500000	1	-0.023250
9.516667	1	-0.026750
9.533333	1	-0.029375
9.550000	1	-0.032000
9.566667	1	-0.035000
9.583333	1	-0.037250
9.600000	1	-0.040125
9.616667	1	-0.042500
9.633333	1	-0.045125
9.650000	1	-0.048000
9.666667	1	-0.050500
9.683333	1	-0.052625
9.700000	1	-0.053875
9.716667	1	-0.055250
9.733333	1	-0.056375
9.750000	1	-0.058250
9.766667	1	-0.059125
9.783333	1	-0.060375
9.800000	1	-0.060750
9.816667	1	-0.060875
9.833333	1	-0.061125
9.850000	1	-0.061625
9.866667	1	-0.061625
9.883333	1	-0.061500
9.900000	1	-0.061750
9.916667	1	-0.061250
9.933333	1	-0.059625
9.950000	1	-0.058750
9.966667	1	-0.058000
9.983333	1	-0.056625
10.000000	1	-0.054750
10.016667	1	-0.052250
10.033333	1	-0.049125
10.050000	1	-0.045125
10.066667	1	-0.041250
10.083333	1	-0.036625
10.100000	1	-0.030500
10.116667	1	-0.024625
10.133333	1	-0.017250
10.150000	1	-0.009500
10.166667	1	-0.000500
10.183333	1	0.008875
10.200000	1	0.019750
10.216667	1	0.031000
10.233333	1	0.044500
10.250000	1	0.059000
10.266667	1	0.075875
10.283333	1	0.095000
10.300000	1	0.116375
10.316667	1	0.139625
10.333333	1	0.165375
10.350000	1	0.193500
10.366667	1	0.221875
10.383333	1	0.249625
10.400000	1	0.275125
10.416667	1	0.295125
10.433333	1	0.306875
10.450000	1	0.309750
10.466667	1	0.304875
10.483333	1	0.298625
10.500000	1	0.302000
10.516667	1	0.334125
10.533333	1	0.423375
10.550000	1	0.609875
10.566667	1	0.944500
10.583333	1	1.484375
10.600000	1	2.291000
10.616667	1	3.423500
10.633333	1	4.927500
10.650000	1	6.837375
10.666667	1	9.175375
10.683333	1	11.945625
10.700000	1	15.139500
10.716667	1	18.728375
10.733333	1	22.661625
10.750000	1	26.866125
10.766667	1	31.230125
10.783333	1	35.606375
10.800000	1	39.788375
10.816667	1	43.504500
10.833333	1	46.425875
10.850000	1	48.209875
10.866667	1	48.569125
10.883333	1	47.355500
10.900000	1	44.632000
10.916667	1	40.684750
10.933333	1	35.948750
10.950000	1	30.900500
10.966667	1	25.952250
10.983333	1	21.395375
11.000000	1	17.388000
11.016667	1	13.991750
11.033333	1	11.195875
11.050000	1	8.945625
11.066667	1	7.166250
11.083333	1	5.778875
11.100000	1	4.707750
11.116667	1	3.886125
11.133333	1	3.258625
11.150000	1	2.780125
11.166667	1	2.414250
11.183333	1	2.135125
11.200000	1	1.920625
11.216667	1	1.755750
11.233333	1	1.628500
11.250000	1	1.528250
11.266667	1	1.448000
11.283333	1	1.383500
11.300000	1	1.328125
11.316667	1	1.280750
11.333333	1	1.238000
11.350000	1	1.198625
11.366667	1	1.161750
11.383333	1	1.127375
11.400000	1	1.094500
11.416667	1	1.064000
11.433333	1	1.036875
11.450000	1	1.011875
11.466667	1	0.989625
11.483333	1	0.970875
11.500000	1	0.955125
11.516667	1	0.942750
11.533333	1	0.933500
11.550000	1	0.927750
11.566667	1	0.925875
11.583333	1	0.928375
11.600000	1	0.935500
11.616667	1	0.946000
11.633333	1	0.961500
11.650000	1	0.981250
11.666667	1	1.005500
11.683333	1	1.033125
11.700000	1	1.062250
11.716667	1	1.092750
11.733333	1	1.122375
11.750000	1	1.149750
11.766667	1	1.174000
11.783333	1	1.193250
11.800000	1	1.206875
11.816667	1	1.213875
11.833333	1	1.215375
11.850000	1	1.211750
11.866667	1	1.203375
11.883333	1	1.189750
11.900000	1	1.173875
11.916667	1	1.155500
11.933333	1	1.137375
11.950000	1	1.118500
11.966667	1	1.101000
11.983333	1	1.085250
12.000000	1	1.071125
12.016667	1	1.059875
12.033333	1	1.050625
12.050000	1	1.043750
12.066667	1	1.038375
12.083333	1	1.035125
12.100000	1	1.032875
12.116667	1	1.033000
12.133333	1	1.034750
12.150000	1	1.038125
12.166667	1	1.043375
12.183333	1	1.050125
12.200000	1	1.058625
12.216667	1	1.069625
12.233333	1	1.083875
12.250000	1	1.102875
12.266667	1	1.127750
12.283333	1	1.160625
12.300000	1	1.203875
12.316667	1	1.262375
12.333333	1	1.341000
12.350000	1	1.445375
12.366667	1	1.585500
12.383333	1	1.774125
12.400000	1	2.027250
12.416667	1	2.366375
12.433333	1	2.820875
12.450000	1	3.426500
12.466667	1	4.233000
12.483333	1	5.299750
12.500000	1	6.698250
12.516667	1	8.511375
12.533333	1	10.827000
12.550000	1	13.731375
12.566667	1	17.302375
12.583333	1	21.595750
12.600000	1	26.625250
12.616667	1	32.349375
12.633333	1	38.674125
12.650000	1	45.440000
12.666667	1	52.422750
12.683333	1	59.338000
12.700000	1	65.864375
12.716667	1	71.673250
12.733333	1	76.457125
12.750000	1	79.972250
12.766667	1	82.059250
12.783333	1	82.656375
12.800000	1	81.802125
12.816667	1	79.639875
12.833333	1	76.376500
12.850000	1	72.273375
12.866667	1	67.612875
12.883333	1	62.677375
12.900000	1	57.724500
12.916667	1	52.968375
12.933333	1	48.573625
12.950000	1	44.650500
12.966667	1	41.258375
12.983333	1	38.416000
13.000000	1	36.109625
13.016667	1	34.306625
13.033333	1	32.958250
13.050000	1	32.010750
13.066667	1	31.411125
13.083333	1	31.108000
13.100000	1	31.055750
13.116667	1	31.212125
13.133333	1	31.541750
13.150000	1	32.014000
13.166667	1	32.605750
13.183333	1	33.295250
13.200000	1	34.066125
13.216667	1	34.903250
13.233333	1	35.799500
13.250000	1	36.746125
13.266667	1	37.738250
13.283333	1	38.772375
13.300000	1	39.842625
13.316667	1	40.946750
13.333333	1	42.083500
13.350000	1	43.250250
13.366667	1	44.445625
13.383333	1	45.671375
13.400000	1	46.924625
13.416667	1	48.206125
13.433333	1	49.516625
13.450000	1	50.857750
13.466667	1	52.228500
13.483333	1	53.631000
13.500000	1	55.064500
13.516667	1	56.529250
13.533333	1	58.023500
13.550000	1	59.549750
13.566667	1	61.107375
13.583333	1	62.696375
13.600000	1	64.316125
13.616667	1	65.968375
13.633333	1	67.654750
13.650000	1	69.377375
13.666667	1	71.136125
13.683333	1	72.923125
13.700000	1	74.711250
13.716667	1	76.423625
13.733333	1	77.920500
13.750000	1	79.007375
13.766667	1	79.483875
13.783333	1	79.184000
13.800000	1	77.982250
13.816667	1	75.758750
13.833333	1	72.359875
13.850000	1	67.616625
13.866667	1	61.474000
13.883333	1	54.158000
13.900000	1	46.217625
13.916667	1	38.370500
13.933333	1	31.222500
13.950000	1	25.114250
13.966667	1	20.126750
13.983333	1	16.173875
14.000000	1	13.098125
14.016667	1	10.738500
14.033333	1	8.949375
14.050000	1	7.609000
14.066667	1	6.614250
14.083333	1	5.876750
14.100000	1	5.328875
14.116667	1	4.918750
14.133333	1	4.605500
14.150000	1	4.362500
14.166667	1	4.168750
14.183333	1	4.011125
14.200000	1	3.879375
14.216667	1	3.767000
14.233333	1	3.668625
14.250000	1	3.581750
14.266667	1	3.503625
14.283333	1	3.432375
14.300000	1	3.368125
14.316667	1	3.307250
14.333333	1	3.252125
14.350000	1	3.200000
14.366667	1	3.152125
14.383333	1	3.106875
14.400000	1	3.065625
14.416667	1	3.027000
14.433333	1	2.991875
14.450000	1	2.959000
14.466667	1	2.928250
14.483333	1	2.899625
14.500000	1	2.872375
14.516667	1	2.846875
14.533333	1	2.821375
14.550000	1	2.797125
14.566667	1	2.773000
14.583333	1	2.748625
14.600000	1	2.724625
14.616667	1	2.699875
14.633333	1	2.675625
14.650000	1	2.651000
14.666667	1	2.626500
14.683333	1	2.601125
14.700000	1	2.575875
14.716667	1	2.552750
14.733333	1	2.530000
14.750000	1	2.509000
14.766667	1	2.488750
14.783333	1	2.469500
14.800000	1	2.450375
14.816667	1	2.431750
14.833333	1	2.413125
14.850000	1	2.392625
14.866667	1	2.370500
14.883333	1	2.347500
14.900000	1	2.321250
14.916667	1	2.293250
14.933333	1	2.261750
14.950000	1	2.228250
14.966667	1	2.192625
14.983333	1	2.155750
15.000000	1	2.118000
15.016667	1	2.080000
15.033333	1	2.042250
15.050000	1	2.005500
15.066667	1	1.969500
15.083333	1	1.935625
15.100000	1	1.903000
15.116667	1	1.872375
15.133333	1	1.843875
15.150000	1	1.817500
15.166667	1	1.794250
15.183333	1	1.773000
15.200000	1	1.754000
15.216667	1	1.737125
15.233333	1	1.722250
15.250000	1	1.709750
15.266667	1	1.699625
15.283333	1	1.693000
15.300000	1	1.689750
15.316667	1	1.690000
15.333333	1	1.694625
15.350000	1	1.704125
15.366667	1	1.718500
15.383333	1	1.737875
15.400000	1	1.762750
15.416667	1	1.792750
15.433333	1	1.826375
15.450000	1	1.861750
15.466667	1	1.899000
15.483333	1	1.935125
15.500000	1	1.968500
15.516667	1	1.997375
15.533333	1	2.018625
15.550000	1	2.032250
15.566667	1	2.036500
15.583333	1	2.031250
15.600000	1	2.017500
15.616667	1	1.996000
15.633333	1	1.966875
15.650000	1	1.932375
15.666667	1	1.893500
15.683333	1	1.852000
15.700000	1	1.811000
15.716667	1	1.769125
15.733333	1	1.728875
15.750000	1	1.690250
15.766667	1	1.653125
15.783333	1	1.617375
15.800000	1	1.583750
15.816667	1	1.551875
15.833333	1	1.521125
15.850000	1	1.492250
15.866667	1	1.463750
15.883333	1	1.437250
15.900000	1	1.412500
15.916667	1	1.388875
15.933333	1	1.367000
15.950000	1	1.346750
15.966667	1	1.328625
15.983333	1	1.312875
16.000000	1	1.298375
16.016667	1	1.287000
16.033333	1	1.277625
16.050000	1	1.270250
16.066667	1	1.264375
16.083333	1	1.260000
16.100000	1	1.256875
16.116667	1	1.254750
16.133333	1	1.253500
16.150000	1	1.253250
16.166667	1	1.253125
16.183333	1	1.252875
16.200000	1	1.252875
16.216667	1	1.252375
16.233333	1	1.251000
16.250000	1	1.249500
16.266667	1	1.246750
16.283333	1	1.242625
16.300000	1	1.238125
16.316667	1	1.232375
16.333333	1	1.225625
16.350000	1	1.218250
16.366667	1	1.210750
16.383333	1	1.203125
16.400000	1	1.195625
16.416667	1	1.188125
16.433333	1	1.181500
16.450000	1	1.175375
16.466667	1	1.171875
16.483333	1	1.168750
16.500000	1	1.168000
16.516667	1	1.169500
16.533333	1	1.173750
16.550000	1	1.178375
16.566667	1	1.184125
16.583333	1	1.190500
16.600000	1	1.197375
16.616667	1	1.205000
16.633333	1	1.212875
16.650000	1	1.219000
16.666667	1	1.225000
16.683333	1	1.229000
16.700000	1	1.232125
16.716667	1	1.234000
16.733333	1	1.235875
16.750000	1	1.237250
16.766667	1	1.238750
16.783333	1	1.240875
16.800000	1	1.243500
16.816667	1	1.247000
16.833333	1	1.252375
16.850000	1	1.257375
16.866667	1	1.262875
16.883333	1	1.268375
16.900000	1	1.273750
16.916667	1	1.279375
16.933333	1	1.283625
16.950000	1	1.287500
16.966667	1	1.290250
16.983333	1	1.291250
17.000000	1	1.291375
17.016667	1	1.289750
17.033333	1	1.287750
17.050000	1	1.285625
17.066667	1	1.282125
17.083333	1	1.277875
17.100000	1	1.274625
17.116667	1	1.271750
17.133333	1	1.269375
17.150000	1	1.268375
17.166667	1	1.269500
17.183333	1	1.271375
17.200000	1	1.274375
17.216667	1	1.278500
17.233333	1	1.284500
17.250000	1	1.290875
17.266667	1	1.299125
17.283333	1	1.308375
17.300000	1	1.317625
17.316667	1	1.327250
17.333333	1	1.337875
17.350000	1	1.348375
17.366667	1	1.359000
17.383333	1	1.369125
17.400000	1	1.377750
17.416667	1	1.385625
17.433333	1	1.392250
17.450000	1	1.395750
17.466667	1	1.397125
17.483333	1	1.397000
17.500000	1	1.393750
17.516667	1	1.389000
17.533333	1	1.381750
17.550000	1	1.371750
17.566667	1	1.360250
17.583333	1	1.347375
17.600000	1	1.332750
17.616667	1	1.316625
17.633333	1	1.299625
17.650000	1	1.282375
17.666667	1	1.263875
17.683333	1	1.245750
17.700000	1	1.227250
17.716667	1	1.208875
17.733333	1	1.190500
17.750000	1	1.173625
17.766667	1	1.156625
17.783333	1	1.138875
17.800000	1	1.122875
17.816667	1	1.106500
17.833333	1	1.091500
17.850000	1	1.077125
17.866667	1	1.062500
17.883333	1	1.048500
17.900000	1	1.035125
17.916667	1	1.022625
17.933333	1	1.010375
17.950000	1	0.998125
17.966667	1	0.986375
17.983333	1	0.975125
18.000000	1	0.964375
18.016667	1	0.954250
18.033333	1	0.943875
18.050000	1	0.933625
18.066667	1	0.923625
18.083333	1	0.914000
18.100000	1	0.904500
18.116667	1	0.896125
18.133333	1	0.887625
18.150000	1	0.879500
18.166667	1	0.872125
18.183333	1	0.865875
18.200000	1	0.859875
18.216667	1	0.855250
18.233333	1	0.851000
18.250000	1	0.847250
18.266667	1	0.844500
18.283333	1	0.842250
18.300000	1	0.841000
18.316667	1	0.840250
18.333333	1	0.839375
18.350000	1	0.839125
18.366667	1	0.839375
18.383333	1	0.840750
18.400000	1	0.841875
18.416667	1	0.843750
18.433333	1	0.846125
18.450000	1	0.849625
18.466667	1	0.854875
18.483333	1	0.860625
18.500000	1	0.868125
18.516667	1	0.877500
18.533333	1	0.888500
18.550000	1	0.901375
18.566667	1	0.917250
18.583333	1	0.934625
18.600000	1	0.954375
18.616667	1	0.975750
18.633333	1	0.999750
18.650000	1	1.025500
18.666667	1	1.052875
18.683333	1	1.081875
18.700000	1	1.112875
18.716667	1	1.145125
18.733333	1	1.179750
18.750000	1	1.215125
18.766667	1	1.251125
18.783333	1	1.287375
18.800000	1	1.322500
18.816667	1	1.356500
18.833333	1	1.389375
18.850000	1	1.420250
18.866667	1	1.448625
18.883333	1	1.472875
18.900000	1	1.492250
18.916667	1	1.507000
18.933333	1	1.515625
18.950000	1	1.518250
18.966667	1	1.514125
18.983333	1	1.503000
19.000000	1	1.484500
19.016667	1	1.459375
19.033333	1	1.428375
19.050000	1	1.391875
19.066667	1	1.350250
19.083333	1	1.304000
19.100000	1	1.254625
19.116667	1	1.203250
19.133333	1	1.151250
19.150000	1	1.099375
19.166667	1	1.049250
19.183333	1	1.000750
19.200000	1	0.955125
19.216667	1	0.913250
19.233333	1	0.874875
19.250000	1	0.841875
19.266667	1	0.814500
19.283333	1	0.792375
19.300000	1	0.776250
19.316667	1	0.765625
19.333333	1	0.761625
19.350000	1	0.763250
19.366667	1	0.769750
19.383333	1	0.781500
19.400000	1	0.798625
19.416667	1	0.820250
19.433333	1	0.845625
19.450000	1	0.874000
19.466667	1	0.904875
19.483333	1	0.938000
19.500000	1	0.970625
19.516667	1	1.002875
19.533333	1	1.034000
19.550000	1	1.063250
19.566667	1	1.088000
19.583333	1	1.107750
19.600000	1	1.122375
19.616667	1	1.131625
19.633333	1	1.134625
19.650000	1	1.132000
19.666667	1	1.123250
19.683333	1	1.108750
19.700000	1	1.088500
19.716667	1	1.064500
19.733333	1	1.037375
19.750000	1	1.007125
19.766667	1	0.974625
19.783333	1	0.940500
19.800000	1	0.906375
19.816667	1	0.872250
19.833333	1	0.839250
19.850000	1	0.807375
19.866667	1	0.776500
19.883333	1	0.747125
19.900000	1	0.720125
19.916667	1	0.695750
19.933333	1	0.673125
19.950000	1	0.652750
19.966667	1	0.634625
19.983333	1	0.619125
20.000000	1	0.605625
20.016667	1	0.595125
20.033333	1	0.586875
20.050000	1	0.580750
20.066667	1	0.577125
20.083333	1	0.575875
20.100000	1	0.576875
20.116667	1	0.580750
20.133333	1	0.586750
20.150000	1	0.595125
20.166667	1	0.604875
20.183333	1	0.617125
20.200000	1	0.630375
20.216667	1	0.645125
20.233333	1	0.661125
20.250000	1	0.677125
20.266667	1	0.692125
20.283333	1	0.706375
20.300000	1	0.719500
20.316667	1	0.731000
20.333333	1	0.740000
20.350000	1	0.746125
20.366667	1	0.749500
20.383333	1	0.749625
20.400000	1	0.747250
20.416667	1	0.741875
20.433333	1	0.733250
20.450000	1	0.723625
20.466667	1	0.712375
20.483333	1	0.701000
20.500000	1	0.690625
20.516667	1	0.681375
20.533333	1	0.674875
20.550000	1	0.671375
20.566667	1	0.672125
20.583333	1	0.678625
20.600000	1	0.690500
20.616667	1	0.709625
20.633333	1	0.735625
20.650000	1	0.769375
20.666667	1	0.810625
20.683333	1	0.859750
20.700000	1	0.915625
20.716667	1	0.979000
20.733333	1	1.048375
20.750000	1	1.122500
20.766667	1	1.199750
20.783333	1	1.277250
20.800000	1	1.354250
20.816667	1	1.428250
20.833333	1	1.496250
20.850000	1	1.555875
20.866667	1	1.604625
20.883333	1	1.642000
20.900000	1	1.667125
20.916667	1	1.678125
20.933333	1	1.674375
20.950000	1	1.657250
20.966667	1	1.625875
20.983333	1	1.582875
21.000000	1	1.530250
21.016667	1	1.468250
21.033333	1	1.400375
21.050000	1	1.328000
21.066667	1	1.253125
21.083333	1	1.178375
21.100000	1	1.104875
21.116667	1	1.034250
21.133333	1	0.966000
21.150000	1	0.903125
21.166667	1	0.844750
21.183333	1	0.790875
21.200000	1	0.742750
21.216667	1	0.699625
21.233333	1	0.661625
21.250000	1	0.628500
21.266667	1	0.599250
21.283333	1	0.574125
21.300000	1	0.552625
21.316667	1	0.534375
21.333333	1	0.518750
21.350000	1	0.505125
21.366667	1	0.493625
21.383333	1	0.484000
21.400000	1	0.476000
21.416667	1	0.469500
21.433333	1	0.463875
21.450000	1	0.460000
21.466667	1	0.457500
21.483333	1	0.455250
21.500000	1	0.453750
21.516667	1	0.453375
21.533333	1	0.454125
21.550000	1	0.455250
21.566667	1	0.458750
21.583333	1	0.462625
21.600000	1	0.468250
21.616667	1	0.476375
21.633333	1	0.485625
21.650000	1	0.497625
21.666667	1	0.511125
21.683333	1	0.527625
21.700000	1	0.546625
21.716667	1	0.568625
21.733333	1	0.593000
21.750000	1	0.621125
21.766667	1	0.652375
21.783333	1	0.686375
21.800000	1	0.722375
21.816667	1	0.761000
21.833333	1	0.801750
21.850000	1	0.843500
21.866667	1	0.887250
21.883333	1	0.930500
21.900000	1	0.972750
21.916667	1	1.014375
21.933333	1	1.053125
21.950000	1	1.088375
21.966667	1	1.119375
21.983333	1	1.147250
22.000000	1	1.169875
22.016667	1	1.186000
22.033333	1	1.195250
22.050000	1	1.199625
22.066667	1	1.198000
22.083333	1	1.190000
22.100000	1	1.176250
22.116667	1	1.157875
22.133333	1	1.134875
22.150000	1	1.108500
22.166667	1	1.078625
22.183333	1	1.046750
22.200000	1	1.012750
22.216667	1	0.977250
22.233333	1	0.940875
22.250000	1	0.904750
22.266667	1	0.869000
22.283333	1	0.834500
22.300000	1	0.799000
22.316667	1	0.766250
22.333333	1	0.734500
22.350000	1	0.703875
22.366667	1	0.674375
22.383333	1	0.646500
22.400000	1	0.619875
22.416667	1	0.595625
22.433333	1	0.572875
22.450000	1	0.551000
22.466667	1	0.531625
22.483333	1	0.513750
22.500000	1	0.497250
22.516667	1	0.481750
22.533333	1	0.467500
22.550000	1	0.454500
22.566667	1	0.443000
22.583333	1	0.432000
22.600000	1	0.422000
22.616667	1	0.412875
22.633333	1	0.404250
22.650000	1	0.396875
22.666667	1	0.389375
22.683333	1	0.381875
22.700000	1	0.374750
22.716667	1	0.367375
22.733333	1	0.360625
22.750000	1	0.354250
22.766667	1	0.347875
22.783333	1	0.341875
22.800000	1	0.336000
22.816667	1	0.329875
22.833333	1	0.323625
22.850000	1	0.317875
22.866667	1	0.312000
22.883333	1	0.306750
22.900000	1	0.301500
22.916667	1	0.295250
22.933333	1	0.289875
22.950000	1	0.284875
22.966667	1	0.280625
22.983333	1	0.276750
23.000000	1	0.273125
23.016667	1	0.269375
23.033333	1	0.266750
23.050000	1	0.264250
23.066667	1	0.262125
23.083333	1	0.261125
23.100000	1	0.260000
23.116667	1	0.259125
23.133333	1	0.259000
23.150000	1	0.259250
23.166667	1	0.259875
23.183333	1	0.260250
23.200000	1	0.261500
23.216667	1	0.263375
23.233333	1	0.265625
23.250000	1	0.268750
23.266667	1	0.273250
23.283333	1	0.278375
23.300000	1	0.284375
23.316667	1	0.292750
23.333333	1	0.303625
23.350000	1	0.317250
23.366667	1	0.333875
23.383333	1	0.353625
23.400000	1	0.378625
23.416667	1	0.407625
23.433333	1	0.444375
23.450000	1	0.489000
23.466667	1	0.542000
23.483333	1	0.604750
23.500000	1	0.678250
23.516667	1	0.764750
23.533333	1	0.864750
23.550000	1	0.980500
23.566667	1	1.111750
23.583333	1	1.259375
23.600000	1	1.424250
23.616667	1	1.607250
23.633333	1	1.806375
23.650000	1	2.022125
23.666667	1	2.252250
23.683333	1	2.495500
23.700000	1	2.748250
23.716667	1	3.008000
23.733333	1	3.269375
23.750000	1	3.527750
23.766667	1	3.778500
23.783333	1	4.016625
23.800000	1	4.236125
23.816667	1	4.431750
23.833333	1	4.599500
23.850000	1	4.735625
23.866667	1	4.836875
23.883333	1	4.901750
23.900000	1	4.928000
23.916667	1	4.916250
23.933333	1	4.866625
23.950000	1	4.781125
23.966667	1	4.663375
23.983333	1	4.516250
24.000000	1	4.343375
24.016667	1	4.150125
24.033333	1	3.940875
24.050000	1	3.720250
24.066667	1	3.493500
24.083333	1	3.263500
24.100000	1	3.034375
24.116667	1	2.809375
24.133333	1	2.590750
24.150000	1	2.381500
24.166667	1	2.184125
24.183333	1	1.998000
24.200000	1	1.824500
24.216667	1	1.664875
24.233333	1	1.518375
24.250000	1	1.385375
24.266667	1	1.265125
24.283333	1	1.156000
24.300000	1	1.059125
24.316667	1	0.972375
24.333333	1	0.895250
24.350000	1	0.828000
24.366667	1	0.769500
24.383333	1	0.718625
24.400000	1	0.674875
24.416667	1	0.636875
24.433333	1	0.604500
24.450000	1	0.577125
24.466667	1	0.555250
24.483333	1	0.536125
24.500000	1	0.519875
24.516667	1	0.506500
24.533333	1	0.495375
24.550000	1	0.486500
24.566667	1	0.479375
24.583333	1	0.472250
24.600000	1	0.465875
24.616667	1	0.460125
24.633333	1	0.454500
24.650000	1	0.449500
24.666667	1	0.444750
24.683333	1	0.439625
24.700000	1	0.434250
24.716667	1	0.428500
24.733333	1	0.422625
24.750000	1	0.417500
24.766667	1	0.411250
24.783333	1	0.405125
24.800000	1	0.399375
24.816667	1	0.393750
24.833333	1	0.387375
24.850000	1	0.382000
24.866667	1	0.377500
24.883333	1	0.372625
24.900000	1	0.367500
24.916667	1	0.362625
24.933333	1	0.358375
24.950000	1	0.354625
24.966667	1	0.351375
24.983333	1	0.347875
25.000000	1	0.345250
25.016667	1	0.342875
25.033333	1	0.340000
25.050000	1	0.337125
25.066667	1	0.334375
25.083333	1	0.332750
25.100000	1	0.330500
25.116667	1	0.328500
25.133333	1	0.326875
25.150000	1	0.324500
25.166667	1	0.322250
25.183333	1	0.319875
25.200000	1	0.317750
25.216667	1	0.315750
25.233333	1	0.313375
25.250000	1	0.311000
25.266667	1	0.308125
25.283333	1	0.305750
25.300000	1	0.303000
25.316667	1	0.300250
25.333333	1	0.298000
25.350000	1	0.296000
25.366667	1	0.294125
25.383333	1	0.292125
25.400000	1	0.290500
25.416667	1	0.288625
25.433333	1	0.286750
25.450000	1	0.285125
25.466667	1	0.283750
25.483333	1	0.282500
25.500000	1	0.281875
25.516667	1	0.281250
25.533333	1	0.280500
25.550000	1	0.280000
25.566667	1	0.279375
25.583333	1	0.279125
25.600000	1	0.278875
25.616667	1	0.278125
25.633333	1	0.277750
25.650000	1	0.276875
25.666667	1	0.276625
25.683333	1	0.276000
25.700000	1	0.275375
25.716667	1	0.274875
25.733333	1	0.274750
25.750000	1	0.274875
25.766667	1	0.274750
25.783333	1	0.274750
25.800000	1	0.274875
25.816667	1	0.275125
25.833333	1	0.275625
25.850000	1	0.276750
25.866667	1	0.277750
25.883333	1	0.278625
25.900000	1	0.280500
25.916667	1	0.282500
25.933333	1	0.284375
25.950000	1	0.287250
25.966667	1	0.290625
25.983333	1	0.294000
26.000000	1	0.297125
26.016667	1	0.301000
26.033333	1	0.305750
26.050000	1	0.310625
26.066667	1	0.316000
26.083333	1	0.322125
26.100000	1	0.327750
26.116667	1	0.333500
26.133333	1	0.339125
26.150000	1	0.344375
26.166667	1	0.350125
26.183333	1	0.355375
26.200000	1	0.360000
26.216667	1	0.364500
26.233333	1	0.368875
26.250000	1	0.372125
26.266667	1	0.374875
26.283333	1	0.377625
26.300000	1	0.379500
26.316667	1	0.380875
26.333333	1	0.381000
26.350000	1	0.380500
26.366667	1	0.379000
26.383333	1	0.376750
26.400000	1	0.373750
26.416667	1	0.370375
26.433333	1	0.366000
26.450000	1	0.361000
26.466667	1	0.355375
26.483333	1	0.349250
26.500000	1	0.343125
26.516667	1	0.335875
26.533333	1	0.328875
26.550000	1	0.321625
26.566667	1	0.314125
26.583333	1	0.306625
26.600000	1	0.299250
26.616667	1	0.291375
26.633333	1	0.283875
26.650000	1	0.276875
26.666667	1	0.269625
26.683333	1	0.262875
26.700000	1	0.256375
26.716667	1	0.250250
26.733333	1	0.244125
26.750000	1	0.238250
26.766667	1	0.233375
26.783333	1	0.228750
26.800000	1	0.224125
26.816667	1	0.219750
26.833333	1	0.216000
26.850000	1	0.213250
26.866667	1	0.210750
26.883333	1	0.208375
26.900000	1	0.206750
26.916667	1	0.205375
26.933333	1	0.203875
26.950000	1	0.203375
26.966667	1	0.203250
26.983333	1	0.203875
27.000000	1	0.204875
27.016667	1	0.206625
27.033333	1	0.208875
27.050000	1	0.211875
27.066667	1	0.215375
27.083333	1	0.219625
27.100000	1	0.225625
27.116667	1	0.231375
27.133333	1	0.238000
27.150000	1	0.247000
27.166667	1	0.257125
27.183333	1	0.268250
27.200000	1	0.281125
27.216667	1	0.296375
27.233333	1	0.313250
27.250000	1	0.332625
27.266667	1	0.355500
27.283333	1	0.381375
27.300000	1	0.411250
27.316667	1	0.446000
27.333333	1	0.484625
27.350000	1	0.529125
27.366667	1	0.579250
27.383333	1	0.636000
27.400000	1	0.700125
27.416667	1	0.771750
27.433333	1	0.852375
27.450000	1	0.941750
27.466667	1	1.040500
27.483333	1	1.149000
27.500000	1	1.267875
27.516667	1	1.396125
27.533333	1	1.535375
27.550000	1	1.683875
27.566667	1	1.841000
27.583333	1	2.006375
27.600000	1	2.179125
27.616667	1	2.357250
27.633333	1	2.540750
27.650000	1	2.726375
27.666667	1	2.912500
27.683333	1	3.096625
27.700000	1	3.275875
27.716667	1	3.448250
27.733333	1	3.610375
27.750000	1	3.760250
27.766667	1	3.895125
27.783333	1	4.011500
27.800000	1	4.108000
27.816667	1	4.182375
27.833333	1	4.233250
27.850000	1	4.260125
27.866667	1	4.261875
27.883333	1	4.237125
27.900000	1	4.188125
27.916667	1	4.114000
27.933333	1	4.017625
27.950000	1	3.899875
27.966667	1	3.763375
27.983333	1	3.611250
28.000000	1	3.445375
28.016667	1	3.269125
28.033333	1	3.084750
28.050000	1	2.895250
28.066667	1	2.704125
28.083333	1	2.513500
28.100000	1	2.325750
28.116667	1	2.142750
28.133333	1	1.967375
28.150000	1	1.799875
28.166667	1	1.641875
28.183333	1	1.494625
28.200000	1	1.357750
28.216667	1	1.231125
28.233333	1	1.116000
28.250000	1	1.011000
28.266667	1	0.916375
28.283333	1	0.832125
28.300000	1	0.757250
28.316667	1	0.691625
28.333333	1	0.634000
28.350000	1	0.585000
28.366667	1	0.542250
28.383333	1	0.506375
28.400000	1	0.477750
28.416667	1	0.454250
28.433333	1	0.435375
28.450000	1	0.421125
28.466667	1	0.410625
28.483333	1	0.404250
28.500000	1	0.400375
28.516667	1	0.399625
28.533333	1	0.401125
28.550000	1	0.405125
28.566667	1	0.411125
28.583333	1	0.419500
28.600000	1	0.428500
28.616667	1	0.437875
28.633333	1	0.448250
28.650000	1	0.459000
28.666667	1	0.471250
28.683333	1	0.483000
28.700000	1	0.494625
28.716667	1	0.505625
28.733333	1	0.516875
28.750000	1	0.527125
28.766667	1	0.536500
28.783333	1	0.545125
28.800000	1	0.552750
28.816667	1	0.559750
28.833333	1	0.566375
28.850000	1	0.571000
28.866667	1	0.574250
28.883333	1	0.576125
28.900000	1	0.577125
28.916667	1	0.577500
28.933333	1	0.576500
28.950000	1	0.573750
28.966667	1	0.570750
28.983333	1	0.566375
29.000000	1	0.561000
29.016667	1	0.554375
29.033333	1	0.545875
29.050000	1	0.536625
29.066667	1	0.526625
29.083333	1	0.516125
29.100000	1	0.504500
29.116667	1	0.492000
29.133333	1	0.478875
29.150000	1	0.465125
29.166667	1	0.451125
29.183333	1	0.437875
29.200000	1	0.422750
29.216667	1	0.408000
29.233333	1	0.392750
29.250000	1	0.377500
29.266667	1	0.362375
29.283333	1	0.347125
29.300000	1	0.331875
29.316667	1	0.317250
29.333333	1	0.302250
29.350000	1	0.288125
29.366667	1	0.274250
29.383333	1	0.260500
29.400000	1	0.246750
29.416667	1	0.233625
29.433333	1	0.220750
29.450000	1	0.209250
29.466667	1	0.198125
29.483333	1	0.188000
29.500000	1	0.176750
29.516667	1	0.166250
29.533333	1	0.157125
29.550000	1	0.148000
29.566667	1	0.139625
29.583333	1	0.132000
29.600000	1	0.125125
29.616667	1	0.118750
29.633333	1	0.112750
29.650000	1	0.107000
29.666667	1	0.102125
29.683333	1	0.098125
29.700000	1	0.094750
29.716667	1	0.091875
29.733333	1	0.089250
29.750000	1	0.086500
29.766667	1	0.084625
29.783333	1	0.083750
29.800000	1	0.083500
29.816667	1	0.082875
29.833333	1	0.082625
29.850000	1	0.082625
29.866667	1	0.082875
29.883333	1	0.082750
29.900000	1	0.083625
29.916667	1	0.084125
29.933333	1	0.084500
29.950000	1	0.085875
29.966667	1	0.086375
29.983333	1	0.087375
30.000000	1	0.089125
30.016667	1	0.090375
30.033333	1	0.090750
30.050000	1	0.091625
30.066667	1	0.092250
30.083333	1	0.092875
30.100000	1	0.093375
30.116667	1	0.094125
30.133333	1	0.094125
30.150000	1	0.094250
30.166667	1	0.095250
30.183333	1	0.096125
30.200000	1	0.096750
30.216667	1	0.097750
30.233333	1	0.098625
30.250000	1	0.099250
30.266667	1	0.100500
30.283333	1	0.101625
30.300000	1	0.102375
30.316667	1	0.103625
30.333333	1	0.104625
30.350000	1	0.106000
30.366667	1	0.107875
30.383333	1	0.109625
30.400000	1	0.111750
30.416667	1	0.114250
30.433333	1	0.117000
30.450000	1	0.119625
30.466667	1	0.123000
30.483333	1	0.126375
30.500000	1	0.130750
30.516667	1	0.135000
30.533333	1	0.139875
30.550000	1	0.144500
30.566667	1	0.150500
30.583333	1	0.157000
30.600000	1	0.163375
30.616667	1	0.170000
30.633333	1	0.177625
30.650000	1	0.185500
30.666667	1	0.193750
30.683333	1	0.202625
30.700000	1	0.211625
30.716667	1	0.221625
30.733333	1	0.232000
30.750000	1	0.242250
30.766667	1	0.253750
30.783333	1	0.265875
30.800000	1	0.278625
30.816667	1	0.292625
30.833333	1	0.307750
30.850000	1	0.323625
30.866667	1	0.340625
30.883333	1	0.358750
30.900000	1	0.378250
30.916667	1	0.399875
30.933333	1	0.424250
30.950000	1	0.450125
30.966667	1	0.478500
30.983333	1	0.510625
31.000000	1	0.546125
31.016667	1	0.585750
31.033333	1	0.629250
31.050000	1	0.677000
31.066667	1	0.730500
31.083333	1	0.789500
31.100000	1	0.854000
31.116667	1	0.924750
31.133333	1	1.001875
31.150000	1	1.085500
31.166667	1	1.175875
31.183333	1	1.274000
31.200000	1	1.378625
31.216667	1	1.490875
31.233333	1	1.609125
31.250000	1	1.733125
31.266667	1	1.862000
31.283333	1	1.995125
31.300000	1	2.131000
31.316667	1	2.270125
31.333333	1	2.409375
31.350000	1	2.548875
31.366667	1	2.685625
31.383333	1	2.819625
31.400000	1	2.947750
31.416667	1	3.070250
31.433333	1	3.184375
31.450000	1	3.288250
31.466667	1	3.380750
31.483333	1	3.461875
31.500000	1	3.527250
31.516667	1	3.577875
31.533333	1	3.613500
31.550000	1	3.633500
31.566667	1	3.637875
31.583333	1	3.625875
31.600000	1	3.598625
31.616667	1	3.555000
31.633333	1	3.497625
31.650000	1	3.426500
31.666667	1	3.343375
31.683333	1	3.248375
31.700000	1	3.144250
31.716667	1	3.031000
31.733333	1	2.911875
31.750000	1	2.787250
31.766667	1	2.659250
31.783333	1	2.528500
31.800000	1	2.396750
31.816667	1	2.265000
31.833333	1	2.133875
31.850000	1	2.005375
31.866667	1	1.880750
31.883333	1	1.760250
31.900000	1	1.644375
31.916667	1	1.534000
31.933333	1	1.429500
31.950000	1	1.330000
31.966667	1	1.235750
31.983333	1	1.147500
32.000000	1	1.065875
32.016667	1	0.989625
32.033333	1	0.919000
32.050000	1	0.853750
32.066667	1	0.793125
32.083333	1	0.737750
32.100000	1	0.686875
32.116667	1	0.639625
32.133333	1	0.596750
32.150000	1	0.556750
32.166667	1	0.520750
32.183333	1	0.488125
32.200000	1	0.456750
32.216667	1	0.427875
32.233333	1	0.400875
32.250000	1	0.375375
32.266667	1	0.352375
32.283333	1	0.330625
32.300000	1	0.311125
32.316667	1	0.291875
32.333333	1	0.274500
32.350000	1	0.257625
32.366667	1	0.242375
32.383333	1	0.227125
32.400000	1	0.212875
32.416667	1	0.199500
32.433333	1	0.186875
32.450000	1	0.175250
32.466667	1	0.163875
32.483333	1	0.153125
32.500000	1	0.143250
32.516667	1	0.134000
32.533333	1	0.125875
32.550000	1	0.118000
32.566667	1	0.109875
32.583333	1	0.103250
32.600000	1	0.097375
32.616667	1	0.091750
32.633333	1	0.086625
32.650000	1	0.082000
32.666667	1	0.077000
32.683333	1	0.072750
32.700000	1	0.068875
32.716667	1	0.064875
32.733333	1	0.061625
32.750000	1	0.058625
32.766667	1	0.056125
32.783333	1	0.053625
32.800000	1	0.051125
32.816667	1	0.048875
32.833333	1	0.046375
32.850000	1	0.044000
32.866667	1	0.042500
32.883333	1	0.040875
32.900000	1	0.039375
32.916667	1	0.038000
32.933333	1	0.036875
32.950000	1	0.035625
32.966667	1	0.035125
32.983333	1	0.034375
33.000000	1	0.033375
33.016667	1	0.032500
33.033333	1	0.031750
33.050000	1	0.031500
33.066667	1	0.031000
33.083333	1	0.030875
33.100000	1	0.031000
33.116667	1	0.031125
33.133333	1	0.031625
33.150000	1	0.032250
33.166667	1	0.033000
33.183333	1	0.033750
33.200000	1	0.035250
33.216667	1	0.037000
33.233333	1	0.038875
33.250000	1	0.040875
33.266667	1	0.043250
33.283333	1	0.045750
33.300000	1	0.048250
33.316667	1	0.051625
33.333333	1	0.055375
33.350000	1	0.059500
33.366667	1	0.065000
33.383333	1	0.070875
33.400000	1	0.077375
33.416667	1	0.084250
33.433333	1	0.091625
33.450000	1	0.100500
33.466667	1	0.109875
33.483333	1	0.120000
33.500000	1	0.131375
33.516667	1	0.143375
33.533333	1	0.157125
33.550000	1	0.171875
33.566667	1	0.187750
33.583333	1	0.205250
33.600000	1	0.224500
33.616667	1	0.244875
33.633333	1	0.267125
33.650000	1	0.290500
33.666667	1	0.315125
33.683333	1	0.341750
33.700000	1	0.369125
33.716667	1	0.397250
33.733333	1	0.427125
33.750000	1	0.458000
33.766667	1	0.489500
33.783333	1	0.522000
33.800000	1	0.554875
33.816667	1	0.588125
33.833333	1	0.620375
33.850000	1	0.652625
33.866667	1	0.684000
33.883333	1	0.714250
33.900000	1	0.743250
33.916667	1	0.771125
33.933333	1	0.796500
33.950000	1	0.819625
33.966667	1	0.841000
33.983333	1	0.859500
34.000000	1	0.874875
34.016667	1	0.887875
34.033333	1	0.897125
34.050000	1	0.903625
34.066667	1	0.906375
34.083333	1	0.906250
34.100000	1	0.903125
34.116667	1	0.897000
34.133333	1	0.887750
34.150000	1	0.875625
34.166667	1	0.861000
34.183333	1	0.843750
34.200000	1	0.823625
34.216667	1	0.802375
34.233333	1	0.779125
34.250000	1	0.754625
34.266667	1	0.729250
34.283333	1	0.702750
34.300000	1	0.676375
34.316667	1	0.648375
34.333333	1	0.621250
34.350000	1	0.594000
34.366667	1	0.566750
34.383333	1	0.540250
34.400000	1	0.513750
34.416667	1	0.488500
34.433333	1	0.464875
34.450000	1	0.441750
34.466667	1	0.420375
34.483333	1	0.399750
34.500000	1	0.380625
34.516667	1	0.361875
34.533333	1	0.344375
34.550000	1	0.328875
34.566667	1	0.313750
34.583333	1	0.299875
34.600000	1	0.286125
34.616667	1	0.274375
34.633333	1	0.262875
34.650000	1	0.252625
34.666667	1	0.243625
34.683333	1	0.235000
34.700000	1	0.227625
34.716667	1	0.220875
34.733333	1	0.214375
34.750000	1	0.208375
34.766667	1	0.203125
34.783333	1	0.198500
34.800000	1	0.193750
34.816667	1	0.189125
34.833333	1	0.185625
34.850000	1	0.182125
34.866667	1	0.178375
34.883333	1	0.175500
34.900000	1	0.173125
34.916667	1	0.170375
34.933333	1	0.167625
34.950000	1	0.164875
34.966667	1	0.162750
34.983333	1	0.160625
35.000000	1	0.158500
35.016667	1	0.156500
35.033333	1	0.154375
35.050000	1	0.152250
35.066667	1	0.150375
35.083333	1	0.148125
35.100000	1	0.146875
35.116667	1	0.145250
35.133333	1	0.143375
35.150000	1	0.141625
35.166667	1	0.139875
35.183333	1	0.138500
35.200000	1	0.137375
35.216667	1	0.135875
35.233333	1	0.134875
35.250000	1	0.133875
35.266667	1	0.132875
35.283333	1	0.131625
35.300000	1	0.131000
35.316667	1	0.129750
35.333333	1	0.129375
35.350000	1	0.129500
35.366667	1	0.128875
35.383333	1	0.129000
35.400000	1	0.128625
35.416667	1	0.128875
35.433333	1	0.128750
35.450000	1	0.128875
35.466667	1	0.129250
35.483333	1	0.129250
35.500000	1	0.130000
35.516667	1	0.130625
35.533333	1	0.131000
35.550000	1	0.131500
35.566667	1	0.132250
35.583333	1	0.133250
35.600000	1	0.133875
35.616667	1	0.134250
35.633333	1	0.135250
35.650000	1	0.136500
35.666667	1	0.137000
35.683333	1	0.137875
35.700000	1	0.138375
35.716667	1	0.139250
35.733333	1	0.140125
35.750000	1	0.141125
35.766667	1	0.141000
35.783333	1	0.140875
35.800000	1	0.141250
35.816667	1	0.141500
35.833333	1	0.142000
35.850000	1	0.142250
35.866667	1	0.142125
35.883333	1	0.141500
35.900000	1	0.142000
35.916667	1	0.141750
35.933333	1	0.141125
35.950000	1	0.140875
35.966667	1	0.139875
35.983333	1	0.138875
36.000000	1	0.138500
36.016667	1	0.137750
36.033333	1	0.136875
36.050000	1	0.136125
36.066667	1	0.135250
36.083333	1	0.134250
36.100000	1	0.133250
36.116667	1	0.132000
36.133333	1	0.130250
36.150000	1	0.129625
36.166667	1	0.128000
36.183333	1	0.126250
36.200000	1	0.125250
36.216667	1	0.124250
36.233333	1	0.122750
36.250000	1	0.121375
36.266667	1	0.119625
36.283333	1	0.118875
36.300000	1	0.118125
36.316667	1	0.116500
36.333333	1	0.115125
36.350000	1	0.114375
36.366667	1	0.112750
36.383333	1	0.111375
36.400000	1	0.109875
36.416667	1	0.108500
36.433333	1	0.106625
36.450000	1	0.104875
36.466667	1	0.103625
36.483333	1	0.101375
36.500000	1	0.098875
36.516667	1	0.097000
36.533333	1	0.095000
36.550000	1	0.093000
36.566667	1	0.090750
36.583333	1	0.088625
36.600000	1	0.086250
36.616667	1	0.083625
36.633333	1	0.080750
36.650000	1	0.077250
36.666667	1	0.074750
36.683333	1	0.071500
36.700000	1	0.068500
36.716667	1	0.065250
36.733333	1	0.062250
36.750000	1	0.059625
36.766667	1	0.056375
36.783333	1	0.053000
36.800000	1	0.050125
36.816667	1	0.047125
36.833333	1	0.044250
36.850000	1	0.041375
36.866667	1	0.039000
36.883333	1	0.035625
36.900000	1	0.033625
36.916667	1	0.031875
36.933333	1	0.030000
36.950000	1	0.028625
36.966667	1	0.027375
36.983333	1	0.026375
37.000000	1	0.026000
37.016667	1	0.025875
37.033333	1	0.024875
37.050000	1	0.024250
37.066667	1	0.025375
37.083333	1	0.025500
37.100000	1	0.026125
37.116667	1	0.027125
37.133333	1	0.027625
37.150000	1	0.029250
37.166667	1	0.030500
37.183333	1	0.031500
37.200000	1	0.032625
37.216667	1	0.033625
37.233333	1	0.035375
37.250000	1	0.036375
37.266667	1	0.037250
37.283333	1	0.038750
37.300000	1	0.040500
37.316667	1	0.041875
37.333333	1	0.043125
37.350000	1	0.043250
37.366667	1	0.043500
37.383333	1	0.043625
37.400000	1	0.044000
37.416667	1	0.044500
37.433333	1	0.044250
37.450000	1	0.043250
37.466667	1	0.042625
37.483333	1	0.042375
37.500000	1	0.041500
37.516667	1	0.040875
37.533333	1	0.040250
37.550000	1	0.039625
37.566667	1	0.039625
37.583333	1	0.038750
37.600000	1	0.038000
37.616667	1	0.037625
37.633333	1	0.036375
37.650000	1	0.035875
37.666667	1	0.035625
37.683333	1	0.034875
37.700000	1	0.034500
37.716667	1	0.033375
37.733333	1	0.032125
37.750000	1	0.032000
37.766667	1	0.031500
37.783333	1	0.031000
37.800000	1	0.030625
37.816667	1	0.030125
37.833333	1	0.029625
37.850000	1	0.029750
37.866667	1	0.029500
37.883333	1	0.029375
37.900000	1	0.028875
37.916667	1	0.029000
37.933333	1	0.029375
37.950000	1	0.029375
37.966667	1	0.029125
37.983333	1	0.028875
38.000000	1	0.028875
38.016667	1	0.028875
38.033333	1	0.028500
38.050000	1	0.029125
38.066667	1	0.028875
38.083333	1	0.029250
38.100000	1	0.029250
38.116667	1	0.029125
38.133333	1	0.029875
38.150000	1	0.030375
38.166667	1	0.030750
38.183333	1	0.030625
38.200000	1	0.030500
38.216667	1	0.030750
38.233333	1	0.030875
38.250000	1	0.031250
38.266667	1	0.031250
38.283333	1	0.031375
38.300000	1	0.031375
38.316667	1	0.032125
38.333333	1	0.032125
38.350000	1	0.032250
38.366667	1	0.032625
38.383333	1	0.032875
38.400000	1	0.032375
38.416667	1	0.031875
38.433333	1	0.031625
38.450000	1	0.031125
38.466667	1	0.030875
38.483333	1	0.030500
38.500000	1	0.029625
38.516667	1	0.029750
38.533333	1	0.028875
38.550000	1	0.029000
38.566667	1	0.027875
38.583333	1	0.026375
38.600000	1	0.024750
38.616667	1	0.024000
38.633333	1	0.023375
38.650000	1	0.022125
38.666667	1	0.021125
38.683333	1	0.020250
38.700000	1	0.018625
38.716667	1	0.016875
38.733333	1	0.015250
38.750000	1	0.013375
38.766667	1	0.011625
38.783333	1	0.010000
38.800000	1	0.008250
38.816667	1	0.006375
38.833333	1	0.005000
38.850000	1	0.003250
38.866667	1	0.001875
38.883333	1	0.001500
38.900000	1	-0.000125
38.916667	1	-0.001625
38.933333	1	-0.002500
38.950000	1	-0.004000
38.966667	1	-0.005000
38.983333	1	-0.006250
39.000000	1	-0.007750
39.016667	1	-0.008625
39.033333	1	-0.010000
39.050000	1	-0.010875
39.066667	1	-0.011250
39.083333	1	-0.010625
39.100000	1	-0.011625
39.116667	1	-0.012250
39.133333	1	-0.012625
39.150000	1	-0.012875
39.166667	1	-0.013000
39.183333	1	-0.012750
39.200000	1	-0.013000
39.216667	1	-0.012500
39.233333	1	-0.012750
39.250000	1	-0.012375
39.266667	1	-0.012500
39.283333	1	-0.012250
39.300000	1	-0.012625
39.316667	1	-0.012625
39.333333	1	-0.012375
39.350000	1	-0.012625
39.366667	1	-0.012750
39.383333	1	-0.013250
39.400000	1	-0.013750
39.416667	1	-0.014000
39.433333	1	-0.014000
39.450000	1	-0.014625
39.466667	1	-0.014875
39.483333	1	-0.015375
39.500000	1	-0.015750
39.516667	1	-0.016125
39.533333	1	-0.016875
39.550000	1	-0.017000
39.566667	1	-0.017500
39.583333	1	-0.018125
39.600000	1	-0.019125
39.616667	1	-0.020000
39.633333	1	-0.020125
39.650000	1	-0.021125
39.666667	1	-0.021625
39.683333	1	-0.021875
39.700000	1	-0.023000
39.716667	1	-0.023375
39.733333	1	-0.024750
39.750000	1	-0.025750
39.766667	1	-0.026375
39.783333	1	-0.026750
39.800000	1	-0.027250
39.816667	1	-0.028375
39.833333	1	-0.029125
39.850000	1	-0.029875
39.866667	1	-0.031000
39.883333	1	-0.031750
39.900000	1	-0.032125
39.916667	1	-0.032625
39.933333	1	-0.033000
39.950000	1	-0.033875
39.966667	1	-0.034750
39.983333	1	-0.035625
40.000000	1	-0.036750
