URL	chrom://bioreactor/micro_cm7/HPLC_Ultimate_3000/Users/markusar/20240708_MA_pHrange1.seq/307.smp/RI_1.channel/RI_1.chm
Channel	RI_1

Injection Information:
Data Vault	micro_cm7
Sequence	20240708_MA_pHrange1
Name	Fp2_5.7_2
Number	64
Position	BF6
Comment	
Processing Method	
Instrument Method	run_25B_method
Type	Unknown
Status	Finished
Inject Time	10.07.2024 10:35:45 +02:00
Volume (µl)	20.0000
Dilution Factor	1.0000
Weight	1.0000

Chromatogram Data Information:
Time Min. (min)	0.000000
Time Max. (min)	40.000000
Data Points	2401
Detector	RI
Generating Data System	Chromeleon 7.3.2.11814
Exporting Data System	Chromeleon 7.3.2.0
Operator	Instrument Controller
Signal Quantity	Refractive 
Signal Unit	µRIU
Signal Min.	-0.075500
Signal Max.	82.336250
Channel	RI_1
Driver Name	RID520Driver.dll
Channel Type	Evaluation
Min. Step (s)	1
Max. Step (s)	1
Average Step (s)	1

Signal Parameter Information:
Signal Info	

Chromatogram Data:
Time (min)	Step (s)	Value (µRIU)
0.000000	n.a.	0.040500
0.016667	1	0.041125
0.033333	1	0.041125
0.050000	1	0.041250
0.066667	1	0.041250
0.083333	1	0.041500
0.100000	1	0.042000
0.116667	1	0.042500
0.133333	1	0.043250
0.150000	1	0.043500
0.166667	1	0.043500
0.183333	1	0.044125
0.200000	1	0.044625
0.216667	1	0.045125
0.233333	1	0.045500
0.250000	1	0.045875
0.266667	1	0.046625
0.283333	1	0.046500
0.300000	1	0.047000
0.316667	1	0.047375
0.333333	1	0.047625
0.350000	1	0.047875
0.366667	1	0.047625
0.383333	1	0.046375
0.400000	1	0.046375
0.416667	1	0.046250
0.433333	1	0.047375
0.450000	1	0.049625
0.466667	1	0.051500
0.483333	1	0.053250
0.500000	1	0.055125
0.516667	1	0.056750
0.533333	1	0.057625
0.550000	1	0.057625
0.566667	1	0.056000
0.583333	1	0.055000
0.600000	1	0.053625
0.616667	1	0.051250
0.633333	1	0.049750
0.650000	1	0.048875
0.666667	1	0.048375
0.683333	1	0.047875
0.700000	1	0.047750
0.716667	1	0.047250
0.733333	1	0.046875
0.750000	1	0.046750
0.766667	1	0.046500
0.783333	1	0.045750
0.800000	1	0.045125
0.816667	1	0.044000
0.833333	1	0.043875
0.850000	1	0.044000
0.866667	1	0.043625
0.883333	1	0.043500
0.900000	1	0.042500
0.916667	1	0.041625
0.933333	1	0.041000
0.950000	1	0.040375
0.966667	1	0.040000
0.983333	1	0.039500
1.000000	1	0.039250
1.016667	1	0.038625
1.033333	1	0.038250
1.050000	1	0.037625
1.066667	1	0.037125
1.083333	1	0.035750
1.100000	1	0.035000
1.116667	1	0.034250
1.133333	1	0.033125
1.150000	1	0.032625
1.166667	1	0.031875
1.183333	1	0.030625
1.200000	1	0.029625
1.216667	1	0.028875
1.233333	1	0.028250
1.250000	1	0.027875
1.266667	1	0.027500
1.283333	1	0.026500
1.300000	1	0.025875
1.316667	1	0.025375
1.333333	1	0.024500
1.350000	1	0.025125
1.366667	1	0.024750
1.383333	1	0.024625
1.400000	1	0.024375
1.416667	1	0.023875
1.433333	1	0.024125
1.450000	1	0.024000
1.466667	1	0.024250
1.483333	1	0.024125
1.500000	1	0.024875
1.516667	1	0.025000
1.533333	1	0.025000
1.550000	1	0.025625
1.566667	1	0.026250
1.583333	1	0.026375
1.600000	1	0.026875
1.616667	1	0.027250
1.633333	1	0.028125
1.650000	1	0.028125
1.666667	1	0.029000
1.683333	1	0.029750
1.700000	1	0.029875
1.716667	1	0.030250
1.733333	1	0.030875
1.750000	1	0.031125
1.766667	1	0.030875
1.783333	1	0.031125
1.800000	1	0.031125
1.816667	1	0.031125
1.833333	1	0.031625
1.850000	1	0.031875
1.866667	1	0.032625
1.883333	1	0.032625
1.900000	1	0.032750
1.916667	1	0.032375
1.933333	1	0.031625
1.950000	1	0.031250
1.966667	1	0.030750
1.983333	1	0.030375
2.000000	1	0.029750
2.016667	1	0.028875
2.033333	1	0.027875
2.050000	1	0.026625
2.066667	1	0.026250
2.083333	1	0.025750
2.100000	1	0.024750
2.116667	1	0.023250
2.133333	1	0.021125
2.150000	1	0.020375
2.166667	1	0.019625
2.183333	1	0.018625
2.200000	1	0.017000
2.216667	1	0.015250
2.233333	1	0.014875
2.250000	1	0.014000
2.266667	1	0.013000
2.283333	1	0.011625
2.300000	1	0.010875
2.316667	1	0.009875
2.333333	1	0.009750
2.350000	1	0.009125
2.366667	1	0.008500
2.383333	1	0.007750
2.400000	1	0.007375
2.416667	1	0.006875
2.433333	1	0.007000
2.450000	1	0.007125
2.466667	1	0.007625
2.483333	1	0.008250
2.500000	1	0.008625
2.516667	1	0.008625
2.533333	1	0.009125
2.550000	1	0.009625
2.566667	1	0.010250
2.583333	1	0.011500
2.600000	1	0.012125
2.616667	1	0.014000
2.633333	1	0.014625
2.650000	1	0.016250
2.666667	1	0.018250
2.683333	1	0.019500
2.700000	1	0.021000
2.716667	1	0.023125
2.733333	1	0.024625
2.750000	1	0.026250
2.766667	1	0.028000
2.783333	1	0.030125
2.800000	1	0.032125
2.816667	1	0.034125
2.833333	1	0.035625
2.850000	1	0.036875
2.866667	1	0.038625
2.883333	1	0.041000
2.900000	1	0.042875
2.916667	1	0.044375
2.933333	1	0.045625
2.950000	1	0.047625
2.966667	1	0.049000
2.983333	1	0.050000
3.000000	1	0.050625
3.016667	1	0.051875
3.033333	1	0.052750
3.050000	1	0.053000
3.066667	1	0.053875
3.083333	1	0.054625
3.100000	1	0.055625
3.116667	1	0.055625
3.133333	1	0.056125
3.150000	1	0.056500
3.166667	1	0.056625
3.183333	1	0.057125
3.200000	1	0.057500
3.216667	1	0.057500
3.233333	1	0.057375
3.250000	1	0.057625
3.266667	1	0.058250
3.283333	1	0.058250
3.300000	1	0.059000
3.316667	1	0.058875
3.333333	1	0.059000
3.350000	1	0.059125
3.366667	1	0.059875
3.383333	1	0.060625
3.400000	1	0.061500
3.416667	1	0.062000
3.433333	1	0.062250
3.450000	1	0.063375
3.466667	1	0.063625
3.483333	1	0.064000
3.500000	1	0.065250
3.516667	1	0.065750
3.533333	1	0.067125
3.550000	1	0.067000
3.566667	1	0.067000
3.583333	1	0.068125
3.600000	1	0.068750
3.616667	1	0.069000
3.633333	1	0.069375
3.650000	1	0.069875
3.666667	1	0.070125
3.683333	1	0.070000
3.700000	1	0.070250
3.716667	1	0.070125
3.733333	1	0.070750
3.750000	1	0.071125
3.766667	1	0.071750
3.783333	1	0.071500
3.800000	1	0.071625
3.816667	1	0.071750
3.833333	1	0.071000
3.850000	1	0.071625
3.866667	1	0.071750
3.883333	1	0.071750
3.900000	1	0.072250
3.916667	1	0.072625
3.933333	1	0.073125
3.950000	1	0.073500
3.966667	1	0.074000
3.983333	1	0.074750
4.000000	1	0.075500
4.016667	1	0.076250
4.033333	1	0.077375
4.050000	1	0.078875
4.066667	1	0.079625
4.083333	1	0.081125
4.100000	1	0.082125
4.116667	1	0.083875
4.133333	1	0.084750
4.150000	1	0.085875
4.166667	1	0.087250
4.183333	1	0.089125
4.200000	1	0.090000
4.216667	1	0.091625
4.233333	1	0.092125
4.250000	1	0.093750
4.266667	1	0.095125
4.283333	1	0.097000
4.300000	1	0.097625
4.316667	1	0.098875
4.333333	1	0.100250
4.350000	1	0.101375
4.366667	1	0.102500
4.383333	1	0.103750
4.400000	1	0.104500
4.416667	1	0.104625
4.433333	1	0.106000
4.450000	1	0.106125
4.466667	1	0.106375
4.483333	1	0.107000
4.500000	1	0.107750
4.516667	1	0.108625
4.533333	1	0.109500
4.550000	1	0.109625
4.566667	1	0.109250
4.583333	1	0.109625
4.600000	1	0.109875
4.616667	1	0.110750
4.633333	1	0.111125
4.650000	1	0.112000
4.666667	1	0.112750
4.683333	1	0.112625
4.700000	1	0.112500
4.716667	1	0.112500
4.733333	1	0.113000
4.750000	1	0.113750
4.766667	1	0.114375
4.783333	1	0.115000
4.800000	1	0.116000
4.816667	1	0.117625
4.833333	1	0.118625
4.850000	1	0.120250
4.866667	1	0.121875
4.883333	1	0.123625
4.900000	1	0.124875
4.916667	1	0.126500
4.933333	1	0.128375
4.950000	1	0.131500
4.966667	1	0.133375
4.983333	1	0.136000
5.000000	1	0.139000
5.016667	1	0.142125
5.033333	1	0.145375
5.050000	1	0.149000
5.066667	1	0.151875
5.083333	1	0.155500
5.100000	1	0.159250
5.116667	1	0.162500
5.133333	1	0.166250
5.150000	1	0.169875
5.166667	1	0.174000
5.183333	1	0.178125
5.200000	1	0.182625
5.216667	1	0.186625
5.233333	1	0.191000
5.250000	1	0.194875
5.266667	1	0.199125
5.283333	1	0.203375
5.300000	1	0.207500
5.316667	1	0.210875
5.333333	1	0.214500
5.350000	1	0.217625
5.366667	1	0.220875
5.383333	1	0.223875
5.400000	1	0.226500
5.416667	1	0.228750
5.433333	1	0.230750
5.450000	1	0.232375
5.466667	1	0.233250
5.483333	1	0.234750
5.500000	1	0.234750
5.516667	1	0.235000
5.533333	1	0.234875
5.550000	1	0.234500
5.566667	1	0.233250
5.583333	1	0.232500
5.600000	1	0.230875
5.616667	1	0.227875
5.633333	1	0.225375
5.650000	1	0.223000
5.666667	1	0.219875
5.683333	1	0.216500
5.700000	1	0.212500
5.716667	1	0.208875
5.733333	1	0.204875
5.750000	1	0.200500
5.766667	1	0.196125
5.783333	1	0.191250
5.800000	1	0.186875
5.816667	1	0.182250
5.833333	1	0.177375
5.850000	1	0.171750
5.866667	1	0.166750
5.883333	1	0.161375
5.900000	1	0.156250
5.916667	1	0.150875
5.933333	1	0.146375
5.950000	1	0.142125
5.966667	1	0.138125
5.983333	1	0.133625
6.000000	1	0.128750
6.016667	1	0.125250
6.033333	1	0.121000
6.050000	1	0.117250
6.066667	1	0.113000
6.083333	1	0.109625
6.100000	1	0.106375
6.116667	1	0.102625
6.133333	1	0.099625
6.150000	1	0.097000
6.166667	1	0.094500
6.183333	1	0.092000
6.200000	1	0.090000
6.216667	1	0.088250
6.233333	1	0.085500
6.250000	1	0.083375
6.266667	1	0.081250
6.283333	1	0.079250
6.300000	1	0.077125
6.316667	1	0.075500
6.333333	1	0.073625
6.350000	1	0.072250
6.366667	1	0.071000
6.383333	1	0.070000
6.400000	1	0.069250
6.416667	1	0.067875
6.433333	1	0.067000
6.450000	1	0.065875
6.466667	1	0.064625
6.483333	1	0.063625
6.500000	1	0.062000
6.516667	1	0.061750
6.533333	1	0.061750
6.550000	1	0.061125
6.566667	1	0.061000
6.583333	1	0.061125
6.600000	1	0.060625
6.616667	1	0.059625
6.633333	1	0.059875
6.650000	1	0.059250
6.666667	1	0.059125
6.683333	1	0.059625
6.700000	1	0.060250
6.716667	1	0.060375
6.733333	1	0.061000
6.750000	1	0.061250
6.766667	1	0.061875
6.783333	1	0.062750
6.800000	1	0.063375
6.816667	1	0.064625
6.833333	1	0.065750
6.850000	1	0.067000
6.866667	1	0.067250
6.883333	1	0.068625
6.900000	1	0.070000
6.916667	1	0.071625
6.933333	1	0.072875
6.950000	1	0.074000
6.966667	1	0.075500
6.983333	1	0.077250
7.000000	1	0.079375
7.016667	1	0.081250
7.033333	1	0.082500
7.050000	1	0.084875
7.066667	1	0.085750
7.083333	1	0.087625
7.100000	1	0.089375
7.116667	1	0.091250
7.133333	1	0.093000
7.150000	1	0.095125
7.166667	1	0.096375
7.183333	1	0.097500
7.200000	1	0.098750
7.216667	1	0.100125
7.233333	1	0.100250
7.250000	1	0.101375
7.266667	1	0.102000
7.283333	1	0.102625
7.300000	1	0.102750
7.316667	1	0.102500
7.333333	1	0.102625
7.350000	1	0.102500
7.366667	1	0.102500
7.383333	1	0.102250
7.400000	1	0.101750
7.416667	1	0.101000
7.433333	1	0.099500
7.450000	1	0.098375
7.466667	1	0.096875
7.483333	1	0.095250
7.500000	1	0.093375
7.516667	1	0.091250
7.533333	1	0.089250
7.550000	1	0.087250
7.566667	1	0.084500
7.583333	1	0.082375
7.600000	1	0.079750
7.616667	1	0.077250
7.633333	1	0.074125
7.650000	1	0.070250
7.666667	1	0.067250
7.683333	1	0.064125
7.700000	1	0.060125
7.716667	1	0.057500
7.733333	1	0.054750
7.750000	1	0.052250
7.766667	1	0.048750
7.783333	1	0.046250
7.800000	1	0.042250
7.816667	1	0.038500
7.833333	1	0.034750
7.850000	1	0.032000
7.866667	1	0.029125
7.883333	1	0.026125
7.900000	1	0.023375
7.916667	1	0.020750
7.933333	1	0.018500
7.950000	1	0.015875
7.966667	1	0.014125
7.983333	1	0.011500
8.000000	1	0.010125
8.016667	1	0.007750
8.033333	1	0.006250
8.050000	1	0.004625
8.066667	1	0.003000
8.083333	1	0.001500
8.100000	1	0.000000
8.116667	1	-0.000875
8.133333	1	-0.001125
8.150000	1	-0.002125
8.166667	1	-0.003375
8.183333	1	-0.004625
8.200000	1	-0.005875
8.216667	1	-0.006875
8.233333	1	-0.007750
8.250000	1	-0.008250
8.266667	1	-0.009000
8.283333	1	-0.010125
8.300000	1	-0.010750
8.316667	1	-0.011625
8.333333	1	-0.012250
8.350000	1	-0.012750
8.366667	1	-0.013625
8.383333	1	-0.014250
8.400000	1	-0.015500
8.416667	1	-0.015750
8.433333	1	-0.016125
8.450000	1	-0.016750
8.466667	1	-0.017875
8.483333	1	-0.018125
8.500000	1	-0.018625
8.516667	1	-0.019250
8.533333	1	-0.019500
8.550000	1	-0.019875
8.566667	1	-0.020250
8.583333	1	-0.020500
8.600000	1	-0.020625
8.616667	1	-0.020375
8.633333	1	-0.020750
8.650000	1	-0.020375
8.666667	1	-0.020000
8.683333	1	-0.019125
8.700000	1	-0.019625
8.716667	1	-0.019750
8.733333	1	-0.019000
8.750000	1	-0.019000
8.766667	1	-0.018875
8.783333	1	-0.018500
8.800000	1	-0.019000
8.816667	1	-0.019500
8.833333	1	-0.018750
8.850000	1	-0.018500
8.866667	1	-0.018750
8.883333	1	-0.018875
8.900000	1	-0.018500
8.916667	1	-0.018125
8.933333	1	-0.018500
8.950000	1	-0.019000
8.966667	1	-0.019500
8.983333	1	-0.020000
9.000000	1	-0.020750
9.016667	1	-0.022125
9.033333	1	-0.022625
9.050000	1	-0.023250
9.066667	1	-0.024625
9.083333	1	-0.025875
9.100000	1	-0.027375
9.116667	1	-0.028000
9.133333	1	-0.028625
9.150000	1	-0.029875
9.166667	1	-0.030875
9.183333	1	-0.032250
9.200000	1	-0.033875
9.216667	1	-0.034625
9.233333	1	-0.036125
9.250000	1	-0.037875
9.266667	1	-0.038250
9.283333	1	-0.039875
9.300000	1	-0.041000
9.316667	1	-0.042000
9.333333	1	-0.043625
9.350000	1	-0.044750
9.366667	1	-0.046375
9.383333	1	-0.047750
9.400000	1	-0.049250
9.416667	1	-0.050500
9.433333	1	-0.051625
9.450000	1	-0.052750
9.466667	1	-0.053750
9.483333	1	-0.055000
9.500000	1	-0.056250
9.516667	1	-0.057375
9.533333	1	-0.058375
9.550000	1	-0.059250
9.566667	1	-0.060000
9.583333	1	-0.061250
9.600000	1	-0.062625
9.616667	1	-0.063500
9.633333	1	-0.064750
9.650000	1	-0.065875
9.666667	1	-0.066625
9.683333	1	-0.067000
9.700000	1	-0.067375
9.716667	1	-0.068000
9.733333	1	-0.069000
9.750000	1	-0.068875
9.766667	1	-0.069750
9.783333	1	-0.070875
9.800000	1	-0.071125
9.816667	1	-0.071750
9.833333	1	-0.072250
9.850000	1	-0.072250
9.866667	1	-0.073125
9.883333	1	-0.073875
9.900000	1	-0.075000
9.916667	1	-0.075125
9.933333	1	-0.075500
9.950000	1	-0.075500
9.966667	1	-0.075125
9.983333	1	-0.075250
10.000000	1	-0.075125
10.016667	1	-0.074625
10.033333	1	-0.073875
10.050000	1	-0.073125
10.066667	1	-0.072125
10.083333	1	-0.069625
10.100000	1	-0.067250
10.116667	1	-0.064625
10.133333	1	-0.060625
10.150000	1	-0.056000
10.166667	1	-0.050375
10.183333	1	-0.043375
10.200000	1	-0.035250
10.216667	1	-0.026125
10.233333	1	-0.015625
10.250000	1	-0.003375
10.266667	1	0.010875
10.283333	1	0.027000
10.300000	1	0.045375
10.316667	1	0.067000
10.333333	1	0.090250
10.350000	1	0.115375
10.366667	1	0.141125
10.383333	1	0.166875
10.400000	1	0.189375
10.416667	1	0.206875
10.433333	1	0.217250
10.450000	1	0.221500
10.466667	1	0.219500
10.483333	1	0.217250
10.500000	1	0.227125
10.516667	1	0.267250
10.533333	1	0.363750
10.550000	1	0.552500
10.566667	1	0.878875
10.583333	1	1.393125
10.600000	1	2.151875
10.616667	1	3.208000
10.633333	1	4.608875
10.650000	1	6.387125
10.666667	1	8.565000
10.683333	1	11.151375
10.700000	1	14.141125
10.716667	1	17.510625
10.733333	1	21.217250
10.750000	1	25.197125
10.766667	1	29.358750
10.783333	1	33.576875
10.800000	1	37.685500
10.816667	1	41.459125
10.833333	1	44.612500
10.850000	1	46.827250
10.866667	1	47.804875
10.883333	1	47.328875
10.900000	1	45.350250
10.916667	1	42.034000
10.933333	1	37.730000
10.950000	1	32.885500
10.966667	1	27.940250
10.983333	1	23.242000
11.000000	1	19.011375
11.016667	1	15.359000
11.033333	1	12.308625
11.050000	1	9.827875
11.066667	1	7.849500
11.083333	1	6.299000
11.100000	1	5.098625
11.116667	1	4.178250
11.133333	1	3.475625
11.150000	1	2.941625
11.166667	1	2.537000
11.183333	1	2.229000
11.200000	1	1.994875
11.216667	1	1.816375
11.233333	1	1.679875
11.250000	1	1.575250
11.266667	1	1.493375
11.283333	1	1.428125
11.300000	1	1.373250
11.316667	1	1.326000
11.333333	1	1.282750
11.350000	1	1.242750
11.366667	1	1.204125
11.383333	1	1.166500
11.400000	1	1.130250
11.416667	1	1.094750
11.433333	1	1.061875
11.450000	1	1.030750
11.466667	1	1.003000
11.483333	1	0.979000
11.500000	1	0.957750
11.516667	1	0.941000
11.533333	1	0.929125
11.550000	1	0.920375
11.566667	1	0.916250
11.583333	1	0.916375
11.600000	1	0.921500
11.616667	1	0.931625
11.633333	1	0.945750
11.650000	1	0.964125
11.666667	1	0.987625
11.683333	1	1.014250
11.700000	1	1.043500
11.716667	1	1.074750
11.733333	1	1.106500
11.750000	1	1.136250
11.766667	1	1.163375
11.783333	1	1.186375
11.800000	1	1.203750
11.816667	1	1.214875
11.833333	1	1.219125
11.850000	1	1.217750
11.866667	1	1.210625
11.883333	1	1.198125
11.900000	1	1.182250
11.916667	1	1.163500
11.933333	1	1.143750
11.950000	1	1.123625
11.966667	1	1.103000
11.983333	1	1.084375
12.000000	1	1.067750
12.016667	1	1.053125
12.033333	1	1.040375
12.050000	1	1.030000
12.066667	1	1.021000
12.083333	1	1.015000
12.100000	1	1.010625
12.116667	1	1.008500
12.133333	1	1.007000
12.150000	1	1.006625
12.166667	1	1.009125
12.183333	1	1.012125
12.200000	1	1.017500
12.216667	1	1.025000
12.233333	1	1.035875
12.250000	1	1.050500
12.266667	1	1.071875
12.283333	1	1.100000
12.300000	1	1.139000
12.316667	1	1.192250
12.333333	1	1.264000
12.350000	1	1.361500
12.366667	1	1.493125
12.383333	1	1.669500
12.400000	1	1.906875
12.416667	1	2.224875
12.433333	1	2.648625
12.450000	1	3.211375
12.466667	1	3.955875
12.483333	1	4.936625
12.500000	1	6.215625
12.516667	1	7.867250
12.533333	1	9.973375
12.550000	1	12.613500
12.566667	1	15.866375
12.583333	1	19.792875
12.600000	1	24.426000
12.616667	1	29.748000
12.633333	1	35.695125
12.650000	1	42.149000
12.666667	1	48.927375
12.683333	1	55.787500
12.700000	1	62.436875
12.716667	1	68.561875
12.733333	1	73.852625
12.750000	1	78.036625
12.766667	1	80.904500
12.783333	1	82.336250
12.800000	1	82.311250
12.816667	1	80.910625
12.833333	1	78.299500
12.850000	1	74.703125
12.866667	1	70.385875
12.883333	1	65.629625
12.900000	1	60.702625
12.916667	1	55.844125
12.933333	1	51.249000
12.950000	1	47.058250
12.966667	1	43.361250
12.983333	1	40.201875
13.000000	1	37.587375
13.016667	1	35.495375
13.033333	1	33.886375
13.050000	1	32.709875
13.066667	1	31.912500
13.083333	1	31.442750
13.100000	1	31.251750
13.116667	1	31.293750
13.133333	1	31.529500
13.150000	1	31.926250
13.166667	1	32.456250
13.183333	1	33.096125
13.200000	1	33.826625
13.216667	1	34.632875
13.233333	1	35.503250
13.250000	1	36.428875
13.266667	1	37.403375
13.283333	1	38.420625
13.300000	1	39.477875
13.316667	1	40.570250
13.333333	1	41.695125
13.350000	1	42.850250
13.366667	1	44.035875
13.383333	1	45.250500
13.400000	1	46.493125
13.416667	1	47.763375
13.433333	1	49.062250
13.450000	1	50.391875
13.466667	1	51.752625
13.483333	1	53.143500
13.500000	1	54.566250
13.516667	1	56.019500
13.533333	1	57.505875
13.550000	1	59.023500
13.566667	1	60.572875
13.583333	1	62.152625
13.600000	1	63.763000
13.616667	1	65.404875
13.633333	1	67.079625
13.650000	1	68.789750
13.666667	1	70.535750
13.683333	1	72.316875
13.700000	1	74.124000
13.716667	1	75.922000
13.733333	1	77.627375
13.750000	1	79.094250
13.766667	1	80.137000
13.783333	1	80.576875
13.800000	1	80.266125
13.816667	1	79.094000
13.833333	1	76.952375
13.850000	1	73.705625
13.866667	1	69.200000
13.883333	1	63.359625
13.900000	1	56.335875
13.916667	1	48.586375
13.933333	1	40.763000
13.950000	1	33.474250
13.966667	1	27.117000
13.983333	1	21.832750
14.000000	1	17.582625
14.016667	1	14.227875
14.033333	1	11.617000
14.050000	1	9.610500
14.066667	1	8.086875
14.083333	1	6.944000
14.100000	1	6.092500
14.116667	1	5.459750
14.133333	1	4.985875
14.150000	1	4.627500
14.166667	1	4.351250
14.183333	1	4.133000
14.200000	1	3.957000
14.216667	1	3.812500
14.233333	1	3.690250
14.250000	1	3.584250
14.266667	1	3.491875
14.283333	1	3.408750
14.300000	1	3.333875
14.316667	1	3.266000
14.333333	1	3.203000
14.350000	1	3.145000
14.366667	1	3.091875
14.383333	1	3.043000
14.400000	1	2.997375
14.416667	1	2.956000
14.433333	1	2.917250
14.450000	1	2.882125
14.466667	1	2.848750
14.483333	1	2.818375
14.500000	1	2.789500
14.516667	1	2.762375
14.533333	1	2.737875
14.550000	1	2.714125
14.566667	1	2.691625
14.583333	1	2.669250
14.600000	1	2.647500
14.616667	1	2.625875
14.633333	1	2.605000
14.650000	1	2.584000
14.666667	1	2.563750
14.683333	1	2.543875
14.700000	1	2.524625
14.716667	1	2.507250
14.733333	1	2.491125
14.750000	1	2.476500
14.766667	1	2.464625
14.783333	1	2.453875
14.800000	1	2.444375
14.816667	1	2.435125
14.833333	1	2.425500
14.850000	1	2.414250
14.866667	1	2.401250
14.883333	1	2.385125
14.900000	1	2.366000
14.916667	1	2.343000
14.933333	1	2.316000
14.950000	1	2.285000
14.966667	1	2.250250
14.983333	1	2.211625
15.000000	1	2.171125
15.016667	1	2.129375
15.033333	1	2.087000
15.050000	1	2.044375
15.066667	1	2.003375
15.083333	1	1.962875
15.100000	1	1.925250
15.116667	1	1.889750
15.133333	1	1.856500
15.150000	1	1.826375
15.166667	1	1.799000
15.183333	1	1.774750
15.200000	1	1.752625
15.216667	1	1.733250
15.233333	1	1.716250
15.250000	1	1.702500
15.266667	1	1.691125
15.283333	1	1.682625
15.300000	1	1.676875
15.316667	1	1.674750
15.333333	1	1.676625
15.350000	1	1.682750
15.366667	1	1.693625
15.383333	1	1.709250
15.400000	1	1.730250
15.416667	1	1.755375
15.433333	1	1.786000
15.450000	1	1.819000
15.466667	1	1.854250
15.483333	1	1.889000
15.500000	1	1.922250
15.516667	1	1.951375
15.533333	1	1.976250
15.550000	1	1.993500
15.566667	1	2.002750
15.583333	1	2.002625
15.600000	1	1.994125
15.616667	1	1.976875
15.633333	1	1.951625
15.650000	1	1.920125
15.666667	1	1.883625
15.683333	1	1.843500
15.700000	1	1.801750
15.716667	1	1.759500
15.733333	1	1.717750
15.750000	1	1.676750
15.766667	1	1.637250
15.783333	1	1.600250
15.800000	1	1.564250
15.816667	1	1.530125
15.833333	1	1.497375
15.850000	1	1.465875
15.866667	1	1.435875
15.883333	1	1.406750
15.900000	1	1.379125
15.916667	1	1.352875
15.933333	1	1.328375
15.950000	1	1.305375
15.966667	1	1.284500
15.983333	1	1.266125
16.000000	1	1.249875
16.016667	1	1.235750
16.033333	1	1.224500
16.050000	1	1.214625
16.066667	1	1.207250
16.083333	1	1.201625
16.100000	1	1.197750
16.116667	1	1.195125
16.133333	1	1.194375
16.150000	1	1.193750
16.166667	1	1.193625
16.183333	1	1.193125
16.200000	1	1.193375
16.216667	1	1.193375
16.233333	1	1.194000
16.250000	1	1.193250
16.266667	1	1.192375
16.283333	1	1.190500
16.300000	1	1.187750
16.316667	1	1.184375
16.333333	1	1.180625
16.350000	1	1.176000
16.366667	1	1.170875
16.383333	1	1.165250
16.400000	1	1.159375
16.416667	1	1.154000
16.433333	1	1.149500
16.450000	1	1.145750
16.466667	1	1.143125
16.483333	1	1.141375
16.500000	1	1.141250
16.516667	1	1.142875
16.533333	1	1.146750
16.550000	1	1.152000
16.566667	1	1.159125
16.583333	1	1.166375
16.600000	1	1.175250
16.616667	1	1.183500
16.633333	1	1.192500
16.650000	1	1.200500
16.666667	1	1.207125
16.683333	1	1.212250
16.700000	1	1.215625
16.716667	1	1.218500
16.733333	1	1.220875
16.750000	1	1.222625
16.766667	1	1.223750
16.783333	1	1.224750
16.800000	1	1.226000
16.816667	1	1.227625
16.833333	1	1.229625
16.850000	1	1.232375
16.866667	1	1.236375
16.883333	1	1.239125
16.900000	1	1.242500
16.916667	1	1.244875
16.933333	1	1.246750
16.950000	1	1.248250
16.966667	1	1.249125
16.983333	1	1.248375
17.000000	1	1.245625
17.016667	1	1.242875
17.033333	1	1.238125
17.050000	1	1.232750
17.066667	1	1.227500
17.083333	1	1.221375
17.100000	1	1.214750
17.116667	1	1.208750
17.133333	1	1.202875
17.150000	1	1.197500
17.166667	1	1.193125
17.183333	1	1.189875
17.200000	1	1.188125
17.216667	1	1.187500
17.233333	1	1.187125
17.250000	1	1.188125
17.266667	1	1.189500
17.283333	1	1.191500
17.300000	1	1.194875
17.316667	1	1.198500
17.333333	1	1.202500
17.350000	1	1.207250
17.366667	1	1.212250
17.383333	1	1.216750
17.400000	1	1.221250
17.416667	1	1.224625
17.433333	1	1.227625
17.450000	1	1.230250
17.466667	1	1.231625
17.483333	1	1.230875
17.500000	1	1.229125
17.516667	1	1.225375
17.533333	1	1.220875
17.550000	1	1.214375
17.566667	1	1.206625
17.583333	1	1.197500
17.600000	1	1.186750
17.616667	1	1.174250
17.633333	1	1.160875
17.650000	1	1.147000
17.666667	1	1.132125
17.683333	1	1.116250
17.700000	1	1.100375
17.716667	1	1.084750
17.733333	1	1.068500
17.750000	1	1.053500
17.766667	1	1.038875
17.783333	1	1.023500
17.800000	1	1.009250
17.816667	1	0.995125
17.833333	1	0.980625
17.850000	1	0.967000
17.866667	1	0.954250
17.883333	1	0.941625
17.900000	1	0.929375
17.916667	1	0.917500
17.933333	1	0.905375
17.950000	1	0.894250
17.966667	1	0.883875
17.983333	1	0.873250
18.000000	1	0.864125
18.016667	1	0.855125
18.033333	1	0.846125
18.050000	1	0.837875
18.066667	1	0.828750
18.083333	1	0.821250
18.100000	1	0.813250
18.116667	1	0.806000
18.133333	1	0.799750
18.150000	1	0.793250
18.166667	1	0.787500
18.183333	1	0.782625
18.200000	1	0.778000
18.216667	1	0.774875
18.233333	1	0.771875
18.250000	1	0.769125
18.266667	1	0.767750
18.283333	1	0.766750
18.300000	1	0.766750
18.316667	1	0.767125
18.333333	1	0.768125
18.350000	1	0.769250
18.366667	1	0.771000
18.383333	1	0.772875
18.400000	1	0.776000
18.416667	1	0.778500
18.433333	1	0.782125
18.450000	1	0.785750
18.466667	1	0.791250
18.483333	1	0.797750
18.500000	1	0.805125
18.516667	1	0.813875
18.533333	1	0.824500
18.550000	1	0.837250
18.566667	1	0.852125
18.583333	1	0.869000
18.600000	1	0.887625
18.616667	1	0.907500
18.633333	1	0.929750
18.650000	1	0.954250
18.666667	1	0.980625
18.683333	1	1.009375
18.700000	1	1.039000
18.716667	1	1.070750
18.733333	1	1.103750
18.750000	1	1.137500
18.766667	1	1.172000
18.783333	1	1.206750
18.800000	1	1.241875
18.816667	1	1.276375
18.833333	1	1.309250
18.850000	1	1.340625
18.866667	1	1.369000
18.883333	1	1.393750
18.900000	1	1.415250
18.916667	1	1.432000
18.933333	1	1.443250
18.950000	1	1.448625
18.966667	1	1.448125
18.983333	1	1.440125
19.000000	1	1.425750
19.016667	1	1.404625
19.033333	1	1.376500
19.050000	1	1.342500
19.066667	1	1.303500
19.083333	1	1.260750
19.100000	1	1.214125
19.116667	1	1.165500
19.133333	1	1.115500
19.150000	1	1.065375
19.166667	1	1.015625
19.183333	1	0.966875
19.200000	1	0.921750
19.216667	1	0.879500
19.233333	1	0.841000
19.250000	1	0.807625
19.266667	1	0.778750
19.283333	1	0.755500
19.300000	1	0.737625
19.316667	1	0.725625
19.333333	1	0.718750
19.350000	1	0.717125
19.366667	1	0.720125
19.383333	1	0.729625
19.400000	1	0.743750
19.416667	1	0.762125
19.433333	1	0.785000
19.450000	1	0.811500
19.466667	1	0.841250
19.483333	1	0.873500
19.500000	1	0.906750
19.516667	1	0.939500
19.533333	1	0.972375
19.550000	1	1.001875
19.566667	1	1.029625
19.583333	1	1.053250
19.600000	1	1.073375
19.616667	1	1.087375
19.633333	1	1.096375
19.650000	1	1.099000
19.666667	1	1.096000
19.683333	1	1.087000
19.700000	1	1.072750
19.716667	1	1.052750
19.733333	1	1.028625
19.750000	1	1.000125
19.766667	1	0.969250
19.783333	1	0.936000
19.800000	1	0.901875
19.816667	1	0.867500
19.833333	1	0.832875
19.850000	1	0.799000
19.866667	1	0.765875
19.883333	1	0.734750
19.900000	1	0.704875
19.916667	1	0.678125
19.933333	1	0.653875
19.950000	1	0.631500
19.966667	1	0.611250
19.983333	1	0.593250
20.000000	1	0.578875
20.016667	1	0.566625
20.033333	1	0.556750
20.050000	1	0.549375
20.066667	1	0.543875
20.083333	1	0.541125
20.100000	1	0.541000
20.116667	1	0.544000
20.133333	1	0.549125
20.150000	1	0.556625
20.166667	1	0.566375
20.183333	1	0.578500
20.200000	1	0.593000
20.216667	1	0.608500
20.233333	1	0.624500
20.250000	1	0.642000
20.266667	1	0.659500
20.283333	1	0.676125
20.300000	1	0.692625
20.316667	1	0.707000
20.333333	1	0.719500
20.350000	1	0.729000
20.366667	1	0.735500
20.383333	1	0.739375
20.400000	1	0.740125
20.416667	1	0.737750
20.433333	1	0.733250
20.450000	1	0.725375
20.466667	1	0.716250
20.483333	1	0.705625
20.500000	1	0.695875
20.516667	1	0.686875
20.533333	1	0.679375
20.550000	1	0.674625
20.566667	1	0.672875
20.583333	1	0.677000
20.600000	1	0.686250
20.616667	1	0.701250
20.633333	1	0.723375
20.650000	1	0.752000
20.666667	1	0.788500
20.683333	1	0.832500
20.700000	1	0.883500
20.716667	1	0.941500
20.733333	1	1.005000
20.750000	1	1.073625
20.766667	1	1.145500
20.783333	1	1.218250
20.800000	1	1.291125
20.816667	1	1.360750
20.833333	1	1.425250
20.850000	1	1.482375
20.866667	1	1.530625
20.883333	1	1.567000
20.900000	1	1.591500
20.916667	1	1.603000
20.933333	1	1.600625
20.950000	1	1.585000
20.966667	1	1.556250
20.983333	1	1.514875
21.000000	1	1.463500
21.016667	1	1.403250
21.033333	1	1.336625
21.050000	1	1.265625
21.066667	1	1.192000
21.083333	1	1.117875
21.100000	1	1.044375
21.116667	1	0.972875
21.133333	1	0.905250
21.150000	1	0.842000
21.166667	1	0.782750
21.183333	1	0.728250
21.200000	1	0.679625
21.216667	1	0.635875
21.233333	1	0.597125
21.250000	1	0.562750
21.266667	1	0.533500
21.283333	1	0.507250
21.300000	1	0.484875
21.316667	1	0.465625
21.333333	1	0.449500
21.350000	1	0.435125
21.366667	1	0.423250
21.383333	1	0.413625
21.400000	1	0.405375
21.416667	1	0.398750
21.433333	1	0.392625
21.450000	1	0.387750
21.466667	1	0.384000
21.483333	1	0.380875
21.500000	1	0.378625
21.516667	1	0.377500
21.533333	1	0.376500
21.550000	1	0.376750
21.566667	1	0.378125
21.583333	1	0.381375
21.600000	1	0.385000
21.616667	1	0.390000
21.633333	1	0.396000
21.650000	1	0.403875
21.666667	1	0.413500
21.683333	1	0.424625
21.700000	1	0.438500
21.716667	1	0.454375
21.733333	1	0.473250
21.750000	1	0.493750
21.766667	1	0.516375
21.783333	1	0.541375
21.800000	1	0.568500
21.816667	1	0.597625
21.833333	1	0.627000
21.850000	1	0.658375
21.866667	1	0.691500
21.883333	1	0.724875
21.900000	1	0.758500
21.916667	1	0.790125
21.933333	1	0.821750
21.950000	1	0.850625
21.966667	1	0.877250
21.983333	1	0.901250
22.000000	1	0.921125
22.016667	1	0.937500
22.033333	1	0.949625
22.050000	1	0.957125
22.066667	1	0.959625
22.083333	1	0.958000
22.100000	1	0.951750
22.116667	1	0.940750
22.133333	1	0.925750
22.150000	1	0.908000
22.166667	1	0.886500
22.183333	1	0.862625
22.200000	1	0.836500
22.216667	1	0.809375
22.233333	1	0.780500
22.250000	1	0.751000
22.266667	1	0.721500
22.283333	1	0.691375
22.300000	1	0.661375
22.316667	1	0.631750
22.333333	1	0.603000
22.350000	1	0.575375
22.366667	1	0.548875
22.383333	1	0.523125
22.400000	1	0.498375
22.416667	1	0.475375
22.433333	1	0.453250
22.450000	1	0.432125
22.466667	1	0.413625
22.483333	1	0.395750
22.500000	1	0.379500
22.516667	1	0.363875
22.533333	1	0.349625
22.550000	1	0.337250
22.566667	1	0.325875
22.583333	1	0.315250
22.600000	1	0.305500
22.616667	1	0.297000
22.633333	1	0.288875
22.650000	1	0.281500
22.666667	1	0.275000
22.683333	1	0.269125
22.700000	1	0.263625
22.716667	1	0.258000
22.733333	1	0.253500
22.750000	1	0.249000
22.766667	1	0.245875
22.783333	1	0.241875
22.800000	1	0.238000
22.816667	1	0.235250
22.833333	1	0.232375
22.850000	1	0.228875
22.866667	1	0.226500
22.883333	1	0.224000
22.900000	1	0.222125
22.916667	1	0.220375
22.933333	1	0.218375
22.950000	1	0.217125
22.966667	1	0.215875
22.983333	1	0.215250
23.000000	1	0.214375
23.016667	1	0.213375
23.033333	1	0.213750
23.050000	1	0.214625
23.066667	1	0.215875
23.083333	1	0.217000
23.100000	1	0.218000
23.116667	1	0.219750
23.133333	1	0.221375
23.150000	1	0.223750
23.166667	1	0.226125
23.183333	1	0.228750
23.200000	1	0.232125
23.216667	1	0.235625
23.233333	1	0.239750
23.250000	1	0.244000
23.266667	1	0.249375
23.283333	1	0.256375
23.300000	1	0.264125
23.316667	1	0.273125
23.333333	1	0.284875
23.350000	1	0.298375
23.366667	1	0.314625
23.383333	1	0.335250
23.400000	1	0.359875
23.416667	1	0.389750
23.433333	1	0.425500
23.450000	1	0.467625
23.466667	1	0.518125
23.483333	1	0.577625
23.500000	1	0.647000
23.516667	1	0.728125
23.533333	1	0.821625
23.550000	1	0.928000
23.566667	1	1.049500
23.583333	1	1.186000
23.600000	1	1.338750
23.616667	1	1.507500
23.633333	1	1.692500
23.650000	1	1.891875
23.666667	1	2.104875
23.683333	1	2.331375
23.700000	1	2.568125
23.716667	1	2.812250
23.733333	1	3.060125
23.750000	1	3.308375
23.766667	1	3.551750
23.783333	1	3.785000
23.800000	1	4.003375
23.816667	1	4.202125
23.833333	1	4.377375
23.850000	1	4.525000
23.866667	1	4.640500
23.883333	1	4.721875
23.900000	1	4.767500
23.916667	1	4.776000
23.933333	1	4.748500
23.950000	1	4.685000
23.966667	1	4.588500
23.983333	1	4.460875
24.000000	1	4.306375
24.016667	1	4.129750
24.033333	1	3.934125
24.050000	1	3.725625
24.066667	1	3.507500
24.083333	1	3.283500
24.100000	1	3.057625
24.116667	1	2.834375
24.133333	1	2.615875
24.150000	1	2.405375
24.166667	1	2.204500
24.183333	1	2.014875
24.200000	1	1.836875
24.216667	1	1.671000
24.233333	1	1.517625
24.250000	1	1.378750
24.266667	1	1.252375
24.283333	1	1.138125
24.300000	1	1.035125
24.316667	1	0.943250
24.333333	1	0.861875
24.350000	1	0.789625
24.366667	1	0.726000
24.383333	1	0.670625
24.400000	1	0.622000
24.416667	1	0.580375
24.433333	1	0.544875
24.450000	1	0.514500
24.466667	1	0.487875
24.483333	1	0.465375
24.500000	1	0.446750
24.516667	1	0.430875
24.533333	1	0.417375
24.550000	1	0.404750
24.566667	1	0.394375
24.583333	1	0.385375
24.600000	1	0.378000
24.616667	1	0.370125
24.633333	1	0.363875
24.650000	1	0.357375
24.666667	1	0.351000
24.683333	1	0.344875
24.700000	1	0.339500
24.716667	1	0.333875
24.733333	1	0.328250
24.750000	1	0.323000
24.766667	1	0.317125
24.783333	1	0.312000
24.800000	1	0.307000
24.816667	1	0.301375
24.833333	1	0.297125
24.850000	1	0.292250
24.866667	1	0.288250
24.883333	1	0.284625
24.900000	1	0.280250
24.916667	1	0.277125
24.933333	1	0.273875
24.950000	1	0.270500
24.966667	1	0.267500
24.983333	1	0.265250
25.000000	1	0.263250
25.016667	1	0.261000
25.033333	1	0.258750
25.050000	1	0.256000
25.066667	1	0.253875
25.083333	1	0.252625
25.100000	1	0.250750
25.116667	1	0.248125
25.133333	1	0.246000
25.150000	1	0.243500
25.166667	1	0.241250
25.183333	1	0.239375
25.200000	1	0.237125
25.216667	1	0.234875
25.233333	1	0.232500
25.250000	1	0.229875
25.266667	1	0.227750
25.283333	1	0.226375
25.300000	1	0.224625
25.316667	1	0.222125
25.333333	1	0.219625
25.350000	1	0.217375
25.366667	1	0.216375
25.383333	1	0.214375
25.400000	1	0.212875
25.416667	1	0.211875
25.433333	1	0.210750
25.450000	1	0.210000
25.466667	1	0.208750
25.483333	1	0.208125
25.500000	1	0.208000
25.516667	1	0.208000
25.533333	1	0.207750
25.550000	1	0.207750
25.566667	1	0.207875
25.583333	1	0.208375
25.600000	1	0.208125
25.616667	1	0.208250
25.633333	1	0.208125
25.650000	1	0.208625
25.666667	1	0.208375
25.683333	1	0.208250
25.700000	1	0.208875
25.716667	1	0.209250
25.733333	1	0.208875
25.750000	1	0.208875
25.766667	1	0.208750
25.783333	1	0.208875
25.800000	1	0.209000
25.816667	1	0.209625
25.833333	1	0.210000
25.850000	1	0.211000
25.866667	1	0.213125
25.883333	1	0.215000
25.900000	1	0.216625
25.916667	1	0.218125
25.933333	1	0.220625
25.950000	1	0.223000
25.966667	1	0.226125
25.983333	1	0.230000
26.000000	1	0.233625
26.016667	1	0.237875
26.033333	1	0.242125
26.050000	1	0.247250
26.066667	1	0.251875
26.083333	1	0.256750
26.100000	1	0.261250
26.116667	1	0.266375
26.133333	1	0.271250
26.150000	1	0.276250
26.166667	1	0.280625
26.183333	1	0.283625
26.200000	1	0.288250
26.216667	1	0.292125
26.233333	1	0.295625
26.250000	1	0.298250
26.266667	1	0.300625
26.283333	1	0.302125
26.300000	1	0.302625
26.316667	1	0.302625
26.333333	1	0.302000
26.350000	1	0.300625
26.366667	1	0.298500
26.383333	1	0.295500
26.400000	1	0.292375
26.416667	1	0.288625
26.433333	1	0.284000
26.450000	1	0.279250
26.466667	1	0.274375
26.483333	1	0.267750
26.500000	1	0.260750
26.516667	1	0.253875
26.533333	1	0.246500
26.550000	1	0.238875
26.566667	1	0.231250
26.583333	1	0.223125
26.600000	1	0.215750
26.616667	1	0.208000
26.633333	1	0.200000
26.650000	1	0.193125
26.666667	1	0.185625
26.683333	1	0.178625
26.700000	1	0.172125
26.716667	1	0.165250
26.733333	1	0.159000
26.750000	1	0.153000
26.766667	1	0.148000
26.783333	1	0.143375
26.800000	1	0.138375
26.816667	1	0.133375
26.833333	1	0.129375
26.850000	1	0.125750
26.866667	1	0.122750
26.883333	1	0.120125
26.900000	1	0.118375
26.916667	1	0.116625
26.933333	1	0.115500
26.950000	1	0.115125
26.966667	1	0.115000
26.983333	1	0.115750
27.000000	1	0.117000
27.016667	1	0.118375
27.033333	1	0.120750
27.050000	1	0.124000
27.066667	1	0.129250
27.083333	1	0.134875
27.100000	1	0.140875
27.116667	1	0.148000
27.133333	1	0.155750
27.150000	1	0.164500
27.166667	1	0.175250
27.183333	1	0.187500
27.200000	1	0.201875
27.216667	1	0.218500
27.233333	1	0.237875
27.250000	1	0.259500
27.266667	1	0.283250
27.283333	1	0.310375
27.300000	1	0.341875
27.316667	1	0.377125
27.333333	1	0.417375
27.350000	1	0.462500
27.366667	1	0.513625
27.383333	1	0.570875
27.400000	1	0.634875
27.416667	1	0.706375
27.433333	1	0.786375
27.450000	1	0.874250
27.466667	1	0.970500
27.483333	1	1.077000
27.500000	1	1.192500
27.516667	1	1.318250
27.533333	1	1.453250
27.550000	1	1.596375
27.566667	1	1.749000
27.583333	1	1.909000
27.600000	1	2.077125
27.616667	1	2.251000
27.633333	1	2.428625
27.650000	1	2.609375
27.666667	1	2.790875
27.683333	1	2.970750
27.700000	1	3.146500
27.716667	1	3.316250
27.733333	1	3.477625
27.750000	1	3.626875
27.766667	1	3.762125
27.783333	1	3.881500
27.800000	1	3.981250
27.816667	1	4.060750
27.833333	1	4.117875
27.850000	1	4.151750
27.866667	1	4.161000
27.883333	1	4.145625
27.900000	1	4.105875
27.916667	1	4.041000
27.933333	1	3.953750
27.950000	1	3.844625
27.966667	1	3.716625
27.983333	1	3.572250
28.000000	1	3.414125
28.016667	1	3.244500
28.033333	1	3.065875
28.050000	1	2.880750
28.066667	1	2.693000
28.083333	1	2.504750
28.100000	1	2.319125
28.116667	1	2.137125
28.133333	1	1.961750
28.150000	1	1.793125
28.166667	1	1.634250
28.183333	1	1.484375
28.200000	1	1.345625
28.216667	1	1.216875
28.233333	1	1.099375
28.250000	1	0.991875
28.266667	1	0.894875
28.283333	1	0.808375
28.300000	1	0.731250
28.316667	1	0.662875
28.333333	1	0.603125
28.350000	1	0.551500
28.366667	1	0.507250
28.383333	1	0.468875
28.400000	1	0.437250
28.416667	1	0.411125
28.433333	1	0.390375
28.450000	1	0.374625
28.466667	1	0.362250
28.483333	1	0.353625
28.500000	1	0.348625
28.516667	1	0.346125
28.533333	1	0.346375
28.550000	1	0.348875
28.566667	1	0.352500
28.583333	1	0.358625
28.600000	1	0.366375
28.616667	1	0.374625
28.633333	1	0.383875
28.650000	1	0.394250
28.666667	1	0.404750
28.683333	1	0.415125
28.700000	1	0.425625
28.716667	1	0.435875
28.733333	1	0.446000
28.750000	1	0.456000
28.766667	1	0.465000
28.783333	1	0.473000
28.800000	1	0.480875
28.816667	1	0.487625
28.833333	1	0.493250
28.850000	1	0.498250
28.866667	1	0.502125
28.883333	1	0.504500
28.900000	1	0.505875
28.916667	1	0.506375
28.933333	1	0.505375
28.950000	1	0.503125
28.966667	1	0.499750
28.983333	1	0.494625
29.000000	1	0.489125
29.016667	1	0.482125
29.033333	1	0.474000
29.050000	1	0.465125
29.066667	1	0.455250
29.083333	1	0.444500
29.100000	1	0.433000
29.116667	1	0.420875
29.133333	1	0.408125
29.150000	1	0.395000
29.166667	1	0.381250
29.183333	1	0.367125
29.200000	1	0.352625
29.216667	1	0.338875
29.233333	1	0.324375
29.250000	1	0.310500
29.266667	1	0.296000
29.283333	1	0.281625
29.300000	1	0.267875
29.316667	1	0.254125
29.333333	1	0.241125
29.350000	1	0.228125
29.366667	1	0.215125
29.383333	1	0.203625
29.400000	1	0.192750
29.416667	1	0.181250
29.433333	1	0.170750
29.450000	1	0.160750
29.466667	1	0.151000
29.483333	1	0.141625
29.500000	1	0.132375
29.516667	1	0.123875
29.533333	1	0.116375
29.550000	1	0.109875
29.566667	1	0.103375
29.583333	1	0.097500
29.600000	1	0.092625
29.616667	1	0.087125
29.633333	1	0.082125
29.650000	1	0.078000
29.666667	1	0.073500
29.683333	1	0.070375
29.700000	1	0.066625
29.716667	1	0.064000
29.733333	1	0.061500
29.750000	1	0.059000
29.766667	1	0.057375
29.783333	1	0.055750
29.800000	1	0.054125
29.816667	1	0.052625
29.833333	1	0.051625
29.850000	1	0.051000
29.866667	1	0.050625
29.883333	1	0.050500
29.900000	1	0.049750
29.916667	1	0.048625
29.933333	1	0.048375
29.950000	1	0.048375
29.966667	1	0.048375
29.983333	1	0.048125
30.000000	1	0.048000
30.016667	1	0.048250
30.033333	1	0.048125
30.050000	1	0.048000
30.066667	1	0.048125
30.083333	1	0.048250
30.100000	1	0.048250
30.116667	1	0.048000
30.133333	1	0.047625
30.150000	1	0.047625
30.166667	1	0.047750
30.183333	1	0.047750
30.200000	1	0.047875
30.216667	1	0.048500
30.233333	1	0.049500
30.250000	1	0.049625
30.266667	1	0.049875
30.283333	1	0.049875
30.300000	1	0.050125
30.316667	1	0.050875
30.333333	1	0.051125
30.350000	1	0.051625
30.366667	1	0.052250
30.383333	1	0.053625
30.400000	1	0.055375
30.416667	1	0.056875
30.433333	1	0.057875
30.450000	1	0.059375
30.466667	1	0.061625
30.483333	1	0.063375
30.500000	1	0.066500
30.516667	1	0.069125
30.533333	1	0.072250
30.550000	1	0.076000
30.566667	1	0.080250
30.583333	1	0.084750
30.600000	1	0.089250
30.616667	1	0.095125
30.633333	1	0.101500
30.650000	1	0.108625
30.666667	1	0.116500
30.683333	1	0.123875
30.700000	1	0.132250
30.716667	1	0.141750
30.733333	1	0.151500
30.750000	1	0.162500
30.766667	1	0.174250
30.783333	1	0.187000
30.800000	1	0.201500
30.816667	1	0.217250
30.833333	1	0.234250
30.850000	1	0.252750
30.866667	1	0.274000
30.883333	1	0.295750
30.900000	1	0.321125
30.916667	1	0.348125
30.933333	1	0.377750
30.950000	1	0.410875
30.966667	1	0.447125
30.983333	1	0.487125
31.000000	1	0.531625
31.016667	1	0.580625
31.033333	1	0.634750
31.050000	1	0.694750
31.066667	1	0.760125
31.083333	1	0.831875
31.100000	1	0.910375
31.116667	1	0.995250
31.133333	1	1.087500
31.150000	1	1.186500
31.166667	1	1.292000
31.183333	1	1.405000
31.200000	1	1.525750
31.216667	1	1.653125
31.233333	1	1.786625
31.250000	1	1.925375
31.266667	1	2.068250
31.283333	1	2.214750
31.300000	1	2.364250
31.316667	1	2.514000
31.333333	1	2.663000
31.350000	1	2.810625
31.366667	1	2.954500
31.383333	1	3.092375
31.400000	1	3.223625
31.416667	1	3.347000
31.433333	1	3.458875
31.450000	1	3.559375
31.466667	1	3.646375
31.483333	1	3.719125
31.500000	1	3.775625
31.516667	1	3.816250
31.533333	1	3.840125
31.550000	1	3.846500
31.566667	1	3.836250
31.583333	1	3.809250
31.600000	1	3.765000
31.616667	1	3.704750
31.633333	1	3.630375
31.650000	1	3.541000
31.666667	1	3.439875
31.683333	1	3.328375
31.700000	1	3.207375
31.716667	1	3.078625
31.733333	1	2.944000
31.750000	1	2.805000
31.766667	1	2.662500
31.783333	1	2.519000
31.800000	1	2.374625
31.816667	1	2.232625
31.833333	1	2.091750
31.850000	1	1.954000
31.866667	1	1.820750
31.883333	1	1.692875
31.900000	1	1.570750
31.916667	1	1.455250
31.933333	1	1.345750
31.950000	1	1.243000
31.966667	1	1.146500
31.983333	1	1.056125
32.000000	1	0.971875
32.016667	1	0.894125
32.033333	1	0.823125
32.050000	1	0.757375
32.066667	1	0.697625
32.083333	1	0.642750
32.100000	1	0.592375
32.116667	1	0.546625
32.133333	1	0.505500
32.150000	1	0.467125
32.166667	1	0.432500
32.183333	1	0.400250
32.200000	1	0.370500
32.216667	1	0.343500
32.233333	1	0.318125
32.250000	1	0.295500
32.266667	1	0.273375
32.283333	1	0.253625
32.300000	1	0.235000
32.316667	1	0.217125
32.333333	1	0.200625
32.350000	1	0.184875
32.366667	1	0.170250
32.383333	1	0.156125
32.400000	1	0.142375
32.416667	1	0.128875
32.433333	1	0.116875
32.450000	1	0.105000
32.466667	1	0.094500
32.483333	1	0.083875
32.500000	1	0.073875
32.516667	1	0.064750
32.533333	1	0.055875
32.550000	1	0.048125
32.566667	1	0.040250
32.583333	1	0.033250
32.600000	1	0.026250
32.616667	1	0.020125
32.633333	1	0.014625
32.650000	1	0.009000
32.666667	1	0.004125
32.683333	1	-0.000625
32.700000	1	-0.005000
32.716667	1	-0.008625
32.733333	1	-0.011875
32.750000	1	-0.014750
32.766667	1	-0.018375
32.783333	1	-0.020625
32.800000	1	-0.023125
32.816667	1	-0.024875
32.833333	1	-0.026750
32.850000	1	-0.028500
32.866667	1	-0.030375
32.883333	1	-0.031625
32.900000	1	-0.032500
32.916667	1	-0.032625
32.933333	1	-0.032875
32.950000	1	-0.033250
32.966667	1	-0.032750
32.983333	1	-0.032750
33.000000	1	-0.033000
33.016667	1	-0.032625
33.033333	1	-0.031625
33.050000	1	-0.030750
33.066667	1	-0.029125
33.083333	1	-0.027625
33.100000	1	-0.026000
33.116667	1	-0.024375
33.133333	1	-0.021875
33.150000	1	-0.019125
33.166667	1	-0.016375
33.183333	1	-0.012875
33.200000	1	-0.009625
33.216667	1	-0.006375
33.233333	1	-0.003375
33.250000	1	-0.000500
33.266667	1	0.004125
33.283333	1	0.009000
33.300000	1	0.013875
33.316667	1	0.019500
33.333333	1	0.025375
33.350000	1	0.032000
33.366667	1	0.038750
33.383333	1	0.046000
33.400000	1	0.054000
33.416667	1	0.063375
33.433333	1	0.073750
33.450000	1	0.083875
33.466667	1	0.094750
33.483333	1	0.107375
33.500000	1	0.119875
33.516667	1	0.134375
33.533333	1	0.150375
33.550000	1	0.167125
33.566667	1	0.185125
33.583333	1	0.204375
33.600000	1	0.225875
33.616667	1	0.248125
33.633333	1	0.271375
33.650000	1	0.296375
33.666667	1	0.322250
33.683333	1	0.350125
33.700000	1	0.378875
33.716667	1	0.409000
33.733333	1	0.440250
33.750000	1	0.472625
33.766667	1	0.506000
33.783333	1	0.539125
33.800000	1	0.573125
33.816667	1	0.606875
33.833333	1	0.640250
33.850000	1	0.673500
33.866667	1	0.706500
33.883333	1	0.738125
33.900000	1	0.768500
33.916667	1	0.796750
33.933333	1	0.823625
33.950000	1	0.848250
33.966667	1	0.870625
33.983333	1	0.890125
34.000000	1	0.906500
34.016667	1	0.919500
34.033333	1	0.929125
34.050000	1	0.935875
34.066667	1	0.939000
34.083333	1	0.938500
34.100000	1	0.935000
34.116667	1	0.927875
34.133333	1	0.917875
34.150000	1	0.904875
34.166667	1	0.889250
34.183333	1	0.870375
34.200000	1	0.849375
34.216667	1	0.825875
34.233333	1	0.800625
34.250000	1	0.774250
34.266667	1	0.746250
34.283333	1	0.717375
34.300000	1	0.687250
34.316667	1	0.657750
34.333333	1	0.627750
34.350000	1	0.597750
34.366667	1	0.568500
34.383333	1	0.538875
34.400000	1	0.510625
34.416667	1	0.483125
34.433333	1	0.456250
34.450000	1	0.430250
34.466667	1	0.405750
34.483333	1	0.382375
34.500000	1	0.360500
34.516667	1	0.340125
34.533333	1	0.320500
34.550000	1	0.302625
34.566667	1	0.284875
34.583333	1	0.268125
34.600000	1	0.252750
34.616667	1	0.239500
34.633333	1	0.226625
34.650000	1	0.214500
34.666667	1	0.203250
34.683333	1	0.193125
34.700000	1	0.183375
34.716667	1	0.174000
34.733333	1	0.165750
34.750000	1	0.158000
34.766667	1	0.150500
34.783333	1	0.143375
34.800000	1	0.136750
34.816667	1	0.131125
34.833333	1	0.125375
34.850000	1	0.120250
34.866667	1	0.115125
34.883333	1	0.109875
34.900000	1	0.105625
34.916667	1	0.102000
34.933333	1	0.098000
34.950000	1	0.094250
34.966667	1	0.091500
34.983333	1	0.088250
35.000000	1	0.085500
35.016667	1	0.082875
35.033333	1	0.080375
35.050000	1	0.077250
35.066667	1	0.075250
35.083333	1	0.073375
35.100000	1	0.071125
35.116667	1	0.069625
35.133333	1	0.068125
35.150000	1	0.067375
35.166667	1	0.066500
35.183333	1	0.065250
35.200000	1	0.064625
35.216667	1	0.063875
35.233333	1	0.063000
35.250000	1	0.062875
35.266667	1	0.062375
35.283333	1	0.061750
35.300000	1	0.061750
35.316667	1	0.061875
35.333333	1	0.062000
35.350000	1	0.062125
35.366667	1	0.062750
35.383333	1	0.063750
35.400000	1	0.064625
35.416667	1	0.065250
35.433333	1	0.065500
35.450000	1	0.066625
35.466667	1	0.066750
35.483333	1	0.067375
35.500000	1	0.068125
35.516667	1	0.069125
35.533333	1	0.069875
35.550000	1	0.071000
35.566667	1	0.072000
35.583333	1	0.072000
35.600000	1	0.072875
35.616667	1	0.073250
35.633333	1	0.074750
35.650000	1	0.075000
35.666667	1	0.075875
35.683333	1	0.075500
35.700000	1	0.076125
35.716667	1	0.076625
35.733333	1	0.076875
35.750000	1	0.077625
35.766667	1	0.077750
35.783333	1	0.078375
35.800000	1	0.078875
35.816667	1	0.079500
35.833333	1	0.079500
35.850000	1	0.079000
35.866667	1	0.079000
35.883333	1	0.079500
35.900000	1	0.079625
35.916667	1	0.080750
35.933333	1	0.080250
35.950000	1	0.080875
35.966667	1	0.080750
35.983333	1	0.081875
36.000000	1	0.081500
36.016667	1	0.081625
36.033333	1	0.081750
36.050000	1	0.082000
36.066667	1	0.082375
36.083333	1	0.082875
36.100000	1	0.084000
36.116667	1	0.085000
36.133333	1	0.085375
36.150000	1	0.085750
36.166667	1	0.086750
36.183333	1	0.087125
36.200000	1	0.088250
36.216667	1	0.089750
36.233333	1	0.091125
36.250000	1	0.091625
36.266667	1	0.091625
36.283333	1	0.092000
36.300000	1	0.092375
36.316667	1	0.092875
36.333333	1	0.092750
36.350000	1	0.093625
36.366667	1	0.094500
36.383333	1	0.094125
36.400000	1	0.094375
36.416667	1	0.094125
36.433333	1	0.094375
36.450000	1	0.093875
36.466667	1	0.093125
36.483333	1	0.092125
36.500000	1	0.091250
36.516667	1	0.089875
36.533333	1	0.088125
36.550000	1	0.086750
36.566667	1	0.085250
36.583333	1	0.083000
36.600000	1	0.080875
36.616667	1	0.078500
36.633333	1	0.075750
36.650000	1	0.073750
36.666667	1	0.071250
36.683333	1	0.068250
36.700000	1	0.065375
36.716667	1	0.062750
36.733333	1	0.060000
36.750000	1	0.056125
36.766667	1	0.053125
36.783333	1	0.050625
36.800000	1	0.047500
36.816667	1	0.044500
36.833333	1	0.041875
36.850000	1	0.039125
36.866667	1	0.036625
36.883333	1	0.034750
36.900000	1	0.032500
36.916667	1	0.030250
36.933333	1	0.028750
36.950000	1	0.026875
36.966667	1	0.025000
36.983333	1	0.023000
37.000000	1	0.022250
37.016667	1	0.021000
37.033333	1	0.020000
37.050000	1	0.019375
37.066667	1	0.018500
37.083333	1	0.018000
37.100000	1	0.017250
37.116667	1	0.017125
37.133333	1	0.017125
37.150000	1	0.017250
37.166667	1	0.017375
37.183333	1	0.017375
37.200000	1	0.017250
37.216667	1	0.017250
37.233333	1	0.017375
37.250000	1	0.018125
37.266667	1	0.018875
37.283333	1	0.019375
37.300000	1	0.019625
37.316667	1	0.019750
37.333333	1	0.020625
37.350000	1	0.021000
37.366667	1	0.020375
37.383333	1	0.020875
37.400000	1	0.021250
37.416667	1	0.021875
37.433333	1	0.022125
37.450000	1	0.022750
37.466667	1	0.024250
37.483333	1	0.025000
37.500000	1	0.024875
37.516667	1	0.025625
37.533333	1	0.026000
37.550000	1	0.026625
37.566667	1	0.026875
37.583333	1	0.027750
37.600000	1	0.027375
37.616667	1	0.027625
37.633333	1	0.027875
37.650000	1	0.028625
37.666667	1	0.029250
37.683333	1	0.029500
37.700000	1	0.030625
37.716667	1	0.032250
37.733333	1	0.032625
37.750000	1	0.033375
37.766667	1	0.034000
37.783333	1	0.034750
37.800000	1	0.034750
37.816667	1	0.034500
37.833333	1	0.035250
37.850000	1	0.036125
37.866667	1	0.037125
37.883333	1	0.037875
37.900000	1	0.038250
37.916667	1	0.038000
37.933333	1	0.038000
37.950000	1	0.038375
37.966667	1	0.039125
37.983333	1	0.039375
38.000000	1	0.040250
38.016667	1	0.040000
38.033333	1	0.040375
38.050000	1	0.040875
38.066667	1	0.041750
38.083333	1	0.042500
38.100000	1	0.042500
38.116667	1	0.043250
38.133333	1	0.043250
38.150000	1	0.043250
38.166667	1	0.044375
38.183333	1	0.044875
38.200000	1	0.044875
38.216667	1	0.045625
38.233333	1	0.047000
38.250000	1	0.047875
38.266667	1	0.048000
38.283333	1	0.048750
38.300000	1	0.049500
38.316667	1	0.050500
38.333333	1	0.051250
38.350000	1	0.052500
38.366667	1	0.053750
38.383333	1	0.054125
38.400000	1	0.054625
38.416667	1	0.055250
38.433333	1	0.055750
38.450000	1	0.056375
38.466667	1	0.057250
38.483333	1	0.058500
38.500000	1	0.058875
38.516667	1	0.059250
38.533333	1	0.059500
38.550000	1	0.059250
38.566667	1	0.059250
38.583333	1	0.059625
38.600000	1	0.058500
38.616667	1	0.058125
38.633333	1	0.057750
38.650000	1	0.057375
38.666667	1	0.056750
38.683333	1	0.057250
38.700000	1	0.057000
38.716667	1	0.056750
38.733333	1	0.056000
38.750000	1	0.055500
38.766667	1	0.054625
38.783333	1	0.053625
38.800000	1	0.052625
38.816667	1	0.052000
38.833333	1	0.051125
38.850000	1	0.049875
38.866667	1	0.048125
38.883333	1	0.047250
38.900000	1	0.046750
38.916667	1	0.046000
38.933333	1	0.044375
38.950000	1	0.042750
38.966667	1	0.041500
38.983333	1	0.040250
39.000000	1	0.039125
39.016667	1	0.038250
39.033333	1	0.037625
39.050000	1	0.036375
39.066667	1	0.035125
39.083333	1	0.034375
39.100000	1	0.033000
39.116667	1	0.031875
39.133333	1	0.031625
39.150000	1	0.031250
39.166667	1	0.030500
39.183333	1	0.030000
39.200000	1	0.028875
39.216667	1	0.028125
39.233333	1	0.027375
39.250000	1	0.026500
39.266667	1	0.025750
39.283333	1	0.025125
39.300000	1	0.025500
39.316667	1	0.024875
39.333333	1	0.024000
39.350000	1	0.024250
39.366667	1	0.024000
39.383333	1	0.023875
39.400000	1	0.023500
39.416667	1	0.023375
39.433333	1	0.023625
39.450000	1	0.023875
39.466667	1	0.023375
39.483333	1	0.024000
39.500000	1	0.024375
39.516667	1	0.024250
39.533333	1	0.024000
39.550000	1	0.024500
39.566667	1	0.024250
39.583333	1	0.024625
39.600000	1	0.025500
39.616667	1	0.025500
39.633333	1	0.025500
39.650000	1	0.025625
39.666667	1	0.026625
39.683333	1	0.026875
39.700000	1	0.027750
39.716667	1	0.028500
39.733333	1	0.029000
39.750000	1	0.029375
39.766667	1	0.030750
39.783333	1	0.031250
39.800000	1	0.031375
39.816667	1	0.031500
39.833333	1	0.032000
39.850000	1	0.033375
39.866667	1	0.034000
39.883333	1	0.035125
39.900000	1	0.036125
39.916667	1	0.036000
39.933333	1	0.037000
39.950000	1	0.037250
39.966667	1	0.037625
39.983333	1	0.038375
40.000000	1	0.038875
