URL	chrom://bioreactor/micro_cm7/HPLC_Ultimate_3000/Users/markusar/20240708_MA_pHrange1.seq/620.smp/RI_1.channel/RI_1.chm
Channel	RI_1

Injection Information:
Data Vault	micro_cm7
Sequence	20240708_MA_pHrange1
Name	Fp2_6.5_3
Number	53
Position	BE7
Comment	
Processing Method	
Instrument Method	run_25B_method
Type	Unknown
Status	Finished
Inject Time	10.07.2024 03:05:04 +02:00
Volume (µl)	20.0000
Dilution Factor	1.0000
Weight	1.0000

Chromatogram Data Information:
Time Min. (min)	0.000000
Time Max. (min)	40.000000
Data Points	2401
Detector	RI
Generating Data System	Chromeleon 7.3.2.11814
Exporting Data System	Chromeleon 7.3.2.0
Operator	Instrument Controller
Signal Quantity	Refractive 
Signal Unit	µRIU
Signal Min.	-0.002875
Signal Max.	81.374875
Channel	RI_1
Driver Name	RID520Driver.dll
Channel Type	Evaluation
Min. Step (s)	1
Max. Step (s)	1
Average Step (s)	1

Signal Parameter Information:
Signal Info	

Chromatogram Data:
Time (min)	Step (s)	Value (µRIU)
0.000000	n.a.	0.049875
0.016667	1	0.049750
0.033333	1	0.050250
0.050000	1	0.050125
0.066667	1	0.050125
0.083333	1	0.050625
0.100000	1	0.050125
0.116667	1	0.050250
0.133333	1	0.049750
0.150000	1	0.049500
0.166667	1	0.049000
0.183333	1	0.048875
0.200000	1	0.048500
0.216667	1	0.047750
0.233333	1	0.047250
0.250000	1	0.047125
0.266667	1	0.046625
0.283333	1	0.046375
0.300000	1	0.046375
0.316667	1	0.046750
0.333333	1	0.046375
0.350000	1	0.045500
0.366667	1	0.044000
0.383333	1	0.042000
0.400000	1	0.041250
0.416667	1	0.041250
0.433333	1	0.042000
0.450000	1	0.043625
0.466667	1	0.044625
0.483333	1	0.046500
0.500000	1	0.047000
0.516667	1	0.046250
0.533333	1	0.046125
0.550000	1	0.045750
0.566667	1	0.045000
0.583333	1	0.043125
0.600000	1	0.040875
0.616667	1	0.038375
0.633333	1	0.035500
0.650000	1	0.034125
0.666667	1	0.032500
0.683333	1	0.031500
0.700000	1	0.030625
0.716667	1	0.030250
0.733333	1	0.029000
0.750000	1	0.028375
0.766667	1	0.027250
0.783333	1	0.026500
0.800000	1	0.025500
0.816667	1	0.025375
0.833333	1	0.024625
0.850000	1	0.024250
0.866667	1	0.024125
0.883333	1	0.023625
0.900000	1	0.023750
0.916667	1	0.023000
0.933333	1	0.023250
0.950000	1	0.023375
0.966667	1	0.023000
0.983333	1	0.023500
1.000000	1	0.023250
1.016667	1	0.023125
1.033333	1	0.023000
1.050000	1	0.023250
1.066667	1	0.023125
1.083333	1	0.023875
1.100000	1	0.024250
1.116667	1	0.024875
1.133333	1	0.025250
1.150000	1	0.025250
1.166667	1	0.025375
1.183333	1	0.026125
1.200000	1	0.027375
1.216667	1	0.027625
1.233333	1	0.028500
1.250000	1	0.029000
1.266667	1	0.029250
1.283333	1	0.029250
1.300000	1	0.029625
1.316667	1	0.030000
1.333333	1	0.030500
1.350000	1	0.030500
1.366667	1	0.030875
1.383333	1	0.030625
1.400000	1	0.030375
1.416667	1	0.030625
1.433333	1	0.030625
1.450000	1	0.030875
1.466667	1	0.031000
1.483333	1	0.031000
1.500000	1	0.029875
1.516667	1	0.029250
1.533333	1	0.028750
1.550000	1	0.028250
1.566667	1	0.027375
1.583333	1	0.026750
1.600000	1	0.026375
1.616667	1	0.025875
1.633333	1	0.025125
1.650000	1	0.024750
1.666667	1	0.024500
1.683333	1	0.023875
1.700000	1	0.023000
1.716667	1	0.022000
1.733333	1	0.021250
1.750000	1	0.020250
1.766667	1	0.019375
1.783333	1	0.019750
1.800000	1	0.019500
1.816667	1	0.019000
1.833333	1	0.017250
1.850000	1	0.017125
1.866667	1	0.016500
1.883333	1	0.016125
1.900000	1	0.015125
1.916667	1	0.013875
1.933333	1	0.012750
1.950000	1	0.012125
1.966667	1	0.010875
1.983333	1	0.010125
2.000000	1	0.009000
2.016667	1	0.008375
2.033333	1	0.007500
2.050000	1	0.006375
2.066667	1	0.005875
2.083333	1	0.004625
2.100000	1	0.003875
2.116667	1	0.002250
2.133333	1	0.001375
2.150000	1	0.000250
2.166667	1	0.000000
2.183333	1	-0.001000
2.200000	1	-0.001250
2.216667	1	-0.002000
2.233333	1	-0.001625
2.250000	1	-0.002500
2.266667	1	-0.002625
2.283333	1	-0.002875
2.300000	1	-0.002500
2.316667	1	-0.002500
2.333333	1	-0.002375
2.350000	1	-0.001625
2.366667	1	-0.000625
2.383333	1	0.000000
2.400000	1	0.001500
2.416667	1	0.002250
2.433333	1	0.003875
2.450000	1	0.005250
2.466667	1	0.006250
2.483333	1	0.007500
2.500000	1	0.008750
2.516667	1	0.010125
2.533333	1	0.011500
2.550000	1	0.013375
2.566667	1	0.014500
2.583333	1	0.016750
2.600000	1	0.017750
2.616667	1	0.019500
2.633333	1	0.021250
2.650000	1	0.022250
2.666667	1	0.023875
2.683333	1	0.025625
2.700000	1	0.027000
2.716667	1	0.027625
2.733333	1	0.029125
2.750000	1	0.030500
2.766667	1	0.031625
2.783333	1	0.032000
2.800000	1	0.032625
2.816667	1	0.033375
2.833333	1	0.034375
2.850000	1	0.034875
2.866667	1	0.035625
2.883333	1	0.036375
2.900000	1	0.036500
2.916667	1	0.036750
2.933333	1	0.037125
2.950000	1	0.037625
2.966667	1	0.038125
2.983333	1	0.039500
3.000000	1	0.040625
3.016667	1	0.041000
3.033333	1	0.041125
3.050000	1	0.041875
3.066667	1	0.043250
3.083333	1	0.044125
3.100000	1	0.045125
3.116667	1	0.046500
3.133333	1	0.048250
3.150000	1	0.049250
3.166667	1	0.049875
3.183333	1	0.051500
3.200000	1	0.052250
3.216667	1	0.053375
3.233333	1	0.054625
3.250000	1	0.055750
3.266667	1	0.057000
3.283333	1	0.058250
3.300000	1	0.059625
3.316667	1	0.060875
3.333333	1	0.061750
3.350000	1	0.062750
3.366667	1	0.063500
3.383333	1	0.064125
3.400000	1	0.064250
3.416667	1	0.065500
3.433333	1	0.066500
3.450000	1	0.067125
3.466667	1	0.067750
3.483333	1	0.068500
3.500000	1	0.069375
3.516667	1	0.069875
3.533333	1	0.070625
3.550000	1	0.071250
3.566667	1	0.071875
3.583333	1	0.073125
3.600000	1	0.073625
3.616667	1	0.074125
3.633333	1	0.074500
3.650000	1	0.074750
3.666667	1	0.075750
3.683333	1	0.075875
3.700000	1	0.076750
3.716667	1	0.077125
3.733333	1	0.077125
3.750000	1	0.076375
3.766667	1	0.076250
3.783333	1	0.076875
3.800000	1	0.077500
3.816667	1	0.077500
3.833333	1	0.077875
3.850000	1	0.078250
3.866667	1	0.078500
3.883333	1	0.078000
3.900000	1	0.078625
3.916667	1	0.078625
3.933333	1	0.077750
3.950000	1	0.077875
3.966667	1	0.078875
3.983333	1	0.078500
4.000000	1	0.079125
4.016667	1	0.079250
4.033333	1	0.079250
4.050000	1	0.079250
4.066667	1	0.079250
4.083333	1	0.078875
4.100000	1	0.079000
4.116667	1	0.079125
4.133333	1	0.079375
4.150000	1	0.079500
4.166667	1	0.079625
4.183333	1	0.079625
4.200000	1	0.079500
4.216667	1	0.079875
4.233333	1	0.079500
4.250000	1	0.079625
4.266667	1	0.079750
4.283333	1	0.079125
4.300000	1	0.078875
4.316667	1	0.078625
4.333333	1	0.078625
4.350000	1	0.079125
4.366667	1	0.079375
4.383333	1	0.079000
4.400000	1	0.079125
4.416667	1	0.078625
4.433333	1	0.078750
4.450000	1	0.078750
4.466667	1	0.079625
4.483333	1	0.079750
4.500000	1	0.079125
4.516667	1	0.079500
4.533333	1	0.080250
4.550000	1	0.081250
4.566667	1	0.082125
4.583333	1	0.082500
4.600000	1	0.084125
4.616667	1	0.085625
4.633333	1	0.087625
4.650000	1	0.089625
4.666667	1	0.091500
4.683333	1	0.093375
4.700000	1	0.096250
4.716667	1	0.098375
4.733333	1	0.100500
4.750000	1	0.103625
4.766667	1	0.106750
4.783333	1	0.110625
4.800000	1	0.113750
4.816667	1	0.117375
4.833333	1	0.121625
4.850000	1	0.125750
4.866667	1	0.130125
4.883333	1	0.134000
4.900000	1	0.138000
4.916667	1	0.142250
4.933333	1	0.147125
4.950000	1	0.151625
4.966667	1	0.156375
4.983333	1	0.160875
5.000000	1	0.166000
5.016667	1	0.171000
5.033333	1	0.176000
5.050000	1	0.180875
5.066667	1	0.185875
5.083333	1	0.190500
5.100000	1	0.194750
5.116667	1	0.199250
5.133333	1	0.203875
5.150000	1	0.208375
5.166667	1	0.213250
5.183333	1	0.217375
5.200000	1	0.221750
5.216667	1	0.226500
5.233333	1	0.231000
5.250000	1	0.234375
5.266667	1	0.237750
5.283333	1	0.241750
5.300000	1	0.245125
5.316667	1	0.247250
5.333333	1	0.249750
5.350000	1	0.252375
5.366667	1	0.254875
5.383333	1	0.256625
5.400000	1	0.258000
5.416667	1	0.259250
5.433333	1	0.260125
5.450000	1	0.260500
5.466667	1	0.261000
5.483333	1	0.261000
5.500000	1	0.260250
5.516667	1	0.259750
5.533333	1	0.259125
5.550000	1	0.258125
5.566667	1	0.256625
5.583333	1	0.255375
5.600000	1	0.254000
5.616667	1	0.252250
5.633333	1	0.250875
5.650000	1	0.247875
5.666667	1	0.245125
5.683333	1	0.241875
5.700000	1	0.239000
5.716667	1	0.236125
5.733333	1	0.232750
5.750000	1	0.229125
5.766667	1	0.225625
5.783333	1	0.221250
5.800000	1	0.217875
5.816667	1	0.213875
5.833333	1	0.210750
5.850000	1	0.206875
5.866667	1	0.203500
5.883333	1	0.199500
5.900000	1	0.195625
5.916667	1	0.191625
5.933333	1	0.188625
5.950000	1	0.184625
5.966667	1	0.181000
5.983333	1	0.177250
6.000000	1	0.174000
6.016667	1	0.170750
6.033333	1	0.167250
6.050000	1	0.163750
6.066667	1	0.160000
6.083333	1	0.156250
6.100000	1	0.153125
6.116667	1	0.149750
6.133333	1	0.146250
6.150000	1	0.143750
6.166667	1	0.140875
6.183333	1	0.137625
6.200000	1	0.134875
6.216667	1	0.132375
6.233333	1	0.129125
6.250000	1	0.125500
6.266667	1	0.122125
6.283333	1	0.118750
6.300000	1	0.116000
6.316667	1	0.113000
6.333333	1	0.109750
6.350000	1	0.106375
6.366667	1	0.103875
6.383333	1	0.101875
6.400000	1	0.098750
6.416667	1	0.096125
6.433333	1	0.091625
6.450000	1	0.088375
6.466667	1	0.085875
6.483333	1	0.084250
6.500000	1	0.082000
6.516667	1	0.080125
6.533333	1	0.078250
6.550000	1	0.076500
6.566667	1	0.074875
6.583333	1	0.073250
6.600000	1	0.072125
6.616667	1	0.071375
6.633333	1	0.070125
6.650000	1	0.069500
6.666667	1	0.068500
6.683333	1	0.068500
6.700000	1	0.068125
6.716667	1	0.067625
6.733333	1	0.067500
6.750000	1	0.068250
6.766667	1	0.069250
6.783333	1	0.070375
6.800000	1	0.071625
6.816667	1	0.073000
6.833333	1	0.074250
6.850000	1	0.075625
6.866667	1	0.077250
6.883333	1	0.080000
6.900000	1	0.082500
6.916667	1	0.084750
6.933333	1	0.087375
6.950000	1	0.090250
6.966667	1	0.092500
6.983333	1	0.095000
7.000000	1	0.098000
7.016667	1	0.101125
7.033333	1	0.104125
7.050000	1	0.107250
7.066667	1	0.110000
7.083333	1	0.114000
7.100000	1	0.117125
7.116667	1	0.119375
7.133333	1	0.122000
7.150000	1	0.125500
7.166667	1	0.129125
7.183333	1	0.132625
7.200000	1	0.135875
7.216667	1	0.138875
7.233333	1	0.141500
7.250000	1	0.145000
7.266667	1	0.148375
7.283333	1	0.151250
7.300000	1	0.153500
7.316667	1	0.155500
7.333333	1	0.157500
7.350000	1	0.159000
7.366667	1	0.160875
7.383333	1	0.162750
7.400000	1	0.163875
7.416667	1	0.164875
7.433333	1	0.165625
7.450000	1	0.166000
7.466667	1	0.165125
7.483333	1	0.164625
7.500000	1	0.164000
7.516667	1	0.162625
7.533333	1	0.161000
7.550000	1	0.159375
7.566667	1	0.157500
7.583333	1	0.155375
7.600000	1	0.152625
7.616667	1	0.149750
7.633333	1	0.146625
7.650000	1	0.142875
7.666667	1	0.138750
7.683333	1	0.134375
7.700000	1	0.130375
7.716667	1	0.125750
7.733333	1	0.121000
7.750000	1	0.116375
7.766667	1	0.111125
7.783333	1	0.105500
7.800000	1	0.100625
7.816667	1	0.095875
7.833333	1	0.090500
7.850000	1	0.085000
7.866667	1	0.080000
7.883333	1	0.074625
7.900000	1	0.069875
7.916667	1	0.065250
7.933333	1	0.060875
7.950000	1	0.056375
7.966667	1	0.052500
7.983333	1	0.048250
8.000000	1	0.044750
8.016667	1	0.041000
8.033333	1	0.037750
8.050000	1	0.034375
8.066667	1	0.031750
8.083333	1	0.029000
8.100000	1	0.026375
8.116667	1	0.024500
8.133333	1	0.022375
8.150000	1	0.020750
8.166667	1	0.019375
8.183333	1	0.018000
8.200000	1	0.016500
8.216667	1	0.015625
8.233333	1	0.014500
8.250000	1	0.013625
8.266667	1	0.012375
8.283333	1	0.011625
8.300000	1	0.010375
8.316667	1	0.009625
8.333333	1	0.009750
8.350000	1	0.010000
8.366667	1	0.010250
8.383333	1	0.010375
8.400000	1	0.010250
8.416667	1	0.009750
8.433333	1	0.010000
8.450000	1	0.010125
8.466667	1	0.010500
8.483333	1	0.011625
8.500000	1	0.011625
8.516667	1	0.012375
8.533333	1	0.013250
8.550000	1	0.013750
8.566667	1	0.014375
8.583333	1	0.015125
8.600000	1	0.015375
8.616667	1	0.016875
8.633333	1	0.017875
8.650000	1	0.019125
8.666667	1	0.020250
8.683333	1	0.021500
8.700000	1	0.022875
8.716667	1	0.023875
8.733333	1	0.025625
8.750000	1	0.027125
8.766667	1	0.028375
8.783333	1	0.029875
8.800000	1	0.031000
8.816667	1	0.032375
8.833333	1	0.033750
8.850000	1	0.035500
8.866667	1	0.036250
8.883333	1	0.038000
8.900000	1	0.039750
8.916667	1	0.040875
8.933333	1	0.042250
8.950000	1	0.043250
8.966667	1	0.044125
8.983333	1	0.045125
9.000000	1	0.045875
9.016667	1	0.046500
9.033333	1	0.046750
9.050000	1	0.047250
9.066667	1	0.047500
9.083333	1	0.048125
9.100000	1	0.049000
9.116667	1	0.049500
9.133333	1	0.049500
9.150000	1	0.050250
9.166667	1	0.050125
9.183333	1	0.049750
9.200000	1	0.049750
9.216667	1	0.050000
9.233333	1	0.050125
9.250000	1	0.050000
9.266667	1	0.049750
9.283333	1	0.049000
9.300000	1	0.049250
9.316667	1	0.049000
9.333333	1	0.049000
9.350000	1	0.048500
9.366667	1	0.048500
9.383333	1	0.048875
9.400000	1	0.048375
9.416667	1	0.047625
9.433333	1	0.047750
9.450000	1	0.047375
9.466667	1	0.046750
9.483333	1	0.045500
9.500000	1	0.046250
9.516667	1	0.046375
9.533333	1	0.047000
9.550000	1	0.047000
9.566667	1	0.047125
9.583333	1	0.047375
9.600000	1	0.046750
9.616667	1	0.046750
9.633333	1	0.046250
9.650000	1	0.046625
9.666667	1	0.047000
9.683333	1	0.047125
9.700000	1	0.048000
9.716667	1	0.047750
9.733333	1	0.048500
9.750000	1	0.048875
9.766667	1	0.048875
9.783333	1	0.049000
9.800000	1	0.048500
9.816667	1	0.048000
9.833333	1	0.047625
9.850000	1	0.047500
9.866667	1	0.046875
9.883333	1	0.046625
9.900000	1	0.045250
9.916667	1	0.045375
9.933333	1	0.044750
9.950000	1	0.044000
9.966667	1	0.043875
9.983333	1	0.043000
10.000000	1	0.042000
10.016667	1	0.041000
10.033333	1	0.040000
10.050000	1	0.039250
10.066667	1	0.038375
10.083333	1	0.037750
10.100000	1	0.038000
10.116667	1	0.038375
10.133333	1	0.040125
10.150000	1	0.042625
10.166667	1	0.045375
10.183333	1	0.050125
10.200000	1	0.055500
10.216667	1	0.062125
10.233333	1	0.070375
10.250000	1	0.080625
10.266667	1	0.093375
10.283333	1	0.108625
10.300000	1	0.126000
10.316667	1	0.145875
10.333333	1	0.169000
10.350000	1	0.193125
10.366667	1	0.218625
10.383333	1	0.244375
10.400000	1	0.268000
10.416667	1	0.285875
10.433333	1	0.296000
10.450000	1	0.297750
10.466667	1	0.292125
10.483333	1	0.284250
10.500000	1	0.284375
10.516667	1	0.312375
10.533333	1	0.394375
10.550000	1	0.569750
10.566667	1	0.886250
10.583333	1	1.400875
10.600000	1	2.173625
10.616667	1	3.263000
10.633333	1	4.717000
10.650000	1	6.569625
10.666667	1	8.846625
10.683333	1	11.554375
10.700000	1	14.686500
10.716667	1	18.215750
10.733333	1	22.098500
10.750000	1	26.264375
10.766667	1	30.609500
10.783333	1	34.994125
10.800000	1	39.228250
10.816667	1	43.054750
10.833333	1	46.156000
10.850000	1	48.188625
10.866667	1	48.847375
10.883333	1	47.946000
10.900000	1	45.497875
10.916667	1	41.742125
10.933333	1	37.091125
10.950000	1	32.026375
10.966667	1	26.986750
10.983333	1	22.293625
11.000000	1	18.138250
11.016667	1	14.597250
11.033333	1	11.671000
11.050000	1	9.311750
11.066667	1	7.443875
11.083333	1	5.987250
11.100000	1	4.864125
11.116667	1	4.002500
11.133333	1	3.345500
11.150000	1	2.844750
11.166667	1	2.462375
11.183333	1	2.170500
11.200000	1	1.946250
11.216667	1	1.773625
11.233333	1	1.641000
11.250000	1	1.536375
11.266667	1	1.453125
11.283333	1	1.384625
11.300000	1	1.328125
11.316667	1	1.279125
11.333333	1	1.236125
11.350000	1	1.196125
11.366667	1	1.158750
11.383333	1	1.123875
11.400000	1	1.090875
11.416667	1	1.060625
11.433333	1	1.032500
11.450000	1	1.006625
11.466667	1	0.983500
11.483333	1	0.963625
11.500000	1	0.947125
11.516667	1	0.934000
11.533333	1	0.923875
11.550000	1	0.917375
11.566667	1	0.915125
11.583333	1	0.916500
11.600000	1	0.922750
11.616667	1	0.932875
11.633333	1	0.947125
11.650000	1	0.965750
11.666667	1	0.988125
11.683333	1	1.013500
11.700000	1	1.042375
11.716667	1	1.072000
11.733333	1	1.102250
11.750000	1	1.130375
11.766667	1	1.155375
11.783333	1	1.176000
11.800000	1	1.191625
11.816667	1	1.202375
11.833333	1	1.206250
11.850000	1	1.205625
11.866667	1	1.199000
11.883333	1	1.188500
11.900000	1	1.175250
11.916667	1	1.160625
11.933333	1	1.144250
11.950000	1	1.128500
11.966667	1	1.113125
11.983333	1	1.098500
12.000000	1	1.085750
12.016667	1	1.074875
12.033333	1	1.065500
12.050000	1	1.058125
12.066667	1	1.052875
12.083333	1	1.049375
12.100000	1	1.047375
12.116667	1	1.046625
12.133333	1	1.047500
12.150000	1	1.050250
12.166667	1	1.053625
12.183333	1	1.059750
12.200000	1	1.066500
12.216667	1	1.075750
12.233333	1	1.088500
12.250000	1	1.105125
12.266667	1	1.127375
12.283333	1	1.157125
12.300000	1	1.198125
12.316667	1	1.251750
12.333333	1	1.325375
12.350000	1	1.424375
12.366667	1	1.556875
12.383333	1	1.736875
12.400000	1	1.978000
12.416667	1	2.301625
12.433333	1	2.733375
12.450000	1	3.309625
12.466667	1	4.075375
12.483333	1	5.087375
12.500000	1	6.413875
12.516667	1	8.131750
12.533333	1	10.327125
12.550000	1	13.084375
12.566667	1	16.480625
12.583333	1	20.574125
12.600000	1	25.388500
12.616667	1	30.890500
12.633333	1	36.998500
12.650000	1	43.569250
12.666667	1	50.395375
12.683333	1	57.208125
12.700000	1	63.701375
12.716667	1	69.552000
12.733333	1	74.456625
12.750000	1	78.161625
12.766667	1	80.495125
12.783333	1	81.374875
12.800000	1	80.822125
12.816667	1	78.955125
12.833333	1	75.967500
12.850000	1	72.104875
12.866667	1	67.640250
12.883333	1	62.850625
12.900000	1	57.995500
12.916667	1	53.293375
12.933333	1	48.918625
12.950000	1	44.988125
12.966667	1	41.569375
12.983333	1	38.688375
13.000000	1	36.338000
13.016667	1	34.490750
13.033333	1	33.100000
13.050000	1	32.115125
13.066667	1	31.481125
13.083333	1	31.149000
13.100000	1	31.070500
13.116667	1	31.205125
13.133333	1	31.516375
13.150000	1	31.975625
13.166667	1	32.554750
13.183333	1	33.234375
13.200000	1	33.996625
13.216667	1	34.828250
13.233333	1	35.718250
13.250000	1	36.659250
13.266667	1	37.646250
13.283333	1	38.673625
13.300000	1	39.737750
13.316667	1	40.836375
13.333333	1	41.967625
13.350000	1	43.128125
13.366667	1	44.318125
13.383333	1	45.536625
13.400000	1	46.783500
13.416667	1	48.057750
13.433333	1	49.362000
13.450000	1	50.695750
13.466667	1	52.060500
13.483333	1	53.456750
13.500000	1	54.884625
13.516667	1	56.343000
13.533333	1	57.831625
13.550000	1	59.351000
13.566667	1	60.901250
13.583333	1	62.483625
13.600000	1	64.096750
13.616667	1	65.742875
13.633333	1	67.423250
13.650000	1	69.139625
13.666667	1	70.892375
13.683333	1	72.676875
13.700000	1	74.471625
13.716667	1	76.216125
13.733333	1	77.786750
13.750000	1	79.007000
13.766667	1	79.680125
13.783333	1	79.636125
13.800000	1	78.744500
13.816667	1	76.886250
13.833333	1	73.916500
13.850000	1	69.654875
13.866667	1	63.983875
13.883333	1	57.016875
13.900000	1	49.201250
13.916667	1	41.226500
13.933333	1	33.765375
13.950000	1	27.260375
13.966667	1	21.874250
13.983333	1	17.564500
14.000000	1	14.191375
14.016667	1	11.588875
14.033333	1	9.605125
14.050000	1	8.110625
14.066667	1	6.996875
14.083333	1	6.170250
14.100000	1	5.556750
14.116667	1	5.098000
14.133333	1	4.749875
14.150000	1	4.480625
14.166667	1	4.267750
14.183333	1	4.094875
14.200000	1	3.952375
14.216667	1	3.830875
14.233333	1	3.725875
14.250000	1	3.632875
14.266667	1	3.549875
14.283333	1	3.473625
14.300000	1	3.404250
14.316667	1	3.340625
14.333333	1	3.281625
14.350000	1	3.227125
14.366667	1	3.175000
14.383333	1	3.128000
14.400000	1	3.084000
14.416667	1	3.043375
14.433333	1	3.006125
14.450000	1	2.971500
14.466667	1	2.938750
14.483333	1	2.908625
14.500000	1	2.879500
14.516667	1	2.852125
14.533333	1	2.826000
14.550000	1	2.801000
14.566667	1	2.776750
14.583333	1	2.751250
14.600000	1	2.725875
14.616667	1	2.700500
14.633333	1	2.673875
14.650000	1	2.647500
14.666667	1	2.620625
14.683333	1	2.592500
14.700000	1	2.564500
14.716667	1	2.537250
14.733333	1	2.510250
14.750000	1	2.483500
14.766667	1	2.457000
14.783333	1	2.431125
14.800000	1	2.406500
14.816667	1	2.381625
14.833333	1	2.357375
14.850000	1	2.332500
14.866667	1	2.307875
14.883333	1	2.282625
14.900000	1	2.256875
14.916667	1	2.230000
14.933333	1	2.202875
14.950000	1	2.174250
14.966667	1	2.145625
14.983333	1	2.117500
15.000000	1	2.089375
15.016667	1	2.060875
15.033333	1	2.033000
15.050000	1	2.006125
15.066667	1	1.979750
15.083333	1	1.954625
15.100000	1	1.931375
15.116667	1	1.909000
15.133333	1	1.887625
15.150000	1	1.867750
15.166667	1	1.849375
15.183333	1	1.831875
15.200000	1	1.815500
15.216667	1	1.801500
15.233333	1	1.789125
15.250000	1	1.779250
15.266667	1	1.770500
15.283333	1	1.764250
15.300000	1	1.761250
15.316667	1	1.761500
15.333333	1	1.765750
15.350000	1	1.774000
15.366667	1	1.787125
15.383333	1	1.805625
15.400000	1	1.828875
15.416667	1	1.855750
15.433333	1	1.886625
15.450000	1	1.920750
15.466667	1	1.956500
15.483333	1	1.991625
15.500000	1	2.023750
15.516667	1	2.051000
15.533333	1	2.072500
15.550000	1	2.085750
15.566667	1	2.090250
15.583333	1	2.085875
15.600000	1	2.071875
15.616667	1	2.048875
15.633333	1	2.018250
15.650000	1	1.982125
15.666667	1	1.941875
15.683333	1	1.898625
15.700000	1	1.854250
15.716667	1	1.810500
15.733333	1	1.766875
15.750000	1	1.724875
15.766667	1	1.685000
15.783333	1	1.647500
15.800000	1	1.611625
15.816667	1	1.577625
15.833333	1	1.545500
15.850000	1	1.514125
15.866667	1	1.484125
15.883333	1	1.455500
15.900000	1	1.429125
15.916667	1	1.404000
15.933333	1	1.381125
15.950000	1	1.359750
15.966667	1	1.341000
15.983333	1	1.323125
16.000000	1	1.308375
16.016667	1	1.296375
16.033333	1	1.285750
16.050000	1	1.277625
16.066667	1	1.271625
16.083333	1	1.266875
16.100000	1	1.264000
16.116667	1	1.263000
16.133333	1	1.262625
16.150000	1	1.262375
16.166667	1	1.263375
16.183333	1	1.264250
16.200000	1	1.266125
16.216667	1	1.266875
16.233333	1	1.267375
16.250000	1	1.266875
16.266667	1	1.266125
16.283333	1	1.264375
16.300000	1	1.262250
16.316667	1	1.259750
16.333333	1	1.256000
16.350000	1	1.251500
16.366667	1	1.246000
16.383333	1	1.239625
16.400000	1	1.234250
16.416667	1	1.229750
16.433333	1	1.225375
16.450000	1	1.222125
16.466667	1	1.219750
16.483333	1	1.219250
16.500000	1	1.220875
16.516667	1	1.224625
16.533333	1	1.229375
16.550000	1	1.236375
16.566667	1	1.243875
16.583333	1	1.251875
16.600000	1	1.260500
16.616667	1	1.268625
16.633333	1	1.276375
16.650000	1	1.283250
16.666667	1	1.289125
16.683333	1	1.294125
16.700000	1	1.297000
16.716667	1	1.299375
16.733333	1	1.300375
16.750000	1	1.301125
16.766667	1	1.302000
16.783333	1	1.302625
16.800000	1	1.304000
16.816667	1	1.305125
16.833333	1	1.307625
16.850000	1	1.311000
16.866667	1	1.314250
16.883333	1	1.318125
16.900000	1	1.320875
16.916667	1	1.325125
16.933333	1	1.327750
16.950000	1	1.328750
16.966667	1	1.329000
16.983333	1	1.327750
17.000000	1	1.325875
17.016667	1	1.323125
17.033333	1	1.319250
17.050000	1	1.315000
17.066667	1	1.309750
17.083333	1	1.304750
17.100000	1	1.299750
17.116667	1	1.295500
17.133333	1	1.291750
17.150000	1	1.289375
17.166667	1	1.287750
17.183333	1	1.288625
17.200000	1	1.290375
17.216667	1	1.293500
17.233333	1	1.298125
17.250000	1	1.303625
17.266667	1	1.311125
17.283333	1	1.319250
17.300000	1	1.328625
17.316667	1	1.338250
17.333333	1	1.348125
17.350000	1	1.359125
17.366667	1	1.370000
17.383333	1	1.380000
17.400000	1	1.388875
17.416667	1	1.396125
17.433333	1	1.402250
17.450000	1	1.405750
17.466667	1	1.407500
17.483333	1	1.407250
17.500000	1	1.404375
17.516667	1	1.398875
17.533333	1	1.390375
17.550000	1	1.380875
17.566667	1	1.369375
17.583333	1	1.355375
17.600000	1	1.339875
17.616667	1	1.323500
17.633333	1	1.306250
17.650000	1	1.288500
17.666667	1	1.270125
17.683333	1	1.251375
17.700000	1	1.233125
17.716667	1	1.215375
17.733333	1	1.197625
17.750000	1	1.180250
17.766667	1	1.163625
17.783333	1	1.147875
17.800000	1	1.132625
17.816667	1	1.117750
17.833333	1	1.103875
17.850000	1	1.091000
17.866667	1	1.078500
17.883333	1	1.066625
17.900000	1	1.055625
17.916667	1	1.044375
17.933333	1	1.034000
17.950000	1	1.024875
17.966667	1	1.015625
17.983333	1	1.007250
18.000000	1	0.999000
18.016667	1	0.990750
18.033333	1	0.982625
18.050000	1	0.975250
18.066667	1	0.967375
18.083333	1	0.959125
18.100000	1	0.951250
18.116667	1	0.943375
18.133333	1	0.936500
18.150000	1	0.930000
18.166667	1	0.924250
18.183333	1	0.918875
18.200000	1	0.913750
18.216667	1	0.909250
18.233333	1	0.905625
18.250000	1	0.902625
18.266667	1	0.899875
18.283333	1	0.898125
18.300000	1	0.896250
18.316667	1	0.895000
18.333333	1	0.894125
18.350000	1	0.894250
18.366667	1	0.894000
18.383333	1	0.893875
18.400000	1	0.894250
18.416667	1	0.895000
18.433333	1	0.896875
18.450000	1	0.899125
18.466667	1	0.903000
18.483333	1	0.907750
18.500000	1	0.913875
18.516667	1	0.921625
18.533333	1	0.931250
18.550000	1	0.943625
18.566667	1	0.957125
18.583333	1	0.973250
18.600000	1	0.991625
18.616667	1	1.011875
18.633333	1	1.034875
18.650000	1	1.058875
18.666667	1	1.084875
18.683333	1	1.113500
18.700000	1	1.143375
18.716667	1	1.174875
18.733333	1	1.207750
18.750000	1	1.241500
18.766667	1	1.276375
18.783333	1	1.311125
18.800000	1	1.346125
18.816667	1	1.379375
18.833333	1	1.411875
18.850000	1	1.443000
18.866667	1	1.471750
18.883333	1	1.496125
18.900000	1	1.516250
18.916667	1	1.532000
18.933333	1	1.542250
18.950000	1	1.545125
18.966667	1	1.541750
18.983333	1	1.531500
19.000000	1	1.514125
19.016667	1	1.490375
19.033333	1	1.460500
19.050000	1	1.424250
19.066667	1	1.383250
19.083333	1	1.337250
19.100000	1	1.288750
19.116667	1	1.238250
19.133333	1	1.186750
19.150000	1	1.134875
19.166667	1	1.083625
19.183333	1	1.034750
19.200000	1	0.988125
19.216667	1	0.944875
19.233333	1	0.906250
19.250000	1	0.872500
19.266667	1	0.844625
19.283333	1	0.821000
19.300000	1	0.804375
19.316667	1	0.792750
19.333333	1	0.786875
19.350000	1	0.786000
19.366667	1	0.791000
19.383333	1	0.801750
19.400000	1	0.817125
19.416667	1	0.837750
19.433333	1	0.861875
19.450000	1	0.889625
19.466667	1	0.920125
19.483333	1	0.951625
19.500000	1	0.983250
19.516667	1	1.014750
19.533333	1	1.045625
19.550000	1	1.074000
19.566667	1	1.099000
19.583333	1	1.119625
19.600000	1	1.135000
19.616667	1	1.144375
19.633333	1	1.147500
19.650000	1	1.144625
19.666667	1	1.135625
19.683333	1	1.120875
19.700000	1	1.101625
19.716667	1	1.078375
19.733333	1	1.050875
19.750000	1	1.021000
19.766667	1	0.988000
19.783333	1	0.954125
19.800000	1	0.919750
19.816667	1	0.885500
19.833333	1	0.852625
19.850000	1	0.820250
19.866667	1	0.789000
19.883333	1	0.760375
19.900000	1	0.733375
19.916667	1	0.709375
19.933333	1	0.687375
19.950000	1	0.668125
19.966667	1	0.650375
19.983333	1	0.635500
20.000000	1	0.623000
20.016667	1	0.613250
20.033333	1	0.604750
20.050000	1	0.598875
20.066667	1	0.595000
20.083333	1	0.593000
20.100000	1	0.595000
20.116667	1	0.598000
20.133333	1	0.604000
20.150000	1	0.612500
20.166667	1	0.622250
20.183333	1	0.633500
20.200000	1	0.646875
20.216667	1	0.661250
20.233333	1	0.676625
20.250000	1	0.692625
20.266667	1	0.708375
20.283333	1	0.723375
20.300000	1	0.737000
20.316667	1	0.749125
20.333333	1	0.758750
20.350000	1	0.764750
20.366667	1	0.769625
20.383333	1	0.770750
20.400000	1	0.768750
20.416667	1	0.764250
20.433333	1	0.757375
20.450000	1	0.749000
20.466667	1	0.739500
20.483333	1	0.728875
20.500000	1	0.719000
20.516667	1	0.711375
20.533333	1	0.704750
20.550000	1	0.700875
20.566667	1	0.702500
20.583333	1	0.708125
20.600000	1	0.720000
20.616667	1	0.738125
20.633333	1	0.762625
20.650000	1	0.795125
20.666667	1	0.835125
20.683333	1	0.883500
20.700000	1	0.938750
20.716667	1	1.000875
20.733333	1	1.068750
20.750000	1	1.142625
20.766667	1	1.219375
20.783333	1	1.297125
20.800000	1	1.374375
20.816667	1	1.448375
20.833333	1	1.517000
20.850000	1	1.577625
20.866667	1	1.628000
20.883333	1	1.666250
20.900000	1	1.692625
20.916667	1	1.704875
20.933333	1	1.702875
20.950000	1	1.687625
20.966667	1	1.658750
20.983333	1	1.617500
21.000000	1	1.565500
21.016667	1	1.505750
21.033333	1	1.439375
21.050000	1	1.368250
21.066667	1	1.294750
21.083333	1	1.219875
21.100000	1	1.146250
21.116667	1	1.075125
21.133333	1	1.008125
21.150000	1	0.945125
21.166667	1	0.886375
21.183333	1	0.832750
21.200000	1	0.783875
21.216667	1	0.740750
21.233333	1	0.702875
21.250000	1	0.669250
21.266667	1	0.639875
21.283333	1	0.614125
21.300000	1	0.592000
21.316667	1	0.574000
21.333333	1	0.557500
21.350000	1	0.543625
21.366667	1	0.531750
21.383333	1	0.522250
21.400000	1	0.513875
21.416667	1	0.507875
21.433333	1	0.502375
21.450000	1	0.498000
21.466667	1	0.495375
21.483333	1	0.492750
21.500000	1	0.490625
21.516667	1	0.490625
21.533333	1	0.491375
21.550000	1	0.494250
21.566667	1	0.497750
21.583333	1	0.503125
21.600000	1	0.509750
21.616667	1	0.518625
21.633333	1	0.530375
21.650000	1	0.544375
21.666667	1	0.561625
21.683333	1	0.581750
21.700000	1	0.605250
21.716667	1	0.632375
21.733333	1	0.662750
21.750000	1	0.697750
21.766667	1	0.736625
21.783333	1	0.778625
21.800000	1	0.823875
21.816667	1	0.871875
21.833333	1	0.923375
21.850000	1	0.975500
21.866667	1	1.029125
21.883333	1	1.082250
21.900000	1	1.135875
21.916667	1	1.187375
21.933333	1	1.236750
21.950000	1	1.282375
21.966667	1	1.322500
21.983333	1	1.356750
22.000000	1	1.383625
22.016667	1	1.404125
22.033333	1	1.416125
22.050000	1	1.420875
22.066667	1	1.417500
22.083333	1	1.406125
22.100000	1	1.388375
22.116667	1	1.363500
22.133333	1	1.332625
22.150000	1	1.297375
22.166667	1	1.258125
22.183333	1	1.215000
22.200000	1	1.169750
22.216667	1	1.123625
22.233333	1	1.076375
22.250000	1	1.029125
22.266667	1	0.982500
22.283333	1	0.936875
22.300000	1	0.892500
22.316667	1	0.849375
22.333333	1	0.808625
22.350000	1	0.770375
22.366667	1	0.733875
22.383333	1	0.699625
22.400000	1	0.667375
22.416667	1	0.636250
22.433333	1	0.608375
22.450000	1	0.582625
22.466667	1	0.559500
22.483333	1	0.538000
22.500000	1	0.518500
22.516667	1	0.500500
22.533333	1	0.484875
22.550000	1	0.470375
22.566667	1	0.457250
22.583333	1	0.445625
22.600000	1	0.434750
22.616667	1	0.424375
22.633333	1	0.415875
22.650000	1	0.407875
22.666667	1	0.399875
22.683333	1	0.393125
22.700000	1	0.386500
22.716667	1	0.381000
22.733333	1	0.375500
22.750000	1	0.370625
22.766667	1	0.366000
22.783333	1	0.361625
22.800000	1	0.356750
22.816667	1	0.352625
22.833333	1	0.348000
22.850000	1	0.343875
22.866667	1	0.340250
22.883333	1	0.336875
22.900000	1	0.333125
22.916667	1	0.330250
22.933333	1	0.327750
22.950000	1	0.325750
22.966667	1	0.323625
22.983333	1	0.321625
23.000000	1	0.320125
23.016667	1	0.319000
23.033333	1	0.318250
23.050000	1	0.317625
23.066667	1	0.317500
23.083333	1	0.317750
23.100000	1	0.319375
23.116667	1	0.320250
23.133333	1	0.322375
23.150000	1	0.324125
23.166667	1	0.325500
23.183333	1	0.327500
23.200000	1	0.329500
23.216667	1	0.332125
23.233333	1	0.335250
23.250000	1	0.339250
23.266667	1	0.343875
23.283333	1	0.349750
23.300000	1	0.356625
23.316667	1	0.365375
23.333333	1	0.375375
23.350000	1	0.388625
23.366667	1	0.404500
23.383333	1	0.424250
23.400000	1	0.448625
23.416667	1	0.477750
23.433333	1	0.512500
23.450000	1	0.555375
23.466667	1	0.606500
23.483333	1	0.666125
23.500000	1	0.737250
23.516667	1	0.821125
23.533333	1	0.917875
23.550000	1	1.029500
23.566667	1	1.157250
23.583333	1	1.301375
23.600000	1	1.462125
23.616667	1	1.640750
23.633333	1	1.836125
23.650000	1	2.046750
23.666667	1	2.272625
23.683333	1	2.511875
23.700000	1	2.761375
23.716667	1	3.017500
23.733333	1	3.276500
23.750000	1	3.533750
23.766667	1	3.784500
23.783333	1	4.022875
23.800000	1	4.244625
23.816667	1	4.443000
23.833333	1	4.615375
23.850000	1	4.755375
23.866667	1	4.862750
23.883333	1	4.933000
23.900000	1	4.965000
23.916667	1	4.959000
23.933333	1	4.914875
23.950000	1	4.835375
23.966667	1	4.721875
23.983333	1	4.579000
24.000000	1	4.410125
24.016667	1	4.219500
24.033333	1	4.011750
24.050000	1	3.792875
24.066667	1	3.565875
24.083333	1	3.335750
24.100000	1	3.105625
24.116667	1	2.879125
24.133333	1	2.658625
24.150000	1	2.447000
24.166667	1	2.246375
24.183333	1	2.057500
24.200000	1	1.880875
24.216667	1	1.718625
24.233333	1	1.569625
24.250000	1	1.434625
24.266667	1	1.311000
24.283333	1	1.200125
24.300000	1	1.101000
24.316667	1	1.012000
24.333333	1	0.933250
24.350000	1	0.864125
24.366667	1	0.804125
24.383333	1	0.752125
24.400000	1	0.707000
24.416667	1	0.668250
24.433333	1	0.635250
24.450000	1	0.607125
24.466667	1	0.583500
24.483333	1	0.563625
24.500000	1	0.547250
24.516667	1	0.533875
24.533333	1	0.522250
24.550000	1	0.513625
24.566667	1	0.505375
24.583333	1	0.498500
24.600000	1	0.492125
24.616667	1	0.486625
24.633333	1	0.482250
24.650000	1	0.478000
24.666667	1	0.473125
24.683333	1	0.468250
24.700000	1	0.463750
24.716667	1	0.459500
24.733333	1	0.454125
24.750000	1	0.449500
24.766667	1	0.444375
24.783333	1	0.438625
24.800000	1	0.433125
24.816667	1	0.427500
24.833333	1	0.421750
24.850000	1	0.416625
24.866667	1	0.411750
24.883333	1	0.406750
24.900000	1	0.402125
24.916667	1	0.397875
24.933333	1	0.393250
24.950000	1	0.388625
24.966667	1	0.384375
24.983333	1	0.380375
25.000000	1	0.376250
25.016667	1	0.372500
25.033333	1	0.369500
25.050000	1	0.365750
25.066667	1	0.362875
25.083333	1	0.359625
25.100000	1	0.356750
25.116667	1	0.353875
25.133333	1	0.351000
25.150000	1	0.348125
25.166667	1	0.345625
25.183333	1	0.342000
25.200000	1	0.338375
25.216667	1	0.335000
25.233333	1	0.332000
25.250000	1	0.328625
25.266667	1	0.325625
25.283333	1	0.323375
25.300000	1	0.320500
25.316667	1	0.317875
25.333333	1	0.315250
25.350000	1	0.312875
25.366667	1	0.310875
25.383333	1	0.308125
25.400000	1	0.305750
25.416667	1	0.304125
25.433333	1	0.301875
25.450000	1	0.300250
25.466667	1	0.298125
25.483333	1	0.296375
25.500000	1	0.295250
25.516667	1	0.294000
25.533333	1	0.293125
25.550000	1	0.291750
25.566667	1	0.290875
25.583333	1	0.290625
25.600000	1	0.289125
25.616667	1	0.288125
25.633333	1	0.287500
25.650000	1	0.287125
25.666667	1	0.286250
25.683333	1	0.285000
25.700000	1	0.283750
25.716667	1	0.282500
25.733333	1	0.281500
25.750000	1	0.279875
25.766667	1	0.277875
25.783333	1	0.276375
25.800000	1	0.274875
25.816667	1	0.273500
25.833333	1	0.272875
25.850000	1	0.272500
25.866667	1	0.272375
25.883333	1	0.272125
25.900000	1	0.271625
25.916667	1	0.271875
25.933333	1	0.272875
25.950000	1	0.273625
25.966667	1	0.274875
25.983333	1	0.276625
26.000000	1	0.279000
26.016667	1	0.281125
26.033333	1	0.284125
26.050000	1	0.287125
26.066667	1	0.290500
26.083333	1	0.294500
26.100000	1	0.298750
26.116667	1	0.302625
26.133333	1	0.306000
26.150000	1	0.310000
26.166667	1	0.312750
26.183333	1	0.316875
26.200000	1	0.320250
26.216667	1	0.323625
26.233333	1	0.326625
26.250000	1	0.329000
26.266667	1	0.331125
26.283333	1	0.332750
26.300000	1	0.334250
26.316667	1	0.334750
26.333333	1	0.334375
26.350000	1	0.334000
26.366667	1	0.332625
26.383333	1	0.330875
26.400000	1	0.328750
26.416667	1	0.326000
26.433333	1	0.323375
26.450000	1	0.320125
26.466667	1	0.316750
26.483333	1	0.312500
26.500000	1	0.308625
26.516667	1	0.303875
26.533333	1	0.299500
26.550000	1	0.295500
26.566667	1	0.290375
26.583333	1	0.285750
26.600000	1	0.281375
26.616667	1	0.276375
26.633333	1	0.272375
26.650000	1	0.268250
26.666667	1	0.264875
26.683333	1	0.261750
26.700000	1	0.258750
26.716667	1	0.255875
26.733333	1	0.253375
26.750000	1	0.251000
26.766667	1	0.248750
26.783333	1	0.247000
26.800000	1	0.245625
26.816667	1	0.244625
26.833333	1	0.244375
26.850000	1	0.244625
26.866667	1	0.244625
26.883333	1	0.244625
26.900000	1	0.244875
26.916667	1	0.246750
26.933333	1	0.248375
26.950000	1	0.250375
26.966667	1	0.252500
26.983333	1	0.255250
27.000000	1	0.258375
27.016667	1	0.261750
27.033333	1	0.265250
27.050000	1	0.269875
27.066667	1	0.274750
27.083333	1	0.281000
27.100000	1	0.287500
27.116667	1	0.295375
27.133333	1	0.303500
27.150000	1	0.312375
27.166667	1	0.322625
27.183333	1	0.334625
27.200000	1	0.349125
27.216667	1	0.364500
27.233333	1	0.382625
27.250000	1	0.403250
27.266667	1	0.427000
27.283333	1	0.453625
27.300000	1	0.484500
27.316667	1	0.518750
27.333333	1	0.558125
27.350000	1	0.602625
27.366667	1	0.653750
27.383333	1	0.710375
27.400000	1	0.774000
27.416667	1	0.845625
27.433333	1	0.925875
27.450000	1	1.015000
27.466667	1	1.113500
27.483333	1	1.222000
27.500000	1	1.340000
27.516667	1	1.467750
27.533333	1	1.604875
27.550000	1	1.752500
27.566667	1	1.909250
27.583333	1	2.074750
27.600000	1	2.246625
27.616667	1	2.424375
27.633333	1	2.608000
27.650000	1	2.794250
27.666667	1	2.980875
27.683333	1	3.165625
27.700000	1	3.346375
27.716667	1	3.519875
27.733333	1	3.684500
27.750000	1	3.836000
27.766667	1	3.973250
27.783333	1	4.093250
27.800000	1	4.193750
27.816667	1	4.272625
27.833333	1	4.328125
27.850000	1	4.358375
27.866667	1	4.364750
27.883333	1	4.344625
27.900000	1	4.298875
27.916667	1	4.229250
27.933333	1	4.136500
27.950000	1	4.021125
27.966667	1	3.887625
27.983333	1	3.737125
28.000000	1	3.572125
28.016667	1	3.396000
28.033333	1	3.212125
28.050000	1	3.022625
28.066667	1	2.830500
28.083333	1	2.637750
28.100000	1	2.447875
28.116667	1	2.262750
28.133333	1	2.084375
28.150000	1	1.914250
28.166667	1	1.752750
28.183333	1	1.601125
28.200000	1	1.460125
28.216667	1	1.330500
28.233333	1	1.211375
28.250000	1	1.102500
28.266667	1	1.004875
28.283333	1	0.917000
28.300000	1	0.839375
28.316667	1	0.771125
28.333333	1	0.709625
28.350000	1	0.657375
28.366667	1	0.612250
28.383333	1	0.573875
28.400000	1	0.541000
28.416667	1	0.514625
28.433333	1	0.493375
28.450000	1	0.476750
28.466667	1	0.464000
28.483333	1	0.455250
28.500000	1	0.449875
28.516667	1	0.447375
28.533333	1	0.447625
28.550000	1	0.449250
28.566667	1	0.453250
28.583333	1	0.458875
28.600000	1	0.466250
28.616667	1	0.474250
28.633333	1	0.483625
28.650000	1	0.493500
28.666667	1	0.505125
28.683333	1	0.515875
28.700000	1	0.527000
28.716667	1	0.537125
28.733333	1	0.547125
28.750000	1	0.557375
28.766667	1	0.566875
28.783333	1	0.575375
28.800000	1	0.583875
28.816667	1	0.591000
28.833333	1	0.596750
28.850000	1	0.602000
28.866667	1	0.606500
28.883333	1	0.610125
28.900000	1	0.611500
28.916667	1	0.613125
28.933333	1	0.613000
28.950000	1	0.611125
28.966667	1	0.607875
28.983333	1	0.604500
29.000000	1	0.599625
29.016667	1	0.593125
29.033333	1	0.585625
29.050000	1	0.577375
29.066667	1	0.568250
29.083333	1	0.558250
29.100000	1	0.547875
29.116667	1	0.537125
29.133333	1	0.524750
29.150000	1	0.511250
29.166667	1	0.497875
29.183333	1	0.484375
29.200000	1	0.471000
29.216667	1	0.456875
29.233333	1	0.443000
29.250000	1	0.428625
29.266667	1	0.414750
29.283333	1	0.400125
29.300000	1	0.385875
29.316667	1	0.372250
29.333333	1	0.357875
29.350000	1	0.344875
29.366667	1	0.331625
29.383333	1	0.318625
29.400000	1	0.306375
29.416667	1	0.294875
29.433333	1	0.283250
29.450000	1	0.271875
29.466667	1	0.260750
29.483333	1	0.249875
29.500000	1	0.239750
29.516667	1	0.230750
29.533333	1	0.220875
29.550000	1	0.211250
29.566667	1	0.202625
29.583333	1	0.194500
29.600000	1	0.187500
29.616667	1	0.180875
29.633333	1	0.174500
29.650000	1	0.168000
29.666667	1	0.162375
29.683333	1	0.157125
29.700000	1	0.151500
29.716667	1	0.146750
29.733333	1	0.142875
29.750000	1	0.140000
29.766667	1	0.136875
29.783333	1	0.134000
29.800000	1	0.130375
29.816667	1	0.127250
29.833333	1	0.125125
29.850000	1	0.123000
29.866667	1	0.121500
29.883333	1	0.120000
29.900000	1	0.118500
29.916667	1	0.117000
29.933333	1	0.115375
29.950000	1	0.114625
29.966667	1	0.113500
29.983333	1	0.112625
30.000000	1	0.112375
30.016667	1	0.111625
30.033333	1	0.111250
30.050000	1	0.111500
30.066667	1	0.111500
30.083333	1	0.111250
30.100000	1	0.110875
30.116667	1	0.110625
30.133333	1	0.111000
30.150000	1	0.111875
30.166667	1	0.112125
30.183333	1	0.112750
30.200000	1	0.113500
30.216667	1	0.114625
30.233333	1	0.115625
30.250000	1	0.116500
30.266667	1	0.117625
30.283333	1	0.117875
30.300000	1	0.118375
30.316667	1	0.119875
30.333333	1	0.122125
30.350000	1	0.123125
30.366667	1	0.124250
30.383333	1	0.127000
30.400000	1	0.129375
30.416667	1	0.131750
30.433333	1	0.134375
30.450000	1	0.137125
30.466667	1	0.140250
30.483333	1	0.144125
30.500000	1	0.147750
30.516667	1	0.150875
30.533333	1	0.154500
30.550000	1	0.158625
30.566667	1	0.163750
30.583333	1	0.169625
30.600000	1	0.176125
30.616667	1	0.181750
30.633333	1	0.188625
30.650000	1	0.195375
30.666667	1	0.203375
30.683333	1	0.211125
30.700000	1	0.220375
30.716667	1	0.229625
30.733333	1	0.239500
30.750000	1	0.250250
30.766667	1	0.261250
30.783333	1	0.273125
30.800000	1	0.286000
30.816667	1	0.299625
30.833333	1	0.314375
30.850000	1	0.330125
30.866667	1	0.346875
30.883333	1	0.364250
30.900000	1	0.383125
30.916667	1	0.404250
30.933333	1	0.426625
30.950000	1	0.452250
30.966667	1	0.480125
30.983333	1	0.510500
31.000000	1	0.543500
31.016667	1	0.579750
31.033333	1	0.620000
31.050000	1	0.664000
31.066667	1	0.712375
31.083333	1	0.766375
31.100000	1	0.824000
31.116667	1	0.888125
31.133333	1	0.956125
31.150000	1	1.030125
31.166667	1	1.110750
31.183333	1	1.197750
31.200000	1	1.290750
31.216667	1	1.389125
31.233333	1	1.492750
31.250000	1	1.601875
31.266667	1	1.714625
31.283333	1	1.831500
31.300000	1	1.951500
31.316667	1	2.073250
31.333333	1	2.195750
31.350000	1	2.317125
31.366667	1	2.437500
31.383333	1	2.554750
31.400000	1	2.668000
31.416667	1	2.775375
31.433333	1	2.875875
31.450000	1	2.967000
31.466667	1	3.048875
31.483333	1	3.119250
31.500000	1	3.177875
31.516667	1	3.222875
31.533333	1	3.255125
31.550000	1	3.272250
31.566667	1	3.275875
31.583333	1	3.265125
31.600000	1	3.240125
31.616667	1	3.202125
31.633333	1	3.151500
31.650000	1	3.088250
31.666667	1	3.014125
31.683333	1	2.929500
31.700000	1	2.835875
31.716667	1	2.735500
31.733333	1	2.628875
31.750000	1	2.517500
31.766667	1	2.402000
31.783333	1	2.284500
31.800000	1	2.165875
31.816667	1	2.047125
31.833333	1	1.929125
31.850000	1	1.813625
31.866667	1	1.700750
31.883333	1	1.591250
31.900000	1	1.485875
31.916667	1	1.385625
31.933333	1	1.289750
31.950000	1	1.199375
31.966667	1	1.114750
31.983333	1	1.034625
32.000000	1	0.960500
32.016667	1	0.891000
32.033333	1	0.826000
32.050000	1	0.766750
32.066667	1	0.711625
32.083333	1	0.661000
32.100000	1	0.615375
32.116667	1	0.572500
32.133333	1	0.533250
32.150000	1	0.497375
32.166667	1	0.464500
32.183333	1	0.434625
32.200000	1	0.406125
32.216667	1	0.380500
32.233333	1	0.356375
32.250000	1	0.334625
32.266667	1	0.313875
32.283333	1	0.294625
32.300000	1	0.276750
32.316667	1	0.259625
32.333333	1	0.244000
32.350000	1	0.229125
32.366667	1	0.215875
32.383333	1	0.201875
32.400000	1	0.189875
32.416667	1	0.178125
32.433333	1	0.167250
32.450000	1	0.157125
32.466667	1	0.148500
32.483333	1	0.140375
32.500000	1	0.132875
32.516667	1	0.126000
32.533333	1	0.118750
32.550000	1	0.112125
32.566667	1	0.107500
32.583333	1	0.102625
32.600000	1	0.098875
32.616667	1	0.095125
32.633333	1	0.091375
32.650000	1	0.088500
32.666667	1	0.085875
32.683333	1	0.083750
32.700000	1	0.081500
32.716667	1	0.080250
32.733333	1	0.078625
32.750000	1	0.077750
32.766667	1	0.076625
32.783333	1	0.077000
32.800000	1	0.076750
32.816667	1	0.076125
32.833333	1	0.075375
32.850000	1	0.075250
32.866667	1	0.075250
32.883333	1	0.075625
32.900000	1	0.076250
32.916667	1	0.076750
32.933333	1	0.077750
32.950000	1	0.078000
32.966667	1	0.078625
32.983333	1	0.079875
33.000000	1	0.080250
33.016667	1	0.080875
33.033333	1	0.081875
33.050000	1	0.082875
33.066667	1	0.083500
33.083333	1	0.084250
33.100000	1	0.085125
33.116667	1	0.087125
33.133333	1	0.088000
33.150000	1	0.089500
33.166667	1	0.091750
33.183333	1	0.093375
33.200000	1	0.094875
33.216667	1	0.096625
33.233333	1	0.099500
33.250000	1	0.101875
33.266667	1	0.104875
33.283333	1	0.108375
33.300000	1	0.112500
33.316667	1	0.117000
33.333333	1	0.122125
33.350000	1	0.127375
33.366667	1	0.133250
33.383333	1	0.140375
33.400000	1	0.148625
33.416667	1	0.157125
33.433333	1	0.166125
33.450000	1	0.176125
33.466667	1	0.187625
33.483333	1	0.199875
33.500000	1	0.213750
33.516667	1	0.229250
33.533333	1	0.246625
33.550000	1	0.265375
33.566667	1	0.284375
33.583333	1	0.306000
33.600000	1	0.329375
33.616667	1	0.354125
33.633333	1	0.381375
33.650000	1	0.410125
33.666667	1	0.440875
33.683333	1	0.472750
33.700000	1	0.507125
33.716667	1	0.542500
33.733333	1	0.578625
33.750000	1	0.617375
33.766667	1	0.656750
33.783333	1	0.696875
33.800000	1	0.737375
33.816667	1	0.778125
33.833333	1	0.818375
33.850000	1	0.858500
33.866667	1	0.897875
33.883333	1	0.936250
33.900000	1	0.973125
33.916667	1	1.007375
33.933333	1	1.039625
33.950000	1	1.069500
33.966667	1	1.096750
33.983333	1	1.120500
34.000000	1	1.140375
34.016667	1	1.156625
34.033333	1	1.168750
34.050000	1	1.176250
34.066667	1	1.180750
34.083333	1	1.181125
34.100000	1	1.177000
34.116667	1	1.168625
34.133333	1	1.156625
34.150000	1	1.140750
34.166667	1	1.121000
34.183333	1	1.098375
34.200000	1	1.072875
34.216667	1	1.044500
34.233333	1	1.014375
34.250000	1	0.982000
34.266667	1	0.948875
34.283333	1	0.914125
34.300000	1	0.878125
34.316667	1	0.842000
34.333333	1	0.805875
34.350000	1	0.769875
34.366667	1	0.733500
34.383333	1	0.698500
34.400000	1	0.663500
34.416667	1	0.630000
34.433333	1	0.597875
34.450000	1	0.567250
34.466667	1	0.537500
34.483333	1	0.509000
34.500000	1	0.482500
34.516667	1	0.458375
34.533333	1	0.434750
34.550000	1	0.413375
34.566667	1	0.393000
34.583333	1	0.373750
34.600000	1	0.356375
34.616667	1	0.340375
34.633333	1	0.325875
34.650000	1	0.311875
34.666667	1	0.299500
34.683333	1	0.287625
34.700000	1	0.277250
34.716667	1	0.267750
34.733333	1	0.259125
34.750000	1	0.251125
34.766667	1	0.244125
34.783333	1	0.237625
34.800000	1	0.231625
34.816667	1	0.225625
34.833333	1	0.219750
34.850000	1	0.214500
34.866667	1	0.209625
34.883333	1	0.205000
34.900000	1	0.201250
34.916667	1	0.197500
34.933333	1	0.194375
34.950000	1	0.190500
34.966667	1	0.187375
34.983333	1	0.184125
35.000000	1	0.180625
35.016667	1	0.177375
35.033333	1	0.174375
35.050000	1	0.170750
35.066667	1	0.168375
35.083333	1	0.166250
35.100000	1	0.163875
35.116667	1	0.162000
35.133333	1	0.159250
35.150000	1	0.157500
35.166667	1	0.155375
35.183333	1	0.153500
35.200000	1	0.151500
35.216667	1	0.149625
35.233333	1	0.148125
35.250000	1	0.147250
35.266667	1	0.145750
35.283333	1	0.144875
35.300000	1	0.145375
35.316667	1	0.145250
35.333333	1	0.144750
35.350000	1	0.144500
35.366667	1	0.145000
35.383333	1	0.145625
35.400000	1	0.146000
35.416667	1	0.146750
35.433333	1	0.147625
35.450000	1	0.147625
35.466667	1	0.148500
35.483333	1	0.148500
35.500000	1	0.149000
35.516667	1	0.149750
35.533333	1	0.150250
35.550000	1	0.150625
35.566667	1	0.151375
35.583333	1	0.151875
35.600000	1	0.152500
35.616667	1	0.153000
35.633333	1	0.152750
35.650000	1	0.152125
35.666667	1	0.152125
35.683333	1	0.152250
35.700000	1	0.152500
35.716667	1	0.152500
35.733333	1	0.152375
35.750000	1	0.152125
35.766667	1	0.151500
35.783333	1	0.150875
35.800000	1	0.150625
35.816667	1	0.149625
35.833333	1	0.148250
35.850000	1	0.146375
35.866667	1	0.145250
35.883333	1	0.143500
35.900000	1	0.142125
35.916667	1	0.140625
35.933333	1	0.139125
35.950000	1	0.136875
35.966667	1	0.134875
35.983333	1	0.132375
36.000000	1	0.130375
36.016667	1	0.128375
36.033333	1	0.126500
36.050000	1	0.125125
36.066667	1	0.123250
36.083333	1	0.121500
36.100000	1	0.119750
36.116667	1	0.118250
36.133333	1	0.116375
36.150000	1	0.114500
36.166667	1	0.113000
36.183333	1	0.111500
36.200000	1	0.110125
36.216667	1	0.108875
36.233333	1	0.107750
36.250000	1	0.106375
36.266667	1	0.105250
36.283333	1	0.104250
36.300000	1	0.104125
36.316667	1	0.103375
36.333333	1	0.103250
36.350000	1	0.102750
36.366667	1	0.102375
36.383333	1	0.102250
36.400000	1	0.101875
36.416667	1	0.102000
36.433333	1	0.102125
36.450000	1	0.101500
36.466667	1	0.101000
36.483333	1	0.101500
36.500000	1	0.101625
36.516667	1	0.101625
36.533333	1	0.101625
36.550000	1	0.101625
36.566667	1	0.101375
36.583333	1	0.101000
36.600000	1	0.100000
36.616667	1	0.099625
36.633333	1	0.099125
36.650000	1	0.098750
36.666667	1	0.098250
36.683333	1	0.097250
36.700000	1	0.096500
36.716667	1	0.095875
36.733333	1	0.095375
36.750000	1	0.094875
36.766667	1	0.094250
36.783333	1	0.093625
36.800000	1	0.093500
36.816667	1	0.093000
36.833333	1	0.092625
36.850000	1	0.092000
36.866667	1	0.090750
36.883333	1	0.090500
36.900000	1	0.090000
36.916667	1	0.089625
36.933333	1	0.089875
36.950000	1	0.089500
36.966667	1	0.089750
36.983333	1	0.089125
37.000000	1	0.089250
37.016667	1	0.089000
37.033333	1	0.088625
37.050000	1	0.088500
37.066667	1	0.088000
37.083333	1	0.088000
37.100000	1	0.088625
37.116667	1	0.089125
37.133333	1	0.088750
37.150000	1	0.089750
37.166667	1	0.089750
37.183333	1	0.089875
37.200000	1	0.089875
37.216667	1	0.090250
37.233333	1	0.090250
37.250000	1	0.090625
37.266667	1	0.090500
37.283333	1	0.091750
37.300000	1	0.092250
37.316667	1	0.093000
37.333333	1	0.093250
37.350000	1	0.093375
37.366667	1	0.094125
37.383333	1	0.094250
37.400000	1	0.093875
37.416667	1	0.094125
37.433333	1	0.094875
37.450000	1	0.095500
37.466667	1	0.094875
37.483333	1	0.095500
37.500000	1	0.096500
37.516667	1	0.096375
37.533333	1	0.096875
37.550000	1	0.096500
37.566667	1	0.095875
37.583333	1	0.095375
37.600000	1	0.094750
37.616667	1	0.093875
37.633333	1	0.093500
37.650000	1	0.092500
37.666667	1	0.091750
37.683333	1	0.090875
37.700000	1	0.089500
37.716667	1	0.088500
37.733333	1	0.087750
37.750000	1	0.086625
37.766667	1	0.085125
37.783333	1	0.083750
37.800000	1	0.082375
37.816667	1	0.081375
37.833333	1	0.080375
37.850000	1	0.079000
37.866667	1	0.077875
37.883333	1	0.077500
37.900000	1	0.075875
37.916667	1	0.074750
37.933333	1	0.073250
37.950000	1	0.072000
37.966667	1	0.071250
37.983333	1	0.070875
38.000000	1	0.070625
38.016667	1	0.069625
38.033333	1	0.069250
38.050000	1	0.068750
38.066667	1	0.068000
38.083333	1	0.067875
38.100000	1	0.067875
38.116667	1	0.067625
38.133333	1	0.066875
38.150000	1	0.066875
38.166667	1	0.066750
38.183333	1	0.067000
38.200000	1	0.066500
38.216667	1	0.066250
38.233333	1	0.065625
38.250000	1	0.065250
38.266667	1	0.065375
38.283333	1	0.064875
38.300000	1	0.064875
38.316667	1	0.064250
38.333333	1	0.063500
38.350000	1	0.063375
38.366667	1	0.063250
38.383333	1	0.062500
38.400000	1	0.061375
38.416667	1	0.061500
38.433333	1	0.061250
38.450000	1	0.060375
38.466667	1	0.059625
38.483333	1	0.058875
38.500000	1	0.058250
38.516667	1	0.057625
38.533333	1	0.056625
38.550000	1	0.056000
38.566667	1	0.054625
38.583333	1	0.053625
38.600000	1	0.052500
38.616667	1	0.051750
38.633333	1	0.051000
38.650000	1	0.050250
38.666667	1	0.048875
38.683333	1	0.048000
38.700000	1	0.047000
38.716667	1	0.045250
38.733333	1	0.044125
38.750000	1	0.043125
38.766667	1	0.042000
38.783333	1	0.040750
38.800000	1	0.039875
38.816667	1	0.038750
38.833333	1	0.037750
38.850000	1	0.036375
38.866667	1	0.035500
38.883333	1	0.035625
38.900000	1	0.035000
38.916667	1	0.034250
38.933333	1	0.034250
38.950000	1	0.034500
38.966667	1	0.033750
38.983333	1	0.034000
39.000000	1	0.034125
39.016667	1	0.034375
39.033333	1	0.035000
39.050000	1	0.035000
39.066667	1	0.035250
39.083333	1	0.036000
39.100000	1	0.037125
39.116667	1	0.037375
39.133333	1	0.037875
39.150000	1	0.038125
39.166667	1	0.038375
39.183333	1	0.040000
39.200000	1	0.040125
39.216667	1	0.040500
39.233333	1	0.040625
39.250000	1	0.040750
39.266667	1	0.041000
39.283333	1	0.040875
39.300000	1	0.041625
39.316667	1	0.041375
39.333333	1	0.041375
39.350000	1	0.040625
39.366667	1	0.040500
39.383333	1	0.040000
39.400000	1	0.039125
39.416667	1	0.038875
39.433333	1	0.038500
39.450000	1	0.038250
39.466667	1	0.038125
39.483333	1	0.037500
39.500000	1	0.036875
39.516667	1	0.036250
39.533333	1	0.034875
39.550000	1	0.033750
39.566667	1	0.032750
39.583333	1	0.032625
39.600000	1	0.032250
39.616667	1	0.031625
39.633333	1	0.031375
39.650000	1	0.030375
39.666667	1	0.030250
39.683333	1	0.029375
39.700000	1	0.028750
39.716667	1	0.028000
39.733333	1	0.027875
39.750000	1	0.026500
39.766667	1	0.025375
39.783333	1	0.024625
39.800000	1	0.023625
39.816667	1	0.022375
39.833333	1	0.021000
39.850000	1	0.020500
39.866667	1	0.019625
39.883333	1	0.018625
39.900000	1	0.017000
39.916667	1	0.015875
39.933333	1	0.015000
39.950000	1	0.014000
39.966667	1	0.012125
39.983333	1	0.010750
40.000000	1	0.009875
