URL	chrom://bioreactor/micro_cm7/HPLC_Ultimate_3000/Users/markusar/20240708_MA_pHrange1.seq/540.smp/RI_1.channel/RI_1.chm
Channel	RI_1

Injection Information:
Data Vault	micro_cm7
Sequence	20240708_MA_pHrange1
Name	Fp2_5.7_4
Number	66
Position	BF8
Comment	
Processing Method	
Instrument Method	run_25B_method
Type	Unknown
Status	Finished
Inject Time	10.07.2024 11:57:42 +02:00
Volume (µl)	20.0000
Dilution Factor	1.0000
Weight	1.0000

Chromatogram Data Information:
Time Min. (min)	0.000000
Time Max. (min)	40.000000
Data Points	2401
Detector	RI
Generating Data System	Chromeleon 7.3.2.11814
Exporting Data System	Chromeleon 7.3.2.0
Operator	Instrument Controller
Signal Quantity	Refractive 
Signal Unit	µRIU
Signal Min.	-0.051375
Signal Max.	80.923625
Channel	RI_1
Driver Name	RID520Driver.dll
Channel Type	Evaluation
Min. Step (s)	1
Max. Step (s)	1
Average Step (s)	1

Signal Parameter Information:
Signal Info	

Chromatogram Data:
Time (min)	Step (s)	Value (µRIU)
0.000000	n.a.	0.011375
0.016667	1	0.012625
0.033333	1	0.014375
0.050000	1	0.016125
0.066667	1	0.017750
0.083333	1	0.019750
0.100000	1	0.021500
0.116667	1	0.024000
0.133333	1	0.026375
0.150000	1	0.028125
0.166667	1	0.029500
0.183333	1	0.031625
0.200000	1	0.032750
0.216667	1	0.034000
0.233333	1	0.035375
0.250000	1	0.036625
0.266667	1	0.038125
0.283333	1	0.039250
0.300000	1	0.041125
0.316667	1	0.042625
0.333333	1	0.043250
0.350000	1	0.044750
0.366667	1	0.045125
0.383333	1	0.044750
0.400000	1	0.044625
0.416667	1	0.045250
0.433333	1	0.047125
0.450000	1	0.048625
0.466667	1	0.049750
0.483333	1	0.051500
0.500000	1	0.052250
0.516667	1	0.052500
0.533333	1	0.052125
0.550000	1	0.050250
0.566667	1	0.048375
0.583333	1	0.045625
0.600000	1	0.041750
0.616667	1	0.038625
0.633333	1	0.035000
0.650000	1	0.033125
0.666667	1	0.030625
0.683333	1	0.028125
0.700000	1	0.025875
0.716667	1	0.024125
0.733333	1	0.021250
0.750000	1	0.019000
0.766667	1	0.017625
0.783333	1	0.016000
0.800000	1	0.015000
0.816667	1	0.013250
0.833333	1	0.011500
0.850000	1	0.010000
0.866667	1	0.008875
0.883333	1	0.007000
0.900000	1	0.006125
0.916667	1	0.004500
0.933333	1	0.003625
0.950000	1	0.002625
0.966667	1	0.001750
0.983333	1	0.000625
1.000000	1	0.000000
1.016667	1	0.000000
1.033333	1	-0.000250
1.050000	1	-0.000250
1.066667	1	-0.000750
1.083333	1	-0.000375
1.100000	1	0.000250
1.116667	1	0.000750
1.133333	1	0.000875
1.150000	1	0.001875
1.166667	1	0.002750
1.183333	1	0.003250
1.200000	1	0.004500
1.216667	1	0.005750
1.233333	1	0.006000
1.250000	1	0.007375
1.266667	1	0.008625
1.283333	1	0.010000
1.300000	1	0.011500
1.316667	1	0.012125
1.333333	1	0.013000
1.350000	1	0.014000
1.366667	1	0.014500
1.383333	1	0.015250
1.400000	1	0.016000
1.416667	1	0.015875
1.433333	1	0.016375
1.450000	1	0.017625
1.466667	1	0.017625
1.483333	1	0.017625
1.500000	1	0.017625
1.516667	1	0.016750
1.533333	1	0.016500
1.550000	1	0.016250
1.566667	1	0.015625
1.583333	1	0.014875
1.600000	1	0.014125
1.616667	1	0.013000
1.633333	1	0.012625
1.650000	1	0.011875
1.666667	1	0.011375
1.683333	1	0.010875
1.700000	1	0.010500
1.716667	1	0.009875
1.733333	1	0.008750
1.750000	1	0.008000
1.766667	1	0.007750
1.783333	1	0.007250
1.800000	1	0.006250
1.816667	1	0.005750
1.833333	1	0.005250
1.850000	1	0.004750
1.866667	1	0.005000
1.883333	1	0.004750
1.900000	1	0.003875
1.916667	1	0.003000
1.933333	1	0.002000
1.950000	1	0.001250
1.966667	1	0.000750
1.983333	1	0.000125
2.000000	1	-0.000500
2.016667	1	-0.000500
2.033333	1	-0.000875
2.050000	1	-0.001000
2.066667	1	-0.000875
2.083333	1	-0.000750
2.100000	1	-0.001000
2.116667	1	-0.001125
2.133333	1	-0.001125
2.150000	1	-0.001750
2.166667	1	-0.001625
2.183333	1	-0.001875
2.200000	1	-0.001875
2.216667	1	-0.001625
2.233333	1	-0.001250
2.250000	1	-0.000875
2.266667	1	-0.000375
2.283333	1	-0.000375
2.300000	1	0.000000
2.316667	1	0.000250
2.333333	1	0.000500
2.350000	1	0.001375
2.366667	1	0.002375
2.383333	1	0.002500
2.400000	1	0.004125
2.416667	1	0.005375
2.433333	1	0.006125
2.450000	1	0.006875
2.466667	1	0.007750
2.483333	1	0.009000
2.500000	1	0.009750
2.516667	1	0.010625
2.533333	1	0.011625
2.550000	1	0.012500
2.566667	1	0.014000
2.583333	1	0.014625
2.600000	1	0.015875
2.616667	1	0.017000
2.633333	1	0.017875
2.650000	1	0.018750
2.666667	1	0.019500
2.683333	1	0.020625
2.700000	1	0.022000
2.716667	1	0.022250
2.733333	1	0.023375
2.750000	1	0.024375
2.766667	1	0.024375
2.783333	1	0.025375
2.800000	1	0.026500
2.816667	1	0.027500
2.833333	1	0.027625
2.850000	1	0.027125
2.866667	1	0.027375
2.883333	1	0.026875
2.900000	1	0.027000
2.916667	1	0.027000
2.933333	1	0.026500
2.950000	1	0.025500
2.966667	1	0.025125
2.983333	1	0.024625
3.000000	1	0.024250
3.016667	1	0.023500
3.033333	1	0.023125
3.050000	1	0.022500
3.066667	1	0.022500
3.083333	1	0.021375
3.100000	1	0.020375
3.116667	1	0.019375
3.133333	1	0.019000
3.150000	1	0.018500
3.166667	1	0.018250
3.183333	1	0.018125
3.200000	1	0.018000
3.216667	1	0.018250
3.233333	1	0.018375
3.250000	1	0.018125
3.266667	1	0.018250
3.283333	1	0.018375
3.300000	1	0.018875
3.316667	1	0.018875
3.333333	1	0.019250
3.350000	1	0.019375
3.366667	1	0.019875
3.383333	1	0.020750
3.400000	1	0.021625
3.416667	1	0.022625
3.433333	1	0.023625
3.450000	1	0.024250
3.466667	1	0.024625
3.483333	1	0.026000
3.500000	1	0.026875
3.516667	1	0.027875
3.533333	1	0.028375
3.550000	1	0.029875
3.566667	1	0.030500
3.583333	1	0.030750
3.600000	1	0.031625
3.616667	1	0.033250
3.633333	1	0.034500
3.650000	1	0.034875
3.666667	1	0.035125
3.683333	1	0.035125
3.700000	1	0.035750
3.716667	1	0.036625
3.733333	1	0.037250
3.750000	1	0.037750
3.766667	1	0.038500
3.783333	1	0.039250
3.800000	1	0.039875
3.816667	1	0.040375
3.833333	1	0.040750
3.850000	1	0.041250
3.866667	1	0.042375
3.883333	1	0.043375
3.900000	1	0.045000
3.916667	1	0.046375
3.933333	1	0.047125
3.950000	1	0.048000
3.966667	1	0.049500
3.983333	1	0.050500
4.000000	1	0.052000
4.016667	1	0.053625
4.033333	1	0.055750
4.050000	1	0.058125
4.066667	1	0.059375
4.083333	1	0.061625
4.100000	1	0.063500
4.116667	1	0.066250
4.133333	1	0.068500
4.150000	1	0.070125
4.166667	1	0.072375
4.183333	1	0.074875
4.200000	1	0.077000
4.216667	1	0.079625
4.233333	1	0.082250
4.250000	1	0.084625
4.266667	1	0.087125
4.283333	1	0.089375
4.300000	1	0.092250
4.316667	1	0.094500
4.333333	1	0.096625
4.350000	1	0.099125
4.366667	1	0.101375
4.383333	1	0.104000
4.400000	1	0.106125
4.416667	1	0.108000
4.433333	1	0.110000
4.450000	1	0.112750
4.466667	1	0.114625
4.483333	1	0.116375
4.500000	1	0.118750
4.516667	1	0.120875
4.533333	1	0.122875
4.550000	1	0.124500
4.566667	1	0.126500
4.583333	1	0.129000
4.600000	1	0.130750
4.616667	1	0.132500
4.633333	1	0.134750
4.650000	1	0.136625
4.666667	1	0.139000
4.683333	1	0.141125
4.700000	1	0.142875
4.716667	1	0.145125
4.733333	1	0.146625
4.750000	1	0.148625
4.766667	1	0.151250
4.783333	1	0.153375
4.800000	1	0.155625
4.816667	1	0.157625
4.833333	1	0.160625
4.850000	1	0.163250
4.866667	1	0.166000
4.883333	1	0.168500
4.900000	1	0.170750
4.916667	1	0.173000
4.933333	1	0.175625
4.950000	1	0.178375
4.966667	1	0.181500
4.983333	1	0.184000
5.000000	1	0.186875
5.016667	1	0.190250
5.033333	1	0.193250
5.050000	1	0.196375
5.066667	1	0.198625
5.083333	1	0.201750
5.100000	1	0.204625
5.116667	1	0.207750
5.133333	1	0.210625
5.150000	1	0.213875
5.166667	1	0.217750
5.183333	1	0.220375
5.200000	1	0.223500
5.216667	1	0.226375
5.233333	1	0.228750
5.250000	1	0.231750
5.266667	1	0.234500
5.283333	1	0.237125
5.300000	1	0.240375
5.316667	1	0.242250
5.333333	1	0.244125
5.350000	1	0.246125
5.366667	1	0.248625
5.383333	1	0.250250
5.400000	1	0.252125
5.416667	1	0.253250
5.433333	1	0.254000
5.450000	1	0.255375
5.466667	1	0.255750
5.483333	1	0.256125
5.500000	1	0.255875
5.516667	1	0.255750
5.533333	1	0.255375
5.550000	1	0.255375
5.566667	1	0.254750
5.583333	1	0.253750
5.600000	1	0.252750
5.616667	1	0.251375
5.633333	1	0.249750
5.650000	1	0.248125
5.666667	1	0.246500
5.683333	1	0.244500
5.700000	1	0.242125
5.716667	1	0.239625
5.733333	1	0.237125
5.750000	1	0.234250
5.766667	1	0.231875
5.783333	1	0.229750
5.800000	1	0.227000
5.816667	1	0.224250
5.833333	1	0.221250
5.850000	1	0.218250
5.866667	1	0.215625
5.883333	1	0.213000
5.900000	1	0.209750
5.916667	1	0.206625
5.933333	1	0.202750
5.950000	1	0.200250
5.966667	1	0.196875
5.983333	1	0.193125
6.000000	1	0.190000
6.016667	1	0.187000
6.033333	1	0.183500
6.050000	1	0.180500
6.066667	1	0.176750
6.083333	1	0.173125
6.100000	1	0.169875
6.116667	1	0.167125
6.133333	1	0.163875
6.150000	1	0.159625
6.166667	1	0.156000
6.183333	1	0.152625
6.200000	1	0.149375
6.216667	1	0.145625
6.233333	1	0.142125
6.250000	1	0.138875
6.266667	1	0.135625
6.283333	1	0.132375
6.300000	1	0.128500
6.316667	1	0.125625
6.333333	1	0.123250
6.350000	1	0.120750
6.366667	1	0.118000
6.383333	1	0.115250
6.400000	1	0.113250
6.416667	1	0.111000
6.433333	1	0.109000
6.450000	1	0.107625
6.466667	1	0.105375
6.483333	1	0.103625
6.500000	1	0.102625
6.516667	1	0.101000
6.533333	1	0.100250
6.550000	1	0.098750
6.566667	1	0.097625
6.583333	1	0.095625
6.600000	1	0.095000
6.616667	1	0.094250
6.633333	1	0.094250
6.650000	1	0.094000
6.666667	1	0.094000
6.683333	1	0.093875
6.700000	1	0.093750
6.716667	1	0.093875
6.733333	1	0.093875
6.750000	1	0.095000
6.766667	1	0.095625
6.783333	1	0.096125
6.800000	1	0.097500
6.816667	1	0.098125
6.833333	1	0.098625
6.850000	1	0.099375
6.866667	1	0.100125
6.883333	1	0.101500
6.900000	1	0.102750
6.916667	1	0.104500
6.933333	1	0.105625
6.950000	1	0.106750
6.966667	1	0.108500
6.983333	1	0.110250
7.000000	1	0.112000
7.016667	1	0.113500
7.033333	1	0.115625
7.050000	1	0.117875
7.066667	1	0.119625
7.083333	1	0.121375
7.100000	1	0.122750
7.116667	1	0.124375
7.133333	1	0.126375
7.150000	1	0.128250
7.166667	1	0.130250
7.183333	1	0.131375
7.200000	1	0.132375
7.216667	1	0.133750
7.233333	1	0.135000
7.250000	1	0.136000
7.266667	1	0.137000
7.283333	1	0.138750
7.300000	1	0.139625
7.316667	1	0.140125
7.333333	1	0.140625
7.350000	1	0.141125
7.366667	1	0.141125
7.383333	1	0.140875
7.400000	1	0.140625
7.416667	1	0.139375
7.433333	1	0.139375
7.450000	1	0.138000
7.466667	1	0.136875
7.483333	1	0.135375
7.500000	1	0.133875
7.516667	1	0.132500
7.533333	1	0.130625
7.550000	1	0.128000
7.566667	1	0.125000
7.583333	1	0.122000
7.600000	1	0.119375
7.616667	1	0.116750
7.633333	1	0.113625
7.650000	1	0.110375
7.666667	1	0.106125
7.683333	1	0.102750
7.700000	1	0.098500
7.716667	1	0.094750
7.733333	1	0.090875
7.750000	1	0.087375
7.766667	1	0.083750
7.783333	1	0.079750
7.800000	1	0.075750
7.816667	1	0.071625
7.833333	1	0.067000
7.850000	1	0.063375
7.866667	1	0.059750
7.883333	1	0.056250
7.900000	1	0.053000
7.916667	1	0.050250
7.933333	1	0.047375
7.950000	1	0.044750
7.966667	1	0.041750
7.983333	1	0.039125
8.000000	1	0.037125
8.016667	1	0.035375
8.033333	1	0.033750
8.050000	1	0.032000
8.066667	1	0.029750
8.083333	1	0.027750
8.100000	1	0.027000
8.116667	1	0.025500
8.133333	1	0.024500
8.150000	1	0.023000
8.166667	1	0.022875
8.183333	1	0.021875
8.200000	1	0.020000
8.216667	1	0.019250
8.233333	1	0.018625
8.250000	1	0.017250
8.266667	1	0.016000
8.283333	1	0.014375
8.300000	1	0.013250
8.316667	1	0.012500
8.333333	1	0.011250
8.350000	1	0.009375
8.366667	1	0.008000
8.383333	1	0.006625
8.400000	1	0.004625
8.416667	1	0.002875
8.433333	1	0.001000
8.450000	1	-0.000125
8.466667	1	-0.001750
8.483333	1	-0.003250
8.500000	1	-0.005125
8.516667	1	-0.006875
8.533333	1	-0.008250
8.550000	1	-0.009250
8.566667	1	-0.010875
8.583333	1	-0.012000
8.600000	1	-0.013750
8.616667	1	-0.014875
8.633333	1	-0.015500
8.650000	1	-0.016750
8.666667	1	-0.017500
8.683333	1	-0.018750
8.700000	1	-0.019625
8.716667	1	-0.020500
8.733333	1	-0.021125
8.750000	1	-0.021875
8.766667	1	-0.022500
8.783333	1	-0.022875
8.800000	1	-0.023500
8.816667	1	-0.023750
8.833333	1	-0.024750
8.850000	1	-0.025250
8.866667	1	-0.025750
8.883333	1	-0.026125
8.900000	1	-0.026500
8.916667	1	-0.026875
8.933333	1	-0.027375
8.950000	1	-0.027500
8.966667	1	-0.028125
8.983333	1	-0.028750
9.000000	1	-0.029125
9.016667	1	-0.029875
9.033333	1	-0.030375
9.050000	1	-0.031625
9.066667	1	-0.032375
9.083333	1	-0.032875
9.100000	1	-0.034000
9.116667	1	-0.034875
9.133333	1	-0.035875
9.150000	1	-0.036625
9.166667	1	-0.037625
9.183333	1	-0.038750
9.200000	1	-0.040500
9.216667	1	-0.041375
9.233333	1	-0.042000
9.250000	1	-0.043375
9.266667	1	-0.043875
9.283333	1	-0.045125
9.300000	1	-0.045500
9.316667	1	-0.046750
9.333333	1	-0.047875
9.350000	1	-0.048750
9.366667	1	-0.049125
9.383333	1	-0.049250
9.400000	1	-0.049875
9.416667	1	-0.050750
9.433333	1	-0.051125
9.450000	1	-0.051375
9.466667	1	-0.051250
9.483333	1	-0.050625
9.500000	1	-0.050750
9.516667	1	-0.050750
9.533333	1	-0.050500
9.550000	1	-0.050750
9.566667	1	-0.050750
9.583333	1	-0.050125
9.600000	1	-0.049250
9.616667	1	-0.048375
9.633333	1	-0.048000
9.650000	1	-0.048125
9.666667	1	-0.047375
9.683333	1	-0.047000
9.700000	1	-0.047000
9.716667	1	-0.046750
9.733333	1	-0.046250
9.750000	1	-0.045875
9.766667	1	-0.045625
9.783333	1	-0.045625
9.800000	1	-0.045625
9.816667	1	-0.045125
9.833333	1	-0.045375
9.850000	1	-0.045625
9.866667	1	-0.046125
9.883333	1	-0.046000
9.900000	1	-0.045750
9.916667	1	-0.045750
9.933333	1	-0.045375
9.950000	1	-0.044625
9.966667	1	-0.044250
9.983333	1	-0.043625
10.000000	1	-0.043125
10.016667	1	-0.042750
10.033333	1	-0.042125
10.050000	1	-0.040875
10.066667	1	-0.039375
10.083333	1	-0.037250
10.100000	1	-0.033875
10.116667	1	-0.029625
10.133333	1	-0.025250
10.150000	1	-0.020000
10.166667	1	-0.014125
10.183333	1	-0.006750
10.200000	1	0.001000
10.216667	1	0.010500
10.233333	1	0.022375
10.250000	1	0.036000
10.266667	1	0.050750
10.283333	1	0.068125
10.300000	1	0.087750
10.316667	1	0.109500
10.333333	1	0.133625
10.350000	1	0.159500
10.366667	1	0.186250
10.383333	1	0.211875
10.400000	1	0.234625
10.416667	1	0.251625
10.433333	1	0.262250
10.450000	1	0.266000
10.466667	1	0.265375
10.483333	1	0.267500
10.500000	1	0.286125
10.516667	1	0.339500
10.533333	1	0.456500
10.550000	1	0.674625
10.566667	1	1.039875
10.583333	1	1.605500
10.600000	1	2.426250
10.616667	1	3.554625
10.633333	1	5.036750
10.650000	1	6.905625
10.666667	1	9.182000
10.683333	1	11.873000
10.700000	1	14.969250
10.716667	1	18.444500
10.733333	1	22.253000
10.750000	1	26.325750
10.766667	1	30.561125
10.783333	1	34.827750
10.800000	1	38.948125
10.816667	1	42.683875
10.833333	1	45.741875
10.850000	1	47.802625
10.866667	1	48.574375
10.883333	1	47.863375
10.900000	1	45.655875
10.916667	1	42.148875
10.933333	1	37.713750
10.950000	1	32.800500
10.966667	1	27.836750
10.983333	1	23.149625
11.000000	1	18.945875
11.016667	1	15.323625
11.033333	1	12.302375
11.050000	1	9.846000
11.066667	1	7.888375
11.083333	1	6.353625
11.100000	1	5.165250
11.116667	1	4.253000
11.133333	1	3.555875
11.150000	1	3.024500
11.166667	1	2.619250
11.183333	1	2.311875
11.200000	1	2.076250
11.216667	1	1.896125
11.233333	1	1.758000
11.250000	1	1.651250
11.266667	1	1.567500
11.283333	1	1.499625
11.300000	1	1.443125
11.316667	1	1.393875
11.333333	1	1.348500
11.350000	1	1.306625
11.366667	1	1.265875
11.383333	1	1.226375
11.400000	1	1.188250
11.416667	1	1.150875
11.433333	1	1.116250
11.450000	1	1.084625
11.466667	1	1.055500
11.483333	1	1.029750
11.500000	1	1.008000
11.516667	1	0.990250
11.533333	1	0.976375
11.550000	1	0.966625
11.566667	1	0.960750
11.583333	1	0.959125
11.600000	1	0.962250
11.616667	1	0.969625
11.633333	1	0.981000
11.650000	1	0.996375
11.666667	1	1.016000
11.683333	1	1.038375
11.700000	1	1.063250
11.716667	1	1.088750
11.733333	1	1.114625
11.750000	1	1.139000
11.766667	1	1.160250
11.783333	1	1.177375
11.800000	1	1.190875
11.816667	1	1.198375
11.833333	1	1.200500
11.850000	1	1.197500
11.866667	1	1.189500
11.883333	1	1.176875
11.900000	1	1.162125
11.916667	1	1.145125
11.933333	1	1.126625
11.950000	1	1.108250
11.966667	1	1.090875
11.983333	1	1.073875
12.000000	1	1.058125
12.016667	1	1.044625
12.033333	1	1.032750
12.050000	1	1.022625
12.066667	1	1.016000
12.083333	1	1.010375
12.100000	1	1.005625
12.116667	1	1.002750
12.133333	1	1.001750
12.150000	1	1.001750
12.166667	1	1.003875
12.183333	1	1.007000
12.200000	1	1.013000
12.216667	1	1.020625
12.233333	1	1.032375
12.250000	1	1.047750
12.266667	1	1.069625
12.283333	1	1.099375
12.300000	1	1.139625
12.316667	1	1.194250
12.333333	1	1.268875
12.350000	1	1.369000
12.366667	1	1.504000
12.383333	1	1.684250
12.400000	1	1.925500
12.416667	1	2.245750
12.433333	1	2.669500
12.450000	1	3.230375
12.466667	1	3.967500
12.483333	1	4.933000
12.500000	1	6.183875
12.516667	1	7.789125
12.533333	1	9.823000
12.550000	1	12.359625
12.566667	1	15.464875
12.583333	1	19.192375
12.600000	1	23.563125
12.616667	1	28.550250
12.633333	1	34.089500
12.650000	1	40.060625
12.666667	1	46.289750
12.683333	1	52.544750
12.700000	1	58.555500
12.716667	1	64.035250
12.733333	1	68.707750
12.750000	1	72.336250
12.766667	1	74.749125
12.783333	1	75.855375
12.800000	1	75.654125
12.816667	1	74.233625
12.833333	1	71.751625
12.850000	1	68.419250
12.866667	1	64.480000
12.883333	1	60.185750
12.900000	1	55.779375
12.916667	1	51.470125
12.933333	1	47.426750
12.950000	1	43.768500
12.966667	1	40.570000
12.983333	1	37.864375
13.000000	1	35.653125
13.016667	1	33.913375
13.033333	1	32.605125
13.050000	1	31.683000
13.066667	1	31.099000
13.083333	1	30.805250
13.100000	1	30.758125
13.116667	1	30.918500
13.133333	1	31.250500
13.150000	1	31.725500
13.166667	1	32.319375
13.183333	1	33.011625
13.200000	1	33.784500
13.216667	1	34.626000
13.233333	1	35.525875
13.250000	1	36.476500
13.266667	1	37.471875
13.283333	1	38.508000
13.300000	1	39.580000
13.316667	1	40.685625
13.333333	1	41.822875
13.350000	1	42.989250
13.366667	1	44.184750
13.383333	1	45.407500
13.400000	1	46.658000
13.416667	1	47.936625
13.433333	1	49.243500
13.450000	1	50.580000
13.466667	1	51.948000
13.483333	1	53.346625
13.500000	1	54.776250
13.516667	1	56.236125
13.533333	1	57.728500
13.550000	1	59.251375
13.566667	1	60.806000
13.583333	1	62.390625
13.600000	1	64.006000
13.616667	1	65.653250
13.633333	1	67.334625
13.650000	1	69.051125
13.666667	1	70.804125
13.683333	1	72.592500
13.700000	1	74.405875
13.716667	1	76.212875
13.733333	1	77.927250
13.750000	1	79.405875
13.766667	1	80.464750
13.783333	1	80.923625
13.800000	1	80.635875
13.816667	1	79.491000
13.833333	1	77.381500
13.850000	1	74.173875
13.866667	1	69.711250
13.883333	1	63.907250
13.900000	1	56.893625
13.916667	1	49.119000
13.933333	1	41.232625
13.950000	1	33.859875
13.966667	1	27.417875
13.983333	1	22.062500
14.000000	1	17.755250
14.016667	1	14.358250
14.033333	1	11.715875
14.050000	1	9.685000
14.066667	1	8.145250
14.083333	1	6.990375
14.100000	1	6.131625
14.116667	1	5.493750
14.133333	1	5.017500
14.150000	1	4.657000
14.166667	1	4.380250
14.183333	1	4.162625
14.200000	1	3.987500
14.216667	1	3.842625
14.233333	1	3.720875
14.250000	1	3.616000
14.266667	1	3.523250
14.283333	1	3.440625
14.300000	1	3.366625
14.316667	1	3.298375
14.333333	1	3.235750
14.350000	1	3.178000
14.366667	1	3.125625
14.383333	1	3.076375
14.400000	1	3.031125
14.416667	1	2.989250
14.433333	1	2.950750
14.450000	1	2.915750
14.466667	1	2.882250
14.483333	1	2.851375
14.500000	1	2.822500
14.516667	1	2.795500
14.533333	1	2.769375
14.550000	1	2.744625
14.566667	1	2.721250
14.583333	1	2.698375
14.600000	1	2.676375
14.616667	1	2.655250
14.633333	1	2.634875
14.650000	1	2.614125
14.666667	1	2.594750
14.683333	1	2.576500
14.700000	1	2.560250
14.716667	1	2.546125
14.733333	1	2.534125
14.750000	1	2.523500
14.766667	1	2.517125
14.783333	1	2.511500
14.800000	1	2.506875
14.816667	1	2.503000
14.833333	1	2.498500
14.850000	1	2.492125
14.866667	1	2.483500
14.883333	1	2.470875
14.900000	1	2.454125
14.916667	1	2.430250
14.933333	1	2.401375
14.950000	1	2.367875
14.966667	1	2.329500
14.983333	1	2.286750
15.000000	1	2.241000
15.016667	1	2.194250
15.033333	1	2.146000
15.050000	1	2.098375
15.066667	1	2.051000
15.083333	1	2.005875
15.100000	1	1.962375
15.116667	1	1.923000
15.133333	1	1.886125
15.150000	1	1.852250
15.166667	1	1.821375
15.183333	1	1.793875
15.200000	1	1.769625
15.216667	1	1.748375
15.233333	1	1.729625
15.250000	1	1.713750
15.266667	1	1.700375
15.283333	1	1.690875
15.300000	1	1.684125
15.316667	1	1.681625
15.333333	1	1.682750
15.350000	1	1.688750
15.366667	1	1.699375
15.383333	1	1.715250
15.400000	1	1.736125
15.416667	1	1.760875
15.433333	1	1.790875
15.450000	1	1.822750
15.466667	1	1.857250
15.483333	1	1.890875
15.500000	1	1.923375
15.516667	1	1.951250
15.533333	1	1.974000
15.550000	1	1.989375
15.566667	1	1.996500
15.583333	1	1.995250
15.600000	1	1.985500
15.616667	1	1.966625
15.633333	1	1.940750
15.650000	1	1.908375
15.666667	1	1.871250
15.683333	1	1.831375
15.700000	1	1.789250
15.716667	1	1.747000
15.733333	1	1.705250
15.750000	1	1.664875
15.766667	1	1.626125
15.783333	1	1.588625
15.800000	1	1.553625
15.816667	1	1.520500
15.833333	1	1.487875
15.850000	1	1.457125
15.866667	1	1.427125
15.883333	1	1.398125
15.900000	1	1.370625
15.916667	1	1.345125
15.933333	1	1.321000
15.950000	1	1.299125
15.966667	1	1.278875
15.983333	1	1.260250
16.000000	1	1.245125
16.016667	1	1.231500
16.033333	1	1.220500
16.050000	1	1.210875
16.066667	1	1.203500
16.083333	1	1.197875
16.100000	1	1.193500
16.116667	1	1.190750
16.133333	1	1.189375
16.150000	1	1.188000
16.166667	1	1.187375
16.183333	1	1.186875
16.200000	1	1.186500
16.216667	1	1.185875
16.233333	1	1.185125
16.250000	1	1.183125
16.266667	1	1.180375
16.283333	1	1.177375
16.300000	1	1.173250
16.316667	1	1.168500
16.333333	1	1.163625
16.350000	1	1.158000
16.366667	1	1.151250
16.383333	1	1.144500
16.400000	1	1.137625
16.416667	1	1.131750
16.433333	1	1.126250
16.450000	1	1.120500
16.466667	1	1.117125
16.483333	1	1.115625
16.500000	1	1.115500
16.516667	1	1.117500
16.533333	1	1.121250
16.550000	1	1.125625
16.566667	1	1.131625
16.583333	1	1.138875
16.600000	1	1.147000
16.616667	1	1.155625
16.633333	1	1.163250
16.650000	1	1.170625
16.666667	1	1.176750
16.683333	1	1.181750
16.700000	1	1.185375
16.716667	1	1.188125
16.733333	1	1.190500
16.750000	1	1.191750
16.766667	1	1.192625
16.783333	1	1.193375
16.800000	1	1.194875
16.816667	1	1.196375
16.833333	1	1.198000
16.850000	1	1.200750
16.866667	1	1.203875
16.883333	1	1.207500
16.900000	1	1.210250
16.916667	1	1.213125
16.933333	1	1.215375
16.950000	1	1.216750
16.966667	1	1.217875
16.983333	1	1.217500
17.000000	1	1.215750
17.016667	1	1.213000
17.033333	1	1.209500
17.050000	1	1.205375
17.066667	1	1.200750
17.083333	1	1.196750
17.100000	1	1.192250
17.116667	1	1.188125
17.133333	1	1.184750
17.150000	1	1.182875
17.166667	1	1.182250
17.183333	1	1.183000
17.200000	1	1.184750
17.216667	1	1.188250
17.233333	1	1.192375
17.250000	1	1.198125
17.266667	1	1.204750
17.283333	1	1.212000
17.300000	1	1.220500
17.316667	1	1.230250
17.333333	1	1.240250
17.350000	1	1.250500
17.366667	1	1.260500
17.383333	1	1.270625
17.400000	1	1.279375
17.416667	1	1.288000
17.433333	1	1.294750
17.450000	1	1.299000
17.466667	1	1.302500
17.483333	1	1.303750
17.500000	1	1.303000
17.516667	1	1.299625
17.533333	1	1.294500
17.550000	1	1.286875
17.566667	1	1.277500
17.583333	1	1.265750
17.600000	1	1.252500
17.616667	1	1.237875
17.633333	1	1.222375
17.650000	1	1.205875
17.666667	1	1.188250
17.683333	1	1.170625
17.700000	1	1.152875
17.716667	1	1.135500
17.733333	1	1.118375
17.750000	1	1.101750
17.766667	1	1.086375
17.783333	1	1.070625
17.800000	1	1.054875
17.816667	1	1.040000
17.833333	1	1.025125
17.850000	1	1.010625
17.866667	1	0.997375
17.883333	1	0.984500
17.900000	1	0.971125
17.916667	1	0.958375
17.933333	1	0.946125
17.950000	1	0.934625
17.966667	1	0.922750
17.983333	1	0.911750
18.000000	1	0.900875
18.016667	1	0.889875
18.033333	1	0.879875
18.050000	1	0.868875
18.066667	1	0.859250
18.083333	1	0.849125
18.100000	1	0.839375
18.116667	1	0.829875
18.133333	1	0.820250
18.150000	1	0.812250
18.166667	1	0.804750
18.183333	1	0.796875
18.200000	1	0.790125
18.216667	1	0.784500
18.233333	1	0.778750
18.250000	1	0.774750
18.266667	1	0.771500
18.283333	1	0.768875
18.300000	1	0.766250
18.316667	1	0.764875
18.333333	1	0.763250
18.350000	1	0.762125
18.366667	1	0.761500
18.383333	1	0.761750
18.400000	1	0.762250
18.416667	1	0.762875
18.433333	1	0.764500
18.450000	1	0.766750
18.466667	1	0.769875
18.483333	1	0.774625
18.500000	1	0.780500
18.516667	1	0.788500
18.533333	1	0.797500
18.550000	1	0.808375
18.566667	1	0.821000
18.583333	1	0.836000
18.600000	1	0.853250
18.616667	1	0.873625
18.633333	1	0.895250
18.650000	1	0.918625
18.666667	1	0.944000
18.683333	1	0.971500
18.700000	1	1.000375
18.716667	1	1.031500
18.733333	1	1.064125
18.750000	1	1.097250
18.766667	1	1.131500
18.783333	1	1.165750
18.800000	1	1.201000
18.816667	1	1.235125
18.833333	1	1.267875
18.850000	1	1.298125
18.866667	1	1.326500
18.883333	1	1.351125
18.900000	1	1.371625
18.916667	1	1.387125
18.933333	1	1.397625
18.950000	1	1.401375
18.966667	1	1.399875
18.983333	1	1.390375
19.000000	1	1.375250
19.016667	1	1.352000
19.033333	1	1.323000
19.050000	1	1.288750
19.066667	1	1.248625
19.083333	1	1.204625
19.100000	1	1.157500
19.116667	1	1.108000
19.133333	1	1.056875
19.150000	1	1.005750
19.166667	1	0.956875
19.183333	1	0.909000
19.200000	1	0.863875
19.216667	1	0.822000
19.233333	1	0.784500
19.250000	1	0.751375
19.266667	1	0.722750
19.283333	1	0.699125
19.300000	1	0.681375
19.316667	1	0.669625
19.333333	1	0.662500
19.350000	1	0.661250
19.366667	1	0.664875
19.383333	1	0.673875
19.400000	1	0.688125
19.416667	1	0.706625
19.433333	1	0.728875
19.450000	1	0.754750
19.466667	1	0.783500
19.483333	1	0.814625
19.500000	1	0.846000
19.516667	1	0.878875
19.533333	1	0.910500
19.550000	1	0.939750
19.566667	1	0.965875
19.583333	1	0.988875
19.600000	1	1.006750
19.616667	1	1.019500
19.633333	1	1.026625
19.650000	1	1.027625
19.666667	1	1.022125
19.683333	1	1.012000
19.700000	1	0.996250
19.716667	1	0.975125
19.733333	1	0.950875
19.750000	1	0.923125
19.766667	1	0.892750
19.783333	1	0.861000
19.800000	1	0.828000
19.816667	1	0.794375
19.833333	1	0.762250
19.850000	1	0.730750
19.866667	1	0.700875
19.883333	1	0.673000
19.900000	1	0.646250
19.916667	1	0.622750
19.933333	1	0.601125
19.950000	1	0.581875
19.966667	1	0.565125
19.983333	1	0.550875
20.000000	1	0.539625
20.016667	1	0.530750
20.033333	1	0.523375
20.050000	1	0.518375
20.066667	1	0.515375
20.083333	1	0.515125
20.100000	1	0.516875
20.116667	1	0.520375
20.133333	1	0.526125
20.150000	1	0.534875
20.166667	1	0.544375
20.183333	1	0.555375
20.200000	1	0.568500
20.216667	1	0.582500
20.233333	1	0.597625
20.250000	1	0.612875
20.266667	1	0.627000
20.283333	1	0.641625
20.300000	1	0.654625
20.316667	1	0.666750
20.333333	1	0.676250
20.350000	1	0.683250
20.366667	1	0.687500
20.383333	1	0.688250
20.400000	1	0.686375
20.416667	1	0.680875
20.433333	1	0.673500
20.450000	1	0.664000
20.466667	1	0.653125
20.483333	1	0.641625
20.500000	1	0.630250
20.516667	1	0.620875
20.533333	1	0.612875
20.550000	1	0.606625
20.566667	1	0.605375
20.583333	1	0.609375
20.600000	1	0.619375
20.616667	1	0.636000
20.633333	1	0.659500
20.650000	1	0.690125
20.666667	1	0.727625
20.683333	1	0.773250
20.700000	1	0.825750
20.716667	1	0.885375
20.733333	1	0.950625
20.750000	1	1.020125
20.766667	1	1.093125
20.783333	1	1.167375
20.800000	1	1.240375
20.816667	1	1.310250
20.833333	1	1.374750
20.850000	1	1.431000
20.866667	1	1.477250
20.883333	1	1.511750
20.900000	1	1.534125
20.916667	1	1.542625
20.933333	1	1.537750
20.950000	1	1.519875
20.966667	1	1.488875
20.983333	1	1.445750
21.000000	1	1.393125
21.016667	1	1.332250
21.033333	1	1.266125
21.050000	1	1.195375
21.066667	1	1.121875
21.083333	1	1.048750
21.100000	1	0.976875
21.116667	1	0.907375
21.133333	1	0.842125
21.150000	1	0.780875
21.166667	1	0.724625
21.183333	1	0.673000
21.200000	1	0.626625
21.216667	1	0.585875
21.233333	1	0.549750
21.250000	1	0.518500
21.266667	1	0.490750
21.283333	1	0.467000
21.300000	1	0.447000
21.316667	1	0.430750
21.333333	1	0.416250
21.350000	1	0.404750
21.366667	1	0.395250
21.383333	1	0.387000
21.400000	1	0.380875
21.416667	1	0.376125
21.433333	1	0.372375
21.450000	1	0.369125
21.466667	1	0.367750
21.483333	1	0.367625
21.500000	1	0.368375
21.516667	1	0.371125
21.533333	1	0.374125
21.550000	1	0.378375
21.566667	1	0.384625
21.583333	1	0.392750
21.600000	1	0.403500
21.616667	1	0.416875
21.633333	1	0.432000
21.650000	1	0.450000
21.666667	1	0.470625
21.683333	1	0.495875
21.700000	1	0.524500
21.716667	1	0.557500
21.733333	1	0.594500
21.750000	1	0.635625
21.766667	1	0.681375
21.783333	1	0.730625
21.800000	1	0.784000
21.816667	1	0.840750
21.833333	1	0.900375
21.850000	1	0.963000
21.866667	1	1.027000
21.883333	1	1.091625
21.900000	1	1.156125
21.916667	1	1.219125
21.933333	1	1.278625
21.950000	1	1.333625
21.966667	1	1.382625
21.983333	1	1.425875
22.000000	1	1.461375
22.016667	1	1.487875
22.033333	1	1.505000
22.050000	1	1.512750
22.066667	1	1.510125
22.083333	1	1.499000
22.100000	1	1.477750
22.116667	1	1.448000
22.133333	1	1.410375
22.150000	1	1.366250
22.166667	1	1.316125
22.183333	1	1.262125
22.200000	1	1.204750
22.216667	1	1.145125
22.233333	1	1.084000
22.250000	1	1.023375
22.266667	1	0.963875
22.283333	1	0.905375
22.300000	1	0.848125
22.316667	1	0.793250
22.333333	1	0.741750
22.350000	1	0.692875
22.366667	1	0.646625
22.383333	1	0.603250
22.400000	1	0.563500
22.416667	1	0.527000
22.433333	1	0.493625
22.450000	1	0.462875
22.466667	1	0.434875
22.483333	1	0.409500
22.500000	1	0.387625
22.516667	1	0.367125
22.533333	1	0.348375
22.550000	1	0.332125
22.566667	1	0.317750
22.583333	1	0.304500
22.600000	1	0.292750
22.616667	1	0.282375
22.633333	1	0.273375
22.650000	1	0.265000
22.666667	1	0.258125
22.683333	1	0.251500
22.700000	1	0.245500
22.716667	1	0.240500
22.733333	1	0.236625
22.750000	1	0.232500
22.766667	1	0.227625
22.783333	1	0.223750
22.800000	1	0.220125
22.816667	1	0.216625
22.833333	1	0.214125
22.850000	1	0.211750
22.866667	1	0.209500
22.883333	1	0.207000
22.900000	1	0.204500
22.916667	1	0.202875
22.933333	1	0.201000
22.950000	1	0.199750
22.966667	1	0.198750
22.983333	1	0.197500
23.000000	1	0.197375
23.016667	1	0.197250
23.033333	1	0.197500
23.050000	1	0.198500
23.066667	1	0.199125
23.083333	1	0.199875
23.100000	1	0.201375
23.116667	1	0.203375
23.133333	1	0.205250
23.150000	1	0.207125
23.166667	1	0.209625
23.183333	1	0.211750
23.200000	1	0.214875
23.216667	1	0.218500
23.233333	1	0.222625
23.250000	1	0.227250
23.266667	1	0.232625
23.283333	1	0.239000
23.300000	1	0.246750
23.316667	1	0.256000
23.333333	1	0.268125
23.350000	1	0.282000
23.366667	1	0.299000
23.383333	1	0.319375
23.400000	1	0.344750
23.416667	1	0.375875
23.433333	1	0.412250
23.450000	1	0.456125
23.466667	1	0.507875
23.483333	1	0.568875
23.500000	1	0.639375
23.516667	1	0.721625
23.533333	1	0.816875
23.550000	1	0.926000
23.566667	1	1.050250
23.583333	1	1.188375
23.600000	1	1.342750
23.616667	1	1.513000
23.633333	1	1.699500
23.650000	1	1.900750
23.666667	1	2.116125
23.683333	1	2.343250
23.700000	1	2.579375
23.716667	1	2.822625
23.733333	1	3.069875
23.750000	1	3.316000
23.766667	1	3.555500
23.783333	1	3.784500
23.800000	1	3.998375
23.816667	1	4.191875
23.833333	1	4.361250
23.850000	1	4.501750
23.866667	1	4.611375
23.883333	1	4.687000
23.900000	1	4.726500
23.916667	1	4.729875
23.933333	1	4.696625
23.950000	1	4.628625
23.966667	1	4.528250
23.983333	1	4.398500
24.000000	1	4.242750
24.016667	1	4.065125
24.033333	1	3.870375
24.050000	1	3.663000
24.066667	1	3.447250
24.083333	1	3.226125
24.100000	1	3.004500
24.116667	1	2.785375
24.133333	1	2.571750
24.150000	1	2.365875
24.166667	1	2.169375
24.183333	1	1.983625
24.200000	1	1.809625
24.216667	1	1.649125
24.233333	1	1.501875
24.250000	1	1.367000
24.266667	1	1.244000
24.283333	1	1.133500
24.300000	1	1.034125
24.316667	1	0.945375
24.333333	1	0.867625
24.350000	1	0.798500
24.366667	1	0.737375
24.383333	1	0.684625
24.400000	1	0.638750
24.416667	1	0.599375
24.433333	1	0.565875
24.450000	1	0.537250
24.466667	1	0.513250
24.483333	1	0.492875
24.500000	1	0.475375
24.516667	1	0.460750
24.533333	1	0.448750
24.550000	1	0.438625
24.566667	1	0.429875
24.583333	1	0.422125
24.600000	1	0.416125
24.616667	1	0.409125
24.633333	1	0.402625
24.650000	1	0.396500
24.666667	1	0.391000
24.683333	1	0.384875
24.700000	1	0.379250
24.716667	1	0.373500
24.733333	1	0.366125
24.750000	1	0.358750
24.766667	1	0.352625
24.783333	1	0.345250
24.800000	1	0.338250
24.816667	1	0.331375
24.833333	1	0.325000
24.850000	1	0.318000
24.866667	1	0.311125
24.883333	1	0.304500
24.900000	1	0.298000
24.916667	1	0.291250
24.933333	1	0.285375
24.950000	1	0.279625
24.966667	1	0.274500
24.983333	1	0.269375
25.000000	1	0.264250
25.016667	1	0.259250
25.033333	1	0.255125
25.050000	1	0.250500
25.066667	1	0.246500
25.083333	1	0.242875
25.100000	1	0.238625
25.116667	1	0.234500
25.133333	1	0.230875
25.150000	1	0.226500
25.166667	1	0.222750
25.183333	1	0.219250
25.200000	1	0.215500
25.216667	1	0.211375
25.233333	1	0.207375
25.250000	1	0.203750
25.266667	1	0.199500
25.283333	1	0.196500
25.300000	1	0.193125
25.316667	1	0.189500
25.333333	1	0.185750
25.350000	1	0.182500
25.366667	1	0.179250
25.383333	1	0.176375
25.400000	1	0.174125
25.416667	1	0.171375
25.433333	1	0.169250
25.450000	1	0.167125
25.466667	1	0.164625
25.483333	1	0.162750
25.500000	1	0.160375
25.516667	1	0.159375
25.533333	1	0.157750
25.550000	1	0.157000
25.566667	1	0.155500
25.583333	1	0.154625
25.600000	1	0.153875
25.616667	1	0.153375
25.633333	1	0.153125
25.650000	1	0.153500
25.666667	1	0.153375
25.683333	1	0.153125
25.700000	1	0.153750
25.716667	1	0.154375
25.733333	1	0.155125
25.750000	1	0.155500
25.766667	1	0.156500
25.783333	1	0.156875
25.800000	1	0.157875
25.816667	1	0.159250
25.833333	1	0.160875
25.850000	1	0.162500
25.866667	1	0.164750
25.883333	1	0.167375
25.900000	1	0.170250
25.916667	1	0.173625
25.933333	1	0.177625
25.950000	1	0.181750
25.966667	1	0.185375
25.983333	1	0.188500
26.000000	1	0.192375
26.016667	1	0.197375
26.033333	1	0.202250
26.050000	1	0.207375
26.066667	1	0.212000
26.083333	1	0.217375
26.100000	1	0.222625
26.116667	1	0.228000
26.133333	1	0.232750
26.150000	1	0.237500
26.166667	1	0.241500
26.183333	1	0.245375
26.200000	1	0.249250
26.216667	1	0.252000
26.233333	1	0.253375
26.250000	1	0.255500
26.266667	1	0.256500
26.283333	1	0.257875
26.300000	1	0.257875
26.316667	1	0.256750
26.333333	1	0.255250
26.350000	1	0.252875
26.366667	1	0.250125
26.383333	1	0.246750
26.400000	1	0.242875
26.416667	1	0.238750
26.433333	1	0.234125
26.450000	1	0.228625
26.466667	1	0.223375
26.483333	1	0.217500
26.500000	1	0.211250
26.516667	1	0.205750
26.533333	1	0.200125
26.550000	1	0.193625
26.566667	1	0.187750
26.583333	1	0.181375
26.600000	1	0.174375
26.616667	1	0.168250
26.633333	1	0.162500
26.650000	1	0.156625
26.666667	1	0.151500
26.683333	1	0.146875
26.700000	1	0.142750
26.716667	1	0.138500
26.733333	1	0.134125
26.750000	1	0.129750
26.766667	1	0.126625
26.783333	1	0.123625
26.800000	1	0.121250
26.816667	1	0.119000
26.833333	1	0.118125
26.850000	1	0.116375
26.866667	1	0.115000
26.883333	1	0.114500
26.900000	1	0.114375
26.916667	1	0.114625
26.933333	1	0.115000
26.950000	1	0.116125
26.966667	1	0.117125
26.983333	1	0.118375
27.000000	1	0.120750
27.016667	1	0.123125
27.033333	1	0.126250
27.050000	1	0.130250
27.066667	1	0.135000
27.083333	1	0.140125
27.100000	1	0.146375
27.116667	1	0.153125
27.133333	1	0.160250
27.150000	1	0.169250
27.166667	1	0.179125
27.183333	1	0.191625
27.200000	1	0.204750
27.216667	1	0.220500
27.233333	1	0.238250
27.250000	1	0.258875
27.266667	1	0.282125
27.283333	1	0.309500
27.300000	1	0.340625
27.316667	1	0.376000
27.333333	1	0.416500
27.350000	1	0.462250
27.366667	1	0.513875
27.383333	1	0.571625
27.400000	1	0.637000
27.416667	1	0.710250
27.433333	1	0.791500
27.450000	1	0.881750
27.466667	1	0.980625
27.483333	1	1.089500
27.500000	1	1.208375
27.516667	1	1.337000
27.533333	1	1.475125
27.550000	1	1.622250
27.566667	1	1.778000
27.583333	1	1.942250
27.600000	1	2.112750
27.616667	1	2.289375
27.633333	1	2.469750
27.650000	1	2.653625
27.666667	1	2.837500
27.683333	1	3.019000
27.700000	1	3.196750
27.716667	1	3.367000
27.733333	1	3.527625
27.750000	1	3.676000
27.766667	1	3.810000
27.783333	1	3.926125
27.800000	1	4.023250
27.816667	1	4.099500
27.833333	1	4.152625
27.850000	1	4.181250
27.866667	1	4.185500
27.883333	1	4.165000
27.900000	1	4.119625
27.916667	1	4.049625
27.933333	1	3.957500
27.950000	1	3.844000
27.966667	1	3.712000
27.983333	1	3.563375
28.000000	1	3.401500
28.016667	1	3.228875
28.033333	1	3.048750
28.050000	1	2.862875
28.066667	1	2.673875
28.083333	1	2.485375
28.100000	1	2.299375
28.116667	1	2.118125
28.133333	1	1.943750
28.150000	1	1.777000
28.166667	1	1.618875
28.183333	1	1.471250
28.200000	1	1.334000
28.216667	1	1.206500
28.233333	1	1.091125
28.250000	1	0.986000
28.266667	1	0.890750
28.283333	1	0.805125
28.300000	1	0.728875
28.316667	1	0.662375
28.333333	1	0.603375
28.350000	1	0.552625
28.366667	1	0.509125
28.383333	1	0.472625
28.400000	1	0.441875
28.416667	1	0.416625
28.433333	1	0.396625
28.450000	1	0.381625
28.466667	1	0.369625
28.483333	1	0.361250
28.500000	1	0.356750
28.516667	1	0.355125
28.533333	1	0.355625
28.550000	1	0.358125
28.566667	1	0.362375
28.583333	1	0.368500
28.600000	1	0.376375
28.616667	1	0.385125
28.633333	1	0.394750
28.650000	1	0.404750
28.666667	1	0.415625
28.683333	1	0.425875
28.700000	1	0.435875
28.716667	1	0.445875
28.733333	1	0.455125
28.750000	1	0.464500
28.766667	1	0.473125
28.783333	1	0.481000
28.800000	1	0.487625
28.816667	1	0.494000
28.833333	1	0.499250
28.850000	1	0.503125
28.866667	1	0.505875
28.883333	1	0.507125
28.900000	1	0.507625
28.916667	1	0.507125
28.933333	1	0.505125
28.950000	1	0.502250
28.966667	1	0.497500
28.983333	1	0.492125
29.000000	1	0.485500
29.016667	1	0.477750
29.033333	1	0.469500
29.050000	1	0.460750
29.066667	1	0.450875
29.083333	1	0.440125
29.100000	1	0.427875
29.116667	1	0.415625
29.133333	1	0.403000
29.150000	1	0.389750
29.166667	1	0.376750
29.183333	1	0.363625
29.200000	1	0.349375
29.216667	1	0.335750
29.233333	1	0.322500
29.250000	1	0.308875
29.266667	1	0.295250
29.283333	1	0.281625
29.300000	1	0.268500
29.316667	1	0.255250
29.333333	1	0.244000
29.350000	1	0.232125
29.366667	1	0.221375
29.383333	1	0.210000
29.400000	1	0.199500
29.416667	1	0.189375
29.433333	1	0.180125
29.450000	1	0.171625
29.466667	1	0.163125
29.483333	1	0.155250
29.500000	1	0.147375
29.516667	1	0.140250
29.533333	1	0.133625
29.550000	1	0.127000
29.566667	1	0.121625
29.583333	1	0.116250
29.600000	1	0.111625
29.616667	1	0.107125
29.633333	1	0.102625
29.650000	1	0.099500
29.666667	1	0.095125
29.683333	1	0.091500
29.700000	1	0.088500
29.716667	1	0.085250
29.733333	1	0.082750
29.750000	1	0.079750
29.766667	1	0.078125
29.783333	1	0.076000
29.800000	1	0.074125
29.816667	1	0.072375
29.833333	1	0.070750
29.850000	1	0.069250
29.866667	1	0.067500
29.883333	1	0.065750
29.900000	1	0.064625
29.916667	1	0.063500
29.933333	1	0.062500
29.950000	1	0.061250
29.966667	1	0.060375
29.983333	1	0.059625
30.000000	1	0.058000
30.016667	1	0.056875
30.033333	1	0.056250
30.050000	1	0.055500
30.066667	1	0.054625
30.083333	1	0.053375
30.100000	1	0.052500
30.116667	1	0.050875
30.133333	1	0.050375
30.150000	1	0.049250
30.166667	1	0.047875
30.183333	1	0.047125
30.200000	1	0.046750
30.216667	1	0.045750
30.233333	1	0.044375
30.250000	1	0.042750
30.266667	1	0.041500
30.283333	1	0.040500
30.300000	1	0.039875
30.316667	1	0.038875
30.333333	1	0.038000
30.350000	1	0.037875
30.366667	1	0.037375
30.383333	1	0.037000
30.400000	1	0.036500
30.416667	1	0.036750
30.433333	1	0.037000
30.450000	1	0.037875
30.466667	1	0.038375
30.483333	1	0.039500
30.500000	1	0.041625
30.516667	1	0.043375
30.533333	1	0.044500
30.550000	1	0.047625
30.566667	1	0.051000
30.583333	1	0.054500
30.600000	1	0.058000
30.616667	1	0.062750
30.633333	1	0.067750
30.650000	1	0.073375
30.666667	1	0.080125
30.683333	1	0.087000
30.700000	1	0.094875
30.716667	1	0.103750
30.733333	1	0.112875
30.750000	1	0.122000
30.766667	1	0.132750
30.783333	1	0.144250
30.800000	1	0.157500
30.816667	1	0.171250
30.833333	1	0.186375
30.850000	1	0.202125
30.866667	1	0.220000
30.883333	1	0.239875
30.900000	1	0.261625
30.916667	1	0.285250
30.933333	1	0.311750
30.950000	1	0.340250
30.966667	1	0.372125
30.983333	1	0.408000
31.000000	1	0.447250
31.016667	1	0.491625
31.033333	1	0.538625
31.050000	1	0.591375
31.066667	1	0.649000
31.083333	1	0.712125
31.100000	1	0.781250
31.116667	1	0.856250
31.133333	1	0.937125
31.150000	1	1.023625
31.166667	1	1.116875
31.183333	1	1.217000
31.200000	1	1.322625
31.216667	1	1.434375
31.233333	1	1.551875
31.250000	1	1.673125
31.266667	1	1.798375
31.283333	1	1.926875
31.300000	1	2.056000
31.316667	1	2.186000
31.333333	1	2.315625
31.350000	1	2.443250
31.366667	1	2.567250
31.383333	1	2.687250
31.400000	1	2.800375
31.416667	1	2.905125
31.433333	1	3.000875
31.450000	1	3.086500
31.466667	1	3.160125
31.483333	1	3.220875
31.500000	1	3.268000
31.516667	1	3.300375
31.533333	1	3.318750
31.550000	1	3.321500
31.566667	1	3.310250
31.583333	1	3.283875
31.600000	1	3.244750
31.616667	1	3.190875
31.633333	1	3.124000
31.650000	1	3.046375
31.666667	1	2.957500
31.683333	1	2.859875
31.700000	1	2.754625
31.716667	1	2.643000
31.733333	1	2.526125
31.750000	1	2.406625
31.766667	1	2.284500
31.783333	1	2.160750
31.800000	1	2.036125
31.816667	1	1.913125
31.833333	1	1.792250
31.850000	1	1.674250
31.866667	1	1.560250
31.883333	1	1.450500
31.900000	1	1.346000
31.916667	1	1.246500
31.933333	1	1.152000
31.950000	1	1.063000
31.966667	1	0.979625
31.983333	1	0.902125
32.000000	1	0.829875
32.016667	1	0.763000
32.033333	1	0.701375
32.050000	1	0.644500
32.066667	1	0.593125
32.083333	1	0.544625
32.100000	1	0.500625
32.116667	1	0.459625
32.133333	1	0.422000
32.150000	1	0.388875
32.166667	1	0.357875
32.183333	1	0.330000
32.200000	1	0.303750
32.216667	1	0.279625
32.233333	1	0.257375
32.250000	1	0.237375
32.266667	1	0.218750
32.283333	1	0.200750
32.300000	1	0.183875
32.316667	1	0.168875
32.333333	1	0.154250
32.350000	1	0.140875
32.366667	1	0.128375
32.383333	1	0.116500
32.400000	1	0.105125
32.416667	1	0.094750
32.433333	1	0.085125
32.450000	1	0.075875
32.466667	1	0.066125
32.483333	1	0.058125
32.500000	1	0.049875
32.516667	1	0.042875
32.533333	1	0.036250
32.550000	1	0.030000
32.566667	1	0.023000
32.583333	1	0.017375
32.600000	1	0.012750
32.616667	1	0.007875
32.633333	1	0.003250
32.650000	1	-0.000500
32.666667	1	-0.004000
32.683333	1	-0.007375
32.700000	1	-0.009875
32.716667	1	-0.012750
32.733333	1	-0.015125
32.750000	1	-0.017125
32.766667	1	-0.019375
32.783333	1	-0.021375
32.800000	1	-0.023000
32.816667	1	-0.024625
32.833333	1	-0.026625
32.850000	1	-0.028750
32.866667	1	-0.029500
32.883333	1	-0.030375
32.900000	1	-0.031250
32.916667	1	-0.031250
32.933333	1	-0.031250
32.950000	1	-0.032000
32.966667	1	-0.032375
32.983333	1	-0.032875
33.000000	1	-0.032500
33.016667	1	-0.031875
33.033333	1	-0.031625
33.050000	1	-0.031375
33.066667	1	-0.030625
33.083333	1	-0.029125
33.100000	1	-0.027000
33.116667	1	-0.025500
33.133333	1	-0.024125
33.150000	1	-0.022375
33.166667	1	-0.019875
33.183333	1	-0.016625
33.200000	1	-0.014250
33.216667	1	-0.010250
33.233333	1	-0.006500
33.250000	1	-0.001250
33.266667	1	0.004375
33.283333	1	0.010125
33.300000	1	0.015875
33.316667	1	0.023500
33.333333	1	0.032500
33.350000	1	0.042000
33.366667	1	0.052625
33.383333	1	0.064500
33.400000	1	0.077250
33.416667	1	0.092500
33.433333	1	0.108875
33.450000	1	0.127250
33.466667	1	0.147125
33.483333	1	0.169125
33.500000	1	0.193500
33.516667	1	0.220250
33.533333	1	0.249375
33.550000	1	0.281125
33.566667	1	0.315500
33.583333	1	0.352750
33.600000	1	0.392750
33.616667	1	0.435375
33.633333	1	0.481125
33.650000	1	0.529125
33.666667	1	0.580000
33.683333	1	0.634250
33.700000	1	0.690375
33.716667	1	0.749500
33.733333	1	0.810250
33.750000	1	0.872625
33.766667	1	0.937250
33.783333	1	1.002750
33.800000	1	1.069250
33.816667	1	1.135250
33.833333	1	1.200750
33.850000	1	1.265125
33.866667	1	1.328500
33.883333	1	1.389250
33.900000	1	1.446625
33.916667	1	1.501125
33.933333	1	1.551500
33.950000	1	1.597500
33.966667	1	1.637875
33.983333	1	1.673375
34.000000	1	1.702125
34.016667	1	1.724250
34.033333	1	1.740125
34.050000	1	1.750500
34.066667	1	1.752875
34.083333	1	1.748375
34.100000	1	1.738000
34.116667	1	1.720375
34.133333	1	1.697125
34.150000	1	1.667500
34.166667	1	1.632875
34.183333	1	1.593000
34.200000	1	1.549500
34.216667	1	1.501500
34.233333	1	1.449875
34.250000	1	1.395875
34.266667	1	1.338875
34.283333	1	1.281250
34.300000	1	1.221750
34.316667	1	1.162000
34.333333	1	1.102250
34.350000	1	1.042500
34.366667	1	0.984375
34.383333	1	0.927000
34.400000	1	0.871500
34.416667	1	0.817500
34.433333	1	0.764500
34.450000	1	0.714875
34.466667	1	0.666750
34.483333	1	0.621500
34.500000	1	0.578625
34.516667	1	0.537875
34.533333	1	0.500750
34.550000	1	0.465000
34.566667	1	0.432000
34.583333	1	0.401500
34.600000	1	0.373375
34.616667	1	0.347250
34.633333	1	0.323375
34.650000	1	0.301625
34.666667	1	0.280625
34.683333	1	0.262000
34.700000	1	0.245375
34.716667	1	0.229750
34.733333	1	0.215750
34.750000	1	0.202875
34.766667	1	0.191000
34.783333	1	0.180750
34.800000	1	0.170375
34.816667	1	0.161750
34.833333	1	0.154000
34.850000	1	0.146250
34.866667	1	0.139250
34.883333	1	0.132500
34.900000	1	0.127375
34.916667	1	0.122000
34.933333	1	0.117125
34.950000	1	0.112500
34.966667	1	0.108625
34.983333	1	0.104875
35.000000	1	0.101875
35.016667	1	0.097750
35.033333	1	0.094375
35.050000	1	0.091625
35.066667	1	0.089250
35.083333	1	0.087375
35.100000	1	0.085250
35.116667	1	0.083500
35.133333	1	0.081750
35.150000	1	0.079875
35.166667	1	0.079000
35.183333	1	0.078875
35.200000	1	0.078000
35.216667	1	0.077500
35.233333	1	0.076875
35.250000	1	0.076875
35.266667	1	0.077000
35.283333	1	0.077250
35.300000	1	0.077125
35.316667	1	0.077500
35.333333	1	0.078375
35.350000	1	0.078625
35.366667	1	0.079375
35.383333	1	0.079875
35.400000	1	0.080625
35.416667	1	0.081125
35.433333	1	0.082000
35.450000	1	0.083375
35.466667	1	0.084750
35.483333	1	0.086125
35.500000	1	0.087000
35.516667	1	0.088500
35.533333	1	0.089750
35.550000	1	0.091375
35.566667	1	0.093000
35.583333	1	0.094125
35.600000	1	0.094750
35.616667	1	0.095375
35.633333	1	0.097000
35.650000	1	0.097500
35.666667	1	0.098500
35.683333	1	0.099625
35.700000	1	0.100625
35.716667	1	0.102250
35.733333	1	0.103250
35.750000	1	0.104000
35.766667	1	0.104875
35.783333	1	0.106000
35.800000	1	0.106625
35.816667	1	0.107500
35.833333	1	0.108000
35.850000	1	0.108625
35.866667	1	0.108375
35.883333	1	0.108750
35.900000	1	0.108875
35.916667	1	0.108750
35.933333	1	0.108375
35.950000	1	0.108625
35.966667	1	0.108000
35.983333	1	0.107500
36.000000	1	0.107250
36.016667	1	0.106875
36.033333	1	0.106375
36.050000	1	0.105375
36.066667	1	0.105000
36.083333	1	0.104000
36.100000	1	0.103250
36.116667	1	0.102500
36.133333	1	0.102625
36.150000	1	0.101875
36.166667	1	0.101125
36.183333	1	0.100000
36.200000	1	0.098750
36.216667	1	0.097875
36.233333	1	0.096625
36.250000	1	0.095625
36.266667	1	0.095375
36.283333	1	0.094500
36.300000	1	0.093500
36.316667	1	0.092750
36.333333	1	0.092125
36.350000	1	0.090375
36.366667	1	0.089250
36.383333	1	0.087875
36.400000	1	0.086500
36.416667	1	0.085125
36.433333	1	0.084000
36.450000	1	0.081750
36.466667	1	0.079750
36.483333	1	0.077875
36.500000	1	0.075750
36.516667	1	0.073750
36.533333	1	0.071750
36.550000	1	0.069250
36.566667	1	0.066125
36.583333	1	0.063375
36.600000	1	0.060375
36.616667	1	0.057250
36.633333	1	0.053750
36.650000	1	0.051250
36.666667	1	0.048375
36.683333	1	0.044750
36.700000	1	0.041625
36.716667	1	0.038125
36.733333	1	0.035000
36.750000	1	0.031625
36.766667	1	0.028000
36.783333	1	0.025500
36.800000	1	0.022375
36.816667	1	0.019000
36.833333	1	0.015875
36.850000	1	0.012875
36.866667	1	0.009875
36.883333	1	0.007250
36.900000	1	0.005250
36.916667	1	0.003500
36.933333	1	0.001375
36.950000	1	-0.000875
36.966667	1	-0.003250
36.983333	1	-0.005500
37.000000	1	-0.006750
37.016667	1	-0.008625
37.033333	1	-0.009750
37.050000	1	-0.011250
37.066667	1	-0.011625
37.083333	1	-0.012875
37.100000	1	-0.013875
37.116667	1	-0.014500
37.133333	1	-0.014875
37.150000	1	-0.015625
37.166667	1	-0.016375
37.183333	1	-0.016875
37.200000	1	-0.016625
37.216667	1	-0.016625
37.233333	1	-0.017500
37.250000	1	-0.018000
37.266667	1	-0.018000
37.283333	1	-0.017625
37.300000	1	-0.018000
37.316667	1	-0.017250
37.333333	1	-0.017625
37.350000	1	-0.016625
37.366667	1	-0.016750
37.383333	1	-0.016125
37.400000	1	-0.016625
37.416667	1	-0.016750
37.433333	1	-0.017000
37.450000	1	-0.017750
37.466667	1	-0.017625
37.483333	1	-0.017625
37.500000	1	-0.016375
37.516667	1	-0.016250
37.533333	1	-0.015625
37.550000	1	-0.015375
37.566667	1	-0.015250
37.583333	1	-0.014750
37.600000	1	-0.013875
37.616667	1	-0.013250
37.633333	1	-0.012750
37.650000	1	-0.012125
37.666667	1	-0.011125
37.683333	1	-0.010375
37.700000	1	-0.009375
37.716667	1	-0.008500
37.733333	1	-0.008500
37.750000	1	-0.007250
37.766667	1	-0.006000
37.783333	1	-0.005000
37.800000	1	-0.003875
37.816667	1	-0.003250
37.833333	1	-0.002000
37.850000	1	-0.001375
37.866667	1	0.000000
37.883333	1	0.000875
37.900000	1	0.002000
37.916667	1	0.003625
37.933333	1	0.004750
37.950000	1	0.006000
37.966667	1	0.007250
37.983333	1	0.008875
38.000000	1	0.010500
38.016667	1	0.011625
38.033333	1	0.013375
38.050000	1	0.015000
38.066667	1	0.016500
38.083333	1	0.018000
38.100000	1	0.020250
38.116667	1	0.021375
38.133333	1	0.022625
38.150000	1	0.022875
38.166667	1	0.023875
38.183333	1	0.025875
38.200000	1	0.027750
38.216667	1	0.028625
38.233333	1	0.029875
38.250000	1	0.030250
38.266667	1	0.031250
38.283333	1	0.032125
38.300000	1	0.032500
38.316667	1	0.033375
38.333333	1	0.033625
38.350000	1	0.033625
38.366667	1	0.033500
38.383333	1	0.033375
38.400000	1	0.033875
38.416667	1	0.034000
38.433333	1	0.034125
38.450000	1	0.034250
38.466667	1	0.034000
38.483333	1	0.033625
38.500000	1	0.033500
38.516667	1	0.033250
38.533333	1	0.033125
38.550000	1	0.033000
38.566667	1	0.032125
38.583333	1	0.032375
38.600000	1	0.032000
38.616667	1	0.032000
38.633333	1	0.032125
38.650000	1	0.032125
38.666667	1	0.031500
38.683333	1	0.031125
38.700000	1	0.030750
38.716667	1	0.030625
38.733333	1	0.030000
38.750000	1	0.030000
38.766667	1	0.029625
38.783333	1	0.029750
38.800000	1	0.030000
38.816667	1	0.030375
38.833333	1	0.031625
38.850000	1	0.032250
38.866667	1	0.033125
38.883333	1	0.033375
38.900000	1	0.034375
38.916667	1	0.035125
38.933333	1	0.035500
38.950000	1	0.036000
38.966667	1	0.036375
38.983333	1	0.036875
39.000000	1	0.037500
39.016667	1	0.037750
39.033333	1	0.038875
39.050000	1	0.039125
39.066667	1	0.039000
39.083333	1	0.040125
39.100000	1	0.040375
39.116667	1	0.040750
39.133333	1	0.040750
39.150000	1	0.040500
39.166667	1	0.040125
39.183333	1	0.040875
39.200000	1	0.040875
39.216667	1	0.040500
39.233333	1	0.039875
39.250000	1	0.039375
39.266667	1	0.039125
39.283333	1	0.038125
39.300000	1	0.037375
39.316667	1	0.036625
39.333333	1	0.035625
39.350000	1	0.035125
39.366667	1	0.034125
39.383333	1	0.033000
39.400000	1	0.031875
39.416667	1	0.031000
39.433333	1	0.030125
39.450000	1	0.029375
39.466667	1	0.028750
39.483333	1	0.028375
39.500000	1	0.027000
39.516667	1	0.025750
39.533333	1	0.024500
39.550000	1	0.023500
39.566667	1	0.022125
39.583333	1	0.021000
39.600000	1	0.019875
39.616667	1	0.018375
39.633333	1	0.017125
39.650000	1	0.016875
39.666667	1	0.016875
39.683333	1	0.016000
39.700000	1	0.015250
39.716667	1	0.015000
39.733333	1	0.014500
39.750000	1	0.014500
39.766667	1	0.014750
39.783333	1	0.014750
39.800000	1	0.014250
39.816667	1	0.014375
39.833333	1	0.014875
39.850000	1	0.015375
39.866667	1	0.016000
39.883333	1	0.016125
39.900000	1	0.017625
39.916667	1	0.017750
39.933333	1	0.018500
39.950000	1	0.018750
39.966667	1	0.019625
39.983333	1	0.020250
40.000000	1	0.020875
