URL	chrom://bioreactor/micro_cm7/HPLC_Ultimate_3000/Users/markusar/20240716_MA_pHrange2.seq/230.smp/RI_1.channel/RI_1.chm
Channel	RI_1

Injection Information:
Data Vault	micro_cm7
Sequence	20240716_MA_pHrange2
Name	Fp2_25H_4
Number	45
Position	BD9
Comment	
Processing Method	
Instrument Method	run_25B_method
Type	Unknown
Status	Finished
Inject Time	18.07.2024 00:09:06 +02:00
Volume (µl)	20.0000
Dilution Factor	1.0000
Weight	1.0000

Chromatogram Data Information:
Time Min. (min)	0.000000
Time Max. (min)	40.000000
Data Points	2401
Detector	RI
Generating Data System	Chromeleon 7.3.2.11814
Exporting Data System	Chromeleon 7.3.2.0
Operator	Instrument Controller
Signal Quantity	Refractive 
Signal Unit	µRIU
Signal Min.	-0.015750
Signal Max.	83.906000
Channel	RI_1
Driver Name	RID520Driver.dll
Channel Type	Evaluation
Min. Step (s)	1
Max. Step (s)	1
Average Step (s)	1

Signal Parameter Information:
Signal Info	

Chromatogram Data:
Time (min)	Step (s)	Value (µRIU)
0.000000	n.a.	0.069500
0.016667	1	0.068625
0.033333	1	0.067625
0.050000	1	0.067500
0.066667	1	0.066875
0.083333	1	0.067000
0.100000	1	0.066375
0.116667	1	0.066125
0.133333	1	0.065875
0.150000	1	0.065125
0.166667	1	0.064625
0.183333	1	0.064375
0.200000	1	0.064250
0.216667	1	0.063875
0.233333	1	0.063500
0.250000	1	0.063500
0.266667	1	0.063250
0.283333	1	0.063375
0.300000	1	0.064000
0.316667	1	0.063875
0.333333	1	0.064125
0.350000	1	0.064000
0.366667	1	0.063125
0.383333	1	0.062500
0.400000	1	0.062750
0.416667	1	0.062875
0.433333	1	0.063750
0.450000	1	0.065375
0.466667	1	0.066875
0.483333	1	0.067875
0.500000	1	0.068375
0.516667	1	0.069250
0.533333	1	0.069625
0.550000	1	0.068875
0.566667	1	0.066875
0.583333	1	0.065625
0.600000	1	0.064250
0.616667	1	0.063000
0.633333	1	0.062625
0.650000	1	0.062125
0.666667	1	0.061875
0.683333	1	0.062750
0.700000	1	0.062750
0.716667	1	0.062625
0.733333	1	0.062875
0.750000	1	0.063375
0.766667	1	0.063625
0.783333	1	0.063750
0.800000	1	0.064375
0.816667	1	0.064750
0.833333	1	0.065750
0.850000	1	0.066125
0.866667	1	0.066625
0.883333	1	0.067375
0.900000	1	0.067875
0.916667	1	0.068625
0.933333	1	0.069750
0.950000	1	0.071000
0.966667	1	0.071875
0.983333	1	0.072625
1.000000	1	0.073250
1.016667	1	0.074125
1.033333	1	0.075250
1.050000	1	0.076125
1.066667	1	0.077125
1.083333	1	0.078625
1.100000	1	0.079750
1.116667	1	0.080625
1.133333	1	0.081375
1.150000	1	0.082000
1.166667	1	0.082250
1.183333	1	0.082625
1.200000	1	0.082875
1.216667	1	0.084125
1.233333	1	0.084500
1.250000	1	0.084750
1.266667	1	0.085625
1.283333	1	0.086375
1.300000	1	0.086625
1.316667	1	0.087000
1.333333	1	0.087250
1.350000	1	0.087500
1.366667	1	0.087625
1.383333	1	0.087500
1.400000	1	0.088375
1.416667	1	0.088250
1.433333	1	0.087875
1.450000	1	0.088125
1.466667	1	0.087875
1.483333	1	0.087875
1.500000	1	0.087875
1.516667	1	0.087625
1.533333	1	0.087125
1.550000	1	0.086750
1.566667	1	0.086750
1.583333	1	0.086750
1.600000	1	0.086000
1.616667	1	0.085875
1.633333	1	0.085125
1.650000	1	0.084500
1.666667	1	0.084000
1.683333	1	0.083250
1.700000	1	0.082875
1.716667	1	0.082625
1.733333	1	0.081875
1.750000	1	0.081750
1.766667	1	0.081000
1.783333	1	0.081000
1.800000	1	0.080250
1.816667	1	0.080125
1.833333	1	0.079625
1.850000	1	0.079875
1.866667	1	0.079750
1.883333	1	0.079500
1.900000	1	0.079250
1.916667	1	0.078625
1.933333	1	0.078125
1.950000	1	0.078500
1.966667	1	0.077875
1.983333	1	0.077625
2.000000	1	0.078125
2.016667	1	0.078375
2.033333	1	0.079000
2.050000	1	0.078375
2.066667	1	0.078625
2.083333	1	0.078875
2.100000	1	0.079375
2.116667	1	0.080125
2.133333	1	0.080750
2.150000	1	0.081750
2.166667	1	0.082500
2.183333	1	0.083250
2.200000	1	0.083500
2.216667	1	0.083750
2.233333	1	0.084125
2.250000	1	0.084875
2.266667	1	0.086375
2.283333	1	0.087375
2.300000	1	0.088000
2.316667	1	0.087750
2.333333	1	0.088500
2.350000	1	0.089750
2.366667	1	0.089750
2.383333	1	0.090625
2.400000	1	0.091625
2.416667	1	0.092250
2.433333	1	0.093250
2.450000	1	0.093625
2.466667	1	0.094125
2.483333	1	0.094125
2.500000	1	0.094000
2.516667	1	0.094875
2.533333	1	0.095375
2.550000	1	0.095125
2.566667	1	0.095250
2.583333	1	0.095125
2.600000	1	0.096000
2.616667	1	0.096000
2.633333	1	0.095875
2.650000	1	0.096250
2.666667	1	0.096500
2.683333	1	0.096875
2.700000	1	0.097250
2.716667	1	0.097000
2.733333	1	0.097000
2.750000	1	0.096500
2.766667	1	0.096375
2.783333	1	0.096000
2.800000	1	0.095750
2.816667	1	0.095500
2.833333	1	0.094625
2.850000	1	0.094250
2.866667	1	0.094000
2.883333	1	0.093250
2.900000	1	0.092625
2.916667	1	0.091875
2.933333	1	0.091125
2.950000	1	0.089375
2.966667	1	0.088000
2.983333	1	0.086875
3.000000	1	0.084875
3.016667	1	0.083500
3.033333	1	0.081375
3.050000	1	0.080500
3.066667	1	0.078750
3.083333	1	0.076750
3.100000	1	0.074625
3.116667	1	0.072750
3.133333	1	0.071250
3.150000	1	0.069000
3.166667	1	0.067500
3.183333	1	0.065500
3.200000	1	0.064500
3.216667	1	0.063125
3.233333	1	0.062375
3.250000	1	0.061375
3.266667	1	0.061250
3.283333	1	0.060875
3.300000	1	0.061000
3.316667	1	0.060750
3.333333	1	0.060875
3.350000	1	0.062000
3.366667	1	0.063250
3.383333	1	0.064750
3.400000	1	0.066500
3.416667	1	0.069000
3.433333	1	0.071375
3.450000	1	0.073750
3.466667	1	0.076500
3.483333	1	0.079375
3.500000	1	0.082750
3.516667	1	0.086000
3.533333	1	0.089750
3.550000	1	0.093000
3.566667	1	0.096625
3.583333	1	0.099875
3.600000	1	0.103000
3.616667	1	0.106750
3.633333	1	0.109750
3.650000	1	0.113500
3.666667	1	0.116500
3.683333	1	0.119500
3.700000	1	0.122250
3.716667	1	0.125125
3.733333	1	0.128125
3.750000	1	0.130875
3.766667	1	0.133375
3.783333	1	0.135875
3.800000	1	0.138000
3.816667	1	0.140125
3.833333	1	0.142250
3.850000	1	0.144375
3.866667	1	0.145750
3.883333	1	0.147125
3.900000	1	0.148375
3.916667	1	0.150000
3.933333	1	0.151625
3.950000	1	0.153000
3.966667	1	0.154500
3.983333	1	0.156375
4.000000	1	0.157250
4.016667	1	0.158250
4.033333	1	0.160125
4.050000	1	0.161125
4.066667	1	0.161875
4.083333	1	0.162625
4.100000	1	0.163875
4.116667	1	0.164750
4.133333	1	0.165625
4.150000	1	0.166625
4.166667	1	0.167500
4.183333	1	0.168625
4.200000	1	0.170375
4.216667	1	0.172125
4.233333	1	0.173500
4.250000	1	0.174625
4.266667	1	0.176000
4.283333	1	0.177375
4.300000	1	0.179125
4.316667	1	0.180750
4.333333	1	0.181875
4.350000	1	0.182750
4.366667	1	0.184500
4.383333	1	0.185125
4.400000	1	0.187000
4.416667	1	0.188500
4.433333	1	0.190500
4.450000	1	0.191875
4.466667	1	0.193500
4.483333	1	0.195250
4.500000	1	0.197000
4.516667	1	0.199000
4.533333	1	0.200500
4.550000	1	0.202500
4.566667	1	0.204625
4.583333	1	0.206750
4.600000	1	0.209000
4.616667	1	0.210750
4.633333	1	0.213000
4.650000	1	0.215625
4.666667	1	0.218000
4.683333	1	0.220625
4.700000	1	0.223250
4.716667	1	0.226000
4.733333	1	0.228500
4.750000	1	0.230625
4.766667	1	0.233500
4.783333	1	0.236750
4.800000	1	0.239250
4.816667	1	0.242500
4.833333	1	0.245875
4.850000	1	0.249000
4.866667	1	0.251750
4.883333	1	0.254750
4.900000	1	0.257875
4.916667	1	0.260625
4.933333	1	0.263625
4.950000	1	0.266500
4.966667	1	0.269750
4.983333	1	0.273125
5.000000	1	0.276500
5.016667	1	0.279125
5.033333	1	0.281875
5.050000	1	0.285125
5.066667	1	0.287750
5.083333	1	0.290625
5.100000	1	0.293375
5.116667	1	0.295875
5.133333	1	0.298500
5.150000	1	0.300750
5.166667	1	0.303125
5.183333	1	0.305125
5.200000	1	0.306375
5.216667	1	0.307750
5.233333	1	0.309000
5.250000	1	0.310000
5.266667	1	0.310875
5.283333	1	0.311375
5.300000	1	0.311250
5.316667	1	0.311875
5.333333	1	0.312250
5.350000	1	0.311750
5.366667	1	0.311000
5.383333	1	0.310750
5.400000	1	0.310000
5.416667	1	0.308750
5.433333	1	0.307375
5.450000	1	0.305750
5.466667	1	0.304000
5.483333	1	0.302000
5.500000	1	0.299500
5.516667	1	0.297250
5.533333	1	0.294500
5.550000	1	0.291500
5.566667	1	0.289250
5.583333	1	0.287000
5.600000	1	0.283750
5.616667	1	0.280750
5.633333	1	0.277750
5.650000	1	0.274375
5.666667	1	0.270875
5.683333	1	0.267375
5.700000	1	0.263875
5.716667	1	0.260250
5.733333	1	0.257125
5.750000	1	0.254250
5.766667	1	0.251250
5.783333	1	0.248500
5.800000	1	0.244750
5.816667	1	0.241250
5.833333	1	0.238000
5.850000	1	0.234875
5.866667	1	0.231625
5.883333	1	0.228625
5.900000	1	0.225625
5.916667	1	0.223125
5.933333	1	0.219250
5.950000	1	0.216750
5.966667	1	0.213875
5.983333	1	0.211750
6.000000	1	0.209000
6.016667	1	0.206250
6.033333	1	0.203875
6.050000	1	0.201125
6.066667	1	0.198375
6.083333	1	0.195375
6.100000	1	0.192750
6.116667	1	0.190125
6.133333	1	0.187875
6.150000	1	0.184750
6.166667	1	0.181875
6.183333	1	0.179750
6.200000	1	0.177875
6.216667	1	0.174875
6.233333	1	0.172750
6.250000	1	0.170250
6.266667	1	0.168250
6.283333	1	0.165750
6.300000	1	0.162625
6.316667	1	0.160250
6.333333	1	0.157625
6.350000	1	0.155375
6.366667	1	0.153625
6.383333	1	0.151250
6.400000	1	0.148375
6.416667	1	0.146500
6.433333	1	0.144500
6.450000	1	0.142625
6.466667	1	0.140875
6.483333	1	0.138875
6.500000	1	0.136625
6.516667	1	0.135625
6.533333	1	0.134625
6.550000	1	0.132875
6.566667	1	0.132250
6.583333	1	0.131125
6.600000	1	0.130000
6.616667	1	0.129500
6.633333	1	0.129000
6.650000	1	0.128250
6.666667	1	0.127750
6.683333	1	0.128125
6.700000	1	0.128375
6.716667	1	0.129000
6.733333	1	0.129125
6.750000	1	0.129375
6.766667	1	0.130500
6.783333	1	0.132375
6.800000	1	0.132875
6.816667	1	0.133875
6.833333	1	0.135250
6.850000	1	0.136625
6.866667	1	0.138125
6.883333	1	0.139750
6.900000	1	0.141250
6.916667	1	0.143000
6.933333	1	0.144750
6.950000	1	0.146750
6.966667	1	0.149750
6.983333	1	0.151750
7.000000	1	0.153375
7.016667	1	0.154875
7.033333	1	0.156750
7.050000	1	0.158250
7.066667	1	0.160500
7.083333	1	0.161625
7.100000	1	0.163625
7.116667	1	0.165000
7.133333	1	0.165875
7.150000	1	0.167250
7.166667	1	0.168000
7.183333	1	0.169000
7.200000	1	0.170000
7.216667	1	0.170750
7.233333	1	0.171125
7.250000	1	0.171000
7.266667	1	0.171000
7.283333	1	0.170625
7.300000	1	0.170250
7.316667	1	0.169625
7.333333	1	0.169000
7.350000	1	0.168375
7.366667	1	0.167625
7.383333	1	0.166375
7.400000	1	0.165250
7.416667	1	0.163375
7.433333	1	0.161250
7.450000	1	0.159500
7.466667	1	0.157000
7.483333	1	0.154875
7.500000	1	0.152500
7.516667	1	0.150125
7.533333	1	0.147625
7.550000	1	0.145250
7.566667	1	0.142750
7.583333	1	0.139375
7.600000	1	0.136125
7.616667	1	0.132875
7.633333	1	0.129750
7.650000	1	0.126250
7.666667	1	0.123375
7.683333	1	0.120250
7.700000	1	0.116750
7.716667	1	0.113375
7.733333	1	0.110500
7.750000	1	0.107125
7.766667	1	0.104125
7.783333	1	0.100875
7.800000	1	0.097625
7.816667	1	0.094500
7.833333	1	0.091500
7.850000	1	0.088375
7.866667	1	0.085000
7.883333	1	0.082000
7.900000	1	0.078750
7.916667	1	0.075875
7.933333	1	0.073125
7.950000	1	0.070625
7.966667	1	0.068125
7.983333	1	0.065250
8.000000	1	0.063500
8.016667	1	0.061375
8.033333	1	0.059000
8.050000	1	0.056500
8.066667	1	0.054375
8.083333	1	0.052750
8.100000	1	0.050750
8.116667	1	0.048500
8.133333	1	0.047000
8.150000	1	0.045625
8.166667	1	0.044250
8.183333	1	0.043625
8.200000	1	0.042375
8.216667	1	0.041250
8.233333	1	0.040625
8.250000	1	0.040250
8.266667	1	0.040125
8.283333	1	0.039875
8.300000	1	0.039375
8.316667	1	0.039625
8.333333	1	0.039750
8.350000	1	0.039750
8.366667	1	0.040375
8.383333	1	0.040750
8.400000	1	0.041125
8.416667	1	0.042125
8.433333	1	0.042500
8.450000	1	0.044375
8.466667	1	0.045750
8.483333	1	0.046125
8.500000	1	0.047125
8.516667	1	0.048250
8.533333	1	0.049875
8.550000	1	0.050375
8.566667	1	0.052125
8.583333	1	0.052750
8.600000	1	0.053875
8.616667	1	0.054875
8.633333	1	0.056125
8.650000	1	0.056500
8.666667	1	0.057375
8.683333	1	0.058250
8.700000	1	0.058250
8.716667	1	0.059250
8.733333	1	0.059375
8.750000	1	0.060500
8.766667	1	0.061000
8.783333	1	0.061125
8.800000	1	0.061625
8.816667	1	0.060875
8.833333	1	0.061250
8.850000	1	0.061000
8.866667	1	0.060500
8.883333	1	0.059625
8.900000	1	0.059375
8.916667	1	0.059000
8.933333	1	0.058125
8.950000	1	0.056875
8.966667	1	0.056000
8.983333	1	0.055000
9.000000	1	0.053500
9.016667	1	0.052000
9.033333	1	0.050375
9.050000	1	0.049125
9.066667	1	0.047375
9.083333	1	0.045375
9.100000	1	0.043875
9.116667	1	0.042500
9.133333	1	0.040250
9.150000	1	0.038625
9.166667	1	0.036375
9.183333	1	0.033750
9.200000	1	0.031625
9.216667	1	0.029250
9.233333	1	0.026750
9.250000	1	0.024750
9.266667	1	0.022125
9.283333	1	0.020125
9.300000	1	0.018375
9.316667	1	0.016750
9.333333	1	0.014000
9.350000	1	0.012250
9.366667	1	0.010000
9.383333	1	0.008625
9.400000	1	0.007250
9.416667	1	0.005875
9.433333	1	0.004375
9.450000	1	0.003000
9.466667	1	0.001250
9.483333	1	0.000250
9.500000	1	-0.000375
9.516667	1	-0.001000
9.533333	1	-0.001125
9.550000	1	-0.002000
9.566667	1	-0.002125
9.583333	1	-0.002375
9.600000	1	-0.002250
9.616667	1	-0.002875
9.633333	1	-0.003000
9.650000	1	-0.002500
9.666667	1	-0.001625
9.683333	1	-0.002000
9.700000	1	-0.002125
9.716667	1	-0.001375
9.733333	1	-0.000625
9.750000	1	0.000000
9.766667	1	0.000250
9.783333	1	0.000625
9.800000	1	0.001250
9.816667	1	0.002125
9.833333	1	0.002625
9.850000	1	0.004000
9.866667	1	0.004875
9.883333	1	0.005375
9.900000	1	0.005875
9.916667	1	0.006625
9.933333	1	0.007375
9.950000	1	0.008375
9.966667	1	0.009125
9.983333	1	0.009375
10.000000	1	0.010375
10.016667	1	0.011500
10.033333	1	0.012875
10.050000	1	0.014625
10.066667	1	0.016750
10.083333	1	0.019250
10.100000	1	0.021875
10.116667	1	0.024500
10.133333	1	0.028625
10.150000	1	0.033000
10.166667	1	0.038250
10.183333	1	0.044375
10.200000	1	0.050750
10.216667	1	0.059125
10.233333	1	0.068750
10.250000	1	0.079750
10.266667	1	0.091625
10.283333	1	0.105625
10.300000	1	0.121500
10.316667	1	0.138375
10.333333	1	0.156250
10.350000	1	0.173000
10.366667	1	0.185875
10.383333	1	0.192250
10.400000	1	0.187000
10.416667	1	0.166625
10.433333	1	0.129500
10.450000	1	0.079500
10.466667	1	0.024500
10.483333	1	-0.015750
10.500000	1	-0.013125
10.516667	1	0.071250
10.533333	1	0.285000
10.550000	1	0.685125
10.566667	1	1.329000
10.583333	1	2.274000
10.600000	1	3.575000
10.616667	1	5.274875
10.633333	1	7.404500
10.650000	1	9.986375
10.666667	1	13.032000
10.683333	1	16.545875
10.700000	1	20.515625
10.716667	1	24.922250
10.733333	1	29.734875
10.750000	1	34.912750
10.766667	1	40.400000
10.783333	1	46.140875
10.800000	1	52.059750
10.816667	1	58.057250
10.833333	1	63.988250
10.850000	1	69.658500
10.866667	1	74.776000
10.883333	1	78.939375
10.900000	1	81.630375
10.916667	1	82.297875
10.933333	1	80.497000
10.950000	1	76.087500
10.966667	1	69.360875
10.983333	1	61.005500
11.000000	1	51.919375
11.016667	1	42.965750
11.033333	1	34.782500
11.050000	1	27.704875
11.066667	1	21.835125
11.083333	1	17.113625
11.100000	1	13.405250
11.116667	1	10.544125
11.133333	1	8.365125
11.150000	1	6.722000
11.166667	1	5.488875
11.183333	1	4.565000
11.200000	1	3.870250
11.216667	1	3.344500
11.233333	1	2.943750
11.250000	1	2.635250
11.266667	1	2.394750
11.283333	1	2.203250
11.300000	1	2.048125
11.316667	1	1.920625
11.333333	1	1.813500
11.350000	1	1.721250
11.366667	1	1.640875
11.383333	1	1.569875
11.400000	1	1.506375
11.416667	1	1.449500
11.433333	1	1.398500
11.450000	1	1.353375
11.466667	1	1.312750
11.483333	1	1.278000
11.500000	1	1.248250
11.516667	1	1.222625
11.533333	1	1.201875
11.550000	1	1.185750
11.566667	1	1.173250
11.583333	1	1.166000
11.600000	1	1.163375
11.616667	1	1.164750
11.633333	1	1.170125
11.650000	1	1.180250
11.666667	1	1.194500
11.683333	1	1.212625
11.700000	1	1.234000
11.716667	1	1.257375
11.733333	1	1.282500
11.750000	1	1.306875
11.766667	1	1.330250
11.783333	1	1.350625
11.800000	1	1.367750
11.816667	1	1.380000
11.833333	1	1.386500
11.850000	1	1.387000
11.866667	1	1.382500
11.883333	1	1.373000
11.900000	1	1.360000
11.916667	1	1.342875
11.933333	1	1.323750
11.950000	1	1.303125
11.966667	1	1.282500
11.983333	1	1.262375
12.000000	1	1.243375
12.016667	1	1.225625
12.033333	1	1.210000
12.050000	1	1.196000
12.066667	1	1.184125
12.083333	1	1.174500
12.100000	1	1.167375
12.116667	1	1.161750
12.133333	1	1.157625
12.150000	1	1.153750
12.166667	1	1.151875
12.183333	1	1.151125
12.200000	1	1.151500
12.216667	1	1.154250
12.233333	1	1.158625
12.250000	1	1.165750
12.266667	1	1.177000
12.283333	1	1.192750
12.300000	1	1.216000
12.316667	1	1.249625
12.333333	1	1.298750
12.350000	1	1.369125
12.366667	1	1.469625
12.383333	1	1.612000
12.400000	1	1.810125
12.416667	1	2.085000
12.433333	1	2.462000
12.450000	1	2.972250
12.466667	1	3.654125
12.483333	1	4.553750
12.500000	1	5.725375
12.516667	1	7.226500
12.533333	1	9.121000
12.550000	1	11.472000
12.566667	1	14.339000
12.583333	1	17.769625
12.600000	1	21.790125
12.616667	1	26.399375
12.633333	1	31.568250
12.650000	1	37.227875
12.666667	1	43.261125
12.683333	1	49.496875
12.700000	1	55.720625
12.716667	1	61.685625
12.733333	1	67.126000
12.750000	1	71.792000
12.766667	1	75.455750
12.783333	1	77.944000
12.800000	1	79.152000
12.816667	1	79.056625
12.833333	1	77.712875
12.850000	1	75.251250
12.866667	1	71.863625
12.883333	1	67.789375
12.900000	1	63.284125
12.916667	1	58.601125
12.933333	1	53.967625
12.950000	1	49.572250
12.966667	1	45.556125
12.983333	1	42.010625
13.000000	1	38.985125
13.016667	1	36.487250
13.033333	1	34.499125
13.050000	1	32.982375
13.066667	1	31.891000
13.083333	1	31.172250
13.100000	1	30.775125
13.116667	1	30.649375
13.133333	1	30.750750
13.150000	1	31.039250
13.166667	1	31.482000
13.183333	1	32.051750
13.200000	1	32.724750
13.216667	1	33.483750
13.233333	1	34.314875
13.250000	1	35.208625
13.266667	1	36.155750
13.283333	1	37.149750
13.300000	1	38.184625
13.316667	1	39.257250
13.333333	1	40.364500
13.350000	1	41.504000
13.366667	1	42.674875
13.383333	1	43.875875
13.400000	1	45.102875
13.416667	1	46.359875
13.433333	1	47.645375
13.450000	1	48.960750
13.466667	1	50.306500
13.483333	1	51.683375
13.500000	1	53.090750
13.516667	1	54.527875
13.533333	1	55.996125
13.550000	1	57.495375
13.566667	1	59.025375
13.583333	1	60.586000
13.600000	1	62.177250
13.616667	1	63.801250
13.633333	1	65.460625
13.650000	1	67.156625
13.666667	1	68.888875
13.683333	1	70.657500
13.700000	1	72.463375
13.716667	1	74.307125
13.733333	1	76.185125
13.750000	1	78.084875
13.766667	1	79.956500
13.783333	1	81.677000
13.800000	1	83.052375
13.816667	1	83.856375
13.833333	1	83.906000
13.850000	1	83.094250
13.866667	1	81.359875
13.883333	1	78.604500
13.900000	1	74.645875
13.916667	1	69.275500
13.933333	1	62.412000
13.950000	1	54.306875
13.966667	1	45.601750
13.983333	1	37.137375
14.000000	1	29.602000
14.016667	1	23.351625
14.033333	1	18.410625
14.050000	1	14.613375
14.066667	1	11.741000
14.083333	1	9.590375
14.100000	1	7.993375
14.116667	1	6.816000
14.133333	1	5.950500
14.150000	1	5.312875
14.166667	1	4.838750
14.183333	1	4.482125
14.200000	1	4.207875
14.216667	1	3.992875
14.233333	1	3.820250
14.250000	1	3.678125
14.266667	1	3.558250
14.283333	1	3.455125
14.300000	1	3.365125
14.316667	1	3.284875
14.333333	1	3.212625
14.350000	1	3.147250
14.366667	1	3.087000
14.383333	1	3.031875
14.400000	1	2.980750
14.416667	1	2.933625
14.433333	1	2.889750
14.450000	1	2.849375
14.466667	1	2.811875
14.483333	1	2.777250
14.500000	1	2.744125
14.516667	1	2.713750
14.533333	1	2.684750
14.550000	1	2.657500
14.566667	1	2.630875
14.583333	1	2.604625
14.600000	1	2.578625
14.616667	1	2.553125
14.633333	1	2.527500
14.650000	1	2.502125
14.666667	1	2.475750
14.683333	1	2.448875
14.700000	1	2.421500
14.716667	1	2.393625
14.733333	1	2.364750
14.750000	1	2.335750
14.766667	1	2.306875
14.783333	1	2.278000
14.800000	1	2.248500
14.816667	1	2.219375
14.833333	1	2.190500
14.850000	1	2.161875
14.866667	1	2.133625
14.883333	1	2.105500
14.900000	1	2.077750
14.916667	1	2.049750
14.933333	1	2.023125
14.950000	1	1.996625
14.966667	1	1.969875
14.983333	1	1.943875
15.000000	1	1.919000
15.016667	1	1.894625
15.033333	1	1.870000
15.050000	1	1.846875
15.066667	1	1.824250
15.083333	1	1.802000
15.100000	1	1.780750
15.116667	1	1.760250
15.133333	1	1.740250
15.150000	1	1.721250
15.166667	1	1.703375
15.183333	1	1.686500
15.200000	1	1.670875
15.216667	1	1.656750
15.233333	1	1.644375
15.250000	1	1.633875
15.266667	1	1.625375
15.283333	1	1.619750
15.300000	1	1.615500
15.316667	1	1.613375
15.333333	1	1.614750
15.350000	1	1.619250
15.366667	1	1.626875
15.383333	1	1.638375
15.400000	1	1.653875
15.416667	1	1.673000
15.433333	1	1.696500
15.450000	1	1.723125
15.466667	1	1.752500
15.483333	1	1.783500
15.500000	1	1.815000
15.516667	1	1.844750
15.533333	1	1.872000
15.550000	1	1.895500
15.566667	1	1.913375
15.583333	1	1.924500
15.600000	1	1.927875
15.616667	1	1.923125
15.633333	1	1.911000
15.650000	1	1.890750
15.666667	1	1.863750
15.683333	1	1.831125
15.700000	1	1.794750
15.716667	1	1.755250
15.733333	1	1.715125
15.750000	1	1.674625
15.766667	1	1.634250
15.783333	1	1.596000
15.800000	1	1.559000
15.816667	1	1.524250
15.833333	1	1.491125
15.850000	1	1.459125
15.866667	1	1.426750
15.883333	1	1.396875
15.900000	1	1.367750
15.916667	1	1.340000
15.933333	1	1.314000
15.950000	1	1.289375
15.966667	1	1.266375
15.983333	1	1.244875
16.000000	1	1.225250
16.016667	1	1.208750
16.033333	1	1.194250
16.050000	1	1.181375
16.066667	1	1.171125
16.083333	1	1.162500
16.100000	1	1.156500
16.116667	1	1.151625
16.133333	1	1.148250
16.150000	1	1.145875
16.166667	1	1.144875
16.183333	1	1.144750
16.200000	1	1.144500
16.216667	1	1.144750
16.233333	1	1.145375
16.250000	1	1.144875
16.266667	1	1.143625
16.283333	1	1.142875
16.300000	1	1.140750
16.316667	1	1.137875
16.333333	1	1.134875
16.350000	1	1.131500
16.366667	1	1.127000
16.383333	1	1.121750
16.400000	1	1.118125
16.416667	1	1.113000
16.433333	1	1.107625
16.450000	1	1.103125
16.466667	1	1.099375
16.483333	1	1.095375
16.500000	1	1.092875
16.516667	1	1.091875
16.533333	1	1.092625
16.550000	1	1.094250
16.566667	1	1.097750
16.583333	1	1.102750
16.600000	1	1.109375
16.616667	1	1.116250
16.633333	1	1.124375
16.650000	1	1.132250
16.666667	1	1.140500
16.683333	1	1.148000
16.700000	1	1.155125
16.716667	1	1.160750
16.733333	1	1.165750
16.750000	1	1.170250
16.766667	1	1.173125
16.783333	1	1.176000
16.800000	1	1.179000
16.816667	1	1.181375
16.833333	1	1.183625
16.850000	1	1.185750
16.866667	1	1.187750
16.883333	1	1.189875
16.900000	1	1.191875
16.916667	1	1.194000
16.933333	1	1.195875
16.950000	1	1.198000
16.966667	1	1.199500
16.983333	1	1.199875
17.000000	1	1.198375
17.016667	1	1.197500
17.033333	1	1.196125
17.050000	1	1.193125
17.066667	1	1.190125
17.083333	1	1.186500
17.100000	1	1.182750
17.116667	1	1.179000
17.133333	1	1.174875
17.150000	1	1.172750
17.166667	1	1.170875
17.183333	1	1.170125
17.200000	1	1.170375
17.216667	1	1.171125
17.233333	1	1.174000
17.250000	1	1.177000
17.266667	1	1.180750
17.283333	1	1.186000
17.300000	1	1.191875
17.316667	1	1.198375
17.333333	1	1.205125
17.350000	1	1.212500
17.366667	1	1.220000
17.383333	1	1.228000
17.400000	1	1.234875
17.416667	1	1.242250
17.433333	1	1.247625
17.450000	1	1.252125
17.466667	1	1.255625
17.483333	1	1.257250
17.500000	1	1.257000
17.516667	1	1.254125
17.533333	1	1.249750
17.550000	1	1.243625
17.566667	1	1.235500
17.583333	1	1.226250
17.600000	1	1.214750
17.616667	1	1.201125
17.633333	1	1.186625
17.650000	1	1.170250
17.666667	1	1.153250
17.683333	1	1.136625
17.700000	1	1.119250
17.716667	1	1.102000
17.733333	1	1.084625
17.750000	1	1.068375
17.766667	1	1.052375
17.783333	1	1.036875
17.800000	1	1.022875
17.816667	1	1.008875
17.833333	1	0.995625
17.850000	1	0.983750
17.866667	1	0.972250
17.883333	1	0.961500
17.900000	1	0.951500
17.916667	1	0.941875
17.933333	1	0.933875
17.950000	1	0.924875
17.966667	1	0.917500
17.983333	1	0.909875
18.000000	1	0.902750
18.016667	1	0.896750
18.033333	1	0.890375
18.050000	1	0.884125
18.066667	1	0.877750
18.083333	1	0.872750
18.100000	1	0.867125
18.116667	1	0.860875
18.133333	1	0.854375
18.150000	1	0.847875
18.166667	1	0.841500
18.183333	1	0.835375
18.200000	1	0.829625
18.216667	1	0.824875
18.233333	1	0.820250
18.250000	1	0.816125
18.266667	1	0.812000
18.283333	1	0.809125
18.300000	1	0.805875
18.316667	1	0.803875
18.333333	1	0.802250
18.350000	1	0.800625
18.366667	1	0.800125
18.383333	1	0.800250
18.400000	1	0.800625
18.416667	1	0.801625
18.433333	1	0.803125
18.450000	1	0.805000
18.466667	1	0.808250
18.483333	1	0.812625
18.500000	1	0.817875
18.516667	1	0.824000
18.533333	1	0.833125
18.550000	1	0.843250
18.566667	1	0.855125
18.583333	1	0.869375
18.600000	1	0.885500
18.616667	1	0.903750
18.633333	1	0.923875
18.650000	1	0.946750
18.666667	1	0.971125
18.683333	1	0.997875
18.700000	1	1.026250
18.716667	1	1.056875
18.733333	1	1.088875
18.750000	1	1.122875
18.766667	1	1.157375
18.783333	1	1.192375
18.800000	1	1.226625
18.816667	1	1.261375
18.833333	1	1.295125
18.850000	1	1.328000
18.866667	1	1.358000
18.883333	1	1.385125
18.900000	1	1.409375
18.916667	1	1.428500
18.933333	1	1.442625
18.950000	1	1.452000
18.966667	1	1.455625
18.983333	1	1.453000
19.000000	1	1.443500
19.016667	1	1.427250
19.033333	1	1.405375
19.050000	1	1.377500
19.066667	1	1.344250
19.083333	1	1.305875
19.100000	1	1.263000
19.116667	1	1.217500
19.133333	1	1.170125
19.150000	1	1.121625
19.166667	1	1.072875
19.183333	1	1.025125
19.200000	1	0.978875
19.216667	1	0.935500
19.233333	1	0.895375
19.250000	1	0.859125
19.266667	1	0.827250
19.283333	1	0.799250
19.300000	1	0.776625
19.316667	1	0.758625
19.333333	1	0.745125
19.350000	1	0.737125
19.366667	1	0.734000
19.383333	1	0.735750
19.400000	1	0.742125
19.416667	1	0.752000
19.433333	1	0.766750
19.450000	1	0.784750
19.466667	1	0.806625
19.483333	1	0.831625
19.500000	1	0.858250
19.516667	1	0.887000
19.533333	1	0.916625
19.550000	1	0.946500
19.566667	1	0.976500
19.583333	1	1.004500
19.600000	1	1.030625
19.616667	1	1.054875
19.633333	1	1.075250
19.650000	1	1.090750
19.666667	1	1.100250
19.683333	1	1.104875
19.700000	1	1.103875
19.716667	1	1.097125
19.733333	1	1.085750
19.750000	1	1.068875
19.766667	1	1.047125
19.783333	1	1.022250
19.800000	1	0.994000
19.816667	1	0.963125
19.833333	1	0.930375
19.850000	1	0.896500
19.866667	1	0.863375
19.883333	1	0.831000
19.900000	1	0.799500
19.916667	1	0.769625
19.933333	1	0.742125
19.950000	1	0.715875
19.966667	1	0.692875
19.983333	1	0.671625
20.000000	1	0.653375
20.016667	1	0.637250
20.033333	1	0.624000
20.050000	1	0.612875
20.066667	1	0.604875
20.083333	1	0.599000
20.100000	1	0.595750
20.116667	1	0.595625
20.133333	1	0.597375
20.150000	1	0.601250
20.166667	1	0.606375
20.183333	1	0.613875
20.200000	1	0.622750
20.216667	1	0.634500
20.233333	1	0.646625
20.250000	1	0.659250
20.266667	1	0.672875
20.283333	1	0.686875
20.300000	1	0.701000
20.316667	1	0.714500
20.333333	1	0.727875
20.350000	1	0.739625
20.366667	1	0.749375
20.383333	1	0.758375
20.400000	1	0.764375
20.416667	1	0.768875
20.433333	1	0.770375
20.450000	1	0.770625
20.466667	1	0.769375
20.483333	1	0.767375
20.500000	1	0.765750
20.516667	1	0.763875
20.533333	1	0.764750
20.550000	1	0.766875
20.566667	1	0.772500
20.583333	1	0.783375
20.600000	1	0.798625
20.616667	1	0.819250
20.633333	1	0.846000
20.650000	1	0.879000
20.666667	1	0.919125
20.683333	1	0.966000
20.700000	1	1.018750
20.716667	1	1.077250
20.733333	1	1.141625
20.750000	1	1.209375
20.766667	1	1.279125
20.783333	1	1.349625
20.800000	1	1.419875
20.816667	1	1.487125
20.833333	1	1.548625
20.850000	1	1.602000
20.866667	1	1.646000
20.883333	1	1.679750
20.900000	1	1.701000
20.916667	1	1.708875
20.933333	1	1.703500
20.950000	1	1.684250
20.966667	1	1.652750
20.983333	1	1.608750
21.000000	1	1.554625
21.016667	1	1.492000
21.033333	1	1.422750
21.050000	1	1.348875
21.066667	1	1.272125
21.083333	1	1.195250
21.100000	1	1.118750
21.116667	1	1.045625
21.133333	1	0.975625
21.150000	1	0.909750
21.166667	1	0.848375
21.183333	1	0.793375
21.200000	1	0.743250
21.216667	1	0.698750
21.233333	1	0.659750
21.250000	1	0.624375
21.266667	1	0.594375
21.283333	1	0.568375
21.300000	1	0.546000
21.316667	1	0.526750
21.333333	1	0.511000
21.350000	1	0.497750
21.366667	1	0.486625
21.383333	1	0.476625
21.400000	1	0.468125
21.416667	1	0.461125
21.433333	1	0.455000
21.450000	1	0.450250
21.466667	1	0.446500
21.483333	1	0.443250
21.500000	1	0.441375
21.516667	1	0.440750
21.533333	1	0.440625
21.550000	1	0.442375
21.566667	1	0.444250
21.583333	1	0.447375
21.600000	1	0.452000
21.616667	1	0.458625
21.633333	1	0.466625
21.650000	1	0.476750
21.666667	1	0.488625
21.683333	1	0.502750
21.700000	1	0.519000
21.716667	1	0.537375
21.733333	1	0.557875
21.750000	1	0.580875
21.766667	1	0.606000
21.783333	1	0.633750
21.800000	1	0.663250
21.816667	1	0.694750
21.833333	1	0.728500
21.850000	1	0.763250
21.866667	1	0.800000
21.883333	1	0.837500
21.900000	1	0.876000
21.916667	1	0.914750
21.933333	1	0.953000
21.950000	1	0.990125
21.966667	1	1.025500
21.983333	1	1.058875
22.000000	1	1.089000
22.016667	1	1.116500
22.033333	1	1.140000
22.050000	1	1.158875
22.066667	1	1.171625
22.083333	1	1.179875
22.100000	1	1.182625
22.116667	1	1.178750
22.133333	1	1.170000
22.150000	1	1.156000
22.166667	1	1.136750
22.183333	1	1.113250
22.200000	1	1.086125
22.216667	1	1.055750
22.233333	1	1.022625
22.250000	1	0.987500
22.266667	1	0.951500
22.283333	1	0.914375
22.300000	1	0.876500
22.316667	1	0.840125
22.333333	1	0.803750
22.350000	1	0.768125
22.366667	1	0.733375
22.383333	1	0.700125
22.400000	1	0.667500
22.416667	1	0.636875
22.433333	1	0.608250
22.450000	1	0.581875
22.466667	1	0.557375
22.483333	1	0.534375
22.500000	1	0.513500
22.516667	1	0.493750
22.533333	1	0.475750
22.550000	1	0.460000
22.566667	1	0.445000
22.583333	1	0.431625
22.600000	1	0.419500
22.616667	1	0.408375
22.633333	1	0.398625
22.650000	1	0.389125
22.666667	1	0.381250
22.683333	1	0.374000
22.700000	1	0.366375
22.716667	1	0.360125
22.733333	1	0.354375
22.750000	1	0.349125
22.766667	1	0.344750
22.783333	1	0.340125
22.800000	1	0.335250
22.816667	1	0.331000
22.833333	1	0.327500
22.850000	1	0.323375
22.866667	1	0.319625
22.883333	1	0.316375
22.900000	1	0.313000
22.916667	1	0.310750
22.933333	1	0.308875
22.950000	1	0.307250
22.966667	1	0.305500
22.983333	1	0.304750
23.000000	1	0.303750
23.016667	1	0.303375
23.033333	1	0.302500
23.050000	1	0.301750
23.066667	1	0.301625
23.083333	1	0.302375
23.100000	1	0.303625
23.116667	1	0.305125
23.133333	1	0.305750
23.150000	1	0.307375
23.166667	1	0.309250
23.183333	1	0.312000
23.200000	1	0.314875
23.216667	1	0.318250
23.233333	1	0.322125
23.250000	1	0.326125
23.266667	1	0.331750
23.283333	1	0.338000
23.300000	1	0.345875
23.316667	1	0.355625
23.333333	1	0.368125
23.350000	1	0.383750
23.366667	1	0.402125
23.383333	1	0.424375
23.400000	1	0.450375
23.416667	1	0.480875
23.433333	1	0.518250
23.450000	1	0.562125
23.466667	1	0.613875
23.483333	1	0.672625
23.500000	1	0.740500
23.516667	1	0.818250
23.533333	1	0.906250
23.550000	1	1.004875
23.566667	1	1.115375
23.583333	1	1.237875
23.600000	1	1.373000
23.616667	1	1.520125
23.633333	1	1.679500
23.650000	1	1.850500
23.666667	1	2.032750
23.683333	1	2.225750
23.700000	1	2.427125
23.716667	1	2.636000
23.733333	1	2.850000
23.750000	1	3.065375
23.766667	1	3.279375
23.783333	1	3.488375
23.800000	1	3.688500
23.816667	1	3.876000
23.833333	1	4.047000
23.850000	1	4.198125
23.866667	1	4.325750
23.883333	1	4.426750
23.900000	1	4.498500
23.916667	1	4.539625
23.933333	1	4.548125
23.950000	1	4.524375
23.966667	1	4.468625
23.983333	1	4.383875
24.000000	1	4.270250
24.016667	1	4.131750
24.033333	1	3.972375
24.050000	1	3.794875
24.066667	1	3.604500
24.083333	1	3.403750
24.100000	1	3.196000
24.116667	1	2.986500
24.133333	1	2.777625
24.150000	1	2.573500
24.166667	1	2.375875
24.183333	1	2.186625
24.200000	1	2.007875
24.216667	1	1.840000
24.233333	1	1.684125
24.250000	1	1.540875
24.266667	1	1.409875
24.283333	1	1.291375
24.300000	1	1.184000
24.316667	1	1.088125
24.333333	1	1.003375
24.350000	1	0.928375
24.366667	1	0.862250
24.383333	1	0.804625
24.400000	1	0.754750
24.416667	1	0.710750
24.433333	1	0.673125
24.450000	1	0.641500
24.466667	1	0.613375
24.483333	1	0.589875
24.500000	1	0.570125
24.516667	1	0.553750
24.533333	1	0.539500
24.550000	1	0.526750
24.566667	1	0.516250
24.583333	1	0.506875
24.600000	1	0.498250
24.616667	1	0.489625
24.633333	1	0.482750
24.650000	1	0.475875
24.666667	1	0.469125
24.683333	1	0.463125
24.700000	1	0.456750
24.716667	1	0.450125
24.733333	1	0.443875
24.750000	1	0.437375
24.766667	1	0.430625
24.783333	1	0.424375
24.800000	1	0.418500
24.816667	1	0.412000
24.833333	1	0.406125
24.850000	1	0.400625
24.866667	1	0.395250
24.883333	1	0.390375
24.900000	1	0.385875
24.916667	1	0.380875
24.933333	1	0.375750
24.950000	1	0.371625
24.966667	1	0.367375
24.983333	1	0.363250
25.000000	1	0.359500
25.016667	1	0.356250
25.033333	1	0.352375
25.050000	1	0.349250
25.066667	1	0.346625
25.083333	1	0.344125
25.100000	1	0.340625
25.116667	1	0.338125
25.133333	1	0.335250
25.150000	1	0.332250
25.166667	1	0.329000
25.183333	1	0.326250
25.200000	1	0.323375
25.216667	1	0.320500
25.233333	1	0.317500
25.250000	1	0.314875
25.266667	1	0.312125
25.283333	1	0.309125
25.300000	1	0.305500
25.316667	1	0.302125
25.333333	1	0.299250
25.350000	1	0.295750
25.366667	1	0.293000
25.383333	1	0.290125
25.400000	1	0.287375
25.416667	1	0.284250
25.433333	1	0.281625
25.450000	1	0.278875
25.466667	1	0.276000
25.483333	1	0.273750
25.500000	1	0.271250
25.516667	1	0.269250
25.533333	1	0.267625
25.550000	1	0.265625
25.566667	1	0.264125
25.583333	1	0.262000
25.600000	1	0.260000
25.616667	1	0.259250
25.633333	1	0.258375
25.650000	1	0.257625
25.666667	1	0.257125
25.683333	1	0.255625
25.700000	1	0.255750
25.716667	1	0.256250
25.733333	1	0.255625
25.750000	1	0.256250
25.766667	1	0.257125
25.783333	1	0.259375
25.800000	1	0.260500
25.816667	1	0.261875
25.833333	1	0.263875
25.850000	1	0.266375
25.866667	1	0.269375
25.883333	1	0.272625
25.900000	1	0.276250
25.916667	1	0.280250
25.933333	1	0.284250
25.950000	1	0.289250
25.966667	1	0.293500
25.983333	1	0.298625
26.000000	1	0.303625
26.016667	1	0.308750
26.033333	1	0.313125
26.050000	1	0.318500
26.066667	1	0.323750
26.083333	1	0.329000
26.100000	1	0.334500
26.116667	1	0.339000
26.133333	1	0.344375
26.150000	1	0.348000
26.166667	1	0.351750
26.183333	1	0.354625
26.200000	1	0.357375
26.216667	1	0.359000
26.233333	1	0.360375
26.250000	1	0.361250
26.266667	1	0.361125
26.283333	1	0.360500
26.300000	1	0.359625
26.316667	1	0.357750
26.333333	1	0.355125
26.350000	1	0.351125
26.366667	1	0.347000
26.383333	1	0.342250
26.400000	1	0.336625
26.416667	1	0.331250
26.433333	1	0.325500
26.450000	1	0.318625
26.466667	1	0.311625
26.483333	1	0.304875
26.500000	1	0.297625
26.516667	1	0.290750
26.533333	1	0.284000
26.550000	1	0.277125
26.566667	1	0.269625
26.583333	1	0.263375
26.600000	1	0.257125
26.616667	1	0.250625
26.633333	1	0.244500
26.650000	1	0.238500
26.666667	1	0.232500
26.683333	1	0.228000
26.700000	1	0.223000
26.716667	1	0.218750
26.733333	1	0.214875
26.750000	1	0.211625
26.766667	1	0.208750
26.783333	1	0.205500
26.800000	1	0.203625
26.816667	1	0.201750
26.833333	1	0.201125
26.850000	1	0.200500
26.866667	1	0.200000
26.883333	1	0.200000
26.900000	1	0.200250
26.916667	1	0.200625
26.933333	1	0.201625
26.950000	1	0.203250
26.966667	1	0.205500
26.983333	1	0.207875
27.000000	1	0.211250
27.016667	1	0.215375
27.033333	1	0.219500
27.050000	1	0.224125
27.066667	1	0.230500
27.083333	1	0.237625
27.100000	1	0.245125
27.116667	1	0.254625
27.133333	1	0.265125
27.150000	1	0.277625
27.166667	1	0.290875
27.183333	1	0.307000
27.200000	1	0.325500
27.216667	1	0.345750
27.233333	1	0.369250
27.250000	1	0.395375
27.266667	1	0.424625
27.283333	1	0.458000
27.300000	1	0.496375
27.316667	1	0.538250
27.333333	1	0.584875
27.350000	1	0.636750
27.366667	1	0.694750
27.383333	1	0.758750
27.400000	1	0.828250
27.416667	1	0.905250
27.433333	1	0.989500
27.450000	1	1.081625
27.466667	1	1.180625
27.483333	1	1.288000
27.500000	1	1.403750
27.516667	1	1.527500
27.533333	1	1.658250
27.550000	1	1.796000
27.566667	1	1.940875
27.583333	1	2.091250
27.600000	1	2.247375
27.616667	1	2.407000
27.633333	1	2.570375
27.650000	1	2.736000
27.666667	1	2.901375
27.683333	1	3.065250
27.700000	1	3.225125
27.716667	1	3.379750
27.733333	1	3.526000
27.750000	1	3.662125
27.766667	1	3.786250
27.783333	1	3.895625
27.800000	1	3.988750
27.816667	1	4.064000
27.833333	1	4.119250
27.850000	1	4.153875
27.866667	1	4.165750
27.883333	1	4.155500
27.900000	1	4.122500
27.916667	1	4.067125
27.933333	1	3.989875
27.950000	1	3.892250
27.966667	1	3.776250
27.983333	1	3.643250
28.000000	1	3.494750
28.016667	1	3.334375
28.033333	1	3.163750
28.050000	1	2.987125
28.066667	1	2.806250
28.083333	1	2.623250
28.100000	1	2.440875
28.116667	1	2.262000
28.133333	1	2.088125
28.150000	1	1.920000
28.166667	1	1.761125
28.183333	1	1.611750
28.200000	1	1.470875
28.216667	1	1.341125
28.233333	1	1.221750
28.250000	1	1.113375
28.266667	1	1.014875
28.283333	1	0.926750
28.300000	1	0.848750
28.316667	1	0.779625
28.333333	1	0.718750
28.350000	1	0.666875
28.366667	1	0.622250
28.383333	1	0.584375
28.400000	1	0.553375
28.416667	1	0.527750
28.433333	1	0.507125
28.450000	1	0.491500
28.466667	1	0.479750
28.483333	1	0.471000
28.500000	1	0.465250
28.516667	1	0.462875
28.533333	1	0.463375
28.550000	1	0.465125
28.566667	1	0.468625
28.583333	1	0.473375
28.600000	1	0.479500
28.616667	1	0.487625
28.633333	1	0.495750
28.650000	1	0.504125
28.666667	1	0.512625
28.683333	1	0.521250
28.700000	1	0.530000
28.716667	1	0.538750
28.733333	1	0.547125
28.750000	1	0.555250
28.766667	1	0.562500
28.783333	1	0.568875
28.800000	1	0.574625
28.816667	1	0.579250
28.833333	1	0.583875
28.850000	1	0.587125
28.866667	1	0.589000
28.883333	1	0.589750
28.900000	1	0.589625
28.916667	1	0.588375
28.933333	1	0.585750
28.950000	1	0.582375
28.966667	1	0.578750
28.983333	1	0.573375
29.000000	1	0.566875
29.016667	1	0.559500
29.033333	1	0.551500
29.050000	1	0.542750
29.066667	1	0.533000
29.083333	1	0.522750
29.100000	1	0.511500
29.116667	1	0.500250
29.133333	1	0.488125
29.150000	1	0.475875
29.166667	1	0.463625
29.183333	1	0.450750
29.200000	1	0.437375
29.216667	1	0.424625
29.233333	1	0.411750
29.250000	1	0.398875
29.266667	1	0.385875
29.283333	1	0.373625
29.300000	1	0.361250
29.316667	1	0.349375
29.333333	1	0.337750
29.350000	1	0.326375
29.366667	1	0.315125
29.383333	1	0.304500
29.400000	1	0.294625
29.416667	1	0.284875
29.433333	1	0.276375
29.450000	1	0.267875
29.466667	1	0.259875
29.483333	1	0.252250
29.500000	1	0.244625
29.516667	1	0.237625
29.533333	1	0.231250
29.550000	1	0.225375
29.566667	1	0.220250
29.583333	1	0.214750
29.600000	1	0.209750
29.616667	1	0.204625
29.633333	1	0.200500
29.650000	1	0.196000
29.666667	1	0.191875
29.683333	1	0.187875
29.700000	1	0.184250
29.716667	1	0.181250
29.733333	1	0.178625
29.750000	1	0.175250
29.766667	1	0.172875
29.783333	1	0.170875
29.800000	1	0.168875
29.816667	1	0.166375
29.833333	1	0.164375
29.850000	1	0.162250
29.866667	1	0.159875
29.883333	1	0.157625
29.900000	1	0.155500
29.916667	1	0.153750
29.933333	1	0.151750
29.950000	1	0.149875
29.966667	1	0.148500
29.983333	1	0.146750
30.000000	1	0.145500
30.016667	1	0.143000
30.033333	1	0.141125
30.050000	1	0.139125
30.066667	1	0.137625
30.083333	1	0.136250
30.100000	1	0.134625
30.116667	1	0.133000
30.133333	1	0.131500
30.150000	1	0.130375
30.166667	1	0.129250
30.183333	1	0.128375
30.200000	1	0.127250
30.216667	1	0.125875
30.233333	1	0.125375
30.250000	1	0.124375
30.266667	1	0.123750
30.283333	1	0.122500
30.300000	1	0.122125
30.316667	1	0.122125
30.333333	1	0.121625
30.350000	1	0.121750
30.366667	1	0.122375
30.383333	1	0.123000
30.400000	1	0.123500
30.416667	1	0.124875
30.433333	1	0.126000
30.450000	1	0.127625
30.466667	1	0.130500
30.483333	1	0.132625
30.500000	1	0.135750
30.516667	1	0.139500
30.533333	1	0.143875
30.550000	1	0.149250
30.566667	1	0.154750
30.583333	1	0.161250
30.600000	1	0.168625
30.616667	1	0.177625
30.633333	1	0.187250
30.650000	1	0.198625
30.666667	1	0.209750
30.683333	1	0.223250
30.700000	1	0.237750
30.716667	1	0.254000
30.733333	1	0.272625
30.750000	1	0.292250
30.766667	1	0.314375
30.783333	1	0.339875
30.800000	1	0.367750
30.816667	1	0.398625
30.833333	1	0.432125
30.850000	1	0.469375
30.866667	1	0.510250
30.883333	1	0.555625
30.900000	1	0.605250
30.916667	1	0.659875
30.933333	1	0.720125
30.950000	1	0.785750
30.966667	1	0.858250
30.983333	1	0.936750
31.000000	1	1.022000
31.016667	1	1.114625
31.033333	1	1.214375
31.050000	1	1.322000
31.066667	1	1.436750
31.083333	1	1.559250
31.100000	1	1.689625
31.116667	1	1.827625
31.133333	1	1.972500
31.150000	1	2.124250
31.166667	1	2.283250
31.183333	1	2.448125
31.200000	1	2.617500
31.216667	1	2.790375
31.233333	1	2.965250
31.250000	1	3.141875
31.266667	1	3.317375
31.283333	1	3.491000
31.300000	1	3.660250
31.316667	1	3.824125
31.333333	1	3.980500
31.350000	1	4.127625
31.366667	1	4.262875
31.383333	1	4.385375
31.400000	1	4.493500
31.416667	1	4.585125
31.433333	1	4.658875
31.450000	1	4.713750
31.466667	1	4.749125
31.483333	1	4.764750
31.500000	1	4.760125
31.516667	1	4.735250
31.533333	1	4.691000
31.550000	1	4.627375
31.566667	1	4.546000
31.583333	1	4.446375
31.600000	1	4.331375
31.616667	1	4.202250
31.633333	1	4.059750
31.650000	1	3.906875
31.666667	1	3.745250
31.683333	1	3.576125
31.700000	1	3.402500
31.716667	1	3.226625
31.733333	1	3.048125
31.750000	1	2.871125
31.766667	1	2.694625
31.783333	1	2.520875
31.800000	1	2.351375
31.816667	1	2.186875
31.833333	1	2.028125
31.850000	1	1.876625
31.866667	1	1.732125
31.883333	1	1.596000
31.900000	1	1.468250
31.916667	1	1.348375
31.933333	1	1.237000
31.950000	1	1.133250
31.966667	1	1.037250
31.983333	1	0.949625
32.000000	1	0.869250
32.016667	1	0.795375
32.033333	1	0.728625
32.050000	1	0.667500
32.066667	1	0.612250
32.083333	1	0.563375
32.100000	1	0.519375
32.116667	1	0.479375
32.133333	1	0.443625
32.150000	1	0.411375
32.166667	1	0.383625
32.183333	1	0.358000
32.200000	1	0.335500
32.216667	1	0.315500
32.233333	1	0.297625
32.250000	1	0.281875
32.266667	1	0.267375
32.283333	1	0.254000
32.300000	1	0.242125
32.316667	1	0.231125
32.333333	1	0.221375
32.350000	1	0.212125
32.366667	1	0.203500
32.383333	1	0.195875
32.400000	1	0.188500
32.416667	1	0.182125
32.433333	1	0.175875
32.450000	1	0.169500
32.466667	1	0.163750
32.483333	1	0.158625
32.500000	1	0.153500
32.516667	1	0.148750
32.533333	1	0.143750
32.550000	1	0.139375
32.566667	1	0.135375
32.583333	1	0.131375
32.600000	1	0.127375
32.616667	1	0.123875
32.633333	1	0.120375
32.650000	1	0.117375
32.666667	1	0.114375
32.683333	1	0.111875
32.700000	1	0.109500
32.716667	1	0.107125
32.733333	1	0.104625
32.750000	1	0.102750
32.766667	1	0.100750
32.783333	1	0.098750
32.800000	1	0.096500
32.816667	1	0.095000
32.833333	1	0.093750
32.850000	1	0.092250
32.866667	1	0.090750
32.883333	1	0.089750
32.900000	1	0.088500
32.916667	1	0.087375
32.933333	1	0.086250
32.950000	1	0.085625
32.966667	1	0.084375
32.983333	1	0.083750
33.000000	1	0.083750
33.016667	1	0.083375
33.033333	1	0.082625
33.050000	1	0.081875
33.066667	1	0.081375
33.083333	1	0.081625
33.100000	1	0.082125
33.116667	1	0.083000
33.133333	1	0.083625
33.150000	1	0.085000
33.166667	1	0.086250
33.183333	1	0.088000
33.200000	1	0.090875
33.216667	1	0.093375
33.233333	1	0.096250
33.250000	1	0.099625
33.266667	1	0.103500
33.283333	1	0.109000
33.300000	1	0.114875
33.316667	1	0.121375
33.333333	1	0.129375
33.350000	1	0.138625
33.366667	1	0.148375
33.383333	1	0.159500
33.400000	1	0.171625
33.416667	1	0.185625
33.433333	1	0.200750
33.450000	1	0.217500
33.466667	1	0.235625
33.483333	1	0.255500
33.500000	1	0.277000
33.516667	1	0.301000
33.533333	1	0.327125
33.550000	1	0.354500
33.566667	1	0.384375
33.583333	1	0.416250
33.600000	1	0.450125
33.616667	1	0.486250
33.633333	1	0.524250
33.650000	1	0.564750
33.666667	1	0.607000
33.683333	1	0.650750
33.700000	1	0.697125
33.716667	1	0.745125
33.733333	1	0.794125
33.750000	1	0.844375
33.766667	1	0.896250
33.783333	1	0.949000
33.800000	1	1.001875
33.816667	1	1.055750
33.833333	1	1.108375
33.850000	1	1.161500
33.866667	1	1.212500
33.883333	1	1.262625
33.900000	1	1.310625
33.916667	1	1.357250
33.933333	1	1.400000
33.950000	1	1.440500
33.966667	1	1.477000
33.983333	1	1.510250
34.000000	1	1.538875
34.016667	1	1.562250
34.033333	1	1.580500
34.050000	1	1.593750
34.066667	1	1.603125
34.083333	1	1.606625
34.100000	1	1.603875
34.116667	1	1.597125
34.133333	1	1.584250
34.150000	1	1.567125
34.166667	1	1.544750
34.183333	1	1.517875
34.200000	1	1.486375
34.216667	1	1.451625
34.233333	1	1.414000
34.250000	1	1.372750
34.266667	1	1.328750
34.283333	1	1.283250
34.300000	1	1.235750
34.316667	1	1.187500
34.333333	1	1.138125
34.350000	1	1.088375
34.366667	1	1.039500
34.383333	1	0.990875
34.400000	1	0.942625
34.416667	1	0.895125
34.433333	1	0.849375
34.450000	1	0.805375
34.466667	1	0.763250
34.483333	1	0.722500
34.500000	1	0.683875
34.516667	1	0.646875
34.533333	1	0.612500
34.550000	1	0.580250
34.566667	1	0.549625
34.583333	1	0.521125
34.600000	1	0.494625
34.616667	1	0.470750
34.633333	1	0.447875
34.650000	1	0.426500
34.666667	1	0.406250
34.683333	1	0.389375
34.700000	1	0.373250
34.716667	1	0.358750
34.733333	1	0.345500
34.750000	1	0.333125
34.766667	1	0.320875
34.783333	1	0.310000
34.800000	1	0.300375
34.816667	1	0.291375
34.833333	1	0.283000
34.850000	1	0.274750
34.866667	1	0.267625
34.883333	1	0.260875
34.900000	1	0.254250
34.916667	1	0.249250
34.933333	1	0.243125
34.950000	1	0.237750
34.966667	1	0.233500
34.983333	1	0.229375
35.000000	1	0.225500
35.016667	1	0.220750
35.033333	1	0.217125
35.050000	1	0.213875
35.066667	1	0.210750
35.083333	1	0.207625
35.100000	1	0.204250
35.116667	1	0.201875
35.133333	1	0.200125
35.150000	1	0.197875
35.166667	1	0.195625
35.183333	1	0.193750
35.200000	1	0.191750
35.216667	1	0.190375
35.233333	1	0.189250
35.250000	1	0.187625
35.266667	1	0.186750
35.283333	1	0.185375
35.300000	1	0.184875
35.316667	1	0.184125
35.333333	1	0.183125
35.350000	1	0.182750
35.366667	1	0.182750
35.383333	1	0.181750
35.400000	1	0.181500
35.416667	1	0.181375
35.433333	1	0.181125
35.450000	1	0.181000
35.466667	1	0.181000
35.483333	1	0.181000
35.500000	1	0.180875
35.516667	1	0.180875
35.533333	1	0.181375
35.550000	1	0.181625
35.566667	1	0.181625
35.583333	1	0.181500
35.600000	1	0.181375
35.616667	1	0.181250
35.633333	1	0.181125
35.650000	1	0.180750
35.666667	1	0.180875
35.683333	1	0.180250
35.700000	1	0.180250
35.716667	1	0.180500
35.733333	1	0.180250
35.750000	1	0.179375
35.766667	1	0.179125
35.783333	1	0.179000
35.800000	1	0.178250
35.816667	1	0.177500
35.833333	1	0.177250
35.850000	1	0.176875
35.866667	1	0.176750
35.883333	1	0.176500
35.900000	1	0.176250
35.916667	1	0.176500
35.933333	1	0.175625
35.950000	1	0.175500
35.966667	1	0.175125
35.983333	1	0.174500
36.000000	1	0.174500
36.016667	1	0.175125
36.033333	1	0.174750
36.050000	1	0.174625
36.066667	1	0.174500
36.083333	1	0.174875
36.100000	1	0.174250
36.116667	1	0.174500
36.133333	1	0.174375
36.150000	1	0.174250
36.166667	1	0.173750
36.183333	1	0.173500
36.200000	1	0.172750
36.216667	1	0.172500
36.233333	1	0.171750
36.250000	1	0.171000
36.266667	1	0.171250
36.283333	1	0.171375
36.300000	1	0.170875
36.316667	1	0.170625
36.333333	1	0.169875
36.350000	1	0.168875
36.366667	1	0.168125
36.383333	1	0.167375
36.400000	1	0.166250
36.416667	1	0.164875
36.433333	1	0.164000
36.450000	1	0.162875
36.466667	1	0.160875
36.483333	1	0.159375
36.500000	1	0.158000
36.516667	1	0.156750
36.533333	1	0.155875
36.550000	1	0.154500
36.566667	1	0.152625
36.583333	1	0.150750
36.600000	1	0.148750
36.616667	1	0.147625
36.633333	1	0.146125
36.650000	1	0.144750
36.666667	1	0.143500
36.683333	1	0.141500
36.700000	1	0.140375
36.716667	1	0.139250
36.733333	1	0.137375
36.750000	1	0.135750
36.766667	1	0.134250
36.783333	1	0.133500
36.800000	1	0.132000
36.816667	1	0.130500
36.833333	1	0.128875
36.850000	1	0.127750
36.866667	1	0.127125
36.883333	1	0.126500
36.900000	1	0.125625
36.916667	1	0.125000
36.933333	1	0.124250
36.950000	1	0.123250
36.966667	1	0.123000
36.983333	1	0.122000
37.000000	1	0.120625
37.016667	1	0.120000
37.033333	1	0.119750
37.050000	1	0.119250
37.066667	1	0.119875
37.083333	1	0.120000
37.100000	1	0.119750
37.116667	1	0.119500
37.133333	1	0.119000
37.150000	1	0.119000
37.166667	1	0.118875
37.183333	1	0.119375
37.200000	1	0.119500
37.216667	1	0.119875
37.233333	1	0.119250
37.250000	1	0.119375
37.266667	1	0.119875
37.283333	1	0.120000
37.300000	1	0.120375
37.316667	1	0.120250
37.333333	1	0.120375
37.350000	1	0.120375
37.366667	1	0.120750
37.383333	1	0.120625
37.400000	1	0.120500
37.416667	1	0.120625
37.433333	1	0.120625
37.450000	1	0.120375
37.466667	1	0.120500
37.483333	1	0.120500
37.500000	1	0.120875
37.516667	1	0.120375
37.533333	1	0.119750
37.550000	1	0.119625
37.566667	1	0.119250
37.583333	1	0.118500
37.600000	1	0.117750
37.616667	1	0.117250
37.633333	1	0.116750
37.650000	1	0.116500
37.666667	1	0.116000
37.683333	1	0.115875
37.700000	1	0.115375
37.716667	1	0.114875
37.733333	1	0.114125
37.750000	1	0.113375
37.766667	1	0.112250
37.783333	1	0.111625
37.800000	1	0.110625
37.816667	1	0.109500
37.833333	1	0.109000
37.850000	1	0.108375
37.866667	1	0.107500
37.883333	1	0.107250
37.900000	1	0.106375
37.916667	1	0.106000
37.933333	1	0.105625
37.950000	1	0.105750
37.966667	1	0.105500
37.983333	1	0.105000
38.000000	1	0.105000
38.016667	1	0.104750
38.033333	1	0.104250
38.050000	1	0.104375
38.066667	1	0.104375
38.083333	1	0.104625
38.100000	1	0.104375
38.116667	1	0.104375
38.133333	1	0.105000
38.150000	1	0.104500
38.166667	1	0.104375
38.183333	1	0.104750
38.200000	1	0.104875
38.216667	1	0.105250
38.233333	1	0.105875
38.250000	1	0.106500
38.266667	1	0.107000
38.283333	1	0.107375
38.300000	1	0.107750
38.316667	1	0.108375
38.333333	1	0.108875
38.350000	1	0.109125
38.366667	1	0.109000
38.383333	1	0.109125
38.400000	1	0.109250
38.416667	1	0.109875
38.433333	1	0.110625
38.450000	1	0.111000
38.466667	1	0.111375
38.483333	1	0.111750
38.500000	1	0.111750
38.516667	1	0.111500
38.533333	1	0.111875
38.550000	1	0.111500
38.566667	1	0.111000
38.583333	1	0.111000
38.600000	1	0.110750
38.616667	1	0.110125
38.633333	1	0.110250
38.650000	1	0.108875
38.666667	1	0.108500
38.683333	1	0.108375
38.700000	1	0.107250
38.716667	1	0.107000
38.733333	1	0.106500
38.750000	1	0.105625
38.766667	1	0.104625
38.783333	1	0.103375
38.800000	1	0.103125
38.816667	1	0.102000
38.833333	1	0.100875
38.850000	1	0.099750
38.866667	1	0.098375
38.883333	1	0.097500
38.900000	1	0.096625
38.916667	1	0.096125
38.933333	1	0.094875
38.950000	1	0.093750
38.966667	1	0.092500
38.983333	1	0.091000
39.000000	1	0.090125
39.016667	1	0.089375
39.033333	1	0.088625
39.050000	1	0.088000
39.066667	1	0.087000
39.083333	1	0.085875
39.100000	1	0.085250
39.116667	1	0.085500
39.133333	1	0.084625
39.150000	1	0.084250
39.166667	1	0.084250
39.183333	1	0.083500
39.200000	1	0.083125
39.216667	1	0.082750
39.233333	1	0.082250
39.250000	1	0.082500
39.266667	1	0.082500
39.283333	1	0.083250
39.300000	1	0.083500
39.316667	1	0.083500
39.333333	1	0.083750
39.350000	1	0.084250
39.366667	1	0.084625
39.383333	1	0.084750
39.400000	1	0.084875
39.416667	1	0.085375
39.433333	1	0.085500
39.450000	1	0.086125
39.466667	1	0.086750
39.483333	1	0.087000
39.500000	1	0.087750
39.516667	1	0.088000
39.533333	1	0.088000
39.550000	1	0.088125
39.566667	1	0.088625
39.583333	1	0.088500
39.600000	1	0.089000
39.616667	1	0.089250
39.633333	1	0.089625
39.650000	1	0.089750
39.666667	1	0.090375
39.683333	1	0.091250
39.700000	1	0.091500
39.716667	1	0.092250
39.733333	1	0.091625
39.750000	1	0.092375
39.766667	1	0.093125
39.783333	1	0.093500
39.800000	1	0.093875
39.816667	1	0.094250
39.833333	1	0.094625
39.850000	1	0.095250
39.866667	1	0.095625
39.883333	1	0.096625
39.900000	1	0.097125
39.916667	1	0.097125
39.933333	1	0.097750
39.950000	1	0.098625
39.966667	1	0.099250
39.983333	1	0.099250
40.000000	1	0.099375
