URL	chrom://bioreactor/micro_cm7/HPLC_Ultimate_3000/Users/markusar/20240716_MA_pHrange2.seq/307.smp/RI_1.channel/RI_1.chm
Channel	RI_1

Injection Information:
Data Vault	micro_cm7
Sequence	20240716_MA_pHrange2
Name	Fp2_40H_4
Number	44
Position	BD8
Comment	
Processing Method	
Instrument Method	run_25B_method
Type	Unknown
Status	Finished
Inject Time	17.07.2024 23:28:09 +02:00
Volume (µl)	20.0000
Dilution Factor	1.0000
Weight	1.0000

Chromatogram Data Information:
Time Min. (min)	0.000000
Time Max. (min)	40.000000
Data Points	2401
Detector	RI
Generating Data System	Chromeleon 7.3.2.11814
Exporting Data System	Chromeleon 7.3.2.0
Operator	Instrument Controller
Signal Quantity	Refractive 
Signal Unit	µRIU
Signal Min.	-0.100500
Signal Max.	81.754500
Channel	RI_1
Driver Name	RID520Driver.dll
Channel Type	Evaluation
Min. Step (s)	1
Max. Step (s)	1
Average Step (s)	1

Signal Parameter Information:
Signal Info	

Chromatogram Data:
Time (min)	Step (s)	Value (µRIU)
0.000000	n.a.	-0.002125
0.016667	1	-0.002125
0.033333	1	-0.001750
0.050000	1	-0.001375
0.066667	1	-0.000625
0.083333	1	0.000000
0.100000	1	0.001125
0.116667	1	0.001500
0.133333	1	0.002125
0.150000	1	0.002000
0.166667	1	0.002125
0.183333	1	0.002500
0.200000	1	0.003125
0.216667	1	0.003125
0.233333	1	0.003750
0.250000	1	0.004125
0.266667	1	0.004000
0.283333	1	0.004375
0.300000	1	0.004625
0.316667	1	0.005375
0.333333	1	0.005500
0.350000	1	0.005250
0.366667	1	0.005250
0.383333	1	0.004250
0.400000	1	0.003625
0.416667	1	0.003875
0.433333	1	0.004375
0.450000	1	0.006125
0.466667	1	0.007750
0.483333	1	0.009375
0.500000	1	0.010250
0.516667	1	0.011250
0.533333	1	0.010875
0.550000	1	0.010625
0.566667	1	0.008875
0.583333	1	0.007375
0.600000	1	0.005750
0.616667	1	0.004625
0.633333	1	0.003500
0.650000	1	0.002125
0.666667	1	0.001875
0.683333	1	0.001750
0.700000	1	0.001250
0.716667	1	0.000875
0.733333	1	0.000500
0.750000	1	0.000250
0.766667	1	-0.000500
0.783333	1	-0.000875
0.800000	1	-0.000750
0.816667	1	-0.001375
0.833333	1	-0.001750
0.850000	1	-0.001875
0.866667	1	-0.002125
0.883333	1	-0.002500
0.900000	1	-0.002750
0.916667	1	-0.002750
0.933333	1	-0.003000
0.950000	1	-0.002875
0.966667	1	-0.003000
0.983333	1	-0.002625
1.000000	1	-0.002875
1.016667	1	-0.003125
1.033333	1	-0.003625
1.050000	1	-0.004000
1.066667	1	-0.003500
1.083333	1	-0.003250
1.100000	1	-0.002750
1.116667	1	-0.002875
1.133333	1	-0.002625
1.150000	1	-0.002375
1.166667	1	-0.002375
1.183333	1	-0.001500
1.200000	1	-0.001000
1.216667	1	-0.001125
1.233333	1	-0.001500
1.250000	1	-0.001500
1.266667	1	-0.001000
1.283333	1	-0.001500
1.300000	1	-0.001500
1.316667	1	-0.001500
1.333333	1	-0.001500
1.350000	1	-0.001875
1.366667	1	-0.002125
1.383333	1	-0.002625
1.400000	1	-0.002500
1.416667	1	-0.003125
1.433333	1	-0.003125
1.450000	1	-0.003500
1.466667	1	-0.003875
1.483333	1	-0.004750
1.500000	1	-0.005625
1.516667	1	-0.006125
1.533333	1	-0.006250
1.550000	1	-0.007125
1.566667	1	-0.008500
1.583333	1	-0.009125
1.600000	1	-0.010125
1.616667	1	-0.011500
1.633333	1	-0.011625
1.650000	1	-0.012625
1.666667	1	-0.013375
1.683333	1	-0.014250
1.700000	1	-0.014750
1.716667	1	-0.015875
1.733333	1	-0.017125
1.750000	1	-0.017625
1.766667	1	-0.018750
1.783333	1	-0.019250
1.800000	1	-0.019875
1.816667	1	-0.020375
1.833333	1	-0.020750
1.850000	1	-0.021625
1.866667	1	-0.021750
1.883333	1	-0.022375
1.900000	1	-0.022875
1.916667	1	-0.023375
1.933333	1	-0.023750
1.950000	1	-0.023750
1.966667	1	-0.024375
1.983333	1	-0.024875
2.000000	1	-0.025500
2.016667	1	-0.026000
2.033333	1	-0.026375
2.050000	1	-0.026750
2.066667	1	-0.026875
2.083333	1	-0.027625
2.100000	1	-0.028500
2.116667	1	-0.029375
2.133333	1	-0.029375
2.150000	1	-0.030125
2.166667	1	-0.031000
2.183333	1	-0.032125
2.200000	1	-0.032875
2.216667	1	-0.033875
2.233333	1	-0.035000
2.250000	1	-0.035750
2.266667	1	-0.036000
2.283333	1	-0.036375
2.300000	1	-0.036750
2.316667	1	-0.037500
2.333333	1	-0.038625
2.350000	1	-0.039375
2.366667	1	-0.040125
2.383333	1	-0.040500
2.400000	1	-0.040875
2.416667	1	-0.041375
2.433333	1	-0.042375
2.450000	1	-0.042750
2.466667	1	-0.042625
2.483333	1	-0.042250
2.500000	1	-0.042625
2.516667	1	-0.042875
2.533333	1	-0.042625
2.550000	1	-0.042500
2.566667	1	-0.042750
2.583333	1	-0.042625
2.600000	1	-0.042250
2.616667	1	-0.040875
2.633333	1	-0.039250
2.650000	1	-0.038500
2.666667	1	-0.038250
2.683333	1	-0.037250
2.700000	1	-0.036000
2.716667	1	-0.034750
2.733333	1	-0.033250
2.750000	1	-0.032625
2.766667	1	-0.032000
2.783333	1	-0.031000
2.800000	1	-0.029250
2.816667	1	-0.027750
2.833333	1	-0.026375
2.850000	1	-0.024875
2.866667	1	-0.023250
2.883333	1	-0.022375
2.900000	1	-0.021125
2.916667	1	-0.020125
2.933333	1	-0.019125
2.950000	1	-0.018000
2.966667	1	-0.016625
2.983333	1	-0.015125
3.000000	1	-0.013750
3.016667	1	-0.012625
3.033333	1	-0.011875
3.050000	1	-0.011500
3.066667	1	-0.010375
3.083333	1	-0.009500
3.100000	1	-0.008375
3.116667	1	-0.007500
3.133333	1	-0.006750
3.150000	1	-0.006000
3.166667	1	-0.005250
3.183333	1	-0.004500
3.200000	1	-0.004125
3.216667	1	-0.003375
3.233333	1	-0.003000
3.250000	1	-0.002750
3.266667	1	-0.001375
3.283333	1	-0.000875
3.300000	1	-0.000125
3.316667	1	-0.000250
3.333333	1	0.000000
3.350000	1	0.000750
3.366667	1	0.001250
3.383333	1	0.001625
3.400000	1	0.002625
3.416667	1	0.004000
3.433333	1	0.005125
3.450000	1	0.005250
3.466667	1	0.006375
3.483333	1	0.007250
3.500000	1	0.007500
3.516667	1	0.007875
3.533333	1	0.008750
3.550000	1	0.009375
3.566667	1	0.009375
3.583333	1	0.009500
3.600000	1	0.010000
3.616667	1	0.010250
3.633333	1	0.010875
3.650000	1	0.011625
3.666667	1	0.012250
3.683333	1	0.012375
3.700000	1	0.012750
3.716667	1	0.013375
3.733333	1	0.013625
3.750000	1	0.014125
3.766667	1	0.014750
3.783333	1	0.015500
3.800000	1	0.015750
3.816667	1	0.016875
3.833333	1	0.017500
3.850000	1	0.018000
3.866667	1	0.018875
3.883333	1	0.019875
3.900000	1	0.020625
3.916667	1	0.021250
3.933333	1	0.021750
3.950000	1	0.022625
3.966667	1	0.023375
3.983333	1	0.023750
4.000000	1	0.024625
4.016667	1	0.025125
4.033333	1	0.026250
4.050000	1	0.027000
4.066667	1	0.027625
4.083333	1	0.028500
4.100000	1	0.029000
4.116667	1	0.029875
4.133333	1	0.030375
4.150000	1	0.030750
4.166667	1	0.031500
4.183333	1	0.032625
4.200000	1	0.033000
4.216667	1	0.033750
4.233333	1	0.034875
4.250000	1	0.035125
4.266667	1	0.035625
4.283333	1	0.036250
4.300000	1	0.036875
4.316667	1	0.037750
4.333333	1	0.038125
4.350000	1	0.039500
4.366667	1	0.041000
4.383333	1	0.042625
4.400000	1	0.044500
4.416667	1	0.046125
4.433333	1	0.047250
4.450000	1	0.048125
4.466667	1	0.049375
4.483333	1	0.051125
4.500000	1	0.052750
4.516667	1	0.054875
4.533333	1	0.056250
4.550000	1	0.058375
4.566667	1	0.060625
4.583333	1	0.062625
4.600000	1	0.064750
4.616667	1	0.067500
4.633333	1	0.070250
4.650000	1	0.072750
4.666667	1	0.075375
4.683333	1	0.078250
4.700000	1	0.081375
4.716667	1	0.083875
4.733333	1	0.086750
4.750000	1	0.090375
4.766667	1	0.093875
4.783333	1	0.097125
4.800000	1	0.099875
4.816667	1	0.103625
4.833333	1	0.107250
4.850000	1	0.110500
4.866667	1	0.114750
4.883333	1	0.118500
4.900000	1	0.122625
4.916667	1	0.126000
4.933333	1	0.129625
4.950000	1	0.133500
4.966667	1	0.136375
4.983333	1	0.140750
5.000000	1	0.144625
5.016667	1	0.148125
5.033333	1	0.152250
5.050000	1	0.155500
5.066667	1	0.158875
5.083333	1	0.161875
5.100000	1	0.165375
5.116667	1	0.168625
5.133333	1	0.171500
5.150000	1	0.174375
5.166667	1	0.176750
5.183333	1	0.179375
5.200000	1	0.181750
5.216667	1	0.184000
5.233333	1	0.185875
5.250000	1	0.187625
5.266667	1	0.188750
5.283333	1	0.190500
5.300000	1	0.191750
5.316667	1	0.192875
5.333333	1	0.193750
5.350000	1	0.194375
5.366667	1	0.194625
5.383333	1	0.194375
5.400000	1	0.194125
5.416667	1	0.193000
5.433333	1	0.192125
5.450000	1	0.191250
5.466667	1	0.189250
5.483333	1	0.188000
5.500000	1	0.185750
5.516667	1	0.183250
5.533333	1	0.181250
5.550000	1	0.178750
5.566667	1	0.175875
5.583333	1	0.172875
5.600000	1	0.169250
5.616667	1	0.166125
5.633333	1	0.162375
5.650000	1	0.158125
5.666667	1	0.153875
5.683333	1	0.150125
5.700000	1	0.145750
5.716667	1	0.141500
5.733333	1	0.137000
5.750000	1	0.133000
5.766667	1	0.128250
5.783333	1	0.123000
5.800000	1	0.118750
5.816667	1	0.114750
5.833333	1	0.110000
5.850000	1	0.106000
5.866667	1	0.101125
5.883333	1	0.097125
5.900000	1	0.092500
5.916667	1	0.088500
5.933333	1	0.084000
5.950000	1	0.080750
5.966667	1	0.077000
5.983333	1	0.072750
6.000000	1	0.068750
6.016667	1	0.065500
6.033333	1	0.061375
6.050000	1	0.058375
6.066667	1	0.055125
6.083333	1	0.052125
6.100000	1	0.049375
6.116667	1	0.046750
6.133333	1	0.043500
6.150000	1	0.041000
6.166667	1	0.038500
6.183333	1	0.036375
6.200000	1	0.034250
6.216667	1	0.032250
6.233333	1	0.030125
6.250000	1	0.028000
6.266667	1	0.026250
6.283333	1	0.024375
6.300000	1	0.023000
6.316667	1	0.021750
6.333333	1	0.020125
6.350000	1	0.019375
6.366667	1	0.018125
6.383333	1	0.017750
6.400000	1	0.017250
6.416667	1	0.015500
6.433333	1	0.015125
6.450000	1	0.014625
6.466667	1	0.014000
6.483333	1	0.013625
6.500000	1	0.013500
6.516667	1	0.013250
6.533333	1	0.013500
6.550000	1	0.013750
6.566667	1	0.013625
6.583333	1	0.013500
6.600000	1	0.014000
6.616667	1	0.014375
6.633333	1	0.015250
6.650000	1	0.015750
6.666667	1	0.016500
6.683333	1	0.017000
6.700000	1	0.017500
6.716667	1	0.018750
6.733333	1	0.020375
6.750000	1	0.021375
6.766667	1	0.023000
6.783333	1	0.024875
6.800000	1	0.026125
6.816667	1	0.027375
6.833333	1	0.028750
6.850000	1	0.030000
6.866667	1	0.032125
6.883333	1	0.033875
6.900000	1	0.035250
6.916667	1	0.037125
6.933333	1	0.039375
6.950000	1	0.041125
6.966667	1	0.042625
6.983333	1	0.044375
7.000000	1	0.045750
7.016667	1	0.047125
7.033333	1	0.049750
7.050000	1	0.050875
7.066667	1	0.051875
7.083333	1	0.052625
7.100000	1	0.053875
7.116667	1	0.054875
7.133333	1	0.055000
7.150000	1	0.055375
7.166667	1	0.056000
7.183333	1	0.056375
7.200000	1	0.055875
7.216667	1	0.055750
7.233333	1	0.055375
7.250000	1	0.054250
7.266667	1	0.053625
7.283333	1	0.052750
7.300000	1	0.051500
7.316667	1	0.050125
7.333333	1	0.049000
7.350000	1	0.047375
7.366667	1	0.045375
7.383333	1	0.043625
7.400000	1	0.042625
7.416667	1	0.040625
7.433333	1	0.037875
7.450000	1	0.036500
7.466667	1	0.034125
7.483333	1	0.031750
7.500000	1	0.029625
7.516667	1	0.027750
7.533333	1	0.025250
7.550000	1	0.022875
7.566667	1	0.020875
7.583333	1	0.018375
7.600000	1	0.016250
7.616667	1	0.013625
7.633333	1	0.010625
7.650000	1	0.008500
7.666667	1	0.007000
7.683333	1	0.004750
7.700000	1	0.002250
7.716667	1	0.000250
7.733333	1	-0.001125
7.750000	1	-0.003250
7.766667	1	-0.005000
7.783333	1	-0.007000
7.800000	1	-0.009375
7.816667	1	-0.010750
7.833333	1	-0.012250
7.850000	1	-0.013625
7.866667	1	-0.015500
7.883333	1	-0.017125
7.900000	1	-0.018625
7.916667	1	-0.020625
7.933333	1	-0.022500
7.950000	1	-0.023375
7.966667	1	-0.025000
7.983333	1	-0.026500
8.000000	1	-0.028250
8.016667	1	-0.029625
8.033333	1	-0.030875
8.050000	1	-0.032250
8.066667	1	-0.033250
8.083333	1	-0.034375
8.100000	1	-0.035625
8.116667	1	-0.036500
8.133333	1	-0.037000
8.150000	1	-0.037875
8.166667	1	-0.038375
8.183333	1	-0.039250
8.200000	1	-0.039875
8.216667	1	-0.040000
8.233333	1	-0.040250
8.250000	1	-0.040500
8.266667	1	-0.041000
8.283333	1	-0.041500
8.300000	1	-0.041000
8.316667	1	-0.041125
8.333333	1	-0.041375
8.350000	1	-0.041625
8.366667	1	-0.041500
8.383333	1	-0.041625
8.400000	1	-0.042125
8.416667	1	-0.042375
8.433333	1	-0.042625
8.450000	1	-0.043375
8.466667	1	-0.042875
8.483333	1	-0.042500
8.500000	1	-0.042125
8.516667	1	-0.042000
8.533333	1	-0.041125
8.550000	1	-0.041125
8.566667	1	-0.042000
8.583333	1	-0.041750
8.600000	1	-0.042500
8.616667	1	-0.042750
8.633333	1	-0.043125
8.650000	1	-0.043500
8.666667	1	-0.043625
8.683333	1	-0.044500
8.700000	1	-0.045250
8.716667	1	-0.045625
8.733333	1	-0.046125
8.750000	1	-0.046500
8.766667	1	-0.047125
8.783333	1	-0.047250
8.800000	1	-0.048000
8.816667	1	-0.048875
8.833333	1	-0.049500
8.850000	1	-0.050000
8.866667	1	-0.050875
8.883333	1	-0.051250
8.900000	1	-0.051625
8.916667	1	-0.052500
8.933333	1	-0.053250
8.950000	1	-0.053500
8.966667	1	-0.053125
8.983333	1	-0.054375
9.000000	1	-0.054250
9.016667	1	-0.055375
9.033333	1	-0.055625
9.050000	1	-0.056000
9.066667	1	-0.056000
9.083333	1	-0.056250
9.100000	1	-0.056125
9.116667	1	-0.056375
9.133333	1	-0.056875
9.150000	1	-0.057125
9.166667	1	-0.057000
9.183333	1	-0.057750
9.200000	1	-0.058000
9.216667	1	-0.058000
9.233333	1	-0.058250
9.250000	1	-0.058625
9.266667	1	-0.059500
9.283333	1	-0.059375
9.300000	1	-0.060125
9.316667	1	-0.060500
9.333333	1	-0.060750
9.350000	1	-0.061375
9.366667	1	-0.061750
9.383333	1	-0.061375
9.400000	1	-0.062125
9.416667	1	-0.062625
9.433333	1	-0.063500
9.450000	1	-0.063875
9.466667	1	-0.063250
9.483333	1	-0.063375
9.500000	1	-0.063500
9.516667	1	-0.064000
9.533333	1	-0.064625
9.550000	1	-0.064875
9.566667	1	-0.065250
9.583333	1	-0.065875
9.600000	1	-0.066250
9.616667	1	-0.066500
9.633333	1	-0.066625
9.650000	1	-0.066750
9.666667	1	-0.067250
9.683333	1	-0.067250
9.700000	1	-0.067250
9.716667	1	-0.067250
9.733333	1	-0.067375
9.750000	1	-0.067875
9.766667	1	-0.067750
9.783333	1	-0.067750
9.800000	1	-0.068125
9.816667	1	-0.068500
9.833333	1	-0.069125
9.850000	1	-0.069125
9.866667	1	-0.069125
9.883333	1	-0.069125
9.900000	1	-0.069500
9.916667	1	-0.069625
9.933333	1	-0.069250
9.950000	1	-0.069375
9.966667	1	-0.069625
9.983333	1	-0.070000
10.000000	1	-0.070000
10.016667	1	-0.070750
10.033333	1	-0.071000
10.050000	1	-0.070875
10.066667	1	-0.070375
10.083333	1	-0.069250
10.100000	1	-0.067875
10.116667	1	-0.066125
10.133333	1	-0.063375
10.150000	1	-0.059375
10.166667	1	-0.055750
10.183333	1	-0.051625
10.200000	1	-0.045750
10.216667	1	-0.038250
10.233333	1	-0.029750
10.250000	1	-0.019750
10.266667	1	-0.008250
10.283333	1	0.005125
10.300000	1	0.021000
10.316667	1	0.038250
10.333333	1	0.056375
10.350000	1	0.074625
10.366667	1	0.090250
10.383333	1	0.101125
10.400000	1	0.102750
10.416667	1	0.090875
10.433333	1	0.064125
10.450000	1	0.023000
10.466667	1	-0.023875
10.483333	1	-0.063250
10.500000	1	-0.070000
10.516667	1	-0.009250
10.533333	1	0.161875
10.550000	1	0.495125
10.566667	1	1.046000
10.583333	1	1.870125
10.600000	1	3.018250
10.616667	1	4.537250
10.633333	1	6.459000
10.650000	1	8.805750
10.666667	1	11.593375
10.683333	1	14.824000
10.700000	1	18.489250
10.716667	1	22.568500
10.733333	1	27.032500
10.750000	1	31.839500
10.766667	1	36.934250
10.783333	1	42.255750
10.800000	1	47.723000
10.816667	1	53.226500
10.833333	1	58.603000
10.850000	1	63.635625
10.866667	1	68.015500
10.883333	1	71.332000
10.900000	1	73.104500
10.916667	1	72.878375
10.933333	1	70.375500
10.950000	1	65.635125
10.966667	1	59.074750
10.983333	1	51.386625
11.000000	1	43.355125
11.016667	1	35.660625
11.033333	1	28.763625
11.050000	1	22.875000
11.066667	1	18.029500
11.083333	1	14.150750
11.100000	1	11.113000
11.116667	1	8.771875
11.133333	1	6.989250
11.150000	1	5.643125
11.166667	1	4.630875
11.183333	1	3.870750
11.200000	1	3.297250
11.216667	1	2.861750
11.233333	1	2.528625
11.250000	1	2.269875
11.266667	1	2.067375
11.283333	1	1.905625
11.300000	1	1.775125
11.316667	1	1.666875
11.333333	1	1.575250
11.350000	1	1.496000
11.366667	1	1.426000
11.383333	1	1.364000
11.400000	1	1.309000
11.416667	1	1.260375
11.433333	1	1.215500
11.450000	1	1.175875
11.466667	1	1.141250
11.483333	1	1.110375
11.500000	1	1.084000
11.516667	1	1.062750
11.533333	1	1.045000
11.550000	1	1.032000
11.566667	1	1.023250
11.583333	1	1.018000
11.600000	1	1.017000
11.616667	1	1.020000
11.633333	1	1.027875
11.650000	1	1.039875
11.666667	1	1.055375
11.683333	1	1.074000
11.700000	1	1.096000
11.716667	1	1.119750
11.733333	1	1.145500
11.750000	1	1.170750
11.766667	1	1.194625
11.783333	1	1.215750
11.800000	1	1.233000
11.816667	1	1.245125
11.833333	1	1.252125
11.850000	1	1.254125
11.866667	1	1.250625
11.883333	1	1.241875
11.900000	1	1.228875
11.916667	1	1.212375
11.933333	1	1.193875
11.950000	1	1.174000
11.966667	1	1.154125
11.983333	1	1.133875
12.000000	1	1.115125
12.016667	1	1.097375
12.033333	1	1.081000
12.050000	1	1.067375
12.066667	1	1.054375
12.083333	1	1.044250
12.100000	1	1.035000
12.116667	1	1.027500
12.133333	1	1.021500
12.150000	1	1.016625
12.166667	1	1.013250
12.183333	1	1.011125
12.200000	1	1.009875
12.216667	1	1.011250
12.233333	1	1.014000
12.250000	1	1.019625
12.266667	1	1.028375
12.283333	1	1.042000
12.300000	1	1.063500
12.316667	1	1.095000
12.333333	1	1.141375
12.350000	1	1.208375
12.366667	1	1.304500
12.383333	1	1.439500
12.400000	1	1.628500
12.416667	1	1.889250
12.433333	1	2.245875
12.450000	1	2.727750
12.466667	1	3.371000
12.483333	1	4.219000
12.500000	1	5.323500
12.516667	1	6.738875
12.533333	1	8.527500
12.550000	1	10.748625
12.566667	1	13.461750
12.583333	1	16.717000
12.600000	1	20.541625
12.616667	1	24.936875
12.633333	1	29.879625
12.650000	1	35.306375
12.666667	1	41.107125
12.683333	1	47.122125
12.700000	1	53.144500
12.716667	1	58.938625
12.733333	1	64.247625
12.750000	1	68.824250
12.766667	1	72.448875
12.783333	1	74.948500
12.800000	1	76.217000
12.816667	1	76.229625
12.833333	1	75.035000
12.850000	1	72.755750
12.866667	1	69.576750
12.883333	1	65.726125
12.900000	1	61.451250
12.916667	1	56.995875
12.933333	1	52.580875
12.950000	1	48.388750
12.966667	1	44.555875
12.983333	1	41.171625
13.000000	1	38.285375
13.016667	1	35.905875
13.033333	1	34.017375
13.050000	1	32.582375
13.066667	1	31.557875
13.083333	1	30.893000
13.100000	1	30.538875
13.116667	1	30.446500
13.133333	1	30.574000
13.150000	1	30.882750
13.166667	1	31.341375
13.183333	1	31.923125
13.200000	1	32.604500
13.216667	1	33.369875
13.233333	1	34.206250
13.250000	1	35.103500
13.266667	1	36.052625
13.283333	1	37.047625
13.300000	1	38.083625
13.316667	1	39.156250
13.333333	1	40.263000
13.350000	1	41.401750
13.366667	1	42.570625
13.383333	1	43.768750
13.400000	1	44.994125
13.416667	1	46.248250
13.433333	1	47.530875
13.450000	1	48.844125
13.466667	1	50.187500
13.483333	1	51.560875
13.500000	1	52.964500
13.516667	1	54.397375
13.533333	1	55.859500
13.550000	1	57.352625
13.566667	1	58.876750
13.583333	1	60.431500
13.600000	1	62.016125
13.616667	1	63.633750
13.633333	1	65.286125
13.650000	1	66.974375
13.666667	1	68.699125
13.683333	1	70.459875
13.700000	1	72.256875
13.716667	1	74.088375
13.733333	1	75.942625
13.750000	1	77.772750
13.766667	1	79.469000
13.783333	1	80.838875
13.800000	1	81.662750
13.816667	1	81.754500
13.833333	1	81.004125
13.850000	1	79.341500
13.866667	1	76.661875
13.883333	1	72.781875
13.900000	1	67.492250
13.916667	1	60.735375
13.933333	1	52.780625
13.950000	1	44.269125
13.966667	1	36.014375
13.983333	1	28.689250
14.000000	1	22.623125
14.016667	1	17.826625
14.033333	1	14.135625
14.050000	1	11.337750
14.066667	1	9.237875
14.083333	1	7.674500
14.100000	1	6.519250
14.116667	1	5.667750
14.133333	1	5.039000
14.150000	1	4.571250
14.166667	1	4.217375
14.183333	1	3.945375
14.200000	1	3.731250
14.216667	1	3.558500
14.233333	1	3.416125
14.250000	1	3.296500
14.266667	1	3.193500
14.283333	1	3.103250
14.300000	1	3.023000
14.316667	1	2.951000
14.333333	1	2.885875
14.350000	1	2.826750
14.366667	1	2.772125
14.383333	1	2.722625
14.400000	1	2.677125
14.416667	1	2.634625
14.433333	1	2.595625
14.450000	1	2.559875
14.466667	1	2.526625
14.483333	1	2.496625
14.500000	1	2.468375
14.516667	1	2.442375
14.533333	1	2.417750
14.550000	1	2.395125
14.566667	1	2.373000
14.583333	1	2.351500
14.600000	1	2.330500
14.616667	1	2.309500
14.633333	1	2.288125
14.650000	1	2.266375
14.666667	1	2.244000
14.683333	1	2.221000
14.700000	1	2.197000
14.716667	1	2.172500
14.733333	1	2.147875
14.750000	1	2.122750
14.766667	1	2.096500
14.783333	1	2.070750
14.800000	1	2.044375
14.816667	1	2.018125
14.833333	1	1.992125
14.850000	1	1.966625
14.866667	1	1.940875
14.883333	1	1.915750
14.900000	1	1.890750
14.916667	1	1.866625
14.933333	1	1.842250
14.950000	1	1.818125
14.966667	1	1.794875
14.983333	1	1.771375
15.000000	1	1.748125
15.016667	1	1.724875
15.033333	1	1.702875
15.050000	1	1.680875
15.066667	1	1.658875
15.083333	1	1.638125
15.100000	1	1.618375
15.116667	1	1.598625
15.133333	1	1.580875
15.150000	1	1.563625
15.166667	1	1.547250
15.183333	1	1.531875
15.200000	1	1.516875
15.216667	1	1.503125
15.233333	1	1.491375
15.250000	1	1.481250
15.266667	1	1.473000
15.283333	1	1.466500
15.300000	1	1.462250
15.316667	1	1.459500
15.333333	1	1.459750
15.350000	1	1.463125
15.366667	1	1.470625
15.383333	1	1.481125
15.400000	1	1.495375
15.416667	1	1.513750
15.433333	1	1.535375
15.450000	1	1.560875
15.466667	1	1.589000
15.483333	1	1.618500
15.500000	1	1.648875
15.516667	1	1.678500
15.533333	1	1.705250
15.550000	1	1.728875
15.566667	1	1.746500
15.583333	1	1.757125
15.600000	1	1.760750
15.616667	1	1.756625
15.633333	1	1.743625
15.650000	1	1.723750
15.666667	1	1.697000
15.683333	1	1.664875
15.700000	1	1.629625
15.716667	1	1.591125
15.733333	1	1.552000
15.750000	1	1.512750
15.766667	1	1.473875
15.783333	1	1.436125
15.800000	1	1.400375
15.816667	1	1.366250
15.833333	1	1.333875
15.850000	1	1.303125
15.866667	1	1.272625
15.883333	1	1.244125
15.900000	1	1.216625
15.916667	1	1.190125
15.933333	1	1.164625
15.950000	1	1.141250
15.966667	1	1.119625
15.983333	1	1.099500
16.000000	1	1.081125
16.016667	1	1.065500
16.033333	1	1.051500
16.050000	1	1.040625
16.066667	1	1.030125
16.083333	1	1.021875
16.100000	1	1.015750
16.116667	1	1.011500
16.133333	1	1.009125
16.150000	1	1.007875
16.166667	1	1.007375
16.183333	1	1.007625
16.200000	1	1.008625
16.216667	1	1.010250
16.233333	1	1.011375
16.250000	1	1.012250
16.266667	1	1.012625
16.283333	1	1.012625
16.300000	1	1.011750
16.316667	1	1.010000
16.333333	1	1.008250
16.350000	1	1.005750
16.366667	1	1.002875
16.383333	1	0.999125
16.400000	1	0.995750
16.416667	1	0.992250
16.433333	1	0.988375
16.450000	1	0.985125
16.466667	1	0.981875
16.483333	1	0.980000
16.500000	1	0.979000
16.516667	1	0.978125
16.533333	1	0.980125
16.550000	1	0.983125
16.566667	1	0.987500
16.583333	1	0.993500
16.600000	1	1.000375
16.616667	1	1.007625
16.633333	1	1.015625
16.650000	1	1.023625
16.666667	1	1.032250
16.683333	1	1.040125
16.700000	1	1.046250
16.716667	1	1.051750
16.733333	1	1.056500
16.750000	1	1.060500
16.766667	1	1.064000
16.783333	1	1.067000
16.800000	1	1.069250
16.816667	1	1.071125
16.833333	1	1.073000
16.850000	1	1.075250
16.866667	1	1.078125
16.883333	1	1.080625
16.900000	1	1.082375
16.916667	1	1.086000
16.933333	1	1.088750
16.950000	1	1.090375
16.966667	1	1.092000
16.983333	1	1.092750
17.000000	1	1.092500
17.016667	1	1.091250
17.033333	1	1.089500
17.050000	1	1.087125
17.066667	1	1.083875
17.083333	1	1.080625
17.100000	1	1.077125
17.116667	1	1.072625
17.133333	1	1.068375
17.150000	1	1.065750
17.166667	1	1.062625
17.183333	1	1.060750
17.200000	1	1.060125
17.216667	1	1.059750
17.233333	1	1.060750
17.250000	1	1.061875
17.266667	1	1.064250
17.283333	1	1.067000
17.300000	1	1.070875
17.316667	1	1.075875
17.333333	1	1.080750
17.350000	1	1.085750
17.366667	1	1.091125
17.383333	1	1.096750
17.400000	1	1.101875
17.416667	1	1.106500
17.433333	1	1.110000
17.450000	1	1.112500
17.466667	1	1.114125
17.483333	1	1.113250
17.500000	1	1.111125
17.516667	1	1.107125
17.533333	1	1.101500
17.550000	1	1.094000
17.566667	1	1.084500
17.583333	1	1.073500
17.600000	1	1.060625
17.616667	1	1.046375
17.633333	1	1.030750
17.650000	1	1.014750
17.666667	1	0.997875
17.683333	1	0.981000
17.700000	1	0.963625
17.716667	1	0.946750
17.733333	1	0.929375
17.750000	1	0.913000
17.766667	1	0.897250
17.783333	1	0.882750
17.800000	1	0.868375
17.816667	1	0.855375
17.833333	1	0.842125
17.850000	1	0.830375
17.866667	1	0.819375
17.883333	1	0.809500
17.900000	1	0.800125
17.916667	1	0.791000
17.933333	1	0.783250
17.950000	1	0.776125
17.966667	1	0.769750
17.983333	1	0.763375
18.000000	1	0.757875
18.016667	1	0.752375
18.033333	1	0.747750
18.050000	1	0.742875
18.066667	1	0.738125
18.083333	1	0.733750
18.100000	1	0.729500
18.116667	1	0.724875
18.133333	1	0.720250
18.150000	1	0.715500
18.166667	1	0.711250
18.183333	1	0.707500
18.200000	1	0.703125
18.216667	1	0.699875
18.233333	1	0.696625
18.250000	1	0.693500
18.266667	1	0.691750
18.283333	1	0.689875
18.300000	1	0.688500
18.316667	1	0.688250
18.333333	1	0.688375
18.350000	1	0.688375
18.366667	1	0.689500
18.383333	1	0.690750
18.400000	1	0.692875
18.416667	1	0.695750
18.433333	1	0.698625
18.450000	1	0.701875
18.466667	1	0.706375
18.483333	1	0.712000
18.500000	1	0.718500
18.516667	1	0.726000
18.533333	1	0.736125
18.550000	1	0.747500
18.566667	1	0.760375
18.583333	1	0.775500
18.600000	1	0.792375
18.616667	1	0.811000
18.633333	1	0.831125
18.650000	1	0.853625
18.666667	1	0.878125
18.683333	1	0.904125
18.700000	1	0.932375
18.716667	1	0.962625
18.733333	1	0.993750
18.750000	1	1.026000
18.766667	1	1.059500
18.783333	1	1.092750
18.800000	1	1.126250
18.816667	1	1.159500
18.833333	1	1.191625
18.850000	1	1.221375
18.866667	1	1.249625
18.883333	1	1.275250
18.900000	1	1.297750
18.916667	1	1.315375
18.933333	1	1.328500
18.950000	1	1.335875
18.966667	1	1.337875
18.983333	1	1.333625
19.000000	1	1.323125
19.016667	1	1.306375
19.033333	1	1.282875
19.050000	1	1.254250
19.066667	1	1.220000
19.083333	1	1.181625
19.100000	1	1.138625
19.116667	1	1.093500
19.133333	1	1.046250
19.150000	1	0.997250
19.166667	1	0.948625
19.183333	1	0.900625
19.200000	1	0.854500
19.216667	1	0.810750
19.233333	1	0.770375
19.250000	1	0.734500
19.266667	1	0.702000
19.283333	1	0.674500
19.300000	1	0.651625
19.316667	1	0.633250
19.333333	1	0.619875
19.350000	1	0.610875
19.366667	1	0.607375
19.383333	1	0.608125
19.400000	1	0.613125
19.416667	1	0.622750
19.433333	1	0.635750
19.450000	1	0.652375
19.466667	1	0.672250
19.483333	1	0.695750
19.500000	1	0.721500
19.516667	1	0.748625
19.533333	1	0.776875
19.550000	1	0.806500
19.566667	1	0.835375
19.583333	1	0.862250
19.600000	1	0.886750
19.616667	1	0.909500
19.633333	1	0.927500
19.650000	1	0.941625
19.666667	1	0.951000
19.683333	1	0.955125
19.700000	1	0.953750
19.716667	1	0.947125
19.733333	1	0.935375
19.750000	1	0.918625
19.766667	1	0.897375
19.783333	1	0.871875
19.800000	1	0.844125
19.816667	1	0.813125
19.833333	1	0.781125
19.850000	1	0.748625
19.866667	1	0.715875
19.883333	1	0.683500
19.900000	1	0.652875
19.916667	1	0.623625
19.933333	1	0.595625
19.950000	1	0.570500
19.966667	1	0.548000
19.983333	1	0.527875
20.000000	1	0.510125
20.016667	1	0.494875
20.033333	1	0.482000
20.050000	1	0.471625
20.066667	1	0.463625
20.083333	1	0.458500
20.100000	1	0.456000
20.116667	1	0.455625
20.133333	1	0.457000
20.150000	1	0.460625
20.166667	1	0.466625
20.183333	1	0.474375
20.200000	1	0.483625
20.216667	1	0.494375
20.233333	1	0.506500
20.250000	1	0.519875
20.266667	1	0.534125
20.283333	1	0.548625
20.300000	1	0.562500
20.316667	1	0.576500
20.333333	1	0.589375
20.350000	1	0.601000
20.366667	1	0.611250
20.383333	1	0.619875
20.400000	1	0.625625
20.416667	1	0.629875
20.433333	1	0.631375
20.450000	1	0.632000
20.466667	1	0.630375
20.483333	1	0.628250
20.500000	1	0.625750
20.516667	1	0.624125
20.533333	1	0.624000
20.550000	1	0.625625
20.566667	1	0.631500
20.583333	1	0.640375
20.600000	1	0.654625
20.616667	1	0.674375
20.633333	1	0.700125
20.650000	1	0.732250
20.666667	1	0.771000
20.683333	1	0.816000
20.700000	1	0.867625
20.716667	1	0.924750
20.733333	1	0.987125
20.750000	1	1.054125
20.766667	1	1.123125
20.783333	1	1.193250
20.800000	1	1.261625
20.816667	1	1.327875
20.833333	1	1.388875
20.850000	1	1.443125
20.866667	1	1.487750
20.883333	1	1.521875
20.900000	1	1.544500
20.916667	1	1.554375
20.933333	1	1.550125
20.950000	1	1.533375
20.966667	1	1.503375
20.983333	1	1.461625
21.000000	1	1.409625
21.016667	1	1.349625
21.033333	1	1.282500
21.050000	1	1.210875
21.066667	1	1.137250
21.083333	1	1.062000
21.100000	1	0.988875
21.116667	1	0.917250
21.133333	1	0.849125
21.150000	1	0.785125
21.166667	1	0.726125
21.183333	1	0.673375
21.200000	1	0.625125
21.216667	1	0.582125
21.233333	1	0.544875
21.250000	1	0.512500
21.266667	1	0.483875
21.283333	1	0.459000
21.300000	1	0.438750
21.316667	1	0.421500
21.333333	1	0.407500
21.350000	1	0.395625
21.366667	1	0.385250
21.383333	1	0.377250
21.400000	1	0.370000
21.416667	1	0.364625
21.433333	1	0.360750
21.450000	1	0.358000
21.466667	1	0.355625
21.483333	1	0.354375
21.500000	1	0.354500
21.516667	1	0.355750
21.533333	1	0.357375
21.550000	1	0.360250
21.566667	1	0.364125
21.583333	1	0.369750
21.600000	1	0.375625
21.616667	1	0.384000
21.633333	1	0.393625
21.650000	1	0.404875
21.666667	1	0.418125
21.683333	1	0.433500
21.700000	1	0.451125
21.716667	1	0.470625
21.733333	1	0.492375
21.750000	1	0.517375
21.766667	1	0.544250
21.783333	1	0.573125
21.800000	1	0.604625
21.816667	1	0.637625
21.833333	1	0.673250
21.850000	1	0.709750
21.866667	1	0.747000
21.883333	1	0.786500
21.900000	1	0.826750
21.916667	1	0.866125
21.933333	1	0.906000
21.950000	1	0.945000
21.966667	1	0.981375
21.983333	1	1.015000
22.000000	1	1.045750
22.016667	1	1.072625
22.033333	1	1.095000
22.050000	1	1.112500
22.066667	1	1.123625
22.083333	1	1.129500
22.100000	1	1.129375
22.116667	1	1.123500
22.133333	1	1.111750
22.150000	1	1.094625
22.166667	1	1.072750
22.183333	1	1.045500
22.200000	1	1.014750
22.216667	1	0.980250
22.233333	1	0.943000
22.250000	1	0.904250
22.266667	1	0.863500
22.283333	1	0.822375
22.300000	1	0.781750
22.316667	1	0.740875
22.333333	1	0.700750
22.350000	1	0.660750
22.366667	1	0.622750
22.383333	1	0.585750
22.400000	1	0.550875
22.416667	1	0.517375
22.433333	1	0.486000
22.450000	1	0.456750
22.466667	1	0.429250
22.483333	1	0.403625
22.500000	1	0.379750
22.516667	1	0.356750
22.533333	1	0.337000
22.550000	1	0.318125
22.566667	1	0.301750
22.583333	1	0.285375
22.600000	1	0.271000
22.616667	1	0.257375
22.633333	1	0.245625
22.650000	1	0.235000
22.666667	1	0.225750
22.683333	1	0.216750
22.700000	1	0.209125
22.716667	1	0.202125
22.733333	1	0.196000
22.750000	1	0.190250
22.766667	1	0.185125
22.783333	1	0.180125
22.800000	1	0.176375
22.816667	1	0.173500
22.833333	1	0.170875
22.850000	1	0.168625
22.866667	1	0.167625
22.883333	1	0.166250
22.900000	1	0.165500
22.916667	1	0.165125
22.933333	1	0.166000
22.950000	1	0.166875
22.966667	1	0.167625
22.983333	1	0.169750
23.000000	1	0.171750
23.016667	1	0.174125
23.033333	1	0.177375
23.050000	1	0.180750
23.066667	1	0.184625
23.083333	1	0.188625
23.100000	1	0.193250
23.116667	1	0.198375
23.133333	1	0.202500
23.150000	1	0.207500
23.166667	1	0.212625
23.183333	1	0.217250
23.200000	1	0.222250
23.216667	1	0.227500
23.233333	1	0.233250
23.250000	1	0.240125
23.266667	1	0.248750
23.283333	1	0.257500
23.300000	1	0.267250
23.316667	1	0.278500
23.333333	1	0.291375
23.350000	1	0.306500
23.366667	1	0.325125
23.383333	1	0.346250
23.400000	1	0.372250
23.416667	1	0.402500
23.433333	1	0.438750
23.450000	1	0.480250
23.466667	1	0.529250
23.483333	1	0.585375
23.500000	1	0.650375
23.516667	1	0.724750
23.533333	1	0.808875
23.550000	1	0.903625
23.566667	1	1.009875
23.583333	1	1.126875
23.600000	1	1.256375
23.616667	1	1.397750
23.633333	1	1.551250
23.650000	1	1.716625
23.666667	1	1.892500
23.683333	1	2.078625
23.700000	1	2.273500
23.716667	1	2.476250
23.733333	1	2.684125
23.750000	1	2.893375
23.766667	1	3.101750
23.783333	1	3.305375
23.800000	1	3.500375
23.816667	1	3.682875
23.833333	1	3.849000
23.850000	1	3.995500
23.866667	1	4.120375
23.883333	1	4.218500
23.900000	1	4.287625
23.916667	1	4.326625
23.933333	1	4.334875
23.950000	1	4.311375
23.966667	1	4.256250
23.983333	1	4.171500
24.000000	1	4.059875
24.016667	1	3.924250
24.033333	1	3.767875
24.050000	1	3.594500
24.066667	1	3.407375
24.083333	1	3.210000
24.100000	1	3.007500
24.116667	1	2.802250
24.133333	1	2.597750
24.150000	1	2.397625
24.166667	1	2.202375
24.183333	1	2.016625
24.200000	1	1.840500
24.216667	1	1.676375
24.233333	1	1.523750
24.250000	1	1.383000
24.266667	1	1.254500
24.283333	1	1.138500
24.300000	1	1.033250
24.316667	1	0.939750
24.333333	1	0.856250
24.350000	1	0.783000
24.366667	1	0.718250
24.383333	1	0.662000
24.400000	1	0.612375
24.416667	1	0.569625
24.433333	1	0.533250
24.450000	1	0.502000
24.466667	1	0.475375
24.483333	1	0.453625
24.500000	1	0.434000
24.516667	1	0.418375
24.533333	1	0.404875
24.550000	1	0.393250
24.566667	1	0.383375
24.583333	1	0.374625
24.600000	1	0.367125
24.616667	1	0.360625
24.633333	1	0.353750
24.650000	1	0.347000
24.666667	1	0.341375
24.683333	1	0.335625
24.700000	1	0.330500
24.716667	1	0.325250
24.733333	1	0.319875
24.750000	1	0.314875
24.766667	1	0.310125
24.783333	1	0.305250
24.800000	1	0.299750
24.816667	1	0.294625
24.833333	1	0.289625
24.850000	1	0.284875
24.866667	1	0.280875
24.883333	1	0.277000
24.900000	1	0.273500
24.916667	1	0.270000
24.933333	1	0.267500
24.950000	1	0.264250
24.966667	1	0.261875
24.983333	1	0.259500
25.000000	1	0.256625
25.016667	1	0.254625
25.033333	1	0.252375
25.050000	1	0.250375
25.066667	1	0.248750
25.083333	1	0.246375
25.100000	1	0.245125
25.116667	1	0.243250
25.133333	1	0.241125
25.150000	1	0.238500
25.166667	1	0.236125
25.183333	1	0.233500
25.200000	1	0.231125
25.216667	1	0.228375
25.233333	1	0.225500
25.250000	1	0.222125
25.266667	1	0.219375
25.283333	1	0.216875
25.300000	1	0.213875
25.316667	1	0.211250
25.333333	1	0.207875
25.350000	1	0.204500
25.366667	1	0.201250
25.383333	1	0.198000
25.400000	1	0.195250
25.416667	1	0.192000
25.433333	1	0.188875
25.450000	1	0.186125
25.466667	1	0.183750
25.483333	1	0.180750
25.500000	1	0.178125
25.516667	1	0.175500
25.533333	1	0.173750
25.550000	1	0.171500
25.566667	1	0.169625
25.583333	1	0.167875
25.600000	1	0.165750
25.616667	1	0.164625
25.633333	1	0.163250
25.650000	1	0.161750
25.666667	1	0.160625
25.683333	1	0.160500
25.700000	1	0.159500
25.716667	1	0.159125
25.733333	1	0.158625
25.750000	1	0.158375
25.766667	1	0.158250
25.783333	1	0.159125
25.800000	1	0.159250
25.816667	1	0.159500
25.833333	1	0.160625
25.850000	1	0.162250
25.866667	1	0.164750
25.883333	1	0.166500
25.900000	1	0.169125
25.916667	1	0.172000
25.933333	1	0.174750
25.950000	1	0.177625
25.966667	1	0.181500
25.983333	1	0.185375
26.000000	1	0.189625
26.016667	1	0.193750
26.033333	1	0.199000
26.050000	1	0.203375
26.066667	1	0.208250
26.083333	1	0.213250
26.100000	1	0.218250
26.116667	1	0.222750
26.133333	1	0.227250
26.150000	1	0.231375
26.166667	1	0.235625
26.183333	1	0.239125
26.200000	1	0.242125
26.216667	1	0.244500
26.233333	1	0.247250
26.250000	1	0.249250
26.266667	1	0.250875
26.283333	1	0.250875
26.300000	1	0.251625
26.316667	1	0.251375
26.333333	1	0.249750
26.350000	1	0.248125
26.366667	1	0.246625
26.383333	1	0.244250
26.400000	1	0.240750
26.416667	1	0.236750
26.433333	1	0.232625
26.450000	1	0.228250
26.466667	1	0.223625
26.483333	1	0.217875
26.500000	1	0.212750
26.516667	1	0.207875
26.533333	1	0.202000
26.550000	1	0.196375
26.566667	1	0.190375
26.583333	1	0.184750
26.600000	1	0.178750
26.616667	1	0.173500
26.633333	1	0.169500
26.650000	1	0.165000
26.666667	1	0.159875
26.683333	1	0.154625
26.700000	1	0.150625
26.716667	1	0.146875
26.733333	1	0.143625
26.750000	1	0.139375
26.766667	1	0.135875
26.783333	1	0.133250
26.800000	1	0.131250
26.816667	1	0.129250
26.833333	1	0.127625
26.850000	1	0.126250
26.866667	1	0.126125
26.883333	1	0.125750
26.900000	1	0.126125
26.916667	1	0.126625
26.933333	1	0.127500
26.950000	1	0.129000
26.966667	1	0.130625
26.983333	1	0.132750
27.000000	1	0.135375
27.016667	1	0.138875
27.033333	1	0.143125
27.050000	1	0.148125
27.066667	1	0.154125
27.083333	1	0.161125
27.100000	1	0.168625
27.116667	1	0.177000
27.133333	1	0.186500
27.150000	1	0.197250
27.166667	1	0.209750
27.183333	1	0.224875
27.200000	1	0.241625
27.216667	1	0.260750
27.233333	1	0.282375
27.250000	1	0.306875
27.266667	1	0.334500
27.283333	1	0.366375
27.300000	1	0.401875
27.316667	1	0.441625
27.333333	1	0.485875
27.350000	1	0.535500
27.366667	1	0.590125
27.383333	1	0.650875
27.400000	1	0.718125
27.416667	1	0.791875
27.433333	1	0.872125
27.450000	1	0.959625
27.466667	1	1.055125
27.483333	1	1.157875
27.500000	1	1.268625
27.516667	1	1.387000
27.533333	1	1.512250
27.550000	1	1.645125
27.566667	1	1.785000
27.583333	1	1.930375
27.600000	1	2.081500
27.616667	1	2.235625
27.633333	1	2.393625
27.650000	1	2.553250
27.666667	1	2.713250
27.683333	1	2.871500
27.700000	1	3.026375
27.716667	1	3.175000
27.733333	1	3.316625
27.750000	1	3.447250
27.766667	1	3.566125
27.783333	1	3.671875
27.800000	1	3.761125
27.816667	1	3.832500
27.833333	1	3.884500
27.850000	1	3.916375
27.866667	1	3.926750
27.883333	1	3.914875
27.900000	1	3.880750
27.916667	1	3.826250
27.933333	1	3.749375
27.950000	1	3.652750
27.966667	1	3.538750
27.983333	1	3.408000
28.000000	1	3.264500
28.016667	1	3.109375
28.033333	1	2.944250
28.050000	1	2.772750
28.066667	1	2.597250
28.083333	1	2.420875
28.100000	1	2.245000
28.116667	1	2.072375
28.133333	1	1.905500
28.150000	1	1.745250
28.166667	1	1.592500
28.183333	1	1.449625
28.200000	1	1.315875
28.216667	1	1.191625
28.233333	1	1.077625
28.250000	1	0.974750
28.266667	1	0.882875
28.283333	1	0.799375
28.300000	1	0.725250
28.316667	1	0.660375
28.333333	1	0.603750
28.350000	1	0.555250
28.366667	1	0.514250
28.383333	1	0.479625
28.400000	1	0.451250
28.416667	1	0.427875
28.433333	1	0.408875
28.450000	1	0.394750
28.466667	1	0.384125
28.483333	1	0.377250
28.500000	1	0.373000
28.516667	1	0.371750
28.533333	1	0.373000
28.550000	1	0.375625
28.566667	1	0.380250
28.583333	1	0.385750
28.600000	1	0.392500
28.616667	1	0.399500
28.633333	1	0.407625
28.650000	1	0.416000
28.666667	1	0.424875
28.683333	1	0.433000
28.700000	1	0.441625
28.716667	1	0.449250
28.733333	1	0.456500
28.750000	1	0.463125
28.766667	1	0.468500
28.783333	1	0.473875
28.800000	1	0.478250
28.816667	1	0.482000
28.833333	1	0.484250
28.850000	1	0.485625
28.866667	1	0.486125
28.883333	1	0.485375
28.900000	1	0.484000
28.916667	1	0.480875
28.933333	1	0.477250
28.950000	1	0.472375
28.966667	1	0.467000
28.983333	1	0.460375
29.000000	1	0.452750
29.016667	1	0.444500
29.033333	1	0.435000
29.050000	1	0.425375
29.066667	1	0.415500
29.083333	1	0.403625
29.100000	1	0.391750
29.116667	1	0.379375
29.133333	1	0.367000
29.150000	1	0.354625
29.166667	1	0.342000
29.183333	1	0.329000
29.200000	1	0.316625
29.216667	1	0.304375
29.233333	1	0.292000
29.250000	1	0.279750
29.266667	1	0.267750
29.283333	1	0.255000
29.300000	1	0.243500
29.316667	1	0.232750
29.333333	1	0.221625
29.350000	1	0.211875
29.366667	1	0.202500
29.383333	1	0.193000
29.400000	1	0.184375
29.416667	1	0.175875
29.433333	1	0.168500
29.450000	1	0.161375
29.466667	1	0.155750
29.483333	1	0.149500
29.500000	1	0.144125
29.516667	1	0.138500
29.533333	1	0.133750
29.550000	1	0.129875
29.566667	1	0.126375
29.583333	1	0.123375
29.600000	1	0.120500
29.616667	1	0.118125
29.633333	1	0.115875
29.650000	1	0.113500
29.666667	1	0.111625
29.683333	1	0.109625
29.700000	1	0.108500
29.716667	1	0.107125
29.733333	1	0.105750
29.750000	1	0.103750
29.766667	1	0.101625
29.783333	1	0.100750
29.800000	1	0.099500
29.816667	1	0.098125
29.833333	1	0.096375
29.850000	1	0.095250
29.866667	1	0.093750
29.883333	1	0.092125
29.900000	1	0.090125
29.916667	1	0.088500
29.933333	1	0.086750
29.950000	1	0.085000
29.966667	1	0.082375
29.983333	1	0.080250
30.000000	1	0.078250
30.016667	1	0.075875
30.033333	1	0.074000
30.050000	1	0.072375
30.066667	1	0.070375
30.083333	1	0.068125
30.100000	1	0.066500
30.116667	1	0.064375
30.133333	1	0.062500
30.150000	1	0.061250
30.166667	1	0.059875
30.183333	1	0.058750
30.200000	1	0.058250
30.216667	1	0.057625
30.233333	1	0.058000
30.250000	1	0.058125
30.266667	1	0.057625
30.283333	1	0.057375
30.300000	1	0.057875
30.316667	1	0.058625
30.333333	1	0.059375
30.350000	1	0.059750
30.366667	1	0.062000
30.383333	1	0.063375
30.400000	1	0.065375
30.416667	1	0.067250
30.433333	1	0.070750
30.450000	1	0.073625
30.466667	1	0.076625
30.483333	1	0.080625
30.500000	1	0.084750
30.516667	1	0.089000
30.533333	1	0.094000
30.550000	1	0.099125
30.566667	1	0.105125
30.583333	1	0.112000
30.600000	1	0.119750
30.616667	1	0.127500
30.633333	1	0.136625
30.650000	1	0.146625
30.666667	1	0.157375
30.683333	1	0.169625
30.700000	1	0.182875
30.716667	1	0.198250
30.733333	1	0.215125
30.750000	1	0.233375
30.766667	1	0.255125
30.783333	1	0.278125
30.800000	1	0.304375
30.816667	1	0.333250
30.833333	1	0.366625
30.850000	1	0.403250
30.866667	1	0.443875
30.883333	1	0.489250
30.900000	1	0.540625
30.916667	1	0.597250
30.933333	1	0.659875
30.950000	1	0.728875
30.966667	1	0.804875
30.983333	1	0.888250
31.000000	1	0.979750
31.016667	1	1.080250
31.033333	1	1.188875
31.050000	1	1.305875
31.066667	1	1.433000
31.083333	1	1.569125
31.100000	1	1.714750
31.116667	1	1.869375
31.133333	1	2.032500
31.150000	1	2.203375
31.166667	1	2.382000
31.183333	1	2.567500
31.200000	1	2.758875
31.216667	1	2.955625
31.233333	1	3.155375
31.250000	1	3.356375
31.266667	1	3.557125
31.283333	1	3.755875
31.300000	1	3.950125
31.316667	1	4.138500
31.333333	1	4.318250
31.350000	1	4.487500
31.366667	1	4.644375
31.383333	1	4.787125
31.400000	1	4.912625
31.416667	1	5.020625
31.433333	1	5.108375
31.450000	1	5.174750
31.466667	1	5.218500
31.483333	1	5.240250
31.500000	1	5.238125
31.516667	1	5.214750
31.533333	1	5.168000
31.550000	1	5.099250
31.566667	1	5.009500
31.583333	1	4.899375
31.600000	1	4.772250
31.616667	1	4.627750
31.633333	1	4.468875
31.650000	1	4.297000
31.666667	1	4.115750
31.683333	1	3.925750
31.700000	1	3.730125
31.716667	1	3.531750
31.733333	1	3.331125
31.750000	1	3.130625
31.766667	1	2.931125
31.783333	1	2.735000
31.800000	1	2.543125
31.816667	1	2.356250
31.833333	1	2.177000
31.850000	1	2.004875
31.866667	1	1.841500
31.883333	1	1.686625
31.900000	1	1.541375
31.916667	1	1.405625
31.933333	1	1.278750
31.950000	1	1.161000
31.966667	1	1.052625
31.983333	1	0.952125
32.000000	1	0.859875
32.016667	1	0.776125
32.033333	1	0.699375
32.050000	1	0.630375
32.066667	1	0.567625
32.083333	1	0.510875
32.100000	1	0.460000
32.116667	1	0.414125
32.133333	1	0.372750
32.150000	1	0.336500
32.166667	1	0.303625
32.183333	1	0.274250
32.200000	1	0.247875
32.216667	1	0.224500
32.233333	1	0.203625
32.250000	1	0.184875
32.266667	1	0.167875
32.283333	1	0.152750
32.300000	1	0.139375
32.316667	1	0.127125
32.333333	1	0.116000
32.350000	1	0.106000
32.366667	1	0.096750
32.383333	1	0.087750
32.400000	1	0.080125
32.416667	1	0.073125
32.433333	1	0.066125
32.450000	1	0.059375
32.466667	1	0.053500
32.483333	1	0.047625
32.500000	1	0.042625
32.516667	1	0.037875
32.533333	1	0.033750
32.550000	1	0.029250
32.566667	1	0.025875
32.583333	1	0.022125
32.600000	1	0.019125
32.616667	1	0.015375
32.633333	1	0.011750
32.650000	1	0.009125
32.666667	1	0.006250
32.683333	1	0.003875
32.700000	1	0.001125
32.716667	1	-0.000500
32.733333	1	-0.002625
32.750000	1	-0.004125
32.766667	1	-0.005625
32.783333	1	-0.006875
32.800000	1	-0.008375
32.816667	1	-0.010375
32.833333	1	-0.011875
32.850000	1	-0.012750
32.866667	1	-0.013625
32.883333	1	-0.015125
32.900000	1	-0.015500
32.916667	1	-0.016125
32.933333	1	-0.016750
32.950000	1	-0.017375
32.966667	1	-0.017125
32.983333	1	-0.017125
33.000000	1	-0.016500
33.016667	1	-0.016250
33.033333	1	-0.015625
33.050000	1	-0.015500
33.066667	1	-0.015000
33.083333	1	-0.014125
33.100000	1	-0.013125
33.116667	1	-0.011750
33.133333	1	-0.009875
33.150000	1	-0.006875
33.166667	1	-0.004250
33.183333	1	-0.001375
33.200000	1	0.002000
33.216667	1	0.005875
33.233333	1	0.010000
33.250000	1	0.015000
33.266667	1	0.020750
33.283333	1	0.027375
33.300000	1	0.034000
33.316667	1	0.042625
33.333333	1	0.051500
33.350000	1	0.061750
33.366667	1	0.072750
33.383333	1	0.085750
33.400000	1	0.099125
33.416667	1	0.113375
33.433333	1	0.129000
33.450000	1	0.146000
33.466667	1	0.164750
33.483333	1	0.185625
33.500000	1	0.207375
33.516667	1	0.231125
33.533333	1	0.257000
33.550000	1	0.284500
33.566667	1	0.313625
33.583333	1	0.345625
33.600000	1	0.379375
33.616667	1	0.414000
33.633333	1	0.451250
33.650000	1	0.490625
33.666667	1	0.533000
33.683333	1	0.576250
33.700000	1	0.620500
33.716667	1	0.667375
33.733333	1	0.715750
33.750000	1	0.765375
33.766667	1	0.815750
33.783333	1	0.867250
33.800000	1	0.919750
33.816667	1	0.971625
33.833333	1	1.023500
33.850000	1	1.074750
33.866667	1	1.124625
33.883333	1	1.173125
33.900000	1	1.220000
33.916667	1	1.264625
33.933333	1	1.306625
33.950000	1	1.345125
33.966667	1	1.380750
33.983333	1	1.412500
34.000000	1	1.438500
34.016667	1	1.461000
34.033333	1	1.478125
34.050000	1	1.489500
34.066667	1	1.496750
34.083333	1	1.498250
34.100000	1	1.494375
34.116667	1	1.484500
34.133333	1	1.469500
34.150000	1	1.449875
34.166667	1	1.425500
34.183333	1	1.396625
34.200000	1	1.363625
34.216667	1	1.326875
34.233333	1	1.286125
34.250000	1	1.242250
34.266667	1	1.196375
34.283333	1	1.148250
34.300000	1	1.098750
34.316667	1	1.048500
34.333333	1	0.998250
34.350000	1	0.946750
34.366667	1	0.895500
34.383333	1	0.844375
34.400000	1	0.794000
34.416667	1	0.744625
34.433333	1	0.696875
34.450000	1	0.650375
34.466667	1	0.605375
34.483333	1	0.562750
34.500000	1	0.522750
34.516667	1	0.484375
34.533333	1	0.448500
34.550000	1	0.414625
34.566667	1	0.382250
34.583333	1	0.353500
34.600000	1	0.326000
34.616667	1	0.300375
34.633333	1	0.276500
34.650000	1	0.254375
34.666667	1	0.234625
34.683333	1	0.216375
34.700000	1	0.200000
34.716667	1	0.184625
34.733333	1	0.170875
34.750000	1	0.158375
34.766667	1	0.146500
34.783333	1	0.136250
34.800000	1	0.127375
34.816667	1	0.119125
34.833333	1	0.111625
34.850000	1	0.105250
34.866667	1	0.098875
34.883333	1	0.094000
34.900000	1	0.089625
34.916667	1	0.084875
34.933333	1	0.081250
34.950000	1	0.077625
34.966667	1	0.074625
34.983333	1	0.072750
35.000000	1	0.070500
35.016667	1	0.068750
35.033333	1	0.066875
35.050000	1	0.065875
35.066667	1	0.064625
35.083333	1	0.064125
35.100000	1	0.063875
35.116667	1	0.063375
35.133333	1	0.063375
35.150000	1	0.063375
35.166667	1	0.063750
35.183333	1	0.064250
35.200000	1	0.064625
35.216667	1	0.065125
35.233333	1	0.065750
35.250000	1	0.066000
35.266667	1	0.066500
35.283333	1	0.067875
35.300000	1	0.069000
35.316667	1	0.070000
35.333333	1	0.070625
35.350000	1	0.071750
35.366667	1	0.072625
35.383333	1	0.072875
35.400000	1	0.073625
35.416667	1	0.075000
35.433333	1	0.075750
35.450000	1	0.076625
35.466667	1	0.077125
35.483333	1	0.078500
35.500000	1	0.079750
35.516667	1	0.080500
35.533333	1	0.081250
35.550000	1	0.081375
35.566667	1	0.081375
35.583333	1	0.081375
35.600000	1	0.081875
35.616667	1	0.082250
35.633333	1	0.082125
35.650000	1	0.082500
35.666667	1	0.082750
35.683333	1	0.082750
35.700000	1	0.082375
35.716667	1	0.081500
35.733333	1	0.081500
35.750000	1	0.081250
35.766667	1	0.080750
35.783333	1	0.080000
35.800000	1	0.079375
35.816667	1	0.078625
35.833333	1	0.078375
35.850000	1	0.077375
35.866667	1	0.076625
35.883333	1	0.076375
35.900000	1	0.075500
35.916667	1	0.074750
35.933333	1	0.073875
35.950000	1	0.073250
35.966667	1	0.072625
35.983333	1	0.072375
36.000000	1	0.071625
36.016667	1	0.070875
36.033333	1	0.070000
36.050000	1	0.069500
36.066667	1	0.069250
36.083333	1	0.069125
36.100000	1	0.069625
36.116667	1	0.070000
36.133333	1	0.069750
36.150000	1	0.069750
36.166667	1	0.070125
36.183333	1	0.069750
36.200000	1	0.069750
36.216667	1	0.069750
36.233333	1	0.069750
36.250000	1	0.069125
36.266667	1	0.069250
36.283333	1	0.069000
36.300000	1	0.068500
36.316667	1	0.068000
36.333333	1	0.067875
36.350000	1	0.068250
36.366667	1	0.068000
36.383333	1	0.066875
36.400000	1	0.065625
36.416667	1	0.064375
36.433333	1	0.064250
36.450000	1	0.063500
36.466667	1	0.063000
36.483333	1	0.061500
36.500000	1	0.060500
36.516667	1	0.059250
36.533333	1	0.058000
36.550000	1	0.057250
36.566667	1	0.055625
36.583333	1	0.054625
36.600000	1	0.053625
36.616667	1	0.052125
36.633333	1	0.050875
36.650000	1	0.048875
36.666667	1	0.047625
36.683333	1	0.047125
36.700000	1	0.045875
36.716667	1	0.044250
36.733333	1	0.042750
36.750000	1	0.042000
36.766667	1	0.040750
36.783333	1	0.039500
36.800000	1	0.038625
36.816667	1	0.038625
36.833333	1	0.037625
36.850000	1	0.036750
36.866667	1	0.036125
36.883333	1	0.035500
36.900000	1	0.034000
36.916667	1	0.033750
36.933333	1	0.032750
36.950000	1	0.032250
36.966667	1	0.031500
36.983333	1	0.031250
37.000000	1	0.030625
37.016667	1	0.030125
37.033333	1	0.029625
37.050000	1	0.029000
37.066667	1	0.028625
37.083333	1	0.028250
37.100000	1	0.027750
37.116667	1	0.027500
37.133333	1	0.026625
37.150000	1	0.026000
37.166667	1	0.025875
37.183333	1	0.026000
37.200000	1	0.024875
37.216667	1	0.024750
37.233333	1	0.023875
37.250000	1	0.022750
37.266667	1	0.022375
37.283333	1	0.021125
37.300000	1	0.020375
37.316667	1	0.019500
37.333333	1	0.018750
37.350000	1	0.018000
37.366667	1	0.017000
37.383333	1	0.016250
37.400000	1	0.015000
37.416667	1	0.013500
37.433333	1	0.012375
37.450000	1	0.010500
37.466667	1	0.009750
37.483333	1	0.009250
37.500000	1	0.007750
37.516667	1	0.007000
37.533333	1	0.006250
37.550000	1	0.005500
37.566667	1	0.004500
37.583333	1	0.003750
37.600000	1	0.002625
37.616667	1	0.002000
37.633333	1	0.002125
37.650000	1	0.001750
37.666667	1	0.000500
37.683333	1	0.000625
37.700000	1	0.000000
37.716667	1	-0.000625
37.733333	1	0.000000
37.750000	1	-0.000125
37.766667	1	-0.000875
37.783333	1	-0.000750
37.800000	1	-0.000250
37.816667	1	-0.000500
37.833333	1	-0.001000
37.850000	1	-0.000375
37.866667	1	0.000500
37.883333	1	0.000500
37.900000	1	0.001000
37.916667	1	0.001750
37.933333	1	0.002625
37.950000	1	0.003125
37.966667	1	0.003500
37.983333	1	0.004375
38.000000	1	0.005250
38.016667	1	0.005875
38.033333	1	0.006500
38.050000	1	0.006500
38.066667	1	0.007500
38.083333	1	0.009000
38.100000	1	0.009875
38.116667	1	0.011000
38.133333	1	0.012000
38.150000	1	0.013125
38.166667	1	0.013625
38.183333	1	0.014250
38.200000	1	0.015250
38.216667	1	0.016750
38.233333	1	0.017500
38.250000	1	0.018750
38.266667	1	0.019500
38.283333	1	0.020375
38.300000	1	0.021125
38.316667	1	0.022875
38.333333	1	0.023125
38.350000	1	0.023625
38.366667	1	0.024500
38.383333	1	0.025250
38.400000	1	0.025875
38.416667	1	0.026500
38.433333	1	0.026625
38.450000	1	0.027125
38.466667	1	0.027625
38.483333	1	0.028250
38.500000	1	0.028875
38.516667	1	0.028750
38.533333	1	0.029375
38.550000	1	0.029250
38.566667	1	0.029375
38.583333	1	0.028875
38.600000	1	0.028375
38.616667	1	0.028625
38.633333	1	0.028625
38.650000	1	0.027750
38.666667	1	0.027125
38.683333	1	0.026000
38.700000	1	0.025125
38.716667	1	0.024500
38.733333	1	0.023500
38.750000	1	0.022375
38.766667	1	0.020875
38.783333	1	0.019875
38.800000	1	0.018750
38.816667	1	0.017125
38.833333	1	0.016125
38.850000	1	0.014625
38.866667	1	0.012625
38.883333	1	0.011125
38.900000	1	0.009250
38.916667	1	0.007875
38.933333	1	0.006375
38.950000	1	0.004875
38.966667	1	0.003250
38.983333	1	0.001125
39.000000	1	-0.000250
39.016667	1	-0.001125
39.033333	1	-0.002625
39.050000	1	-0.004000
39.066667	1	-0.005000
39.083333	1	-0.006625
39.100000	1	-0.008500
39.116667	1	-0.009250
39.133333	1	-0.010625
39.150000	1	-0.011750
39.166667	1	-0.013625
39.183333	1	-0.014750
39.200000	1	-0.016375
39.216667	1	-0.017500
39.233333	1	-0.018375
39.250000	1	-0.019000
39.266667	1	-0.019625
39.283333	1	-0.020500
39.300000	1	-0.021250
39.316667	1	-0.023375
39.333333	1	-0.024000
39.350000	1	-0.024625
39.366667	1	-0.025750
39.383333	1	-0.027000
39.400000	1	-0.028250
39.416667	1	-0.029250
39.433333	1	-0.030750
39.450000	1	-0.032250
39.466667	1	-0.033250
39.483333	1	-0.034375
39.500000	1	-0.035750
39.516667	1	-0.037500
39.533333	1	-0.039375
39.550000	1	-0.040750
39.566667	1	-0.042250
39.583333	1	-0.044125
39.600000	1	-0.046250
39.616667	1	-0.048250
39.633333	1	-0.050875
39.650000	1	-0.053125
39.666667	1	-0.055875
39.683333	1	-0.058875
39.700000	1	-0.061125
39.716667	1	-0.063875
39.733333	1	-0.067250
39.750000	1	-0.069750
39.766667	1	-0.073250
39.783333	1	-0.076250
39.800000	1	-0.078750
39.816667	1	-0.082000
39.833333	1	-0.084750
39.850000	1	-0.087500
39.866667	1	-0.090250
39.883333	1	-0.091750
39.900000	1	-0.094000
39.916667	1	-0.096125
39.933333	1	-0.097250
39.950000	1	-0.098750
39.966667	1	-0.099000
39.983333	1	-0.100125
40.000000	1	-0.100500
