URL	chrom://bioreactor/micro_cm7/HPLC_Ultimate_3000/Users/markusar/20240708_MA_pHrange1.seq/693.smp/RI_1.channel/RI_1.chm
Channel	RI_1

Injection Information:
Data Vault	micro_cm7
Sequence	20240708_MA_pHrange1
Name	Fp2_5.7_1
Number	63
Position	BF5
Comment	
Processing Method	
Instrument Method	run_25B_method
Type	Unknown
Status	Finished
Inject Time	10.07.2024 09:54:47 +02:00
Volume (µl)	20.0000
Dilution Factor	1.0000
Weight	1.0000

Chromatogram Data Information:
Time Min. (min)	0.000000
Time Max. (min)	40.000000
Data Points	2401
Detector	RI
Generating Data System	Chromeleon 7.3.2.11814
Exporting Data System	Chromeleon 7.3.2.0
Operator	Instrument Controller
Signal Quantity	Refractive 
Signal Unit	µRIU
Signal Min.	-0.112500
Signal Max.	84.039875
Channel	RI_1
Driver Name	RID520Driver.dll
Channel Type	Evaluation
Min. Step (s)	1
Max. Step (s)	1
Average Step (s)	1

Signal Parameter Information:
Signal Info	

Chromatogram Data:
Time (min)	Step (s)	Value (µRIU)
0.000000	n.a.	-0.003750
0.016667	1	-0.003125
0.033333	1	-0.002875
0.050000	1	-0.002250
0.066667	1	-0.002375
0.083333	1	-0.002500
0.100000	1	-0.002500
0.116667	1	-0.001375
0.133333	1	-0.000625
0.150000	1	0.000125
0.166667	1	0.000375
0.183333	1	0.000500
0.200000	1	0.000125
0.216667	1	-0.000250
0.233333	1	0.000000
0.250000	1	0.000125
0.266667	1	0.000000
0.283333	1	0.000000
0.300000	1	0.000000
0.316667	1	-0.000250
0.333333	1	-0.000625
0.350000	1	-0.000375
0.366667	1	-0.001250
0.383333	1	-0.002375
0.400000	1	-0.003500
0.416667	1	-0.003875
0.433333	1	-0.003125
0.450000	1	-0.001000
0.466667	1	0.000500
0.483333	1	0.001375
0.500000	1	0.002125
0.516667	1	0.002250
0.533333	1	0.002250
0.550000	1	0.001500
0.566667	1	0.000375
0.583333	1	-0.000625
0.600000	1	-0.002500
0.616667	1	-0.004500
0.633333	1	-0.006125
0.650000	1	-0.007750
0.666667	1	-0.008875
0.683333	1	-0.009250
0.700000	1	-0.009750
0.716667	1	-0.010000
0.733333	1	-0.010000
0.750000	1	-0.010750
0.766667	1	-0.011000
0.783333	1	-0.010750
0.800000	1	-0.010875
0.816667	1	-0.010500
0.833333	1	-0.010875
0.850000	1	-0.011125
0.866667	1	-0.011750
0.883333	1	-0.011750
0.900000	1	-0.011875
0.916667	1	-0.011375
0.933333	1	-0.011250
0.950000	1	-0.011375
0.966667	1	-0.011000
0.983333	1	-0.010625
1.000000	1	-0.009750
1.016667	1	-0.009000
1.033333	1	-0.008125
1.050000	1	-0.007875
1.066667	1	-0.007625
1.083333	1	-0.006375
1.100000	1	-0.005375
1.116667	1	-0.004875
1.133333	1	-0.003750
1.150000	1	-0.002750
1.166667	1	-0.001750
1.183333	1	-0.000875
1.200000	1	0.000250
1.216667	1	0.001500
1.233333	1	0.002875
1.250000	1	0.004375
1.266667	1	0.005500
1.283333	1	0.006375
1.300000	1	0.007125
1.316667	1	0.008125
1.333333	1	0.009625
1.350000	1	0.010625
1.366667	1	0.011500
1.383333	1	0.012000
1.400000	1	0.012875
1.416667	1	0.014250
1.433333	1	0.015125
1.450000	1	0.015375
1.466667	1	0.016500
1.483333	1	0.017000
1.500000	1	0.017625
1.516667	1	0.018000
1.533333	1	0.018750
1.550000	1	0.018500
1.566667	1	0.018625
1.583333	1	0.019250
1.600000	1	0.019625
1.616667	1	0.020000
1.633333	1	0.020500
1.650000	1	0.020250
1.666667	1	0.020750
1.683333	1	0.020750
1.700000	1	0.020250
1.716667	1	0.019375
1.733333	1	0.018750
1.750000	1	0.019000
1.766667	1	0.018250
1.783333	1	0.017500
1.800000	1	0.017500
1.816667	1	0.016875
1.833333	1	0.015500
1.850000	1	0.014625
1.866667	1	0.014500
1.883333	1	0.013875
1.900000	1	0.012625
1.916667	1	0.011625
1.933333	1	0.009750
1.950000	1	0.008000
1.966667	1	0.006625
1.983333	1	0.005250
2.000000	1	0.004500
2.016667	1	0.003125
2.033333	1	0.001750
2.050000	1	0.000125
2.066667	1	-0.001125
2.083333	1	-0.003000
2.100000	1	-0.004875
2.116667	1	-0.006375
2.133333	1	-0.007250
2.150000	1	-0.008500
2.166667	1	-0.010375
2.183333	1	-0.012000
2.200000	1	-0.013750
2.216667	1	-0.015125
2.233333	1	-0.016375
2.250000	1	-0.017000
2.266667	1	-0.018750
2.283333	1	-0.020000
2.300000	1	-0.021500
2.316667	1	-0.022500
2.333333	1	-0.023750
2.350000	1	-0.024500
2.366667	1	-0.025375
2.383333	1	-0.026125
2.400000	1	-0.027125
2.416667	1	-0.027500
2.433333	1	-0.027375
2.450000	1	-0.027875
2.466667	1	-0.028000
2.483333	1	-0.028500
2.500000	1	-0.028750
2.516667	1	-0.029250
2.533333	1	-0.028750
2.550000	1	-0.029375
2.566667	1	-0.029000
2.583333	1	-0.028500
2.600000	1	-0.028250
2.616667	1	-0.028625
2.633333	1	-0.028750
2.650000	1	-0.029000
2.666667	1	-0.028875
2.683333	1	-0.028875
2.700000	1	-0.028250
2.716667	1	-0.028000
2.733333	1	-0.027750
2.750000	1	-0.027625
2.766667	1	-0.027625
2.783333	1	-0.027375
2.800000	1	-0.027000
2.816667	1	-0.026625
2.833333	1	-0.026000
2.850000	1	-0.025375
2.866667	1	-0.025750
2.883333	1	-0.026125
2.900000	1	-0.026000
2.916667	1	-0.025250
2.933333	1	-0.024500
2.950000	1	-0.025000
2.966667	1	-0.024000
2.983333	1	-0.024500
3.000000	1	-0.024500
3.016667	1	-0.024250
3.033333	1	-0.023750
3.050000	1	-0.023000
3.066667	1	-0.022875
3.083333	1	-0.022750
3.100000	1	-0.022625
3.116667	1	-0.022000
3.133333	1	-0.021625
3.150000	1	-0.021375
3.166667	1	-0.020375
3.183333	1	-0.019250
3.200000	1	-0.018125
3.216667	1	-0.017250
3.233333	1	-0.016500
3.250000	1	-0.015000
3.266667	1	-0.014125
3.283333	1	-0.013500
3.300000	1	-0.013250
3.316667	1	-0.011750
3.333333	1	-0.011750
3.350000	1	-0.010750
3.366667	1	-0.009875
3.383333	1	-0.008750
3.400000	1	-0.008000
3.416667	1	-0.007500
3.433333	1	-0.006750
3.450000	1	-0.006000
3.466667	1	-0.005375
3.483333	1	-0.005125
3.500000	1	-0.004875
3.516667	1	-0.004375
3.533333	1	-0.003750
3.550000	1	-0.003625
3.566667	1	-0.003250
3.583333	1	-0.002875
3.600000	1	-0.002375
3.616667	1	-0.002500
3.633333	1	-0.002500
3.650000	1	-0.002500
3.666667	1	-0.002625
3.683333	1	-0.002500
3.700000	1	-0.001875
3.716667	1	-0.001625
3.733333	1	-0.002000
3.750000	1	-0.001500
3.766667	1	-0.000875
3.783333	1	-0.000375
3.800000	1	-0.000500
3.816667	1	0.000125
3.833333	1	0.001000
3.850000	1	0.001500
3.866667	1	0.001875
3.883333	1	0.002375
3.900000	1	0.002875
3.916667	1	0.004000
3.933333	1	0.004875
3.950000	1	0.005750
3.966667	1	0.006500
3.983333	1	0.007250
4.000000	1	0.008875
4.016667	1	0.010000
4.033333	1	0.011375
4.050000	1	0.013250
4.066667	1	0.014625
4.083333	1	0.015875
4.100000	1	0.017375
4.116667	1	0.018625
4.133333	1	0.020250
4.150000	1	0.021750
4.166667	1	0.023250
4.183333	1	0.024875
4.200000	1	0.026500
4.216667	1	0.028250
4.233333	1	0.030750
4.250000	1	0.032625
4.266667	1	0.034750
4.283333	1	0.037125
4.300000	1	0.039250
4.316667	1	0.041500
4.333333	1	0.042625
4.350000	1	0.044750
4.366667	1	0.047500
4.383333	1	0.049375
4.400000	1	0.050750
4.416667	1	0.052750
4.433333	1	0.055250
4.450000	1	0.056875
4.466667	1	0.058750
4.483333	1	0.060250
4.500000	1	0.061625
4.516667	1	0.063625
4.533333	1	0.065500
4.550000	1	0.067000
4.566667	1	0.068875
4.583333	1	0.070500
4.600000	1	0.071250
4.616667	1	0.072375
4.633333	1	0.073375
4.650000	1	0.073625
4.666667	1	0.075000
4.683333	1	0.076000
4.700000	1	0.077000
4.716667	1	0.078250
4.733333	1	0.079250
4.750000	1	0.079875
4.766667	1	0.080875
4.783333	1	0.082625
4.800000	1	0.083875
4.816667	1	0.084125
4.833333	1	0.085500
4.850000	1	0.086625
4.866667	1	0.088000
4.883333	1	0.090000
4.900000	1	0.092000
4.916667	1	0.093875
4.933333	1	0.095125
4.950000	1	0.097500
4.966667	1	0.099875
4.983333	1	0.102500
5.000000	1	0.105250
5.016667	1	0.107625
5.033333	1	0.110625
5.050000	1	0.113375
5.066667	1	0.116750
5.083333	1	0.120250
5.100000	1	0.124375
5.116667	1	0.128250
5.133333	1	0.132500
5.150000	1	0.136250
5.166667	1	0.140125
5.183333	1	0.145125
5.200000	1	0.149500
5.216667	1	0.154500
5.233333	1	0.159125
5.250000	1	0.163625
5.266667	1	0.168000
5.283333	1	0.172625
5.300000	1	0.177500
5.316667	1	0.182125
5.333333	1	0.186000
5.350000	1	0.190375
5.366667	1	0.194000
5.383333	1	0.198000
5.400000	1	0.200875
5.416667	1	0.204250
5.433333	1	0.207375
5.450000	1	0.209250
5.466667	1	0.210625
5.483333	1	0.212500
5.500000	1	0.213875
5.516667	1	0.214375
5.533333	1	0.215375
5.550000	1	0.214875
5.566667	1	0.214500
5.583333	1	0.214375
5.600000	1	0.213250
5.616667	1	0.211750
5.633333	1	0.210875
5.650000	1	0.208500
5.666667	1	0.205750
5.683333	1	0.203375
5.700000	1	0.200250
5.716667	1	0.196875
5.733333	1	0.192500
5.750000	1	0.189125
5.766667	1	0.186375
5.783333	1	0.183125
5.800000	1	0.179250
5.816667	1	0.175125
5.833333	1	0.170625
5.850000	1	0.166500
5.866667	1	0.160875
5.883333	1	0.156625
5.900000	1	0.152250
5.916667	1	0.147625
5.933333	1	0.143125
5.950000	1	0.139500
5.966667	1	0.135125
5.983333	1	0.131500
6.000000	1	0.127250
6.016667	1	0.122875
6.033333	1	0.118750
6.050000	1	0.114500
6.066667	1	0.110375
6.083333	1	0.106500
6.100000	1	0.102875
6.116667	1	0.098875
6.133333	1	0.095000
6.150000	1	0.091250
6.166667	1	0.088250
6.183333	1	0.085000
6.200000	1	0.080625
6.216667	1	0.077625
6.233333	1	0.074625
6.250000	1	0.071500
6.266667	1	0.068000
6.283333	1	0.064625
6.300000	1	0.061000
6.316667	1	0.057500
6.333333	1	0.055000
6.350000	1	0.052375
6.366667	1	0.049375
6.383333	1	0.046750
6.400000	1	0.043500
6.416667	1	0.040500
6.433333	1	0.037750
6.450000	1	0.034750
6.466667	1	0.032000
6.483333	1	0.029125
6.500000	1	0.026125
6.516667	1	0.023375
6.533333	1	0.021125
6.550000	1	0.019250
6.566667	1	0.016250
6.583333	1	0.014000
6.600000	1	0.011875
6.616667	1	0.010000
6.633333	1	0.007750
6.650000	1	0.005500
6.666667	1	0.004500
6.683333	1	0.003250
6.700000	1	0.002500
6.716667	1	0.001625
6.733333	1	0.000375
6.750000	1	-0.000500
6.766667	1	-0.001375
6.783333	1	-0.001625
6.800000	1	-0.002125
6.816667	1	-0.002375
6.833333	1	-0.001750
6.850000	1	-0.001500
6.866667	1	-0.001625
6.883333	1	-0.001125
6.900000	1	-0.000500
6.916667	1	-0.000125
6.933333	1	0.000000
6.950000	1	0.000125
6.966667	1	0.001000
6.983333	1	0.002000
7.000000	1	0.003625
7.016667	1	0.005125
7.033333	1	0.006625
7.050000	1	0.008500
7.066667	1	0.009875
7.083333	1	0.011125
7.100000	1	0.012750
7.116667	1	0.014500
7.133333	1	0.017000
7.150000	1	0.019000
7.166667	1	0.020875
7.183333	1	0.023000
7.200000	1	0.024875
7.216667	1	0.026875
7.233333	1	0.028875
7.250000	1	0.030375
7.266667	1	0.032375
7.283333	1	0.034625
7.300000	1	0.036500
7.316667	1	0.038625
7.333333	1	0.039875
7.350000	1	0.041625
7.366667	1	0.043375
7.383333	1	0.045375
7.400000	1	0.046375
7.416667	1	0.047125
7.433333	1	0.048000
7.450000	1	0.048375
7.466667	1	0.048500
7.483333	1	0.048625
7.500000	1	0.048000
7.516667	1	0.046875
7.533333	1	0.046375
7.550000	1	0.044875
7.566667	1	0.043375
7.583333	1	0.041625
7.600000	1	0.039375
7.616667	1	0.037500
7.633333	1	0.035000
7.650000	1	0.031875
7.666667	1	0.029125
7.683333	1	0.026000
7.700000	1	0.022375
7.716667	1	0.018625
7.733333	1	0.014750
7.750000	1	0.011375
7.766667	1	0.007375
7.783333	1	0.003625
7.800000	1	0.000000
7.816667	1	-0.004375
7.833333	1	-0.007875
7.850000	1	-0.011875
7.866667	1	-0.016375
7.883333	1	-0.020625
7.900000	1	-0.024500
7.916667	1	-0.028375
7.933333	1	-0.032750
7.950000	1	-0.037125
7.966667	1	-0.041625
7.983333	1	-0.045625
8.000000	1	-0.049250
8.016667	1	-0.053250
8.033333	1	-0.056875
8.050000	1	-0.061125
8.066667	1	-0.064750
8.083333	1	-0.068500
8.100000	1	-0.072625
8.116667	1	-0.076000
8.133333	1	-0.079375
8.150000	1	-0.082125
8.166667	1	-0.085875
8.183333	1	-0.089000
8.200000	1	-0.092500
8.216667	1	-0.095125
8.233333	1	-0.097875
8.250000	1	-0.100125
8.266667	1	-0.102125
8.283333	1	-0.104375
8.300000	1	-0.106375
8.316667	1	-0.107625
8.333333	1	-0.108750
8.350000	1	-0.109750
8.366667	1	-0.110375
8.383333	1	-0.110875
8.400000	1	-0.111125
8.416667	1	-0.110875
8.433333	1	-0.110375
8.450000	1	-0.109875
8.466667	1	-0.109250
8.483333	1	-0.108375
8.500000	1	-0.107000
8.516667	1	-0.105125
8.533333	1	-0.103375
8.550000	1	-0.101125
8.566667	1	-0.098875
8.583333	1	-0.096625
8.600000	1	-0.093625
8.616667	1	-0.091625
8.633333	1	-0.089250
8.650000	1	-0.086875
8.666667	1	-0.084625
8.683333	1	-0.082125
8.700000	1	-0.079500
8.716667	1	-0.077250
8.733333	1	-0.074625
8.750000	1	-0.072125
8.766667	1	-0.070125
8.783333	1	-0.068000
8.800000	1	-0.065750
8.816667	1	-0.063000
8.833333	1	-0.060625
8.850000	1	-0.058625
8.866667	1	-0.056625
8.883333	1	-0.054500
8.900000	1	-0.053250
8.916667	1	-0.052000
8.933333	1	-0.050625
8.950000	1	-0.048625
8.966667	1	-0.047750
8.983333	1	-0.046250
9.000000	1	-0.045125
9.016667	1	-0.044875
9.033333	1	-0.043250
9.050000	1	-0.042250
9.066667	1	-0.042375
9.083333	1	-0.042500
9.100000	1	-0.041500
9.116667	1	-0.041000
9.133333	1	-0.040875
9.150000	1	-0.040875
9.166667	1	-0.041250
9.183333	1	-0.042000
9.200000	1	-0.042500
9.216667	1	-0.043375
9.233333	1	-0.044750
9.250000	1	-0.045750
9.266667	1	-0.046500
9.283333	1	-0.047250
9.300000	1	-0.048375
9.316667	1	-0.050375
9.333333	1	-0.051500
9.350000	1	-0.053375
9.366667	1	-0.055500
9.383333	1	-0.057375
9.400000	1	-0.059125
9.416667	1	-0.060750
9.433333	1	-0.062500
9.450000	1	-0.065000
9.466667	1	-0.067125
9.483333	1	-0.069375
9.500000	1	-0.071875
9.516667	1	-0.073625
9.533333	1	-0.075625
9.550000	1	-0.077625
9.566667	1	-0.079750
9.583333	1	-0.082125
9.600000	1	-0.084500
9.616667	1	-0.087125
9.633333	1	-0.089000
9.650000	1	-0.091625
9.666667	1	-0.093500
9.683333	1	-0.095750
9.700000	1	-0.098125
9.716667	1	-0.100375
9.733333	1	-0.102125
9.750000	1	-0.103875
9.766667	1	-0.105000
9.783333	1	-0.106500
9.800000	1	-0.107625
9.816667	1	-0.108750
9.833333	1	-0.109500
9.850000	1	-0.110375
9.866667	1	-0.111500
9.883333	1	-0.111875
9.900000	1	-0.112500
9.916667	1	-0.112250
9.933333	1	-0.112125
9.950000	1	-0.111625
9.966667	1	-0.110250
9.983333	1	-0.108625
10.000000	1	-0.107250
10.016667	1	-0.105375
10.033333	1	-0.102875
10.050000	1	-0.099875
10.066667	1	-0.096500
10.083333	1	-0.092875
10.100000	1	-0.088500
10.116667	1	-0.083625
10.133333	1	-0.077750
10.150000	1	-0.070125
10.166667	1	-0.063000
10.183333	1	-0.054500
10.200000	1	-0.045875
10.216667	1	-0.035125
10.233333	1	-0.023000
10.250000	1	-0.009375
10.266667	1	0.005750
10.283333	1	0.023000
10.300000	1	0.042500
10.316667	1	0.064250
10.333333	1	0.088000
10.350000	1	0.113625
10.366667	1	0.139750
10.383333	1	0.164625
10.400000	1	0.186375
10.416667	1	0.202375
10.433333	1	0.211000
10.450000	1	0.212625
10.466667	1	0.209875
10.483333	1	0.209500
10.500000	1	0.223500
10.516667	1	0.273375
10.533333	1	0.387625
10.550000	1	0.603750
10.566667	1	0.969250
10.583333	1	1.536250
10.600000	1	2.360625
10.616667	1	3.494125
10.633333	1	4.980000
10.650000	1	6.847750
10.666667	1	9.117250
10.683333	1	11.792750
10.700000	1	14.863375
10.716667	1	18.300500
10.733333	1	22.057500
10.750000	1	26.065625
10.766667	1	30.224625
10.783333	1	34.402500
10.800000	1	38.419750
10.816667	1	42.035875
10.833333	1	44.954875
10.850000	1	46.858250
10.866667	1	47.457375
10.883333	1	46.574625
10.900000	1	44.216500
10.916667	1	40.602000
10.933333	1	36.117375
10.950000	1	31.219125
10.966667	1	26.329000
10.983333	1	21.762625
11.000000	1	17.707500
11.016667	1	14.245500
11.033333	1	11.380750
11.050000	1	9.067375
11.066667	1	7.235500
11.083333	1	5.805625
11.100000	1	4.703250
11.116667	1	3.859875
11.133333	1	3.217875
11.150000	1	2.730750
11.166667	1	2.361250
11.183333	1	2.080375
11.200000	1	1.867500
11.216667	1	1.704500
11.233333	1	1.580625
11.250000	1	1.483125
11.266667	1	1.406875
11.283333	1	1.345750
11.300000	1	1.294000
11.316667	1	1.248750
11.333333	1	1.206875
11.350000	1	1.166500
11.366667	1	1.128625
11.383333	1	1.091375
11.400000	1	1.055250
11.416667	1	1.020750
11.433333	1	0.988125
11.450000	1	0.958750
11.466667	1	0.932250
11.483333	1	0.909500
11.500000	1	0.890000
11.516667	1	0.873625
11.533333	1	0.862000
11.550000	1	0.853500
11.566667	1	0.849875
11.583333	1	0.851375
11.600000	1	0.857625
11.616667	1	0.869625
11.633333	1	0.886250
11.650000	1	0.907750
11.666667	1	0.934250
11.683333	1	0.964375
11.700000	1	0.997250
11.716667	1	1.031250
11.733333	1	1.065500
11.750000	1	1.097125
11.766667	1	1.125500
11.783333	1	1.148625
11.800000	1	1.165000
11.816667	1	1.174625
11.833333	1	1.177250
11.850000	1	1.172500
11.866667	1	1.162125
11.883333	1	1.146750
11.900000	1	1.127875
11.916667	1	1.106375
11.933333	1	1.083125
11.950000	1	1.060125
11.966667	1	1.038500
11.983333	1	1.018625
12.000000	1	1.001125
12.016667	1	0.985625
12.033333	1	0.973250
12.050000	1	0.962875
12.066667	1	0.954375
12.083333	1	0.948875
12.100000	1	0.945500
12.116667	1	0.943625
12.133333	1	0.943125
12.150000	1	0.944250
12.166667	1	0.947625
12.183333	1	0.952875
12.200000	1	0.960250
12.216667	1	0.970125
12.233333	1	0.983500
12.250000	1	1.002000
12.266667	1	1.026625
12.283333	1	1.059875
12.300000	1	1.103375
12.316667	1	1.162875
12.333333	1	1.243000
12.350000	1	1.350500
12.366667	1	1.496000
12.383333	1	1.691125
12.400000	1	1.952375
12.416667	1	2.301000
12.433333	1	2.764000
12.450000	1	3.378750
12.466667	1	4.192500
12.483333	1	5.261500
12.500000	1	6.653625
12.516667	1	8.447875
12.533333	1	10.726000
12.550000	1	13.573750
12.566667	1	17.067000
12.583333	1	21.261375
12.600000	1	26.178875
12.616667	1	31.790500
12.633333	1	38.016750
12.650000	1	44.718375
12.666667	1	51.691375
12.683333	1	58.671500
12.700000	1	65.352000
12.716667	1	71.408125
12.733333	1	76.531875
12.750000	1	80.455750
12.766667	1	82.990625
12.783333	1	84.039875
12.800000	1	83.610000
12.816667	1	81.811250
12.833333	1	78.829375
12.850000	1	74.908125
12.866667	1	70.324000
12.883333	1	65.364875
12.900000	1	60.300250
12.916667	1	55.364875
12.933333	1	50.742500
12.950000	1	46.565625
12.966667	1	42.911625
12.983333	1	39.812750
13.000000	1	37.267000
13.016667	1	35.247125
13.033333	1	33.708000
13.050000	1	32.596250
13.066667	1	31.857625
13.083333	1	31.439625
13.100000	1	31.293750
13.116667	1	31.374125
13.133333	1	31.643250
13.150000	1	32.067625
13.166667	1	32.622000
13.183333	1	33.282250
13.200000	1	34.030250
13.216667	1	34.850750
13.233333	1	35.733375
13.250000	1	36.670500
13.266667	1	37.655500
13.283333	1	38.682625
13.300000	1	39.747750
13.316667	1	40.848000
13.333333	1	41.981375
13.350000	1	43.144125
13.366667	1	44.337375
13.383333	1	45.559875
13.400000	1	46.809875
13.416667	1	48.087250
13.433333	1	49.394000
13.450000	1	50.732125
13.466667	1	52.100125
13.483333	1	53.499875
13.500000	1	54.930875
13.516667	1	56.393375
13.533333	1	57.887000
13.550000	1	59.412250
13.566667	1	60.968750
13.583333	1	62.556875
13.600000	1	64.174500
13.616667	1	65.824000
13.633333	1	67.507250
13.650000	1	69.226625
13.666667	1	70.981875
13.683333	1	72.771000
13.700000	1	74.581125
13.716667	1	76.366250
13.733333	1	78.027750
13.750000	1	79.406375
13.766667	1	80.311375
13.783333	1	80.564500
13.800000	1	80.023000
13.816667	1	78.567500
13.833333	1	76.074000
13.850000	1	72.382250
13.866667	1	67.347625
13.883333	1	60.964250
13.900000	1	53.513250
13.916667	1	45.571875
13.933333	1	37.820500
13.950000	1	30.807750
13.966667	1	24.830500
13.983333	1	19.944875
14.000000	1	16.057625
14.016667	1	13.013750
14.033333	1	10.660875
14.050000	1	8.865000
14.066667	1	7.510125
14.083333	1	6.497875
14.100000	1	5.746750
14.116667	1	5.188375
14.133333	1	4.768125
14.150000	1	4.448500
14.166667	1	4.200000
14.183333	1	4.002500
14.200000	1	3.842375
14.216667	1	3.708375
14.233333	1	3.594750
14.250000	1	3.495750
14.266667	1	3.408125
14.283333	1	3.329000
14.300000	1	3.256625
14.316667	1	3.190625
14.333333	1	3.130375
14.350000	1	3.074250
14.366667	1	3.022375
14.383333	1	2.974125
14.400000	1	2.930125
14.416667	1	2.888375
14.433333	1	2.850875
14.450000	1	2.814875
14.466667	1	2.782625
14.483333	1	2.753125
14.500000	1	2.725125
14.516667	1	2.699250
14.533333	1	2.674875
14.550000	1	2.652500
14.566667	1	2.632250
14.583333	1	2.613000
14.600000	1	2.594500
14.616667	1	2.578000
14.633333	1	2.564375
14.650000	1	2.553000
14.666667	1	2.545000
14.683333	1	2.540375
14.700000	1	2.539750
14.716667	1	2.544750
14.733333	1	2.554875
14.750000	1	2.570125
14.766667	1	2.589875
14.783333	1	2.613625
14.800000	1	2.638875
14.816667	1	2.665625
14.833333	1	2.690000
14.850000	1	2.709625
14.866667	1	2.723250
14.883333	1	2.728000
14.900000	1	2.722750
14.916667	1	2.705500
14.933333	1	2.676000
14.950000	1	2.636125
14.966667	1	2.585125
14.983333	1	2.526000
15.000000	1	2.459375
15.016667	1	2.389000
15.033333	1	2.316875
15.050000	1	2.244625
15.066667	1	2.173500
15.083333	1	2.105875
15.100000	1	2.042000
15.116667	1	1.982750
15.133333	1	1.929125
15.150000	1	1.881375
15.166667	1	1.839000
15.183333	1	1.802375
15.200000	1	1.769875
15.216667	1	1.742500
15.233333	1	1.719500
15.250000	1	1.700500
15.266667	1	1.685125
15.283333	1	1.673750
15.300000	1	1.666750
15.316667	1	1.663250
15.333333	1	1.664000
15.350000	1	1.669875
15.366667	1	1.680500
15.383333	1	1.696625
15.400000	1	1.718000
15.416667	1	1.743625
15.433333	1	1.773125
15.450000	1	1.805500
15.466667	1	1.839625
15.483333	1	1.873750
15.500000	1	1.905125
15.516667	1	1.932750
15.533333	1	1.954500
15.550000	1	1.968625
15.566667	1	1.974000
15.583333	1	1.970750
15.600000	1	1.958125
15.616667	1	1.936125
15.633333	1	1.907000
15.650000	1	1.872125
15.666667	1	1.832750
15.683333	1	1.790375
15.700000	1	1.746625
15.716667	1	1.702000
15.733333	1	1.658250
15.750000	1	1.616125
15.766667	1	1.575250
15.783333	1	1.535500
15.800000	1	1.498000
15.816667	1	1.462250
15.833333	1	1.428250
15.850000	1	1.394375
15.866667	1	1.363000
15.883333	1	1.333375
15.900000	1	1.304875
15.916667	1	1.277500
15.933333	1	1.251750
15.950000	1	1.228375
15.966667	1	1.207125
15.983333	1	1.187875
16.000000	1	1.171375
16.016667	1	1.157625
16.033333	1	1.146000
16.050000	1	1.136250
16.066667	1	1.128750
16.083333	1	1.124000
16.100000	1	1.121375
16.116667	1	1.119250
16.133333	1	1.118500
16.150000	1	1.118750
16.166667	1	1.118750
16.183333	1	1.119875
16.200000	1	1.121250
16.216667	1	1.122750
16.233333	1	1.123625
16.250000	1	1.124750
16.266667	1	1.124375
16.283333	1	1.123375
16.300000	1	1.121625
16.316667	1	1.119500
16.333333	1	1.116125
16.350000	1	1.112250
16.366667	1	1.107500
16.383333	1	1.103500
16.400000	1	1.098500
16.416667	1	1.094125
16.433333	1	1.090875
16.450000	1	1.087875
16.466667	1	1.086250
16.483333	1	1.086750
16.500000	1	1.088750
16.516667	1	1.091125
16.533333	1	1.096625
16.550000	1	1.102750
16.566667	1	1.110250
16.583333	1	1.118250
16.600000	1	1.127125
16.616667	1	1.136625
16.633333	1	1.145375
16.650000	1	1.153000
16.666667	1	1.159875
16.683333	1	1.165375
16.700000	1	1.170125
16.716667	1	1.172875
16.733333	1	1.175625
16.750000	1	1.178250
16.766667	1	1.179750
16.783333	1	1.181500
16.800000	1	1.183750
16.816667	1	1.186125
16.833333	1	1.190250
16.850000	1	1.193875
16.866667	1	1.198125
16.883333	1	1.202625
16.900000	1	1.206875
16.916667	1	1.211500
16.933333	1	1.215000
16.950000	1	1.217250
16.966667	1	1.218750
16.983333	1	1.219750
17.000000	1	1.219375
17.016667	1	1.217875
17.033333	1	1.215375
17.050000	1	1.212000
17.066667	1	1.207625
17.083333	1	1.203000
17.100000	1	1.198875
17.116667	1	1.194625
17.133333	1	1.191250
17.150000	1	1.188500
17.166667	1	1.186875
17.183333	1	1.185625
17.200000	1	1.185250
17.216667	1	1.186125
17.233333	1	1.187250
17.250000	1	1.189375
17.266667	1	1.192000
17.283333	1	1.195375
17.300000	1	1.200000
17.316667	1	1.204125
17.333333	1	1.208875
17.350000	1	1.213625
17.366667	1	1.219000
17.383333	1	1.223750
17.400000	1	1.227875
17.416667	1	1.231875
17.433333	1	1.234750
17.450000	1	1.236750
17.466667	1	1.238000
17.483333	1	1.237625
17.500000	1	1.235500
17.516667	1	1.231125
17.533333	1	1.225625
17.550000	1	1.219000
17.566667	1	1.211000
17.583333	1	1.201250
17.600000	1	1.189500
17.616667	1	1.176875
17.633333	1	1.162500
17.650000	1	1.147750
17.666667	1	1.131875
17.683333	1	1.115500
17.700000	1	1.099000
17.716667	1	1.082625
17.733333	1	1.066000
17.750000	1	1.049625
17.766667	1	1.033625
17.783333	1	1.017375
17.800000	1	1.002000
17.816667	1	0.986625
17.833333	1	0.971750
17.850000	1	0.957125
17.866667	1	0.942375
17.883333	1	0.928375
17.900000	1	0.915250
17.916667	1	0.902125
17.933333	1	0.890125
17.950000	1	0.878250
17.966667	1	0.866625
17.983333	1	0.855875
18.000000	1	0.845875
18.016667	1	0.836250
18.033333	1	0.826500
18.050000	1	0.816375
18.066667	1	0.806750
18.083333	1	0.797375
18.100000	1	0.789000
18.116667	1	0.781125
18.133333	1	0.773750
18.150000	1	0.766750
18.166667	1	0.760125
18.183333	1	0.754375
18.200000	1	0.748875
18.216667	1	0.745125
18.233333	1	0.741750
18.250000	1	0.739250
18.266667	1	0.737375
18.283333	1	0.736375
18.300000	1	0.735625
18.316667	1	0.736250
18.333333	1	0.735750
18.350000	1	0.736625
18.366667	1	0.738250
18.383333	1	0.739750
18.400000	1	0.741500
18.416667	1	0.743750
18.433333	1	0.747250
18.450000	1	0.751500
18.466667	1	0.756875
18.483333	1	0.762750
18.500000	1	0.770625
18.516667	1	0.780000
18.533333	1	0.791250
18.550000	1	0.804125
18.566667	1	0.819125
18.583333	1	0.835125
18.600000	1	0.854625
18.616667	1	0.875125
18.633333	1	0.897375
18.650000	1	0.922125
18.666667	1	0.949000
18.683333	1	0.977750
18.700000	1	1.008000
18.716667	1	1.039500
18.733333	1	1.071250
18.750000	1	1.104625
18.766667	1	1.138125
18.783333	1	1.172375
18.800000	1	1.206375
18.816667	1	1.239500
18.833333	1	1.271375
18.850000	1	1.300625
18.866667	1	1.327250
18.883333	1	1.350625
18.900000	1	1.369500
18.916667	1	1.383500
18.933333	1	1.392000
18.950000	1	1.393625
18.966667	1	1.389250
18.983333	1	1.377875
19.000000	1	1.360625
19.016667	1	1.336250
19.033333	1	1.305500
19.050000	1	1.269500
19.066667	1	1.228250
19.083333	1	1.183000
19.100000	1	1.134000
19.116667	1	1.083375
19.133333	1	1.032000
19.150000	1	0.980750
19.166667	1	0.930250
19.183333	1	0.881875
19.200000	1	0.835875
19.216667	1	0.793750
19.233333	1	0.755875
19.250000	1	0.722250
19.266667	1	0.693125
19.283333	1	0.670375
19.300000	1	0.652625
19.316667	1	0.640125
19.333333	1	0.633875
19.350000	1	0.632625
19.366667	1	0.637125
19.383333	1	0.646250
19.400000	1	0.660125
19.416667	1	0.679125
19.433333	1	0.702125
19.450000	1	0.729125
19.466667	1	0.758750
19.483333	1	0.790750
19.500000	1	0.823375
19.516667	1	0.856375
19.533333	1	0.888375
19.550000	1	0.919125
19.566667	1	0.947250
19.583333	1	0.970875
19.600000	1	0.989375
19.616667	1	1.003750
19.633333	1	1.012375
19.650000	1	1.014875
19.666667	1	1.011125
19.683333	1	1.001875
19.700000	1	0.987750
19.716667	1	0.968500
19.733333	1	0.945250
19.750000	1	0.918875
19.766667	1	0.889125
19.783333	1	0.857750
19.800000	1	0.824750
19.816667	1	0.791625
19.833333	1	0.758625
19.850000	1	0.726000
19.866667	1	0.694375
19.883333	1	0.665000
19.900000	1	0.636875
19.916667	1	0.610250
19.933333	1	0.586125
19.950000	1	0.564375
19.966667	1	0.545375
19.983333	1	0.528250
20.000000	1	0.513625
20.016667	1	0.501250
20.033333	1	0.490625
20.050000	1	0.483250
20.066667	1	0.478250
20.083333	1	0.476125
20.100000	1	0.476000
20.116667	1	0.478625
20.133333	1	0.483500
20.150000	1	0.491250
20.166667	1	0.501125
20.183333	1	0.513125
20.200000	1	0.526750
20.216667	1	0.541125
20.233333	1	0.557000
20.250000	1	0.573000
20.266667	1	0.589750
20.283333	1	0.605125
20.300000	1	0.620375
20.316667	1	0.633750
20.333333	1	0.644125
20.350000	1	0.652250
20.366667	1	0.657125
20.383333	1	0.659750
20.400000	1	0.658500
20.416667	1	0.654750
20.433333	1	0.649000
20.450000	1	0.640125
20.466667	1	0.630250
20.483333	1	0.619625
20.500000	1	0.609125
20.516667	1	0.600250
20.533333	1	0.593375
20.550000	1	0.589875
20.566667	1	0.589750
20.583333	1	0.594875
20.600000	1	0.606000
20.616667	1	0.622625
20.633333	1	0.647375
20.650000	1	0.679375
20.666667	1	0.718875
20.683333	1	0.765625
20.700000	1	0.819875
20.716667	1	0.880875
20.733333	1	0.947625
20.750000	1	1.018500
20.766667	1	1.092000
20.783333	1	1.166125
20.800000	1	1.239750
20.816667	1	1.309375
20.833333	1	1.373625
20.850000	1	1.430125
20.866667	1	1.477375
20.883333	1	1.512625
20.900000	1	1.534625
20.916667	1	1.543500
20.933333	1	1.538500
20.950000	1	1.520000
20.966667	1	1.489125
20.983333	1	1.446250
21.000000	1	1.393000
21.016667	1	1.332375
21.033333	1	1.265875
21.050000	1	1.195375
21.066667	1	1.121875
21.083333	1	1.049125
21.100000	1	0.977125
21.116667	1	0.907875
21.133333	1	0.842125
21.150000	1	0.780375
21.166667	1	0.724250
21.183333	1	0.672250
21.200000	1	0.625250
21.216667	1	0.583250
21.233333	1	0.546125
21.250000	1	0.513000
21.266667	1	0.484375
21.283333	1	0.459375
21.300000	1	0.437625
21.316667	1	0.418875
21.333333	1	0.403125
21.350000	1	0.389750
21.366667	1	0.378625
21.383333	1	0.369000
21.400000	1	0.360250
21.416667	1	0.353000
21.433333	1	0.347125
21.450000	1	0.341750
21.466667	1	0.337000
21.483333	1	0.333125
21.500000	1	0.329625
21.516667	1	0.327250
21.533333	1	0.325625
21.550000	1	0.324375
21.566667	1	0.324500
21.583333	1	0.325750
21.600000	1	0.327625
21.616667	1	0.330875
21.633333	1	0.335250
21.650000	1	0.341125
21.666667	1	0.348125
21.683333	1	0.357000
21.700000	1	0.367250
21.716667	1	0.379250
21.733333	1	0.392250
21.750000	1	0.407500
21.766667	1	0.424375
21.783333	1	0.443500
21.800000	1	0.463875
21.816667	1	0.485750
21.833333	1	0.508500
21.850000	1	0.532625
21.866667	1	0.556625
21.883333	1	0.581375
21.900000	1	0.606000
21.916667	1	0.629250
21.933333	1	0.652375
21.950000	1	0.674000
21.966667	1	0.693500
21.983333	1	0.711500
22.000000	1	0.727125
22.016667	1	0.739625
22.033333	1	0.748500
22.050000	1	0.755250
22.066667	1	0.758625
22.083333	1	0.758250
22.100000	1	0.755625
22.116667	1	0.750250
22.133333	1	0.741875
22.150000	1	0.730625
22.166667	1	0.716875
22.183333	1	0.701250
22.200000	1	0.683625
22.216667	1	0.665000
22.233333	1	0.645500
22.250000	1	0.625500
22.266667	1	0.604250
22.283333	1	0.582625
22.300000	1	0.561500
22.316667	1	0.539375
22.333333	1	0.516875
22.350000	1	0.495250
22.366667	1	0.474250
22.383333	1	0.453625
22.400000	1	0.433750
22.416667	1	0.414375
22.433333	1	0.394875
22.450000	1	0.377000
22.466667	1	0.360125
22.483333	1	0.344750
22.500000	1	0.330375
22.516667	1	0.317625
22.533333	1	0.305250
22.550000	1	0.293375
22.566667	1	0.283375
22.583333	1	0.274125
22.600000	1	0.265750
22.616667	1	0.257750
22.633333	1	0.250250
22.650000	1	0.244000
22.666667	1	0.238250
22.683333	1	0.233125
22.700000	1	0.227875
22.716667	1	0.223375
22.733333	1	0.219125
22.750000	1	0.215125
22.766667	1	0.211000
22.783333	1	0.207375
22.800000	1	0.203625
22.816667	1	0.199750
22.833333	1	0.195750
22.850000	1	0.192875
22.866667	1	0.190250
22.883333	1	0.187750
22.900000	1	0.185125
22.916667	1	0.182625
22.933333	1	0.180500
22.950000	1	0.178750
22.966667	1	0.177250
22.983333	1	0.176000
23.000000	1	0.174500
23.016667	1	0.173875
23.033333	1	0.174750
23.050000	1	0.174500
23.066667	1	0.174875
23.083333	1	0.175750
23.100000	1	0.176250
23.116667	1	0.177375
23.133333	1	0.179375
23.150000	1	0.181125
23.166667	1	0.183000
23.183333	1	0.185500
23.200000	1	0.188250
23.216667	1	0.191875
23.233333	1	0.195125
23.250000	1	0.199125
23.266667	1	0.204000
23.283333	1	0.209750
23.300000	1	0.217250
23.316667	1	0.226750
23.333333	1	0.238000
23.350000	1	0.252000
23.366667	1	0.268875
23.383333	1	0.289875
23.400000	1	0.315000
23.416667	1	0.345375
23.433333	1	0.382500
23.450000	1	0.426500
23.466667	1	0.478000
23.483333	1	0.539750
23.500000	1	0.611500
23.516667	1	0.695125
23.533333	1	0.792000
23.550000	1	0.902625
23.566667	1	1.028250
23.583333	1	1.169500
23.600000	1	1.326500
23.616667	1	1.499000
23.633333	1	1.687750
23.650000	1	1.891625
23.666667	1	2.109000
23.683333	1	2.337750
23.700000	1	2.576625
23.716667	1	2.822500
23.733333	1	3.070750
23.750000	1	3.317750
23.766667	1	3.557375
23.783333	1	3.786250
23.800000	1	3.999000
23.816667	1	4.191375
23.833333	1	4.357875
23.850000	1	4.494875
23.866667	1	4.600000
23.883333	1	4.670375
23.900000	1	4.703750
23.916667	1	4.700250
23.933333	1	4.660125
23.950000	1	4.585375
23.966667	1	4.477500
23.983333	1	4.340375
24.000000	1	4.177250
24.016667	1	3.993875
24.033333	1	3.792625
24.050000	1	3.579250
24.066667	1	3.358000
24.083333	1	3.133500
24.100000	1	2.908625
24.116667	1	2.687375
24.133333	1	2.470875
24.150000	1	2.263625
24.166667	1	2.066250
24.183333	1	1.880750
24.200000	1	1.708250
24.216667	1	1.548375
24.233333	1	1.402125
24.250000	1	1.269375
24.266667	1	1.148000
24.283333	1	1.039875
24.300000	1	0.943375
24.316667	1	0.857500
24.333333	1	0.781250
24.350000	1	0.714250
24.366667	1	0.656750
24.383333	1	0.606500
24.400000	1	0.563375
24.416667	1	0.527375
24.433333	1	0.496375
24.450000	1	0.470750
24.466667	1	0.448750
24.483333	1	0.431000
24.500000	1	0.416250
24.516667	1	0.404500
24.533333	1	0.394500
24.550000	1	0.386625
24.566667	1	0.380000
24.583333	1	0.374750
24.600000	1	0.369500
24.616667	1	0.364500
24.633333	1	0.360000
24.650000	1	0.356125
24.666667	1	0.351875
24.683333	1	0.347250
24.700000	1	0.342625
24.716667	1	0.337750
24.733333	1	0.332500
24.750000	1	0.327000
24.766667	1	0.320750
24.783333	1	0.315250
24.800000	1	0.310125
24.816667	1	0.304625
24.833333	1	0.298750
24.850000	1	0.292625
24.866667	1	0.286875
24.883333	1	0.282250
24.900000	1	0.277000
24.916667	1	0.271625
24.933333	1	0.266750
24.950000	1	0.262250
24.966667	1	0.257500
24.983333	1	0.253500
25.000000	1	0.249875
25.016667	1	0.246375
25.033333	1	0.243000
25.050000	1	0.239625
25.066667	1	0.235875
25.083333	1	0.234000
25.100000	1	0.231250
25.116667	1	0.228375
25.133333	1	0.224875
25.150000	1	0.222250
25.166667	1	0.219500
25.183333	1	0.216875
25.200000	1	0.214500
25.216667	1	0.211625
25.233333	1	0.208875
25.250000	1	0.206125
25.266667	1	0.203250
25.283333	1	0.201375
25.300000	1	0.199625
25.316667	1	0.197250
25.333333	1	0.195000
25.350000	1	0.192875
25.366667	1	0.190375
25.383333	1	0.188500
25.400000	1	0.187000
25.416667	1	0.185000
25.433333	1	0.183625
25.450000	1	0.182250
25.466667	1	0.180625
25.483333	1	0.179125
25.500000	1	0.178125
25.516667	1	0.177500
25.533333	1	0.176625
25.550000	1	0.176500
25.566667	1	0.176375
25.583333	1	0.175750
25.600000	1	0.175625
25.616667	1	0.175625
25.633333	1	0.174625
25.650000	1	0.174000
25.666667	1	0.173875
25.683333	1	0.173625
25.700000	1	0.173500
25.716667	1	0.172750
25.733333	1	0.171750
25.750000	1	0.170875
25.766667	1	0.170250
25.783333	1	0.169625
25.800000	1	0.169125
25.816667	1	0.168500
25.833333	1	0.168500
25.850000	1	0.168750
25.866667	1	0.169000
25.883333	1	0.169750
25.900000	1	0.170750
25.916667	1	0.172250
25.933333	1	0.173125
25.950000	1	0.174875
25.966667	1	0.177375
25.983333	1	0.179750
26.000000	1	0.183000
26.016667	1	0.186375
26.033333	1	0.189875
26.050000	1	0.194250
26.066667	1	0.198250
26.083333	1	0.203000
26.100000	1	0.208000
26.116667	1	0.212500
26.133333	1	0.217375
26.150000	1	0.222125
26.166667	1	0.226000
26.183333	1	0.230375
26.200000	1	0.233875
26.216667	1	0.237250
26.233333	1	0.240625
26.250000	1	0.243000
26.266667	1	0.245500
26.283333	1	0.247000
26.300000	1	0.248250
26.316667	1	0.249000
26.333333	1	0.249125
26.350000	1	0.248375
26.366667	1	0.247500
26.383333	1	0.245125
26.400000	1	0.242375
26.416667	1	0.239500
26.433333	1	0.236000
26.450000	1	0.231750
26.466667	1	0.227625
26.483333	1	0.222625
26.500000	1	0.217875
26.516667	1	0.212625
26.533333	1	0.206500
26.550000	1	0.200000
26.566667	1	0.194000
26.583333	1	0.188500
26.600000	1	0.182375
26.616667	1	0.176375
26.633333	1	0.170125
26.650000	1	0.164625
26.666667	1	0.159125
26.683333	1	0.153875
26.700000	1	0.149000
26.716667	1	0.144250
26.733333	1	0.139875
26.750000	1	0.135375
26.766667	1	0.131500
26.783333	1	0.128250
26.800000	1	0.125250
26.816667	1	0.122250
26.833333	1	0.120375
26.850000	1	0.118125
26.866667	1	0.116000
26.883333	1	0.115625
26.900000	1	0.114500
26.916667	1	0.114500
26.933333	1	0.113750
26.950000	1	0.113625
26.966667	1	0.114750
26.983333	1	0.116125
27.000000	1	0.117625
27.016667	1	0.120250
27.033333	1	0.123125
27.050000	1	0.126750
27.066667	1	0.130750
27.083333	1	0.136000
27.100000	1	0.142625
27.116667	1	0.149500
27.133333	1	0.156625
27.150000	1	0.165750
27.166667	1	0.175875
27.183333	1	0.187625
27.200000	1	0.201625
27.216667	1	0.217750
27.233333	1	0.236000
27.250000	1	0.256875
27.266667	1	0.281000
27.283333	1	0.308125
27.300000	1	0.338500
27.316667	1	0.373875
27.333333	1	0.413500
27.350000	1	0.457750
27.366667	1	0.508250
27.383333	1	0.564500
27.400000	1	0.628250
27.416667	1	0.699875
27.433333	1	0.779375
27.450000	1	0.867500
27.466667	1	0.964000
27.483333	1	1.070125
27.500000	1	1.185875
27.516667	1	1.310875
27.533333	1	1.445625
27.550000	1	1.588750
27.566667	1	1.740750
27.583333	1	1.900375
27.600000	1	2.066625
27.616667	1	2.238625
27.633333	1	2.414375
27.650000	1	2.593125
27.666667	1	2.772375
27.683333	1	2.950000
27.700000	1	3.123500
27.716667	1	3.288875
27.733333	1	3.445375
27.750000	1	3.589125
27.766667	1	3.718500
27.783333	1	3.831375
27.800000	1	3.925875
27.816667	1	3.998250
27.833333	1	4.048750
27.850000	1	4.075500
27.866667	1	4.077750
27.883333	1	4.055375
27.900000	1	4.008875
27.916667	1	3.938125
27.933333	1	3.845250
27.950000	1	3.732125
27.966667	1	3.599875
27.983333	1	3.452500
28.000000	1	3.291750
28.016667	1	3.120125
28.033333	1	2.940875
28.050000	1	2.756500
28.066667	1	2.569750
28.083333	1	2.383000
28.100000	1	2.199375
28.116667	1	2.020750
28.133333	1	1.849000
28.150000	1	1.684250
28.166667	1	1.529250
28.183333	1	1.384000
28.200000	1	1.249250
28.216667	1	1.125250
28.233333	1	1.012000
28.250000	1	0.908500
28.266667	1	0.815750
28.283333	1	0.732500
28.300000	1	0.658375
28.316667	1	0.594250
28.333333	1	0.537375
28.350000	1	0.487625
28.366667	1	0.445875
28.383333	1	0.410625
28.400000	1	0.381750
28.416667	1	0.357500
28.433333	1	0.338125
28.450000	1	0.323250
28.466667	1	0.311750
28.483333	1	0.303750
28.500000	1	0.298875
28.516667	1	0.296625
28.533333	1	0.297250
28.550000	1	0.299750
28.566667	1	0.303125
28.583333	1	0.309000
28.600000	1	0.316875
28.616667	1	0.325500
28.633333	1	0.334625
28.650000	1	0.344250
28.666667	1	0.353625
28.683333	1	0.363125
28.700000	1	0.372875
28.716667	1	0.383000
28.733333	1	0.392875
28.750000	1	0.402375
28.766667	1	0.410125
28.783333	1	0.418125
28.800000	1	0.426000
28.816667	1	0.433000
28.833333	1	0.438875
28.850000	1	0.443750
28.866667	1	0.448000
28.883333	1	0.451000
28.900000	1	0.452750
28.916667	1	0.453375
28.933333	1	0.452250
28.950000	1	0.450875
28.966667	1	0.448625
28.983333	1	0.444500
29.000000	1	0.439625
29.016667	1	0.434250
29.033333	1	0.428000
29.050000	1	0.420125
29.066667	1	0.411000
29.083333	1	0.401000
29.100000	1	0.391000
29.116667	1	0.380125
29.133333	1	0.368125
29.150000	1	0.355125
29.166667	1	0.342375
29.183333	1	0.328875
29.200000	1	0.315875
29.216667	1	0.302375
29.233333	1	0.288750
29.250000	1	0.275500
29.266667	1	0.262125
29.283333	1	0.248625
29.300000	1	0.235375
29.316667	1	0.222625
29.333333	1	0.210375
29.350000	1	0.197875
29.366667	1	0.185750
29.383333	1	0.174500
29.400000	1	0.163875
29.416667	1	0.153500
29.433333	1	0.143375
29.450000	1	0.134750
29.466667	1	0.126125
29.483333	1	0.117875
29.500000	1	0.110125
29.516667	1	0.102750
29.533333	1	0.095625
29.550000	1	0.089375
29.566667	1	0.083375
29.583333	1	0.078000
29.600000	1	0.073250
29.616667	1	0.068750
29.633333	1	0.064875
29.650000	1	0.061250
29.666667	1	0.058625
29.683333	1	0.055125
29.700000	1	0.052375
29.716667	1	0.049875
29.733333	1	0.047375
29.750000	1	0.045250
29.766667	1	0.043375
29.783333	1	0.041500
29.800000	1	0.040250
29.816667	1	0.039250
29.833333	1	0.038500
29.850000	1	0.036875
29.866667	1	0.036375
29.883333	1	0.035750
29.900000	1	0.034875
29.916667	1	0.034375
29.933333	1	0.033875
29.950000	1	0.032875
29.966667	1	0.031875
29.983333	1	0.031000
30.000000	1	0.030250
30.016667	1	0.029375
30.033333	1	0.028750
30.050000	1	0.027875
30.066667	1	0.026625
30.083333	1	0.025750
30.100000	1	0.024625
30.116667	1	0.023500
30.133333	1	0.022625
30.150000	1	0.022000
30.166667	1	0.020875
30.183333	1	0.019625
30.200000	1	0.018250
30.216667	1	0.018500
30.233333	1	0.017500
30.250000	1	0.017875
30.266667	1	0.017375
30.283333	1	0.016875
30.300000	1	0.016625
30.316667	1	0.016750
30.333333	1	0.017375
30.350000	1	0.017875
30.366667	1	0.018250
30.383333	1	0.019375
30.400000	1	0.020625
30.416667	1	0.022375
30.433333	1	0.024750
30.450000	1	0.027125
30.466667	1	0.030250
30.483333	1	0.033875
30.500000	1	0.037250
30.516667	1	0.041750
30.533333	1	0.046875
30.550000	1	0.051875
30.566667	1	0.057875
30.583333	1	0.064000
30.600000	1	0.070500
30.616667	1	0.077375
30.633333	1	0.085250
30.650000	1	0.093750
30.666667	1	0.103250
30.683333	1	0.112875
30.700000	1	0.123000
30.716667	1	0.133375
30.733333	1	0.144875
30.750000	1	0.157250
30.766667	1	0.169875
30.783333	1	0.184750
30.800000	1	0.199625
30.816667	1	0.216625
30.833333	1	0.234250
30.850000	1	0.253500
30.866667	1	0.274875
30.883333	1	0.297750
30.900000	1	0.322375
30.916667	1	0.349125
30.933333	1	0.378750
30.950000	1	0.412000
30.966667	1	0.448500
30.983333	1	0.488500
31.000000	1	0.533500
31.016667	1	0.582750
31.033333	1	0.637250
31.050000	1	0.697500
31.066667	1	0.763250
31.083333	1	0.835375
31.100000	1	0.914375
31.116667	1	1.000750
31.133333	1	1.094500
31.150000	1	1.195000
31.166667	1	1.303500
31.183333	1	1.419250
31.200000	1	1.542750
31.216667	1	1.672625
31.233333	1	1.809250
31.250000	1	1.951125
31.266667	1	2.097125
31.283333	1	2.246750
31.300000	1	2.398625
31.316667	1	2.551625
31.333333	1	2.703125
31.350000	1	2.853500
31.366667	1	2.999500
31.383333	1	3.139625
31.400000	1	3.272875
31.416667	1	3.397625
31.433333	1	3.511000
31.450000	1	3.611375
31.466667	1	3.698125
31.483333	1	3.769875
31.500000	1	3.824625
31.516667	1	3.862625
31.533333	1	3.883500
31.550000	1	3.887125
31.566667	1	3.872875
31.583333	1	3.841500
31.600000	1	3.793000
31.616667	1	3.728000
31.633333	1	3.648750
31.650000	1	3.555500
31.666667	1	3.450125
31.683333	1	3.333625
31.700000	1	3.207625
31.716667	1	3.075375
31.733333	1	2.937125
31.750000	1	2.794875
31.766667	1	2.649125
31.783333	1	2.501750
31.800000	1	2.355000
31.816667	1	2.209250
31.833333	1	2.066375
31.850000	1	1.926750
31.866667	1	1.791875
31.883333	1	1.662500
31.900000	1	1.539125
31.916667	1	1.421500
31.933333	1	1.311500
31.950000	1	1.207375
31.966667	1	1.110000
31.983333	1	1.019375
32.000000	1	0.935375
32.016667	1	0.857625
32.033333	1	0.786125
32.050000	1	0.720250
32.066667	1	0.660250
32.083333	1	0.605375
32.100000	1	0.555000
32.116667	1	0.509250
32.133333	1	0.468125
32.150000	1	0.429625
32.166667	1	0.394500
32.183333	1	0.362625
32.200000	1	0.333125
32.216667	1	0.306250
32.233333	1	0.281375
32.250000	1	0.257875
32.266667	1	0.237125
32.283333	1	0.216625
32.300000	1	0.198250
32.316667	1	0.181000
32.333333	1	0.164625
32.350000	1	0.149000
32.366667	1	0.134000
32.383333	1	0.119875
32.400000	1	0.107375
32.416667	1	0.094500
32.433333	1	0.083125
32.450000	1	0.072250
32.466667	1	0.060875
32.483333	1	0.050250
32.500000	1	0.041125
32.516667	1	0.031750
32.533333	1	0.023750
32.550000	1	0.015625
32.566667	1	0.007875
32.583333	1	0.000875
32.600000	1	-0.006375
32.616667	1	-0.012875
32.633333	1	-0.019000
32.650000	1	-0.024250
32.666667	1	-0.029625
32.683333	1	-0.034625
32.700000	1	-0.039500
32.716667	1	-0.044375
32.733333	1	-0.048000
32.750000	1	-0.052250
32.766667	1	-0.055875
32.783333	1	-0.059375
32.800000	1	-0.062500
32.816667	1	-0.065750
32.833333	1	-0.068250
32.850000	1	-0.071000
32.866667	1	-0.074125
32.883333	1	-0.076250
32.900000	1	-0.078500
32.916667	1	-0.080000
32.933333	1	-0.081625
32.950000	1	-0.083125
32.966667	1	-0.084250
32.983333	1	-0.084625
33.000000	1	-0.085875
33.016667	1	-0.087000
33.033333	1	-0.088125
33.050000	1	-0.087875
33.066667	1	-0.087625
33.083333	1	-0.086875
33.100000	1	-0.086500
33.116667	1	-0.085125
33.133333	1	-0.084625
33.150000	1	-0.082875
33.166667	1	-0.080875
33.183333	1	-0.079000
33.200000	1	-0.076250
33.216667	1	-0.073750
33.233333	1	-0.071125
33.250000	1	-0.068250
33.266667	1	-0.065000
33.283333	1	-0.061125
33.300000	1	-0.057375
33.316667	1	-0.053375
33.333333	1	-0.048625
33.350000	1	-0.043750
33.366667	1	-0.038875
33.383333	1	-0.032875
33.400000	1	-0.026625
33.416667	1	-0.019875
33.433333	1	-0.012125
33.450000	1	-0.004250
33.466667	1	0.004500
33.483333	1	0.014000
33.500000	1	0.024000
33.516667	1	0.035250
33.533333	1	0.046875
33.550000	1	0.059500
33.566667	1	0.073875
33.583333	1	0.089125
33.600000	1	0.105375
33.616667	1	0.122000
33.633333	1	0.140000
33.650000	1	0.158750
33.666667	1	0.179000
33.683333	1	0.199875
33.700000	1	0.222125
33.716667	1	0.244750
33.733333	1	0.268625
33.750000	1	0.293250
33.766667	1	0.318500
33.783333	1	0.344500
33.800000	1	0.370750
33.816667	1	0.396125
33.833333	1	0.422375
33.850000	1	0.447375
33.866667	1	0.472625
33.883333	1	0.496750
33.900000	1	0.519375
33.916667	1	0.541250
33.933333	1	0.561625
33.950000	1	0.580125
33.966667	1	0.596750
33.983333	1	0.611500
34.000000	1	0.624500
34.016667	1	0.635125
34.033333	1	0.642875
34.050000	1	0.648000
34.066667	1	0.650250
34.083333	1	0.650125
34.100000	1	0.647625
34.116667	1	0.642625
34.133333	1	0.636250
34.150000	1	0.626750
34.166667	1	0.614875
34.183333	1	0.601000
34.200000	1	0.585125
34.216667	1	0.568500
34.233333	1	0.549875
34.250000	1	0.530750
34.266667	1	0.510625
34.283333	1	0.490250
34.300000	1	0.468750
34.316667	1	0.447375
34.333333	1	0.425375
34.350000	1	0.404250
34.366667	1	0.383875
34.383333	1	0.362500
34.400000	1	0.342000
34.416667	1	0.322125
34.433333	1	0.303250
34.450000	1	0.285125
34.466667	1	0.267250
34.483333	1	0.251000
34.500000	1	0.235875
34.516667	1	0.221750
34.533333	1	0.208000
34.550000	1	0.195625
34.566667	1	0.184375
34.583333	1	0.173500
34.600000	1	0.163500
34.616667	1	0.153750
34.633333	1	0.145250
34.650000	1	0.137375
34.666667	1	0.129750
34.683333	1	0.122750
34.700000	1	0.116750
34.716667	1	0.111750
34.733333	1	0.106750
34.750000	1	0.102500
34.766667	1	0.098250
34.783333	1	0.094500
34.800000	1	0.091625
34.816667	1	0.088500
34.833333	1	0.086375
34.850000	1	0.084250
34.866667	1	0.081250
34.883333	1	0.079375
34.900000	1	0.078125
34.916667	1	0.076625
34.933333	1	0.076125
34.950000	1	0.075875
34.966667	1	0.074500
34.983333	1	0.073875
35.000000	1	0.073000
35.016667	1	0.072000
35.033333	1	0.071625
35.050000	1	0.071750
35.066667	1	0.071125
35.083333	1	0.071375
35.100000	1	0.072375
35.116667	1	0.072625
35.133333	1	0.073250
35.150000	1	0.073750
35.166667	1	0.074125
35.183333	1	0.074750
35.200000	1	0.074875
35.216667	1	0.075250
35.233333	1	0.076000
35.250000	1	0.076250
35.266667	1	0.076750
35.283333	1	0.077000
35.300000	1	0.077375
35.316667	1	0.076875
35.333333	1	0.077250
35.350000	1	0.077125
35.366667	1	0.077125
35.383333	1	0.077125
35.400000	1	0.077125
35.416667	1	0.076750
35.433333	1	0.076250
35.450000	1	0.075875
35.466667	1	0.074875
35.483333	1	0.074375
35.500000	1	0.074000
35.516667	1	0.073375
35.533333	1	0.072250
35.550000	1	0.072000
35.566667	1	0.071125
35.583333	1	0.070250
35.600000	1	0.069000
35.616667	1	0.067875
35.633333	1	0.067625
35.650000	1	0.065875
35.666667	1	0.064625
35.683333	1	0.063125
35.700000	1	0.061375
35.716667	1	0.060125
35.733333	1	0.058250
35.750000	1	0.056625
35.766667	1	0.054750
35.783333	1	0.052500
35.800000	1	0.050375
35.816667	1	0.047750
35.833333	1	0.045750
35.850000	1	0.043250
35.866667	1	0.041000
35.883333	1	0.038750
35.900000	1	0.036500
35.916667	1	0.034250
35.933333	1	0.032000
35.950000	1	0.029625
35.966667	1	0.027375
35.983333	1	0.025375
36.000000	1	0.022750
36.016667	1	0.020000
36.033333	1	0.017750
36.050000	1	0.015875
36.066667	1	0.014125
36.083333	1	0.012750
36.100000	1	0.011625
36.116667	1	0.009750
36.133333	1	0.008250
36.150000	1	0.007250
36.166667	1	0.007250
36.183333	1	0.006875
36.200000	1	0.006250
36.216667	1	0.006250
36.233333	1	0.006375
36.250000	1	0.006625
36.266667	1	0.007000
36.283333	1	0.008000
36.300000	1	0.008500
36.316667	1	0.009000
36.333333	1	0.010375
36.350000	1	0.011875
36.366667	1	0.012625
36.383333	1	0.014000
36.400000	1	0.015000
36.416667	1	0.016375
36.433333	1	0.017875
36.450000	1	0.018875
36.466667	1	0.020125
36.483333	1	0.022000
36.500000	1	0.023750
36.516667	1	0.025250
36.533333	1	0.026625
36.550000	1	0.028000
36.566667	1	0.028750
36.583333	1	0.029750
36.600000	1	0.030125
36.616667	1	0.031375
36.633333	1	0.032000
36.650000	1	0.032625
36.666667	1	0.033250
36.683333	1	0.033375
36.700000	1	0.033875
36.716667	1	0.033250
36.733333	1	0.032250
36.750000	1	0.032250
36.766667	1	0.031500
36.783333	1	0.030750
36.800000	1	0.030000
36.816667	1	0.029250
36.833333	1	0.028500
36.850000	1	0.028250
36.866667	1	0.027250
36.883333	1	0.025750
36.900000	1	0.024875
36.916667	1	0.023375
36.933333	1	0.022000
36.950000	1	0.021000
36.966667	1	0.019500
36.983333	1	0.017875
37.000000	1	0.016250
37.016667	1	0.015500
37.033333	1	0.014375
37.050000	1	0.013250
37.066667	1	0.012375
37.083333	1	0.011500
37.100000	1	0.010500
37.116667	1	0.010500
37.133333	1	0.010000
37.150000	1	0.009500
37.166667	1	0.008000
37.183333	1	0.007625
37.200000	1	0.006875
37.216667	1	0.006750
37.233333	1	0.006750
37.250000	1	0.005250
37.266667	1	0.004750
37.283333	1	0.004375
37.300000	1	0.003875
37.316667	1	0.003375
37.333333	1	0.002625
37.350000	1	0.001875
37.366667	1	0.001375
37.383333	1	0.000250
37.400000	1	-0.000500
37.416667	1	-0.001625
37.433333	1	-0.003125
37.450000	1	-0.004875
37.466667	1	-0.005750
37.483333	1	-0.007625
37.500000	1	-0.009375
37.516667	1	-0.010500
37.533333	1	-0.011625
37.550000	1	-0.013250
37.566667	1	-0.014875
37.583333	1	-0.016750
37.600000	1	-0.018500
37.616667	1	-0.020250
37.633333	1	-0.022000
37.650000	1	-0.023625
37.666667	1	-0.024625
37.683333	1	-0.026000
37.700000	1	-0.026750
37.716667	1	-0.027875
37.733333	1	-0.029125
37.750000	1	-0.029500
37.766667	1	-0.031250
37.783333	1	-0.031625
37.800000	1	-0.031750
37.816667	1	-0.031875
37.833333	1	-0.032125
37.850000	1	-0.032250
37.866667	1	-0.031875
37.883333	1	-0.031250
37.900000	1	-0.030375
37.916667	1	-0.028875
37.933333	1	-0.027750
37.950000	1	-0.027000
37.966667	1	-0.025000
37.983333	1	-0.023500
38.000000	1	-0.022000
38.016667	1	-0.020000
38.033333	1	-0.017500
38.050000	1	-0.015750
38.066667	1	-0.013375
38.083333	1	-0.010625
38.100000	1	-0.008375
38.116667	1	-0.005875
38.133333	1	-0.003250
38.150000	1	-0.000125
38.166667	1	0.002125
38.183333	1	0.004250
38.200000	1	0.005875
38.216667	1	0.008000
38.233333	1	0.010000
38.250000	1	0.011875
38.266667	1	0.013500
38.283333	1	0.015500
38.300000	1	0.017125
38.316667	1	0.018250
38.333333	1	0.019750
38.350000	1	0.020750
38.366667	1	0.021125
38.383333	1	0.021875
38.400000	1	0.022500
38.416667	1	0.022875
38.433333	1	0.022500
38.450000	1	0.022250
38.466667	1	0.022000
38.483333	1	0.022000
38.500000	1	0.021500
38.516667	1	0.021250
38.533333	1	0.020000
38.550000	1	0.019125
38.566667	1	0.017500
38.583333	1	0.017250
38.600000	1	0.016375
38.616667	1	0.015000
38.633333	1	0.013625
38.650000	1	0.013250
38.666667	1	0.011750
38.683333	1	0.011000
38.700000	1	0.010500
38.716667	1	0.009750
38.733333	1	0.009750
38.750000	1	0.009250
38.766667	1	0.009125
38.783333	1	0.009250
38.800000	1	0.009375
38.816667	1	0.009375
38.833333	1	0.009375
38.850000	1	0.008875
38.866667	1	0.009500
38.883333	1	0.009250
38.900000	1	0.009625
38.916667	1	0.010125
38.933333	1	0.010625
38.950000	1	0.010125
38.966667	1	0.010250
38.983333	1	0.010375
39.000000	1	0.010375
39.016667	1	0.010000
39.033333	1	0.009125
39.050000	1	0.008875
39.066667	1	0.008250
39.083333	1	0.007750
39.100000	1	0.006750
39.116667	1	0.005250
39.133333	1	0.004500
39.150000	1	0.002375
39.166667	1	0.000000
39.183333	1	-0.002000
39.200000	1	-0.004250
39.216667	1	-0.005375
39.233333	1	-0.008250
39.250000	1	-0.010875
39.266667	1	-0.013625
39.283333	1	-0.016375
39.300000	1	-0.019125
39.316667	1	-0.022000
39.333333	1	-0.025250
39.350000	1	-0.028875
39.366667	1	-0.031125
39.383333	1	-0.034250
39.400000	1	-0.037375
39.416667	1	-0.039625
39.433333	1	-0.041625
39.450000	1	-0.043625
39.466667	1	-0.045750
39.483333	1	-0.047750
39.500000	1	-0.049250
39.516667	1	-0.051000
39.533333	1	-0.052250
39.550000	1	-0.054625
39.566667	1	-0.055500
39.583333	1	-0.056250
39.600000	1	-0.056500
39.616667	1	-0.056875
39.633333	1	-0.056750
39.650000	1	-0.056625
39.666667	1	-0.056625
39.683333	1	-0.056250
39.700000	1	-0.056000
39.716667	1	-0.055625
39.733333	1	-0.055625
39.750000	1	-0.054500
39.766667	1	-0.053500
39.783333	1	-0.053000
39.800000	1	-0.052125
39.816667	1	-0.051125
39.833333	1	-0.050250
39.850000	1	-0.049625
39.866667	1	-0.048625
39.883333	1	-0.047375
39.900000	1	-0.046625
39.916667	1	-0.046125
39.933333	1	-0.044875
39.950000	1	-0.044375
39.966667	1	-0.044875
39.983333	1	-0.044375
40.000000	1	-0.044500
