URL	chrom://bioreactor/micro_cm7/HPLC_Ultimate_3000/Users/markusar/20240708_MA_pHrange1.seq/459.smp/RI_1.channel/RI_1.chm
Channel	RI_1

Injection Information:
Data Vault	micro_cm7
Sequence	20240708_MA_pHrange1
Name	Fp2_6.5_4
Number	54
Position	BE8
Comment	
Processing Method	
Instrument Method	run_25B_method
Type	Unknown
Status	Finished
Inject Time	10.07.2024 03:46:03 +02:00
Volume (µl)	20.0000
Dilution Factor	1.0000
Weight	1.0000

Chromatogram Data Information:
Time Min. (min)	0.000000
Time Max. (min)	40.000000
Data Points	2401
Detector	RI
Generating Data System	Chromeleon 7.3.2.11814
Exporting Data System	Chromeleon 7.3.2.0
Operator	Instrument Controller
Signal Quantity	Refractive 
Signal Unit	µRIU
Signal Min.	-0.004250
Signal Max.	79.619750
Channel	RI_1
Driver Name	RID520Driver.dll
Channel Type	Evaluation
Min. Step (s)	1
Max. Step (s)	1
Average Step (s)	1

Signal Parameter Information:
Signal Info	

Chromatogram Data:
Time (min)	Step (s)	Value (µRIU)
0.000000	n.a.	0.074875
0.016667	1	0.074500
0.033333	1	0.073750
0.050000	1	0.073625
0.066667	1	0.073625
0.083333	1	0.073000
0.100000	1	0.072375
0.116667	1	0.071125
0.133333	1	0.070000
0.150000	1	0.069625
0.166667	1	0.069000
0.183333	1	0.067000
0.200000	1	0.065000
0.216667	1	0.063000
0.233333	1	0.061250
0.250000	1	0.059250
0.266667	1	0.057500
0.283333	1	0.055125
0.300000	1	0.052750
0.316667	1	0.049875
0.333333	1	0.046500
0.350000	1	0.043625
0.366667	1	0.040375
0.383333	1	0.037125
0.400000	1	0.033750
0.416667	1	0.031250
0.433333	1	0.030500
0.450000	1	0.029500
0.466667	1	0.028875
0.483333	1	0.028375
0.500000	1	0.027750
0.516667	1	0.026750
0.533333	1	0.025375
0.550000	1	0.024125
0.566667	1	0.022250
0.583333	1	0.019250
0.600000	1	0.016125
0.616667	1	0.012875
0.633333	1	0.010875
0.650000	1	0.009000
0.666667	1	0.008500
0.683333	1	0.009000
0.700000	1	0.009500
0.716667	1	0.010000
0.733333	1	0.010750
0.750000	1	0.011875
0.766667	1	0.013125
0.783333	1	0.014375
0.800000	1	0.015000
0.816667	1	0.016250
0.833333	1	0.018000
0.850000	1	0.019375
0.866667	1	0.021125
0.883333	1	0.022500
0.900000	1	0.023625
0.916667	1	0.025250
0.933333	1	0.026125
0.950000	1	0.027375
0.966667	1	0.028000
0.983333	1	0.029250
1.000000	1	0.029750
1.016667	1	0.030875
1.033333	1	0.031125
1.050000	1	0.031500
1.066667	1	0.031625
1.083333	1	0.031750
1.100000	1	0.031750
1.116667	1	0.031875
1.133333	1	0.031250
1.150000	1	0.031125
1.166667	1	0.030875
1.183333	1	0.029625
1.200000	1	0.028000
1.216667	1	0.027625
1.233333	1	0.027250
1.250000	1	0.025875
1.266667	1	0.024875
1.283333	1	0.023625
1.300000	1	0.022625
1.316667	1	0.021125
1.333333	1	0.020000
1.350000	1	0.018750
1.366667	1	0.017500
1.383333	1	0.016750
1.400000	1	0.015625
1.416667	1	0.014500
1.433333	1	0.013875
1.450000	1	0.012500
1.466667	1	0.011875
1.483333	1	0.010625
1.500000	1	0.009375
1.516667	1	0.007500
1.533333	1	0.006250
1.550000	1	0.005500
1.566667	1	0.005250
1.583333	1	0.004500
1.600000	1	0.003875
1.616667	1	0.002875
1.633333	1	0.002000
1.650000	1	0.001250
1.666667	1	0.000875
1.683333	1	0.000375
1.700000	1	-0.000375
1.716667	1	-0.000500
1.733333	1	-0.001125
1.750000	1	-0.001000
1.766667	1	-0.001375
1.783333	1	-0.001375
1.800000	1	-0.001250
1.816667	1	-0.000875
1.833333	1	-0.001375
1.850000	1	-0.000875
1.866667	1	-0.000375
1.883333	1	0.000000
1.900000	1	0.000000
1.916667	1	0.000500
1.933333	1	0.000750
1.950000	1	0.001500
1.966667	1	0.002000
1.983333	1	0.003500
2.000000	1	0.004250
2.016667	1	0.005875
2.033333	1	0.008000
2.050000	1	0.010250
2.066667	1	0.011500
2.083333	1	0.013000
2.100000	1	0.012875
2.116667	1	0.012750
2.133333	1	0.013875
2.150000	1	0.014875
2.166667	1	0.016000
2.183333	1	0.017250
2.200000	1	0.017875
2.216667	1	0.019000
2.233333	1	0.020125
2.250000	1	0.021250
2.266667	1	0.021875
2.283333	1	0.023250
2.300000	1	0.023375
2.316667	1	0.023750
2.333333	1	0.023875
2.350000	1	0.024625
2.366667	1	0.025625
2.383333	1	0.026125
2.400000	1	0.026000
2.416667	1	0.026000
2.433333	1	0.026000
2.450000	1	0.026500
2.466667	1	0.027125
2.483333	1	0.026750
2.500000	1	0.026125
2.516667	1	0.026625
2.533333	1	0.026375
2.550000	1	0.026500
2.566667	1	0.025750
2.583333	1	0.025375
2.600000	1	0.025125
2.616667	1	0.024750
2.633333	1	0.024500
2.650000	1	0.024750
2.666667	1	0.025000
2.683333	1	0.024500
2.700000	1	0.024000
2.716667	1	0.023875
2.733333	1	0.024125
2.750000	1	0.023500
2.766667	1	0.023250
2.783333	1	0.023750
2.800000	1	0.023625
2.816667	1	0.023500
2.833333	1	0.023125
2.850000	1	0.023250
2.866667	1	0.023500
2.883333	1	0.023375
2.900000	1	0.023000
2.916667	1	0.022500
2.933333	1	0.022625
2.950000	1	0.022875
2.966667	1	0.022500
2.983333	1	0.022750
3.000000	1	0.022625
3.016667	1	0.022000
3.033333	1	0.021750
3.050000	1	0.021375
3.066667	1	0.020875
3.083333	1	0.020625
3.100000	1	0.020375
3.116667	1	0.019750
3.133333	1	0.019500
3.150000	1	0.019250
3.166667	1	0.018625
3.183333	1	0.018375
3.200000	1	0.018125
3.216667	1	0.017375
3.233333	1	0.017750
3.250000	1	0.017875
3.266667	1	0.017875
3.283333	1	0.018125
3.300000	1	0.018000
3.316667	1	0.017500
3.333333	1	0.017625
3.350000	1	0.017625
3.366667	1	0.017625
3.383333	1	0.017625
3.400000	1	0.017750
3.416667	1	0.018875
3.433333	1	0.019625
3.450000	1	0.019875
3.466667	1	0.019625
3.483333	1	0.019250
3.500000	1	0.020125
3.516667	1	0.020125
3.533333	1	0.020625
3.550000	1	0.021000
3.566667	1	0.021125
3.583333	1	0.021750
3.600000	1	0.022375
3.616667	1	0.023375
3.633333	1	0.024250
3.650000	1	0.025750
3.666667	1	0.025750
3.683333	1	0.026750
3.700000	1	0.027500
3.716667	1	0.028250
3.733333	1	0.029125
3.750000	1	0.030125
3.766667	1	0.031375
3.783333	1	0.032500
3.800000	1	0.034250
3.816667	1	0.036375
3.833333	1	0.038125
3.850000	1	0.040125
3.866667	1	0.041750
3.883333	1	0.043875
3.900000	1	0.046125
3.916667	1	0.048500
3.933333	1	0.050250
3.950000	1	0.052750
3.966667	1	0.055375
3.983333	1	0.057375
4.000000	1	0.059125
4.016667	1	0.061375
4.033333	1	0.063625
4.050000	1	0.065500
4.066667	1	0.067500
4.083333	1	0.069500
4.100000	1	0.071625
4.116667	1	0.073625
4.133333	1	0.075375
4.150000	1	0.077000
4.166667	1	0.079250
4.183333	1	0.080375
4.200000	1	0.081875
4.216667	1	0.083250
4.233333	1	0.084750
4.250000	1	0.085750
4.266667	1	0.086875
4.283333	1	0.087375
4.300000	1	0.088250
4.316667	1	0.089125
4.333333	1	0.089500
4.350000	1	0.090125
4.366667	1	0.090500
4.383333	1	0.091875
4.400000	1	0.092250
4.416667	1	0.092750
4.433333	1	0.093000
4.450000	1	0.093625
4.466667	1	0.094250
4.483333	1	0.094250
4.500000	1	0.094375
4.516667	1	0.094625
4.533333	1	0.094625
4.550000	1	0.094375
4.566667	1	0.095750
4.583333	1	0.096125
4.600000	1	0.096750
4.616667	1	0.097625
4.633333	1	0.098375
4.650000	1	0.099250
4.666667	1	0.099750
4.683333	1	0.100875
4.700000	1	0.101625
4.716667	1	0.103125
4.733333	1	0.103625
4.750000	1	0.105500
4.766667	1	0.107000
4.783333	1	0.109125
4.800000	1	0.110625
4.816667	1	0.113250
4.833333	1	0.115500
4.850000	1	0.118875
4.866667	1	0.121500
4.883333	1	0.124750
4.900000	1	0.127375
4.916667	1	0.131250
4.933333	1	0.134875
4.950000	1	0.138750
4.966667	1	0.142750
4.983333	1	0.146625
5.000000	1	0.150750
5.016667	1	0.155000
5.033333	1	0.159375
5.050000	1	0.163875
5.066667	1	0.168125
5.083333	1	0.172875
5.100000	1	0.177250
5.116667	1	0.181875
5.133333	1	0.186500
5.150000	1	0.191125
5.166667	1	0.195750
5.183333	1	0.200000
5.200000	1	0.204500
5.216667	1	0.208750
5.233333	1	0.213625
5.250000	1	0.217125
5.266667	1	0.221500
5.283333	1	0.225375
5.300000	1	0.229125
5.316667	1	0.232125
5.333333	1	0.235250
5.350000	1	0.237750
5.366667	1	0.240500
5.383333	1	0.242500
5.400000	1	0.244250
5.416667	1	0.245500
5.433333	1	0.247250
5.450000	1	0.248250
5.466667	1	0.248875
5.483333	1	0.249125
5.500000	1	0.248625
5.516667	1	0.248750
5.533333	1	0.248875
5.550000	1	0.248500
5.566667	1	0.248125
5.583333	1	0.247125
5.600000	1	0.246375
5.616667	1	0.244875
5.633333	1	0.244000
5.650000	1	0.242250
5.666667	1	0.240625
5.683333	1	0.239250
5.700000	1	0.237875
5.716667	1	0.235375
5.733333	1	0.233750
5.750000	1	0.231500
5.766667	1	0.229250
5.783333	1	0.227000
5.800000	1	0.225000
5.816667	1	0.223000
5.833333	1	0.220625
5.850000	1	0.218500
5.866667	1	0.215875
5.883333	1	0.213250
5.900000	1	0.210750
5.916667	1	0.208000
5.933333	1	0.205875
5.950000	1	0.202750
5.966667	1	0.200000
5.983333	1	0.197500
6.000000	1	0.194375
6.016667	1	0.191250
6.033333	1	0.187500
6.050000	1	0.184125
6.066667	1	0.181125
6.083333	1	0.178125
6.100000	1	0.175000
6.116667	1	0.171875
6.133333	1	0.168625
6.150000	1	0.165375
6.166667	1	0.161375
6.183333	1	0.158125
6.200000	1	0.154875
6.216667	1	0.151500
6.233333	1	0.148750
6.250000	1	0.144250
6.266667	1	0.141250
6.283333	1	0.137750
6.300000	1	0.134750
6.316667	1	0.130500
6.333333	1	0.127000
6.350000	1	0.124125
6.366667	1	0.121125
6.383333	1	0.117250
6.400000	1	0.114000
6.416667	1	0.111125
6.433333	1	0.108500
6.450000	1	0.105625
6.466667	1	0.103125
6.483333	1	0.100875
6.500000	1	0.098500
6.516667	1	0.096625
6.533333	1	0.094500
6.550000	1	0.093000
6.566667	1	0.091625
6.583333	1	0.090500
6.600000	1	0.089125
6.616667	1	0.088000
6.633333	1	0.087125
6.650000	1	0.086500
6.666667	1	0.085375
6.683333	1	0.084250
6.700000	1	0.083375
6.716667	1	0.082750
6.733333	1	0.082750
6.750000	1	0.083250
6.766667	1	0.083625
6.783333	1	0.083625
6.800000	1	0.084375
6.816667	1	0.085000
6.833333	1	0.085750
6.850000	1	0.087250
6.866667	1	0.089250
6.883333	1	0.091000
6.900000	1	0.091750
6.916667	1	0.092625
6.933333	1	0.094750
6.950000	1	0.096250
6.966667	1	0.098500
6.983333	1	0.100500
7.000000	1	0.103125
7.016667	1	0.105750
7.033333	1	0.107500
7.050000	1	0.110250
7.066667	1	0.112125
7.083333	1	0.114750
7.100000	1	0.117250
7.116667	1	0.119625
7.133333	1	0.122625
7.150000	1	0.125875
7.166667	1	0.129000
7.183333	1	0.132250
7.200000	1	0.134000
7.216667	1	0.136125
7.233333	1	0.138375
7.250000	1	0.140875
7.266667	1	0.143000
7.283333	1	0.145000
7.300000	1	0.146500
7.316667	1	0.147875
7.333333	1	0.149125
7.350000	1	0.150125
7.366667	1	0.150625
7.383333	1	0.151250
7.400000	1	0.151875
7.416667	1	0.151875
7.433333	1	0.151375
7.450000	1	0.150500
7.466667	1	0.149125
7.483333	1	0.148000
7.500000	1	0.146000
7.516667	1	0.143875
7.533333	1	0.141875
7.550000	1	0.139250
7.566667	1	0.137250
7.583333	1	0.134250
7.600000	1	0.130375
7.616667	1	0.127375
7.633333	1	0.123250
7.650000	1	0.119875
7.666667	1	0.115625
7.683333	1	0.111875
7.700000	1	0.108250
7.716667	1	0.103875
7.733333	1	0.100000
7.750000	1	0.096750
7.766667	1	0.092125
7.783333	1	0.088000
7.800000	1	0.084250
7.816667	1	0.079875
7.833333	1	0.076125
7.850000	1	0.073000
7.866667	1	0.069375
7.883333	1	0.065000
7.900000	1	0.062250
7.916667	1	0.059000
7.933333	1	0.055250
7.950000	1	0.052125
7.966667	1	0.049750
7.983333	1	0.047250
8.000000	1	0.044500
8.016667	1	0.042625
8.033333	1	0.040500
8.050000	1	0.038625
8.066667	1	0.036000
8.083333	1	0.034125
8.100000	1	0.032250
8.116667	1	0.030250
8.133333	1	0.028875
8.150000	1	0.028000
8.166667	1	0.027125
8.183333	1	0.026750
8.200000	1	0.025250
8.216667	1	0.024375
8.233333	1	0.024000
8.250000	1	0.023625
8.266667	1	0.023000
8.283333	1	0.021875
8.300000	1	0.020875
8.316667	1	0.020375
8.333333	1	0.019750
8.350000	1	0.018750
8.366667	1	0.018375
8.383333	1	0.018125
8.400000	1	0.018125
8.416667	1	0.017125
8.433333	1	0.017250
8.450000	1	0.017125
8.466667	1	0.016500
8.483333	1	0.016750
8.500000	1	0.016625
8.516667	1	0.016875
8.533333	1	0.016500
8.550000	1	0.016250
8.566667	1	0.016375
8.583333	1	0.016250
8.600000	1	0.016625
8.616667	1	0.017125
8.633333	1	0.017375
8.650000	1	0.017875
8.666667	1	0.018625
8.683333	1	0.019000
8.700000	1	0.019875
8.716667	1	0.020250
8.733333	1	0.020625
8.750000	1	0.021875
8.766667	1	0.022625
8.783333	1	0.023625
8.800000	1	0.024250
8.816667	1	0.025375
8.833333	1	0.025375
8.850000	1	0.026125
8.866667	1	0.027125
8.883333	1	0.028125
8.900000	1	0.028875
8.916667	1	0.029500
8.933333	1	0.029875
8.950000	1	0.030625
8.966667	1	0.031000
8.983333	1	0.031250
9.000000	1	0.031250
9.016667	1	0.031500
9.033333	1	0.032250
9.050000	1	0.032500
9.066667	1	0.033000
9.083333	1	0.031750
9.100000	1	0.031750
9.116667	1	0.031875
9.133333	1	0.031500
9.150000	1	0.031625
9.166667	1	0.031750
9.183333	1	0.032000
9.200000	1	0.031250
9.216667	1	0.031375
9.233333	1	0.031000
9.250000	1	0.030125
9.266667	1	0.029625
9.283333	1	0.029125
9.300000	1	0.028500
9.316667	1	0.028000
9.333333	1	0.027750
9.350000	1	0.026500
9.366667	1	0.025375
9.383333	1	0.024875
9.400000	1	0.023500
9.416667	1	0.022125
9.433333	1	0.021625
9.450000	1	0.020125
9.466667	1	0.018875
9.483333	1	0.018750
9.500000	1	0.017500
9.516667	1	0.016250
9.533333	1	0.015250
9.550000	1	0.014375
9.566667	1	0.013000
9.583333	1	0.012250
9.600000	1	0.011250
9.616667	1	0.010250
9.633333	1	0.008625
9.650000	1	0.007375
9.666667	1	0.006500
9.683333	1	0.005625
9.700000	1	0.005375
9.716667	1	0.004500
9.733333	1	0.003625
9.750000	1	0.002375
9.766667	1	0.001250
9.783333	1	-0.000250
9.800000	1	-0.000625
9.816667	1	-0.001125
9.833333	1	-0.001000
9.850000	1	-0.001625
9.866667	1	-0.002125
9.883333	1	-0.002750
9.900000	1	-0.003250
9.916667	1	-0.004125
9.933333	1	-0.004250
9.950000	1	-0.004250
9.966667	1	-0.004125
9.983333	1	-0.003750
10.000000	1	-0.003500
10.016667	1	-0.001875
10.033333	1	0.000000
10.050000	1	0.002125
10.066667	1	0.005625
10.083333	1	0.009500
10.100000	1	0.012250
10.116667	1	0.019500
10.133333	1	0.027250
10.150000	1	0.034500
10.166667	1	0.043125
10.183333	1	0.053000
10.200000	1	0.064000
10.216667	1	0.076500
10.233333	1	0.090375
10.250000	1	0.105375
10.266667	1	0.122375
10.283333	1	0.142125
10.300000	1	0.164125
10.316667	1	0.188625
10.333333	1	0.215000
10.350000	1	0.243125
10.366667	1	0.271875
10.383333	1	0.299125
10.400000	1	0.323500
10.416667	1	0.340750
10.433333	1	0.350500
10.450000	1	0.352000
10.466667	1	0.346500
10.483333	1	0.342000
10.500000	1	0.351250
10.516667	1	0.393750
10.533333	1	0.501750
10.550000	1	0.715625
10.566667	1	1.087000
10.583333	1	1.672875
10.600000	1	2.532750
10.616667	1	3.722375
10.633333	1	5.285625
10.650000	1	7.254250
10.666667	1	9.647625
10.683333	1	12.468250
10.700000	1	15.703625
10.716667	1	19.321750
10.733333	1	23.271375
10.750000	1	27.477625
10.766667	1	31.825375
10.783333	1	36.167750
10.800000	1	40.297875
10.816667	1	43.944125
10.833333	1	46.779375
10.850000	1	48.467250
10.866667	1	48.725500
10.883333	1	47.414875
10.900000	1	44.606000
10.916667	1	40.591125
10.933333	1	35.806375
10.950000	1	30.727375
10.966667	1	25.764375
10.983333	1	21.203375
11.000000	1	17.204875
11.016667	1	13.825125
11.033333	1	11.050000
11.050000	1	8.822500
11.066667	1	7.065500
11.083333	1	5.698500
11.100000	1	4.646500
11.116667	1	3.841625
11.133333	1	3.227500
11.150000	1	2.758500
11.166667	1	2.400125
11.183333	1	2.125375
11.200000	1	1.914375
11.216667	1	1.750500
11.233333	1	1.623250
11.250000	1	1.522750
11.266667	1	1.442125
11.283333	1	1.375625
11.300000	1	1.319250
11.316667	1	1.270250
11.333333	1	1.226250
11.350000	1	1.185750
11.366667	1	1.147375
11.383333	1	1.112250
11.400000	1	1.078625
11.416667	1	1.047375
11.433333	1	1.018875
11.450000	1	0.993375
11.466667	1	0.971250
11.483333	1	0.952500
11.500000	1	0.936125
11.516667	1	0.923750
11.533333	1	0.914875
11.550000	1	0.909250
11.566667	1	0.907625
11.583333	1	0.910250
11.600000	1	0.917750
11.616667	1	0.928250
11.633333	1	0.943250
11.650000	1	0.961625
11.666667	1	0.984375
11.683333	1	1.010625
11.700000	1	1.038125
11.716667	1	1.066750
11.733333	1	1.095250
11.750000	1	1.121375
11.766667	1	1.144250
11.783333	1	1.163500
11.800000	1	1.178875
11.816667	1	1.189000
11.833333	1	1.193750
11.850000	1	1.192625
11.866667	1	1.187375
11.883333	1	1.179000
11.900000	1	1.168375
11.916667	1	1.154750
11.933333	1	1.141375
11.950000	1	1.127750
11.966667	1	1.114750
11.983333	1	1.102875
12.000000	1	1.093250
12.016667	1	1.085000
12.033333	1	1.078250
12.050000	1	1.073375
12.066667	1	1.070375
12.083333	1	1.069125
12.100000	1	1.069500
12.116667	1	1.071125
12.133333	1	1.074000
12.150000	1	1.078125
12.166667	1	1.083375
12.183333	1	1.090625
12.200000	1	1.099750
12.216667	1	1.110625
12.233333	1	1.125250
12.250000	1	1.144000
12.266667	1	1.168750
12.283333	1	1.201125
12.300000	1	1.244750
12.316667	1	1.303375
12.333333	1	1.382375
12.350000	1	1.488250
12.366667	1	1.630375
12.383333	1	1.821500
12.400000	1	2.076750
12.416667	1	2.418000
12.433333	1	2.872625
12.450000	1	3.476375
12.466667	1	4.273250
12.483333	1	5.321625
12.500000	1	6.688125
12.516667	1	8.447125
12.533333	1	10.678500
12.550000	1	13.461125
12.566667	1	16.862250
12.583333	1	20.928375
12.600000	1	25.669125
12.616667	1	31.038625
12.633333	1	36.947000
12.650000	1	43.242125
12.666667	1	49.713750
12.683333	1	56.098875
12.700000	1	62.103125
12.716667	1	67.426250
12.733333	1	71.790125
12.750000	1	74.976875
12.766667	1	76.844875
12.783333	1	77.343250
12.800000	1	76.516875
12.816667	1	74.498250
12.833333	1	71.482875
12.850000	1	67.711625
12.866667	1	63.443250
12.883333	1	58.936750
12.900000	1	54.426125
12.916667	1	50.107625
12.933333	1	46.129625
12.950000	1	42.592500
12.966667	1	39.548125
12.983333	1	37.013375
13.000000	1	34.974625
13.016667	1	33.399750
13.033333	1	32.242500
13.050000	1	31.454375
13.066667	1	30.986625
13.083333	1	30.792625
13.100000	1	30.828500
13.116667	1	31.056500
13.133333	1	31.443750
13.150000	1	31.963125
13.166667	1	32.592750
13.183333	1	33.312625
13.200000	1	34.108250
13.216667	1	34.966875
13.233333	1	35.880250
13.250000	1	36.841375
13.266667	1	37.846875
13.283333	1	38.890375
13.300000	1	39.969500
13.316667	1	41.082375
13.333333	1	42.226250
13.350000	1	43.399500
13.366667	1	44.601500
13.383333	1	45.832375
13.400000	1	47.089875
13.416667	1	48.375125
13.433333	1	49.689750
13.450000	1	51.033875
13.466667	1	52.408750
13.483333	1	53.815125
13.500000	1	55.251625
13.516667	1	56.719500
13.533333	1	58.217125
13.550000	1	59.745125
13.566667	1	61.306000
13.583333	1	62.898625
13.600000	1	64.521750
13.616667	1	66.177500
13.633333	1	67.867250
13.650000	1	69.594625
13.666667	1	71.356750
13.683333	1	73.147625
13.700000	1	74.933750
13.716667	1	76.636000
13.733333	1	78.110625
13.750000	1	79.168625
13.766667	1	79.619750
13.783333	1	79.305625
13.800000	1	78.110625
13.816667	1	75.914750
13.833333	1	72.565875
13.850000	1	67.890625
13.866667	1	61.825250
13.883333	1	54.575875
13.900000	1	46.673625
13.916667	1	38.829000
13.933333	1	31.655875
13.950000	1	25.505375
13.966667	1	20.468250
13.983333	1	16.466875
14.000000	1	13.347750
14.016667	1	10.946875
14.033333	1	9.122250
14.050000	1	7.752375
14.066667	1	6.732750
14.083333	1	5.976375
14.100000	1	5.415000
14.116667	1	4.993875
14.133333	1	4.672750
14.150000	1	4.423625
14.166667	1	4.225875
14.183333	1	4.064625
14.200000	1	3.930375
14.216667	1	3.815750
14.233333	1	3.715750
14.250000	1	3.627875
14.266667	1	3.548375
14.283333	1	3.475375
14.300000	1	3.408875
14.316667	1	3.347125
14.333333	1	3.289875
14.350000	1	3.236625
14.366667	1	3.187625
14.383333	1	3.141625
14.400000	1	3.098375
14.416667	1	3.058500
14.433333	1	3.021875
14.450000	1	2.987500
14.466667	1	2.955750
14.483333	1	2.925500
14.500000	1	2.896625
14.516667	1	2.868625
14.533333	1	2.841625
14.550000	1	2.814875
14.566667	1	2.788375
14.583333	1	2.761375
14.600000	1	2.735000
14.616667	1	2.708125
14.633333	1	2.679750
14.650000	1	2.651000
14.666667	1	2.622125
14.683333	1	2.592875
14.700000	1	2.563625
14.716667	1	2.534750
14.733333	1	2.505875
14.750000	1	2.477875
14.766667	1	2.451500
14.783333	1	2.425375
14.800000	1	2.400000
14.816667	1	2.375000
14.833333	1	2.349000
14.850000	1	2.323875
14.866667	1	2.297250
14.883333	1	2.270625
14.900000	1	2.243500
14.916667	1	2.215250
14.933333	1	2.186000
14.950000	1	2.156125
14.966667	1	2.125750
14.983333	1	2.095500
15.000000	1	2.065500
15.016667	1	2.034875
15.033333	1	2.005375
15.050000	1	1.976500
15.066667	1	1.948500
15.083333	1	1.922375
15.100000	1	1.896750
15.116667	1	1.873500
15.133333	1	1.851625
15.150000	1	1.830625
15.166667	1	1.810875
15.183333	1	1.793000
15.200000	1	1.777375
15.216667	1	1.762875
15.233333	1	1.750625
15.250000	1	1.740000
15.266667	1	1.732375
15.283333	1	1.727250
15.300000	1	1.724375
15.316667	1	1.724875
15.333333	1	1.729750
15.350000	1	1.738750
15.366667	1	1.753625
15.383333	1	1.772750
15.400000	1	1.797375
15.416667	1	1.827000
15.433333	1	1.859875
15.450000	1	1.894875
15.466667	1	1.930375
15.483333	1	1.965750
15.500000	1	1.997875
15.516667	1	2.025000
15.533333	1	2.045750
15.550000	1	2.058375
15.566667	1	2.060750
15.583333	1	2.054625
15.600000	1	2.039250
15.616667	1	2.016500
15.633333	1	1.986500
15.650000	1	1.951125
15.666667	1	1.912000
15.683333	1	1.870125
15.700000	1	1.827625
15.716667	1	1.785125
15.733333	1	1.743875
15.750000	1	1.704375
15.766667	1	1.666875
15.783333	1	1.630500
15.800000	1	1.596500
15.816667	1	1.564500
15.833333	1	1.533500
15.850000	1	1.504125
15.866667	1	1.476750
15.883333	1	1.450250
15.900000	1	1.425500
15.916667	1	1.402000
15.933333	1	1.380375
15.950000	1	1.360500
15.966667	1	1.343375
15.983333	1	1.328375
16.000000	1	1.315500
16.016667	1	1.305875
16.033333	1	1.297375
16.050000	1	1.290625
16.066667	1	1.285500
16.083333	1	1.282125
16.100000	1	1.280000
16.116667	1	1.279875
16.133333	1	1.280375
16.150000	1	1.280875
16.166667	1	1.282250
16.183333	1	1.284375
16.200000	1	1.285875
16.216667	1	1.286375
16.233333	1	1.287125
16.250000	1	1.286500
16.266667	1	1.286000
16.283333	1	1.284750
16.300000	1	1.281500
16.316667	1	1.277250
16.333333	1	1.272500
16.350000	1	1.267375
16.366667	1	1.261500
16.383333	1	1.255375
16.400000	1	1.248625
16.416667	1	1.243000
16.433333	1	1.237500
16.450000	1	1.232625
16.466667	1	1.229875
16.483333	1	1.227500
16.500000	1	1.228125
16.516667	1	1.230750
16.533333	1	1.233625
16.550000	1	1.238875
16.566667	1	1.245125
16.583333	1	1.251625
16.600000	1	1.258875
16.616667	1	1.265250
16.633333	1	1.272250
16.650000	1	1.277375
16.666667	1	1.281000
16.683333	1	1.283500
16.700000	1	1.285000
16.716667	1	1.285625
16.733333	1	1.286375
16.750000	1	1.286000
16.766667	1	1.286250
16.783333	1	1.285875
16.800000	1	1.286625
16.816667	1	1.288125
16.833333	1	1.290125
16.850000	1	1.293000
16.866667	1	1.296500
16.883333	1	1.300375
16.900000	1	1.303750
16.916667	1	1.306750
16.933333	1	1.309500
16.950000	1	1.311000
16.966667	1	1.311125
16.983333	1	1.310750
17.000000	1	1.309000
17.016667	1	1.306000
17.033333	1	1.302875
17.050000	1	1.299625
17.066667	1	1.295125
17.083333	1	1.291000
17.100000	1	1.287875
17.116667	1	1.285125
17.133333	1	1.283875
17.150000	1	1.283875
17.166667	1	1.286000
17.183333	1	1.288875
17.200000	1	1.293250
17.216667	1	1.299250
17.233333	1	1.307250
17.250000	1	1.317000
17.266667	1	1.328375
17.283333	1	1.340625
17.300000	1	1.354250
17.316667	1	1.368875
17.333333	1	1.382875
17.350000	1	1.397250
17.366667	1	1.410625
17.383333	1	1.423500
17.400000	1	1.434250
17.416667	1	1.443000
17.433333	1	1.449875
17.450000	1	1.453125
17.466667	1	1.453875
17.483333	1	1.451500
17.500000	1	1.445750
17.516667	1	1.437000
17.533333	1	1.425875
17.550000	1	1.411750
17.566667	1	1.395500
17.583333	1	1.377375
17.600000	1	1.357875
17.616667	1	1.337000
17.633333	1	1.315250
17.650000	1	1.293625
17.666667	1	1.271500
17.683333	1	1.250000
17.700000	1	1.228125
17.716667	1	1.206875
17.733333	1	1.186250
17.750000	1	1.166875
17.766667	1	1.148375
17.783333	1	1.130375
17.800000	1	1.114000
17.816667	1	1.098250
17.833333	1	1.082625
17.850000	1	1.067625
17.866667	1	1.053375
17.883333	1	1.040500
17.900000	1	1.028125
17.916667	1	1.015750
17.933333	1	1.004250
17.950000	1	0.993750
17.966667	1	0.984125
17.983333	1	0.974875
18.000000	1	0.965500
18.016667	1	0.956625
18.033333	1	0.947125
18.050000	1	0.938000
18.066667	1	0.929125
18.083333	1	0.920250
18.100000	1	0.911500
18.116667	1	0.903375
18.133333	1	0.896125
18.150000	1	0.888875
18.166667	1	0.881375
18.183333	1	0.874750
18.200000	1	0.869000
18.216667	1	0.863250
18.233333	1	0.859125
18.250000	1	0.855375
18.266667	1	0.852625
18.283333	1	0.850500
18.300000	1	0.848750
18.316667	1	0.847250
18.333333	1	0.846000
18.350000	1	0.845375
18.366667	1	0.846000
18.383333	1	0.846750
18.400000	1	0.848625
18.416667	1	0.850250
18.433333	1	0.853500
18.450000	1	0.858125
18.466667	1	0.863625
18.483333	1	0.870250
18.500000	1	0.879125
18.516667	1	0.889875
18.533333	1	0.902750
18.550000	1	0.917625
18.566667	1	0.933875
18.583333	1	0.953125
18.600000	1	0.974875
18.616667	1	0.998750
18.633333	1	1.024500
18.650000	1	1.051875
18.666667	1	1.081375
18.683333	1	1.113000
18.700000	1	1.147000
18.716667	1	1.181250
18.733333	1	1.217750
18.750000	1	1.254875
18.766667	1	1.292500
18.783333	1	1.330500
18.800000	1	1.367375
18.816667	1	1.404000
18.833333	1	1.439750
18.850000	1	1.472250
18.866667	1	1.501625
18.883333	1	1.527625
18.900000	1	1.549125
18.916667	1	1.565125
18.933333	1	1.575125
18.950000	1	1.579375
18.966667	1	1.576625
18.983333	1	1.566500
19.000000	1	1.549250
19.016667	1	1.524500
19.033333	1	1.493625
19.050000	1	1.457500
19.066667	1	1.416000
19.083333	1	1.370375
19.100000	1	1.322250
19.116667	1	1.272000
19.133333	1	1.220875
19.150000	1	1.169125
19.166667	1	1.118375
19.183333	1	1.070250
19.200000	1	1.025375
19.216667	1	0.983375
19.233333	1	0.946375
19.250000	1	0.913625
19.266667	1	0.885625
19.283333	1	0.863375
19.300000	1	0.846625
19.316667	1	0.835125
19.333333	1	0.829375
19.350000	1	0.829250
19.366667	1	0.835000
19.383333	1	0.845375
19.400000	1	0.861000
19.416667	1	0.880375
19.433333	1	0.905250
19.450000	1	0.931500
19.466667	1	0.959875
19.483333	1	0.989500
19.500000	1	1.020000
19.516667	1	1.049250
19.533333	1	1.077875
19.550000	1	1.103750
19.566667	1	1.125875
19.583333	1	1.142625
19.600000	1	1.154500
19.616667	1	1.160500
19.633333	1	1.160750
19.650000	1	1.154750
19.666667	1	1.143125
19.683333	1	1.126000
19.700000	1	1.104250
19.716667	1	1.078250
19.733333	1	1.049000
19.750000	1	1.017750
19.766667	1	0.984375
19.783333	1	0.950125
19.800000	1	0.915500
19.816667	1	0.881375
19.833333	1	0.848375
19.850000	1	0.816625
19.866667	1	0.786625
19.883333	1	0.759125
19.900000	1	0.733625
19.916667	1	0.711125
19.933333	1	0.690250
19.950000	1	0.671750
19.966667	1	0.655500
19.983333	1	0.641625
20.000000	1	0.630250
20.016667	1	0.621500
20.033333	1	0.614500
20.050000	1	0.609625
20.066667	1	0.606875
20.083333	1	0.607250
20.100000	1	0.608625
20.116667	1	0.612250
20.133333	1	0.618000
20.150000	1	0.626625
20.166667	1	0.636625
20.183333	1	0.647625
20.200000	1	0.660875
20.216667	1	0.675125
20.233333	1	0.689625
20.250000	1	0.703625
20.266667	1	0.718250
20.283333	1	0.731750
20.300000	1	0.743750
20.316667	1	0.754500
20.333333	1	0.762375
20.350000	1	0.768125
20.366667	1	0.770625
20.383333	1	0.770750
20.400000	1	0.767625
20.416667	1	0.762000
20.433333	1	0.753750
20.450000	1	0.744375
20.466667	1	0.734125
20.483333	1	0.723375
20.500000	1	0.713250
20.516667	1	0.705500
20.533333	1	0.699125
20.550000	1	0.696750
20.566667	1	0.698750
20.583333	1	0.706750
20.600000	1	0.720250
20.616667	1	0.740250
20.633333	1	0.767125
20.650000	1	0.801625
20.666667	1	0.843750
20.683333	1	0.893625
20.700000	1	0.950750
20.716667	1	1.014750
20.733333	1	1.084125
20.750000	1	1.158125
20.766667	1	1.234625
20.783333	1	1.311375
20.800000	1	1.386500
20.816667	1	1.458500
20.833333	1	1.524250
20.850000	1	1.581000
20.866667	1	1.627500
20.883333	1	1.661625
20.900000	1	1.682625
20.916667	1	1.689750
20.933333	1	1.682375
20.950000	1	1.661750
20.966667	1	1.627375
20.983333	1	1.581250
21.000000	1	1.524750
21.016667	1	1.460500
21.033333	1	1.390125
21.050000	1	1.315375
21.066667	1	1.238750
21.083333	1	1.162500
21.100000	1	1.087125
21.116667	1	1.015250
21.133333	1	0.947250
21.150000	1	0.883875
21.166667	1	0.825625
21.183333	1	0.773625
21.200000	1	0.725875
21.216667	1	0.683125
21.233333	1	0.645500
21.250000	1	0.612875
21.266667	1	0.584125
21.283333	1	0.559375
21.300000	1	0.538250
21.316667	1	0.521500
21.333333	1	0.506750
21.350000	1	0.495250
21.366667	1	0.485750
21.383333	1	0.478250
21.400000	1	0.471875
21.416667	1	0.467500
21.433333	1	0.464500
21.450000	1	0.462875
21.466667	1	0.462750
21.483333	1	0.463750
21.500000	1	0.465625
21.516667	1	0.469125
21.533333	1	0.474125
21.550000	1	0.480625
21.566667	1	0.489625
21.583333	1	0.499875
21.600000	1	0.513375
21.616667	1	0.529625
21.633333	1	0.548625
21.650000	1	0.571375
21.666667	1	0.598000
21.683333	1	0.628875
21.700000	1	0.664500
21.716667	1	0.703625
21.733333	1	0.748750
21.750000	1	0.798125
21.766667	1	0.852625
21.783333	1	0.912125
21.800000	1	0.975000
21.816667	1	1.043000
21.833333	1	1.113250
21.850000	1	1.186000
21.866667	1	1.260250
21.883333	1	1.333875
21.900000	1	1.406125
21.916667	1	1.475875
21.933333	1	1.541125
21.950000	1	1.600250
21.966667	1	1.651500
21.983333	1	1.694750
22.000000	1	1.728250
22.016667	1	1.751250
22.033333	1	1.763000
22.050000	1	1.763250
22.066667	1	1.752375
22.083333	1	1.729500
22.100000	1	1.698000
22.116667	1	1.658000
22.133333	1	1.610125
22.150000	1	1.555250
22.166667	1	1.495625
22.183333	1	1.430750
22.200000	1	1.364750
22.216667	1	1.297000
22.233333	1	1.229500
22.250000	1	1.162500
22.266667	1	1.097250
22.283333	1	1.034875
22.300000	1	0.975375
22.316667	1	0.918500
22.333333	1	0.864875
22.350000	1	0.814625
22.366667	1	0.769000
22.383333	1	0.726500
22.400000	1	0.687125
22.416667	1	0.650750
22.433333	1	0.617500
22.450000	1	0.587625
22.466667	1	0.561250
22.483333	1	0.537125
22.500000	1	0.517000
22.516667	1	0.497875
22.533333	1	0.480375
22.550000	1	0.465000
22.566667	1	0.451375
22.583333	1	0.439000
22.600000	1	0.427375
22.616667	1	0.417250
22.633333	1	0.408750
22.650000	1	0.400750
22.666667	1	0.393875
22.683333	1	0.387750
22.700000	1	0.382250
22.716667	1	0.376125
22.733333	1	0.370375
22.750000	1	0.365125
22.766667	1	0.360875
22.783333	1	0.356375
22.800000	1	0.352375
22.816667	1	0.347750
22.833333	1	0.343250
22.850000	1	0.339875
22.866667	1	0.336625
22.883333	1	0.334125
22.900000	1	0.331500
22.916667	1	0.328750
22.933333	1	0.327000
22.950000	1	0.324750
22.966667	1	0.323125
22.983333	1	0.321625
23.000000	1	0.320875
23.016667	1	0.321000
23.033333	1	0.321250
23.050000	1	0.322250
23.066667	1	0.323250
23.083333	1	0.324125
23.100000	1	0.325250
23.116667	1	0.327125
23.133333	1	0.329625
23.150000	1	0.333000
23.166667	1	0.335375
23.183333	1	0.338500
23.200000	1	0.342500
23.216667	1	0.346125
23.233333	1	0.350500
23.250000	1	0.354875
23.266667	1	0.360750
23.283333	1	0.368750
23.300000	1	0.377125
23.316667	1	0.387250
23.333333	1	0.399000
23.350000	1	0.414000
23.366667	1	0.431625
23.383333	1	0.453125
23.400000	1	0.478750
23.416667	1	0.510000
23.433333	1	0.548250
23.450000	1	0.594000
23.466667	1	0.648375
23.483333	1	0.712875
23.500000	1	0.787750
23.516667	1	0.875125
23.533333	1	0.976625
23.550000	1	1.092500
23.566667	1	1.223875
23.583333	1	1.372000
23.600000	1	1.536875
23.616667	1	1.719375
23.633333	1	1.918250
23.650000	1	2.131875
23.666667	1	2.360125
23.683333	1	2.600125
23.700000	1	2.849375
23.716667	1	3.105250
23.733333	1	3.362500
23.750000	1	3.618000
23.766667	1	3.864625
23.783333	1	4.098250
23.800000	1	4.313125
23.816667	1	4.504250
23.833333	1	4.667750
23.850000	1	4.800125
23.866667	1	4.898625
23.883333	1	4.960125
23.900000	1	4.983500
23.916667	1	4.968750
23.933333	1	4.917000
23.950000	1	4.829875
23.966667	1	4.710000
23.983333	1	4.560875
24.000000	1	4.386750
24.016667	1	4.193000
24.033333	1	3.983625
24.050000	1	3.762875
24.066667	1	3.535375
24.083333	1	3.305625
24.100000	1	3.076750
24.116667	1	2.851625
24.133333	1	2.634000
24.150000	1	2.425375
24.166667	1	2.228375
24.183333	1	2.042625
24.200000	1	1.868875
24.216667	1	1.709875
24.233333	1	1.563500
24.250000	1	1.430000
24.266667	1	1.309250
24.283333	1	1.200875
24.300000	1	1.103875
24.316667	1	1.017250
24.333333	1	0.940750
24.350000	1	0.873750
24.366667	1	0.815125
24.383333	1	0.763625
24.400000	1	0.719500
24.416667	1	0.681375
24.433333	1	0.648625
24.450000	1	0.620750
24.466667	1	0.598000
24.483333	1	0.578625
24.500000	1	0.562375
24.516667	1	0.549250
24.533333	1	0.538500
24.550000	1	0.528500
24.566667	1	0.519500
24.583333	1	0.512375
24.600000	1	0.505875
24.616667	1	0.500125
24.633333	1	0.494375
24.650000	1	0.488625
24.666667	1	0.483125
24.683333	1	0.477375
24.700000	1	0.471750
24.716667	1	0.465750
24.733333	1	0.459250
24.750000	1	0.452750
24.766667	1	0.445500
24.783333	1	0.439000
24.800000	1	0.432375
24.816667	1	0.424750
24.833333	1	0.417125
24.850000	1	0.410000
24.866667	1	0.403250
24.883333	1	0.396500
24.900000	1	0.389750
24.916667	1	0.382000
24.933333	1	0.375750
24.950000	1	0.369500
24.966667	1	0.363125
24.983333	1	0.357875
25.000000	1	0.352625
25.016667	1	0.347000
25.033333	1	0.342500
25.050000	1	0.336875
25.066667	1	0.332500
25.083333	1	0.327750
25.100000	1	0.323750
25.116667	1	0.319625
25.133333	1	0.316250
25.150000	1	0.312375
25.166667	1	0.308250
25.183333	1	0.304375
25.200000	1	0.300500
25.216667	1	0.296875
25.233333	1	0.292875
25.250000	1	0.290250
25.266667	1	0.286625
25.283333	1	0.283125
25.300000	1	0.280750
25.316667	1	0.278875
25.333333	1	0.276625
25.350000	1	0.274750
25.366667	1	0.273000
25.383333	1	0.270750
25.400000	1	0.269625
25.416667	1	0.268375
25.433333	1	0.268250
25.450000	1	0.267500
25.466667	1	0.266375
25.483333	1	0.266625
25.500000	1	0.266750
25.516667	1	0.267500
25.533333	1	0.267750
25.550000	1	0.267750
25.566667	1	0.268000
25.583333	1	0.268500
25.600000	1	0.269750
25.616667	1	0.271250
25.633333	1	0.272750
25.650000	1	0.274125
25.666667	1	0.275375
25.683333	1	0.275875
25.700000	1	0.276750
25.716667	1	0.277625
25.733333	1	0.278375
25.750000	1	0.278875
25.766667	1	0.279625
25.783333	1	0.280750
25.800000	1	0.281500
25.816667	1	0.282875
25.833333	1	0.283625
25.850000	1	0.285000
25.866667	1	0.286500
25.883333	1	0.288125
25.900000	1	0.290750
25.916667	1	0.293250
25.933333	1	0.296125
25.950000	1	0.299250
25.966667	1	0.302750
25.983333	1	0.306125
26.000000	1	0.310000
26.016667	1	0.313750
26.033333	1	0.318375
26.050000	1	0.323250
26.066667	1	0.328000
26.083333	1	0.333250
26.100000	1	0.338500
26.116667	1	0.344250
26.133333	1	0.349625
26.150000	1	0.355125
26.166667	1	0.360125
26.183333	1	0.365250
26.200000	1	0.369625
26.216667	1	0.373250
26.233333	1	0.376500
26.250000	1	0.380250
26.266667	1	0.382250
26.283333	1	0.384125
26.300000	1	0.385500
26.316667	1	0.386125
26.333333	1	0.385250
26.350000	1	0.384000
26.366667	1	0.381875
26.383333	1	0.378875
26.400000	1	0.375750
26.416667	1	0.371750
26.433333	1	0.367000
26.450000	1	0.361375
26.466667	1	0.355750
26.483333	1	0.349625
26.500000	1	0.343750
26.516667	1	0.336375
26.533333	1	0.329125
26.550000	1	0.321875
26.566667	1	0.314250
26.583333	1	0.307125
26.600000	1	0.299750
26.616667	1	0.291500
26.633333	1	0.284250
26.650000	1	0.277750
26.666667	1	0.271250
26.683333	1	0.264875
26.700000	1	0.258125
26.716667	1	0.252500
26.733333	1	0.246750
26.750000	1	0.241625
26.766667	1	0.235875
26.783333	1	0.231375
26.800000	1	0.227250
26.816667	1	0.223125
26.833333	1	0.219875
26.850000	1	0.217250
26.866667	1	0.215125
26.883333	1	0.212875
26.900000	1	0.211250
26.916667	1	0.210250
26.933333	1	0.209625
26.950000	1	0.208500
26.966667	1	0.209500
26.983333	1	0.210375
27.000000	1	0.211750
27.016667	1	0.213750
27.033333	1	0.216125
27.050000	1	0.219625
27.066667	1	0.223250
27.083333	1	0.227375
27.100000	1	0.233500
27.116667	1	0.240375
27.133333	1	0.248000
27.150000	1	0.257250
27.166667	1	0.267625
27.183333	1	0.279750
27.200000	1	0.293500
27.216667	1	0.309625
27.233333	1	0.328500
27.250000	1	0.349625
27.266667	1	0.374375
27.283333	1	0.402500
27.300000	1	0.434250
27.316667	1	0.471500
27.333333	1	0.512750
27.350000	1	0.559500
27.366667	1	0.613000
27.383333	1	0.672000
27.400000	1	0.738875
27.416667	1	0.813375
27.433333	1	0.897000
27.450000	1	0.989375
27.466667	1	1.091375
27.483333	1	1.202500
27.500000	1	1.324375
27.516667	1	1.455875
27.533333	1	1.596500
27.550000	1	1.747625
27.566667	1	1.907625
27.583333	1	2.074750
27.600000	1	2.249500
27.616667	1	2.429625
27.633333	1	2.614375
27.650000	1	2.800750
27.666667	1	2.987750
27.683333	1	3.172750
27.700000	1	3.352875
27.716667	1	3.525125
27.733333	1	3.686125
27.750000	1	3.834875
27.766667	1	3.968250
27.783333	1	4.084000
27.800000	1	4.179625
27.816667	1	4.254000
27.833333	1	4.303750
27.850000	1	4.328875
27.866667	1	4.328750
27.883333	1	4.302875
27.900000	1	4.251875
27.916667	1	4.176125
27.933333	1	4.077750
27.950000	1	3.958625
27.966667	1	3.820125
27.983333	1	3.665750
28.000000	1	3.498250
28.016667	1	3.320125
28.033333	1	3.134250
28.050000	1	2.943750
28.066667	1	2.750250
28.083333	1	2.558250
28.100000	1	2.369125
28.116667	1	2.185625
28.133333	1	2.009750
28.150000	1	1.840000
28.166667	1	1.680750
28.183333	1	1.532750
28.200000	1	1.395000
28.216667	1	1.268875
28.233333	1	1.153625
28.250000	1	1.048875
28.266667	1	0.954750
28.283333	1	0.870875
28.300000	1	0.796500
28.316667	1	0.730625
28.333333	1	0.674000
28.350000	1	0.625000
28.366667	1	0.582750
28.383333	1	0.547625
28.400000	1	0.519000
28.416667	1	0.495750
28.433333	1	0.477250
28.450000	1	0.463250
28.466667	1	0.453750
28.483333	1	0.447125
28.500000	1	0.443375
28.516667	1	0.442875
28.533333	1	0.445125
28.550000	1	0.449125
28.566667	1	0.454875
28.583333	1	0.462500
28.600000	1	0.470250
28.616667	1	0.480500
28.633333	1	0.490500
28.650000	1	0.501625
28.666667	1	0.513125
28.683333	1	0.524500
28.700000	1	0.536000
28.716667	1	0.547125
28.733333	1	0.557250
28.750000	1	0.567250
28.766667	1	0.575875
28.783333	1	0.584875
28.800000	1	0.592750
28.816667	1	0.600125
28.833333	1	0.605375
28.850000	1	0.610250
28.866667	1	0.614375
28.883333	1	0.616250
28.900000	1	0.617875
28.916667	1	0.616875
28.933333	1	0.615250
28.950000	1	0.613125
28.966667	1	0.609000
28.983333	1	0.604125
29.000000	1	0.598000
29.016667	1	0.590625
29.033333	1	0.582750
29.050000	1	0.574000
29.066667	1	0.564000
29.083333	1	0.553125
29.100000	1	0.541625
29.116667	1	0.529125
29.133333	1	0.516125
29.150000	1	0.503250
29.166667	1	0.489375
29.183333	1	0.475500
29.200000	1	0.462000
29.216667	1	0.448000
29.233333	1	0.433875
29.250000	1	0.419625
29.266667	1	0.405750
29.283333	1	0.392125
29.300000	1	0.378125
29.316667	1	0.364875
29.333333	1	0.352125
29.350000	1	0.339375
29.366667	1	0.326750
29.383333	1	0.315625
29.400000	1	0.304875
29.416667	1	0.294250
29.433333	1	0.284125
29.450000	1	0.274625
29.466667	1	0.265000
29.483333	1	0.256625
29.500000	1	0.248125
29.516667	1	0.240125
29.533333	1	0.232000
29.550000	1	0.224875
29.566667	1	0.218250
29.583333	1	0.212750
29.600000	1	0.206000
29.616667	1	0.200625
29.633333	1	0.195125
29.650000	1	0.189750
29.666667	1	0.184500
29.683333	1	0.180250
29.700000	1	0.176000
29.716667	1	0.171750
29.733333	1	0.168375
29.750000	1	0.164375
29.766667	1	0.161625
29.783333	1	0.159000
29.800000	1	0.156500
29.816667	1	0.154125
29.833333	1	0.151125
29.850000	1	0.148625
29.866667	1	0.146125
29.883333	1	0.143875
29.900000	1	0.141750
29.916667	1	0.140000
29.933333	1	0.138250
29.950000	1	0.137000
29.966667	1	0.134500
29.983333	1	0.134000
30.000000	1	0.133000
30.016667	1	0.131875
30.033333	1	0.130875
30.050000	1	0.130125
30.066667	1	0.129375
30.083333	1	0.129250
30.100000	1	0.129000
30.116667	1	0.128125
30.133333	1	0.127500
30.150000	1	0.127375
30.166667	1	0.127750
30.183333	1	0.128250
30.200000	1	0.128500
30.216667	1	0.128875
30.233333	1	0.129875
30.250000	1	0.130000
30.266667	1	0.130250
30.283333	1	0.130750
30.300000	1	0.131750
30.316667	1	0.132750
30.333333	1	0.134125
30.350000	1	0.134875
30.366667	1	0.136250
30.383333	1	0.137375
30.400000	1	0.138500
30.416667	1	0.140250
30.433333	1	0.141875
30.450000	1	0.144250
30.466667	1	0.146875
30.483333	1	0.149375
30.500000	1	0.152375
30.516667	1	0.154875
30.533333	1	0.158000
30.550000	1	0.161750
30.566667	1	0.165625
30.583333	1	0.169750
30.600000	1	0.174875
30.616667	1	0.181125
30.633333	1	0.186875
30.650000	1	0.193000
30.666667	1	0.199500
30.683333	1	0.206875
30.700000	1	0.214875
30.716667	1	0.223250
30.733333	1	0.233000
30.750000	1	0.243500
30.766667	1	0.253875
30.783333	1	0.265500
30.800000	1	0.277375
30.816667	1	0.290500
30.833333	1	0.304375
30.850000	1	0.319625
30.866667	1	0.336750
30.883333	1	0.354625
30.900000	1	0.373375
30.916667	1	0.395625
30.933333	1	0.419375
30.950000	1	0.444250
30.966667	1	0.471875
30.983333	1	0.503125
31.000000	1	0.538500
31.016667	1	0.576125
31.033333	1	0.618250
31.050000	1	0.663375
31.066667	1	0.714375
31.083333	1	0.769750
31.100000	1	0.830250
31.116667	1	0.896125
31.133333	1	0.967250
31.150000	1	1.044125
31.166667	1	1.126875
31.183333	1	1.215500
31.200000	1	1.310375
31.216667	1	1.410375
31.233333	1	1.515875
31.250000	1	1.625375
31.266667	1	1.739250
31.283333	1	1.855875
31.300000	1	1.975250
31.316667	1	2.096375
31.333333	1	2.217250
31.350000	1	2.337750
31.366667	1	2.455625
31.383333	1	2.570750
31.400000	1	2.680125
31.416667	1	2.782750
31.433333	1	2.878750
31.450000	1	2.965500
31.466667	1	3.040875
31.483333	1	3.105625
31.500000	1	3.157875
31.516667	1	3.197125
31.533333	1	3.222375
31.550000	1	3.234125
31.566667	1	3.231375
31.583333	1	3.215500
31.600000	1	3.184875
31.616667	1	3.142125
31.633333	1	3.086250
31.650000	1	3.018500
31.666667	1	2.939875
31.683333	1	2.852500
31.700000	1	2.756625
31.716667	1	2.654375
31.733333	1	2.546625
31.750000	1	2.434250
31.766667	1	2.318750
31.783333	1	2.201250
31.800000	1	2.083250
31.816667	1	1.965125
31.833333	1	1.849125
31.850000	1	1.735250
31.866667	1	1.624875
31.883333	1	1.518000
31.900000	1	1.415250
31.916667	1	1.317125
31.933333	1	1.224500
31.950000	1	1.136625
31.966667	1	1.054375
31.983333	1	0.977375
32.000000	1	0.906125
32.016667	1	0.839500
32.033333	1	0.778375
32.050000	1	0.721125
32.066667	1	0.669000
32.083333	1	0.620625
32.100000	1	0.576250
32.116667	1	0.535875
32.133333	1	0.499000
32.150000	1	0.464875
32.166667	1	0.433500
32.183333	1	0.405125
32.200000	1	0.379000
32.216667	1	0.354125
32.233333	1	0.331750
32.250000	1	0.311500
32.266667	1	0.292250
32.283333	1	0.274750
32.300000	1	0.259000
32.316667	1	0.243250
32.333333	1	0.229250
32.350000	1	0.216000
32.366667	1	0.203750
32.383333	1	0.192625
32.400000	1	0.181750
32.416667	1	0.172000
32.433333	1	0.163000
32.450000	1	0.154000
32.466667	1	0.146000
32.483333	1	0.139000
32.500000	1	0.132250
32.516667	1	0.125750
32.533333	1	0.119875
32.550000	1	0.114250
32.566667	1	0.108875
32.583333	1	0.104250
32.600000	1	0.100500
32.616667	1	0.097000
32.633333	1	0.094125
32.650000	1	0.091625
32.666667	1	0.089125
32.683333	1	0.086000
32.700000	1	0.083375
32.716667	1	0.081250
32.733333	1	0.080000
32.750000	1	0.077625
32.766667	1	0.075375
32.783333	1	0.073500
32.800000	1	0.072375
32.816667	1	0.070625
32.833333	1	0.069250
32.850000	1	0.068250
32.866667	1	0.067125
32.883333	1	0.066000
32.900000	1	0.064625
32.916667	1	0.063750
32.933333	1	0.062500
32.950000	1	0.061875
32.966667	1	0.060750
32.983333	1	0.060500
33.000000	1	0.060625
33.016667	1	0.060000
33.033333	1	0.059500
33.050000	1	0.058875
33.066667	1	0.058500
33.083333	1	0.058875
33.100000	1	0.058625
33.116667	1	0.059500
33.133333	1	0.059875
33.150000	1	0.061125
33.166667	1	0.062625
33.183333	1	0.064000
33.200000	1	0.066375
33.216667	1	0.068750
33.233333	1	0.071875
33.250000	1	0.075750
33.266667	1	0.080000
33.283333	1	0.084625
33.300000	1	0.090375
33.316667	1	0.096875
33.333333	1	0.105375
33.350000	1	0.114500
33.366667	1	0.124125
33.383333	1	0.135625
33.400000	1	0.148000
33.416667	1	0.160875
33.433333	1	0.175750
33.450000	1	0.192375
33.466667	1	0.211375
33.483333	1	0.231125
33.500000	1	0.252875
33.516667	1	0.277875
33.533333	1	0.305125
33.550000	1	0.334500
33.566667	1	0.365875
33.583333	1	0.400375
33.600000	1	0.437125
33.616667	1	0.476500
33.633333	1	0.518750
33.650000	1	0.563250
33.666667	1	0.610500
33.683333	1	0.660125
33.700000	1	0.711750
33.716667	1	0.765500
33.733333	1	0.820750
33.750000	1	0.878500
33.766667	1	0.938000
33.783333	1	0.997625
33.800000	1	1.058125
33.816667	1	1.118375
33.833333	1	1.178625
33.850000	1	1.237500
33.866667	1	1.294250
33.883333	1	1.349375
33.900000	1	1.401000
33.916667	1	1.449250
33.933333	1	1.494250
33.950000	1	1.534250
33.966667	1	1.569875
33.983333	1	1.600375
34.000000	1	1.625125
34.016667	1	1.643875
34.033333	1	1.656750
34.050000	1	1.663000
34.066667	1	1.664125
34.083333	1	1.658625
34.100000	1	1.647750
34.116667	1	1.631250
34.133333	1	1.608375
34.150000	1	1.580250
34.166667	1	1.548000
34.183333	1	1.510625
34.200000	1	1.468875
34.216667	1	1.424500
34.233333	1	1.377500
34.250000	1	1.327125
34.266667	1	1.275000
34.283333	1	1.222625
34.300000	1	1.169125
34.316667	1	1.115250
34.333333	1	1.061625
34.350000	1	1.008125
34.366667	1	0.955750
34.383333	1	0.904500
34.400000	1	0.853875
34.416667	1	0.806125
34.433333	1	0.759875
34.450000	1	0.715875
34.466667	1	0.674125
34.483333	1	0.634375
34.500000	1	0.596875
34.516667	1	0.562500
34.533333	1	0.529625
34.550000	1	0.499000
34.566667	1	0.470500
34.583333	1	0.444375
34.600000	1	0.419375
34.616667	1	0.396625
34.633333	1	0.375875
34.650000	1	0.357750
34.666667	1	0.341125
34.683333	1	0.325750
34.700000	1	0.311875
34.716667	1	0.298500
34.733333	1	0.286000
34.750000	1	0.275250
34.766667	1	0.265750
34.783333	1	0.257125
34.800000	1	0.249125
34.816667	1	0.242000
34.833333	1	0.235125
34.850000	1	0.228250
34.866667	1	0.222250
34.883333	1	0.216500
34.900000	1	0.211750
34.916667	1	0.207500
34.933333	1	0.203125
34.950000	1	0.198875
34.966667	1	0.195000
34.983333	1	0.191125
35.000000	1	0.187250
35.016667	1	0.184750
35.033333	1	0.181875
35.050000	1	0.179500
35.066667	1	0.177250
35.083333	1	0.175250
35.100000	1	0.173125
35.116667	1	0.171250
35.133333	1	0.170250
35.150000	1	0.168625
35.166667	1	0.168250
35.183333	1	0.167875
35.200000	1	0.167125
35.216667	1	0.167125
35.233333	1	0.167000
35.250000	1	0.166875
35.266667	1	0.167500
35.283333	1	0.167875
35.300000	1	0.168875
35.316667	1	0.169000
35.333333	1	0.170250
35.350000	1	0.171375
35.366667	1	0.172750
35.383333	1	0.173375
35.400000	1	0.174125
35.416667	1	0.175500
35.433333	1	0.176375
35.450000	1	0.177125
35.466667	1	0.177250
35.483333	1	0.178000
35.500000	1	0.179000
35.516667	1	0.180250
35.533333	1	0.180250
35.550000	1	0.181000
35.566667	1	0.181250
35.583333	1	0.180375
35.600000	1	0.180625
35.616667	1	0.180375
35.633333	1	0.179750
35.650000	1	0.179125
35.666667	1	0.178750
35.683333	1	0.177250
35.700000	1	0.176625
35.716667	1	0.175500
35.733333	1	0.173750
35.750000	1	0.171875
35.766667	1	0.170250
35.783333	1	0.169250
35.800000	1	0.167375
35.816667	1	0.165000
35.833333	1	0.163375
35.850000	1	0.161875
35.866667	1	0.160125
35.883333	1	0.158125
35.900000	1	0.155750
35.916667	1	0.153375
35.933333	1	0.152250
35.950000	1	0.150250
35.966667	1	0.148250
35.983333	1	0.146375
36.000000	1	0.144750
36.016667	1	0.142625
36.033333	1	0.141375
36.050000	1	0.139875
36.066667	1	0.137875
36.083333	1	0.137000
36.100000	1	0.135750
36.116667	1	0.134250
36.133333	1	0.133125
36.150000	1	0.131875
36.166667	1	0.130375
36.183333	1	0.129500
36.200000	1	0.129000
36.216667	1	0.128750
36.233333	1	0.128500
36.250000	1	0.127500
36.266667	1	0.126875
36.283333	1	0.126250
36.300000	1	0.125500
36.316667	1	0.125000
36.333333	1	0.124750
36.350000	1	0.125000
36.366667	1	0.124500
36.383333	1	0.124375
36.400000	1	0.123500
36.416667	1	0.122750
36.433333	1	0.121750
36.450000	1	0.121375
36.466667	1	0.120000
36.483333	1	0.118750
36.500000	1	0.117500
36.516667	1	0.116500
36.533333	1	0.115250
36.550000	1	0.113875
36.566667	1	0.111500
36.583333	1	0.109500
36.600000	1	0.106875
36.616667	1	0.104750
36.633333	1	0.102000
36.650000	1	0.099625
36.666667	1	0.096750
36.683333	1	0.093625
36.700000	1	0.090875
36.716667	1	0.088750
36.733333	1	0.086000
36.750000	1	0.082625
36.766667	1	0.079500
36.783333	1	0.076500
36.800000	1	0.074000
36.816667	1	0.071375
36.833333	1	0.068750
36.850000	1	0.066375
36.866667	1	0.064000
36.883333	1	0.061875
36.900000	1	0.059625
36.916667	1	0.057500
36.933333	1	0.055625
36.950000	1	0.053500
36.966667	1	0.051625
36.983333	1	0.050125
37.000000	1	0.048625
37.016667	1	0.048000
37.033333	1	0.047250
37.050000	1	0.046750
37.066667	1	0.046875
37.083333	1	0.046125
37.100000	1	0.046000
37.116667	1	0.046375
37.133333	1	0.046625
37.150000	1	0.046875
37.166667	1	0.047250
37.183333	1	0.047125
37.200000	1	0.047750
37.216667	1	0.048375
37.233333	1	0.049000
37.250000	1	0.049625
37.266667	1	0.050625
37.283333	1	0.051000
37.300000	1	0.051875
37.316667	1	0.052125
37.333333	1	0.053000
37.350000	1	0.053500
37.366667	1	0.054000
37.383333	1	0.054625
37.400000	1	0.055125
37.416667	1	0.055625
37.433333	1	0.056125
37.450000	1	0.055375
37.466667	1	0.055500
37.483333	1	0.055250
37.500000	1	0.055125
37.516667	1	0.054375
37.533333	1	0.053625
37.550000	1	0.053000
37.566667	1	0.052500
37.583333	1	0.051750
37.600000	1	0.050625
37.616667	1	0.049000
37.633333	1	0.048125
37.650000	1	0.047125
37.666667	1	0.046000
37.683333	1	0.045375
37.700000	1	0.044375
37.716667	1	0.043375
37.733333	1	0.041875
37.750000	1	0.040000
37.766667	1	0.038875
37.783333	1	0.037625
37.800000	1	0.035625
37.816667	1	0.034500
37.833333	1	0.033000
37.850000	1	0.032125
37.866667	1	0.031125
37.883333	1	0.029625
37.900000	1	0.028875
37.916667	1	0.028125
37.933333	1	0.027000
37.950000	1	0.026375
37.966667	1	0.025250
37.983333	1	0.024500
38.000000	1	0.024125
38.016667	1	0.022875
38.033333	1	0.022750
38.050000	1	0.022250
38.066667	1	0.021125
38.083333	1	0.020875
38.100000	1	0.021000
38.116667	1	0.020500
38.133333	1	0.021125
38.150000	1	0.021375
38.166667	1	0.022000
38.183333	1	0.021500
38.200000	1	0.021625
38.216667	1	0.020625
38.233333	1	0.020750
38.250000	1	0.020875
38.266667	1	0.021750
38.283333	1	0.022125
38.300000	1	0.023375
38.316667	1	0.023500
38.333333	1	0.023875
38.350000	1	0.024750
38.366667	1	0.024625
38.383333	1	0.025000
38.400000	1	0.025375
38.416667	1	0.025375
38.433333	1	0.025500
38.450000	1	0.026000
38.466667	1	0.026375
38.483333	1	0.026125
38.500000	1	0.025625
38.516667	1	0.025250
38.533333	1	0.024875
38.550000	1	0.024625
38.566667	1	0.024625
38.583333	1	0.024750
38.600000	1	0.024875
38.616667	1	0.024250
38.633333	1	0.024375
38.650000	1	0.025000
38.666667	1	0.025250
38.683333	1	0.025625
38.700000	1	0.026000
38.716667	1	0.026875
38.733333	1	0.027500
38.750000	1	0.027375
38.766667	1	0.028125
38.783333	1	0.029000
38.800000	1	0.030125
38.816667	1	0.031625
38.833333	1	0.032750
38.850000	1	0.034250
38.866667	1	0.035875
38.883333	1	0.037375
38.900000	1	0.039375
38.916667	1	0.040750
38.933333	1	0.042375
38.950000	1	0.044000
38.966667	1	0.045375
38.983333	1	0.046875
39.000000	1	0.048500
39.016667	1	0.050250
39.033333	1	0.052125
39.050000	1	0.053500
39.066667	1	0.054875
39.083333	1	0.056375
39.100000	1	0.058000
39.116667	1	0.058750
39.133333	1	0.059625
39.150000	1	0.061000
39.166667	1	0.061625
39.183333	1	0.062500
39.200000	1	0.063000
39.216667	1	0.063250
39.233333	1	0.064000
39.250000	1	0.064250
39.266667	1	0.064125
39.283333	1	0.064500
39.300000	1	0.064375
39.316667	1	0.064000
39.333333	1	0.063750
39.350000	1	0.063750
39.366667	1	0.063000
39.383333	1	0.062125
39.400000	1	0.060750
39.416667	1	0.059875
39.433333	1	0.059000
39.450000	1	0.057375
39.466667	1	0.056375
39.483333	1	0.055500
39.500000	1	0.054375
39.516667	1	0.052750
39.533333	1	0.050875
39.550000	1	0.049125
39.566667	1	0.047125
39.583333	1	0.046125
39.600000	1	0.044250
39.616667	1	0.042500
39.633333	1	0.041000
39.650000	1	0.039250
39.666667	1	0.037750
39.683333	1	0.036250
39.700000	1	0.034875
39.716667	1	0.033250
39.733333	1	0.031625
39.750000	1	0.030625
39.766667	1	0.029000
39.783333	1	0.028000
39.800000	1	0.027500
39.816667	1	0.027250
39.833333	1	0.025500
39.850000	1	0.024375
39.866667	1	0.023125
39.883333	1	0.021750
39.900000	1	0.021250
39.916667	1	0.020000
39.933333	1	0.019500
39.950000	1	0.018500
39.966667	1	0.017625
39.983333	1	0.016625
40.000000	1	0.015625
