URL	chrom://bioreactor/micro_cm7/HPLC_Ultimate_3000/Users/markusar/20240716_MA_pHrange2.seq/873.smp/RI_1.channel/RI_1.chm
Channel	RI_1

Injection Information:
Data Vault	micro_cm7
Sequence	20240716_MA_pHrange2
Name	Fp2_25H_2
Number	36
Position	BC12
Comment	
Processing Method	
Instrument Method	run_25B_method
Type	Unknown
Status	Finished
Inject Time	17.07.2024 18:00:26 +02:00
Volume (µl)	20.0000
Dilution Factor	1.0000
Weight	1.0000

Chromatogram Data Information:
Time Min. (min)	0.000000
Time Max. (min)	40.000000
Data Points	2401
Detector	RI
Generating Data System	Chromeleon 7.3.2.11814
Exporting Data System	Chromeleon 7.3.2.0
Operator	Instrument Controller
Signal Quantity	Refractive 
Signal Unit	µRIU
Signal Min.	-0.054875
Signal Max.	83.801625
Channel	RI_1
Driver Name	RID520Driver.dll
Channel Type	Evaluation
Min. Step (s)	1
Max. Step (s)	1
Average Step (s)	1

Signal Parameter Information:
Signal Info	

Chromatogram Data:
Time (min)	Step (s)	Value (µRIU)
0.000000	n.a.	0.079750
0.016667	1	0.079250
0.033333	1	0.078500
0.050000	1	0.077375
0.066667	1	0.076875
0.083333	1	0.075750
0.100000	1	0.075125
0.116667	1	0.074125
0.133333	1	0.073000
0.150000	1	0.072375
0.166667	1	0.071375
0.183333	1	0.069625
0.200000	1	0.068375
0.216667	1	0.066500
0.233333	1	0.065875
0.250000	1	0.064500
0.266667	1	0.064125
0.283333	1	0.063375
0.300000	1	0.062625
0.316667	1	0.061500
0.333333	1	0.060125
0.350000	1	0.058375
0.366667	1	0.056875
0.383333	1	0.055750
0.400000	1	0.054000
0.416667	1	0.053500
0.433333	1	0.053000
0.450000	1	0.054000
0.466667	1	0.054875
0.483333	1	0.055750
0.500000	1	0.055750
0.516667	1	0.055750
0.533333	1	0.055125
0.550000	1	0.054000
0.566667	1	0.052375
0.583333	1	0.049500
0.600000	1	0.046250
0.616667	1	0.043250
0.633333	1	0.040500
0.650000	1	0.038125
0.666667	1	0.036500
0.683333	1	0.034000
0.700000	1	0.032125
0.716667	1	0.029500
0.733333	1	0.027125
0.750000	1	0.024250
0.766667	1	0.021625
0.783333	1	0.018500
0.800000	1	0.015250
0.816667	1	0.012125
0.833333	1	0.009000
0.850000	1	0.005125
0.866667	1	0.002000
0.883333	1	-0.001625
0.900000	1	-0.005250
0.916667	1	-0.009125
0.933333	1	-0.013125
0.950000	1	-0.017000
0.966667	1	-0.020500
0.983333	1	-0.023875
1.000000	1	-0.027250
1.016667	1	-0.030125
1.033333	1	-0.033125
1.050000	1	-0.035375
1.066667	1	-0.038000
1.083333	1	-0.039750
1.100000	1	-0.041375
1.116667	1	-0.042875
1.133333	1	-0.044250
1.150000	1	-0.044750
1.166667	1	-0.045375
1.183333	1	-0.045500
1.200000	1	-0.044750
1.216667	1	-0.043625
1.233333	1	-0.042375
1.250000	1	-0.039875
1.266667	1	-0.038125
1.283333	1	-0.035625
1.300000	1	-0.033500
1.316667	1	-0.030500
1.333333	1	-0.027000
1.350000	1	-0.023125
1.366667	1	-0.019375
1.383333	1	-0.015500
1.400000	1	-0.011625
1.416667	1	-0.007625
1.433333	1	-0.003500
1.450000	1	0.000625
1.466667	1	0.005125
1.483333	1	0.008750
1.500000	1	0.012875
1.516667	1	0.016625
1.533333	1	0.020875
1.550000	1	0.025125
1.566667	1	0.029000
1.583333	1	0.032375
1.600000	1	0.035250
1.616667	1	0.039000
1.633333	1	0.041875
1.650000	1	0.044500
1.666667	1	0.048000
1.683333	1	0.050750
1.700000	1	0.052500
1.716667	1	0.055000
1.733333	1	0.056875
1.750000	1	0.058875
1.766667	1	0.060500
1.783333	1	0.061875
1.800000	1	0.063250
1.816667	1	0.063875
1.833333	1	0.064500
1.850000	1	0.065500
1.866667	1	0.066250
1.883333	1	0.067125
1.900000	1	0.067000
1.916667	1	0.067250
1.933333	1	0.067750
1.950000	1	0.067875
1.966667	1	0.067375
1.983333	1	0.067375
2.000000	1	0.067500
2.016667	1	0.067500
2.033333	1	0.067375
2.050000	1	0.066750
2.066667	1	0.066625
2.083333	1	0.067000
2.100000	1	0.067125
2.116667	1	0.067125
2.133333	1	0.067625
2.150000	1	0.067375
2.166667	1	0.067375
2.183333	1	0.067750
2.200000	1	0.067750
2.216667	1	0.068250
2.233333	1	0.068250
2.250000	1	0.068250
2.266667	1	0.068625
2.283333	1	0.069125
2.300000	1	0.068875
2.316667	1	0.069125
2.333333	1	0.069625
2.350000	1	0.069375
2.366667	1	0.069625
2.383333	1	0.069750
2.400000	1	0.070000
2.416667	1	0.070125
2.433333	1	0.070875
2.450000	1	0.071125
2.466667	1	0.071250
2.483333	1	0.071125
2.500000	1	0.071500
2.516667	1	0.072000
2.533333	1	0.072000
2.550000	1	0.071875
2.566667	1	0.071250
2.583333	1	0.071250
2.600000	1	0.071125
2.616667	1	0.071250
2.633333	1	0.070750
2.650000	1	0.070000
2.666667	1	0.069750
2.683333	1	0.068500
2.700000	1	0.067875
2.716667	1	0.067125
2.733333	1	0.066875
2.750000	1	0.065625
2.766667	1	0.064375
2.783333	1	0.063125
2.800000	1	0.061625
2.816667	1	0.060250
2.833333	1	0.059000
2.850000	1	0.057375
2.866667	1	0.056250
2.883333	1	0.054875
2.900000	1	0.053500
2.916667	1	0.052125
2.933333	1	0.051000
2.950000	1	0.049500
2.966667	1	0.048625
2.983333	1	0.048000
3.000000	1	0.046875
3.016667	1	0.045500
3.033333	1	0.044750
3.050000	1	0.044250
3.066667	1	0.044000
3.083333	1	0.044250
3.100000	1	0.044500
3.116667	1	0.044750
3.133333	1	0.044875
3.150000	1	0.045250
3.166667	1	0.046000
3.183333	1	0.047125
3.200000	1	0.048625
3.216667	1	0.050500
3.233333	1	0.051875
3.250000	1	0.053625
3.266667	1	0.055625
3.283333	1	0.057625
3.300000	1	0.059375
3.316667	1	0.061250
3.333333	1	0.063125
3.350000	1	0.065250
3.366667	1	0.067250
3.383333	1	0.068625
3.400000	1	0.070875
3.416667	1	0.073750
3.433333	1	0.075875
3.450000	1	0.078500
3.466667	1	0.080750
3.483333	1	0.082625
3.500000	1	0.084625
3.516667	1	0.086500
3.533333	1	0.088000
3.550000	1	0.089750
3.566667	1	0.091125
3.583333	1	0.092875
3.600000	1	0.094125
3.616667	1	0.095375
3.633333	1	0.096500
3.650000	1	0.097125
3.666667	1	0.097750
3.683333	1	0.098625
3.700000	1	0.099000
3.716667	1	0.099500
3.733333	1	0.099875
3.750000	1	0.099375
3.766667	1	0.099000
3.783333	1	0.099125
3.800000	1	0.099125
3.816667	1	0.099250
3.833333	1	0.099250
3.850000	1	0.098375
3.866667	1	0.097500
3.883333	1	0.096875
3.900000	1	0.096000
3.916667	1	0.094750
3.933333	1	0.094000
3.950000	1	0.093250
3.966667	1	0.092625
3.983333	1	0.091250
4.000000	1	0.090625
4.016667	1	0.089125
4.033333	1	0.088375
4.050000	1	0.087875
4.066667	1	0.086750
4.083333	1	0.085750
4.100000	1	0.085000
4.116667	1	0.084000
4.133333	1	0.083625
4.150000	1	0.082625
4.166667	1	0.082000
4.183333	1	0.082250
4.200000	1	0.082000
4.216667	1	0.081500
4.233333	1	0.081875
4.250000	1	0.081750
4.266667	1	0.082625
4.283333	1	0.083000
4.300000	1	0.083250
4.316667	1	0.083875
4.333333	1	0.084875
4.350000	1	0.086750
4.366667	1	0.088625
4.383333	1	0.090250
4.400000	1	0.091750
4.416667	1	0.093250
4.433333	1	0.095625
4.450000	1	0.097875
4.466667	1	0.100500
4.483333	1	0.103250
4.500000	1	0.106500
4.516667	1	0.109875
4.533333	1	0.113875
4.550000	1	0.117000
4.566667	1	0.120000
4.583333	1	0.123875
4.600000	1	0.127625
4.616667	1	0.131875
4.633333	1	0.135875
4.650000	1	0.140625
4.666667	1	0.145125
4.683333	1	0.149500
4.700000	1	0.154250
4.716667	1	0.159250
4.733333	1	0.164125
4.750000	1	0.168875
4.766667	1	0.174125
4.783333	1	0.179250
4.800000	1	0.184250
4.816667	1	0.189500
4.833333	1	0.193750
4.850000	1	0.198750
4.866667	1	0.203625
4.883333	1	0.208750
4.900000	1	0.213375
4.916667	1	0.218250
4.933333	1	0.222625
4.950000	1	0.227375
4.966667	1	0.231875
4.983333	1	0.236000
5.000000	1	0.240250
5.016667	1	0.244750
5.033333	1	0.248875
5.050000	1	0.253375
5.066667	1	0.256750
5.083333	1	0.260250
5.100000	1	0.264125
5.116667	1	0.267375
5.133333	1	0.270625
5.150000	1	0.273500
5.166667	1	0.275625
5.183333	1	0.277625
5.200000	1	0.279625
5.216667	1	0.281250
5.233333	1	0.282875
5.250000	1	0.283875
5.266667	1	0.284625
5.283333	1	0.284750
5.300000	1	0.285125
5.316667	1	0.285750
5.333333	1	0.284750
5.350000	1	0.283625
5.366667	1	0.283250
5.383333	1	0.281875
5.400000	1	0.280750
5.416667	1	0.279000
5.433333	1	0.276500
5.450000	1	0.274125
5.466667	1	0.272000
5.483333	1	0.269375
5.500000	1	0.266125
5.516667	1	0.263000
5.533333	1	0.259125
5.550000	1	0.255750
5.566667	1	0.251875
5.583333	1	0.248750
5.600000	1	0.244875
5.616667	1	0.240500
5.633333	1	0.236250
5.650000	1	0.231625
5.666667	1	0.227500
5.683333	1	0.223375
5.700000	1	0.218750
5.716667	1	0.214125
5.733333	1	0.209750
5.750000	1	0.205000
5.766667	1	0.200750
5.783333	1	0.196875
5.800000	1	0.192000
5.816667	1	0.187500
5.833333	1	0.183125
5.850000	1	0.178750
5.866667	1	0.174875
5.883333	1	0.170750
5.900000	1	0.167125
5.916667	1	0.163000
5.933333	1	0.158625
5.950000	1	0.154000
5.966667	1	0.150250
5.983333	1	0.146375
6.000000	1	0.141875
6.016667	1	0.137750
6.033333	1	0.134375
6.050000	1	0.129625
6.066667	1	0.125750
6.083333	1	0.122125
6.100000	1	0.117500
6.116667	1	0.113625
6.133333	1	0.110000
6.150000	1	0.105625
6.166667	1	0.100500
6.183333	1	0.096000
6.200000	1	0.091500
6.216667	1	0.087125
6.233333	1	0.082125
6.250000	1	0.077750
6.266667	1	0.073125
6.283333	1	0.068750
6.300000	1	0.064375
6.316667	1	0.060125
6.333333	1	0.055875
6.350000	1	0.052250
6.366667	1	0.048250
6.383333	1	0.045000
6.400000	1	0.042000
6.416667	1	0.039375
6.433333	1	0.037125
6.450000	1	0.035000
6.466667	1	0.032500
6.483333	1	0.030500
6.500000	1	0.030500
6.516667	1	0.030250
6.533333	1	0.030500
6.550000	1	0.031250
6.566667	1	0.032375
6.583333	1	0.033250
6.600000	1	0.036250
6.616667	1	0.039125
6.633333	1	0.041750
6.650000	1	0.044750
6.666667	1	0.048625
6.683333	1	0.053000
6.700000	1	0.058250
6.716667	1	0.063500
6.733333	1	0.068250
6.750000	1	0.074250
6.766667	1	0.080500
6.783333	1	0.086750
6.800000	1	0.093000
6.816667	1	0.099250
6.833333	1	0.105375
6.850000	1	0.111500
6.866667	1	0.118375
6.883333	1	0.124750
6.900000	1	0.130375
6.916667	1	0.136125
6.933333	1	0.141875
6.950000	1	0.147875
6.966667	1	0.152875
6.983333	1	0.158125
7.000000	1	0.162375
7.016667	1	0.166500
7.033333	1	0.170625
7.050000	1	0.174000
7.066667	1	0.177750
7.083333	1	0.180000
7.100000	1	0.182625
7.116667	1	0.184625
7.133333	1	0.187125
7.150000	1	0.188875
7.166667	1	0.190000
7.183333	1	0.190625
7.200000	1	0.190000
7.216667	1	0.189750
7.233333	1	0.189625
7.250000	1	0.188500
7.266667	1	0.187250
7.283333	1	0.186875
7.300000	1	0.185625
7.316667	1	0.183625
7.333333	1	0.180875
7.350000	1	0.178750
7.366667	1	0.176625
7.383333	1	0.173875
7.400000	1	0.171125
7.416667	1	0.168750
7.433333	1	0.165875
7.450000	1	0.162500
7.466667	1	0.158875
7.483333	1	0.155750
7.500000	1	0.152500
7.516667	1	0.148875
7.533333	1	0.145625
7.550000	1	0.142500
7.566667	1	0.139125
7.583333	1	0.136500
7.600000	1	0.133250
7.616667	1	0.130125
7.633333	1	0.127750
7.650000	1	0.124875
7.666667	1	0.122250
7.683333	1	0.119375
7.700000	1	0.117750
7.716667	1	0.116375
7.733333	1	0.114250
7.750000	1	0.112500
7.766667	1	0.111125
7.783333	1	0.108750
7.800000	1	0.106875
7.816667	1	0.105000
7.833333	1	0.103500
7.850000	1	0.102125
7.866667	1	0.100625
7.883333	1	0.098875
7.900000	1	0.097375
7.916667	1	0.096000
7.933333	1	0.094500
7.950000	1	0.093375
7.966667	1	0.092125
7.983333	1	0.091125
8.000000	1	0.089875
8.016667	1	0.088875
8.033333	1	0.087625
8.050000	1	0.087000
8.066667	1	0.085625
8.083333	1	0.084250
8.100000	1	0.083250
8.116667	1	0.082500
8.133333	1	0.081625
8.150000	1	0.080875
8.166667	1	0.080000
8.183333	1	0.079250
8.200000	1	0.078750
8.216667	1	0.078250
8.233333	1	0.077750
8.250000	1	0.077625
8.266667	1	0.077375
8.283333	1	0.077375
8.300000	1	0.077750
8.316667	1	0.077375
8.333333	1	0.077875
8.350000	1	0.077375
8.366667	1	0.077875
8.383333	1	0.078125
8.400000	1	0.078750
8.416667	1	0.078625
8.433333	1	0.078625
8.450000	1	0.078500
8.466667	1	0.078875
8.483333	1	0.078750
8.500000	1	0.079125
8.516667	1	0.079500
8.533333	1	0.079500
8.550000	1	0.080000
8.566667	1	0.079625
8.583333	1	0.079500
8.600000	1	0.079375
8.616667	1	0.079250
8.633333	1	0.078875
8.650000	1	0.078500
8.666667	1	0.078000
8.683333	1	0.077000
8.700000	1	0.076625
8.716667	1	0.076750
8.733333	1	0.076375
8.750000	1	0.075750
8.766667	1	0.074625
8.783333	1	0.073625
8.800000	1	0.073375
8.816667	1	0.072125
8.833333	1	0.070625
8.850000	1	0.069375
8.866667	1	0.068500
8.883333	1	0.067000
8.900000	1	0.065875
8.916667	1	0.064625
8.933333	1	0.063500
8.950000	1	0.061625
8.966667	1	0.060375
8.983333	1	0.059125
9.000000	1	0.057500
9.016667	1	0.055625
9.033333	1	0.054375
9.050000	1	0.052500
9.066667	1	0.051250
9.083333	1	0.049625
9.100000	1	0.048375
9.116667	1	0.047375
9.133333	1	0.046125
9.150000	1	0.045375
9.166667	1	0.043750
9.183333	1	0.042875
9.200000	1	0.041500
9.216667	1	0.040250
9.233333	1	0.038875
9.250000	1	0.037625
9.266667	1	0.036500
9.283333	1	0.035500
9.300000	1	0.034750
9.316667	1	0.033875
9.333333	1	0.033125
9.350000	1	0.032750
9.366667	1	0.031500
9.383333	1	0.030875
9.400000	1	0.031000
9.416667	1	0.031125
9.433333	1	0.030375
9.450000	1	0.029750
9.466667	1	0.029875
9.483333	1	0.029375
9.500000	1	0.029250
9.516667	1	0.029750
9.533333	1	0.029625
9.550000	1	0.029500
9.566667	1	0.029125
9.583333	1	0.029125
9.600000	1	0.028750
9.616667	1	0.029000
9.633333	1	0.028875
9.650000	1	0.029000
9.666667	1	0.029000
9.683333	1	0.029250
9.700000	1	0.029250
9.716667	1	0.029375
9.733333	1	0.029375
9.750000	1	0.029250
9.766667	1	0.029375
9.783333	1	0.029875
9.800000	1	0.029750
9.816667	1	0.029625
9.833333	1	0.029625
9.850000	1	0.029375
9.866667	1	0.029875
9.883333	1	0.029500
9.900000	1	0.030375
9.916667	1	0.030750
9.933333	1	0.030500
9.950000	1	0.031000
9.966667	1	0.031250
9.983333	1	0.031125
10.000000	1	0.031625
10.016667	1	0.030375
10.033333	1	0.029375
10.050000	1	0.029000
10.066667	1	0.028125
10.083333	1	0.026875
10.100000	1	0.027000
10.116667	1	0.026625
10.133333	1	0.026625
10.150000	1	0.027250
10.166667	1	0.028875
10.183333	1	0.030625
10.200000	1	0.032625
10.216667	1	0.036750
10.233333	1	0.042500
10.250000	1	0.050000
10.266667	1	0.059250
10.283333	1	0.070125
10.300000	1	0.083750
10.316667	1	0.099750
10.333333	1	0.116375
10.350000	1	0.133875
10.366667	1	0.150625
10.383333	1	0.162875
10.400000	1	0.166875
10.416667	1	0.157625
10.433333	1	0.132750
10.450000	1	0.090750
10.466667	1	0.036375
10.483333	1	-0.018875
10.500000	1	-0.054875
10.516667	1	-0.038750
10.533333	1	0.070750
10.550000	1	0.327250
10.566667	1	0.789500
10.583333	1	1.517000
10.600000	1	2.569125
10.616667	1	4.000125
10.633333	1	5.853125
10.650000	1	8.156375
10.666667	1	10.935500
10.683333	1	14.199125
10.700000	1	17.950000
10.716667	1	22.174375
10.733333	1	26.851875
10.750000	1	31.950375
10.766667	1	37.426625
10.783333	1	43.223250
10.800000	1	49.270875
10.816667	1	55.475750
10.833333	1	61.702125
10.850000	1	67.748125
10.866667	1	73.335375
10.883333	1	78.059000
10.900000	1	81.390250
10.916667	1	82.737000
10.933333	1	81.591000
10.950000	1	77.729250
10.966667	1	71.379125
10.983333	1	63.196750
11.000000	1	54.088875
11.016667	1	44.962250
11.033333	1	36.518625
11.050000	1	29.157250
11.066667	1	23.008375
11.083333	1	18.039375
11.100000	1	14.119750
11.116667	1	11.084250
11.133333	1	8.767625
11.150000	1	7.016875
11.166667	1	5.701750
11.183333	1	4.716875
11.200000	1	3.976625
11.216667	1	3.417375
11.233333	1	2.993125
11.250000	1	2.667250
11.266667	1	2.413875
11.283333	1	2.213125
11.300000	1	2.052375
11.316667	1	1.920125
11.333333	1	1.809125
11.350000	1	1.714125
11.366667	1	1.631250
11.383333	1	1.557375
11.400000	1	1.492125
11.416667	1	1.433500
11.433333	1	1.381000
11.450000	1	1.334250
11.466667	1	1.292625
11.483333	1	1.256000
11.500000	1	1.224250
11.516667	1	1.198625
11.533333	1	1.176875
11.550000	1	1.159375
11.566667	1	1.147000
11.583333	1	1.139125
11.600000	1	1.136500
11.616667	1	1.138250
11.633333	1	1.144750
11.650000	1	1.156625
11.666667	1	1.173375
11.683333	1	1.194625
11.700000	1	1.219625
11.716667	1	1.247125
11.733333	1	1.276750
11.750000	1	1.306250
11.766667	1	1.334125
11.783333	1	1.359625
11.800000	1	1.381375
11.816667	1	1.397625
11.833333	1	1.408375
11.850000	1	1.412750
11.866667	1	1.411250
11.883333	1	1.404000
11.900000	1	1.392125
11.916667	1	1.376125
11.933333	1	1.357250
11.950000	1	1.337125
11.966667	1	1.315375
11.983333	1	1.294500
12.000000	1	1.274000
12.016667	1	1.255000
12.033333	1	1.237875
12.050000	1	1.223375
12.066667	1	1.209750
12.083333	1	1.198500
12.100000	1	1.189000
12.116667	1	1.181000
12.133333	1	1.175000
12.150000	1	1.170125
12.166667	1	1.166875
12.183333	1	1.164875
12.200000	1	1.164375
12.216667	1	1.164250
12.233333	1	1.166750
12.250000	1	1.171625
12.266667	1	1.178625
12.283333	1	1.190375
12.300000	1	1.207875
12.316667	1	1.234625
12.333333	1	1.272625
12.350000	1	1.328500
12.366667	1	1.408250
12.383333	1	1.523500
12.400000	1	1.687000
12.416667	1	1.914875
12.433333	1	2.230250
12.450000	1	2.662875
12.466667	1	3.250125
12.483333	1	4.037750
12.500000	1	5.081625
12.516667	1	6.445750
12.533333	1	8.200875
12.550000	1	10.420125
12.566667	1	13.179750
12.583333	1	16.548250
12.600000	1	20.575500
12.616667	1	25.274750
12.633333	1	30.629500
12.650000	1	36.580250
12.666667	1	43.013875
12.683333	1	49.754375
12.700000	1	56.571750
12.716667	1	63.193000
12.733333	1	69.323000
12.750000	1	74.665125
12.766667	1	78.955750
12.783333	1	81.981250
12.800000	1	83.610125
12.816667	1	83.801625
12.833333	1	82.605750
12.850000	1	80.156250
12.866667	1	76.654125
12.883333	1	72.354250
12.900000	1	67.537250
12.916667	1	62.479750
12.933333	1	57.436125
12.950000	1	52.618250
12.966667	1	48.181875
12.983333	1	44.231875
13.000000	1	40.827375
13.016667	1	37.988500
13.033333	1	35.696000
13.050000	1	33.914875
13.066667	1	32.594250
13.083333	1	31.681000
13.100000	1	31.117625
13.116667	1	30.853750
13.133333	1	30.838500
13.150000	1	31.030625
13.166667	1	31.393375
13.183333	1	31.896500
13.200000	1	32.514500
13.216667	1	33.227375
13.233333	1	34.018875
13.250000	1	34.877375
13.266667	1	35.792500
13.283333	1	36.757750
13.300000	1	37.768250
13.316667	1	38.817750
13.333333	1	39.902000
13.350000	1	41.019375
13.366667	1	42.169125
13.383333	1	43.349875
13.400000	1	44.559625
13.416667	1	45.797500
13.433333	1	47.064875
13.450000	1	48.362875
13.466667	1	49.691625
13.483333	1	51.051500
13.500000	1	52.442875
13.516667	1	53.864750
13.533333	1	55.317375
13.550000	1	56.801125
13.566667	1	58.314875
13.583333	1	59.860375
13.600000	1	61.436500
13.616667	1	63.044750
13.633333	1	64.685625
13.650000	1	66.362375
13.666667	1	68.074125
13.683333	1	69.823125
13.700000	1	71.608875
13.716667	1	73.431750
13.733333	1	75.289625
13.750000	1	77.176000
13.766667	1	79.062125
13.783333	1	80.858000
13.800000	1	82.392125
13.816667	1	83.436000
13.833333	1	83.768500
13.850000	1	83.222500
13.866667	1	81.676750
13.883333	1	78.989750
13.900000	1	74.957750
13.916667	1	69.376500
13.933333	1	62.228500
13.950000	1	53.862250
13.966667	1	45.001500
13.983333	1	36.502750
14.000000	1	29.037000
14.016667	1	22.894875
14.033333	1	18.059625
14.050000	1	14.347250
14.066667	1	11.536875
14.083333	1	9.429250
14.100000	1	7.863000
14.116667	1	6.706375
14.133333	1	5.855375
14.150000	1	5.228125
14.166667	1	4.761000
14.183333	1	4.408375
14.200000	1	4.137750
14.216667	1	3.924125
14.233333	1	3.752125
14.250000	1	3.610125
14.266667	1	3.490000
14.283333	1	3.386500
14.300000	1	3.294875
14.316667	1	3.212875
14.333333	1	3.139000
14.350000	1	3.072250
14.366667	1	3.010750
14.383333	1	2.954375
14.400000	1	2.901750
14.416667	1	2.852750
14.433333	1	2.807375
14.450000	1	2.765750
14.466667	1	2.727000
14.483333	1	2.691375
14.500000	1	2.658500
14.516667	1	2.627500
14.533333	1	2.598875
14.550000	1	2.571125
14.566667	1	2.545125
14.583333	1	2.520000
14.600000	1	2.495000
14.616667	1	2.470500
14.633333	1	2.446250
14.650000	1	2.421750
14.666667	1	2.396875
14.683333	1	2.371375
14.700000	1	2.345375
14.716667	1	2.318250
14.733333	1	2.291250
14.750000	1	2.263625
14.766667	1	2.236250
14.783333	1	2.209000
14.800000	1	2.181250
14.816667	1	2.154375
14.833333	1	2.127250
14.850000	1	2.100375
14.866667	1	2.074250
14.883333	1	2.048125
14.900000	1	2.022500
14.916667	1	1.997250
14.933333	1	1.972500
14.950000	1	1.948125
14.966667	1	1.924250
14.983333	1	1.900750
15.000000	1	1.878125
15.016667	1	1.855875
15.033333	1	1.833375
15.050000	1	1.812000
15.066667	1	1.790875
15.083333	1	1.770250
15.100000	1	1.750750
15.116667	1	1.731375
15.133333	1	1.712875
15.150000	1	1.695750
15.166667	1	1.678875
15.183333	1	1.663000
15.200000	1	1.648375
15.216667	1	1.634750
15.233333	1	1.622750
15.250000	1	1.611750
15.266667	1	1.602625
15.283333	1	1.594750
15.300000	1	1.589250
15.316667	1	1.586500
15.333333	1	1.586125
15.350000	1	1.589125
15.366667	1	1.596125
15.383333	1	1.606500
15.400000	1	1.621000
15.416667	1	1.640500
15.433333	1	1.663000
15.450000	1	1.690250
15.466667	1	1.720125
15.483333	1	1.751750
15.500000	1	1.784125
15.516667	1	1.816125
15.533333	1	1.844750
15.550000	1	1.869750
15.566667	1	1.889125
15.583333	1	1.901750
15.600000	1	1.907000
15.616667	1	1.903625
15.633333	1	1.891125
15.650000	1	1.872000
15.666667	1	1.845000
15.683333	1	1.813625
15.700000	1	1.777625
15.716667	1	1.739250
15.733333	1	1.700250
15.750000	1	1.660250
15.766667	1	1.620625
15.783333	1	1.582750
15.800000	1	1.546125
15.816667	1	1.510500
15.833333	1	1.477500
15.850000	1	1.444625
15.866667	1	1.413875
15.883333	1	1.384000
15.900000	1	1.354875
15.916667	1	1.326750
15.933333	1	1.300000
15.950000	1	1.275250
15.966667	1	1.251375
15.983333	1	1.229500
16.000000	1	1.209375
16.016667	1	1.191500
16.033333	1	1.176375
16.050000	1	1.163125
16.066667	1	1.152125
16.083333	1	1.143375
16.100000	1	1.136625
16.116667	1	1.131750
16.133333	1	1.127750
16.150000	1	1.125000
16.166667	1	1.123875
16.183333	1	1.124000
16.200000	1	1.124000
16.216667	1	1.124000
16.233333	1	1.124375
16.250000	1	1.124750
16.266667	1	1.124500
16.283333	1	1.124125
16.300000	1	1.122250
16.316667	1	1.119750
16.333333	1	1.117125
16.350000	1	1.113875
16.366667	1	1.109875
16.383333	1	1.105625
16.400000	1	1.100625
16.416667	1	1.096125
16.433333	1	1.090625
16.450000	1	1.085750
16.466667	1	1.081000
16.483333	1	1.078125
16.500000	1	1.076250
16.516667	1	1.075625
16.533333	1	1.076000
16.550000	1	1.077625
16.566667	1	1.081625
16.583333	1	1.086375
16.600000	1	1.092125
16.616667	1	1.098875
16.633333	1	1.106375
16.650000	1	1.113750
16.666667	1	1.120750
16.683333	1	1.127375
16.700000	1	1.132875
16.716667	1	1.136875
16.733333	1	1.139750
16.750000	1	1.142250
16.766667	1	1.143625
16.783333	1	1.144250
16.800000	1	1.144250
16.816667	1	1.144125
16.833333	1	1.144375
16.850000	1	1.144625
16.866667	1	1.145000
16.883333	1	1.145250
16.900000	1	1.146250
16.916667	1	1.146875
16.933333	1	1.147500
16.950000	1	1.148000
16.966667	1	1.147625
16.983333	1	1.146875
17.000000	1	1.145500
17.016667	1	1.143875
17.033333	1	1.140875
17.050000	1	1.137875
17.066667	1	1.134375
17.083333	1	1.130750
17.100000	1	1.126500
17.116667	1	1.122500
17.133333	1	1.119125
17.150000	1	1.116625
17.166667	1	1.115375
17.183333	1	1.114750
17.200000	1	1.114750
17.216667	1	1.116125
17.233333	1	1.119000
17.250000	1	1.123250
17.266667	1	1.128125
17.283333	1	1.133125
17.300000	1	1.139375
17.316667	1	1.146750
17.333333	1	1.153875
17.350000	1	1.162125
17.366667	1	1.170875
17.383333	1	1.178750
17.400000	1	1.186250
17.416667	1	1.193625
17.433333	1	1.199750
17.450000	1	1.205500
17.466667	1	1.210000
17.483333	1	1.212500
17.500000	1	1.214000
17.516667	1	1.213125
17.533333	1	1.210625
17.550000	1	1.205750
17.566667	1	1.199625
17.583333	1	1.191500
17.600000	1	1.181250
17.616667	1	1.168875
17.633333	1	1.154875
17.650000	1	1.139500
17.666667	1	1.123500
17.683333	1	1.107250
17.700000	1	1.089625
17.716667	1	1.071000
17.733333	1	1.053125
17.750000	1	1.035375
17.766667	1	1.017750
17.783333	1	1.001375
17.800000	1	0.985250
17.816667	1	0.969375
17.833333	1	0.954000
17.850000	1	0.940000
17.866667	1	0.926500
17.883333	1	0.913500
17.900000	1	0.901875
17.916667	1	0.891125
17.933333	1	0.881500
17.950000	1	0.872875
17.966667	1	0.864750
17.983333	1	0.857125
18.000000	1	0.850250
18.016667	1	0.844125
18.033333	1	0.838500
18.050000	1	0.832625
18.066667	1	0.828625
18.083333	1	0.824500
18.100000	1	0.820375
18.116667	1	0.816750
18.133333	1	0.812750
18.150000	1	0.809500
18.166667	1	0.806500
18.183333	1	0.804250
18.200000	1	0.802500
18.216667	1	0.800500
18.233333	1	0.799625
18.250000	1	0.799125
18.266667	1	0.798500
18.283333	1	0.798875
18.300000	1	0.799875
18.316667	1	0.801000
18.333333	1	0.802625
18.350000	1	0.805250
18.366667	1	0.807625
18.383333	1	0.810625
18.400000	1	0.813875
18.416667	1	0.817375
18.433333	1	0.821625
18.450000	1	0.826500
18.466667	1	0.831750
18.483333	1	0.837375
18.500000	1	0.844500
18.516667	1	0.852000
18.533333	1	0.861875
18.550000	1	0.872500
18.566667	1	0.884875
18.583333	1	0.899250
18.600000	1	0.915375
18.616667	1	0.932750
18.633333	1	0.952875
18.650000	1	0.975125
18.666667	1	1.000000
18.683333	1	1.026375
18.700000	1	1.053875
18.716667	1	1.082625
18.733333	1	1.113500
18.750000	1	1.145875
18.766667	1	1.179750
18.783333	1	1.214625
18.800000	1	1.249625
18.816667	1	1.283875
18.833333	1	1.316875
18.850000	1	1.349000
18.866667	1	1.379750
18.883333	1	1.406500
18.900000	1	1.431000
18.916667	1	1.450625
18.933333	1	1.465750
18.950000	1	1.475500
18.966667	1	1.479875
18.983333	1	1.477500
19.000000	1	1.468750
19.016667	1	1.453125
19.033333	1	1.430875
19.050000	1	1.403125
19.066667	1	1.369500
19.083333	1	1.331000
19.100000	1	1.288000
19.116667	1	1.242000
19.133333	1	1.193875
19.150000	1	1.144625
19.166667	1	1.094125
19.183333	1	1.044875
19.200000	1	0.997875
19.216667	1	0.952875
19.233333	1	0.911250
19.250000	1	0.872625
19.266667	1	0.838125
19.283333	1	0.809250
19.300000	1	0.784750
19.316667	1	0.765375
19.333333	1	0.751375
19.350000	1	0.742500
19.366667	1	0.739125
19.383333	1	0.739875
19.400000	1	0.746375
19.416667	1	0.757125
19.433333	1	0.772875
19.450000	1	0.792250
19.466667	1	0.816250
19.483333	1	0.844125
19.500000	1	0.874750
19.516667	1	0.907375
19.533333	1	0.941750
19.550000	1	0.976875
19.566667	1	1.011750
19.583333	1	1.046000
19.600000	1	1.078375
19.616667	1	1.108750
19.633333	1	1.134000
19.650000	1	1.156375
19.666667	1	1.173125
19.683333	1	1.185000
19.700000	1	1.191250
19.716667	1	1.191125
19.733333	1	1.185875
19.750000	1	1.175750
19.766667	1	1.160625
19.783333	1	1.141125
19.800000	1	1.116625
19.816667	1	1.090250
19.833333	1	1.061250
19.850000	1	1.029875
19.866667	1	0.997625
19.883333	1	0.965500
19.900000	1	0.933125
19.916667	1	0.901750
19.933333	1	0.871375
19.950000	1	0.843000
19.966667	1	0.815000
19.983333	1	0.789250
20.000000	1	0.765500
20.016667	1	0.744125
20.033333	1	0.726125
20.050000	1	0.710375
20.066667	1	0.696375
20.083333	1	0.685875
20.100000	1	0.677750
20.116667	1	0.673000
20.133333	1	0.670625
20.150000	1	0.670375
20.166667	1	0.673250
20.183333	1	0.678000
20.200000	1	0.685125
20.216667	1	0.694250
20.233333	1	0.705750
20.250000	1	0.717500
20.266667	1	0.731500
20.283333	1	0.744750
20.300000	1	0.758500
20.316667	1	0.771750
20.333333	1	0.784375
20.350000	1	0.795875
20.366667	1	0.805500
20.383333	1	0.812500
20.400000	1	0.817500
20.416667	1	0.819125
20.433333	1	0.819375
20.450000	1	0.817750
20.466667	1	0.814125
20.483333	1	0.809000
20.500000	1	0.802875
20.516667	1	0.798625
20.533333	1	0.795125
20.550000	1	0.793875
20.566667	1	0.795375
20.583333	1	0.801250
20.600000	1	0.811625
20.616667	1	0.828125
20.633333	1	0.850750
20.650000	1	0.880500
20.666667	1	0.917625
20.683333	1	0.961875
20.700000	1	1.013000
20.716667	1	1.070625
20.733333	1	1.134000
20.750000	1	1.202250
20.766667	1	1.274000
20.783333	1	1.347000
20.800000	1	1.420000
20.816667	1	1.491000
20.833333	1	1.556875
20.850000	1	1.616625
20.866667	1	1.666875
20.883333	1	1.706125
20.900000	1	1.733625
20.916667	1	1.747750
20.933333	1	1.747625
20.950000	1	1.734750
20.966667	1	1.708000
20.983333	1	1.668500
21.000000	1	1.617500
21.016667	1	1.557250
21.033333	1	1.489875
21.050000	1	1.417125
21.066667	1	1.340500
21.083333	1	1.262500
21.100000	1	1.186125
21.116667	1	1.111375
21.133333	1	1.039625
21.150000	1	0.971750
21.166667	1	0.909250
21.183333	1	0.851250
21.200000	1	0.799125
21.216667	1	0.752125
21.233333	1	0.710500
21.250000	1	0.674375
21.266667	1	0.642750
21.283333	1	0.615125
21.300000	1	0.592125
21.316667	1	0.572000
21.333333	1	0.555125
21.350000	1	0.540625
21.366667	1	0.528500
21.383333	1	0.518250
21.400000	1	0.509500
21.416667	1	0.502125
21.433333	1	0.496000
21.450000	1	0.490750
21.466667	1	0.486125
21.483333	1	0.482375
21.500000	1	0.479500
21.516667	1	0.477375
21.533333	1	0.476000
21.550000	1	0.475250
21.566667	1	0.475000
21.583333	1	0.476000
21.600000	1	0.477250
21.616667	1	0.480000
21.633333	1	0.483250
21.650000	1	0.487500
21.666667	1	0.492875
21.683333	1	0.499125
21.700000	1	0.507500
21.716667	1	0.516250
21.733333	1	0.526750
21.750000	1	0.538250
21.766667	1	0.551875
21.783333	1	0.566875
21.800000	1	0.582625
21.816667	1	0.600125
21.833333	1	0.618500
21.850000	1	0.637875
21.866667	1	0.657375
21.883333	1	0.678375
21.900000	1	0.699000
21.916667	1	0.720125
21.933333	1	0.741625
21.950000	1	0.763125
21.966667	1	0.783625
21.983333	1	0.802750
22.000000	1	0.820500
22.016667	1	0.836375
22.033333	1	0.849625
22.050000	1	0.861000
22.066667	1	0.869625
22.083333	1	0.875500
22.100000	1	0.879125
22.116667	1	0.879375
22.133333	1	0.875875
22.150000	1	0.870875
22.166667	1	0.863000
22.183333	1	0.852500
22.200000	1	0.839375
22.216667	1	0.824375
22.233333	1	0.807375
22.250000	1	0.789000
22.266667	1	0.769250
22.283333	1	0.749500
22.300000	1	0.727625
22.316667	1	0.706000
22.333333	1	0.683875
22.350000	1	0.661625
22.366667	1	0.639500
22.383333	1	0.617500
22.400000	1	0.596250
22.416667	1	0.575500
22.433333	1	0.555000
22.450000	1	0.535750
22.466667	1	0.517000
22.483333	1	0.499625
22.500000	1	0.483250
22.516667	1	0.467625
22.533333	1	0.453375
22.550000	1	0.439500
22.566667	1	0.427375
22.583333	1	0.416000
22.600000	1	0.405250
22.616667	1	0.395375
22.633333	1	0.386000
22.650000	1	0.378000
22.666667	1	0.370125
22.683333	1	0.363375
22.700000	1	0.356750
22.716667	1	0.350500
22.733333	1	0.345375
22.750000	1	0.340625
22.766667	1	0.335500
22.783333	1	0.331125
22.800000	1	0.326750
22.816667	1	0.323000
22.833333	1	0.318750
22.850000	1	0.315750
22.866667	1	0.312250
22.883333	1	0.309500
22.900000	1	0.307375
22.916667	1	0.305500
22.933333	1	0.303750
22.950000	1	0.302625
22.966667	1	0.301250
22.983333	1	0.300625
23.000000	1	0.299750
23.016667	1	0.300000
23.033333	1	0.300750
23.050000	1	0.300875
23.066667	1	0.301375
23.083333	1	0.303250
23.100000	1	0.304375
23.116667	1	0.306000
23.133333	1	0.308125
23.150000	1	0.310500
23.166667	1	0.313000
23.183333	1	0.314875
23.200000	1	0.317500
23.216667	1	0.320875
23.233333	1	0.323875
23.250000	1	0.328375
23.266667	1	0.332250
23.283333	1	0.338000
23.300000	1	0.344875
23.316667	1	0.352875
23.333333	1	0.363875
23.350000	1	0.376875
23.366667	1	0.393125
23.383333	1	0.411875
23.400000	1	0.435000
23.416667	1	0.462625
23.433333	1	0.496375
23.450000	1	0.535625
23.466667	1	0.582375
23.483333	1	0.637500
23.500000	1	0.701750
23.516667	1	0.777000
23.533333	1	0.863000
23.550000	1	0.960375
23.566667	1	1.070375
23.583333	1	1.193000
23.600000	1	1.329875
23.616667	1	1.480625
23.633333	1	1.645375
23.650000	1	1.823500
23.666667	1	2.015000
23.683333	1	2.218500
23.700000	1	2.432375
23.716667	1	2.655625
23.733333	1	2.884500
23.750000	1	3.116000
23.766667	1	3.346625
23.783333	1	3.573375
23.800000	1	3.791000
23.816667	1	3.994750
23.833333	1	4.180625
23.850000	1	4.344250
23.866667	1	4.482375
23.883333	1	4.592250
23.900000	1	4.670250
23.916667	1	4.714500
23.933333	1	4.724125
23.950000	1	4.698875
23.966667	1	4.640000
23.983333	1	4.548875
24.000000	1	4.427250
24.016667	1	4.280375
24.033333	1	4.110625
24.050000	1	3.922125
24.066667	1	3.719125
24.083333	1	3.505750
24.100000	1	3.286500
24.116667	1	3.065000
24.133333	1	2.844875
24.150000	1	2.628625
24.166667	1	2.419375
24.183333	1	2.220375
24.200000	1	2.032125
24.216667	1	1.855625
24.233333	1	1.692625
24.250000	1	1.544000
24.266667	1	1.408000
24.283333	1	1.284875
24.300000	1	1.174375
24.316667	1	1.076000
24.333333	1	0.989125
24.350000	1	0.912250
24.366667	1	0.845125
24.383333	1	0.786500
24.400000	1	0.736625
24.416667	1	0.693875
24.433333	1	0.657625
24.450000	1	0.626625
24.466667	1	0.601000
24.483333	1	0.579250
24.500000	1	0.561625
24.516667	1	0.546875
24.533333	1	0.534750
24.550000	1	0.524750
24.566667	1	0.515750
24.583333	1	0.508000
24.600000	1	0.500500
24.616667	1	0.494625
24.633333	1	0.489125
24.650000	1	0.484125
24.666667	1	0.478250
24.683333	1	0.472625
24.700000	1	0.466625
24.716667	1	0.460375
24.733333	1	0.453875
24.750000	1	0.447375
24.766667	1	0.440875
24.783333	1	0.433500
24.800000	1	0.425625
24.816667	1	0.417625
24.833333	1	0.408875
24.850000	1	0.400875
24.866667	1	0.392875
24.883333	1	0.385000
24.900000	1	0.377750
24.916667	1	0.369250
24.933333	1	0.361625
24.950000	1	0.353875
24.966667	1	0.345875
24.983333	1	0.338250
25.000000	1	0.331125
25.016667	1	0.324000
25.033333	1	0.317000
25.050000	1	0.309750
25.066667	1	0.302375
25.083333	1	0.296375
25.100000	1	0.290250
25.116667	1	0.284750
25.133333	1	0.278250
25.150000	1	0.272625
25.166667	1	0.267000
25.183333	1	0.262125
25.200000	1	0.256625
25.216667	1	0.252625
25.233333	1	0.248750
25.250000	1	0.244750
25.266667	1	0.241250
25.283333	1	0.238250
25.300000	1	0.235375
25.316667	1	0.232750
25.333333	1	0.230750
25.350000	1	0.229500
25.366667	1	0.228125
25.383333	1	0.227625
25.400000	1	0.227625
25.416667	1	0.228250
25.433333	1	0.228750
25.450000	1	0.230125
25.466667	1	0.231125
25.483333	1	0.233000
25.500000	1	0.235500
25.516667	1	0.238375
25.533333	1	0.241250
25.550000	1	0.244125
25.566667	1	0.247875
25.583333	1	0.250750
25.600000	1	0.254375
25.616667	1	0.258250
25.633333	1	0.262000
25.650000	1	0.265875
25.666667	1	0.269250
25.683333	1	0.272750
25.700000	1	0.277000
25.716667	1	0.281000
25.733333	1	0.284500
25.750000	1	0.288625
25.766667	1	0.292750
25.783333	1	0.296875
25.800000	1	0.301000
25.816667	1	0.305500
25.833333	1	0.310000
25.850000	1	0.313875
25.866667	1	0.318000
25.883333	1	0.323125
25.900000	1	0.328000
25.916667	1	0.333375
25.933333	1	0.338625
25.950000	1	0.344125
25.966667	1	0.349500
25.983333	1	0.354500
26.000000	1	0.359875
26.016667	1	0.365375
26.033333	1	0.371000
26.050000	1	0.375625
26.066667	1	0.380750
26.083333	1	0.386625
26.100000	1	0.391875
26.116667	1	0.396250
26.133333	1	0.400625
26.150000	1	0.404250
26.166667	1	0.407250
26.183333	1	0.410375
26.200000	1	0.411625
26.216667	1	0.412750
26.233333	1	0.413625
26.250000	1	0.413875
26.266667	1	0.413750
26.283333	1	0.412125
26.300000	1	0.410625
26.316667	1	0.407375
26.333333	1	0.403500
26.350000	1	0.398875
26.366667	1	0.393375
26.383333	1	0.387000
26.400000	1	0.380625
26.416667	1	0.373375
26.433333	1	0.365625
26.450000	1	0.357375
26.466667	1	0.348500
26.483333	1	0.339375
26.500000	1	0.330125
26.516667	1	0.320750
26.533333	1	0.311375
26.550000	1	0.301750
26.566667	1	0.291500
26.583333	1	0.281875
26.600000	1	0.272250
26.616667	1	0.263625
26.633333	1	0.254750
26.650000	1	0.246000
26.666667	1	0.238000
26.683333	1	0.230125
26.700000	1	0.222875
26.716667	1	0.216375
26.733333	1	0.209750
26.750000	1	0.204125
26.766667	1	0.199375
26.783333	1	0.194625
26.800000	1	0.190625
26.816667	1	0.187250
26.833333	1	0.184500
26.850000	1	0.181875
26.866667	1	0.179750
26.883333	1	0.178625
26.900000	1	0.177500
26.916667	1	0.177375
26.933333	1	0.177750
26.950000	1	0.179250
26.966667	1	0.180625
26.983333	1	0.182250
27.000000	1	0.184250
27.016667	1	0.187500
27.033333	1	0.191625
27.050000	1	0.196250
27.066667	1	0.201125
27.083333	1	0.207125
27.100000	1	0.214500
27.116667	1	0.222125
27.133333	1	0.232750
27.150000	1	0.244250
27.166667	1	0.257125
27.183333	1	0.271500
27.200000	1	0.287750
27.216667	1	0.306625
27.233333	1	0.328500
27.250000	1	0.353125
27.266667	1	0.380750
27.283333	1	0.411875
27.300000	1	0.446625
27.316667	1	0.486375
27.333333	1	0.531000
27.350000	1	0.580875
27.366667	1	0.635625
27.383333	1	0.696625
27.400000	1	0.764125
27.416667	1	0.839250
27.433333	1	0.921000
27.450000	1	1.010625
27.466667	1	1.109125
27.483333	1	1.214875
27.500000	1	1.328750
27.516667	1	1.451500
27.533333	1	1.581875
27.550000	1	1.720750
27.566667	1	1.866875
27.583333	1	2.019625
27.600000	1	2.177875
27.616667	1	2.342500
27.633333	1	2.510125
27.650000	1	2.679625
27.666667	1	2.850875
27.683333	1	3.020500
27.700000	1	3.185625
27.716667	1	3.346125
27.733333	1	3.498375
27.750000	1	3.639500
27.766667	1	3.768500
27.783333	1	3.882125
27.800000	1	3.979875
27.816667	1	4.057750
27.833333	1	4.115625
27.850000	1	4.151375
27.866667	1	4.164500
27.883333	1	4.154625
27.900000	1	4.120750
27.916667	1	4.063375
27.933333	1	3.984125
27.950000	1	3.884000
27.966667	1	3.765000
27.983333	1	3.628375
28.000000	1	3.477375
28.016667	1	3.314375
28.033333	1	3.140375
28.050000	1	2.960125
28.066667	1	2.775125
28.083333	1	2.589625
28.100000	1	2.404125
28.116667	1	2.222000
28.133333	1	2.044500
28.150000	1	1.874625
28.166667	1	1.713250
28.183333	1	1.561250
28.200000	1	1.419750
28.216667	1	1.288375
28.233333	1	1.167750
28.250000	1	1.058750
28.266667	1	0.960125
28.283333	1	0.872125
28.300000	1	0.794125
28.316667	1	0.725500
28.333333	1	0.666250
28.350000	1	0.614625
28.366667	1	0.571000
28.383333	1	0.535125
28.400000	1	0.505500
28.416667	1	0.481500
28.433333	1	0.463625
28.450000	1	0.450375
28.466667	1	0.441250
28.483333	1	0.435375
28.500000	1	0.433625
28.516667	1	0.433750
28.533333	1	0.436500
28.550000	1	0.442125
28.566667	1	0.448750
28.583333	1	0.456750
28.600000	1	0.466500
28.616667	1	0.477125
28.633333	1	0.488125
28.650000	1	0.499750
28.666667	1	0.511750
28.683333	1	0.523000
28.700000	1	0.533750
28.716667	1	0.544500
28.733333	1	0.554250
28.750000	1	0.564750
28.766667	1	0.573625
28.783333	1	0.581125
28.800000	1	0.587750
28.816667	1	0.593375
28.833333	1	0.598250
28.850000	1	0.601000
28.866667	1	0.602750
28.883333	1	0.604000
28.900000	1	0.603250
28.916667	1	0.600750
28.933333	1	0.597250
28.950000	1	0.592250
28.966667	1	0.586125
28.983333	1	0.578750
29.000000	1	0.570250
29.016667	1	0.560625
29.033333	1	0.550875
29.050000	1	0.540000
29.066667	1	0.527750
29.083333	1	0.515250
29.100000	1	0.501750
29.116667	1	0.488625
29.133333	1	0.474750
29.150000	1	0.460250
29.166667	1	0.445625
29.183333	1	0.430875
29.200000	1	0.417000
29.216667	1	0.402250
29.233333	1	0.387875
29.250000	1	0.373375
29.266667	1	0.359500
29.283333	1	0.345625
29.300000	1	0.331625
29.316667	1	0.318125
29.333333	1	0.305750
29.350000	1	0.293000
29.366667	1	0.280875
29.383333	1	0.269625
29.400000	1	0.258500
29.416667	1	0.248375
29.433333	1	0.238125
29.450000	1	0.228500
29.466667	1	0.219000
29.483333	1	0.210625
29.500000	1	0.202750
29.516667	1	0.194500
29.533333	1	0.187250
29.550000	1	0.180750
29.566667	1	0.173500
29.583333	1	0.167375
29.600000	1	0.161500
29.616667	1	0.156500
29.633333	1	0.151750
29.650000	1	0.146625
29.666667	1	0.142500
29.683333	1	0.138875
29.700000	1	0.135250
29.716667	1	0.131875
29.733333	1	0.128625
29.750000	1	0.126250
29.766667	1	0.123750
29.783333	1	0.121500
29.800000	1	0.119750
29.816667	1	0.117750
29.833333	1	0.116375
29.850000	1	0.115250
29.866667	1	0.113625
29.883333	1	0.112375
29.900000	1	0.112000
29.916667	1	0.111500
29.933333	1	0.111375
29.950000	1	0.111125
29.966667	1	0.111625
29.983333	1	0.112625
30.000000	1	0.113250
30.016667	1	0.113750
30.033333	1	0.114750
30.050000	1	0.115625
30.066667	1	0.116625
30.083333	1	0.118750
30.100000	1	0.120625
30.116667	1	0.122750
30.133333	1	0.125000
30.150000	1	0.126625
30.166667	1	0.128250
30.183333	1	0.130750
30.200000	1	0.134000
30.216667	1	0.137250
30.233333	1	0.140500
30.250000	1	0.143750
30.266667	1	0.147375
30.283333	1	0.151000
30.300000	1	0.154500
30.316667	1	0.158375
30.333333	1	0.163000
30.350000	1	0.167500
30.366667	1	0.172250
30.383333	1	0.177250
30.400000	1	0.182000
30.416667	1	0.186750
30.433333	1	0.191625
30.450000	1	0.197500
30.466667	1	0.203750
30.483333	1	0.210375
30.500000	1	0.216500
30.516667	1	0.223250
30.533333	1	0.229500
30.550000	1	0.236875
30.566667	1	0.244875
30.583333	1	0.253625
30.600000	1	0.262750
30.616667	1	0.272375
30.633333	1	0.282875
30.650000	1	0.294125
30.666667	1	0.306250
30.683333	1	0.319375
30.700000	1	0.333250
30.716667	1	0.349250
30.733333	1	0.367625
30.750000	1	0.386750
30.766667	1	0.408000
30.783333	1	0.432500
30.800000	1	0.460500
30.816667	1	0.491125
30.833333	1	0.525250
30.850000	1	0.563250
30.866667	1	0.606375
30.883333	1	0.654625
30.900000	1	0.708875
30.916667	1	0.769500
30.933333	1	0.837625
30.950000	1	0.914250
30.966667	1	0.997250
30.983333	1	1.090375
31.000000	1	1.194000
31.016667	1	1.308375
31.033333	1	1.433000
31.050000	1	1.569750
31.066667	1	1.718875
31.083333	1	1.880875
31.100000	1	2.054500
31.116667	1	2.241125
31.133333	1	2.439875
31.150000	1	2.650375
31.166667	1	2.873125
31.183333	1	3.106375
31.200000	1	3.349625
31.216667	1	3.601125
31.233333	1	3.859625
31.250000	1	4.121750
31.266667	1	4.386875
31.283333	1	4.651250
31.300000	1	4.913125
31.316667	1	5.169375
31.333333	1	5.417000
31.350000	1	5.653375
31.366667	1	5.874625
31.383333	1	6.079625
31.400000	1	6.265000
31.416667	1	6.427375
31.433333	1	6.565875
31.450000	1	6.677625
31.466667	1	6.761000
31.483333	1	6.815250
31.500000	1	6.839375
31.516667	1	6.833625
31.533333	1	6.797500
31.550000	1	6.733250
31.566667	1	6.639750
31.583333	1	6.519500
31.600000	1	6.374125
31.616667	1	6.205875
31.633333	1	6.016125
31.650000	1	5.808250
31.666667	1	5.585625
31.683333	1	5.350625
31.700000	1	5.106000
31.716667	1	4.853375
31.733333	1	4.597375
31.750000	1	4.339625
31.766667	1	4.082125
31.783333	1	3.827625
31.800000	1	3.576625
31.816667	1	3.332625
31.833333	1	3.096750
31.850000	1	2.868875
31.866667	1	2.651375
31.883333	1	2.445875
31.900000	1	2.250625
31.916667	1	2.066875
31.933333	1	1.895250
31.950000	1	1.735250
31.966667	1	1.587375
31.983333	1	1.449750
32.000000	1	1.323750
32.016667	1	1.207500
32.033333	1	1.101375
32.050000	1	1.005250
32.066667	1	0.917250
32.083333	1	0.837875
32.100000	1	0.766500
32.116667	1	0.701750
32.133333	1	0.643375
32.150000	1	0.591125
32.166667	1	0.544750
32.183333	1	0.502500
32.200000	1	0.464875
32.216667	1	0.431625
32.233333	1	0.401750
32.250000	1	0.374625
32.266667	1	0.350750
32.283333	1	0.329125
32.300000	1	0.309500
32.316667	1	0.291750
32.333333	1	0.276125
32.350000	1	0.261625
32.366667	1	0.248250
32.383333	1	0.236000
32.400000	1	0.224750
32.416667	1	0.214625
32.433333	1	0.204750
32.450000	1	0.195250
32.466667	1	0.186625
32.483333	1	0.178375
32.500000	1	0.170375
32.516667	1	0.162125
32.533333	1	0.155750
32.550000	1	0.149125
32.566667	1	0.142250
32.583333	1	0.136125
32.600000	1	0.130000
32.616667	1	0.123625
32.633333	1	0.118250
32.650000	1	0.112250
32.666667	1	0.106625
32.683333	1	0.102625
32.700000	1	0.097500
32.716667	1	0.093000
32.733333	1	0.088375
32.750000	1	0.085000
32.766667	1	0.082000
32.783333	1	0.078875
32.800000	1	0.075625
32.816667	1	0.073000
32.833333	1	0.071125
32.850000	1	0.069125
32.866667	1	0.067125
32.883333	1	0.065625
32.900000	1	0.064750
32.916667	1	0.064000
32.933333	1	0.064000
32.950000	1	0.063750
32.966667	1	0.064625
32.983333	1	0.065750
33.000000	1	0.066125
33.016667	1	0.066875
33.033333	1	0.068000
33.050000	1	0.069000
33.066667	1	0.070000
33.083333	1	0.072250
33.100000	1	0.074000
33.116667	1	0.076000
33.133333	1	0.078250
33.150000	1	0.080500
33.166667	1	0.082875
33.183333	1	0.084750
33.200000	1	0.086875
33.216667	1	0.089750
33.233333	1	0.092625
33.250000	1	0.095125
33.266667	1	0.098125
33.283333	1	0.101375
33.300000	1	0.104875
33.316667	1	0.108500
33.333333	1	0.112375
33.350000	1	0.116625
33.366667	1	0.121750
33.383333	1	0.126750
33.400000	1	0.133125
33.416667	1	0.140750
33.433333	1	0.146875
33.450000	1	0.154625
33.466667	1	0.163000
33.483333	1	0.172875
33.500000	1	0.182250
33.516667	1	0.193125
33.533333	1	0.205375
33.550000	1	0.218250
33.566667	1	0.232500
33.583333	1	0.247250
33.600000	1	0.263625
33.616667	1	0.280750
33.633333	1	0.298750
33.650000	1	0.318000
33.666667	1	0.338500
33.683333	1	0.359625
33.700000	1	0.381750
33.716667	1	0.404375
33.733333	1	0.428500
33.750000	1	0.453000
33.766667	1	0.477875
33.783333	1	0.503750
33.800000	1	0.530000
33.816667	1	0.556000
33.833333	1	0.582125
33.850000	1	0.607875
33.866667	1	0.633375
33.883333	1	0.658625
33.900000	1	0.682125
33.916667	1	0.705250
33.933333	1	0.727000
33.950000	1	0.747375
33.966667	1	0.766375
33.983333	1	0.784000
34.000000	1	0.798750
34.016667	1	0.811750
34.033333	1	0.822250
34.050000	1	0.830375
34.066667	1	0.835500
34.083333	1	0.838750
34.100000	1	0.839375
34.116667	1	0.836625
34.133333	1	0.832750
34.150000	1	0.825875
34.166667	1	0.816250
34.183333	1	0.804250
34.200000	1	0.790750
34.216667	1	0.775375
34.233333	1	0.759000
34.250000	1	0.740500
34.266667	1	0.720625
34.283333	1	0.699750
34.300000	1	0.678125
34.316667	1	0.655750
34.333333	1	0.633375
34.350000	1	0.611000
34.366667	1	0.588000
34.383333	1	0.565500
34.400000	1	0.542875
34.416667	1	0.520625
34.433333	1	0.499000
34.450000	1	0.478625
34.466667	1	0.459000
34.483333	1	0.440500
34.500000	1	0.422500
34.516667	1	0.405625
34.533333	1	0.389875
34.550000	1	0.375250
34.566667	1	0.362000
34.583333	1	0.349000
34.600000	1	0.337125
34.616667	1	0.326125
34.633333	1	0.316375
34.650000	1	0.307250
34.666667	1	0.299250
34.683333	1	0.291750
34.700000	1	0.284625
34.716667	1	0.278125
34.733333	1	0.273000
34.750000	1	0.267750
34.766667	1	0.263375
34.783333	1	0.258625
34.800000	1	0.254625
34.816667	1	0.251250
34.833333	1	0.247250
34.850000	1	0.243625
34.866667	1	0.241125
34.883333	1	0.238875
34.900000	1	0.235625
34.916667	1	0.233500
34.933333	1	0.231000
34.950000	1	0.230000
34.966667	1	0.228500
34.983333	1	0.227000
35.000000	1	0.224625
35.016667	1	0.223000
35.033333	1	0.221125
35.050000	1	0.219125
35.066667	1	0.217000
35.083333	1	0.215625
35.100000	1	0.213375
35.116667	1	0.212125
35.133333	1	0.210375
35.150000	1	0.208875
35.166667	1	0.207375
35.183333	1	0.205250
35.200000	1	0.204000
35.216667	1	0.202625
35.233333	1	0.201250
35.250000	1	0.199375
35.266667	1	0.198500
35.283333	1	0.197250
35.300000	1	0.196375
35.316667	1	0.195125
35.333333	1	0.194375
35.350000	1	0.193250
35.366667	1	0.192750
35.383333	1	0.192000
35.400000	1	0.190625
35.416667	1	0.189500
35.433333	1	0.188625
35.450000	1	0.188750
35.466667	1	0.188125
35.483333	1	0.186875
35.500000	1	0.187375
35.516667	1	0.187000
35.533333	1	0.187000
35.550000	1	0.187500
35.566667	1	0.188000
35.583333	1	0.188250
35.600000	1	0.188625
35.616667	1	0.188875
35.633333	1	0.188625
35.650000	1	0.188750
35.666667	1	0.189000
35.683333	1	0.188750
35.700000	1	0.189000
35.716667	1	0.189875
35.733333	1	0.190375
35.750000	1	0.190375
35.766667	1	0.189750
35.783333	1	0.189875
35.800000	1	0.189125
35.816667	1	0.188750
35.833333	1	0.188000
35.850000	1	0.187750
35.866667	1	0.187375
35.883333	1	0.186750
35.900000	1	0.186625
35.916667	1	0.185250
35.933333	1	0.184750
35.950000	1	0.184500
35.966667	1	0.183875
35.983333	1	0.182750
36.000000	1	0.182000
36.016667	1	0.180500
36.033333	1	0.179125
36.050000	1	0.178625
36.066667	1	0.177500
36.083333	1	0.177250
36.100000	1	0.176500
36.116667	1	0.175375
36.133333	1	0.175125
36.150000	1	0.174250
36.166667	1	0.173750
36.183333	1	0.172500
36.200000	1	0.172000
36.216667	1	0.171500
36.233333	1	0.170625
36.250000	1	0.170250
36.266667	1	0.169000
36.283333	1	0.168625
36.300000	1	0.167375
36.316667	1	0.166000
36.333333	1	0.165000
36.350000	1	0.163625
36.366667	1	0.161625
36.383333	1	0.159750
36.400000	1	0.157375
36.416667	1	0.155250
36.433333	1	0.152125
36.450000	1	0.149500
36.466667	1	0.146625
36.483333	1	0.143375
36.500000	1	0.139125
36.516667	1	0.135250
36.533333	1	0.131625
36.550000	1	0.128375
36.566667	1	0.124375
36.583333	1	0.119750
36.600000	1	0.115250
36.616667	1	0.110750
36.633333	1	0.106750
36.650000	1	0.102750
36.666667	1	0.099000
36.683333	1	0.095375
36.700000	1	0.091000
36.716667	1	0.087625
36.733333	1	0.084625
36.750000	1	0.081750
36.766667	1	0.079375
36.783333	1	0.076625
36.800000	1	0.074500
36.816667	1	0.072750
36.833333	1	0.071000
36.850000	1	0.069875
36.866667	1	0.069500
36.883333	1	0.069000
36.900000	1	0.068750
36.916667	1	0.069125
36.933333	1	0.069250
36.950000	1	0.070125
36.966667	1	0.071125
36.983333	1	0.072125
37.000000	1	0.073750
37.016667	1	0.075500
37.033333	1	0.077625
37.050000	1	0.079625
37.066667	1	0.081500
37.083333	1	0.083750
37.100000	1	0.085375
37.116667	1	0.087250
37.133333	1	0.089625
37.150000	1	0.091875
37.166667	1	0.093750
37.183333	1	0.095000
37.200000	1	0.097250
37.216667	1	0.098875
37.233333	1	0.100500
37.250000	1	0.102625
37.266667	1	0.104375
37.283333	1	0.106000
37.300000	1	0.107500
37.316667	1	0.108875
37.333333	1	0.109500
37.350000	1	0.110875
37.366667	1	0.112375
37.383333	1	0.113250
37.400000	1	0.113875
37.416667	1	0.114375
37.433333	1	0.114625
37.450000	1	0.115375
37.466667	1	0.116000
37.483333	1	0.116500
37.500000	1	0.116500
37.516667	1	0.116000
37.533333	1	0.115750
37.550000	1	0.115875
37.566667	1	0.115250
37.583333	1	0.115125
37.600000	1	0.113500
37.616667	1	0.112500
37.633333	1	0.111000
37.650000	1	0.110375
37.666667	1	0.110125
37.683333	1	0.109000
37.700000	1	0.108250
37.716667	1	0.107000
37.733333	1	0.105375
37.750000	1	0.104125
37.766667	1	0.102375
37.783333	1	0.101750
37.800000	1	0.100375
37.816667	1	0.099125
37.833333	1	0.097250
37.850000	1	0.095375
37.866667	1	0.093250
37.883333	1	0.091750
37.900000	1	0.089375
37.916667	1	0.088125
37.933333	1	0.086500
37.950000	1	0.084125
37.966667	1	0.082000
37.983333	1	0.080125
38.000000	1	0.077375
38.016667	1	0.076125
38.033333	1	0.073375
38.050000	1	0.071375
38.066667	1	0.069625
38.083333	1	0.066875
38.100000	1	0.064750
38.116667	1	0.062500
38.133333	1	0.061375
38.150000	1	0.059500
38.166667	1	0.058000
38.183333	1	0.055625
38.200000	1	0.053625
38.216667	1	0.052125
38.233333	1	0.051000
38.250000	1	0.050000
38.266667	1	0.049000
38.283333	1	0.048250
38.300000	1	0.046875
38.316667	1	0.045375
38.333333	1	0.045750
38.350000	1	0.045000
38.366667	1	0.044750
38.383333	1	0.044000
38.400000	1	0.044125
38.416667	1	0.044125
38.433333	1	0.045000
38.450000	1	0.045625
38.466667	1	0.046625
38.483333	1	0.047750
38.500000	1	0.048750
38.516667	1	0.049500
38.533333	1	0.049250
38.550000	1	0.050500
38.566667	1	0.051125
38.583333	1	0.052625
38.600000	1	0.053750
38.616667	1	0.054625
38.633333	1	0.055875
38.650000	1	0.056625
38.666667	1	0.057375
38.683333	1	0.058500
38.700000	1	0.059875
38.716667	1	0.061250
38.733333	1	0.062000
38.750000	1	0.062250
38.766667	1	0.063250
38.783333	1	0.064000
38.800000	1	0.064250
38.816667	1	0.064625
38.833333	1	0.064875
38.850000	1	0.065625
38.866667	1	0.065750
38.883333	1	0.065625
38.900000	1	0.065625
38.916667	1	0.065625
38.933333	1	0.065375
38.950000	1	0.066000
38.966667	1	0.066375
38.983333	1	0.066625
39.000000	1	0.066125
39.016667	1	0.066375
39.033333	1	0.065750
39.050000	1	0.065500
39.066667	1	0.065750
39.083333	1	0.066500
39.100000	1	0.066125
39.116667	1	0.065750
39.133333	1	0.065500
39.150000	1	0.065750
39.166667	1	0.066250
39.183333	1	0.066500
39.200000	1	0.066500
39.216667	1	0.066750
39.233333	1	0.067125
39.250000	1	0.067500
39.266667	1	0.066875
39.283333	1	0.066625
39.300000	1	0.066625
39.316667	1	0.066250
39.333333	1	0.066625
39.350000	1	0.066125
39.366667	1	0.065875
39.383333	1	0.065625
39.400000	1	0.065750
39.416667	1	0.065125
39.433333	1	0.064250
39.450000	1	0.063875
39.466667	1	0.063250
39.483333	1	0.063000
39.500000	1	0.062750
39.516667	1	0.061875
39.533333	1	0.062000
39.550000	1	0.061375
39.566667	1	0.060250
39.583333	1	0.059500
39.600000	1	0.058875
39.616667	1	0.057750
39.633333	1	0.057500
39.650000	1	0.056500
39.666667	1	0.055750
39.683333	1	0.054375
39.700000	1	0.053500
39.716667	1	0.053000
39.733333	1	0.051875
39.750000	1	0.050875
39.766667	1	0.050000
39.783333	1	0.049250
39.800000	1	0.048000
39.816667	1	0.047000
39.833333	1	0.046250
39.850000	1	0.045375
39.866667	1	0.043625
39.883333	1	0.042750
39.900000	1	0.042250
39.916667	1	0.040750
39.933333	1	0.039375
39.950000	1	0.037750
39.966667	1	0.037125
39.983333	1	0.036000
40.000000	1	0.034375
