URL	chrom://bioreactor/micro_cm7/HPLC_Ultimate_3000/Users/markusar/20240716_MA_pHrange2.seq/284.smp/RI_1.channel/RI_1.chm
Channel	RI_1

Injection Information:
Data Vault	micro_cm7
Sequence	20240716_MA_pHrange2
Name	Fp2_40H_3
Number	39
Position	BD3
Comment	
Processing Method	
Instrument Method	run_25B_method
Type	Unknown
Status	Finished
Inject Time	17.07.2024 20:03:20 +02:00
Volume (µl)	20.0000
Dilution Factor	1.0000
Weight	1.0000

Chromatogram Data Information:
Time Min. (min)	0.000000
Time Max. (min)	40.000000
Data Points	2401
Detector	RI
Generating Data System	Chromeleon 7.3.2.11814
Exporting Data System	Chromeleon 7.3.2.0
Operator	Instrument Controller
Signal Quantity	Refractive 
Signal Unit	µRIU
Signal Min.	-0.052250
Signal Max.	82.062375
Channel	RI_1
Driver Name	RID520Driver.dll
Channel Type	Evaluation
Min. Step (s)	1
Max. Step (s)	1
Average Step (s)	1

Signal Parameter Information:
Signal Info	

Chromatogram Data:
Time (min)	Step (s)	Value (µRIU)
0.000000	n.a.	0.025750
0.016667	1	0.026625
0.033333	1	0.027125
0.050000	1	0.028750
0.066667	1	0.029875
0.083333	1	0.031125
0.100000	1	0.032250
0.116667	1	0.033125
0.133333	1	0.033750
0.150000	1	0.035375
0.166667	1	0.036625
0.183333	1	0.037625
0.200000	1	0.038750
0.216667	1	0.039625
0.233333	1	0.041000
0.250000	1	0.042250
0.266667	1	0.042750
0.283333	1	0.044375
0.300000	1	0.045625
0.316667	1	0.046250
0.333333	1	0.047250
0.350000	1	0.048125
0.366667	1	0.048875
0.383333	1	0.049500
0.400000	1	0.049750
0.416667	1	0.050375
0.433333	1	0.052625
0.450000	1	0.054875
0.466667	1	0.057500
0.483333	1	0.060000
0.500000	1	0.062625
0.516667	1	0.064500
0.533333	1	0.065875
0.550000	1	0.066875
0.566667	1	0.066500
0.583333	1	0.065000
0.600000	1	0.063250
0.616667	1	0.062375
0.633333	1	0.062125
0.650000	1	0.062250
0.666667	1	0.061750
0.683333	1	0.061500
0.700000	1	0.061750
0.716667	1	0.061750
0.733333	1	0.061500
0.750000	1	0.061375
0.766667	1	0.060500
0.783333	1	0.059625
0.800000	1	0.059250
0.816667	1	0.058875
0.833333	1	0.058375
0.850000	1	0.058375
0.866667	1	0.057375
0.883333	1	0.056625
0.900000	1	0.055625
0.916667	1	0.054250
0.933333	1	0.053375
0.950000	1	0.052125
0.966667	1	0.050375
0.983333	1	0.049000
1.000000	1	0.047375
1.016667	1	0.045875
1.033333	1	0.044750
1.050000	1	0.043250
1.066667	1	0.042250
1.083333	1	0.040625
1.100000	1	0.039375
1.116667	1	0.038375
1.133333	1	0.037625
1.150000	1	0.036125
1.166667	1	0.035000
1.183333	1	0.033875
1.200000	1	0.032250
1.216667	1	0.031125
1.233333	1	0.030125
1.250000	1	0.028875
1.266667	1	0.027625
1.283333	1	0.027000
1.300000	1	0.026250
1.316667	1	0.024750
1.333333	1	0.024125
1.350000	1	0.023125
1.366667	1	0.022625
1.383333	1	0.021625
1.400000	1	0.021250
1.416667	1	0.020125
1.433333	1	0.020375
1.450000	1	0.020250
1.466667	1	0.020000
1.483333	1	0.019625
1.500000	1	0.019000
1.516667	1	0.018375
1.533333	1	0.018125
1.550000	1	0.018125
1.566667	1	0.017625
1.583333	1	0.017625
1.600000	1	0.017250
1.616667	1	0.017625
1.633333	1	0.016375
1.650000	1	0.015625
1.666667	1	0.015500
1.683333	1	0.015625
1.700000	1	0.015250
1.716667	1	0.014375
1.733333	1	0.013000
1.750000	1	0.012375
1.766667	1	0.011875
1.783333	1	0.010625
1.800000	1	0.009500
1.816667	1	0.008375
1.833333	1	0.007250
1.850000	1	0.005875
1.866667	1	0.004500
1.883333	1	0.002750
1.900000	1	0.000375
1.916667	1	-0.001250
1.933333	1	-0.002500
1.950000	1	-0.004500
1.966667	1	-0.006500
1.983333	1	-0.009000
2.000000	1	-0.010625
2.016667	1	-0.012375
2.033333	1	-0.013375
2.050000	1	-0.015375
2.066667	1	-0.016875
2.083333	1	-0.018500
2.100000	1	-0.019750
2.116667	1	-0.020875
2.133333	1	-0.022250
2.150000	1	-0.023375
2.166667	1	-0.024375
2.183333	1	-0.025125
2.200000	1	-0.025625
2.216667	1	-0.026000
2.233333	1	-0.026250
2.250000	1	-0.025875
2.266667	1	-0.025875
2.283333	1	-0.025500
2.300000	1	-0.024625
2.316667	1	-0.024000
2.333333	1	-0.023125
2.350000	1	-0.022250
2.366667	1	-0.020875
2.383333	1	-0.020250
2.400000	1	-0.019500
2.416667	1	-0.018000
2.433333	1	-0.016250
2.450000	1	-0.014500
2.466667	1	-0.013000
2.483333	1	-0.011125
2.500000	1	-0.010000
2.516667	1	-0.008750
2.533333	1	-0.007375
2.550000	1	-0.005500
2.566667	1	-0.003875
2.583333	1	-0.001875
2.600000	1	-0.000750
2.616667	1	0.000375
2.633333	1	0.001875
2.650000	1	0.003625
2.666667	1	0.005000
2.683333	1	0.006750
2.700000	1	0.007875
2.716667	1	0.009000
2.733333	1	0.009625
2.750000	1	0.010750
2.766667	1	0.011500
2.783333	1	0.012500
2.800000	1	0.013750
2.816667	1	0.015125
2.833333	1	0.016000
2.850000	1	0.017750
2.866667	1	0.019125
2.883333	1	0.019750
2.900000	1	0.020250
2.916667	1	0.020875
2.933333	1	0.021750
2.950000	1	0.022875
2.966667	1	0.023625
2.983333	1	0.024500
3.000000	1	0.025250
3.016667	1	0.026375
3.033333	1	0.027125
3.050000	1	0.028250
3.066667	1	0.029250
3.083333	1	0.030125
3.100000	1	0.031000
3.116667	1	0.032500
3.133333	1	0.032375
3.150000	1	0.033250
3.166667	1	0.034625
3.183333	1	0.035125
3.200000	1	0.036250
3.216667	1	0.037375
3.233333	1	0.038375
3.250000	1	0.039000
3.266667	1	0.039750
3.283333	1	0.040875
3.300000	1	0.041250
3.316667	1	0.042250
3.333333	1	0.043125
3.350000	1	0.043375
3.366667	1	0.044125
3.383333	1	0.044625
3.400000	1	0.044875
3.416667	1	0.046000
3.433333	1	0.047250
3.450000	1	0.047375
3.466667	1	0.048750
3.483333	1	0.049125
3.500000	1	0.050000
3.516667	1	0.050500
3.533333	1	0.051375
3.550000	1	0.052750
3.566667	1	0.053500
3.583333	1	0.054250
3.600000	1	0.055125
3.616667	1	0.055750
3.633333	1	0.056625
3.650000	1	0.057875
3.666667	1	0.058375
3.683333	1	0.059000
3.700000	1	0.060000
3.716667	1	0.060375
3.733333	1	0.061125
3.750000	1	0.061875
3.766667	1	0.062875
3.783333	1	0.063250
3.800000	1	0.064000
3.816667	1	0.064625
3.833333	1	0.066125
3.850000	1	0.066750
3.866667	1	0.067750
3.883333	1	0.068625
3.900000	1	0.069250
3.916667	1	0.069500
3.933333	1	0.069875
3.950000	1	0.070500
3.966667	1	0.071250
3.983333	1	0.072250
4.000000	1	0.073625
4.016667	1	0.074750
4.033333	1	0.075500
4.050000	1	0.076000
4.066667	1	0.076500
4.083333	1	0.077250
4.100000	1	0.078625
4.116667	1	0.079875
4.133333	1	0.080500
4.150000	1	0.081750
4.166667	1	0.082625
4.183333	1	0.083500
4.200000	1	0.084000
4.216667	1	0.084375
4.233333	1	0.086125
4.250000	1	0.087250
4.266667	1	0.087875
4.283333	1	0.088875
4.300000	1	0.090125
4.316667	1	0.090625
4.333333	1	0.092125
4.350000	1	0.093375
4.366667	1	0.094000
4.383333	1	0.095375
4.400000	1	0.096750
4.416667	1	0.098125
4.433333	1	0.098875
4.450000	1	0.100125
4.466667	1	0.100875
4.483333	1	0.102000
4.500000	1	0.103250
4.516667	1	0.104375
4.533333	1	0.104875
4.550000	1	0.106250
4.566667	1	0.107375
4.583333	1	0.108375
4.600000	1	0.109875
4.616667	1	0.110750
4.633333	1	0.112875
4.650000	1	0.114250
4.666667	1	0.115250
4.683333	1	0.116125
4.700000	1	0.117750
4.716667	1	0.119250
4.733333	1	0.121000
4.750000	1	0.123125
4.766667	1	0.125500
4.783333	1	0.127750
4.800000	1	0.130000
4.816667	1	0.132250
4.833333	1	0.134875
4.850000	1	0.137375
4.866667	1	0.139625
4.883333	1	0.142000
4.900000	1	0.144375
4.916667	1	0.147750
4.933333	1	0.150250
4.950000	1	0.153750
4.966667	1	0.157125
4.983333	1	0.160500
5.000000	1	0.164375
5.016667	1	0.167875
5.033333	1	0.171750
5.050000	1	0.175000
5.066667	1	0.178500
5.083333	1	0.182125
5.100000	1	0.184875
5.116667	1	0.188000
5.133333	1	0.191125
5.150000	1	0.194625
5.166667	1	0.197375
5.183333	1	0.200375
5.200000	1	0.202875
5.216667	1	0.206875
5.233333	1	0.210000
5.250000	1	0.211625
5.266667	1	0.213750
5.283333	1	0.215625
5.300000	1	0.217625
5.316667	1	0.219000
5.333333	1	0.219500
5.350000	1	0.220250
5.366667	1	0.221625
5.383333	1	0.221875
5.400000	1	0.222500
5.416667	1	0.222625
5.433333	1	0.222125
5.450000	1	0.221125
5.466667	1	0.220625
5.483333	1	0.219625
5.500000	1	0.218375
5.516667	1	0.216625
5.533333	1	0.215125
5.550000	1	0.212500
5.566667	1	0.211000
5.583333	1	0.208500
5.600000	1	0.206000
5.616667	1	0.203375
5.633333	1	0.201000
5.650000	1	0.197375
5.666667	1	0.194500
5.683333	1	0.191000
5.700000	1	0.188000
5.716667	1	0.185125
5.733333	1	0.181250
5.750000	1	0.177500
5.766667	1	0.174250
5.783333	1	0.171000
5.800000	1	0.167375
5.816667	1	0.164000
5.833333	1	0.160500
5.850000	1	0.157125
5.866667	1	0.153250
5.883333	1	0.149375
5.900000	1	0.145750
5.916667	1	0.142000
5.933333	1	0.138875
5.950000	1	0.135750
5.966667	1	0.132250
5.983333	1	0.129250
6.000000	1	0.126250
6.016667	1	0.123500
6.033333	1	0.120250
6.050000	1	0.116625
6.066667	1	0.113875
6.083333	1	0.110750
6.100000	1	0.108375
6.116667	1	0.105875
6.133333	1	0.102750
6.150000	1	0.099000
6.166667	1	0.096250
6.183333	1	0.094125
6.200000	1	0.091500
6.216667	1	0.088625
6.233333	1	0.086375
6.250000	1	0.083875
6.266667	1	0.082000
6.283333	1	0.079375
6.300000	1	0.077125
6.316667	1	0.075500
6.333333	1	0.073750
6.350000	1	0.072125
6.366667	1	0.070250
6.383333	1	0.068625
6.400000	1	0.066500
6.416667	1	0.064500
6.433333	1	0.063375
6.450000	1	0.061625
6.466667	1	0.060250
6.483333	1	0.058500
6.500000	1	0.057000
6.516667	1	0.055875
6.533333	1	0.054750
6.550000	1	0.054250
6.566667	1	0.053125
6.583333	1	0.053250
6.600000	1	0.052875
6.616667	1	0.053125
6.633333	1	0.052375
6.650000	1	0.052250
6.666667	1	0.052375
6.683333	1	0.052250
6.700000	1	0.052375
6.716667	1	0.052625
6.733333	1	0.053500
6.750000	1	0.054125
6.766667	1	0.055375
6.783333	1	0.057125
6.800000	1	0.058500
6.816667	1	0.059875
6.833333	1	0.060625
6.850000	1	0.063000
6.866667	1	0.064875
6.883333	1	0.066875
6.900000	1	0.068500
6.916667	1	0.071375
6.933333	1	0.073625
6.950000	1	0.076125
6.966667	1	0.078750
6.983333	1	0.081750
7.000000	1	0.084875
7.016667	1	0.087250
7.033333	1	0.089250
7.050000	1	0.091875
7.066667	1	0.093875
7.083333	1	0.096500
7.100000	1	0.098750
7.116667	1	0.101125
7.133333	1	0.103375
7.150000	1	0.105250
7.166667	1	0.107000
7.183333	1	0.108625
7.200000	1	0.110125
7.216667	1	0.111250
7.233333	1	0.111375
7.250000	1	0.112250
7.266667	1	0.112125
7.283333	1	0.111625
7.300000	1	0.110750
7.316667	1	0.110625
7.333333	1	0.109500
7.350000	1	0.108125
7.366667	1	0.106250
7.383333	1	0.105125
7.400000	1	0.103625
7.416667	1	0.101375
7.433333	1	0.098500
7.450000	1	0.096000
7.466667	1	0.093125
7.483333	1	0.090375
7.500000	1	0.087500
7.516667	1	0.084875
7.533333	1	0.082375
7.550000	1	0.079250
7.566667	1	0.075625
7.583333	1	0.072750
7.600000	1	0.069875
7.616667	1	0.066875
7.633333	1	0.062625
7.650000	1	0.059250
7.666667	1	0.055750
7.683333	1	0.051875
7.700000	1	0.048250
7.716667	1	0.045375
7.733333	1	0.041500
7.750000	1	0.038750
7.766667	1	0.035875
7.783333	1	0.032875
7.800000	1	0.030125
7.816667	1	0.026750
7.833333	1	0.023500
7.850000	1	0.021375
7.866667	1	0.018250
7.883333	1	0.015375
7.900000	1	0.012875
7.916667	1	0.010375
7.933333	1	0.008375
7.950000	1	0.006125
7.966667	1	0.003750
7.983333	1	0.002125
8.000000	1	0.000000
8.016667	1	-0.001375
8.033333	1	-0.003000
8.050000	1	-0.004625
8.066667	1	-0.006125
8.083333	1	-0.006875
8.100000	1	-0.007625
8.116667	1	-0.008625
8.133333	1	-0.008625
8.150000	1	-0.009000
8.166667	1	-0.009375
8.183333	1	-0.009125
8.200000	1	-0.009000
8.216667	1	-0.009250
8.233333	1	-0.009125
8.250000	1	-0.009125
8.266667	1	-0.008875
8.283333	1	-0.009000
8.300000	1	-0.008625
8.316667	1	-0.008000
8.333333	1	-0.007375
8.350000	1	-0.006625
8.366667	1	-0.005500
8.383333	1	-0.004375
8.400000	1	-0.003375
8.416667	1	-0.002750
8.433333	1	-0.001750
8.450000	1	-0.000750
8.466667	1	0.000250
8.483333	1	0.001000
8.500000	1	0.002375
8.516667	1	0.003375
8.533333	1	0.004125
8.550000	1	0.005500
8.566667	1	0.006625
8.583333	1	0.007500
8.600000	1	0.008125
8.616667	1	0.008875
8.633333	1	0.009375
8.650000	1	0.010750
8.666667	1	0.011500
8.683333	1	0.012250
8.700000	1	0.012250
8.716667	1	0.012875
8.733333	1	0.013000
8.750000	1	0.012750
8.766667	1	0.012750
8.783333	1	0.012875
8.800000	1	0.012500
8.816667	1	0.012000
8.833333	1	0.012500
8.850000	1	0.011500
8.866667	1	0.011000
8.883333	1	0.011500
8.900000	1	0.011625
8.916667	1	0.011500
8.933333	1	0.010625
8.950000	1	0.009750
8.966667	1	0.009250
8.983333	1	0.009000
9.000000	1	0.008750
9.016667	1	0.008125
9.033333	1	0.007875
9.050000	1	0.006750
9.066667	1	0.006500
9.083333	1	0.005625
9.100000	1	0.005375
9.116667	1	0.004875
9.133333	1	0.005125
9.150000	1	0.004750
9.166667	1	0.003875
9.183333	1	0.003375
9.200000	1	0.002875
9.216667	1	0.002125
9.233333	1	0.001000
9.250000	1	0.000500
9.266667	1	0.000000
9.283333	1	-0.000500
9.300000	1	-0.000875
9.316667	1	-0.001750
9.333333	1	-0.003125
9.350000	1	-0.004000
9.366667	1	-0.005875
9.383333	1	-0.006750
9.400000	1	-0.008125
9.416667	1	-0.009750
9.433333	1	-0.011125
9.450000	1	-0.012500
9.466667	1	-0.014250
9.483333	1	-0.015000
9.500000	1	-0.016125
9.516667	1	-0.018750
9.533333	1	-0.020875
9.550000	1	-0.022625
9.566667	1	-0.024375
9.583333	1	-0.026625
9.600000	1	-0.028750
9.616667	1	-0.030375
9.633333	1	-0.031875
9.650000	1	-0.034125
9.666667	1	-0.035875
9.683333	1	-0.037750
9.700000	1	-0.039750
9.716667	1	-0.041625
9.733333	1	-0.043250
9.750000	1	-0.044750
9.766667	1	-0.045250
9.783333	1	-0.046750
9.800000	1	-0.047875
9.816667	1	-0.048750
9.833333	1	-0.049875
9.850000	1	-0.051000
9.866667	1	-0.052000
9.883333	1	-0.051875
9.900000	1	-0.051750
9.916667	1	-0.052250
9.933333	1	-0.052250
9.950000	1	-0.052250
9.966667	1	-0.051500
9.983333	1	-0.051125
10.000000	1	-0.051125
10.016667	1	-0.050250
10.033333	1	-0.049875
10.050000	1	-0.048375
10.066667	1	-0.046250
10.083333	1	-0.044000
10.100000	1	-0.041375
10.116667	1	-0.037750
10.133333	1	-0.034000
10.150000	1	-0.028875
10.166667	1	-0.023500
10.183333	1	-0.017375
10.200000	1	-0.010000
10.216667	1	-0.001750
10.233333	1	0.007750
10.250000	1	0.018875
10.266667	1	0.031250
10.283333	1	0.044875
10.300000	1	0.060125
10.316667	1	0.076875
10.333333	1	0.095750
10.350000	1	0.114625
10.366667	1	0.132625
10.383333	1	0.146625
10.400000	1	0.152750
10.416667	1	0.146750
10.433333	1	0.126875
10.450000	1	0.091500
10.466667	1	0.044125
10.483333	1	-0.003500
10.500000	1	-0.032125
10.516667	1	-0.011500
10.533333	1	0.097875
10.550000	1	0.346125
10.566667	1	0.787375
10.583333	1	1.478500
10.600000	1	2.475375
10.616667	1	3.829250
10.633333	1	5.580250
10.650000	1	7.756625
10.666667	1	10.379250
10.683333	1	13.456000
10.700000	1	16.986750
10.716667	1	20.956750
10.733333	1	25.340625
10.750000	1	30.104500
10.766667	1	35.198625
10.783333	1	40.562500
10.800000	1	46.119375
10.816667	1	51.763500
10.833333	1	57.342875
10.850000	1	62.640250
10.866667	1	67.355125
10.883333	1	71.078500
10.900000	1	73.324125
10.916667	1	73.604750
10.933333	1	71.583625
10.950000	1	67.234000
10.966667	1	60.924750
10.983333	1	53.324750
11.000000	1	45.233375
11.016667	1	37.368500
11.033333	1	30.240500
11.050000	1	24.106500
11.066667	1	19.028750
11.083333	1	14.944875
11.100000	1	11.733875
11.116667	1	9.251750
11.133333	1	7.358250
11.150000	1	5.925750
11.166667	1	4.848750
11.183333	1	4.039625
11.200000	1	3.429000
11.216667	1	2.965625
11.233333	1	2.611750
11.250000	1	2.338125
11.266667	1	2.124625
11.283333	1	1.954250
11.300000	1	1.816375
11.316667	1	1.702625
11.333333	1	1.606125
11.350000	1	1.523250
11.366667	1	1.450250
11.383333	1	1.386375
11.400000	1	1.328500
11.416667	1	1.276875
11.433333	1	1.230000
11.450000	1	1.188375
11.466667	1	1.151125
11.483333	1	1.118500
11.500000	1	1.090250
11.516667	1	1.065875
11.533333	1	1.046250
11.550000	1	1.031000
11.566667	1	1.019000
11.583333	1	1.012250
11.600000	1	1.009625
11.616667	1	1.011625
11.633333	1	1.018250
11.650000	1	1.029125
11.666667	1	1.043625
11.683333	1	1.063125
11.700000	1	1.085625
11.716667	1	1.111125
11.733333	1	1.138250
11.750000	1	1.165250
11.766667	1	1.191125
11.783333	1	1.214875
11.800000	1	1.235125
11.816667	1	1.249375
11.833333	1	1.259375
11.850000	1	1.262875
11.866667	1	1.261750
11.883333	1	1.254375
11.900000	1	1.244000
11.916667	1	1.229250
11.933333	1	1.211750
11.950000	1	1.192500
11.966667	1	1.173250
11.983333	1	1.153750
12.000000	1	1.134750
12.016667	1	1.117500
12.033333	1	1.102000
12.050000	1	1.088875
12.066667	1	1.077125
12.083333	1	1.067375
12.100000	1	1.059375
12.116667	1	1.052625
12.133333	1	1.047750
12.150000	1	1.044500
12.166667	1	1.042000
12.183333	1	1.041000
12.200000	1	1.041125
12.216667	1	1.043000
12.233333	1	1.046250
12.250000	1	1.051750
12.266667	1	1.060500
12.283333	1	1.073875
12.300000	1	1.092750
12.316667	1	1.121625
12.333333	1	1.163000
12.350000	1	1.222000
12.366667	1	1.306250
12.383333	1	1.425125
12.400000	1	1.591500
12.416667	1	1.822000
12.433333	1	2.138500
12.450000	1	2.569750
12.466667	1	3.149500
12.483333	1	3.920500
12.500000	1	4.934375
12.516667	1	6.250500
12.533333	1	7.930500
12.550000	1	10.040750
12.566667	1	12.649500
12.583333	1	15.816500
12.600000	1	19.585625
12.616667	1	23.968125
12.633333	1	28.949750
12.650000	1	34.475500
12.666667	1	40.440750
12.683333	1	46.686500
12.700000	1	53.003750
12.716667	1	59.143750
12.733333	1	64.835000
12.750000	1	69.807500
12.766667	1	73.817500
12.783333	1	76.669125
12.800000	1	78.238125
12.816667	1	78.485500
12.833333	1	77.452250
12.850000	1	75.258250
12.866667	1	72.088750
12.883333	1	68.177125
12.900000	1	63.781000
12.916667	1	59.158750
12.933333	1	54.547125
12.950000	1	50.140875
12.966667	1	46.085875
12.983333	1	42.480750
13.000000	1	39.381375
13.016667	1	36.803625
13.033333	1	34.735750
13.050000	1	33.141625
13.066667	1	31.977750
13.083333	1	31.192750
13.100000	1	30.736000
13.116667	1	30.556750
13.133333	1	30.611000
13.150000	1	30.858625
13.166667	1	31.266500
13.183333	1	31.805500
13.200000	1	32.452625
13.216667	1	33.188375
13.233333	1	33.999625
13.250000	1	34.873500
13.266667	1	35.802000
13.283333	1	36.779000
13.300000	1	37.798125
13.316667	1	38.855500
13.333333	1	39.947875
13.350000	1	41.073500
13.366667	1	42.229750
13.383333	1	43.416250
13.400000	1	44.630375
13.416667	1	45.872500
13.433333	1	47.143750
13.450000	1	48.445000
13.466667	1	49.775500
13.483333	1	51.137500
13.500000	1	52.528750
13.516667	1	53.950375
13.533333	1	55.402500
13.550000	1	56.885250
13.566667	1	58.398625
13.583333	1	59.942875
13.600000	1	61.517625
13.616667	1	63.123250
13.633333	1	64.762750
13.650000	1	66.437375
13.666667	1	68.148375
13.683333	1	69.894875
13.700000	1	71.678750
13.716667	1	73.497500
13.733333	1	75.346375
13.750000	1	77.199250
13.766667	1	78.979750
13.783333	1	80.529750
13.800000	1	81.630500
13.816667	1	82.062375
13.833333	1	81.659500
13.850000	1	80.307375
13.866667	1	77.882625
13.883333	1	74.193500
13.900000	1	69.022125
13.916667	1	62.294625
13.933333	1	54.276875
13.950000	1	45.620000
13.966667	1	37.168875
13.983333	1	29.632250
14.000000	1	23.372250
14.016667	1	18.413125
14.033333	1	14.592250
14.050000	1	11.693250
14.066667	1	9.516125
14.083333	1	7.893875
14.100000	1	6.695375
14.116667	1	5.812375
14.133333	1	5.161125
14.150000	1	4.677000
14.166667	1	4.313000
14.183333	1	4.033875
14.200000	1	3.815375
14.216667	1	3.639250
14.233333	1	3.494875
14.250000	1	3.373125
14.266667	1	3.268000
14.283333	1	3.176375
14.300000	1	3.094375
14.316667	1	3.020875
14.333333	1	2.953875
14.350000	1	2.891750
14.366667	1	2.835125
14.383333	1	2.782250
14.400000	1	2.733000
14.416667	1	2.687375
14.433333	1	2.645125
14.450000	1	2.605875
14.466667	1	2.569250
14.483333	1	2.534625
14.500000	1	2.502375
14.516667	1	2.472000
14.533333	1	2.444000
14.550000	1	2.416875
14.566667	1	2.391000
14.583333	1	2.365250
14.600000	1	2.340250
14.616667	1	2.315375
14.633333	1	2.289750
14.650000	1	2.264750
14.666667	1	2.239375
14.683333	1	2.212500
14.700000	1	2.184375
14.716667	1	2.156375
14.733333	1	2.127500
14.750000	1	2.098750
14.766667	1	2.069000
14.783333	1	2.038875
14.800000	1	2.008625
14.816667	1	1.979250
14.833333	1	1.949875
14.850000	1	1.921750
14.866667	1	1.893375
14.883333	1	1.864750
14.900000	1	1.836875
14.916667	1	1.808375
14.933333	1	1.781000
14.950000	1	1.754000
14.966667	1	1.728000
14.983333	1	1.701500
15.000000	1	1.676500
15.016667	1	1.651000
15.033333	1	1.626750
15.050000	1	1.603000
15.066667	1	1.580250
15.083333	1	1.558125
15.100000	1	1.536750
15.116667	1	1.515875
15.133333	1	1.497000
15.150000	1	1.479000
15.166667	1	1.462875
15.183333	1	1.446875
15.200000	1	1.432750
15.216667	1	1.420500
15.233333	1	1.409875
15.250000	1	1.400625
15.266667	1	1.392875
15.283333	1	1.388000
15.300000	1	1.384875
15.316667	1	1.384500
15.333333	1	1.387375
15.350000	1	1.393750
15.366667	1	1.404000
15.383333	1	1.417875
15.400000	1	1.435375
15.416667	1	1.457625
15.433333	1	1.483125
15.450000	1	1.513250
15.466667	1	1.545375
15.483333	1	1.580500
15.500000	1	1.616000
15.516667	1	1.651000
15.533333	1	1.683750
15.550000	1	1.712000
15.566667	1	1.734625
15.583333	1	1.750875
15.600000	1	1.760500
15.616667	1	1.761125
15.633333	1	1.753625
15.650000	1	1.737375
15.666667	1	1.715250
15.683333	1	1.687125
15.700000	1	1.654375
15.716667	1	1.619375
15.733333	1	1.582500
15.750000	1	1.546625
15.766667	1	1.510000
15.783333	1	1.475000
15.800000	1	1.441375
15.816667	1	1.408750
15.833333	1	1.378000
15.850000	1	1.348750
15.866667	1	1.320000
15.883333	1	1.292625
15.900000	1	1.266000
15.916667	1	1.239625
15.933333	1	1.215500
15.950000	1	1.192750
15.966667	1	1.171125
15.983333	1	1.151125
16.000000	1	1.132875
16.016667	1	1.117000
16.033333	1	1.102750
16.050000	1	1.090500
16.066667	1	1.080500
16.083333	1	1.072875
16.100000	1	1.066375
16.116667	1	1.061375
16.133333	1	1.059125
16.150000	1	1.057125
16.166667	1	1.056250
16.183333	1	1.055375
16.200000	1	1.055375
16.216667	1	1.055750
16.233333	1	1.056500
16.250000	1	1.056500
16.266667	1	1.055875
16.283333	1	1.055000
16.300000	1	1.053000
16.316667	1	1.051000
16.333333	1	1.048250
16.350000	1	1.044625
16.366667	1	1.040625
16.383333	1	1.036375
16.400000	1	1.031625
16.416667	1	1.026125
16.433333	1	1.021250
16.450000	1	1.017000
16.466667	1	1.013125
16.483333	1	1.010000
16.500000	1	1.007625
16.516667	1	1.007000
16.533333	1	1.008000
16.550000	1	1.010500
16.566667	1	1.014500
16.583333	1	1.018500
16.600000	1	1.025125
16.616667	1	1.032500
16.633333	1	1.040000
16.650000	1	1.047500
16.666667	1	1.054625
16.683333	1	1.062500
16.700000	1	1.069250
16.716667	1	1.074750
16.733333	1	1.080000
16.750000	1	1.083625
16.766667	1	1.086875
16.783333	1	1.089375
16.800000	1	1.091500
16.816667	1	1.093625
16.833333	1	1.095125
16.850000	1	1.097000
16.866667	1	1.099625
16.883333	1	1.102625
16.900000	1	1.105375
16.916667	1	1.109000
16.933333	1	1.112375
16.950000	1	1.115750
16.966667	1	1.117000
16.983333	1	1.118750
17.000000	1	1.119750
17.016667	1	1.119625
17.033333	1	1.118500
17.050000	1	1.116625
17.066667	1	1.114000
17.083333	1	1.110375
17.100000	1	1.107375
17.116667	1	1.104250
17.133333	1	1.100875
17.150000	1	1.098125
17.166667	1	1.095500
17.183333	1	1.094375
17.200000	1	1.093750
17.216667	1	1.094375
17.233333	1	1.095875
17.250000	1	1.098250
17.266667	1	1.100875
17.283333	1	1.104000
17.300000	1	1.108375
17.316667	1	1.113125
17.333333	1	1.118875
17.350000	1	1.124500
17.366667	1	1.130125
17.383333	1	1.136000
17.400000	1	1.141500
17.416667	1	1.146250
17.433333	1	1.150500
17.450000	1	1.153625
17.466667	1	1.155625
17.483333	1	1.155250
17.500000	1	1.154375
17.516667	1	1.151375
17.533333	1	1.146750
17.550000	1	1.139875
17.566667	1	1.131375
17.583333	1	1.121750
17.600000	1	1.109500
17.616667	1	1.095750
17.633333	1	1.080375
17.650000	1	1.064750
17.666667	1	1.048250
17.683333	1	1.030625
17.700000	1	1.012000
17.716667	1	0.993500
17.733333	1	0.975625
17.750000	1	0.958875
17.766667	1	0.942500
17.783333	1	0.926375
17.800000	1	0.910625
17.816667	1	0.895625
17.833333	1	0.881625
17.850000	1	0.868625
17.866667	1	0.856375
17.883333	1	0.844250
17.900000	1	0.833250
17.916667	1	0.822375
17.933333	1	0.812500
17.950000	1	0.803375
17.966667	1	0.795000
17.983333	1	0.786500
18.000000	1	0.779125
18.016667	1	0.772000
18.033333	1	0.765500
18.050000	1	0.759250
18.066667	1	0.753000
18.083333	1	0.746250
18.100000	1	0.741000
18.116667	1	0.735250
18.133333	1	0.730000
18.150000	1	0.725000
18.166667	1	0.720000
18.183333	1	0.715500
18.200000	1	0.711625
18.216667	1	0.708000
18.233333	1	0.705000
18.250000	1	0.701750
18.266667	1	0.700250
18.283333	1	0.698875
18.300000	1	0.698125
18.316667	1	0.697625
18.333333	1	0.697250
18.350000	1	0.697875
18.366667	1	0.699000
18.383333	1	0.700875
18.400000	1	0.703750
18.416667	1	0.706875
18.433333	1	0.711125
18.450000	1	0.715875
18.466667	1	0.721375
18.483333	1	0.726875
18.500000	1	0.734250
18.516667	1	0.742500
18.533333	1	0.752250
18.550000	1	0.763625
18.566667	1	0.776625
18.583333	1	0.791375
18.600000	1	0.808375
18.616667	1	0.827125
18.633333	1	0.848125
18.650000	1	0.871375
18.666667	1	0.896500
18.683333	1	0.922875
18.700000	1	0.951750
18.716667	1	0.981625
18.733333	1	1.013375
18.750000	1	1.046125
18.766667	1	1.080250
18.783333	1	1.114125
18.800000	1	1.148750
18.816667	1	1.183000
18.833333	1	1.216875
18.850000	1	1.248750
18.866667	1	1.278375
18.883333	1	1.305500
18.900000	1	1.329125
18.916667	1	1.348000
18.933333	1	1.362875
18.950000	1	1.373125
18.966667	1	1.376250
18.983333	1	1.374250
19.000000	1	1.365625
19.016667	1	1.350375
19.033333	1	1.329125
19.050000	1	1.301125
19.066667	1	1.268250
19.083333	1	1.230125
19.100000	1	1.187875
19.116667	1	1.142875
19.133333	1	1.095375
19.150000	1	1.046875
19.166667	1	0.998625
19.183333	1	0.950875
19.200000	1	0.903875
19.216667	1	0.859875
19.233333	1	0.819500
19.250000	1	0.781750
19.266667	1	0.748125
19.283333	1	0.719500
19.300000	1	0.695375
19.316667	1	0.676375
19.333333	1	0.662125
19.350000	1	0.652250
19.366667	1	0.647625
19.383333	1	0.647625
19.400000	1	0.652625
19.416667	1	0.663000
19.433333	1	0.676750
19.450000	1	0.694750
19.466667	1	0.715875
19.483333	1	0.739750
19.500000	1	0.767000
19.516667	1	0.796000
19.533333	1	0.826875
19.550000	1	0.858500
19.566667	1	0.888750
19.583333	1	0.918125
19.600000	1	0.946625
19.616667	1	0.972000
19.633333	1	0.993500
19.650000	1	1.010500
19.666667	1	1.023250
19.683333	1	1.030250
19.700000	1	1.031875
19.716667	1	1.028625
19.733333	1	1.019250
19.750000	1	1.004375
19.766667	1	0.985125
19.783333	1	0.961750
19.800000	1	0.934375
19.816667	1	0.904750
19.833333	1	0.873875
19.850000	1	0.841500
19.866667	1	0.809125
19.883333	1	0.776625
19.900000	1	0.745375
19.916667	1	0.715000
19.933333	1	0.685625
19.950000	1	0.657750
19.966667	1	0.632875
19.983333	1	0.610250
20.000000	1	0.590000
20.016667	1	0.571125
20.033333	1	0.555500
20.050000	1	0.541750
20.066667	1	0.531125
20.083333	1	0.523375
20.100000	1	0.517875
20.116667	1	0.515250
20.133333	1	0.513875
20.150000	1	0.515500
20.166667	1	0.519250
20.183333	1	0.525250
20.200000	1	0.533250
20.216667	1	0.542750
20.233333	1	0.553625
20.250000	1	0.565500
20.266667	1	0.578875
20.283333	1	0.592250
20.300000	1	0.606500
20.316667	1	0.620000
20.333333	1	0.632500
20.350000	1	0.643750
20.366667	1	0.652750
20.383333	1	0.660125
20.400000	1	0.666000
20.416667	1	0.669375
20.433333	1	0.669875
20.450000	1	0.669500
20.466667	1	0.666375
20.483333	1	0.662125
20.500000	1	0.658375
20.516667	1	0.654375
20.533333	1	0.652250
20.550000	1	0.651750
20.566667	1	0.654000
20.583333	1	0.660875
20.600000	1	0.671875
20.616667	1	0.688750
20.633333	1	0.711875
20.650000	1	0.741375
20.666667	1	0.777750
20.683333	1	0.821375
20.700000	1	0.871000
20.716667	1	0.927250
20.733333	1	0.989125
20.750000	1	1.055375
20.766667	1	1.124875
20.783333	1	1.195875
20.800000	1	1.266750
20.816667	1	1.334750
20.833333	1	1.398250
20.850000	1	1.455375
20.866667	1	1.504000
20.883333	1	1.542000
20.900000	1	1.568250
20.916667	1	1.581750
20.933333	1	1.581625
20.950000	1	1.569125
20.966667	1	1.541875
20.983333	1	1.503125
21.000000	1	1.453375
21.016667	1	1.394125
21.033333	1	1.327750
21.050000	1	1.256250
21.066667	1	1.181750
21.083333	1	1.105375
21.100000	1	1.029250
21.116667	1	0.955750
21.133333	1	0.885250
21.150000	1	0.819250
21.166667	1	0.757875
21.183333	1	0.701250
21.200000	1	0.650375
21.216667	1	0.604875
21.233333	1	0.564125
21.250000	1	0.528375
21.266667	1	0.497125
21.283333	1	0.470500
21.300000	1	0.447625
21.316667	1	0.428375
21.333333	1	0.412125
21.350000	1	0.398250
21.366667	1	0.386625
21.383333	1	0.376375
21.400000	1	0.367875
21.416667	1	0.360125
21.433333	1	0.354500
21.450000	1	0.349375
21.466667	1	0.345500
21.483333	1	0.342000
21.500000	1	0.339750
21.516667	1	0.338250
21.533333	1	0.337500
21.550000	1	0.338125
21.566667	1	0.339750
21.583333	1	0.341875
21.600000	1	0.345875
21.616667	1	0.350875
21.633333	1	0.356875
21.650000	1	0.364875
21.666667	1	0.373875
21.683333	1	0.385875
21.700000	1	0.399000
21.716667	1	0.414250
21.733333	1	0.431625
21.750000	1	0.451750
21.766667	1	0.472750
21.783333	1	0.496625
21.800000	1	0.522500
21.816667	1	0.549875
21.833333	1	0.579250
21.850000	1	0.610375
21.866667	1	0.642625
21.883333	1	0.676625
21.900000	1	0.710500
21.916667	1	0.744875
21.933333	1	0.779000
21.950000	1	0.812250
21.966667	1	0.845000
21.983333	1	0.874875
22.000000	1	0.903250
22.016667	1	0.927750
22.033333	1	0.948750
22.050000	1	0.965250
22.066667	1	0.977500
22.083333	1	0.985375
22.100000	1	0.987875
22.116667	1	0.985250
22.133333	1	0.978750
22.150000	1	0.967500
22.166667	1	0.952500
22.183333	1	0.933375
22.200000	1	0.911250
22.216667	1	0.885125
22.233333	1	0.856750
22.250000	1	0.826750
22.266667	1	0.795375
22.283333	1	0.763125
22.300000	1	0.731000
22.316667	1	0.698500
22.333333	1	0.666125
22.350000	1	0.634625
22.366667	1	0.603500
22.383333	1	0.573500
22.400000	1	0.545125
22.416667	1	0.518125
22.433333	1	0.492875
22.450000	1	0.469250
22.466667	1	0.446625
22.483333	1	0.425750
22.500000	1	0.406125
22.516667	1	0.388500
22.533333	1	0.372625
22.550000	1	0.357500
22.566667	1	0.344000
22.583333	1	0.331500
22.600000	1	0.320625
22.616667	1	0.311125
22.633333	1	0.302000
22.650000	1	0.293250
22.666667	1	0.286000
22.683333	1	0.279125
22.700000	1	0.273125
22.716667	1	0.266875
22.733333	1	0.261375
22.750000	1	0.256875
22.766667	1	0.252250
22.783333	1	0.248625
22.800000	1	0.243875
22.816667	1	0.239750
22.833333	1	0.235875
22.850000	1	0.232500
22.866667	1	0.228625
22.883333	1	0.225500
22.900000	1	0.221750
22.916667	1	0.218375
22.933333	1	0.215750
22.950000	1	0.213500
22.966667	1	0.211500
22.983333	1	0.209750
23.000000	1	0.207875
23.016667	1	0.206750
23.033333	1	0.205375
23.050000	1	0.203875
23.066667	1	0.203750
23.083333	1	0.203875
23.100000	1	0.203875
23.116667	1	0.203750
23.133333	1	0.204000
23.150000	1	0.205375
23.166667	1	0.207250
23.183333	1	0.209250
23.200000	1	0.210875
23.216667	1	0.214250
23.233333	1	0.217375
23.250000	1	0.221000
23.266667	1	0.225375
23.283333	1	0.231250
23.300000	1	0.237625
23.316667	1	0.246000
23.333333	1	0.257000
23.350000	1	0.270000
23.366667	1	0.285500
23.383333	1	0.304625
23.400000	1	0.328250
23.416667	1	0.356375
23.433333	1	0.390500
23.450000	1	0.429875
23.466667	1	0.476750
23.483333	1	0.531000
23.500000	1	0.593500
23.516667	1	0.665750
23.533333	1	0.748375
23.550000	1	0.841750
23.566667	1	0.946375
23.583333	1	1.064375
23.600000	1	1.194875
23.616667	1	1.338375
23.633333	1	1.495250
23.650000	1	1.664875
23.666667	1	1.846625
23.683333	1	2.039875
23.700000	1	2.243000
23.716667	1	2.455000
23.733333	1	2.673000
23.750000	1	2.893750
23.766667	1	3.114375
23.783333	1	3.330250
23.800000	1	3.538375
23.816667	1	3.734500
23.833333	1	3.915000
23.850000	1	4.074875
23.866667	1	4.211875
23.883333	1	4.321500
23.900000	1	4.402125
23.916667	1	4.452125
23.933333	1	4.468375
23.950000	1	4.450750
23.966667	1	4.401500
23.983333	1	4.321625
24.000000	1	4.213125
24.016667	1	4.079000
24.033333	1	3.923125
24.050000	1	3.748625
24.066667	1	3.559625
24.083333	1	3.359625
24.100000	1	3.153375
24.116667	1	2.944000
24.133333	1	2.734500
24.150000	1	2.528750
24.166667	1	2.329250
24.183333	1	2.138000
24.200000	1	1.957000
24.216667	1	1.787500
24.233333	1	1.629875
24.250000	1	1.484750
24.266667	1	1.351250
24.283333	1	1.230500
24.300000	1	1.121500
24.316667	1	1.023375
24.333333	1	0.936375
24.350000	1	0.860125
24.366667	1	0.792875
24.383333	1	0.733000
24.400000	1	0.681125
24.416667	1	0.636500
24.433333	1	0.597375
24.450000	1	0.564250
24.466667	1	0.536250
24.483333	1	0.512000
24.500000	1	0.491250
24.516667	1	0.473625
24.533333	1	0.458250
24.550000	1	0.445125
24.566667	1	0.433875
24.583333	1	0.423500
24.600000	1	0.414125
24.616667	1	0.405250
24.633333	1	0.397250
24.650000	1	0.390000
24.666667	1	0.382625
24.683333	1	0.376250
24.700000	1	0.369125
24.716667	1	0.362375
24.733333	1	0.355875
24.750000	1	0.348875
24.766667	1	0.342125
24.783333	1	0.334875
24.800000	1	0.328250
24.816667	1	0.321750
24.833333	1	0.315125
24.850000	1	0.309125
24.866667	1	0.303375
24.883333	1	0.297750
24.900000	1	0.291750
24.916667	1	0.286000
24.933333	1	0.281125
24.950000	1	0.275375
24.966667	1	0.270375
24.983333	1	0.265250
25.000000	1	0.261000
25.016667	1	0.256625
25.033333	1	0.253375
25.050000	1	0.250000
25.066667	1	0.246625
25.083333	1	0.242750
25.100000	1	0.239875
25.116667	1	0.236875
25.133333	1	0.233500
25.150000	1	0.230000
25.166667	1	0.227000
25.183333	1	0.224125
25.200000	1	0.221625
25.216667	1	0.219375
25.233333	1	0.216875
25.250000	1	0.214750
25.266667	1	0.212500
25.283333	1	0.209750
25.300000	1	0.207500
25.316667	1	0.205375
25.333333	1	0.203250
25.350000	1	0.201500
25.366667	1	0.199500
25.383333	1	0.197625
25.400000	1	0.196125
25.416667	1	0.194750
25.433333	1	0.193375
25.450000	1	0.192000
25.466667	1	0.191250
25.483333	1	0.190000
25.500000	1	0.189875
25.516667	1	0.189250
25.533333	1	0.189125
25.550000	1	0.188625
25.566667	1	0.188000
25.583333	1	0.188000
25.600000	1	0.187875
25.616667	1	0.188500
25.633333	1	0.189125
25.650000	1	0.190125
25.666667	1	0.190875
25.683333	1	0.191625
25.700000	1	0.192250
25.716667	1	0.192625
25.733333	1	0.194125
25.750000	1	0.195750
25.766667	1	0.197375
25.783333	1	0.199125
25.800000	1	0.200875
25.816667	1	0.203375
25.833333	1	0.205750
25.850000	1	0.208625
25.866667	1	0.211875
25.883333	1	0.215375
25.900000	1	0.219250
25.916667	1	0.223375
25.933333	1	0.227500
25.950000	1	0.231875
25.966667	1	0.236875
25.983333	1	0.242500
26.000000	1	0.247375
26.016667	1	0.252375
26.033333	1	0.257750
26.050000	1	0.262875
26.066667	1	0.268625
26.083333	1	0.274500
26.100000	1	0.280000
26.116667	1	0.285375
26.133333	1	0.290625
26.150000	1	0.295000
26.166667	1	0.299500
26.183333	1	0.303125
26.200000	1	0.306500
26.216667	1	0.308875
26.233333	1	0.311625
26.250000	1	0.313375
26.266667	1	0.314250
26.283333	1	0.314250
26.300000	1	0.313375
26.316667	1	0.311625
26.333333	1	0.309000
26.350000	1	0.306125
26.366667	1	0.303250
26.383333	1	0.299125
26.400000	1	0.294750
26.416667	1	0.289625
26.433333	1	0.284000
26.450000	1	0.277500
26.466667	1	0.271500
26.483333	1	0.264750
26.500000	1	0.258000
26.516667	1	0.250875
26.533333	1	0.243625
26.550000	1	0.236250
26.566667	1	0.228750
26.583333	1	0.221625
26.600000	1	0.213750
26.616667	1	0.206125
26.633333	1	0.199375
26.650000	1	0.192750
26.666667	1	0.185875
26.683333	1	0.179625
26.700000	1	0.173750
26.716667	1	0.168125
26.733333	1	0.162750
26.750000	1	0.157875
26.766667	1	0.154125
26.783333	1	0.150000
26.800000	1	0.145750
26.816667	1	0.142875
26.833333	1	0.140375
26.850000	1	0.138250
26.866667	1	0.136375
26.883333	1	0.135000
26.900000	1	0.133875
26.916667	1	0.133500
26.933333	1	0.133375
26.950000	1	0.134000
26.966667	1	0.134500
26.983333	1	0.136125
27.000000	1	0.138500
27.016667	1	0.141000
27.033333	1	0.144625
27.050000	1	0.147875
27.066667	1	0.152375
27.083333	1	0.158125
27.100000	1	0.164375
27.116667	1	0.171625
27.133333	1	0.180375
27.150000	1	0.190000
27.166667	1	0.201125
27.183333	1	0.214375
27.200000	1	0.229750
27.216667	1	0.247000
27.233333	1	0.267500
27.250000	1	0.289875
27.266667	1	0.316125
27.283333	1	0.345500
27.300000	1	0.378625
27.316667	1	0.416125
27.333333	1	0.458250
27.350000	1	0.505500
27.366667	1	0.558500
27.383333	1	0.617625
27.400000	1	0.682625
27.416667	1	0.754875
27.433333	1	0.833875
27.450000	1	0.920375
27.466667	1	1.015500
27.483333	1	1.118000
27.500000	1	1.228875
27.516667	1	1.347375
27.533333	1	1.473875
27.550000	1	1.608125
27.566667	1	1.749250
27.583333	1	1.897375
27.600000	1	2.050750
27.616667	1	2.209625
27.633333	1	2.371750
27.650000	1	2.535625
27.666667	1	2.701000
27.683333	1	2.865000
27.700000	1	3.026500
27.716667	1	3.182000
27.733333	1	3.329875
27.750000	1	3.468375
27.766667	1	3.594875
27.783333	1	3.707375
27.800000	1	3.802500
27.816667	1	3.879875
27.833333	1	3.938250
27.850000	1	3.975375
27.866667	1	3.990500
27.883333	1	3.984250
27.900000	1	3.954125
27.916667	1	3.901875
27.933333	1	3.827750
27.950000	1	3.733750
27.966667	1	3.621125
27.983333	1	3.491750
28.000000	1	3.347500
28.016667	1	3.191625
28.033333	1	3.026625
28.050000	1	2.854250
28.066667	1	2.677125
28.083333	1	2.498500
28.100000	1	2.320375
28.116667	1	2.144750
28.133333	1	1.974500
28.150000	1	1.810375
28.166667	1	1.654875
28.183333	1	1.508375
28.200000	1	1.371375
28.216667	1	1.244375
28.233333	1	1.127125
28.250000	1	1.021375
28.266667	1	0.925500
28.283333	1	0.838750
28.300000	1	0.762125
28.316667	1	0.694750
28.333333	1	0.635000
28.350000	1	0.583875
28.366667	1	0.540625
28.383333	1	0.503500
28.400000	1	0.472625
28.416667	1	0.447250
28.433333	1	0.427125
28.450000	1	0.412000
28.466667	1	0.400375
28.483333	1	0.392625
28.500000	1	0.387125
28.516667	1	0.384750
28.533333	1	0.385375
28.550000	1	0.386500
28.566667	1	0.389750
28.583333	1	0.395000
28.600000	1	0.401250
28.616667	1	0.408750
28.633333	1	0.417500
28.650000	1	0.425500
28.666667	1	0.434000
28.683333	1	0.442500
28.700000	1	0.451500
28.716667	1	0.460500
28.733333	1	0.468250
28.750000	1	0.476125
28.766667	1	0.483375
28.783333	1	0.490250
28.800000	1	0.495500
28.816667	1	0.500625
28.833333	1	0.505125
28.850000	1	0.509250
28.866667	1	0.511375
28.883333	1	0.512875
28.900000	1	0.513375
28.916667	1	0.511875
28.933333	1	0.509625
28.950000	1	0.507375
28.966667	1	0.503500
28.983333	1	0.498500
29.000000	1	0.493125
29.016667	1	0.486125
29.033333	1	0.478625
29.050000	1	0.470625
29.066667	1	0.461375
29.083333	1	0.451750
29.100000	1	0.441750
29.116667	1	0.431000
29.133333	1	0.419375
29.150000	1	0.406750
29.166667	1	0.394500
29.183333	1	0.381750
29.200000	1	0.368750
29.216667	1	0.356125
29.233333	1	0.343000
29.250000	1	0.330250
29.266667	1	0.316875
29.283333	1	0.304000
29.300000	1	0.291000
29.316667	1	0.278125
29.333333	1	0.266125
29.350000	1	0.254000
29.366667	1	0.242375
29.383333	1	0.231000
29.400000	1	0.219875
29.416667	1	0.209625
29.433333	1	0.199125
29.450000	1	0.189125
29.466667	1	0.178750
29.483333	1	0.169500
29.500000	1	0.160875
29.516667	1	0.152625
29.533333	1	0.145000
29.550000	1	0.136875
29.566667	1	0.130000
29.583333	1	0.122500
29.600000	1	0.116375
29.616667	1	0.110750
29.633333	1	0.105375
29.650000	1	0.100375
29.666667	1	0.095250
29.683333	1	0.090000
29.700000	1	0.085625
29.716667	1	0.081625
29.733333	1	0.078125
29.750000	1	0.074750
29.766667	1	0.072750
29.783333	1	0.070750
29.800000	1	0.068000
29.816667	1	0.065250
29.833333	1	0.063250
29.850000	1	0.061500
29.866667	1	0.060250
29.883333	1	0.059125
29.900000	1	0.057875
29.916667	1	0.056000
29.933333	1	0.054750
29.950000	1	0.053625
29.966667	1	0.052625
29.983333	1	0.051875
30.000000	1	0.050750
30.016667	1	0.049625
30.033333	1	0.048375
30.050000	1	0.047625
30.066667	1	0.047125
30.083333	1	0.046375
30.100000	1	0.044875
30.116667	1	0.044125
30.133333	1	0.042875
30.150000	1	0.042125
30.166667	1	0.041750
30.183333	1	0.041375
30.200000	1	0.041125
30.216667	1	0.040250
30.233333	1	0.039625
30.250000	1	0.039000
30.266667	1	0.039250
30.283333	1	0.038500
30.300000	1	0.039000
30.316667	1	0.039125
30.333333	1	0.039500
30.350000	1	0.040250
30.366667	1	0.041500
30.383333	1	0.043375
30.400000	1	0.045125
30.416667	1	0.047625
30.433333	1	0.050500
30.450000	1	0.053250
30.466667	1	0.056625
30.483333	1	0.060250
30.500000	1	0.064625
30.516667	1	0.069750
30.533333	1	0.075000
30.550000	1	0.080750
30.566667	1	0.087375
30.583333	1	0.094625
30.600000	1	0.102500
30.616667	1	0.111125
30.633333	1	0.120375
30.650000	1	0.132000
30.666667	1	0.144000
30.683333	1	0.157750
30.700000	1	0.171625
30.716667	1	0.187875
30.733333	1	0.205000
30.750000	1	0.224375
30.766667	1	0.245750
30.783333	1	0.269375
30.800000	1	0.295875
30.816667	1	0.325000
30.833333	1	0.358125
30.850000	1	0.394875
30.866667	1	0.435875
30.883333	1	0.481750
30.900000	1	0.532250
30.916667	1	0.588250
30.933333	1	0.650875
30.950000	1	0.719875
30.966667	1	0.796750
30.983333	1	0.880750
31.000000	1	0.974000
31.016667	1	1.075375
31.033333	1	1.187125
31.050000	1	1.308375
31.066667	1	1.439750
31.083333	1	1.581125
31.100000	1	1.733625
31.116667	1	1.896250
31.133333	1	2.069125
31.150000	1	2.252250
31.166667	1	2.444125
31.183333	1	2.645000
31.200000	1	2.854750
31.216667	1	3.071000
31.233333	1	3.292000
31.250000	1	3.516500
31.266667	1	3.742375
31.283333	1	3.968000
31.300000	1	4.191375
31.316667	1	4.409125
31.333333	1	4.618375
31.350000	1	4.817875
31.366667	1	5.005625
31.383333	1	5.178375
31.400000	1	5.333625
31.416667	1	5.470250
31.433333	1	5.585625
31.450000	1	5.678375
31.466667	1	5.746875
31.483333	1	5.790250
31.500000	1	5.807500
31.516667	1	5.799375
31.533333	1	5.765875
31.550000	1	5.706750
31.566667	1	5.624375
31.583333	1	5.518875
31.600000	1	5.392625
31.616667	1	5.245625
31.633333	1	5.082000
31.650000	1	4.902250
31.666667	1	4.709875
31.683333	1	4.507250
31.700000	1	4.296625
31.716667	1	4.079750
31.733333	1	3.859875
31.750000	1	3.638125
31.766667	1	3.417625
31.783333	1	3.198750
31.800000	1	2.983500
31.816667	1	2.774500
31.833333	1	2.571750
31.850000	1	2.376625
31.866667	1	2.190375
31.883333	1	2.013500
31.900000	1	1.846375
31.916667	1	1.690000
31.933333	1	1.543500
31.950000	1	1.407375
31.966667	1	1.280875
31.983333	1	1.164750
32.000000	1	1.056875
32.016667	1	0.957875
32.033333	1	0.868125
32.050000	1	0.786750
32.066667	1	0.712500
32.083333	1	0.644750
32.100000	1	0.584500
32.116667	1	0.529625
32.133333	1	0.480625
32.150000	1	0.437375
32.166667	1	0.398375
32.183333	1	0.362625
32.200000	1	0.331500
32.216667	1	0.303375
32.233333	1	0.278375
32.250000	1	0.254875
32.266667	1	0.235125
32.283333	1	0.217000
32.300000	1	0.201375
32.316667	1	0.187625
32.333333	1	0.174875
32.350000	1	0.163000
32.366667	1	0.151750
32.383333	1	0.141875
32.400000	1	0.133000
32.416667	1	0.125375
32.433333	1	0.117750
32.450000	1	0.110375
32.466667	1	0.104000
32.483333	1	0.098125
32.500000	1	0.092750
32.516667	1	0.087250
32.533333	1	0.082750
32.550000	1	0.078250
32.566667	1	0.074750
32.583333	1	0.071250
32.600000	1	0.067625
32.616667	1	0.064125
32.633333	1	0.060500
32.650000	1	0.057750
32.666667	1	0.055125
32.683333	1	0.052625
32.700000	1	0.050375
32.716667	1	0.048375
32.733333	1	0.047250
32.750000	1	0.044625
32.766667	1	0.043250
32.783333	1	0.042375
32.800000	1	0.041750
32.816667	1	0.041250
32.833333	1	0.040000
32.850000	1	0.039125
32.866667	1	0.038250
32.883333	1	0.037625
32.900000	1	0.037750
32.916667	1	0.037125
32.933333	1	0.037500
32.950000	1	0.038375
32.966667	1	0.038875
32.983333	1	0.038875
33.000000	1	0.038625
33.016667	1	0.038625
33.033333	1	0.038750
33.050000	1	0.039625
33.066667	1	0.040125
33.083333	1	0.041250
33.100000	1	0.042125
33.116667	1	0.043125
33.133333	1	0.045125
33.150000	1	0.047125
33.166667	1	0.048875
33.183333	1	0.051000
33.200000	1	0.053250
33.216667	1	0.055125
33.233333	1	0.058125
33.250000	1	0.062000
33.266667	1	0.065625
33.283333	1	0.070000
33.300000	1	0.074750
33.316667	1	0.079875
33.333333	1	0.085875
33.350000	1	0.092375
33.366667	1	0.099875
33.383333	1	0.108250
33.400000	1	0.117250
33.416667	1	0.127375
33.433333	1	0.138250
33.450000	1	0.150500
33.466667	1	0.163750
33.483333	1	0.178750
33.500000	1	0.194625
33.516667	1	0.211875
33.533333	1	0.231125
33.550000	1	0.252000
33.566667	1	0.273875
33.583333	1	0.297625
33.600000	1	0.323625
33.616667	1	0.350750
33.633333	1	0.379875
33.650000	1	0.410125
33.666667	1	0.442875
33.683333	1	0.476500
33.700000	1	0.511875
33.716667	1	0.548750
33.733333	1	0.587625
33.750000	1	0.627250
33.766667	1	0.668125
33.783333	1	0.709375
33.800000	1	0.751500
33.816667	1	0.794000
33.833333	1	0.836375
33.850000	1	0.878000
33.866667	1	0.919375
33.883333	1	0.960125
33.900000	1	0.998500
33.916667	1	1.035625
33.933333	1	1.070750
33.950000	1	1.103375
33.966667	1	1.132875
33.983333	1	1.159500
34.000000	1	1.183125
34.016667	1	1.203000
34.033333	1	1.218500
34.050000	1	1.229125
34.066667	1	1.236625
34.083333	1	1.239125
34.100000	1	1.238000
34.116667	1	1.232625
34.133333	1	1.223375
34.150000	1	1.208000
34.166667	1	1.190000
34.183333	1	1.168625
34.200000	1	1.143625
34.216667	1	1.114875
34.233333	1	1.084000
34.250000	1	1.050750
34.266667	1	1.015500
34.283333	1	0.978125
34.300000	1	0.939875
34.316667	1	0.900875
34.333333	1	0.861125
34.350000	1	0.821000
34.366667	1	0.780875
34.383333	1	0.739875
34.400000	1	0.700500
34.416667	1	0.662750
34.433333	1	0.625125
34.450000	1	0.589000
34.466667	1	0.554500
34.483333	1	0.521625
34.500000	1	0.490125
34.516667	1	0.460500
34.533333	1	0.432500
34.550000	1	0.406125
34.566667	1	0.381250
34.583333	1	0.358125
34.600000	1	0.337000
34.616667	1	0.317125
34.633333	1	0.299250
34.650000	1	0.282250
34.666667	1	0.266750
34.683333	1	0.252750
34.700000	1	0.239875
34.716667	1	0.228250
34.733333	1	0.218000
34.750000	1	0.207625
34.766667	1	0.198375
34.783333	1	0.190500
34.800000	1	0.183500
34.816667	1	0.176750
34.833333	1	0.170125
34.850000	1	0.164750
34.866667	1	0.159500
34.883333	1	0.154125
34.900000	1	0.149625
34.916667	1	0.145625
34.933333	1	0.142250
34.950000	1	0.139125
34.966667	1	0.136125
34.983333	1	0.133250
35.000000	1	0.130875
35.016667	1	0.128625
35.033333	1	0.126500
35.050000	1	0.124375
35.066667	1	0.122625
35.083333	1	0.121250
35.100000	1	0.119875
35.116667	1	0.118750
35.133333	1	0.118250
35.150000	1	0.117375
35.166667	1	0.116625
35.183333	1	0.116250
35.200000	1	0.116000
35.216667	1	0.115000
35.233333	1	0.115250
35.250000	1	0.115250
35.266667	1	0.115250
35.283333	1	0.115125
35.300000	1	0.115125
35.316667	1	0.115625
35.333333	1	0.116500
35.350000	1	0.117250
35.366667	1	0.117875
35.383333	1	0.119250
35.400000	1	0.119875
35.416667	1	0.121000
35.433333	1	0.121375
35.450000	1	0.122125
35.466667	1	0.122750
35.483333	1	0.123375
35.500000	1	0.124625
35.516667	1	0.126125
35.533333	1	0.126625
35.550000	1	0.127625
35.566667	1	0.128750
35.583333	1	0.128750
35.600000	1	0.129625
35.616667	1	0.129750
35.633333	1	0.130125
35.650000	1	0.130500
35.666667	1	0.130625
35.683333	1	0.130875
35.700000	1	0.131000
35.716667	1	0.131125
35.733333	1	0.131500
35.750000	1	0.131000
35.766667	1	0.130625
35.783333	1	0.130500
35.800000	1	0.130500
35.816667	1	0.129750
35.833333	1	0.129125
35.850000	1	0.128875
35.866667	1	0.128250
35.883333	1	0.127750
35.900000	1	0.126875
35.916667	1	0.126000
35.933333	1	0.125125
35.950000	1	0.124875
35.966667	1	0.124625
35.983333	1	0.123500
36.000000	1	0.123000
36.016667	1	0.121500
36.033333	1	0.120625
36.050000	1	0.119000
36.066667	1	0.118125
36.083333	1	0.116750
36.100000	1	0.115750
36.116667	1	0.114625
36.133333	1	0.112875
36.150000	1	0.111375
36.166667	1	0.109875
36.183333	1	0.108625
36.200000	1	0.107375
36.216667	1	0.105625
36.233333	1	0.104000
36.250000	1	0.101875
36.266667	1	0.100500
36.283333	1	0.099750
36.300000	1	0.098500
36.316667	1	0.096625
36.333333	1	0.094250
36.350000	1	0.092500
36.366667	1	0.090625
36.383333	1	0.088625
36.400000	1	0.086375
36.416667	1	0.083500
36.433333	1	0.080875
36.450000	1	0.078625
36.466667	1	0.076125
36.483333	1	0.073750
36.500000	1	0.070875
36.516667	1	0.068250
36.533333	1	0.066375
36.550000	1	0.063875
36.566667	1	0.061000
36.583333	1	0.058250
36.600000	1	0.055125
36.616667	1	0.053000
36.633333	1	0.050250
36.650000	1	0.047625
36.666667	1	0.045625
36.683333	1	0.043375
36.700000	1	0.041875
36.716667	1	0.039750
36.733333	1	0.038125
36.750000	1	0.035875
36.766667	1	0.034250
36.783333	1	0.032375
36.800000	1	0.031375
36.816667	1	0.030750
36.833333	1	0.030000
36.850000	1	0.029250
36.866667	1	0.028375
36.883333	1	0.027750
36.900000	1	0.027875
36.916667	1	0.027625
36.933333	1	0.027625
36.950000	1	0.027375
36.966667	1	0.027125
36.983333	1	0.027375
37.000000	1	0.027875
37.016667	1	0.028375
37.033333	1	0.029000
37.050000	1	0.029500
37.066667	1	0.030750
37.083333	1	0.031000
37.100000	1	0.031875
37.116667	1	0.032750
37.133333	1	0.033625
37.150000	1	0.034000
37.166667	1	0.034750
37.183333	1	0.035875
37.200000	1	0.036500
37.216667	1	0.037750
37.233333	1	0.039250
37.250000	1	0.040375
37.266667	1	0.041625
37.283333	1	0.042500
37.300000	1	0.043500
37.316667	1	0.044125
37.333333	1	0.045125
37.350000	1	0.045875
37.366667	1	0.047125
37.383333	1	0.047875
37.400000	1	0.048125
37.416667	1	0.049125
37.433333	1	0.050000
37.450000	1	0.049625
37.466667	1	0.050500
37.483333	1	0.050625
37.500000	1	0.051125
37.516667	1	0.051125
37.533333	1	0.051875
37.550000	1	0.052125
37.566667	1	0.051750
37.583333	1	0.051250
37.600000	1	0.051125
37.616667	1	0.050625
37.633333	1	0.050250
37.650000	1	0.050250
37.666667	1	0.050000
37.683333	1	0.049625
37.700000	1	0.049125
37.716667	1	0.048375
37.733333	1	0.046625
37.750000	1	0.045500
37.766667	1	0.044125
37.783333	1	0.042500
37.800000	1	0.040375
37.816667	1	0.039250
37.833333	1	0.038250
37.850000	1	0.037000
37.866667	1	0.035625
37.883333	1	0.033750
37.900000	1	0.032125
37.916667	1	0.030250
37.933333	1	0.029000
37.950000	1	0.028125
37.966667	1	0.026625
37.983333	1	0.025750
38.000000	1	0.024875
38.016667	1	0.023250
38.033333	1	0.022375
38.050000	1	0.021375
38.066667	1	0.020750
38.083333	1	0.020875
38.100000	1	0.020875
38.116667	1	0.020250
38.133333	1	0.020000
38.150000	1	0.019375
38.166667	1	0.019500
38.183333	1	0.020500
38.200000	1	0.020625
38.216667	1	0.020750
38.233333	1	0.021375
38.250000	1	0.022000
38.266667	1	0.023625
38.283333	1	0.024750
38.300000	1	0.025625
38.316667	1	0.026875
38.333333	1	0.028625
38.350000	1	0.029500
38.366667	1	0.030000
38.383333	1	0.031500
38.400000	1	0.032875
38.416667	1	0.034000
38.433333	1	0.035375
38.450000	1	0.036250
38.466667	1	0.036750
38.483333	1	0.037750
38.500000	1	0.039000
38.516667	1	0.039625
38.533333	1	0.041125
38.550000	1	0.041625
38.566667	1	0.041750
38.583333	1	0.042875
38.600000	1	0.043125
38.616667	1	0.043500
38.633333	1	0.043125
38.650000	1	0.043875
38.666667	1	0.044125
38.683333	1	0.043375
38.700000	1	0.043250
38.716667	1	0.043125
38.733333	1	0.042625
38.750000	1	0.042500
38.766667	1	0.041875
38.783333	1	0.041500
38.800000	1	0.041625
38.816667	1	0.040500
38.833333	1	0.040250
38.850000	1	0.040125
38.866667	1	0.039750
38.883333	1	0.039500
38.900000	1	0.038625
38.916667	1	0.037625
38.933333	1	0.037625
38.950000	1	0.037375
38.966667	1	0.036500
38.983333	1	0.035875
39.000000	1	0.035500
39.016667	1	0.035875
39.033333	1	0.035500
39.050000	1	0.035750
39.066667	1	0.035375
39.083333	1	0.034125
39.100000	1	0.033375
39.116667	1	0.033000
39.133333	1	0.032250
39.150000	1	0.032000
39.166667	1	0.031875
39.183333	1	0.031625
39.200000	1	0.030750
39.216667	1	0.030125
39.233333	1	0.029125
39.250000	1	0.028000
39.266667	1	0.028125
39.283333	1	0.026875
39.300000	1	0.025000
39.316667	1	0.023250
39.333333	1	0.022250
39.350000	1	0.020750
39.366667	1	0.019625
39.383333	1	0.018375
39.400000	1	0.017125
39.416667	1	0.016000
39.433333	1	0.014625
39.450000	1	0.013875
39.466667	1	0.012250
39.483333	1	0.010625
39.500000	1	0.009875
39.516667	1	0.008750
39.533333	1	0.007625
39.550000	1	0.007125
39.566667	1	0.006250
39.583333	1	0.005375
39.600000	1	0.004500
39.616667	1	0.004375
39.633333	1	0.004250
39.650000	1	0.004250
39.666667	1	0.003875
39.683333	1	0.004125
39.700000	1	0.004875
39.716667	1	0.005000
39.733333	1	0.004750
39.750000	1	0.006000
39.766667	1	0.005625
39.783333	1	0.005875
39.800000	1	0.005875
39.816667	1	0.006750
39.833333	1	0.007125
39.850000	1	0.008125
39.866667	1	0.008875
39.883333	1	0.010000
39.900000	1	0.010875
39.916667	1	0.011375
39.933333	1	0.012125
39.950000	1	0.013000
39.966667	1	0.013125
39.983333	1	0.013625
40.000000	1	0.014250
