URL	chrom://bioreactor/micro_cm7/HPLC_Ultimate_3000/Users/markusar/20240708_MA_pHrange1.seq/230.smp/RI_1.channel/RI_1.chm
Channel	RI_1

Injection Information:
Data Vault	micro_cm7
Sequence	20240708_MA_pHrange1
Name	Fp2_5.7_3
Number	65
Position	BF7
Comment	
Processing Method	
Instrument Method	run_25B_method
Type	Unknown
Status	Finished
Inject Time	10.07.2024 11:16:44 +02:00
Volume (µl)	20.0000
Dilution Factor	1.0000
Weight	1.0000

Chromatogram Data Information:
Time Min. (min)	0.000000
Time Max. (min)	40.000000
Data Points	2401
Detector	RI
Generating Data System	Chromeleon 7.3.2.11814
Exporting Data System	Chromeleon 7.3.2.0
Operator	Instrument Controller
Signal Quantity	Refractive 
Signal Unit	µRIU
Signal Min.	-0.090625
Signal Max.	78.493375
Channel	RI_1
Driver Name	RID520Driver.dll
Channel Type	Evaluation
Min. Step (s)	1
Max. Step (s)	1
Average Step (s)	1

Signal Parameter Information:
Signal Info	

Chromatogram Data:
Time (min)	Step (s)	Value (µRIU)
0.000000	n.a.	-0.017500
0.016667	1	-0.017500
0.033333	1	-0.017625
0.050000	1	-0.017000
0.066667	1	-0.017125
0.083333	1	-0.017250
0.100000	1	-0.017125
0.116667	1	-0.017000
0.133333	1	-0.016500
0.150000	1	-0.015250
0.166667	1	-0.014875
0.183333	1	-0.014000
0.200000	1	-0.013125
0.216667	1	-0.011625
0.233333	1	-0.010375
0.250000	1	-0.008500
0.266667	1	-0.006875
0.283333	1	-0.005250
0.300000	1	-0.003375
0.316667	1	-0.001000
0.333333	1	0.000750
0.350000	1	0.002125
0.366667	1	0.003625
0.383333	1	0.005125
0.400000	1	0.006250
0.416667	1	0.008750
0.433333	1	0.011875
0.450000	1	0.015750
0.466667	1	0.019500
0.483333	1	0.022750
0.500000	1	0.026000
0.516667	1	0.029000
0.533333	1	0.031250
0.550000	1	0.032875
0.566667	1	0.033250
0.583333	1	0.032375
0.600000	1	0.031875
0.616667	1	0.031625
0.633333	1	0.032250
0.650000	1	0.032375
0.666667	1	0.033250
0.683333	1	0.034375
0.700000	1	0.035375
0.716667	1	0.035625
0.733333	1	0.035875
0.750000	1	0.036125
0.766667	1	0.036625
0.783333	1	0.036750
0.800000	1	0.036750
0.816667	1	0.036500
0.833333	1	0.037000
0.850000	1	0.036500
0.866667	1	0.036875
0.883333	1	0.036625
0.900000	1	0.036125
0.916667	1	0.035125
0.933333	1	0.034250
0.950000	1	0.033125
0.966667	1	0.032375
0.983333	1	0.031625
1.000000	1	0.029875
1.016667	1	0.028875
1.033333	1	0.027875
1.050000	1	0.027000
1.066667	1	0.025625
1.083333	1	0.024375
1.100000	1	0.022750
1.116667	1	0.021000
1.133333	1	0.019625
1.150000	1	0.018000
1.166667	1	0.016250
1.183333	1	0.014625
1.200000	1	0.012250
1.216667	1	0.011000
1.233333	1	0.009000
1.250000	1	0.007000
1.266667	1	0.004875
1.283333	1	0.002875
1.300000	1	0.000875
1.316667	1	-0.001125
1.333333	1	-0.002500
1.350000	1	-0.004125
1.366667	1	-0.006625
1.383333	1	-0.009500
1.400000	1	-0.011500
1.416667	1	-0.013500
1.433333	1	-0.015625
1.450000	1	-0.017125
1.466667	1	-0.018625
1.483333	1	-0.019625
1.500000	1	-0.021375
1.516667	1	-0.022500
1.533333	1	-0.024125
1.550000	1	-0.025125
1.566667	1	-0.025250
1.583333	1	-0.026000
1.600000	1	-0.026750
1.616667	1	-0.027250
1.633333	1	-0.027500
1.650000	1	-0.027125
1.666667	1	-0.027625
1.683333	1	-0.026750
1.700000	1	-0.026500
1.716667	1	-0.026250
1.733333	1	-0.026000
1.750000	1	-0.025375
1.766667	1	-0.024875
1.783333	1	-0.024375
1.800000	1	-0.023125
1.816667	1	-0.022125
1.833333	1	-0.020875
1.850000	1	-0.020000
1.866667	1	-0.019250
1.883333	1	-0.018125
1.900000	1	-0.016875
1.916667	1	-0.016000
1.933333	1	-0.014875
1.950000	1	-0.014375
1.966667	1	-0.013750
1.983333	1	-0.012625
2.000000	1	-0.011750
2.016667	1	-0.011000
2.033333	1	-0.010750
2.050000	1	-0.010500
2.066667	1	-0.009500
2.083333	1	-0.009875
2.100000	1	-0.010625
2.116667	1	-0.011250
2.133333	1	-0.012250
2.150000	1	-0.013000
2.166667	1	-0.014125
2.183333	1	-0.015250
2.200000	1	-0.015750
2.216667	1	-0.016500
2.233333	1	-0.018125
2.250000	1	-0.019875
2.266667	1	-0.021125
2.283333	1	-0.022250
2.300000	1	-0.023500
2.316667	1	-0.025500
2.333333	1	-0.027500
2.350000	1	-0.029750
2.366667	1	-0.032125
2.383333	1	-0.033375
2.400000	1	-0.035750
2.416667	1	-0.037750
2.433333	1	-0.039500
2.450000	1	-0.041000
2.466667	1	-0.042125
2.483333	1	-0.043000
2.500000	1	-0.043875
2.516667	1	-0.044750
2.533333	1	-0.045625
2.550000	1	-0.046625
2.566667	1	-0.047250
2.583333	1	-0.047625
2.600000	1	-0.048375
2.616667	1	-0.047625
2.633333	1	-0.047375
2.650000	1	-0.047000
2.666667	1	-0.046375
2.683333	1	-0.045625
2.700000	1	-0.044500
2.716667	1	-0.043750
2.733333	1	-0.043250
2.750000	1	-0.041750
2.766667	1	-0.041125
2.783333	1	-0.040000
2.800000	1	-0.038750
2.816667	1	-0.037500
2.833333	1	-0.035625
2.850000	1	-0.034625
2.866667	1	-0.032875
2.883333	1	-0.031500
2.900000	1	-0.030500
2.916667	1	-0.029125
2.933333	1	-0.028125
2.950000	1	-0.026875
2.966667	1	-0.025625
2.983333	1	-0.024500
3.000000	1	-0.022000
3.016667	1	-0.021500
3.033333	1	-0.020375
3.050000	1	-0.018875
3.066667	1	-0.018125
3.083333	1	-0.015875
3.100000	1	-0.015250
3.116667	1	-0.014000
3.133333	1	-0.012500
3.150000	1	-0.012000
3.166667	1	-0.010625
3.183333	1	-0.009625
3.200000	1	-0.008125
3.216667	1	-0.006375
3.233333	1	-0.005000
3.250000	1	-0.003500
3.266667	1	-0.001375
3.283333	1	0.000000
3.300000	1	0.002000
3.316667	1	0.004125
3.333333	1	0.006000
3.350000	1	0.007500
3.366667	1	0.009375
3.383333	1	0.011375
3.400000	1	0.013375
3.416667	1	0.015000
3.433333	1	0.017500
3.450000	1	0.019625
3.466667	1	0.021000
3.483333	1	0.022375
3.500000	1	0.023875
3.516667	1	0.025375
3.533333	1	0.026875
3.550000	1	0.028625
3.566667	1	0.029750
3.583333	1	0.031375
3.600000	1	0.032750
3.616667	1	0.034125
3.633333	1	0.035500
3.650000	1	0.036625
3.666667	1	0.037750
3.683333	1	0.039000
3.700000	1	0.039625
3.716667	1	0.040375
3.733333	1	0.040375
3.750000	1	0.040500
3.766667	1	0.041000
3.783333	1	0.041250
3.800000	1	0.041875
3.816667	1	0.042125
3.833333	1	0.043125
3.850000	1	0.043125
3.866667	1	0.043250
3.883333	1	0.043500
3.900000	1	0.043375
3.916667	1	0.042625
3.933333	1	0.042625
3.950000	1	0.042125
3.966667	1	0.042125
3.983333	1	0.041875
4.000000	1	0.042125
4.016667	1	0.041750
4.033333	1	0.041375
4.050000	1	0.041250
4.066667	1	0.041000
4.083333	1	0.040125
4.100000	1	0.040250
4.116667	1	0.040125
4.133333	1	0.040000
4.150000	1	0.040125
4.166667	1	0.040875
4.183333	1	0.040875
4.200000	1	0.041375
4.216667	1	0.041875
4.233333	1	0.042500
4.250000	1	0.043375
4.266667	1	0.044000
4.283333	1	0.045125
4.300000	1	0.045500
4.316667	1	0.046125
4.333333	1	0.046875
4.350000	1	0.047625
4.366667	1	0.048500
4.383333	1	0.049750
4.400000	1	0.051375
4.416667	1	0.051875
4.433333	1	0.052625
4.450000	1	0.053750
4.466667	1	0.054875
4.483333	1	0.056000
4.500000	1	0.056750
4.516667	1	0.058125
4.533333	1	0.059875
4.550000	1	0.061250
4.566667	1	0.062250
4.583333	1	0.063875
4.600000	1	0.065875
4.616667	1	0.067625
4.633333	1	0.068375
4.650000	1	0.069750
4.666667	1	0.071125
4.683333	1	0.073000
4.700000	1	0.074500
4.716667	1	0.076750
4.733333	1	0.078250
4.750000	1	0.080000
4.766667	1	0.082125
4.783333	1	0.084500
4.800000	1	0.087250
4.816667	1	0.089500
4.833333	1	0.092125
4.850000	1	0.094125
4.866667	1	0.097125
4.883333	1	0.099625
4.900000	1	0.101750
4.916667	1	0.104875
4.933333	1	0.108500
4.950000	1	0.110750
4.966667	1	0.113625
4.983333	1	0.117250
5.000000	1	0.121375
5.016667	1	0.125250
5.033333	1	0.129000
5.050000	1	0.132625
5.066667	1	0.137000
5.083333	1	0.140500
5.100000	1	0.144375
5.116667	1	0.148000
5.133333	1	0.151750
5.150000	1	0.156250
5.166667	1	0.159750
5.183333	1	0.163375
5.200000	1	0.167250
5.216667	1	0.171500
5.233333	1	0.175250
5.250000	1	0.179125
5.266667	1	0.181750
5.283333	1	0.184500
5.300000	1	0.188000
5.316667	1	0.190375
5.333333	1	0.192250
5.350000	1	0.194125
5.366667	1	0.196000
5.383333	1	0.197750
5.400000	1	0.198375
5.416667	1	0.199500
5.433333	1	0.199875
5.450000	1	0.199875
5.466667	1	0.199750
5.483333	1	0.199750
5.500000	1	0.199250
5.516667	1	0.198250
5.533333	1	0.196625
5.550000	1	0.194625
5.566667	1	0.192250
5.583333	1	0.190500
5.600000	1	0.189125
5.616667	1	0.186375
5.633333	1	0.183875
5.650000	1	0.180875
5.666667	1	0.177875
5.683333	1	0.174375
5.700000	1	0.170125
5.716667	1	0.166625
5.733333	1	0.163125
5.750000	1	0.159000
5.766667	1	0.155625
5.783333	1	0.151375
5.800000	1	0.147625
5.816667	1	0.142875
5.833333	1	0.138250
5.850000	1	0.134625
5.866667	1	0.130250
5.883333	1	0.125875
5.900000	1	0.121250
5.916667	1	0.117250
5.933333	1	0.113250
5.950000	1	0.109125
5.966667	1	0.104875
5.983333	1	0.100000
6.000000	1	0.095375
6.016667	1	0.091375
6.033333	1	0.086250
6.050000	1	0.081250
6.066667	1	0.076500
6.083333	1	0.071875
6.100000	1	0.067000
6.116667	1	0.062000
6.133333	1	0.057125
6.150000	1	0.052500
6.166667	1	0.047500
6.183333	1	0.043125
6.200000	1	0.038125
6.216667	1	0.033625
6.233333	1	0.029250
6.250000	1	0.025375
6.266667	1	0.020375
6.283333	1	0.016625
6.300000	1	0.012875
6.316667	1	0.008875
6.333333	1	0.004250
6.350000	1	0.001500
6.366667	1	-0.001875
6.383333	1	-0.005000
6.400000	1	-0.007750
6.416667	1	-0.010250
6.433333	1	-0.012750
6.450000	1	-0.015125
6.466667	1	-0.016500
6.483333	1	-0.018000
6.500000	1	-0.019375
6.516667	1	-0.021250
6.533333	1	-0.021875
6.550000	1	-0.021625
6.566667	1	-0.021500
6.583333	1	-0.020875
6.600000	1	-0.020625
6.616667	1	-0.020250
6.633333	1	-0.019625
6.650000	1	-0.017875
6.666667	1	-0.016750
6.683333	1	-0.015625
6.700000	1	-0.014750
6.716667	1	-0.013875
6.733333	1	-0.012000
6.750000	1	-0.009625
6.766667	1	-0.007750
6.783333	1	-0.005875
6.800000	1	-0.003625
6.816667	1	-0.001625
6.833333	1	0.000000
6.850000	1	0.002375
6.866667	1	0.005250
6.883333	1	0.007250
6.900000	1	0.009250
6.916667	1	0.011500
6.933333	1	0.013875
6.950000	1	0.016875
6.966667	1	0.019875
6.983333	1	0.022375
7.000000	1	0.024625
7.016667	1	0.026625
7.033333	1	0.028875
7.050000	1	0.031500
7.066667	1	0.034125
7.083333	1	0.036250
7.100000	1	0.038000
7.116667	1	0.040125
7.133333	1	0.042250
7.150000	1	0.044375
7.166667	1	0.046125
7.183333	1	0.047750
7.200000	1	0.050000
7.216667	1	0.051250
7.233333	1	0.052500
7.250000	1	0.053500
7.266667	1	0.055125
7.283333	1	0.057000
7.300000	1	0.057625
7.316667	1	0.058625
7.333333	1	0.058875
7.350000	1	0.059375
7.366667	1	0.059875
7.383333	1	0.060000
7.400000	1	0.060375
7.416667	1	0.060250
7.433333	1	0.060125
7.450000	1	0.059750
7.466667	1	0.058875
7.483333	1	0.057875
7.500000	1	0.057500
7.516667	1	0.057000
7.533333	1	0.055375
7.550000	1	0.053375
7.566667	1	0.051000
7.583333	1	0.049500
7.600000	1	0.048000
7.616667	1	0.046000
7.633333	1	0.043000
7.650000	1	0.040000
7.666667	1	0.037250
7.683333	1	0.034750
7.700000	1	0.032000
7.716667	1	0.028375
7.733333	1	0.025625
7.750000	1	0.022625
7.766667	1	0.019625
7.783333	1	0.015875
7.800000	1	0.012875
7.816667	1	0.009500
7.833333	1	0.006000
7.850000	1	0.002625
7.866667	1	-0.000250
7.883333	1	-0.003500
7.900000	1	-0.006250
7.916667	1	-0.009375
7.933333	1	-0.012500
7.950000	1	-0.014875
7.966667	1	-0.017750
7.983333	1	-0.020625
8.000000	1	-0.023250
8.016667	1	-0.025875
8.033333	1	-0.028875
8.050000	1	-0.030500
8.066667	1	-0.032625
8.083333	1	-0.034500
8.100000	1	-0.036375
8.116667	1	-0.038125
8.133333	1	-0.039625
8.150000	1	-0.041125
8.166667	1	-0.042500
8.183333	1	-0.044125
8.200000	1	-0.045250
8.216667	1	-0.046125
8.233333	1	-0.047000
8.250000	1	-0.047625
8.266667	1	-0.048875
8.283333	1	-0.049500
8.300000	1	-0.049750
8.316667	1	-0.050125
8.333333	1	-0.051125
8.350000	1	-0.051875
8.366667	1	-0.052875
8.383333	1	-0.053500
8.400000	1	-0.054125
8.416667	1	-0.055125
8.433333	1	-0.056000
8.450000	1	-0.055875
8.466667	1	-0.056625
8.483333	1	-0.057250
8.500000	1	-0.057750
8.516667	1	-0.058375
8.533333	1	-0.059625
8.550000	1	-0.060750
8.566667	1	-0.061625
8.583333	1	-0.062250
8.600000	1	-0.063250
8.616667	1	-0.063875
8.633333	1	-0.065375
8.650000	1	-0.066250
8.666667	1	-0.067125
8.683333	1	-0.067750
8.700000	1	-0.068875
8.716667	1	-0.069875
8.733333	1	-0.070375
8.750000	1	-0.071250
8.766667	1	-0.071875
8.783333	1	-0.072625
8.800000	1	-0.073500
8.816667	1	-0.074250
8.833333	1	-0.075250
8.850000	1	-0.076250
8.866667	1	-0.076250
8.883333	1	-0.076500
8.900000	1	-0.077250
8.916667	1	-0.078000
8.933333	1	-0.078500
8.950000	1	-0.079000
8.966667	1	-0.079375
8.983333	1	-0.080125
9.000000	1	-0.080000
9.016667	1	-0.080875
9.033333	1	-0.081375
9.050000	1	-0.081750
9.066667	1	-0.081875
9.083333	1	-0.081125
9.100000	1	-0.081375
9.116667	1	-0.082625
9.133333	1	-0.082250
9.150000	1	-0.081125
9.166667	1	-0.081250
9.183333	1	-0.081000
9.200000	1	-0.080500
9.216667	1	-0.080375
9.233333	1	-0.080500
9.250000	1	-0.080875
9.266667	1	-0.080500
9.283333	1	-0.080000
9.300000	1	-0.079875
9.316667	1	-0.079625
9.333333	1	-0.079500
9.350000	1	-0.079375
9.366667	1	-0.079000
9.383333	1	-0.078750
9.400000	1	-0.078625
9.416667	1	-0.078500
9.433333	1	-0.078375
9.450000	1	-0.078875
9.466667	1	-0.079125
9.483333	1	-0.079250
9.500000	1	-0.079125
9.516667	1	-0.079375
9.533333	1	-0.079375
9.550000	1	-0.079000
9.566667	1	-0.079500
9.583333	1	-0.080125
9.600000	1	-0.080000
9.616667	1	-0.080000
9.633333	1	-0.080125
9.650000	1	-0.080625
9.666667	1	-0.081000
9.683333	1	-0.080250
9.700000	1	-0.080625
9.716667	1	-0.081250
9.733333	1	-0.081500
9.750000	1	-0.081375
9.766667	1	-0.081625
9.783333	1	-0.081500
9.800000	1	-0.082250
9.816667	1	-0.083750
9.833333	1	-0.084750
9.850000	1	-0.085250
9.866667	1	-0.085750
9.883333	1	-0.085625
9.900000	1	-0.086125
9.916667	1	-0.087000
9.933333	1	-0.086500
9.950000	1	-0.086750
9.966667	1	-0.087750
9.983333	1	-0.088875
10.000000	1	-0.089250
10.016667	1	-0.089750
10.033333	1	-0.090500
10.050000	1	-0.090625
10.066667	1	-0.089875
10.083333	1	-0.089250
10.100000	1	-0.088250
10.116667	1	-0.086625
10.133333	1	-0.084000
10.150000	1	-0.080500
10.166667	1	-0.075625
10.183333	1	-0.070250
10.200000	1	-0.063750
10.216667	1	-0.055875
10.233333	1	-0.046500
10.250000	1	-0.035625
10.266667	1	-0.022250
10.283333	1	-0.006500
10.300000	1	0.011125
10.316667	1	0.032375
10.333333	1	0.055875
10.350000	1	0.080750
10.366667	1	0.105875
10.383333	1	0.129625
10.400000	1	0.149750
10.416667	1	0.164875
10.433333	1	0.172000
10.450000	1	0.172625
10.466667	1	0.170875
10.483333	1	0.172750
10.500000	1	0.191750
10.516667	1	0.249250
10.533333	1	0.373875
10.550000	1	0.604125
10.566667	1	0.985875
10.583333	1	1.572750
10.600000	1	2.417625
10.616667	1	3.573250
10.633333	1	5.080625
10.650000	1	6.968875
10.666667	1	9.257125
10.683333	1	11.947500
10.700000	1	15.025500
10.716667	1	18.461000
10.733333	1	22.203125
10.750000	1	26.176625
10.766667	1	30.272750
10.783333	1	34.351375
10.800000	1	38.219125
10.816667	1	41.629750
10.833333	1	44.286625
10.850000	1	45.886750
10.866667	1	46.174250
10.883333	1	45.016125
10.900000	1	42.465000
10.916667	1	38.770875
10.933333	1	34.326750
10.950000	1	29.566250
10.966667	1	24.875750
10.983333	1	20.532000
11.000000	1	16.695500
11.016667	1	13.432375
11.033333	1	10.738375
11.050000	1	8.566000
11.066667	1	6.846375
11.083333	1	5.506750
11.100000	1	4.473375
11.116667	1	3.682750
11.133333	1	3.080500
11.150000	1	2.622250
11.166667	1	2.273500
11.183333	1	2.008000
11.200000	1	1.806250
11.216667	1	1.652125
11.233333	1	1.533500
11.250000	1	1.441750
11.266667	1	1.369375
11.283333	1	1.311000
11.300000	1	1.261625
11.316667	1	1.218375
11.333333	1	1.178625
11.350000	1	1.140750
11.366667	1	1.104500
11.383333	1	1.069500
11.400000	1	1.035000
11.416667	1	1.002750
11.433333	1	0.972375
11.450000	1	0.944375
11.466667	1	0.919500
11.483333	1	0.898125
11.500000	1	0.880750
11.516667	1	0.867125
11.533333	1	0.857375
11.550000	1	0.851125
11.566667	1	0.849125
11.583333	1	0.850875
11.600000	1	0.857375
11.616667	1	0.868375
11.633333	1	0.882875
11.650000	1	0.901875
11.666667	1	0.924625
11.683333	1	0.950625
11.700000	1	0.978250
11.716667	1	1.006625
11.733333	1	1.034875
11.750000	1	1.060625
11.766667	1	1.083750
11.783333	1	1.102625
11.800000	1	1.116125
11.816667	1	1.124000
11.833333	1	1.126625
11.850000	1	1.123625
11.866667	1	1.115750
11.883333	1	1.103875
11.900000	1	1.088875
11.916667	1	1.071500
11.933333	1	1.053000
11.950000	1	1.035375
11.966667	1	1.018500
11.983333	1	1.002500
12.000000	1	0.988000
12.016667	1	0.974500
12.033333	1	0.963875
12.050000	1	0.955250
12.066667	1	0.947875
12.083333	1	0.942750
12.100000	1	0.938750
12.116667	1	0.936375
12.133333	1	0.935875
12.150000	1	0.937125
12.166667	1	0.939625
12.183333	1	0.943125
12.200000	1	0.949000
12.216667	1	0.957500
12.233333	1	0.969375
12.250000	1	0.985875
12.266667	1	1.008875
12.283333	1	1.040250
12.300000	1	1.083250
12.316667	1	1.142000
12.333333	1	1.220875
12.350000	1	1.328000
12.366667	1	1.471375
12.383333	1	1.664250
12.400000	1	1.922750
12.416667	1	2.265625
12.433333	1	2.721000
12.450000	1	3.322000
12.466667	1	4.113625
12.483333	1	5.147750
12.500000	1	6.488875
12.516667	1	8.207375
12.533333	1	10.379750
12.550000	1	13.081000
12.566667	1	16.379625
12.583333	1	20.323125
12.600000	1	24.926250
12.616667	1	30.156250
12.633333	1	35.937000
12.650000	1	42.134000
12.666667	1	48.555500
12.683333	1	54.954750
12.700000	1	61.050250
12.716667	1	66.544125
12.733333	1	71.155750
12.750000	1	74.653250
12.766667	1	76.874125
12.783333	1	77.740625
12.800000	1	77.268000
12.816667	1	75.563500
12.833333	1	72.801125
12.850000	1	69.207125
12.866667	1	65.036875
12.883333	1	60.552875
12.900000	1	55.997125
12.916667	1	51.580250
12.933333	1	47.465000
12.950000	1	43.766500
12.966667	1	40.551875
12.983333	1	37.846125
13.000000	1	35.645125
13.016667	1	33.921125
13.033333	1	32.633125
13.050000	1	31.731750
13.066667	1	31.168125
13.083333	1	30.892250
13.100000	1	30.861250
13.116667	1	31.035250
13.133333	1	31.379500
13.150000	1	31.863375
13.166667	1	32.465000
13.183333	1	33.163500
13.200000	1	33.942500
13.216667	1	34.788375
13.233333	1	35.691125
13.250000	1	36.644750
13.266667	1	37.642500
13.283333	1	38.680000
13.300000	1	39.754000
13.316667	1	40.861375
13.333333	1	42.000125
13.350000	1	43.168000
13.366667	1	44.365625
13.383333	1	45.592125
13.400000	1	46.845125
13.416667	1	48.125750
13.433333	1	49.435750
13.450000	1	50.775375
13.466667	1	52.144625
13.483333	1	53.545250
13.500000	1	54.976875
13.516667	1	56.438500
13.533333	1	57.930375
13.550000	1	59.453375
13.566667	1	61.007000
13.583333	1	62.593000
13.600000	1	64.208875
13.616667	1	65.857375
13.633333	1	67.539750
13.650000	1	69.257125
13.666667	1	71.008250
13.683333	1	72.778000
13.700000	1	74.519875
13.716667	1	76.133000
13.733333	1	77.455750
13.750000	1	78.300250
13.766667	1	78.493375
13.783333	1	77.899625
13.800000	1	76.413125
13.816667	1	73.915250
13.833333	1	70.262000
13.850000	1	65.316625
13.866667	1	59.085500
13.883333	1	51.845750
13.900000	1	44.148625
13.916667	1	36.654250
13.933333	1	29.883000
13.950000	1	24.111875
13.966667	1	19.390250
13.983333	1	15.628625
14.000000	1	12.681125
14.016667	1	10.400250
14.033333	1	8.655250
14.050000	1	7.337125
14.066667	1	6.351875
14.083333	1	5.619000
14.100000	1	5.073250
14.116667	1	4.662375
14.133333	1	4.349250
14.150000	1	4.106500
14.166667	1	3.912375
14.183333	1	3.754125
14.200000	1	3.622500
14.216667	1	3.510125
14.233333	1	3.412500
14.250000	1	3.325625
14.266667	1	3.248000
14.283333	1	3.177250
14.300000	1	3.112000
14.316667	1	3.052375
14.333333	1	2.996625
14.350000	1	2.945250
14.366667	1	2.896750
14.383333	1	2.852250
14.400000	1	2.811000
14.416667	1	2.772875
14.433333	1	2.737625
14.450000	1	2.705250
14.466667	1	2.674750
14.483333	1	2.646250
14.500000	1	2.619750
14.516667	1	2.594750
14.533333	1	2.571500
14.550000	1	2.548125
14.566667	1	2.526000
14.583333	1	2.504000
14.600000	1	2.483000
14.616667	1	2.461500
14.633333	1	2.440250
14.650000	1	2.419375
14.666667	1	2.399000
14.683333	1	2.379500
14.700000	1	2.361875
14.716667	1	2.345625
14.733333	1	2.330750
14.750000	1	2.318000
14.766667	1	2.306250
14.783333	1	2.296500
14.800000	1	2.288125
14.816667	1	2.280125
14.833333	1	2.271375
14.850000	1	2.261125
14.866667	1	2.248750
14.883333	1	2.233375
14.900000	1	2.214000
14.916667	1	2.190750
14.933333	1	2.163375
14.950000	1	2.132250
14.966667	1	2.097375
14.983333	1	2.059750
15.000000	1	2.020500
15.016667	1	1.979875
15.033333	1	1.939125
15.050000	1	1.898750
15.066667	1	1.860250
15.083333	1	1.823375
15.100000	1	1.788375
15.116667	1	1.756000
15.133333	1	1.725250
15.150000	1	1.698125
15.166667	1	1.673250
15.183333	1	1.650625
15.200000	1	1.631125
15.216667	1	1.614125
15.233333	1	1.599125
15.250000	1	1.586625
15.266667	1	1.577375
15.283333	1	1.570375
15.300000	1	1.566500
15.316667	1	1.565750
15.333333	1	1.569500
15.350000	1	1.577250
15.366667	1	1.589375
15.383333	1	1.606000
15.400000	1	1.627375
15.416667	1	1.652750
15.433333	1	1.681500
15.450000	1	1.713000
15.466667	1	1.746375
15.483333	1	1.778875
15.500000	1	1.809250
15.516667	1	1.834750
15.533333	1	1.854750
15.550000	1	1.867875
15.566667	1	1.872125
15.583333	1	1.867250
15.600000	1	1.854625
15.616667	1	1.833750
15.633333	1	1.805125
15.650000	1	1.771875
15.666667	1	1.733250
15.683333	1	1.691875
15.700000	1	1.649625
15.716667	1	1.606875
15.733333	1	1.565125
15.750000	1	1.525250
15.766667	1	1.486750
15.783333	1	1.450000
15.800000	1	1.415125
15.816667	1	1.381500
15.833333	1	1.349625
15.850000	1	1.319125
15.866667	1	1.289625
15.883333	1	1.262500
15.900000	1	1.236375
15.916667	1	1.211500
15.933333	1	1.188500
15.950000	1	1.167375
15.966667	1	1.149000
15.983333	1	1.132500
16.000000	1	1.118875
16.016667	1	1.107500
16.033333	1	1.098375
16.050000	1	1.091250
16.066667	1	1.086625
16.083333	1	1.082875
16.100000	1	1.081750
16.116667	1	1.082000
16.133333	1	1.082750
16.150000	1	1.085250
16.166667	1	1.087500
16.183333	1	1.090625
16.200000	1	1.093250
16.216667	1	1.096125
16.233333	1	1.097875
16.250000	1	1.099750
16.266667	1	1.101250
16.283333	1	1.101875
16.300000	1	1.101125
16.316667	1	1.099500
16.333333	1	1.097625
16.350000	1	1.094375
16.366667	1	1.091000
16.383333	1	1.086375
16.400000	1	1.081875
16.416667	1	1.077375
16.433333	1	1.074625
16.450000	1	1.072000
16.466667	1	1.070750
16.483333	1	1.070125
16.500000	1	1.071750
16.516667	1	1.074500
16.533333	1	1.078625
16.550000	1	1.084500
16.566667	1	1.090875
16.583333	1	1.097625
16.600000	1	1.104875
16.616667	1	1.111500
16.633333	1	1.118500
16.650000	1	1.124875
16.666667	1	1.129625
16.683333	1	1.133250
16.700000	1	1.135375
16.716667	1	1.137000
16.733333	1	1.137375
16.750000	1	1.137875
16.766667	1	1.138375
16.783333	1	1.138375
16.800000	1	1.139375
16.816667	1	1.140500
16.833333	1	1.141500
16.850000	1	1.143500
16.866667	1	1.146750
16.883333	1	1.149750
16.900000	1	1.152625
16.916667	1	1.155375
16.933333	1	1.157125
16.950000	1	1.158375
16.966667	1	1.158625
16.983333	1	1.158500
17.000000	1	1.157000
17.016667	1	1.154125
17.033333	1	1.150375
17.050000	1	1.146250
17.066667	1	1.141250
17.083333	1	1.136750
17.100000	1	1.132000
17.116667	1	1.127875
17.133333	1	1.125000
17.150000	1	1.122250
17.166667	1	1.120625
17.183333	1	1.120375
17.200000	1	1.121500
17.216667	1	1.123250
17.233333	1	1.126250
17.250000	1	1.130750
17.266667	1	1.135500
17.283333	1	1.141250
17.300000	1	1.148125
17.316667	1	1.155875
17.333333	1	1.163750
17.350000	1	1.171500
17.366667	1	1.179750
17.383333	1	1.187375
17.400000	1	1.194500
17.416667	1	1.200750
17.433333	1	1.206375
17.450000	1	1.210500
17.466667	1	1.212750
17.483333	1	1.213375
17.500000	1	1.212750
17.516667	1	1.209625
17.533333	1	1.204875
17.550000	1	1.199125
17.566667	1	1.191125
17.583333	1	1.181625
17.600000	1	1.169875
17.616667	1	1.157750
17.633333	1	1.143875
17.650000	1	1.129750
17.666667	1	1.115375
17.683333	1	1.100000
17.700000	1	1.084875
17.716667	1	1.069125
17.733333	1	1.053500
17.750000	1	1.038250
17.766667	1	1.023750
17.783333	1	1.009125
17.800000	1	0.995375
17.816667	1	0.981875
17.833333	1	0.968000
17.850000	1	0.954500
17.866667	1	0.941500
17.883333	1	0.929250
17.900000	1	0.916625
17.916667	1	0.903875
17.933333	1	0.892000
17.950000	1	0.880750
17.966667	1	0.869875
17.983333	1	0.859125
18.000000	1	0.848375
18.016667	1	0.838125
18.033333	1	0.827625
18.050000	1	0.817250
18.066667	1	0.806875
18.083333	1	0.796875
18.100000	1	0.787000
18.116667	1	0.777250
18.133333	1	0.768000
18.150000	1	0.759750
18.166667	1	0.752000
18.183333	1	0.744875
18.200000	1	0.738750
18.216667	1	0.732875
18.233333	1	0.728125
18.250000	1	0.724125
18.266667	1	0.721250
18.283333	1	0.718125
18.300000	1	0.716000
18.316667	1	0.715625
18.333333	1	0.714250
18.350000	1	0.714125
18.366667	1	0.714000
18.383333	1	0.714875
18.400000	1	0.716125
18.416667	1	0.718875
18.433333	1	0.721500
18.450000	1	0.725875
18.466667	1	0.731000
18.483333	1	0.737125
18.500000	1	0.745625
18.516667	1	0.755375
18.533333	1	0.766125
18.550000	1	0.779375
18.566667	1	0.795000
18.583333	1	0.811375
18.600000	1	0.830250
18.616667	1	0.851375
18.633333	1	0.873875
18.650000	1	0.898000
18.666667	1	0.924500
18.683333	1	0.951875
18.700000	1	0.981750
18.716667	1	1.012375
18.733333	1	1.043875
18.750000	1	1.076500
18.766667	1	1.109125
18.783333	1	1.141500
18.800000	1	1.174250
18.816667	1	1.206125
18.833333	1	1.236375
18.850000	1	1.263875
18.866667	1	1.288750
18.883333	1	1.309250
18.900000	1	1.326125
18.916667	1	1.338750
18.933333	1	1.345750
18.950000	1	1.346875
18.966667	1	1.341000
18.983333	1	1.329375
19.000000	1	1.310250
19.016667	1	1.285125
19.033333	1	1.255000
19.050000	1	1.218000
19.066667	1	1.177625
19.083333	1	1.133125
19.100000	1	1.086250
19.116667	1	1.037750
19.133333	1	0.988875
19.150000	1	0.940250
19.166667	1	0.892250
19.183333	1	0.846125
19.200000	1	0.803625
19.216667	1	0.764000
19.233333	1	0.728875
19.250000	1	0.698750
19.266667	1	0.673000
19.283333	1	0.651750
19.300000	1	0.636000
19.316667	1	0.625500
19.333333	1	0.620375
19.350000	1	0.620750
19.366667	1	0.626625
19.383333	1	0.636750
19.400000	1	0.650875
19.416667	1	0.669875
19.433333	1	0.692750
19.450000	1	0.718750
19.466667	1	0.747375
19.483333	1	0.777000
19.500000	1	0.807875
19.516667	1	0.839000
19.533333	1	0.868750
19.550000	1	0.896000
19.566667	1	0.920250
19.583333	1	0.940625
19.600000	1	0.956625
19.616667	1	0.966875
19.633333	1	0.971500
19.650000	1	0.970750
19.666667	1	0.963750
19.683333	1	0.951000
19.700000	1	0.933000
19.716667	1	0.910750
19.733333	1	0.885250
19.750000	1	0.856500
19.766667	1	0.824875
19.783333	1	0.792375
19.800000	1	0.759125
19.816667	1	0.725250
19.833333	1	0.692500
19.850000	1	0.660000
19.866667	1	0.630250
19.883333	1	0.601875
19.900000	1	0.575875
19.916667	1	0.552125
19.933333	1	0.530750
19.950000	1	0.511250
19.966667	1	0.495125
19.983333	1	0.481250
20.000000	1	0.469625
20.016667	1	0.460000
20.033333	1	0.454125
20.050000	1	0.449250
20.066667	1	0.447500
20.083333	1	0.447500
20.100000	1	0.449875
20.116667	1	0.454750
20.133333	1	0.461625
20.150000	1	0.470625
20.166667	1	0.481500
20.183333	1	0.494125
20.200000	1	0.508375
20.216667	1	0.524500
20.233333	1	0.540375
20.250000	1	0.557500
20.266667	1	0.573875
20.283333	1	0.589000
20.300000	1	0.603250
20.316667	1	0.615750
20.333333	1	0.625750
20.350000	1	0.633500
20.366667	1	0.638500
20.383333	1	0.640625
20.400000	1	0.638500
20.416667	1	0.633875
20.433333	1	0.627500
20.450000	1	0.618875
20.466667	1	0.609000
20.483333	1	0.598375
20.500000	1	0.587750
20.516667	1	0.579125
20.533333	1	0.572125
20.550000	1	0.568625
20.566667	1	0.569375
20.583333	1	0.575375
20.600000	1	0.586375
20.616667	1	0.603625
20.633333	1	0.627000
20.650000	1	0.657625
20.666667	1	0.695625
20.683333	1	0.740375
20.700000	1	0.792750
20.716667	1	0.851750
20.733333	1	0.916500
20.750000	1	0.984500
20.766667	1	1.054750
20.783333	1	1.126500
20.800000	1	1.195250
20.816667	1	1.260250
20.833333	1	1.320625
20.850000	1	1.372500
20.866667	1	1.415125
20.883333	1	1.445875
20.900000	1	1.465125
20.916667	1	1.470375
20.933333	1	1.463500
20.950000	1	1.443250
20.966667	1	1.410750
20.983333	1	1.366625
21.000000	1	1.313625
21.016667	1	1.253875
21.033333	1	1.187750
21.050000	1	1.118250
21.066667	1	1.047375
21.083333	1	0.975375
21.100000	1	0.905750
21.116667	1	0.839125
21.133333	1	0.774625
21.150000	1	0.714750
21.166667	1	0.659750
21.183333	1	0.609875
21.200000	1	0.564750
21.216667	1	0.524625
21.233333	1	0.488375
21.250000	1	0.456500
21.266667	1	0.428750
21.283333	1	0.403375
21.300000	1	0.382375
21.316667	1	0.364500
21.333333	1	0.349500
21.350000	1	0.335750
21.366667	1	0.324000
21.383333	1	0.314500
21.400000	1	0.305500
21.416667	1	0.297875
21.433333	1	0.292125
21.450000	1	0.286500
21.466667	1	0.282125
21.483333	1	0.278750
21.500000	1	0.276500
21.516667	1	0.274625
21.533333	1	0.274000
21.550000	1	0.275375
21.566667	1	0.278125
21.583333	1	0.281500
21.600000	1	0.286125
21.616667	1	0.293500
21.633333	1	0.303250
21.650000	1	0.315000
21.666667	1	0.329000
21.683333	1	0.345625
21.700000	1	0.365125
21.716667	1	0.387250
21.733333	1	0.412625
21.750000	1	0.442125
21.766667	1	0.473000
21.783333	1	0.507625
21.800000	1	0.545875
21.816667	1	0.585750
21.833333	1	0.628125
21.850000	1	0.671500
21.866667	1	0.716750
21.883333	1	0.762625
21.900000	1	0.807875
21.916667	1	0.851500
21.933333	1	0.893250
21.950000	1	0.932250
21.966667	1	0.968375
21.983333	1	0.999375
22.000000	1	1.025250
22.016667	1	1.046375
22.033333	1	1.061375
22.050000	1	1.069250
22.066667	1	1.071125
22.083333	1	1.067875
22.100000	1	1.057625
22.116667	1	1.042000
22.133333	1	1.021375
22.150000	1	0.996375
22.166667	1	0.968125
22.183333	1	0.935875
22.200000	1	0.902500
22.216667	1	0.867000
22.233333	1	0.830375
22.250000	1	0.793875
22.266667	1	0.755375
22.283333	1	0.719000
22.300000	1	0.682750
22.316667	1	0.647500
22.333333	1	0.613625
22.350000	1	0.580875
22.366667	1	0.549500
22.383333	1	0.519875
22.400000	1	0.491250
22.416667	1	0.464875
22.433333	1	0.440375
22.450000	1	0.418000
22.466667	1	0.396250
22.483333	1	0.376750
22.500000	1	0.358125
22.516667	1	0.341375
22.533333	1	0.325375
22.550000	1	0.311000
22.566667	1	0.297875
22.583333	1	0.286250
22.600000	1	0.275500
22.616667	1	0.265750
22.633333	1	0.257500
22.650000	1	0.249500
22.666667	1	0.241625
22.683333	1	0.234875
22.700000	1	0.228625
22.716667	1	0.222500
22.733333	1	0.217750
22.750000	1	0.212875
22.766667	1	0.208250
22.783333	1	0.204000
22.800000	1	0.199375
22.816667	1	0.195375
22.833333	1	0.191500
22.850000	1	0.188000
22.866667	1	0.184750
22.883333	1	0.182000
22.900000	1	0.180000
22.916667	1	0.177625
22.933333	1	0.175125
22.950000	1	0.173250
22.966667	1	0.171875
22.983333	1	0.170875
23.000000	1	0.170125
23.016667	1	0.169875
23.033333	1	0.169750
23.050000	1	0.169625
23.066667	1	0.169500
23.083333	1	0.170375
23.100000	1	0.171250
23.116667	1	0.172250
23.133333	1	0.172000
23.150000	1	0.173250
23.166667	1	0.175250
23.183333	1	0.176500
23.200000	1	0.178125
23.216667	1	0.180125
23.233333	1	0.182875
23.250000	1	0.186250
23.266667	1	0.190625
23.283333	1	0.196250
23.300000	1	0.203125
23.316667	1	0.211625
23.333333	1	0.222625
23.350000	1	0.235750
23.366667	1	0.252125
23.383333	1	0.272125
23.400000	1	0.297250
23.416667	1	0.327625
23.433333	1	0.364500
23.450000	1	0.408500
23.466667	1	0.460500
23.483333	1	0.521875
23.500000	1	0.594250
23.516667	1	0.678875
23.533333	1	0.775125
23.550000	1	0.885625
23.566667	1	1.010875
23.583333	1	1.151500
23.600000	1	1.308625
23.616667	1	1.481500
23.633333	1	1.669750
23.650000	1	1.872125
23.666667	1	2.087875
23.683333	1	2.316000
23.700000	1	2.552750
23.716667	1	2.796125
23.733333	1	3.041625
23.750000	1	3.284750
23.766667	1	3.521875
23.783333	1	3.746500
23.800000	1	3.955000
23.816667	1	4.143875
23.833333	1	4.306500
23.850000	1	4.439625
23.866667	1	4.540750
23.883333	1	4.607750
23.900000	1	4.639000
23.916667	1	4.633625
23.933333	1	4.592625
23.950000	1	4.517000
23.966667	1	4.410125
23.983333	1	4.274250
24.000000	1	4.114000
24.016667	1	3.932875
24.033333	1	3.735375
24.050000	1	3.525875
24.066667	1	3.309625
24.083333	1	3.089125
24.100000	1	2.868250
24.116667	1	2.650750
24.133333	1	2.438750
24.150000	1	2.234625
24.166667	1	2.043000
24.183333	1	1.861375
24.200000	1	1.692000
24.216667	1	1.535125
24.233333	1	1.391375
24.250000	1	1.261125
24.266667	1	1.142625
24.283333	1	1.036125
24.300000	1	0.940750
24.316667	1	0.856000
24.333333	1	0.780375
24.350000	1	0.713875
24.366667	1	0.656250
24.383333	1	0.607000
24.400000	1	0.563250
24.416667	1	0.525750
24.433333	1	0.493875
24.450000	1	0.467750
24.466667	1	0.445375
24.483333	1	0.427000
24.500000	1	0.411250
24.516667	1	0.397875
24.533333	1	0.387125
24.550000	1	0.377750
24.566667	1	0.369750
24.583333	1	0.363000
24.600000	1	0.356750
24.616667	1	0.352125
24.633333	1	0.347500
24.650000	1	0.342125
24.666667	1	0.337750
24.683333	1	0.333000
24.700000	1	0.328750
24.716667	1	0.323500
24.733333	1	0.317875
24.750000	1	0.312625
24.766667	1	0.307500
24.783333	1	0.302000
24.800000	1	0.296375
24.816667	1	0.290125
24.833333	1	0.285500
24.850000	1	0.280375
24.866667	1	0.275250
24.883333	1	0.269625
24.900000	1	0.265000
24.916667	1	0.260375
24.933333	1	0.256000
24.950000	1	0.251625
24.966667	1	0.247750
24.983333	1	0.244250
25.000000	1	0.240125
25.016667	1	0.236125
25.033333	1	0.232625
25.050000	1	0.229375
25.066667	1	0.226125
25.083333	1	0.223125
25.100000	1	0.220500
25.116667	1	0.217875
25.133333	1	0.214625
25.150000	1	0.212500
25.166667	1	0.209000
25.183333	1	0.205875
25.200000	1	0.202875
25.216667	1	0.199500
25.233333	1	0.196375
25.250000	1	0.193625
25.266667	1	0.190250
25.283333	1	0.187250
25.300000	1	0.184375
25.316667	1	0.181375
25.333333	1	0.178750
25.350000	1	0.176250
25.366667	1	0.173500
25.383333	1	0.171000
25.400000	1	0.168625
25.416667	1	0.166500
25.433333	1	0.164500
25.450000	1	0.162500
25.466667	1	0.161000
25.483333	1	0.159500
25.500000	1	0.158125
25.516667	1	0.157250
25.533333	1	0.156500
25.550000	1	0.155875
25.566667	1	0.154875
25.583333	1	0.154500
25.600000	1	0.153750
25.616667	1	0.152875
25.633333	1	0.153125
25.650000	1	0.153125
25.666667	1	0.152875
25.683333	1	0.152625
25.700000	1	0.152625
25.716667	1	0.152875
25.733333	1	0.153250
25.750000	1	0.153875
25.766667	1	0.154875
25.783333	1	0.155125
25.800000	1	0.155875
25.816667	1	0.156750
25.833333	1	0.158000
25.850000	1	0.160250
25.866667	1	0.162000
25.883333	1	0.164125
25.900000	1	0.166750
25.916667	1	0.169375
25.933333	1	0.172750
25.950000	1	0.176375
25.966667	1	0.179750
25.983333	1	0.183875
26.000000	1	0.188625
26.016667	1	0.193250
26.033333	1	0.197250
26.050000	1	0.202375
26.066667	1	0.208000
26.083333	1	0.213500
26.100000	1	0.218750
26.116667	1	0.223875
26.133333	1	0.228750
26.150000	1	0.233500
26.166667	1	0.238250
26.183333	1	0.243250
26.200000	1	0.248000
26.216667	1	0.252125
26.233333	1	0.255000
26.250000	1	0.258125
26.266667	1	0.261125
26.283333	1	0.262500
26.300000	1	0.263625
26.316667	1	0.264500
26.333333	1	0.263875
26.350000	1	0.262375
26.366667	1	0.260750
26.383333	1	0.258625
26.400000	1	0.255500
26.416667	1	0.252125
26.433333	1	0.247750
26.450000	1	0.242750
26.466667	1	0.237500
26.483333	1	0.232000
26.500000	1	0.226125
26.516667	1	0.220250
26.533333	1	0.214125
26.550000	1	0.207250
26.566667	1	0.200750
26.583333	1	0.194625
26.600000	1	0.188125
26.616667	1	0.181375
26.633333	1	0.175000
26.650000	1	0.168625
26.666667	1	0.162500
26.683333	1	0.156875
26.700000	1	0.151250
26.716667	1	0.146875
26.733333	1	0.141625
26.750000	1	0.136375
26.766667	1	0.132375
26.783333	1	0.128250
26.800000	1	0.124375
26.816667	1	0.121000
26.833333	1	0.119375
26.850000	1	0.116750
26.866667	1	0.114750
26.883333	1	0.113000
26.900000	1	0.112125
26.916667	1	0.111500
26.933333	1	0.110750
26.950000	1	0.110625
26.966667	1	0.111125
26.983333	1	0.112750
27.000000	1	0.113750
27.016667	1	0.116000
27.033333	1	0.119125
27.050000	1	0.122750
27.066667	1	0.127250
27.083333	1	0.132250
27.100000	1	0.138625
27.116667	1	0.145000
27.133333	1	0.152750
27.150000	1	0.162125
27.166667	1	0.172875
27.183333	1	0.185375
27.200000	1	0.199750
27.216667	1	0.216500
27.233333	1	0.235875
27.250000	1	0.257500
27.266667	1	0.282000
27.283333	1	0.308750
27.300000	1	0.340000
27.316667	1	0.375875
27.333333	1	0.416000
27.350000	1	0.462625
27.366667	1	0.514000
27.383333	1	0.571875
27.400000	1	0.637750
27.416667	1	0.711125
27.433333	1	0.791750
27.450000	1	0.880125
27.466667	1	0.978125
27.483333	1	1.085000
27.500000	1	1.200875
27.516667	1	1.326250
27.533333	1	1.461000
27.550000	1	1.603625
27.566667	1	1.753875
27.583333	1	1.912250
27.600000	1	2.076750
27.616667	1	2.245625
27.633333	1	2.418375
27.650000	1	2.592375
27.666667	1	2.767000
27.683333	1	2.938750
27.700000	1	3.105000
27.716667	1	3.263875
27.733333	1	3.412875
27.750000	1	3.549125
27.766667	1	3.670625
27.783333	1	3.774500
27.800000	1	3.859125
27.816667	1	3.922250
27.833333	1	3.963500
27.850000	1	3.982250
27.866667	1	3.977125
27.883333	1	3.947750
27.900000	1	3.894750
27.916667	1	3.819125
27.933333	1	3.721875
27.950000	1	3.605875
27.966667	1	3.472000
27.983333	1	3.324000
28.000000	1	3.163250
28.016667	1	2.993250
28.033333	1	2.816875
28.050000	1	2.635500
28.066667	1	2.453375
28.083333	1	2.271750
28.100000	1	2.093375
28.116667	1	1.920250
28.133333	1	1.753625
28.150000	1	1.595375
28.166667	1	1.446500
28.183333	1	1.307875
28.200000	1	1.179125
28.216667	1	1.060875
28.233333	1	0.952250
28.250000	1	0.854000
28.266667	1	0.766750
28.283333	1	0.687875
28.300000	1	0.617875
28.316667	1	0.556375
28.333333	1	0.503625
28.350000	1	0.458000
28.366667	1	0.419250
28.383333	1	0.386375
28.400000	1	0.359625
28.416667	1	0.338875
28.433333	1	0.321500
28.450000	1	0.308875
28.466667	1	0.299500
28.483333	1	0.293750
28.500000	1	0.291375
28.516667	1	0.291000
28.533333	1	0.293375
28.550000	1	0.297875
28.566667	1	0.303750
28.583333	1	0.311625
28.600000	1	0.320500
28.616667	1	0.330500
28.633333	1	0.341125
28.650000	1	0.352000
28.666667	1	0.362875
28.683333	1	0.373500
28.700000	1	0.384500
28.716667	1	0.395625
28.733333	1	0.405375
28.750000	1	0.414625
28.766667	1	0.423000
28.783333	1	0.431250
28.800000	1	0.438375
28.816667	1	0.444500
28.833333	1	0.449375
28.850000	1	0.453750
28.866667	1	0.456625
28.883333	1	0.459125
28.900000	1	0.459125
28.916667	1	0.458000
28.933333	1	0.455875
28.950000	1	0.452875
28.966667	1	0.449000
28.983333	1	0.443250
29.000000	1	0.436625
29.016667	1	0.429125
29.033333	1	0.421000
29.050000	1	0.411000
29.066667	1	0.400500
29.083333	1	0.388750
29.100000	1	0.376500
29.116667	1	0.363250
29.133333	1	0.350125
29.150000	1	0.335875
29.166667	1	0.321500
29.183333	1	0.307125
29.200000	1	0.292750
29.216667	1	0.277625
29.233333	1	0.263125
29.250000	1	0.248125
29.266667	1	0.234250
29.283333	1	0.219500
29.300000	1	0.206000
29.316667	1	0.191500
29.333333	1	0.177875
29.350000	1	0.164250
29.366667	1	0.151375
29.383333	1	0.139125
29.400000	1	0.126500
29.416667	1	0.114750
29.433333	1	0.104375
29.450000	1	0.094250
29.466667	1	0.084750
29.483333	1	0.076000
29.500000	1	0.067125
29.516667	1	0.059875
29.533333	1	0.052500
29.550000	1	0.045625
29.566667	1	0.039250
29.583333	1	0.033750
29.600000	1	0.028750
29.616667	1	0.023500
29.633333	1	0.019125
29.650000	1	0.015000
29.666667	1	0.011250
29.683333	1	0.007875
29.700000	1	0.005625
29.716667	1	0.002875
29.733333	1	0.000750
29.750000	1	-0.000875
29.766667	1	-0.001875
29.783333	1	-0.003375
29.800000	1	-0.004125
29.816667	1	-0.004250
29.833333	1	-0.005125
29.850000	1	-0.005625
29.866667	1	-0.005625
29.883333	1	-0.006375
29.900000	1	-0.006250
29.916667	1	-0.006625
29.933333	1	-0.006625
29.950000	1	-0.006000
29.966667	1	-0.005750
29.983333	1	-0.005500
30.000000	1	-0.005000
30.016667	1	-0.004625
30.033333	1	-0.003750
30.050000	1	-0.003125
30.066667	1	-0.002875
30.083333	1	-0.002625
30.100000	1	-0.002250
30.116667	1	-0.002125
30.133333	1	-0.001875
30.150000	1	-0.000875
30.166667	1	-0.000625
30.183333	1	0.000000
30.200000	1	0.000375
30.216667	1	0.001125
30.233333	1	0.001625
30.250000	1	0.002250
30.266667	1	0.002750
30.283333	1	0.003750
30.300000	1	0.004625
30.316667	1	0.006000
30.333333	1	0.007250
30.350000	1	0.008500
30.366667	1	0.009500
30.383333	1	0.011125
30.400000	1	0.013000
30.416667	1	0.015000
30.433333	1	0.016750
30.450000	1	0.020000
30.466667	1	0.022750
30.483333	1	0.025625
30.500000	1	0.028750
30.516667	1	0.032125
30.533333	1	0.035375
30.550000	1	0.039125
30.566667	1	0.043500
30.583333	1	0.048250
30.600000	1	0.053250
30.616667	1	0.059375
30.633333	1	0.065375
30.650000	1	0.072250
30.666667	1	0.079500
30.683333	1	0.087500
30.700000	1	0.095500
30.716667	1	0.103625
30.733333	1	0.112625
30.750000	1	0.122375
30.766667	1	0.133250
30.783333	1	0.144500
30.800000	1	0.157000
30.816667	1	0.170500
30.833333	1	0.185750
30.850000	1	0.202500
30.866667	1	0.220250
30.883333	1	0.238875
30.900000	1	0.259250
30.916667	1	0.281875
30.933333	1	0.306500
30.950000	1	0.333500
30.966667	1	0.364125
30.983333	1	0.397875
31.000000	1	0.435250
31.016667	1	0.476375
31.033333	1	0.520750
31.050000	1	0.570125
31.066667	1	0.623875
31.083333	1	0.682875
31.100000	1	0.747000
31.116667	1	0.817625
31.133333	1	0.892750
31.150000	1	0.973625
31.166667	1	1.060000
31.183333	1	1.152625
31.200000	1	1.251125
31.216667	1	1.354125
31.233333	1	1.461875
31.250000	1	1.574000
31.266667	1	1.688875
31.283333	1	1.806500
31.300000	1	1.925375
31.316667	1	2.044125
31.333333	1	2.161375
31.350000	1	2.277625
31.366667	1	2.390875
31.383333	1	2.498875
31.400000	1	2.601250
31.416667	1	2.695875
31.433333	1	2.781625
31.450000	1	2.857875
31.466667	1	2.922750
31.483333	1	2.975750
31.500000	1	3.016375
31.516667	1	3.043750
31.533333	1	3.057625
31.550000	1	3.058125
31.566667	1	3.045125
31.583333	1	3.018500
31.600000	1	2.978750
31.616667	1	2.926625
31.633333	1	2.862750
31.650000	1	2.788750
31.666667	1	2.705750
31.683333	1	2.614375
31.700000	1	2.516125
31.716667	1	2.412250
31.733333	1	2.304750
31.750000	1	2.193125
31.766667	1	2.080375
31.783333	1	1.966375
31.800000	1	1.852875
31.816667	1	1.740500
31.833333	1	1.630000
31.850000	1	1.522000
31.866667	1	1.419125
31.883333	1	1.319875
31.900000	1	1.225250
31.916667	1	1.135250
31.933333	1	1.050250
31.950000	1	0.970750
31.966667	1	0.897125
31.983333	1	0.828000
32.000000	1	0.763125
32.016667	1	0.703625
32.033333	1	0.649375
32.050000	1	0.598500
32.066667	1	0.552625
32.083333	1	0.511250
32.100000	1	0.472500
32.116667	1	0.437750
32.133333	1	0.405625
32.150000	1	0.376375
32.166667	1	0.348500
32.183333	1	0.322875
32.200000	1	0.299625
32.216667	1	0.277125
32.233333	1	0.256750
32.250000	1	0.237125
32.266667	1	0.219000
32.283333	1	0.201875
32.300000	1	0.185125
32.316667	1	0.169125
32.333333	1	0.154250
32.350000	1	0.139875
32.366667	1	0.125875
32.383333	1	0.112375
32.400000	1	0.099500
32.416667	1	0.087000
32.433333	1	0.075375
32.450000	1	0.064500
32.466667	1	0.053875
32.483333	1	0.043500
32.500000	1	0.034000
32.516667	1	0.024750
32.533333	1	0.015500
32.550000	1	0.007625
32.566667	1	0.000125
32.583333	1	-0.006875
32.600000	1	-0.013125
32.616667	1	-0.019750
32.633333	1	-0.025750
32.650000	1	-0.030250
32.666667	1	-0.034750
32.683333	1	-0.039750
32.700000	1	-0.043875
32.716667	1	-0.047750
32.733333	1	-0.050875
32.750000	1	-0.053875
32.766667	1	-0.056875
32.783333	1	-0.059750
32.800000	1	-0.062000
32.816667	1	-0.064625
32.833333	1	-0.067125
32.850000	1	-0.069125
32.866667	1	-0.071000
32.883333	1	-0.072375
32.900000	1	-0.074250
32.916667	1	-0.075125
32.933333	1	-0.076625
32.950000	1	-0.077750
32.966667	1	-0.078500
32.983333	1	-0.078625
33.000000	1	-0.079500
33.016667	1	-0.080500
33.033333	1	-0.079875
33.050000	1	-0.080125
33.066667	1	-0.080250
33.083333	1	-0.079750
33.100000	1	-0.079500
33.116667	1	-0.078375
33.133333	1	-0.077375
33.150000	1	-0.076250
33.166667	1	-0.074625
33.183333	1	-0.072500
33.200000	1	-0.070000
33.216667	1	-0.067000
33.233333	1	-0.063750
33.250000	1	-0.060125
33.266667	1	-0.055750
33.283333	1	-0.051125
33.300000	1	-0.046000
33.316667	1	-0.040375
33.333333	1	-0.034000
33.350000	1	-0.026625
33.366667	1	-0.019000
33.383333	1	-0.009875
33.400000	1	0.000125
33.416667	1	0.011500
33.433333	1	0.023125
33.450000	1	0.036375
33.466667	1	0.050875
33.483333	1	0.067000
33.500000	1	0.084250
33.516667	1	0.102875
33.533333	1	0.123125
33.550000	1	0.145500
33.566667	1	0.170000
33.583333	1	0.195625
33.600000	1	0.223625
33.616667	1	0.254125
33.633333	1	0.286125
33.650000	1	0.320000
33.666667	1	0.355500
33.683333	1	0.392375
33.700000	1	0.432000
33.716667	1	0.472875
33.733333	1	0.516125
33.750000	1	0.559875
33.766667	1	0.604375
33.783333	1	0.649500
33.800000	1	0.695875
33.816667	1	0.741875
33.833333	1	0.788125
33.850000	1	0.832625
33.866667	1	0.876625
33.883333	1	0.918625
33.900000	1	0.958875
33.916667	1	0.997000
33.933333	1	1.032500
33.950000	1	1.064875
33.966667	1	1.093875
33.983333	1	1.118875
34.000000	1	1.139125
34.016667	1	1.155625
34.033333	1	1.167250
34.050000	1	1.175125
34.066667	1	1.178250
34.083333	1	1.176500
34.100000	1	1.170125
34.116667	1	1.159250
34.133333	1	1.144000
34.150000	1	1.124375
34.166667	1	1.101375
34.183333	1	1.074875
34.200000	1	1.044875
34.216667	1	1.012125
34.233333	1	0.976500
34.250000	1	0.939000
34.266667	1	0.899500
34.283333	1	0.859375
34.300000	1	0.818375
34.316667	1	0.777125
34.333333	1	0.735750
34.350000	1	0.694250
34.366667	1	0.653250
34.383333	1	0.613000
34.400000	1	0.573500
34.416667	1	0.535375
34.433333	1	0.498875
34.450000	1	0.463500
34.466667	1	0.430375
34.483333	1	0.398875
34.500000	1	0.368500
34.516667	1	0.340000
34.533333	1	0.312750
34.550000	1	0.288000
34.566667	1	0.264625
34.583333	1	0.243125
34.600000	1	0.222625
34.616667	1	0.204250
34.633333	1	0.187000
34.650000	1	0.171125
34.666667	1	0.157125
34.683333	1	0.144125
34.700000	1	0.132375
34.716667	1	0.121750
34.733333	1	0.111625
34.750000	1	0.102875
34.766667	1	0.095500
34.783333	1	0.087125
34.800000	1	0.080500
34.816667	1	0.074875
34.833333	1	0.069750
34.850000	1	0.065000
34.866667	1	0.060750
34.883333	1	0.057125
34.900000	1	0.053500
34.916667	1	0.050250
34.933333	1	0.047625
34.950000	1	0.046375
34.966667	1	0.043875
34.983333	1	0.042500
35.000000	1	0.041375
35.016667	1	0.040250
35.033333	1	0.039500
35.050000	1	0.038625
35.066667	1	0.038375
35.083333	1	0.037625
35.100000	1	0.036750
35.116667	1	0.037125
35.133333	1	0.037625
35.150000	1	0.037750
35.166667	1	0.037750
35.183333	1	0.038125
35.200000	1	0.038750
35.216667	1	0.039125
35.233333	1	0.040125
35.250000	1	0.040375
35.266667	1	0.041625
35.283333	1	0.042625
35.300000	1	0.044000
35.316667	1	0.044875
35.333333	1	0.046375
35.350000	1	0.046875
35.366667	1	0.048500
35.383333	1	0.049125
35.400000	1	0.050250
35.416667	1	0.051000
35.433333	1	0.052625
35.450000	1	0.053500
35.466667	1	0.054125
35.483333	1	0.055250
35.500000	1	0.055750
35.516667	1	0.057625
35.533333	1	0.058375
35.550000	1	0.058875
35.566667	1	0.060000
35.583333	1	0.060250
35.600000	1	0.060750
35.616667	1	0.061250
35.633333	1	0.061375
35.650000	1	0.061500
35.666667	1	0.061875
35.683333	1	0.062750
35.700000	1	0.063250
35.716667	1	0.063375
35.733333	1	0.063250
35.750000	1	0.063125
35.766667	1	0.063000
35.783333	1	0.062500
35.800000	1	0.061375
35.816667	1	0.061500
35.833333	1	0.061625
35.850000	1	0.061125
35.866667	1	0.060500
35.883333	1	0.059750
35.900000	1	0.059000
35.916667	1	0.059125
35.933333	1	0.058625
35.950000	1	0.058000
35.966667	1	0.058125
35.983333	1	0.057875
36.000000	1	0.057250
36.016667	1	0.056500
36.033333	1	0.056000
36.050000	1	0.055625
36.066667	1	0.054750
36.083333	1	0.054875
36.100000	1	0.054875
36.116667	1	0.054875
36.133333	1	0.054250
36.150000	1	0.053375
36.166667	1	0.053000
36.183333	1	0.052750
36.200000	1	0.052125
36.216667	1	0.051750
36.233333	1	0.051750
36.250000	1	0.051375
36.266667	1	0.050750
36.283333	1	0.049750
36.300000	1	0.049500
36.316667	1	0.049375
36.333333	1	0.049500
36.350000	1	0.048750
36.366667	1	0.048125
36.383333	1	0.047125
36.400000	1	0.046375
36.416667	1	0.045125
36.433333	1	0.044250
36.450000	1	0.042625
36.466667	1	0.041625
36.483333	1	0.040125
36.500000	1	0.038125
36.516667	1	0.036875
36.533333	1	0.035625
36.550000	1	0.034125
36.566667	1	0.032000
36.583333	1	0.029875
36.600000	1	0.028500
36.616667	1	0.027500
36.633333	1	0.026250
36.650000	1	0.024125
36.666667	1	0.022250
36.683333	1	0.020000
36.700000	1	0.018500
36.716667	1	0.017000
36.733333	1	0.015375
36.750000	1	0.013750
36.766667	1	0.012375
36.783333	1	0.011125
36.800000	1	0.010375
36.816667	1	0.009375
36.833333	1	0.008625
36.850000	1	0.007625
36.866667	1	0.007375
36.883333	1	0.007125
36.900000	1	0.007125
36.916667	1	0.006875
36.933333	1	0.006750
36.950000	1	0.006875
36.966667	1	0.007500
36.983333	1	0.008000
37.000000	1	0.008625
37.016667	1	0.009000
37.033333	1	0.010000
37.050000	1	0.011125
37.066667	1	0.012500
37.083333	1	0.014000
37.100000	1	0.015750
37.116667	1	0.017000
37.133333	1	0.018500
37.150000	1	0.020375
37.166667	1	0.021250
37.183333	1	0.022750
37.200000	1	0.023750
37.216667	1	0.025000
37.233333	1	0.027000
37.250000	1	0.028375
37.266667	1	0.030375
37.283333	1	0.032375
37.300000	1	0.033750
37.316667	1	0.034750
37.333333	1	0.036375
37.350000	1	0.037000
37.366667	1	0.038250
37.383333	1	0.040125
37.400000	1	0.041125
37.416667	1	0.041375
37.433333	1	0.042000
37.450000	1	0.043625
37.466667	1	0.045250
37.483333	1	0.045875
37.500000	1	0.046250
37.516667	1	0.046625
37.533333	1	0.047000
37.550000	1	0.047250
37.566667	1	0.046500
37.583333	1	0.046250
37.600000	1	0.045625
37.616667	1	0.045125
37.633333	1	0.044625
37.650000	1	0.044500
37.666667	1	0.044000
37.683333	1	0.043375
37.700000	1	0.042125
37.716667	1	0.041250
37.733333	1	0.040125
37.750000	1	0.038750
37.766667	1	0.037375
37.783333	1	0.035625
37.800000	1	0.034000
37.816667	1	0.032000
37.833333	1	0.030000
37.850000	1	0.027750
37.866667	1	0.026375
37.883333	1	0.024625
37.900000	1	0.022750
37.916667	1	0.021375
37.933333	1	0.019750
37.950000	1	0.017750
37.966667	1	0.015250
37.983333	1	0.013500
38.000000	1	0.012125
38.016667	1	0.010500
38.033333	1	0.009000
38.050000	1	0.007625
38.066667	1	0.006000
38.083333	1	0.004875
38.100000	1	0.003875
38.116667	1	0.002500
38.133333	1	0.001625
38.150000	1	0.001000
38.166667	1	-0.000500
38.183333	1	-0.000875
38.200000	1	-0.001625
38.216667	1	-0.003000
38.233333	1	-0.003500
38.250000	1	-0.003500
38.266667	1	-0.004250
38.283333	1	-0.004000
38.300000	1	-0.004625
38.316667	1	-0.005250
38.333333	1	-0.004750
38.350000	1	-0.005000
38.366667	1	-0.004500
38.383333	1	-0.004000
38.400000	1	-0.003500
38.416667	1	-0.003125
38.433333	1	-0.002500
38.450000	1	-0.001750
38.466667	1	-0.000750
38.483333	1	-0.000375
38.500000	1	0.000000
38.516667	1	0.000500
38.533333	1	0.002000
38.550000	1	0.003125
38.566667	1	0.004125
38.583333	1	0.005750
38.600000	1	0.006375
38.616667	1	0.006750
38.633333	1	0.007875
38.650000	1	0.008875
38.666667	1	0.010000
38.683333	1	0.010875
38.700000	1	0.011500
38.716667	1	0.012000
38.733333	1	0.012625
38.750000	1	0.013000
38.766667	1	0.013250
38.783333	1	0.013625
38.800000	1	0.013875
38.816667	1	0.014125
38.833333	1	0.013875
38.850000	1	0.013500
38.866667	1	0.013375
38.883333	1	0.013125
38.900000	1	0.013375
38.916667	1	0.013125
38.933333	1	0.012750
38.950000	1	0.011750
38.966667	1	0.010375
38.983333	1	0.009500
39.000000	1	0.008125
39.016667	1	0.007125
39.033333	1	0.006000
39.050000	1	0.005250
39.066667	1	0.004375
39.083333	1	0.003250
39.100000	1	0.002000
39.116667	1	0.000750
39.133333	1	-0.000250
39.150000	1	-0.000875
39.166667	1	-0.001750
39.183333	1	-0.002500
39.200000	1	-0.003125
39.216667	1	-0.003375
39.233333	1	-0.003750
39.250000	1	-0.004875
39.266667	1	-0.005500
39.283333	1	-0.006250
39.300000	1	-0.007125
39.316667	1	-0.007375
39.333333	1	-0.007375
39.350000	1	-0.007750
39.366667	1	-0.008250
39.383333	1	-0.008250
39.400000	1	-0.008500
39.416667	1	-0.008500
39.433333	1	-0.008125
39.450000	1	-0.008000
39.466667	1	-0.008125
39.483333	1	-0.007750
39.500000	1	-0.008250
39.516667	1	-0.008375
39.533333	1	-0.008000
39.550000	1	-0.008125
39.566667	1	-0.008375
39.583333	1	-0.009125
39.600000	1	-0.009250
39.616667	1	-0.009000
39.633333	1	-0.008625
39.650000	1	-0.009250
39.666667	1	-0.009375
39.683333	1	-0.009500
39.700000	1	-0.010000
39.716667	1	-0.010250
39.733333	1	-0.009875
39.750000	1	-0.010000
39.766667	1	-0.010750
39.783333	1	-0.010875
39.800000	1	-0.011125
39.816667	1	-0.011250
39.833333	1	-0.011500
39.850000	1	-0.011625
39.866667	1	-0.011500
39.883333	1	-0.011625
39.900000	1	-0.011875
39.916667	1	-0.012375
39.933333	1	-0.013125
39.950000	1	-0.014000
39.966667	1	-0.014250
39.983333	1	-0.014875
40.000000	1	-0.014875
