URL	chrom://bioreactor/micro_cm7/HPLC_Ultimate_3000/Users/markusar/20240716_MA_pHrange2.seq/459.smp/RI_1.channel/RI_1.chm
Channel	RI_1

Injection Information:
Data Vault	micro_cm7
Sequence	20240716_MA_pHrange2
Name	Fp2_40H_2
Number	34
Position	BC10
Comment	
Processing Method	
Instrument Method	run_25B_method
Type	Unknown
Status	Finished
Inject Time	17.07.2024 16:38:30 +02:00
Volume (µl)	20.0000
Dilution Factor	1.0000
Weight	1.0000

Chromatogram Data Information:
Time Min. (min)	0.000000
Time Max. (min)	40.000000
Data Points	2401
Detector	RI
Generating Data System	Chromeleon 7.3.2.11814
Exporting Data System	Chromeleon 7.3.2.0
Operator	Instrument Controller
Signal Quantity	Refractive 
Signal Unit	µRIU
Signal Min.	-0.068125
Signal Max.	81.596625
Channel	RI_1
Driver Name	RID520Driver.dll
Channel Type	Evaluation
Min. Step (s)	1
Max. Step (s)	1
Average Step (s)	1

Signal Parameter Information:
Signal Info	

Chromatogram Data:
Time (min)	Step (s)	Value (µRIU)
0.000000	n.a.	0.010375
0.016667	1	0.010000
0.033333	1	0.009750
0.050000	1	0.009500
0.066667	1	0.009125
0.083333	1	0.009125
0.100000	1	0.009250
0.116667	1	0.009375
0.133333	1	0.008875
0.150000	1	0.008500
0.166667	1	0.007500
0.183333	1	0.007250
0.200000	1	0.007125
0.216667	1	0.006500
0.233333	1	0.006375
0.250000	1	0.006000
0.266667	1	0.005500
0.283333	1	0.004625
0.300000	1	0.003750
0.316667	1	0.003500
0.333333	1	0.003250
0.350000	1	0.003500
0.366667	1	0.002875
0.383333	1	0.002000
0.400000	1	0.001125
0.416667	1	0.001000
0.433333	1	0.000750
0.450000	1	0.001625
0.466667	1	0.003500
0.483333	1	0.005250
0.500000	1	0.006875
0.516667	1	0.007625
0.533333	1	0.007875
0.550000	1	0.007375
0.566667	1	0.006875
0.583333	1	0.005250
0.600000	1	0.003375
0.616667	1	0.002125
0.633333	1	0.001750
0.650000	1	0.001000
0.666667	1	0.001000
0.683333	1	0.001375
0.700000	1	0.001875
0.716667	1	0.002000
0.733333	1	0.002875
0.750000	1	0.003000
0.766667	1	0.003375
0.783333	1	0.003750
0.800000	1	0.003750
0.816667	1	0.003875
0.833333	1	0.004000
0.850000	1	0.004375
0.866667	1	0.004750
0.883333	1	0.005000
0.900000	1	0.004875
0.916667	1	0.004750
0.933333	1	0.004875
0.950000	1	0.004375
0.966667	1	0.004375
0.983333	1	0.004125
1.000000	1	0.003750
1.016667	1	0.003500
1.033333	1	0.003625
1.050000	1	0.003625
1.066667	1	0.003625
1.083333	1	0.003750
1.100000	1	0.003500
1.116667	1	0.003000
1.133333	1	0.003000
1.150000	1	0.003125
1.166667	1	0.003000
1.183333	1	0.003500
1.200000	1	0.003125
1.216667	1	0.003875
1.233333	1	0.003750
1.250000	1	0.003500
1.266667	1	0.004375
1.283333	1	0.004375
1.300000	1	0.004375
1.316667	1	0.004375
1.333333	1	0.003875
1.350000	1	0.003250
1.366667	1	0.003125
1.383333	1	0.002875
1.400000	1	0.002625
1.416667	1	0.002500
1.433333	1	0.001750
1.450000	1	0.001000
1.466667	1	0.000000
1.483333	1	-0.000375
1.500000	1	-0.001250
1.516667	1	-0.001875
1.533333	1	-0.003250
1.550000	1	-0.004375
1.566667	1	-0.005250
1.583333	1	-0.006500
1.600000	1	-0.007750
1.616667	1	-0.008625
1.633333	1	-0.010000
1.650000	1	-0.011500
1.666667	1	-0.013500
1.683333	1	-0.015250
1.700000	1	-0.017125
1.716667	1	-0.018125
1.733333	1	-0.020000
1.750000	1	-0.021500
1.766667	1	-0.022875
1.783333	1	-0.024625
1.800000	1	-0.026625
1.816667	1	-0.028375
1.833333	1	-0.029750
1.850000	1	-0.030875
1.866667	1	-0.032000
1.883333	1	-0.033375
1.900000	1	-0.035125
1.916667	1	-0.036125
1.933333	1	-0.037625
1.950000	1	-0.039000
1.966667	1	-0.040125
1.983333	1	-0.041375
2.000000	1	-0.041125
2.016667	1	-0.042375
2.033333	1	-0.043625
2.050000	1	-0.044250
2.066667	1	-0.044750
2.083333	1	-0.045125
2.100000	1	-0.045875
2.116667	1	-0.046750
2.133333	1	-0.048125
2.150000	1	-0.048875
2.166667	1	-0.049625
2.183333	1	-0.049750
2.200000	1	-0.050875
2.216667	1	-0.052000
2.233333	1	-0.052875
2.250000	1	-0.054125
2.266667	1	-0.055500
2.283333	1	-0.056375
2.300000	1	-0.057750
2.316667	1	-0.059125
2.333333	1	-0.061375
2.350000	1	-0.062250
2.366667	1	-0.062875
2.383333	1	-0.064125
2.400000	1	-0.064625
2.416667	1	-0.065625
2.433333	1	-0.066750
2.450000	1	-0.067250
2.466667	1	-0.067625
2.483333	1	-0.067875
2.500000	1	-0.068000
2.516667	1	-0.068125
2.533333	1	-0.068000
2.550000	1	-0.067250
2.566667	1	-0.066125
2.583333	1	-0.065125
2.600000	1	-0.063750
2.616667	1	-0.062125
2.633333	1	-0.060375
2.650000	1	-0.058375
2.666667	1	-0.057000
2.683333	1	-0.055375
2.700000	1	-0.053750
2.716667	1	-0.052625
2.733333	1	-0.050875
2.750000	1	-0.049250
2.766667	1	-0.047500
2.783333	1	-0.045500
2.800000	1	-0.044000
2.816667	1	-0.042500
2.833333	1	-0.041250
2.850000	1	-0.040250
2.866667	1	-0.039250
2.883333	1	-0.039125
2.900000	1	-0.038375
2.916667	1	-0.038125
2.933333	1	-0.037875
2.950000	1	-0.037250
2.966667	1	-0.036750
2.983333	1	-0.037125
3.000000	1	-0.036750
3.016667	1	-0.037250
3.033333	1	-0.037750
3.050000	1	-0.038000
3.066667	1	-0.038125
3.083333	1	-0.038250
3.100000	1	-0.039125
3.116667	1	-0.039250
3.133333	1	-0.038875
3.150000	1	-0.038875
3.166667	1	-0.039125
3.183333	1	-0.038375
3.200000	1	-0.038750
3.216667	1	-0.037500
3.233333	1	-0.035375
3.250000	1	-0.033875
3.266667	1	-0.032250
3.283333	1	-0.030125
3.300000	1	-0.027625
3.316667	1	-0.025750
3.333333	1	-0.022625
3.350000	1	-0.019250
3.366667	1	-0.016125
3.383333	1	-0.012625
3.400000	1	-0.009250
3.416667	1	-0.006000
3.433333	1	-0.002875
3.450000	1	0.000375
3.466667	1	0.003875
3.483333	1	0.007375
3.500000	1	0.011125
3.516667	1	0.014250
3.533333	1	0.016750
3.550000	1	0.020125
3.566667	1	0.023250
3.583333	1	0.026000
3.600000	1	0.028750
3.616667	1	0.031875
3.633333	1	0.034000
3.650000	1	0.036375
3.666667	1	0.037875
3.683333	1	0.039750
3.700000	1	0.042375
3.716667	1	0.044500
3.733333	1	0.045250
3.750000	1	0.046125
3.766667	1	0.047375
3.783333	1	0.048875
3.800000	1	0.050250
3.816667	1	0.051500
3.833333	1	0.052750
3.850000	1	0.054000
3.866667	1	0.055625
3.883333	1	0.056125
3.900000	1	0.057875
3.916667	1	0.059375
3.933333	1	0.061000
3.950000	1	0.062750
3.966667	1	0.063750
3.983333	1	0.066000
4.000000	1	0.068500
4.016667	1	0.070875
4.033333	1	0.073000
4.050000	1	0.075500
4.066667	1	0.078125
4.083333	1	0.079750
4.100000	1	0.082000
4.116667	1	0.085125
4.133333	1	0.087500
4.150000	1	0.089875
4.166667	1	0.092750
4.183333	1	0.095375
4.200000	1	0.098250
4.216667	1	0.101500
4.233333	1	0.104375
4.250000	1	0.107000
4.266667	1	0.109875
4.283333	1	0.113375
4.300000	1	0.115750
4.316667	1	0.118500
4.333333	1	0.120875
4.350000	1	0.124250
4.366667	1	0.126875
4.383333	1	0.128500
4.400000	1	0.131000
4.416667	1	0.133625
4.433333	1	0.136125
4.450000	1	0.138500
4.466667	1	0.140750
4.483333	1	0.142750
4.500000	1	0.144125
4.516667	1	0.146375
4.533333	1	0.148125
4.550000	1	0.150500
4.566667	1	0.152125
4.583333	1	0.153625
4.600000	1	0.155250
4.616667	1	0.157000
4.633333	1	0.159125
4.650000	1	0.160500
4.666667	1	0.162250
4.683333	1	0.163500
4.700000	1	0.164875
4.716667	1	0.166000
4.733333	1	0.168250
4.750000	1	0.170125
4.766667	1	0.171875
4.783333	1	0.173750
4.800000	1	0.176125
4.816667	1	0.178000
4.833333	1	0.180375
4.850000	1	0.183000
4.866667	1	0.185250
4.883333	1	0.187750
4.900000	1	0.191125
4.916667	1	0.194125
4.933333	1	0.196375
4.950000	1	0.199250
4.966667	1	0.202750
4.983333	1	0.205875
5.000000	1	0.208375
5.016667	1	0.211375
5.033333	1	0.214625
5.050000	1	0.217500
5.066667	1	0.220000
5.083333	1	0.221875
5.100000	1	0.224500
5.116667	1	0.227000
5.133333	1	0.229250
5.150000	1	0.232250
5.166667	1	0.235000
5.183333	1	0.236500
5.200000	1	0.238500
5.216667	1	0.240500
5.233333	1	0.241625
5.250000	1	0.243375
5.266667	1	0.244125
5.283333	1	0.244250
5.300000	1	0.245000
5.316667	1	0.245250
5.333333	1	0.245250
5.350000	1	0.244750
5.366667	1	0.243875
5.383333	1	0.243125
5.400000	1	0.241125
5.416667	1	0.239250
5.433333	1	0.237500
5.450000	1	0.235500
5.466667	1	0.233250
5.483333	1	0.229750
5.500000	1	0.227125
5.516667	1	0.223625
5.533333	1	0.220625
5.550000	1	0.216625
5.566667	1	0.213250
5.583333	1	0.209125
5.600000	1	0.205250
5.616667	1	0.200750
5.633333	1	0.196875
5.650000	1	0.192125
5.666667	1	0.187750
5.683333	1	0.182875
5.700000	1	0.178500
5.716667	1	0.174000
5.733333	1	0.169500
5.750000	1	0.164625
5.766667	1	0.159750
5.783333	1	0.155250
5.800000	1	0.150250
5.816667	1	0.145750
5.833333	1	0.141500
5.850000	1	0.137625
5.866667	1	0.133500
5.883333	1	0.129125
5.900000	1	0.125250
5.916667	1	0.122000
5.933333	1	0.118625
5.950000	1	0.114625
5.966667	1	0.111250
5.983333	1	0.108125
6.000000	1	0.104375
6.016667	1	0.100750
6.033333	1	0.098250
6.050000	1	0.095375
6.066667	1	0.092625
6.083333	1	0.090000
6.100000	1	0.087500
6.116667	1	0.084750
6.133333	1	0.082000
6.150000	1	0.079625
6.166667	1	0.077250
6.183333	1	0.075500
6.200000	1	0.073375
6.216667	1	0.071500
6.233333	1	0.069500
6.250000	1	0.067250
6.266667	1	0.065125
6.283333	1	0.063750
6.300000	1	0.062000
6.316667	1	0.060875
6.333333	1	0.059375
6.350000	1	0.058000
6.366667	1	0.057625
6.383333	1	0.057125
6.400000	1	0.056500
6.416667	1	0.055500
6.433333	1	0.055375
6.450000	1	0.054875
6.466667	1	0.054250
6.483333	1	0.053875
6.500000	1	0.052875
6.516667	1	0.052875
6.533333	1	0.053000
6.550000	1	0.053625
6.566667	1	0.055000
6.583333	1	0.055750
6.600000	1	0.055875
6.616667	1	0.056750
6.633333	1	0.057625
6.650000	1	0.059000
6.666667	1	0.060375
6.683333	1	0.061500
6.700000	1	0.062625
6.716667	1	0.063750
6.733333	1	0.065125
6.750000	1	0.067000
6.766667	1	0.068875
6.783333	1	0.070500
6.800000	1	0.072500
6.816667	1	0.074750
6.833333	1	0.077000
6.850000	1	0.078375
6.866667	1	0.080875
6.883333	1	0.082750
6.900000	1	0.085250
6.916667	1	0.087750
6.933333	1	0.090000
6.950000	1	0.092125
6.966667	1	0.094625
6.983333	1	0.096125
7.000000	1	0.098375
7.016667	1	0.099625
7.033333	1	0.102125
7.050000	1	0.104000
7.066667	1	0.105625
7.083333	1	0.106875
7.100000	1	0.107875
7.116667	1	0.109125
7.133333	1	0.109625
7.150000	1	0.110875
7.166667	1	0.111000
7.183333	1	0.111000
7.200000	1	0.110875
7.216667	1	0.110875
7.233333	1	0.109625
7.250000	1	0.109000
7.266667	1	0.108250
7.283333	1	0.107000
7.300000	1	0.105500
7.316667	1	0.104125
7.333333	1	0.102875
7.350000	1	0.100750
7.366667	1	0.098750
7.383333	1	0.096750
7.400000	1	0.093500
7.416667	1	0.091750
7.433333	1	0.089125
7.450000	1	0.086000
7.466667	1	0.083500
7.483333	1	0.080875
7.500000	1	0.078125
7.516667	1	0.075500
7.533333	1	0.072250
7.550000	1	0.069250
7.566667	1	0.066375
7.583333	1	0.063500
7.600000	1	0.060500
7.616667	1	0.057625
7.633333	1	0.054500
7.650000	1	0.051500
7.666667	1	0.048625
7.683333	1	0.045375
7.700000	1	0.042500
7.716667	1	0.039625
7.733333	1	0.037250
7.750000	1	0.035375
7.766667	1	0.033250
7.783333	1	0.030000
7.800000	1	0.027375
7.816667	1	0.025125
7.833333	1	0.022875
7.850000	1	0.020125
7.866667	1	0.018000
7.883333	1	0.015000
7.900000	1	0.012750
7.916667	1	0.010500
7.933333	1	0.008500
7.950000	1	0.006750
7.966667	1	0.004125
7.983333	1	0.002250
8.000000	1	0.001000
8.016667	1	-0.000500
8.033333	1	-0.003250
8.050000	1	-0.005250
8.066667	1	-0.006750
8.083333	1	-0.007875
8.100000	1	-0.009750
8.116667	1	-0.011250
8.133333	1	-0.012875
8.150000	1	-0.014250
8.166667	1	-0.015125
8.183333	1	-0.015750
8.200000	1	-0.017000
8.216667	1	-0.017625
8.233333	1	-0.018500
8.250000	1	-0.019250
8.266667	1	-0.020125
8.283333	1	-0.021250
8.300000	1	-0.022000
8.316667	1	-0.022125
8.333333	1	-0.022625
8.350000	1	-0.022875
8.366667	1	-0.023625
8.383333	1	-0.024250
8.400000	1	-0.025250
8.416667	1	-0.026375
8.433333	1	-0.026250
8.450000	1	-0.027375
8.466667	1	-0.028000
8.483333	1	-0.028750
8.500000	1	-0.029875
8.516667	1	-0.030875
8.533333	1	-0.031875
8.550000	1	-0.033375
8.566667	1	-0.035125
8.583333	1	-0.036875
8.600000	1	-0.038375
8.616667	1	-0.039750
8.633333	1	-0.042125
8.650000	1	-0.044000
8.666667	1	-0.045750
8.683333	1	-0.047750
8.700000	1	-0.049875
8.716667	1	-0.052250
8.733333	1	-0.054500
8.750000	1	-0.056500
8.766667	1	-0.057875
8.783333	1	-0.058500
8.800000	1	-0.060375
8.816667	1	-0.062250
8.833333	1	-0.063375
8.850000	1	-0.063875
8.866667	1	-0.065250
8.883333	1	-0.066375
8.900000	1	-0.065500
8.916667	1	-0.065250
8.933333	1	-0.065000
8.950000	1	-0.064375
8.966667	1	-0.063250
8.983333	1	-0.061875
9.000000	1	-0.060000
9.016667	1	-0.058750
9.033333	1	-0.056875
9.050000	1	-0.054375
9.066667	1	-0.052000
9.083333	1	-0.049000
9.100000	1	-0.046500
9.116667	1	-0.043250
9.133333	1	-0.039750
9.150000	1	-0.036250
9.166667	1	-0.033375
9.183333	1	-0.029750
9.200000	1	-0.026625
9.216667	1	-0.023375
9.233333	1	-0.020375
9.250000	1	-0.017125
9.266667	1	-0.013875
9.283333	1	-0.010500
9.300000	1	-0.007875
9.316667	1	-0.005250
9.333333	1	-0.002375
9.350000	1	0.000500
9.366667	1	0.003125
9.383333	1	0.005125
9.400000	1	0.007000
9.416667	1	0.009125
9.433333	1	0.010875
9.450000	1	0.012125
9.466667	1	0.013375
9.483333	1	0.014625
9.500000	1	0.016375
9.516667	1	0.017500
9.533333	1	0.017875
9.550000	1	0.018250
9.566667	1	0.018750
9.583333	1	0.019375
9.600000	1	0.020000
9.616667	1	0.020125
9.633333	1	0.019000
9.650000	1	0.018000
9.666667	1	0.018000
9.683333	1	0.017375
9.700000	1	0.017000
9.716667	1	0.016625
9.733333	1	0.016125
9.750000	1	0.016500
9.766667	1	0.016500
9.783333	1	0.015000
9.800000	1	0.014000
9.816667	1	0.013250
9.833333	1	0.012500
9.850000	1	0.012000
9.866667	1	0.011125
9.883333	1	0.010000
9.900000	1	0.009625
9.916667	1	0.009250
9.933333	1	0.008125
9.950000	1	0.006750
9.966667	1	0.005625
9.983333	1	0.004375
10.000000	1	0.003000
10.016667	1	0.001875
10.033333	1	0.000625
10.050000	1	-0.000500
10.066667	1	-0.001875
10.083333	1	-0.003125
10.100000	1	-0.003250
10.116667	1	-0.003250
10.133333	1	-0.003500
10.150000	1	-0.003000
10.166667	1	-0.000875
10.183333	1	0.001125
10.200000	1	0.005625
10.216667	1	0.011250
10.233333	1	0.018375
10.250000	1	0.027000
10.266667	1	0.036750
10.283333	1	0.048625
10.300000	1	0.062375
10.316667	1	0.079000
10.333333	1	0.097625
10.350000	1	0.116250
10.366667	1	0.134500
10.383333	1	0.149500
10.400000	1	0.158250
10.416667	1	0.156125
10.433333	1	0.139375
10.450000	1	0.107250
10.466667	1	0.061500
10.483333	1	0.011500
10.500000	1	-0.025000
10.516667	1	-0.019875
10.533333	1	0.064250
10.550000	1	0.276375
10.566667	1	0.671625
10.583333	1	1.307750
10.600000	1	2.243875
10.616667	1	3.532375
10.633333	1	5.217375
10.650000	1	7.330250
10.666667	1	9.896125
10.683333	1	12.926000
10.700000	1	16.421375
10.716667	1	20.369875
10.733333	1	24.749375
10.750000	1	29.526375
10.766667	1	34.654875
10.783333	1	40.072000
10.800000	1	45.700875
10.816667	1	51.432625
10.833333	1	57.105750
10.850000	1	62.491500
10.866667	1	67.272375
10.883333	1	71.019750
10.900000	1	73.225500
10.916667	1	73.394375
10.933333	1	71.207375
10.950000	1	66.675125
10.966667	1	60.202000
10.983333	1	52.502375
11.000000	1	44.387500
11.016667	1	36.567250
11.033333	1	29.529125
11.050000	1	23.506500
11.066667	1	18.540375
11.083333	1	14.558000
11.100000	1	11.433250
11.116667	1	9.022375
11.133333	1	7.185000
11.150000	1	5.796500
11.166667	1	4.752000
11.183333	1	3.966125
11.200000	1	3.374250
11.216667	1	2.925500
11.233333	1	2.583000
11.250000	1	2.318500
11.266667	1	2.110750
11.283333	1	1.946000
11.300000	1	1.812000
11.316667	1	1.700875
11.333333	1	1.607875
11.350000	1	1.527000
11.366667	1	1.456250
11.383333	1	1.392875
11.400000	1	1.335750
11.416667	1	1.283750
11.433333	1	1.237375
11.450000	1	1.195125
11.466667	1	1.158000
11.483333	1	1.125500
11.500000	1	1.097625
11.516667	1	1.073375
11.533333	1	1.053500
11.550000	1	1.038000
11.566667	1	1.026875
11.583333	1	1.020375
11.600000	1	1.017750
11.616667	1	1.019750
11.633333	1	1.025625
11.650000	1	1.036875
11.666667	1	1.051625
11.683333	1	1.070750
11.700000	1	1.093750
11.716667	1	1.119625
11.733333	1	1.146375
11.750000	1	1.172750
11.766667	1	1.198500
11.783333	1	1.220875
11.800000	1	1.239000
11.816667	1	1.251375
11.833333	1	1.258625
11.850000	1	1.259750
11.866667	1	1.254875
11.883333	1	1.244500
11.900000	1	1.229375
11.916667	1	1.210750
11.933333	1	1.189000
11.950000	1	1.166000
11.966667	1	1.142625
11.983333	1	1.119250
12.000000	1	1.097375
12.016667	1	1.076625
12.033333	1	1.057625
12.050000	1	1.041125
12.066667	1	1.026375
12.083333	1	1.013250
12.100000	1	1.002875
12.116667	1	0.993500
12.133333	1	0.986625
12.150000	1	0.981125
12.166667	1	0.977625
12.183333	1	0.975625
12.200000	1	0.974625
12.216667	1	0.975500
12.233333	1	0.978500
12.250000	1	0.984250
12.266667	1	0.992375
12.283333	1	1.005250
12.300000	1	1.025500
12.316667	1	1.053500
12.333333	1	1.094000
12.350000	1	1.152000
12.366667	1	1.234375
12.383333	1	1.351000
12.400000	1	1.514375
12.416667	1	1.740250
12.433333	1	2.051875
12.450000	1	2.475750
12.466667	1	3.048625
12.483333	1	3.814250
12.500000	1	4.827625
12.516667	1	6.149750
12.533333	1	7.848500
12.550000	1	9.996625
12.566667	1	12.669125
12.583333	1	15.934375
12.600000	1	19.841000
12.616667	1	24.405750
12.633333	1	29.613500
12.650000	1	35.406375
12.666667	1	41.673500
12.683333	1	48.241125
12.700000	1	54.881625
12.716667	1	61.324375
12.733333	1	67.276625
12.750000	1	72.450500
12.766667	1	76.587125
12.783333	1	79.486000
12.800000	1	81.017750
12.816667	1	81.151000
12.833333	1	79.939000
12.850000	1	77.517500
12.866667	1	74.087375
12.883333	1	69.902625
12.900000	1	65.236500
12.916667	1	60.359250
12.933333	1	55.517250
12.950000	1	50.911375
12.966667	1	46.687375
12.983333	1	42.944625
13.000000	1	39.735750
13.016667	1	37.073125
13.033333	1	34.939250
13.050000	1	33.295125
13.066667	1	32.092250
13.083333	1	31.277875
13.100000	1	30.797750
13.116667	1	30.601375
13.133333	1	30.641750
13.150000	1	30.879000
13.166667	1	31.277875
13.183333	1	31.809875
13.200000	1	32.450875
13.216667	1	33.181250
13.233333	1	33.988250
13.250000	1	34.858750
13.266667	1	35.784875
13.283333	1	36.759875
13.300000	1	37.776625
13.316667	1	38.833125
13.333333	1	39.924250
13.350000	1	41.048625
13.366667	1	42.204000
13.383333	1	43.389750
13.400000	1	44.603625
13.416667	1	45.844750
13.433333	1	47.114625
13.450000	1	48.414875
13.466667	1	49.744750
13.483333	1	51.104250
13.500000	1	52.494250
13.516667	1	53.914250
13.533333	1	55.364375
13.550000	1	56.844750
13.566667	1	58.356375
13.583333	1	59.898750
13.600000	1	61.470625
13.616667	1	63.074000
13.633333	1	64.709750
13.650000	1	66.380375
13.666667	1	68.086875
13.683333	1	69.829625
13.700000	1	71.608875
13.716667	1	73.423000
13.733333	1	75.263875
13.750000	1	77.101625
13.766667	1	78.847125
13.783333	1	80.328375
13.800000	1	81.318500
13.816667	1	81.596625
13.833333	1	80.993750
13.850000	1	79.374875
13.866667	1	76.576750
13.883333	1	72.384750
13.900000	1	66.618750
13.916667	1	59.330875
13.933333	1	50.966750
13.950000	1	42.295875
13.966667	1	34.142500
13.983333	1	27.087250
14.000000	1	21.347625
14.016667	1	16.854500
14.033333	1	13.412750
14.050000	1	10.807750
14.066667	1	8.855375
14.083333	1	7.404000
14.100000	1	6.332250
14.116667	1	5.542750
14.133333	1	4.959500
14.150000	1	4.525000
14.166667	1	4.195000
14.183333	1	3.940750
14.200000	1	3.739250
14.216667	1	3.576750
14.233333	1	3.441750
14.250000	1	3.327375
14.266667	1	3.228875
14.283333	1	3.141000
14.300000	1	3.063000
14.316667	1	2.992375
14.333333	1	2.927875
14.350000	1	2.868500
14.366667	1	2.813500
14.383333	1	2.762125
14.400000	1	2.714875
14.416667	1	2.671250
14.433333	1	2.631000
14.450000	1	2.593750
14.466667	1	2.559500
14.483333	1	2.528000
14.500000	1	2.497875
14.516667	1	2.470250
14.533333	1	2.445000
14.550000	1	2.420375
14.566667	1	2.397375
14.583333	1	2.374875
14.600000	1	2.352500
14.616667	1	2.329875
14.633333	1	2.309000
14.650000	1	2.286875
14.666667	1	2.264250
14.683333	1	2.241000
14.700000	1	2.217000
14.716667	1	2.192125
14.733333	1	2.166625
14.750000	1	2.140875
14.766667	1	2.115125
14.783333	1	2.089250
14.800000	1	2.063250
14.816667	1	2.037625
14.833333	1	2.011500
14.850000	1	1.985625
14.866667	1	1.959875
14.883333	1	1.935250
14.900000	1	1.910500
14.916667	1	1.885125
14.933333	1	1.860375
14.950000	1	1.836500
14.966667	1	1.813125
14.983333	1	1.789875
15.000000	1	1.766750
15.016667	1	1.744000
15.033333	1	1.721750
15.050000	1	1.699500
15.066667	1	1.677875
15.083333	1	1.657250
15.100000	1	1.637125
15.116667	1	1.617250
15.133333	1	1.598000
15.150000	1	1.580125
15.166667	1	1.563750
15.183333	1	1.548000
15.200000	1	1.532125
15.216667	1	1.518000
15.233333	1	1.504750
15.250000	1	1.494625
15.266667	1	1.484750
15.283333	1	1.476625
15.300000	1	1.470625
15.316667	1	1.467250
15.333333	1	1.467125
15.350000	1	1.469750
15.366667	1	1.475500
15.383333	1	1.485625
15.400000	1	1.499375
15.416667	1	1.517500
15.433333	1	1.539625
15.450000	1	1.565875
15.466667	1	1.594375
15.483333	1	1.625125
15.500000	1	1.655625
15.516667	1	1.686375
15.533333	1	1.714500
15.550000	1	1.738000
15.566667	1	1.755625
15.583333	1	1.767250
15.600000	1	1.770625
15.616667	1	1.765625
15.633333	1	1.752500
15.650000	1	1.731375
15.666667	1	1.704500
15.683333	1	1.671250
15.700000	1	1.634500
15.716667	1	1.595875
15.733333	1	1.555375
15.750000	1	1.515750
15.766667	1	1.476250
15.783333	1	1.438000
15.800000	1	1.401750
15.816667	1	1.366875
15.833333	1	1.334125
15.850000	1	1.301750
15.866667	1	1.271500
15.883333	1	1.242625
15.900000	1	1.214375
15.916667	1	1.187625
15.933333	1	1.161375
15.950000	1	1.137125
15.966667	1	1.114500
15.983333	1	1.093750
16.000000	1	1.075375
16.016667	1	1.058625
16.033333	1	1.044625
16.050000	1	1.032750
16.066667	1	1.023750
16.083333	1	1.015125
16.100000	1	1.009250
16.116667	1	1.005750
16.133333	1	1.003000
16.150000	1	1.001250
16.166667	1	1.001500
16.183333	1	1.002750
16.200000	1	1.003875
16.216667	1	1.006000
16.233333	1	1.007500
16.250000	1	1.009250
16.266667	1	1.010250
16.283333	1	1.011125
16.300000	1	1.011750
16.316667	1	1.011125
16.333333	1	1.010625
16.350000	1	1.008375
16.366667	1	1.005875
16.383333	1	1.003125
16.400000	1	1.000500
16.416667	1	0.997375
16.433333	1	0.994500
16.450000	1	0.991625
16.466667	1	0.989375
16.483333	1	0.987875
16.500000	1	0.987000
16.516667	1	0.987875
16.533333	1	0.991125
16.550000	1	0.995250
16.566667	1	1.001250
16.583333	1	1.007375
16.600000	1	1.015125
16.616667	1	1.023125
16.633333	1	1.031750
16.650000	1	1.041000
16.666667	1	1.049625
16.683333	1	1.058000
16.700000	1	1.064125
16.716667	1	1.070250
16.733333	1	1.075000
16.750000	1	1.078875
16.766667	1	1.081750
16.783333	1	1.084000
16.800000	1	1.086500
16.816667	1	1.088625
16.833333	1	1.091375
16.850000	1	1.094375
16.866667	1	1.097125
16.883333	1	1.101125
16.900000	1	1.104500
16.916667	1	1.108250
16.933333	1	1.111625
16.950000	1	1.115750
16.966667	1	1.118500
16.983333	1	1.120250
17.000000	1	1.120750
17.016667	1	1.121000
17.033333	1	1.120750
17.050000	1	1.119125
17.066667	1	1.116625
17.083333	1	1.113500
17.100000	1	1.110500
17.116667	1	1.106875
17.133333	1	1.103500
17.150000	1	1.100500
17.166667	1	1.097875
17.183333	1	1.096625
17.200000	1	1.095375
17.216667	1	1.095875
17.233333	1	1.096375
17.250000	1	1.097750
17.266667	1	1.099375
17.283333	1	1.101375
17.300000	1	1.104375
17.316667	1	1.107250
17.333333	1	1.111750
17.350000	1	1.116625
17.366667	1	1.120125
17.383333	1	1.124500
17.400000	1	1.128250
17.416667	1	1.131750
17.433333	1	1.134500
17.450000	1	1.137000
17.466667	1	1.137625
17.483333	1	1.137500
17.500000	1	1.136000
17.516667	1	1.132625
17.533333	1	1.127625
17.550000	1	1.121250
17.566667	1	1.113625
17.583333	1	1.104625
17.600000	1	1.094375
17.616667	1	1.082500
17.633333	1	1.069750
17.650000	1	1.055500
17.666667	1	1.039875
17.683333	1	1.024375
17.700000	1	1.007625
17.716667	1	0.991500
17.733333	1	0.975000
17.750000	1	0.960000
17.766667	1	0.945250
17.783333	1	0.930875
17.800000	1	0.917125
17.816667	1	0.903625
17.833333	1	0.891625
17.850000	1	0.880000
17.866667	1	0.869000
17.883333	1	0.858750
17.900000	1	0.849000
17.916667	1	0.839250
17.933333	1	0.830625
17.950000	1	0.822875
17.966667	1	0.816250
17.983333	1	0.809250
18.000000	1	0.803000
18.016667	1	0.796500
18.033333	1	0.790500
18.050000	1	0.784000
18.066667	1	0.777750
18.083333	1	0.771750
18.100000	1	0.765125
18.116667	1	0.758750
18.133333	1	0.752125
18.150000	1	0.746000
18.166667	1	0.739625
18.183333	1	0.733500
18.200000	1	0.727375
18.216667	1	0.721750
18.233333	1	0.716500
18.250000	1	0.712125
18.266667	1	0.707250
18.283333	1	0.703375
18.300000	1	0.700375
18.316667	1	0.697750
18.333333	1	0.695500
18.350000	1	0.693875
18.366667	1	0.692875
18.383333	1	0.693250
18.400000	1	0.692875
18.416667	1	0.694375
18.433333	1	0.696375
18.450000	1	0.699500
18.466667	1	0.702625
18.483333	1	0.707000
18.500000	1	0.712750
18.516667	1	0.719750
18.533333	1	0.729000
18.550000	1	0.739000
18.566667	1	0.751750
18.583333	1	0.765875
18.600000	1	0.782250
18.616667	1	0.801125
18.633333	1	0.822000
18.650000	1	0.845500
18.666667	1	0.870875
18.683333	1	0.897750
18.700000	1	0.927000
18.716667	1	0.958000
18.733333	1	0.990750
18.750000	1	1.024000
18.766667	1	1.058125
18.783333	1	1.093375
18.800000	1	1.128750
18.816667	1	1.163625
18.833333	1	1.197500
18.850000	1	1.230375
18.866667	1	1.260250
18.883333	1	1.287750
18.900000	1	1.312125
18.916667	1	1.332500
18.933333	1	1.347000
18.950000	1	1.357000
18.966667	1	1.361625
18.983333	1	1.359625
19.000000	1	1.351000
19.016667	1	1.335250
19.033333	1	1.313500
19.050000	1	1.285625
19.066667	1	1.253250
19.083333	1	1.215875
19.100000	1	1.173625
19.116667	1	1.129250
19.133333	1	1.083125
19.150000	1	1.035250
19.166667	1	0.987000
19.183333	1	0.939250
19.200000	1	0.894000
19.216667	1	0.850250
19.233333	1	0.810250
19.250000	1	0.774375
19.266667	1	0.742625
19.283333	1	0.716375
19.300000	1	0.694000
19.316667	1	0.676250
19.333333	1	0.664000
19.350000	1	0.657125
19.366667	1	0.655000
19.383333	1	0.657375
19.400000	1	0.665125
19.416667	1	0.677625
19.433333	1	0.693750
19.450000	1	0.714375
19.466667	1	0.739000
19.483333	1	0.767500
19.500000	1	0.798250
19.516667	1	0.831250
19.533333	1	0.866000
19.550000	1	0.900875
19.566667	1	0.935375
19.583333	1	0.970625
19.600000	1	1.003000
19.616667	1	1.032625
19.633333	1	1.058375
19.650000	1	1.079875
19.666667	1	1.095750
19.683333	1	1.107250
19.700000	1	1.113250
19.716667	1	1.113250
19.733333	1	1.107875
19.750000	1	1.097250
19.766667	1	1.081000
19.783333	1	1.061000
19.800000	1	1.037125
19.816667	1	1.010375
19.833333	1	0.980625
19.850000	1	0.949875
19.866667	1	0.917250
19.883333	1	0.884000
19.900000	1	0.850750
19.916667	1	0.819000
19.933333	1	0.787250
19.950000	1	0.757875
19.966667	1	0.729875
19.983333	1	0.703750
20.000000	1	0.679125
20.016667	1	0.656625
20.033333	1	0.636750
20.050000	1	0.619375
20.066667	1	0.604375
20.083333	1	0.592375
20.100000	1	0.583375
20.116667	1	0.576375
20.133333	1	0.572750
20.150000	1	0.572000
20.166667	1	0.573500
20.183333	1	0.577125
20.200000	1	0.583375
20.216667	1	0.591000
20.233333	1	0.601125
20.250000	1	0.612125
20.266667	1	0.624250
20.283333	1	0.637250
20.300000	1	0.649750
20.316667	1	0.662000
20.333333	1	0.673375
20.350000	1	0.683500
20.366667	1	0.692000
20.383333	1	0.699000
20.400000	1	0.702875
20.416667	1	0.704500
20.433333	1	0.703750
20.450000	1	0.700500
20.466667	1	0.695750
20.483333	1	0.690250
20.500000	1	0.684000
20.516667	1	0.678000
20.533333	1	0.673500
20.550000	1	0.671250
20.566667	1	0.671125
20.583333	1	0.675250
20.600000	1	0.685125
20.616667	1	0.700625
20.633333	1	0.722125
20.650000	1	0.749625
20.666667	1	0.785875
20.683333	1	0.828500
20.700000	1	0.878500
20.716667	1	0.934500
20.733333	1	0.996250
20.750000	1	1.062625
20.766667	1	1.132750
20.783333	1	1.204750
20.800000	1	1.276875
20.816667	1	1.346625
20.833333	1	1.412625
20.850000	1	1.470750
20.866667	1	1.520625
20.883333	1	1.560125
20.900000	1	1.588000
20.916667	1	1.603375
20.933333	1	1.605125
20.950000	1	1.593500
20.966667	1	1.569125
20.983333	1	1.532000
21.000000	1	1.483875
21.016667	1	1.427000
21.033333	1	1.363000
21.050000	1	1.293250
21.066667	1	1.220625
21.083333	1	1.146625
21.100000	1	1.073375
21.116667	1	1.002000
21.133333	1	0.934125
21.150000	1	0.870625
21.166667	1	0.811000
21.183333	1	0.756375
21.200000	1	0.707250
21.216667	1	0.663500
21.233333	1	0.625125
21.250000	1	0.590750
21.266667	1	0.561875
21.283333	1	0.535625
21.300000	1	0.513375
21.316667	1	0.494500
21.333333	1	0.478875
21.350000	1	0.466000
21.366667	1	0.454750
21.383333	1	0.444750
21.400000	1	0.436750
21.416667	1	0.429875
21.433333	1	0.424000
21.450000	1	0.419250
21.466667	1	0.415250
21.483333	1	0.411500
21.500000	1	0.408500
21.516667	1	0.406125
21.533333	1	0.405125
21.550000	1	0.403500
21.566667	1	0.403125
21.583333	1	0.403500
21.600000	1	0.405000
21.616667	1	0.407000
21.633333	1	0.409375
21.650000	1	0.413000
21.666667	1	0.417625
21.683333	1	0.423375
21.700000	1	0.430625
21.716667	1	0.439500
21.733333	1	0.450375
21.750000	1	0.462250
21.766667	1	0.474625
21.783333	1	0.489125
21.800000	1	0.504750
21.816667	1	0.521875
21.833333	1	0.539625
21.850000	1	0.558125
21.866667	1	0.577625
21.883333	1	0.598375
21.900000	1	0.618875
21.916667	1	0.640500
21.933333	1	0.661625
21.950000	1	0.682375
21.966667	1	0.702625
21.983333	1	0.720500
22.000000	1	0.737125
22.016667	1	0.752375
22.033333	1	0.765625
22.050000	1	0.775375
22.066667	1	0.783250
22.083333	1	0.788125
22.100000	1	0.790125
22.116667	1	0.788375
22.133333	1	0.784875
22.150000	1	0.778000
22.166667	1	0.768500
22.183333	1	0.756625
22.200000	1	0.742750
22.216667	1	0.726875
22.233333	1	0.709125
22.250000	1	0.689750
22.266667	1	0.669125
22.283333	1	0.648250
22.300000	1	0.626375
22.316667	1	0.604625
22.333333	1	0.582250
22.350000	1	0.560125
22.366667	1	0.538125
22.383333	1	0.516125
22.400000	1	0.494500
22.416667	1	0.474375
22.433333	1	0.454500
22.450000	1	0.435875
22.466667	1	0.417375
22.483333	1	0.400875
22.500000	1	0.385000
22.516667	1	0.370125
22.533333	1	0.356500
22.550000	1	0.343875
22.566667	1	0.331875
22.583333	1	0.321750
22.600000	1	0.312750
22.616667	1	0.304625
22.633333	1	0.296750
22.650000	1	0.289375
22.666667	1	0.282750
22.683333	1	0.277375
22.700000	1	0.272375
22.716667	1	0.267500
22.733333	1	0.263250
22.750000	1	0.258750
22.766667	1	0.255625
22.783333	1	0.252500
22.800000	1	0.249375
22.816667	1	0.246125
22.833333	1	0.243250
22.850000	1	0.241375
22.866667	1	0.239375
22.883333	1	0.237250
22.900000	1	0.235750
22.916667	1	0.234625
22.933333	1	0.233625
22.950000	1	0.232625
22.966667	1	0.232000
22.983333	1	0.231625
23.000000	1	0.232375
23.016667	1	0.232625
23.033333	1	0.232875
23.050000	1	0.233625
23.066667	1	0.234750
23.083333	1	0.235500
23.100000	1	0.237250
23.116667	1	0.239250
23.133333	1	0.241750
23.150000	1	0.244250
23.166667	1	0.246375
23.183333	1	0.248625
23.200000	1	0.251375
23.216667	1	0.254375
23.233333	1	0.258250
23.250000	1	0.262125
23.266667	1	0.266625
23.283333	1	0.272375
23.300000	1	0.278875
23.316667	1	0.286750
23.333333	1	0.296625
23.350000	1	0.308000
23.366667	1	0.322625
23.383333	1	0.339750
23.400000	1	0.361375
23.416667	1	0.386875
23.433333	1	0.418500
23.450000	1	0.455875
23.466667	1	0.500875
23.483333	1	0.553000
23.500000	1	0.614500
23.516667	1	0.685250
23.533333	1	0.767125
23.550000	1	0.860875
23.566667	1	0.967000
23.583333	1	1.085875
23.600000	1	1.217875
23.616667	1	1.365250
23.633333	1	1.526625
23.650000	1	1.701500
23.666667	1	1.890125
23.683333	1	2.090000
23.700000	1	2.301000
23.716667	1	2.520750
23.733333	1	2.747125
23.750000	1	2.977000
23.766667	1	3.205500
23.783333	1	3.430250
23.800000	1	3.645500
23.816667	1	3.848375
23.833333	1	4.033250
23.850000	1	4.197625
23.866667	1	4.337125
23.883333	1	4.448625
23.900000	1	4.529000
23.916667	1	4.576125
23.933333	1	4.589625
23.950000	1	4.570000
23.966667	1	4.516000
23.983333	1	4.430250
24.000000	1	4.315750
24.016667	1	4.175250
24.033333	1	4.012125
24.050000	1	3.830500
24.066667	1	3.635250
24.083333	1	3.429500
24.100000	1	3.218000
24.116667	1	3.003250
24.133333	1	2.789750
24.150000	1	2.579625
24.166667	1	2.376500
24.183333	1	2.182125
24.200000	1	1.998125
24.216667	1	1.825750
24.233333	1	1.665500
24.250000	1	1.518375
24.266667	1	1.383625
24.283333	1	1.261250
24.300000	1	1.150500
24.316667	1	1.051500
24.333333	1	0.962375
24.350000	1	0.884000
24.366667	1	0.814500
24.383333	1	0.753375
24.400000	1	0.699375
24.416667	1	0.652000
24.433333	1	0.610875
24.450000	1	0.576125
24.466667	1	0.545500
24.483333	1	0.519250
24.500000	1	0.496250
24.516667	1	0.475750
24.533333	1	0.458375
24.550000	1	0.442875
24.566667	1	0.429125
24.583333	1	0.416125
24.600000	1	0.404000
24.616667	1	0.393000
24.633333	1	0.382750
24.650000	1	0.373500
24.666667	1	0.363750
24.683333	1	0.355000
24.700000	1	0.346375
24.716667	1	0.337250
24.733333	1	0.329750
24.750000	1	0.322375
24.766667	1	0.314625
24.783333	1	0.306500
24.800000	1	0.299500
24.816667	1	0.292375
24.833333	1	0.286500
24.850000	1	0.280500
24.866667	1	0.274875
24.883333	1	0.270125
24.900000	1	0.265875
24.916667	1	0.262375
24.933333	1	0.259375
24.950000	1	0.256250
24.966667	1	0.254125
24.983333	1	0.252125
25.000000	1	0.250875
25.016667	1	0.250000
25.033333	1	0.249500
25.050000	1	0.249250
25.066667	1	0.249250
25.083333	1	0.249000
25.100000	1	0.249375
25.116667	1	0.250125
25.133333	1	0.250125
25.150000	1	0.250375
25.166667	1	0.250750
25.183333	1	0.251625
25.200000	1	0.252000
25.216667	1	0.252000
25.233333	1	0.253000
25.250000	1	0.253125
25.266667	1	0.253375
25.283333	1	0.253625
25.300000	1	0.253000
25.316667	1	0.253625
25.333333	1	0.253875
25.350000	1	0.253250
25.366667	1	0.252250
25.383333	1	0.251125
25.400000	1	0.250750
25.416667	1	0.250500
25.433333	1	0.250375
25.450000	1	0.250125
25.466667	1	0.249500
25.483333	1	0.249250
25.500000	1	0.248500
25.516667	1	0.248500
25.533333	1	0.248375
25.550000	1	0.248375
25.566667	1	0.248125
25.583333	1	0.248250
25.600000	1	0.248125
25.616667	1	0.247875
25.633333	1	0.247875
25.650000	1	0.248250
25.666667	1	0.248500
25.683333	1	0.248250
25.700000	1	0.248875
25.716667	1	0.249000
25.733333	1	0.249000
25.750000	1	0.249125
25.766667	1	0.249750
25.783333	1	0.251000
25.800000	1	0.251375
25.816667	1	0.252500
25.833333	1	0.253750
25.850000	1	0.255250
25.866667	1	0.257000
25.883333	1	0.259375
25.900000	1	0.261875
25.916667	1	0.265000
25.933333	1	0.268625
25.950000	1	0.272375
25.966667	1	0.276250
25.983333	1	0.280625
26.000000	1	0.285125
26.016667	1	0.290125
26.033333	1	0.295500
26.050000	1	0.301250
26.066667	1	0.307000
26.083333	1	0.312125
26.100000	1	0.317125
26.116667	1	0.323125
26.133333	1	0.328750
26.150000	1	0.333875
26.166667	1	0.338500
26.183333	1	0.343125
26.200000	1	0.346750
26.216667	1	0.350625
26.233333	1	0.353500
26.250000	1	0.355875
26.266667	1	0.358250
26.283333	1	0.360250
26.300000	1	0.361375
26.316667	1	0.361000
26.333333	1	0.361250
26.350000	1	0.360250
26.366667	1	0.359000
26.383333	1	0.356375
26.400000	1	0.353250
26.416667	1	0.350250
26.433333	1	0.346000
26.450000	1	0.342000
26.466667	1	0.338000
26.483333	1	0.333250
26.500000	1	0.328000
26.516667	1	0.322125
26.533333	1	0.316375
26.550000	1	0.310375
26.566667	1	0.304625
26.583333	1	0.299125
26.600000	1	0.292625
26.616667	1	0.287000
26.633333	1	0.280500
26.650000	1	0.275000
26.666667	1	0.269375
26.683333	1	0.265000
26.700000	1	0.259625
26.716667	1	0.254375
26.733333	1	0.249250
26.750000	1	0.245000
26.766667	1	0.241125
26.783333	1	0.236625
26.800000	1	0.233125
26.816667	1	0.229875
26.833333	1	0.227000
26.850000	1	0.224000
26.866667	1	0.221375
26.883333	1	0.219625
26.900000	1	0.218125
26.916667	1	0.217500
26.933333	1	0.217000
26.950000	1	0.216625
26.966667	1	0.216375
26.983333	1	0.216750
27.000000	1	0.217500
27.016667	1	0.220000
27.033333	1	0.222125
27.050000	1	0.225375
27.066667	1	0.229000
27.083333	1	0.233625
27.100000	1	0.238375
27.116667	1	0.244750
27.133333	1	0.253375
27.150000	1	0.262000
27.166667	1	0.272875
27.183333	1	0.285500
27.200000	1	0.300000
27.216667	1	0.316625
27.233333	1	0.335875
27.250000	1	0.357875
27.266667	1	0.383125
27.283333	1	0.412250
27.300000	1	0.444875
27.316667	1	0.481375
27.333333	1	0.521625
27.350000	1	0.567875
27.366667	1	0.619750
27.383333	1	0.677250
27.400000	1	0.741375
27.416667	1	0.812750
27.433333	1	0.890750
27.450000	1	0.977000
27.466667	1	1.071250
27.483333	1	1.173750
27.500000	1	1.284000
27.516667	1	1.402625
27.533333	1	1.529875
27.550000	1	1.664875
27.566667	1	1.807000
27.583333	1	1.956750
27.600000	1	2.111625
27.616667	1	2.271500
27.633333	1	2.435250
27.650000	1	2.601500
27.666667	1	2.768625
27.683333	1	2.934000
27.700000	1	3.096500
27.716667	1	3.252375
27.733333	1	3.400250
27.750000	1	3.537875
27.766667	1	3.663125
27.783333	1	3.774250
27.800000	1	3.868500
27.816667	1	3.943750
27.833333	1	3.999000
27.850000	1	4.033000
27.866667	1	4.045000
27.883333	1	4.033750
27.900000	1	3.999875
27.916667	1	3.943250
27.933333	1	3.865875
27.950000	1	3.767875
27.966667	1	3.651500
27.983333	1	3.519125
28.000000	1	3.373125
28.016667	1	3.215125
28.033333	1	3.047875
28.050000	1	2.874375
28.066667	1	2.697500
28.083333	1	2.519500
28.100000	1	2.342250
28.116667	1	2.168625
28.133333	1	1.999875
28.150000	1	1.837875
28.166667	1	1.684000
28.183333	1	1.539250
28.200000	1	1.405000
28.216667	1	1.280750
28.233333	1	1.166750
28.250000	1	1.063000
28.266667	1	0.969125
28.283333	1	0.884125
28.300000	1	0.810125
28.316667	1	0.744500
28.333333	1	0.687250
28.350000	1	0.637375
28.366667	1	0.595375
28.383333	1	0.559625
28.400000	1	0.529375
28.416667	1	0.504625
28.433333	1	0.484375
28.450000	1	0.469250
28.466667	1	0.458375
28.483333	1	0.450750
28.500000	1	0.445750
28.516667	1	0.443000
28.533333	1	0.443000
28.550000	1	0.445375
28.566667	1	0.449000
28.583333	1	0.454125
28.600000	1	0.460375
28.616667	1	0.467750
28.633333	1	0.475375
28.650000	1	0.483625
28.666667	1	0.492250
28.683333	1	0.501250
28.700000	1	0.509875
28.716667	1	0.518750
28.733333	1	0.526875
28.750000	1	0.534250
28.766667	1	0.541625
28.783333	1	0.548125
28.800000	1	0.553750
28.816667	1	0.558750
28.833333	1	0.563125
28.850000	1	0.566625
28.866667	1	0.568500
28.883333	1	0.570125
28.900000	1	0.570375
28.916667	1	0.568875
28.933333	1	0.567500
28.950000	1	0.564750
28.966667	1	0.561000
28.983333	1	0.556375
29.000000	1	0.549750
29.016667	1	0.543625
29.033333	1	0.535875
29.050000	1	0.527625
29.066667	1	0.518500
29.083333	1	0.508750
29.100000	1	0.498125
29.116667	1	0.487000
29.133333	1	0.475375
29.150000	1	0.463125
29.166667	1	0.451125
29.183333	1	0.438875
29.200000	1	0.427125
29.216667	1	0.414750
29.233333	1	0.402125
29.250000	1	0.390500
29.266667	1	0.378500
29.283333	1	0.365750
29.300000	1	0.354750
29.316667	1	0.343000
29.333333	1	0.331375
29.350000	1	0.320125
29.366667	1	0.309875
29.383333	1	0.300500
29.400000	1	0.291250
29.416667	1	0.282875
29.433333	1	0.274500
29.450000	1	0.266750
29.466667	1	0.258875
29.483333	1	0.251375
29.500000	1	0.244875
29.516667	1	0.239250
29.533333	1	0.233500
29.550000	1	0.227875
29.566667	1	0.223375
29.583333	1	0.218750
29.600000	1	0.215125
29.616667	1	0.210875
29.633333	1	0.207625
29.650000	1	0.204250
29.666667	1	0.201875
29.683333	1	0.199250
29.700000	1	0.196750
29.716667	1	0.194250
29.733333	1	0.192375
29.750000	1	0.190500
29.766667	1	0.188625
29.783333	1	0.187250
29.800000	1	0.185875
29.816667	1	0.184250
29.833333	1	0.183125
29.850000	1	0.182375
29.866667	1	0.181125
29.883333	1	0.181000
29.900000	1	0.180000
29.916667	1	0.179250
29.933333	1	0.177875
29.950000	1	0.176750
29.966667	1	0.175625
29.983333	1	0.174500
30.000000	1	0.173500
30.016667	1	0.172625
30.033333	1	0.170875
30.050000	1	0.169750
30.066667	1	0.168375
30.083333	1	0.166875
30.100000	1	0.165250
30.116667	1	0.163500
30.133333	1	0.161625
30.150000	1	0.160125
30.166667	1	0.158375
30.183333	1	0.156625
30.200000	1	0.155000
30.216667	1	0.152875
30.233333	1	0.151125
30.250000	1	0.149250
30.266667	1	0.148000
30.283333	1	0.146750
30.300000	1	0.146000
30.316667	1	0.145125
30.333333	1	0.143750
30.350000	1	0.142625
30.366667	1	0.142000
30.383333	1	0.141500
30.400000	1	0.142125
30.416667	1	0.142500
30.433333	1	0.142875
30.450000	1	0.143750
30.466667	1	0.145375
30.483333	1	0.147125
30.500000	1	0.149500
30.516667	1	0.152250
30.533333	1	0.155375
30.550000	1	0.159500
30.566667	1	0.164625
30.583333	1	0.170250
30.600000	1	0.177125
30.616667	1	0.184375
30.633333	1	0.192625
30.650000	1	0.202625
30.666667	1	0.213250
30.683333	1	0.225750
30.700000	1	0.238750
30.716667	1	0.254625
30.733333	1	0.272250
30.750000	1	0.291250
30.766667	1	0.313125
30.783333	1	0.337875
30.800000	1	0.366125
30.816667	1	0.397125
30.833333	1	0.432875
30.850000	1	0.473000
30.866667	1	0.518125
30.883333	1	0.569250
30.900000	1	0.627500
30.916667	1	0.693125
30.933333	1	0.767000
30.950000	1	0.848625
30.966667	1	0.940000
30.983333	1	1.042250
31.000000	1	1.156125
31.016667	1	1.282125
31.033333	1	1.420625
31.050000	1	1.573625
31.066667	1	1.740000
31.083333	1	1.920875
31.100000	1	2.116625
31.116667	1	2.326750
31.133333	1	2.551000
31.150000	1	2.789625
31.166667	1	3.041625
31.183333	1	3.307125
31.200000	1	3.583750
31.216667	1	3.870000
31.233333	1	4.165375
31.250000	1	4.465875
31.266667	1	4.770000
31.283333	1	5.074000
31.300000	1	5.375500
31.316667	1	5.670875
31.333333	1	5.957375
31.350000	1	6.231750
31.366667	1	6.490375
31.383333	1	6.729250
31.400000	1	6.947250
31.416667	1	7.139875
31.433333	1	7.304500
31.450000	1	7.439375
31.466667	1	7.542250
31.483333	1	7.612375
31.500000	1	7.647750
31.516667	1	7.648500
31.533333	1	7.615125
31.550000	1	7.549250
31.566667	1	7.449625
31.583333	1	7.319875
31.600000	1	7.161625
31.616667	1	6.976500
31.633333	1	6.767250
31.650000	1	6.537750
31.666667	1	6.289750
31.683333	1	6.027375
31.700000	1	5.753125
31.716667	1	5.471500
31.733333	1	5.184375
31.750000	1	4.895250
31.766667	1	4.605125
31.783333	1	4.317750
31.800000	1	4.034875
31.816667	1	3.759125
31.833333	1	3.491000
31.850000	1	3.233000
31.866667	1	2.986000
31.883333	1	2.751000
31.900000	1	2.528250
31.916667	1	2.318625
31.933333	1	2.122375
31.950000	1	1.938750
31.966667	1	1.767750
31.983333	1	1.609875
32.000000	1	1.464125
32.016667	1	1.330250
32.033333	1	1.206750
32.050000	1	1.094875
32.066667	1	0.992125
32.083333	1	0.899125
32.100000	1	0.815125
32.116667	1	0.739375
32.133333	1	0.670250
32.150000	1	0.609000
32.166667	1	0.553500
32.183333	1	0.503625
32.200000	1	0.459250
32.216667	1	0.419500
32.233333	1	0.383250
32.250000	1	0.350875
32.266667	1	0.322375
32.283333	1	0.296625
32.300000	1	0.272875
32.316667	1	0.252125
32.333333	1	0.234125
32.350000	1	0.217625
32.366667	1	0.202875
32.383333	1	0.189875
32.400000	1	0.177375
32.416667	1	0.165875
32.433333	1	0.156375
32.450000	1	0.146875
32.466667	1	0.138750
32.483333	1	0.130750
32.500000	1	0.123375
32.516667	1	0.117125
32.533333	1	0.111000
32.550000	1	0.105250
32.566667	1	0.100375
32.583333	1	0.095500
32.600000	1	0.090625
32.616667	1	0.086000
32.633333	1	0.081875
32.650000	1	0.078375
32.666667	1	0.075250
32.683333	1	0.071875
32.700000	1	0.068625
32.716667	1	0.066000
32.733333	1	0.063250
32.750000	1	0.061000
32.766667	1	0.058875
32.783333	1	0.056750
32.800000	1	0.054875
32.816667	1	0.053000
32.833333	1	0.052000
32.850000	1	0.050625
32.866667	1	0.050375
32.883333	1	0.049875
32.900000	1	0.049375
32.916667	1	0.049125
32.933333	1	0.050000
32.950000	1	0.050500
32.966667	1	0.051125
32.983333	1	0.051875
33.000000	1	0.053125
33.016667	1	0.053375
33.033333	1	0.054750
33.050000	1	0.056000
33.066667	1	0.057750
33.083333	1	0.059375
33.100000	1	0.061125
33.116667	1	0.062750
33.133333	1	0.064750
33.150000	1	0.066500
33.166667	1	0.069000
33.183333	1	0.071750
33.200000	1	0.074500
33.216667	1	0.076500
33.233333	1	0.078875
33.250000	1	0.082000
33.266667	1	0.084750
33.283333	1	0.087875
33.300000	1	0.091250
33.316667	1	0.095000
33.333333	1	0.099375
33.350000	1	0.103875
33.366667	1	0.109000
33.383333	1	0.115000
33.400000	1	0.120875
33.416667	1	0.126875
33.433333	1	0.133750
33.450000	1	0.140875
33.466667	1	0.148500
33.483333	1	0.157000
33.500000	1	0.166250
33.516667	1	0.176375
33.533333	1	0.187875
33.550000	1	0.200500
33.566667	1	0.213375
33.583333	1	0.227500
33.600000	1	0.242500
33.616667	1	0.258500
33.633333	1	0.276000
33.650000	1	0.294375
33.666667	1	0.313375
33.683333	1	0.333000
33.700000	1	0.353875
33.716667	1	0.375875
33.733333	1	0.399375
33.750000	1	0.423125
33.766667	1	0.446875
33.783333	1	0.471125
33.800000	1	0.496250
33.816667	1	0.521375
33.833333	1	0.546125
33.850000	1	0.570500
33.866667	1	0.595000
33.883333	1	0.618625
33.900000	1	0.641625
33.916667	1	0.663000
33.933333	1	0.683375
33.950000	1	0.702125
33.966667	1	0.719625
33.983333	1	0.735625
34.000000	1	0.749000
34.016667	1	0.760750
34.033333	1	0.769750
34.050000	1	0.776500
34.066667	1	0.781125
34.083333	1	0.782750
34.100000	1	0.782500
34.116667	1	0.779500
34.133333	1	0.774250
34.150000	1	0.766625
34.166667	1	0.757250
34.183333	1	0.745500
34.200000	1	0.731750
34.216667	1	0.716250
34.233333	1	0.698500
34.250000	1	0.680125
34.266667	1	0.660375
34.283333	1	0.640125
34.300000	1	0.619375
34.316667	1	0.598000
34.333333	1	0.576125
34.350000	1	0.553875
34.366667	1	0.532500
34.383333	1	0.511000
34.400000	1	0.489875
34.416667	1	0.469625
34.433333	1	0.450000
34.450000	1	0.430250
34.466667	1	0.412375
34.483333	1	0.394625
34.500000	1	0.377875
34.516667	1	0.361750
34.533333	1	0.347250
34.550000	1	0.334250
34.566667	1	0.321500
34.583333	1	0.309125
34.600000	1	0.297750
34.616667	1	0.287500
34.633333	1	0.277375
34.650000	1	0.267750
34.666667	1	0.258750
34.683333	1	0.250875
34.700000	1	0.243500
34.716667	1	0.237000
34.733333	1	0.230000
34.750000	1	0.224750
34.766667	1	0.219000
34.783333	1	0.212625
34.800000	1	0.206250
34.816667	1	0.201375
34.833333	1	0.196375
34.850000	1	0.190875
34.866667	1	0.185250
34.883333	1	0.181000
34.900000	1	0.176000
34.916667	1	0.171000
34.933333	1	0.165500
34.950000	1	0.160875
34.966667	1	0.156000
34.983333	1	0.152125
35.000000	1	0.147500
35.016667	1	0.143750
35.033333	1	0.139375
35.050000	1	0.135500
35.066667	1	0.132250
35.083333	1	0.128375
35.100000	1	0.125375
35.116667	1	0.122625
35.133333	1	0.119875
35.150000	1	0.117500
35.166667	1	0.115625
35.183333	1	0.113625
35.200000	1	0.112125
35.216667	1	0.110125
35.233333	1	0.108375
35.250000	1	0.108000
35.266667	1	0.106875
35.283333	1	0.106375
35.300000	1	0.106125
35.316667	1	0.105625
35.333333	1	0.105750
35.350000	1	0.105250
35.366667	1	0.105375
35.383333	1	0.105375
35.400000	1	0.105625
35.416667	1	0.106375
35.433333	1	0.106500
35.450000	1	0.107000
35.466667	1	0.107625
35.483333	1	0.107875
35.500000	1	0.108500
35.516667	1	0.109500
35.533333	1	0.110000
35.550000	1	0.111250
35.566667	1	0.112125
35.583333	1	0.113250
35.600000	1	0.114500
35.616667	1	0.115250
35.633333	1	0.117250
35.650000	1	0.118000
35.666667	1	0.119000
35.683333	1	0.120500
35.700000	1	0.122125
35.716667	1	0.123875
35.733333	1	0.125750
35.750000	1	0.127875
35.766667	1	0.129375
35.783333	1	0.130875
35.800000	1	0.132375
35.816667	1	0.133875
35.833333	1	0.135875
35.850000	1	0.137750
35.866667	1	0.139875
35.883333	1	0.141625
35.900000	1	0.143125
35.916667	1	0.145250
35.933333	1	0.147125
35.950000	1	0.149250
35.966667	1	0.151375
35.983333	1	0.152125
36.000000	1	0.154500
36.016667	1	0.156625
36.033333	1	0.158625
36.050000	1	0.159125
36.066667	1	0.160750
36.083333	1	0.162125
36.100000	1	0.163500
36.116667	1	0.165250
36.133333	1	0.165875
36.150000	1	0.166625
36.166667	1	0.167375
36.183333	1	0.168125
36.200000	1	0.168250
36.216667	1	0.168000
36.233333	1	0.168250
36.250000	1	0.168125
36.266667	1	0.167250
36.283333	1	0.166875
36.300000	1	0.166125
36.316667	1	0.164750
36.333333	1	0.163625
36.350000	1	0.162375
36.366667	1	0.160125
36.383333	1	0.158125
36.400000	1	0.155875
36.416667	1	0.153500
36.433333	1	0.150375
36.450000	1	0.147375
36.466667	1	0.144000
36.483333	1	0.141625
36.500000	1	0.138125
36.516667	1	0.135125
36.533333	1	0.131875
36.550000	1	0.128375
36.566667	1	0.125000
36.583333	1	0.121625
36.600000	1	0.118125
36.616667	1	0.113875
36.633333	1	0.110625
36.650000	1	0.107125
36.666667	1	0.103125
36.683333	1	0.100000
36.700000	1	0.097250
36.716667	1	0.093375
36.733333	1	0.090250
36.750000	1	0.087250
36.766667	1	0.084250
36.783333	1	0.081500
36.800000	1	0.078000
36.816667	1	0.075125
36.833333	1	0.072500
36.850000	1	0.069375
36.866667	1	0.067000
36.883333	1	0.065375
36.900000	1	0.063250
36.916667	1	0.061500
36.933333	1	0.059625
36.950000	1	0.058125
36.966667	1	0.056125
36.983333	1	0.054500
37.000000	1	0.053375
37.016667	1	0.052375
37.033333	1	0.051125
37.050000	1	0.049500
37.066667	1	0.049125
37.083333	1	0.048625
37.100000	1	0.047500
37.116667	1	0.047500
37.133333	1	0.047250
37.150000	1	0.046375
37.166667	1	0.045625
37.183333	1	0.045125
37.200000	1	0.044500
37.216667	1	0.043875
37.233333	1	0.044000
37.250000	1	0.044375
37.266667	1	0.044750
37.283333	1	0.044875
37.300000	1	0.045000
37.316667	1	0.045750
37.333333	1	0.045750
37.350000	1	0.046250
37.366667	1	0.047000
37.383333	1	0.047000
37.400000	1	0.047250
37.416667	1	0.047625
37.433333	1	0.048500
37.450000	1	0.048625
37.466667	1	0.048500
37.483333	1	0.049250
37.500000	1	0.049500
37.516667	1	0.050125
37.533333	1	0.050625
37.550000	1	0.051250
37.566667	1	0.051125
37.583333	1	0.050875
37.600000	1	0.051875
37.616667	1	0.052000
37.633333	1	0.051750
37.650000	1	0.052625
37.666667	1	0.053250
37.683333	1	0.053625
37.700000	1	0.054375
37.716667	1	0.054625
37.733333	1	0.054875
37.750000	1	0.055375
37.766667	1	0.055625
37.783333	1	0.056375
37.800000	1	0.057000
37.816667	1	0.056625
37.833333	1	0.055875
37.850000	1	0.055625
37.866667	1	0.056125
37.883333	1	0.056875
37.900000	1	0.056625
37.916667	1	0.057375
37.933333	1	0.058250
37.950000	1	0.058375
37.966667	1	0.058500
37.983333	1	0.058375
38.000000	1	0.058250
38.016667	1	0.058125
38.033333	1	0.057625
38.050000	1	0.057375
38.066667	1	0.057625
38.083333	1	0.057625
38.100000	1	0.057375
38.116667	1	0.058125
38.133333	1	0.058000
38.150000	1	0.059125
38.166667	1	0.058500
38.183333	1	0.058375
38.200000	1	0.059000
38.216667	1	0.059375
38.233333	1	0.059250
38.250000	1	0.059500
38.266667	1	0.059750
38.283333	1	0.059125
38.300000	1	0.059625
38.316667	1	0.059250
38.333333	1	0.060125
38.350000	1	0.060750
38.366667	1	0.060375
38.383333	1	0.060250
38.400000	1	0.059625
38.416667	1	0.059250
38.433333	1	0.058875
38.450000	1	0.058500
38.466667	1	0.058375
38.483333	1	0.057875
38.500000	1	0.057750
38.516667	1	0.057000
38.533333	1	0.055500
38.550000	1	0.054625
38.566667	1	0.053500
38.583333	1	0.051875
38.600000	1	0.050000
38.616667	1	0.048125
38.633333	1	0.046750
38.650000	1	0.045250
38.666667	1	0.043375
38.683333	1	0.041375
38.700000	1	0.039250
38.716667	1	0.036750
38.733333	1	0.035250
38.750000	1	0.033375
38.766667	1	0.031375
38.783333	1	0.029000
38.800000	1	0.026750
38.816667	1	0.024375
38.833333	1	0.022125
38.850000	1	0.020125
38.866667	1	0.018875
38.883333	1	0.016125
38.900000	1	0.013875
38.916667	1	0.012000
38.933333	1	0.010500
38.950000	1	0.009125
38.966667	1	0.007750
38.983333	1	0.005375
39.000000	1	0.003000
39.016667	1	0.001125
39.033333	1	-0.000375
39.050000	1	-0.002000
39.066667	1	-0.003375
39.083333	1	-0.004750
39.100000	1	-0.005625
39.116667	1	-0.007250
39.133333	1	-0.008500
39.150000	1	-0.009250
39.166667	1	-0.010500
39.183333	1	-0.011125
39.200000	1	-0.011375
39.216667	1	-0.011500
39.233333	1	-0.011750
39.250000	1	-0.011000
39.266667	1	-0.010750
39.283333	1	-0.010000
39.300000	1	-0.009625
39.316667	1	-0.009250
39.333333	1	-0.008500
39.350000	1	-0.007375
39.366667	1	-0.005500
39.383333	1	-0.004000
39.400000	1	-0.002875
39.416667	1	-0.001750
39.433333	1	0.000000
39.450000	1	0.001250
39.466667	1	0.003750
39.483333	1	0.005875
39.500000	1	0.007500
39.516667	1	0.008875
39.533333	1	0.010250
39.550000	1	0.011125
39.566667	1	0.013000
39.583333	1	0.014250
39.600000	1	0.015125
39.616667	1	0.016000
39.633333	1	0.017750
39.650000	1	0.018250
39.666667	1	0.019125
39.683333	1	0.020625
39.700000	1	0.021375
39.716667	1	0.022000
39.733333	1	0.022875
39.750000	1	0.023625
39.766667	1	0.023875
39.783333	1	0.024500
39.800000	1	0.024750
39.816667	1	0.025750
39.833333	1	0.026250
39.850000	1	0.026750
39.866667	1	0.028250
39.883333	1	0.029250
39.900000	1	0.029875
39.916667	1	0.030500
39.933333	1	0.031250
39.950000	1	0.032000
39.966667	1	0.032750
39.983333	1	0.033375
40.000000	1	0.034250
