URL	chrom://bioreactor/micro_cm7/HPLC_Ultimate_3000/Users/markusar/20240708_MA_pHrange1.seq/265.smp/RI_1.channel/RI_1.chm
Channel	RI_1

Injection Information:
Data Vault	micro_cm7
Sequence	20240708_MA_pHrange1
Name	Fp2_6.5_1
Number	51
Position	BE5
Comment	
Processing Method	
Instrument Method	run_25B_method
Type	Unknown
Status	Finished
Inject Time	10.07.2024 01:43:08 +02:00
Volume (µl)	20.0000
Dilution Factor	1.0000
Weight	1.0000

Chromatogram Data Information:
Time Min. (min)	0.000000
Time Max. (min)	40.000000
Data Points	2401
Detector	RI
Generating Data System	Chromeleon 7.3.2.11814
Exporting Data System	Chromeleon 7.3.2.0
Operator	Instrument Controller
Signal Quantity	Refractive 
Signal Unit	µRIU
Signal Min.	-0.053500
Signal Max.	84.865625
Channel	RI_1
Driver Name	RID520Driver.dll
Channel Type	Evaluation
Min. Step (s)	1
Max. Step (s)	1
Average Step (s)	1

Signal Parameter Information:
Signal Info	

Chromatogram Data:
Time (min)	Step (s)	Value (µRIU)
0.000000	n.a.	-0.000375
0.016667	1	-0.001375
0.033333	1	-0.001375
0.050000	1	-0.002375
0.066667	1	-0.002500
0.083333	1	-0.003000
0.100000	1	-0.004125
0.116667	1	-0.004625
0.133333	1	-0.004875
0.150000	1	-0.005500
0.166667	1	-0.006000
0.183333	1	-0.006500
0.200000	1	-0.006375
0.216667	1	-0.006500
0.233333	1	-0.007000
0.250000	1	-0.006875
0.266667	1	-0.006500
0.283333	1	-0.006125
0.300000	1	-0.005625
0.316667	1	-0.005375
0.333333	1	-0.005250
0.350000	1	-0.006000
0.366667	1	-0.006625
0.383333	1	-0.006875
0.400000	1	-0.007375
0.416667	1	-0.007625
0.433333	1	-0.006125
0.450000	1	-0.004750
0.466667	1	-0.002875
0.483333	1	-0.001500
0.500000	1	0.000000
0.516667	1	0.000875
0.533333	1	0.001625
0.550000	1	0.001375
0.566667	1	0.000875
0.583333	1	-0.000375
0.600000	1	-0.002500
0.616667	1	-0.005500
0.633333	1	-0.007500
0.650000	1	-0.009250
0.666667	1	-0.011000
0.683333	1	-0.012375
0.700000	1	-0.012750
0.716667	1	-0.013875
0.733333	1	-0.014250
0.750000	1	-0.015125
0.766667	1	-0.015375
0.783333	1	-0.015500
0.800000	1	-0.015750
0.816667	1	-0.015500
0.833333	1	-0.015875
0.850000	1	-0.016000
0.866667	1	-0.015750
0.883333	1	-0.015500
0.900000	1	-0.015125
0.916667	1	-0.014375
0.933333	1	-0.014125
0.950000	1	-0.013125
0.966667	1	-0.013250
0.983333	1	-0.012000
1.000000	1	-0.011125
1.016667	1	-0.009750
1.033333	1	-0.009125
1.050000	1	-0.007500
1.066667	1	-0.006500
1.083333	1	-0.006000
1.100000	1	-0.004875
1.116667	1	-0.004000
1.133333	1	-0.003375
1.150000	1	-0.003250
1.166667	1	-0.002125
1.183333	1	-0.001750
1.200000	1	-0.001375
1.216667	1	-0.000875
1.233333	1	-0.000125
1.250000	1	0.000125
1.266667	1	0.000000
1.283333	1	0.000000
1.300000	1	0.000000
1.316667	1	0.000000
1.333333	1	0.000125
1.350000	1	-0.000250
1.366667	1	-0.000875
1.383333	1	-0.001000
1.400000	1	-0.002125
1.416667	1	-0.002250
1.433333	1	-0.003125
1.450000	1	-0.003750
1.466667	1	-0.004000
1.483333	1	-0.004125
1.500000	1	-0.004875
1.516667	1	-0.005375
1.533333	1	-0.005500
1.550000	1	-0.005625
1.566667	1	-0.006125
1.583333	1	-0.006875
1.600000	1	-0.006125
1.616667	1	-0.006125
1.633333	1	-0.005625
1.650000	1	-0.006125
1.666667	1	-0.006625
1.683333	1	-0.007125
1.700000	1	-0.006375
1.716667	1	-0.006625
1.733333	1	-0.006875
1.750000	1	-0.006250
1.766667	1	-0.005875
1.783333	1	-0.006125
1.800000	1	-0.005875
1.816667	1	-0.005750
1.833333	1	-0.005750
1.850000	1	-0.005875
1.866667	1	-0.006250
1.883333	1	-0.006000
1.900000	1	-0.006375
1.916667	1	-0.006625
1.933333	1	-0.007250
1.950000	1	-0.007750
1.966667	1	-0.008125
1.983333	1	-0.009000
2.000000	1	-0.009750
2.016667	1	-0.010250
2.033333	1	-0.010750
2.050000	1	-0.011500
2.066667	1	-0.011625
2.083333	1	-0.013250
2.100000	1	-0.014125
2.116667	1	-0.015500
2.133333	1	-0.016500
2.150000	1	-0.017875
2.166667	1	-0.018875
2.183333	1	-0.021000
2.200000	1	-0.022125
2.216667	1	-0.022625
2.233333	1	-0.023000
2.250000	1	-0.023625
2.266667	1	-0.024375
2.283333	1	-0.025750
2.300000	1	-0.026875
2.316667	1	-0.027625
2.333333	1	-0.028125
2.350000	1	-0.028750
2.366667	1	-0.029375
2.383333	1	-0.029375
2.400000	1	-0.030125
2.416667	1	-0.030875
2.433333	1	-0.030750
2.450000	1	-0.031125
2.466667	1	-0.031375
2.483333	1	-0.031750
2.500000	1	-0.031625
2.516667	1	-0.032000
2.533333	1	-0.032375
2.550000	1	-0.032125
2.566667	1	-0.032125
2.583333	1	-0.032375
2.600000	1	-0.032375
2.616667	1	-0.033250
2.633333	1	-0.033250
2.650000	1	-0.033625
2.666667	1	-0.033875
2.683333	1	-0.034250
2.700000	1	-0.034875
2.716667	1	-0.035250
2.733333	1	-0.036125
2.750000	1	-0.037500
2.766667	1	-0.038250
2.783333	1	-0.038750
2.800000	1	-0.040375
2.816667	1	-0.040875
2.833333	1	-0.041250
2.850000	1	-0.043250
2.866667	1	-0.044750
2.883333	1	-0.046125
2.900000	1	-0.047375
2.916667	1	-0.048500
2.933333	1	-0.050000
2.950000	1	-0.051000
2.966667	1	-0.051375
2.983333	1	-0.052500
3.000000	1	-0.053125
3.016667	1	-0.053375
3.033333	1	-0.053500
3.050000	1	-0.053375
3.066667	1	-0.052625
3.083333	1	-0.051375
3.100000	1	-0.051250
3.116667	1	-0.051125
3.133333	1	-0.050500
3.150000	1	-0.049125
3.166667	1	-0.047250
3.183333	1	-0.045000
3.200000	1	-0.043375
3.216667	1	-0.040500
3.233333	1	-0.037625
3.250000	1	-0.034125
3.266667	1	-0.031250
3.283333	1	-0.027875
3.300000	1	-0.025000
3.316667	1	-0.021625
3.333333	1	-0.017375
3.350000	1	-0.013375
3.366667	1	-0.009000
3.383333	1	-0.005500
3.400000	1	-0.001250
3.416667	1	0.002500
3.433333	1	0.006500
3.450000	1	0.010625
3.466667	1	0.014250
3.483333	1	0.017625
3.500000	1	0.021125
3.516667	1	0.024500
3.533333	1	0.027375
3.550000	1	0.030000
3.566667	1	0.032750
3.583333	1	0.035125
3.600000	1	0.037000
3.616667	1	0.039250
3.633333	1	0.041500
3.650000	1	0.043250
3.666667	1	0.045125
3.683333	1	0.045875
3.700000	1	0.046125
3.716667	1	0.047000
3.733333	1	0.047750
3.750000	1	0.047375
3.766667	1	0.047000
3.783333	1	0.046125
3.800000	1	0.045625
3.816667	1	0.044750
3.833333	1	0.043625
3.850000	1	0.042375
3.866667	1	0.041000
3.883333	1	0.039500
3.900000	1	0.038000
3.916667	1	0.036250
3.933333	1	0.033750
3.950000	1	0.031125
3.966667	1	0.029000
3.983333	1	0.026750
4.000000	1	0.024750
4.016667	1	0.023250
4.033333	1	0.021250
4.050000	1	0.019625
4.066667	1	0.017875
4.083333	1	0.016250
4.100000	1	0.014250
4.116667	1	0.012750
4.133333	1	0.011375
4.150000	1	0.010125
4.166667	1	0.009750
4.183333	1	0.009125
4.200000	1	0.009750
4.216667	1	0.010250
4.233333	1	0.011125
4.250000	1	0.011750
4.266667	1	0.012000
4.283333	1	0.013375
4.300000	1	0.014250
4.316667	1	0.015875
4.333333	1	0.017500
4.350000	1	0.020250
4.366667	1	0.022750
4.383333	1	0.026000
4.400000	1	0.028875
4.416667	1	0.031500
4.433333	1	0.035000
4.450000	1	0.038125
4.466667	1	0.041625
4.483333	1	0.044750
4.500000	1	0.048250
4.516667	1	0.051375
4.533333	1	0.054500
4.550000	1	0.058375
4.566667	1	0.062875
4.583333	1	0.066625
4.600000	1	0.070375
4.616667	1	0.074125
4.633333	1	0.078375
4.650000	1	0.082125
4.666667	1	0.086625
4.683333	1	0.091125
4.700000	1	0.093875
4.716667	1	0.097125
4.733333	1	0.101375
4.750000	1	0.105125
4.766667	1	0.109250
4.783333	1	0.112750
4.800000	1	0.116875
4.816667	1	0.121000
4.833333	1	0.124250
4.850000	1	0.127875
4.866667	1	0.132250
4.883333	1	0.136000
4.900000	1	0.139375
4.916667	1	0.143625
4.933333	1	0.147500
4.950000	1	0.151500
4.966667	1	0.155875
4.983333	1	0.159125
5.000000	1	0.164125
5.016667	1	0.168500
5.033333	1	0.173125
5.050000	1	0.177375
5.066667	1	0.181250
5.083333	1	0.185375
5.100000	1	0.190000
5.116667	1	0.194875
5.133333	1	0.200250
5.150000	1	0.205375
5.166667	1	0.209875
5.183333	1	0.214375
5.200000	1	0.218500
5.216667	1	0.222750
5.233333	1	0.227250
5.250000	1	0.232000
5.266667	1	0.236000
5.283333	1	0.240250
5.300000	1	0.243750
5.316667	1	0.247250
5.333333	1	0.250875
5.350000	1	0.254125
5.366667	1	0.257875
5.383333	1	0.260625
5.400000	1	0.263625
5.416667	1	0.266000
5.433333	1	0.268250
5.450000	1	0.270000
5.466667	1	0.271875
5.483333	1	0.273625
5.500000	1	0.274250
5.516667	1	0.275250
5.533333	1	0.275500
5.550000	1	0.275500
5.566667	1	0.275125
5.583333	1	0.274375
5.600000	1	0.274125
5.616667	1	0.273250
5.633333	1	0.271875
5.650000	1	0.270375
5.666667	1	0.268375
5.683333	1	0.266250
5.700000	1	0.262750
5.716667	1	0.259125
5.733333	1	0.256375
5.750000	1	0.253875
5.766667	1	0.250625
5.783333	1	0.247000
5.800000	1	0.243250
5.816667	1	0.239250
5.833333	1	0.234750
5.850000	1	0.229750
5.866667	1	0.224750
5.883333	1	0.220000
5.900000	1	0.214875
5.916667	1	0.210375
5.933333	1	0.204125
5.950000	1	0.198000
5.966667	1	0.192250
5.983333	1	0.186750
6.000000	1	0.180500
6.016667	1	0.174750
6.033333	1	0.168375
6.050000	1	0.161875
6.066667	1	0.156125
6.083333	1	0.150375
6.100000	1	0.144000
6.116667	1	0.138250
6.133333	1	0.131750
6.150000	1	0.125625
6.166667	1	0.119625
6.183333	1	0.114500
6.200000	1	0.109250
6.216667	1	0.103500
6.233333	1	0.098125
6.250000	1	0.092375
6.266667	1	0.087500
6.283333	1	0.082375
6.300000	1	0.078500
6.316667	1	0.073625
6.333333	1	0.068875
6.350000	1	0.065125
6.366667	1	0.060875
6.383333	1	0.057000
6.400000	1	0.053250
6.416667	1	0.050000
6.433333	1	0.047875
6.450000	1	0.044500
6.466667	1	0.042000
6.483333	1	0.039375
6.500000	1	0.036125
6.516667	1	0.033750
6.533333	1	0.032250
6.550000	1	0.030125
6.566667	1	0.028500
6.583333	1	0.027125
6.600000	1	0.026250
6.616667	1	0.025000
6.633333	1	0.024375
6.650000	1	0.024000
6.666667	1	0.023375
6.683333	1	0.023000
6.700000	1	0.023250
6.716667	1	0.023125
6.733333	1	0.023250
6.750000	1	0.023125
6.766667	1	0.024625
6.783333	1	0.026250
6.800000	1	0.027625
6.816667	1	0.029125
6.833333	1	0.030875
6.850000	1	0.032750
6.866667	1	0.034875
6.883333	1	0.037125
6.900000	1	0.040125
6.916667	1	0.042875
6.933333	1	0.045125
6.950000	1	0.048625
6.966667	1	0.052000
6.983333	1	0.055875
7.000000	1	0.060000
7.016667	1	0.064250
7.033333	1	0.068750
7.050000	1	0.072875
7.066667	1	0.077625
7.083333	1	0.081750
7.100000	1	0.086375
7.116667	1	0.090625
7.133333	1	0.095000
7.150000	1	0.099750
7.166667	1	0.104250
7.183333	1	0.108625
7.200000	1	0.112750
7.216667	1	0.117125
7.233333	1	0.120750
7.250000	1	0.124750
7.266667	1	0.128500
7.283333	1	0.132125
7.300000	1	0.135750
7.316667	1	0.139125
7.333333	1	0.141500
7.350000	1	0.144250
7.366667	1	0.146250
7.383333	1	0.147750
7.400000	1	0.149625
7.416667	1	0.151500
7.433333	1	0.152000
7.450000	1	0.152125
7.466667	1	0.152375
7.483333	1	0.152250
7.500000	1	0.152250
7.516667	1	0.151375
7.533333	1	0.150750
7.550000	1	0.149375
7.566667	1	0.147750
7.583333	1	0.145750
7.600000	1	0.143000
7.616667	1	0.140250
7.633333	1	0.136875
7.650000	1	0.133500
7.666667	1	0.130625
7.683333	1	0.127000
7.700000	1	0.123250
7.716667	1	0.119500
7.733333	1	0.116125
7.750000	1	0.112375
7.766667	1	0.107625
7.783333	1	0.104125
7.800000	1	0.100000
7.816667	1	0.095875
7.833333	1	0.091625
7.850000	1	0.087250
7.866667	1	0.083125
7.883333	1	0.078625
7.900000	1	0.074375
7.916667	1	0.070625
7.933333	1	0.067125
7.950000	1	0.064125
7.966667	1	0.060625
7.983333	1	0.057125
8.000000	1	0.054250
8.016667	1	0.051000
8.033333	1	0.047250
8.050000	1	0.044125
8.066667	1	0.041125
8.083333	1	0.038625
8.100000	1	0.036125
8.116667	1	0.033750
8.133333	1	0.032125
8.150000	1	0.030125
8.166667	1	0.028125
8.183333	1	0.025750
8.200000	1	0.024125
8.216667	1	0.022500
8.233333	1	0.021625
8.250000	1	0.020000
8.266667	1	0.018375
8.283333	1	0.016750
8.300000	1	0.015875
8.316667	1	0.015375
8.333333	1	0.014625
8.350000	1	0.014125
8.366667	1	0.013375
8.383333	1	0.012250
8.400000	1	0.011375
8.416667	1	0.010125
8.433333	1	0.009250
8.450000	1	0.008375
8.466667	1	0.007625
8.483333	1	0.006750
8.500000	1	0.005625
8.516667	1	0.004250
8.533333	1	0.002625
8.550000	1	0.001625
8.566667	1	0.000750
8.583333	1	-0.000500
8.600000	1	-0.002125
8.616667	1	-0.003750
8.633333	1	-0.004875
8.650000	1	-0.005125
8.666667	1	-0.006500
8.683333	1	-0.008750
8.700000	1	-0.009750
8.716667	1	-0.009750
8.733333	1	-0.010000
8.750000	1	-0.010500
8.766667	1	-0.011000
8.783333	1	-0.011250
8.800000	1	-0.011750
8.816667	1	-0.011500
8.833333	1	-0.010625
8.850000	1	-0.011000
8.866667	1	-0.011000
8.883333	1	-0.009875
8.900000	1	-0.009250
8.916667	1	-0.007875
8.933333	1	-0.006625
8.950000	1	-0.005250
8.966667	1	-0.003875
8.983333	1	-0.002250
9.000000	1	-0.001500
9.016667	1	-0.000500
9.033333	1	0.000625
9.050000	1	0.001625
9.066667	1	0.002875
9.083333	1	0.003625
9.100000	1	0.004375
9.116667	1	0.005000
9.133333	1	0.006500
9.150000	1	0.007125
9.166667	1	0.008375
9.183333	1	0.009375
9.200000	1	0.009750
9.216667	1	0.009875
9.233333	1	0.010250
9.250000	1	0.010250
9.266667	1	0.010000
9.283333	1	0.010250
9.300000	1	0.011000
9.316667	1	0.011375
9.333333	1	0.011625
9.350000	1	0.011750
9.366667	1	0.011750
9.383333	1	0.012125
9.400000	1	0.012250
9.416667	1	0.012875
9.433333	1	0.013625
9.450000	1	0.014125
9.466667	1	0.014750
9.483333	1	0.015375
9.500000	1	0.016125
9.516667	1	0.017000
9.533333	1	0.017750
9.550000	1	0.018000
9.566667	1	0.018875
9.583333	1	0.019750
9.600000	1	0.020250
9.616667	1	0.021250
9.633333	1	0.021500
9.650000	1	0.022500
9.666667	1	0.023375
9.683333	1	0.024375
9.700000	1	0.025875
9.716667	1	0.027625
9.733333	1	0.028375
9.750000	1	0.029125
9.766667	1	0.029875
9.783333	1	0.030500
9.800000	1	0.031000
9.816667	1	0.031750
9.833333	1	0.032000
9.850000	1	0.031375
9.866667	1	0.031750
9.883333	1	0.031625
9.900000	1	0.030500
9.916667	1	0.029000
9.933333	1	0.028125
9.950000	1	0.027125
9.966667	1	0.025250
9.983333	1	0.023375
10.000000	1	0.021000
10.016667	1	0.018875
10.033333	1	0.015875
10.050000	1	0.013375
10.066667	1	0.010125
10.083333	1	0.008750
10.100000	1	0.007500
10.116667	1	0.007000
10.133333	1	0.007000
10.150000	1	0.007375
10.166667	1	0.009500
10.183333	1	0.014000
10.200000	1	0.019625
10.216667	1	0.027125
10.233333	1	0.036500
10.250000	1	0.048000
10.266667	1	0.062125
10.283333	1	0.079250
10.300000	1	0.098000
10.316667	1	0.120000
10.333333	1	0.144625
10.350000	1	0.172000
10.366667	1	0.200625
10.383333	1	0.229250
10.400000	1	0.255625
10.416667	1	0.277500
10.433333	1	0.292125
10.450000	1	0.299250
10.466667	1	0.297625
10.483333	1	0.290625
10.500000	1	0.287500
10.516667	1	0.304625
10.533333	1	0.365750
10.550000	1	0.508375
10.566667	1	0.778125
10.583333	1	1.232000
10.600000	1	1.931125
10.616667	1	2.937000
10.633333	1	4.302750
10.650000	1	6.065625
10.666667	1	8.254375
10.683333	1	10.879375
10.700000	1	13.937875
10.716667	1	17.406000
10.733333	1	21.242000
10.750000	1	25.379250
10.766667	1	29.718875
10.783333	1	34.124750
10.800000	1	38.410750
10.816667	1	42.325250
10.833333	1	45.550250
10.850000	1	47.737500
10.866667	1	48.570875
10.883333	1	47.843125
10.900000	1	45.545000
10.916667	1	41.898250
10.933333	1	37.309625
10.950000	1	32.264000
10.966667	1	27.209500
10.983333	1	22.484250
11.000000	1	18.288750
11.016667	1	14.709000
11.033333	1	11.749000
11.050000	1	9.361875
11.066667	1	7.472750
11.083333	1	6.000000
11.100000	1	4.863375
11.116667	1	3.993625
11.133333	1	3.330750
11.150000	1	2.826625
11.166667	1	2.443250
11.183333	1	2.149750
11.200000	1	1.925875
11.216667	1	1.754500
11.233333	1	1.620500
11.250000	1	1.515875
11.266667	1	1.433375
11.283333	1	1.366125
11.300000	1	1.309125
11.316667	1	1.261125
11.333333	1	1.218000
11.350000	1	1.178375
11.366667	1	1.142375
11.383333	1	1.109250
11.400000	1	1.077625
11.416667	1	1.048625
11.433333	1	1.021250
11.450000	1	0.997375
11.466667	1	0.975750
11.483333	1	0.957000
11.500000	1	0.941000
11.516667	1	0.928500
11.533333	1	0.920125
11.550000	1	0.915125
11.566667	1	0.913500
11.583333	1	0.916250
11.600000	1	0.923000
11.616667	1	0.934750
11.633333	1	0.950750
11.650000	1	0.972125
11.666667	1	0.997875
11.683333	1	1.027125
11.700000	1	1.059875
11.716667	1	1.094000
11.733333	1	1.128125
11.750000	1	1.160875
11.766667	1	1.189625
11.783333	1	1.214125
11.800000	1	1.232875
11.816667	1	1.244750
11.833333	1	1.250375
11.850000	1	1.249375
11.866667	1	1.243125
11.883333	1	1.231500
11.900000	1	1.216625
11.916667	1	1.199500
11.933333	1	1.181375
11.950000	1	1.162875
11.966667	1	1.145125
11.983333	1	1.128625
12.000000	1	1.114250
12.016667	1	1.101000
12.033333	1	1.091250
12.050000	1	1.083250
12.066667	1	1.077125
12.083333	1	1.072750
12.100000	1	1.070500
12.116667	1	1.069250
12.133333	1	1.070125
12.150000	1	1.071750
12.166667	1	1.074500
12.183333	1	1.078875
12.200000	1	1.085625
12.216667	1	1.093750
12.233333	1	1.105375
12.250000	1	1.120125
12.266667	1	1.140250
12.283333	1	1.167875
12.300000	1	1.204250
12.316667	1	1.254750
12.333333	1	1.323000
12.350000	1	1.414750
12.366667	1	1.538875
12.383333	1	1.707000
12.400000	1	1.934375
12.416667	1	2.241250
12.433333	1	2.653000
12.450000	1	3.205875
12.466667	1	3.945250
12.483333	1	4.928625
12.500000	1	6.227000
12.516667	1	7.921625
12.533333	1	10.102875
12.550000	1	12.865125
12.566667	1	16.291750
12.583333	1	20.449750
12.600000	1	25.372250
12.616667	1	31.034250
12.633333	1	37.358375
12.650000	1	44.202625
12.666667	1	51.358875
12.683333	1	58.549250
12.700000	1	65.449875
12.716667	1	71.720625
12.733333	1	77.032375
12.750000	1	81.109125
12.766667	1	83.753125
12.783333	1	84.865625
12.800000	1	84.452500
12.816667	1	82.630750
12.833333	1	79.595750
12.850000	1	75.601500
12.866667	1	70.934750
12.883333	1	65.889375
12.900000	1	60.739875
12.916667	1	55.725875
12.933333	1	51.032000
12.950000	1	46.792750
12.966667	1	43.084375
12.983333	1	39.939000
13.000000	1	37.353875
13.016667	1	35.300500
13.033333	1	33.732750
13.050000	1	32.596750
13.066667	1	31.837000
13.083333	1	31.399750
13.100000	1	31.236125
13.116667	1	31.300750
13.133333	1	31.554750
13.150000	1	31.965125
13.166667	1	32.505375
13.183333	1	33.153750
13.200000	1	33.890125
13.216667	1	34.700375
13.233333	1	35.574125
13.250000	1	36.501750
13.266667	1	37.476750
13.283333	1	38.493625
13.300000	1	39.549875
13.316667	1	40.640375
13.333333	1	41.764750
13.350000	1	42.919500
13.366667	1	44.104500
13.383333	1	45.317625
13.400000	1	46.560250
13.416667	1	47.829750
13.433333	1	49.128000
13.450000	1	50.456250
13.466667	1	51.815250
13.483333	1	53.204750
13.500000	1	54.626000
13.516667	1	56.078375
13.533333	1	57.560000
13.550000	1	59.072500
13.566667	1	60.614750
13.583333	1	62.190500
13.600000	1	63.797000
13.616667	1	65.435375
13.633333	1	67.107500
13.650000	1	68.816750
13.666667	1	70.561750
13.683333	1	72.338250
13.700000	1	74.126125
13.716667	1	75.866125
13.733333	1	77.436625
13.750000	1	78.661875
13.766667	1	79.347750
13.783333	1	79.321125
13.800000	1	78.448625
13.816667	1	76.605000
13.833333	1	73.636375
13.850000	1	69.355500
13.866667	1	63.645250
13.883333	1	56.627125
13.900000	1	48.767250
13.916667	1	40.766375
13.933333	1	33.306375
13.950000	1	26.823125
13.966667	1	21.473375
13.983333	1	17.206500
14.000000	1	13.877500
14.016667	1	11.317375
14.033333	1	9.373000
14.050000	1	7.913500
14.066667	1	6.828000
14.083333	1	6.024000
14.100000	1	5.427750
14.116667	1	4.981750
14.133333	1	4.644000
14.150000	1	4.382375
14.166667	1	4.175875
14.183333	1	4.008125
14.200000	1	3.869500
14.216667	1	3.752125
14.233333	1	3.650500
14.250000	1	3.560750
14.266667	1	3.480125
14.283333	1	3.407125
14.300000	1	3.340375
14.316667	1	3.278375
14.333333	1	3.221125
14.350000	1	3.167875
14.366667	1	3.117625
14.383333	1	3.071875
14.400000	1	3.030250
14.416667	1	2.991875
14.433333	1	2.955875
14.450000	1	2.922750
14.466667	1	2.892000
14.483333	1	2.862875
14.500000	1	2.835875
14.516667	1	2.810250
14.533333	1	2.785875
14.550000	1	2.762750
14.566667	1	2.740375
14.583333	1	2.717875
14.600000	1	2.695125
14.616667	1	2.672375
14.633333	1	2.650500
14.650000	1	2.628250
14.666667	1	2.607000
14.683333	1	2.586500
14.700000	1	2.566125
14.716667	1	2.547875
14.733333	1	2.531375
14.750000	1	2.516875
14.766667	1	2.504375
14.783333	1	2.492625
14.800000	1	2.481625
14.816667	1	2.472125
14.833333	1	2.462000
14.850000	1	2.450250
14.866667	1	2.436000
14.883333	1	2.418375
14.900000	1	2.397625
14.916667	1	2.372625
14.933333	1	2.343750
14.950000	1	2.311250
14.966667	1	2.274250
14.983333	1	2.234875
15.000000	1	2.193500
15.016667	1	2.152000
15.033333	1	2.109875
15.050000	1	2.068625
15.066667	1	2.028625
15.083333	1	1.989625
15.100000	1	1.953625
15.116667	1	1.919250
15.133333	1	1.887625
15.150000	1	1.858500
15.166667	1	1.832000
15.183333	1	1.807500
15.200000	1	1.786750
15.216667	1	1.767625
15.233333	1	1.751875
15.250000	1	1.737750
15.266667	1	1.726750
15.283333	1	1.718125
15.300000	1	1.713125
15.316667	1	1.712250
15.333333	1	1.714125
15.350000	1	1.721625
15.366667	1	1.733750
15.383333	1	1.751250
15.400000	1	1.774000
15.416667	1	1.801375
15.433333	1	1.833000
15.450000	1	1.868000
15.466667	1	1.904250
15.483333	1	1.940500
15.500000	1	1.973500
15.516667	1	2.003500
15.533333	1	2.026750
15.550000	1	2.042125
15.566667	1	2.048625
15.583333	1	2.046250
15.600000	1	2.034125
15.616667	1	2.014625
15.633333	1	1.987375
15.650000	1	1.953625
15.666667	1	1.914875
15.683333	1	1.873375
15.700000	1	1.830875
15.716667	1	1.787875
15.733333	1	1.746000
15.750000	1	1.705750
15.766667	1	1.667500
15.783333	1	1.630250
15.800000	1	1.595375
15.816667	1	1.561875
15.833333	1	1.530625
15.850000	1	1.501000
15.866667	1	1.472000
15.883333	1	1.444125
15.900000	1	1.418125
15.916667	1	1.393125
15.933333	1	1.369500
15.950000	1	1.347875
15.966667	1	1.328375
15.983333	1	1.311375
16.000000	1	1.296375
16.016667	1	1.283750
16.033333	1	1.272250
16.050000	1	1.264500
16.066667	1	1.257500
16.083333	1	1.252000
16.100000	1	1.248625
16.116667	1	1.246000
16.133333	1	1.244875
16.150000	1	1.244750
16.166667	1	1.244375
16.183333	1	1.244250
16.200000	1	1.244750
16.216667	1	1.244875
16.233333	1	1.244625
16.250000	1	1.244000
16.266667	1	1.242375
16.283333	1	1.239875
16.300000	1	1.236500
16.316667	1	1.232250
16.333333	1	1.226250
16.350000	1	1.220250
16.366667	1	1.214125
16.383333	1	1.206750
16.400000	1	1.199625
16.416667	1	1.193000
16.433333	1	1.186875
16.450000	1	1.181875
16.466667	1	1.178625
16.483333	1	1.177000
16.500000	1	1.176875
16.516667	1	1.178250
16.533333	1	1.182000
16.550000	1	1.186875
16.566667	1	1.193500
16.583333	1	1.200375
16.600000	1	1.207625
16.616667	1	1.214875
16.633333	1	1.221500
16.650000	1	1.227875
16.666667	1	1.232750
16.683333	1	1.236125
16.700000	1	1.238875
16.716667	1	1.240375
16.733333	1	1.240375
16.750000	1	1.240625
16.766667	1	1.240125
16.783333	1	1.240500
16.800000	1	1.241000
16.816667	1	1.242625
16.833333	1	1.244750
16.850000	1	1.247875
16.866667	1	1.251375
16.883333	1	1.255250
16.900000	1	1.259500
16.916667	1	1.263250
16.933333	1	1.266375
16.950000	1	1.268875
16.966667	1	1.269875
16.983333	1	1.269750
17.000000	1	1.268375
17.016667	1	1.266000
17.033333	1	1.262375
17.050000	1	1.257750
17.066667	1	1.253000
17.083333	1	1.247375
17.100000	1	1.242500
17.116667	1	1.237625
17.133333	1	1.232500
17.150000	1	1.229000
17.166667	1	1.227250
17.183333	1	1.226125
17.200000	1	1.226000
17.216667	1	1.226250
17.233333	1	1.227875
17.250000	1	1.230250
17.266667	1	1.233125
17.283333	1	1.237250
17.300000	1	1.241875
17.316667	1	1.247875
17.333333	1	1.253250
17.350000	1	1.259500
17.366667	1	1.266125
17.383333	1	1.271875
17.400000	1	1.277750
17.416667	1	1.283250
17.433333	1	1.288250
17.450000	1	1.292250
17.466667	1	1.294625
17.483333	1	1.295375
17.500000	1	1.295250
17.516667	1	1.292875
17.533333	1	1.289000
17.550000	1	1.283375
17.566667	1	1.276875
17.583333	1	1.268125
17.600000	1	1.257500
17.616667	1	1.245000
17.633333	1	1.232125
17.650000	1	1.218875
17.666667	1	1.204000
17.683333	1	1.189750
17.700000	1	1.173750
17.716667	1	1.158250
17.733333	1	1.142500
17.750000	1	1.127500
17.766667	1	1.111875
17.783333	1	1.097125
17.800000	1	1.082500
17.816667	1	1.068125
17.833333	1	1.054375
17.850000	1	1.040750
17.866667	1	1.028000
17.883333	1	1.015500
17.900000	1	1.003625
17.916667	1	0.992000
17.933333	1	0.980750
17.950000	1	0.970375
17.966667	1	0.960500
17.983333	1	0.950500
18.000000	1	0.941875
18.016667	1	0.932750
18.033333	1	0.923625
18.050000	1	0.915000
18.066667	1	0.906500
18.083333	1	0.898625
18.100000	1	0.890875
18.116667	1	0.883500
18.133333	1	0.876625
18.150000	1	0.869750
18.166667	1	0.864500
18.183333	1	0.859375
18.200000	1	0.854875
18.216667	1	0.850875
18.233333	1	0.848125
18.250000	1	0.845750
18.266667	1	0.845000
18.283333	1	0.843750
18.300000	1	0.842625
18.316667	1	0.842375
18.333333	1	0.842750
18.350000	1	0.843625
18.366667	1	0.844250
18.383333	1	0.845500
18.400000	1	0.847250
18.416667	1	0.849750
18.433333	1	0.852500
18.450000	1	0.855750
18.466667	1	0.860500
18.483333	1	0.866500
18.500000	1	0.874125
18.516667	1	0.883500
18.533333	1	0.894000
18.550000	1	0.906375
18.566667	1	0.921375
18.583333	1	0.937750
18.600000	1	0.956875
18.616667	1	0.977875
18.633333	1	1.001375
18.650000	1	1.026750
18.666667	1	1.053500
18.683333	1	1.082625
18.700000	1	1.113750
18.716667	1	1.145500
18.733333	1	1.179000
18.750000	1	1.214000
18.766667	1	1.249125
18.783333	1	1.285250
18.800000	1	1.321000
18.816667	1	1.356250
18.833333	1	1.390500
18.850000	1	1.422000
18.866667	1	1.451000
18.883333	1	1.476500
18.900000	1	1.498000
18.916667	1	1.514875
18.933333	1	1.526750
18.950000	1	1.532000
18.966667	1	1.530750
18.983333	1	1.522375
19.000000	1	1.507125
19.016667	1	1.485250
19.033333	1	1.456500
19.050000	1	1.422500
19.066667	1	1.383375
19.083333	1	1.339250
19.100000	1	1.292375
19.116667	1	1.242875
19.133333	1	1.192000
19.150000	1	1.141250
19.166667	1	1.091250
19.183333	1	1.043375
19.200000	1	0.997125
19.216667	1	0.954750
19.233333	1	0.916750
19.250000	1	0.883375
19.266667	1	0.855875
19.283333	1	0.833500
19.300000	1	0.815750
19.316667	1	0.804500
19.333333	1	0.799125
19.350000	1	0.799625
19.366667	1	0.806000
19.383333	1	0.817375
19.400000	1	0.833875
19.416667	1	0.855125
19.433333	1	0.881500
19.450000	1	0.911125
19.466667	1	0.943875
19.483333	1	0.979000
19.500000	1	1.015000
19.516667	1	1.050500
19.533333	1	1.085750
19.550000	1	1.119000
19.566667	1	1.149000
19.583333	1	1.175125
19.600000	1	1.196375
19.616667	1	1.212250
19.633333	1	1.222375
19.650000	1	1.226250
19.666667	1	1.224125
19.683333	1	1.216375
19.700000	1	1.203375
19.716667	1	1.185750
19.733333	1	1.163125
19.750000	1	1.136625
19.766667	1	1.107125
19.783333	1	1.075125
19.800000	1	1.041875
19.816667	1	1.007250
19.833333	1	0.972250
19.850000	1	0.937125
19.866667	1	0.902500
19.883333	1	0.869625
19.900000	1	0.837375
19.916667	1	0.807125
19.933333	1	0.778250
19.950000	1	0.751250
19.966667	1	0.726875
19.983333	1	0.703875
20.000000	1	0.684125
20.016667	1	0.666500
20.033333	1	0.651625
20.050000	1	0.639500
20.066667	1	0.630125
20.083333	1	0.623875
20.100000	1	0.620750
20.116667	1	0.619750
20.133333	1	0.621500
20.150000	1	0.625875
20.166667	1	0.633375
20.183333	1	0.643125
20.200000	1	0.654500
20.216667	1	0.668750
20.233333	1	0.683375
20.250000	1	0.697750
20.266667	1	0.713125
20.283333	1	0.727625
20.300000	1	0.741125
20.316667	1	0.752250
20.333333	1	0.761375
20.350000	1	0.768125
20.366667	1	0.771750
20.383333	1	0.772625
20.400000	1	0.770125
20.416667	1	0.764625
20.433333	1	0.756875
20.450000	1	0.746625
20.466667	1	0.735125
20.483333	1	0.723000
20.500000	1	0.710750
20.516667	1	0.699750
20.533333	1	0.691125
20.550000	1	0.685625
20.566667	1	0.684125
20.583333	1	0.686875
20.600000	1	0.695750
20.616667	1	0.710875
20.633333	1	0.733375
20.650000	1	0.763250
20.666667	1	0.800250
20.683333	1	0.845125
20.700000	1	0.897500
20.716667	1	0.957375
20.733333	1	1.024125
20.750000	1	1.095000
20.766667	1	1.169250
20.783333	1	1.246375
20.800000	1	1.323250
20.816667	1	1.397625
20.833333	1	1.466750
20.850000	1	1.529000
20.866667	1	1.582000
20.883333	1	1.623125
20.900000	1	1.652125
20.916667	1	1.667375
20.933333	1	1.668125
20.950000	1	1.654625
20.966667	1	1.628500
20.983333	1	1.589250
21.000000	1	1.539250
21.016667	1	1.479875
21.033333	1	1.413875
21.050000	1	1.343000
21.066667	1	1.269250
21.083333	1	1.195000
21.100000	1	1.120875
21.116667	1	1.049000
21.133333	1	0.980750
21.150000	1	0.916750
21.166667	1	0.857125
21.183333	1	0.802375
21.200000	1	0.752500
21.216667	1	0.707875
21.233333	1	0.668625
21.250000	1	0.634375
21.266667	1	0.603750
21.283333	1	0.577500
21.300000	1	0.554875
21.316667	1	0.535625
21.333333	1	0.518875
21.350000	1	0.505000
21.366667	1	0.493750
21.383333	1	0.483625
21.400000	1	0.475000
21.416667	1	0.467125
21.433333	1	0.461250
21.450000	1	0.456125
21.466667	1	0.451750
21.483333	1	0.448500
21.500000	1	0.445625
21.516667	1	0.443500
21.533333	1	0.442750
21.550000	1	0.442750
21.566667	1	0.443125
21.583333	1	0.445250
21.600000	1	0.448375
21.616667	1	0.452000
21.633333	1	0.457875
21.650000	1	0.465500
21.666667	1	0.474250
21.683333	1	0.484375
21.700000	1	0.497250
21.716667	1	0.512125
21.733333	1	0.528500
21.750000	1	0.548000
21.766667	1	0.569250
21.783333	1	0.592250
21.800000	1	0.617375
21.816667	1	0.644375
21.833333	1	0.672000
21.850000	1	0.701250
21.866667	1	0.731125
21.883333	1	0.760875
21.900000	1	0.791375
21.916667	1	0.820500
21.933333	1	0.848250
21.950000	1	0.874500
21.966667	1	0.897625
21.983333	1	0.918250
22.000000	1	0.935250
22.016667	1	0.948875
22.033333	1	0.957625
22.050000	1	0.963125
22.066667	1	0.964375
22.083333	1	0.961500
22.100000	1	0.955000
22.116667	1	0.945000
22.133333	1	0.932125
22.150000	1	0.916375
22.166667	1	0.898625
22.183333	1	0.878125
22.200000	1	0.856375
22.216667	1	0.832625
22.233333	1	0.808750
22.250000	1	0.783500
22.266667	1	0.757625
22.283333	1	0.731750
22.300000	1	0.706375
22.316667	1	0.681250
22.333333	1	0.656500
22.350000	1	0.631375
22.366667	1	0.607125
22.383333	1	0.583875
22.400000	1	0.561500
22.416667	1	0.539250
22.433333	1	0.518125
22.450000	1	0.498500
22.466667	1	0.480000
22.483333	1	0.462875
22.500000	1	0.446625
22.516667	1	0.431375
22.533333	1	0.416750
22.550000	1	0.403625
22.566667	1	0.391500
22.583333	1	0.380250
22.600000	1	0.369625
22.616667	1	0.359625
22.633333	1	0.351000
22.650000	1	0.343000
22.666667	1	0.335000
22.683333	1	0.328500
22.700000	1	0.321125
22.716667	1	0.315250
22.733333	1	0.309625
22.750000	1	0.304500
22.766667	1	0.301000
22.783333	1	0.296500
22.800000	1	0.292625
22.816667	1	0.288250
22.833333	1	0.284500
22.850000	1	0.280875
22.866667	1	0.278375
22.883333	1	0.276000
22.900000	1	0.273500
22.916667	1	0.272625
22.933333	1	0.271125
22.950000	1	0.270250
22.966667	1	0.269500
22.983333	1	0.268625
23.000000	1	0.269000
23.016667	1	0.270000
23.033333	1	0.270875
23.050000	1	0.271750
23.066667	1	0.274000
23.083333	1	0.275375
23.100000	1	0.278125
23.116667	1	0.280250
23.133333	1	0.282750
23.150000	1	0.285625
23.166667	1	0.289250
23.183333	1	0.292375
23.200000	1	0.295625
23.216667	1	0.299750
23.233333	1	0.303875
23.250000	1	0.307625
23.266667	1	0.312000
23.283333	1	0.317500
23.300000	1	0.324125
23.316667	1	0.332500
23.333333	1	0.342125
23.350000	1	0.354375
23.366667	1	0.368875
23.383333	1	0.387125
23.400000	1	0.410000
23.416667	1	0.437000
23.433333	1	0.469500
23.450000	1	0.508875
23.466667	1	0.557375
23.483333	1	0.614875
23.500000	1	0.683375
23.516667	1	0.762625
23.533333	1	0.856250
23.550000	1	0.964250
23.566667	1	1.088000
23.583333	1	1.227625
23.600000	1	1.384750
23.616667	1	1.559125
23.633333	1	1.751250
23.650000	1	1.959375
23.666667	1	2.182750
23.683333	1	2.419000
23.700000	1	2.666250
23.716667	1	2.920125
23.733333	1	3.178625
23.750000	1	3.436500
23.766667	1	3.687625
23.783333	1	3.927750
23.800000	1	4.151000
23.816667	1	4.351750
23.833333	1	4.527250
23.850000	1	4.671875
23.866667	1	4.782375
23.883333	1	4.856750
23.900000	1	4.892750
23.916667	1	4.890875
23.933333	1	4.851375
23.950000	1	4.775750
23.966667	1	4.666625
23.983333	1	4.527750
24.000000	1	4.362125
24.016667	1	4.175250
24.033333	1	3.970875
24.050000	1	3.754750
24.066667	1	3.530500
24.083333	1	3.301625
24.100000	1	3.073000
24.116667	1	2.846875
24.133333	1	2.627125
24.150000	1	2.416125
24.166667	1	2.215375
24.183333	1	2.027000
24.200000	1	1.850750
24.216667	1	1.688375
24.233333	1	1.539125
24.250000	1	1.402500
24.266667	1	1.278000
24.283333	1	1.166625
24.300000	1	1.067250
24.316667	1	0.978750
24.333333	1	0.899875
24.350000	1	0.830375
24.366667	1	0.770000
24.383333	1	0.717375
24.400000	1	0.672250
24.416667	1	0.633125
24.433333	1	0.599875
24.450000	1	0.571875
24.466667	1	0.548000
24.483333	1	0.528625
24.500000	1	0.512375
24.516667	1	0.499000
24.533333	1	0.488375
24.550000	1	0.479125
24.566667	1	0.471000
24.583333	1	0.464625
24.600000	1	0.459375
24.616667	1	0.454250
24.633333	1	0.449875
24.650000	1	0.445625
24.666667	1	0.441125
24.683333	1	0.436875
24.700000	1	0.432375
24.716667	1	0.427750
24.733333	1	0.422875
24.750000	1	0.418125
24.766667	1	0.412125
24.783333	1	0.407125
24.800000	1	0.402250
24.816667	1	0.397000
24.833333	1	0.391375
24.850000	1	0.385750
24.866667	1	0.380625
24.883333	1	0.375125
24.900000	1	0.370250
24.916667	1	0.365750
24.933333	1	0.361875
24.950000	1	0.357500
24.966667	1	0.353500
24.983333	1	0.349250
25.000000	1	0.345750
25.016667	1	0.342875
25.033333	1	0.339875
25.050000	1	0.336875
25.066667	1	0.334250
25.083333	1	0.331375
25.100000	1	0.328750
25.116667	1	0.326375
25.133333	1	0.324125
25.150000	1	0.321125
25.166667	1	0.318000
25.183333	1	0.315125
25.200000	1	0.312375
25.216667	1	0.308875
25.233333	1	0.305875
25.250000	1	0.303375
25.266667	1	0.300375
25.283333	1	0.297125
25.300000	1	0.294250
25.316667	1	0.290625
25.333333	1	0.287125
25.350000	1	0.283375
25.366667	1	0.280875
25.383333	1	0.277625
25.400000	1	0.274625
25.416667	1	0.272000
25.433333	1	0.269375
25.450000	1	0.266750
25.466667	1	0.264125
25.483333	1	0.261750
25.500000	1	0.260250
25.516667	1	0.258500
25.533333	1	0.256375
25.550000	1	0.254500
25.566667	1	0.253125
25.583333	1	0.251375
25.600000	1	0.250000
25.616667	1	0.248875
25.633333	1	0.248125
25.650000	1	0.247125
25.666667	1	0.246000
25.683333	1	0.245000
25.700000	1	0.243625
25.716667	1	0.242375
25.733333	1	0.241375
25.750000	1	0.240375
25.766667	1	0.240250
25.783333	1	0.240000
25.800000	1	0.239750
25.816667	1	0.239250
25.833333	1	0.239750
25.850000	1	0.240250
25.866667	1	0.240625
25.883333	1	0.241625
25.900000	1	0.242625
25.916667	1	0.244500
25.933333	1	0.246500
25.950000	1	0.249125
25.966667	1	0.251375
25.983333	1	0.254875
26.000000	1	0.258375
26.016667	1	0.261875
26.033333	1	0.265875
26.050000	1	0.270500
26.066667	1	0.275375
26.083333	1	0.280125
26.100000	1	0.285125
26.116667	1	0.290750
26.133333	1	0.296000
26.150000	1	0.301625
26.166667	1	0.307000
26.183333	1	0.311875
26.200000	1	0.316500
26.216667	1	0.320875
26.233333	1	0.324875
26.250000	1	0.328375
26.266667	1	0.331625
26.283333	1	0.333750
26.300000	1	0.335875
26.316667	1	0.337125
26.333333	1	0.337000
26.350000	1	0.337250
26.366667	1	0.337500
26.383333	1	0.336375
26.400000	1	0.334500
26.416667	1	0.331500
26.433333	1	0.328375
26.450000	1	0.325625
26.466667	1	0.321250
26.483333	1	0.316750
26.500000	1	0.312000
26.516667	1	0.307125
26.533333	1	0.301500
26.550000	1	0.295750
26.566667	1	0.290000
26.583333	1	0.283750
26.600000	1	0.277500
26.616667	1	0.271500
26.633333	1	0.265625
26.650000	1	0.260500
26.666667	1	0.254125
26.683333	1	0.248500
26.700000	1	0.243250
26.716667	1	0.237500
26.733333	1	0.231875
26.750000	1	0.227250
26.766667	1	0.222250
26.783333	1	0.217250
26.800000	1	0.212125
26.816667	1	0.207750
26.833333	1	0.203875
26.850000	1	0.200125
26.866667	1	0.197625
26.883333	1	0.194875
26.900000	1	0.191500
26.916667	1	0.190000
26.933333	1	0.188500
26.950000	1	0.187500
26.966667	1	0.187125
26.983333	1	0.186750
27.000000	1	0.186625
27.016667	1	0.187250
27.033333	1	0.188250
27.050000	1	0.190750
27.066667	1	0.194375
27.083333	1	0.198500
27.100000	1	0.202750
27.116667	1	0.208625
27.133333	1	0.215875
27.150000	1	0.223250
27.166667	1	0.232750
27.183333	1	0.243750
27.200000	1	0.257000
27.216667	1	0.271875
27.233333	1	0.288750
27.250000	1	0.308250
27.266667	1	0.331375
27.283333	1	0.357250
27.300000	1	0.387125
27.316667	1	0.420875
27.333333	1	0.458625
27.350000	1	0.502500
27.366667	1	0.551875
27.383333	1	0.607750
27.400000	1	0.670625
27.416667	1	0.741250
27.433333	1	0.819750
27.450000	1	0.907625
27.466667	1	1.004625
27.483333	1	1.111250
27.500000	1	1.227750
27.516667	1	1.354500
27.533333	1	1.491250
27.550000	1	1.638375
27.566667	1	1.795000
27.583333	1	1.959125
27.600000	1	2.131375
27.616667	1	2.309500
27.633333	1	2.492625
27.650000	1	2.678625
27.666667	1	2.866625
27.683333	1	3.053000
27.700000	1	3.235500
27.716667	1	3.411000
27.733333	1	3.577500
27.750000	1	3.731125
27.766667	1	3.871125
27.783333	1	3.993875
27.800000	1	4.097125
27.816667	1	4.179250
27.833333	1	4.238500
27.850000	1	4.272875
27.866667	1	4.281875
27.883333	1	4.265125
27.900000	1	4.222750
27.916667	1	4.155625
27.933333	1	4.066000
27.950000	1	3.954500
27.966667	1	3.823625
27.983333	1	3.675500
28.000000	1	3.513375
28.016667	1	3.340500
28.033333	1	3.158250
28.050000	1	2.970750
28.066667	1	2.779875
28.083333	1	2.588875
28.100000	1	2.401375
28.116667	1	2.217125
28.133333	1	2.040125
28.150000	1	1.870250
28.166667	1	1.710375
28.183333	1	1.560125
28.200000	1	1.420375
28.216667	1	1.291500
28.233333	1	1.173750
28.250000	1	1.067000
28.266667	1	0.969250
28.283333	1	0.882750
28.300000	1	0.805625
28.316667	1	0.737750
28.333333	1	0.678750
28.350000	1	0.627500
28.366667	1	0.584000
28.383333	1	0.546375
28.400000	1	0.515750
28.416667	1	0.490750
28.433333	1	0.470000
28.450000	1	0.453750
28.466667	1	0.442500
28.483333	1	0.435500
28.500000	1	0.431125
28.516667	1	0.429375
28.533333	1	0.430000
28.550000	1	0.432625
28.566667	1	0.438125
28.583333	1	0.444875
28.600000	1	0.453000
28.616667	1	0.462125
28.633333	1	0.472375
28.650000	1	0.482375
28.666667	1	0.493375
28.683333	1	0.504625
28.700000	1	0.515125
28.716667	1	0.525750
28.733333	1	0.536000
28.750000	1	0.546125
28.766667	1	0.555125
28.783333	1	0.564750
28.800000	1	0.571750
28.816667	1	0.578625
28.833333	1	0.584500
28.850000	1	0.589750
28.866667	1	0.593875
28.883333	1	0.597000
28.900000	1	0.598375
28.916667	1	0.598500
28.933333	1	0.596750
28.950000	1	0.594875
28.966667	1	0.591750
28.983333	1	0.587125
29.000000	1	0.581625
29.016667	1	0.575125
29.033333	1	0.567625
29.050000	1	0.558375
29.066667	1	0.548000
29.083333	1	0.536625
29.100000	1	0.525125
29.116667	1	0.512875
29.133333	1	0.500250
29.150000	1	0.486375
29.166667	1	0.472500
29.183333	1	0.458750
29.200000	1	0.445500
29.216667	1	0.430750
29.233333	1	0.416375
29.250000	1	0.402000
29.266667	1	0.387375
29.283333	1	0.373375
29.300000	1	0.358750
29.316667	1	0.345125
29.333333	1	0.331250
29.350000	1	0.317250
29.366667	1	0.304750
29.383333	1	0.292500
29.400000	1	0.281000
29.416667	1	0.270250
29.433333	1	0.259625
29.450000	1	0.249500
29.466667	1	0.239375
29.483333	1	0.229250
29.500000	1	0.221000
29.516667	1	0.213375
29.533333	1	0.204750
29.550000	1	0.197000
29.566667	1	0.190000
29.583333	1	0.184125
29.600000	1	0.178125
29.616667	1	0.172375
29.633333	1	0.167000
29.650000	1	0.162125
29.666667	1	0.158000
29.683333	1	0.153625
29.700000	1	0.150250
29.716667	1	0.146875
29.733333	1	0.142875
29.750000	1	0.140375
29.766667	1	0.137875
29.783333	1	0.135875
29.800000	1	0.133750
29.816667	1	0.131625
29.833333	1	0.130000
29.850000	1	0.128625
29.866667	1	0.127750
29.883333	1	0.126125
29.900000	1	0.125125
29.916667	1	0.123875
29.933333	1	0.123125
29.950000	1	0.122625
29.966667	1	0.122000
29.983333	1	0.122125
30.000000	1	0.122125
30.016667	1	0.121500
30.033333	1	0.120875
30.050000	1	0.120750
30.066667	1	0.120500
30.083333	1	0.120375
30.100000	1	0.120000
30.116667	1	0.119750
30.133333	1	0.119875
30.150000	1	0.120000
30.166667	1	0.120125
30.183333	1	0.121000
30.200000	1	0.120750
30.216667	1	0.121250
30.233333	1	0.121875
30.250000	1	0.122375
30.266667	1	0.123000
30.283333	1	0.124000
30.300000	1	0.124250
30.316667	1	0.125125
30.333333	1	0.126375
30.350000	1	0.127625
30.366667	1	0.128500
30.383333	1	0.129625
30.400000	1	0.130750
30.416667	1	0.133375
30.433333	1	0.135750
30.450000	1	0.138000
30.466667	1	0.140250
30.483333	1	0.142375
30.500000	1	0.145625
30.516667	1	0.149125
30.533333	1	0.153375
30.550000	1	0.157750
30.566667	1	0.162750
30.583333	1	0.168125
30.600000	1	0.173625
30.616667	1	0.179625
30.633333	1	0.186250
30.650000	1	0.193375
30.666667	1	0.201125
30.683333	1	0.208875
30.700000	1	0.218250
30.716667	1	0.227000
30.733333	1	0.236750
30.750000	1	0.247625
30.766667	1	0.259000
30.783333	1	0.271750
30.800000	1	0.285125
30.816667	1	0.299375
30.833333	1	0.315125
30.850000	1	0.331500
30.866667	1	0.348625
30.883333	1	0.368375
30.900000	1	0.388875
30.916667	1	0.411750
30.933333	1	0.437625
30.950000	1	0.464500
30.966667	1	0.495125
30.983333	1	0.528875
31.000000	1	0.566000
31.016667	1	0.607875
31.033333	1	0.653625
31.050000	1	0.704500
31.066667	1	0.760500
31.083333	1	0.822750
31.100000	1	0.891500
31.116667	1	0.966125
31.133333	1	1.047125
31.150000	1	1.135500
31.166667	1	1.231625
31.183333	1	1.335125
31.200000	1	1.446875
31.216667	1	1.565000
31.233333	1	1.691125
31.250000	1	1.823250
31.266667	1	1.960750
31.283333	1	2.103250
31.300000	1	2.250000
31.316667	1	2.399375
31.333333	1	2.550375
31.350000	1	2.701500
31.366667	1	2.850500
31.383333	1	2.997625
31.400000	1	3.139000
31.416667	1	3.273625
31.433333	1	3.400000
31.450000	1	3.516000
31.466667	1	3.620125
31.483333	1	3.711250
31.500000	1	3.787875
31.516667	1	3.849250
31.533333	1	3.893625
31.550000	1	3.921375
31.566667	1	3.931750
31.583333	1	3.924750
31.600000	1	3.901000
31.616667	1	3.859750
31.633333	1	3.802500
31.650000	1	3.730000
31.666667	1	3.643875
31.683333	1	3.544375
31.700000	1	3.434250
31.716667	1	3.314875
31.733333	1	3.187875
31.750000	1	3.054500
31.766667	1	2.915750
31.783333	1	2.773375
31.800000	1	2.629375
31.816667	1	2.484125
31.833333	1	2.339875
31.850000	1	2.197875
31.866667	1	2.059875
31.883333	1	1.925125
31.900000	1	1.795500
31.916667	1	1.671250
31.933333	1	1.553250
31.950000	1	1.440750
31.966667	1	1.335125
31.983333	1	1.235375
32.000000	1	1.143125
32.016667	1	1.057250
32.033333	1	0.977250
32.050000	1	0.902625
32.066667	1	0.834125
32.083333	1	0.770875
32.100000	1	0.713125
32.116667	1	0.659750
32.133333	1	0.610875
32.150000	1	0.567250
32.166667	1	0.526000
32.183333	1	0.488500
32.200000	1	0.454000
32.216667	1	0.422625
32.233333	1	0.393375
32.250000	1	0.366500
32.266667	1	0.341875
32.283333	1	0.319375
32.300000	1	0.299250
32.316667	1	0.280000
32.333333	1	0.261875
32.350000	1	0.245500
32.366667	1	0.230500
32.383333	1	0.215875
32.400000	1	0.202250
32.416667	1	0.189375
32.433333	1	0.177375
32.450000	1	0.165875
32.466667	1	0.155875
32.483333	1	0.145625
32.500000	1	0.136250
32.516667	1	0.128375
32.533333	1	0.120625
32.550000	1	0.113875
32.566667	1	0.107250
32.583333	1	0.101250
32.600000	1	0.096000
32.616667	1	0.090625
32.633333	1	0.086125
32.650000	1	0.081375
32.666667	1	0.077375
32.683333	1	0.072875
32.700000	1	0.069125
32.716667	1	0.066250
32.733333	1	0.063625
32.750000	1	0.060750
32.766667	1	0.058125
32.783333	1	0.054375
32.800000	1	0.051875
32.816667	1	0.049250
32.833333	1	0.047125
32.850000	1	0.044875
32.866667	1	0.041750
32.883333	1	0.038625
32.900000	1	0.036375
32.916667	1	0.034125
32.933333	1	0.032250
32.950000	1	0.029875
32.966667	1	0.028000
32.983333	1	0.025500
33.000000	1	0.023875
33.016667	1	0.021125
33.033333	1	0.019250
33.050000	1	0.017000
33.066667	1	0.014625
33.083333	1	0.012375
33.100000	1	0.010125
33.116667	1	0.008250
33.133333	1	0.006750
33.150000	1	0.005375
33.166667	1	0.004000
33.183333	1	0.003125
33.200000	1	0.002250
33.216667	1	0.001625
33.233333	1	0.001375
33.250000	1	0.000875
33.266667	1	0.000875
33.283333	1	0.001250
33.300000	1	0.002625
33.316667	1	0.004250
33.333333	1	0.006250
33.350000	1	0.007750
33.366667	1	0.009875
33.383333	1	0.013125
33.400000	1	0.017000
33.416667	1	0.021375
33.433333	1	0.026250
33.450000	1	0.032000
33.466667	1	0.037500
33.483333	1	0.044250
33.500000	1	0.052750
33.516667	1	0.061250
33.533333	1	0.070500
33.550000	1	0.081250
33.566667	1	0.092375
33.583333	1	0.105125
33.600000	1	0.118750
33.616667	1	0.133500
33.633333	1	0.148875
33.650000	1	0.165375
33.666667	1	0.182625
33.683333	1	0.202125
33.700000	1	0.220875
33.716667	1	0.241125
33.733333	1	0.262250
33.750000	1	0.284625
33.766667	1	0.306875
33.783333	1	0.329375
33.800000	1	0.352375
33.816667	1	0.375500
33.833333	1	0.398375
33.850000	1	0.421750
33.866667	1	0.443750
33.883333	1	0.465000
33.900000	1	0.485875
33.916667	1	0.505250
33.933333	1	0.524250
33.950000	1	0.541000
33.966667	1	0.556000
33.983333	1	0.569000
34.000000	1	0.580625
34.016667	1	0.589875
34.033333	1	0.597000
34.050000	1	0.601625
34.066667	1	0.604125
34.083333	1	0.603750
34.100000	1	0.601250
34.116667	1	0.597500
34.133333	1	0.591250
34.150000	1	0.582375
34.166667	1	0.572375
34.183333	1	0.561000
34.200000	1	0.547625
34.216667	1	0.533125
34.233333	1	0.517625
34.250000	1	0.500750
34.266667	1	0.483000
34.283333	1	0.464875
34.300000	1	0.446250
34.316667	1	0.427875
34.333333	1	0.409625
34.350000	1	0.392000
34.366667	1	0.374875
34.383333	1	0.357875
34.400000	1	0.342000
34.416667	1	0.326250
34.433333	1	0.311000
34.450000	1	0.297125
34.466667	1	0.284000
34.483333	1	0.272125
34.500000	1	0.261000
34.516667	1	0.250500
34.533333	1	0.241250
34.550000	1	0.232625
34.566667	1	0.225000
34.583333	1	0.218000
34.600000	1	0.211625
34.616667	1	0.205875
34.633333	1	0.200750
34.650000	1	0.197000
34.666667	1	0.193000
34.683333	1	0.189625
34.700000	1	0.186875
34.716667	1	0.184625
34.733333	1	0.182500
34.750000	1	0.179500
34.766667	1	0.177500
34.783333	1	0.175875
34.800000	1	0.174750
34.816667	1	0.172500
34.833333	1	0.171875
34.850000	1	0.170750
34.866667	1	0.169125
34.883333	1	0.168250
34.900000	1	0.167250
34.916667	1	0.166250
34.933333	1	0.165000
34.950000	1	0.163375
34.966667	1	0.162625
34.983333	1	0.161750
35.000000	1	0.160625
35.016667	1	0.159250
35.033333	1	0.158250
35.050000	1	0.157500
35.066667	1	0.156250
35.083333	1	0.155375
35.100000	1	0.153125
35.116667	1	0.151750
35.133333	1	0.150500
35.150000	1	0.149625
35.166667	1	0.149250
35.183333	1	0.148375
35.200000	1	0.148000
35.216667	1	0.147375
35.233333	1	0.146625
35.250000	1	0.146375
35.266667	1	0.145625
35.283333	1	0.145375
35.300000	1	0.144750
35.316667	1	0.145125
35.333333	1	0.145375
35.350000	1	0.145250
35.366667	1	0.144875
35.383333	1	0.143250
35.400000	1	0.143250
35.416667	1	0.144500
35.433333	1	0.145000
35.450000	1	0.145875
35.466667	1	0.146375
35.483333	1	0.147000
35.500000	1	0.147750
35.516667	1	0.148500
35.533333	1	0.149625
35.550000	1	0.150375
35.566667	1	0.150750
35.583333	1	0.151375
35.600000	1	0.151875
35.616667	1	0.152750
35.633333	1	0.152750
35.650000	1	0.153125
35.666667	1	0.153375
35.683333	1	0.152875
35.700000	1	0.152875
35.716667	1	0.152250
35.733333	1	0.151875
35.750000	1	0.150750
35.766667	1	0.149500
35.783333	1	0.148250
35.800000	1	0.146125
35.816667	1	0.144250
35.833333	1	0.142000
35.850000	1	0.140375
35.866667	1	0.137625
35.883333	1	0.135000
35.900000	1	0.132500
35.916667	1	0.130000
35.933333	1	0.127250
35.950000	1	0.125500
35.966667	1	0.123250
35.983333	1	0.120625
36.000000	1	0.118125
36.016667	1	0.115500
36.033333	1	0.113375
36.050000	1	0.110750
36.066667	1	0.109000
36.083333	1	0.107375
36.100000	1	0.106625
36.116667	1	0.104750
36.133333	1	0.104250
36.150000	1	0.103500
36.166667	1	0.103500
36.183333	1	0.104250
36.200000	1	0.104250
36.216667	1	0.104000
36.233333	1	0.104875
36.250000	1	0.105500
36.266667	1	0.106500
36.283333	1	0.106875
36.300000	1	0.107625
36.316667	1	0.108750
36.333333	1	0.109375
36.350000	1	0.110500
36.366667	1	0.112125
36.383333	1	0.112750
36.400000	1	0.113625
36.416667	1	0.114500
36.433333	1	0.115375
36.450000	1	0.116125
36.466667	1	0.116125
36.483333	1	0.116375
36.500000	1	0.116625
36.516667	1	0.116625
36.533333	1	0.116125
36.550000	1	0.115500
36.566667	1	0.114750
36.583333	1	0.113750
36.600000	1	0.113250
36.616667	1	0.111625
36.633333	1	0.109875
36.650000	1	0.107875
36.666667	1	0.106000
36.683333	1	0.103375
36.700000	1	0.101250
36.716667	1	0.099125
36.733333	1	0.096750
36.750000	1	0.094125
36.766667	1	0.091750
36.783333	1	0.089125
36.800000	1	0.086125
36.816667	1	0.083500
36.833333	1	0.080875
36.850000	1	0.078250
36.866667	1	0.075125
36.883333	1	0.072000
36.900000	1	0.069875
36.916667	1	0.067625
36.933333	1	0.064500
36.950000	1	0.061875
36.966667	1	0.060375
36.983333	1	0.058625
37.000000	1	0.056875
37.016667	1	0.055500
37.033333	1	0.053000
37.050000	1	0.051375
37.066667	1	0.050250
37.083333	1	0.048500
37.100000	1	0.048250
37.116667	1	0.047625
37.133333	1	0.046125
37.150000	1	0.045625
37.166667	1	0.045000
37.183333	1	0.044250
37.200000	1	0.043875
37.216667	1	0.043250
37.233333	1	0.042875
37.250000	1	0.042875
37.266667	1	0.042375
37.283333	1	0.042625
37.300000	1	0.042500
37.316667	1	0.042750
37.333333	1	0.041375
37.350000	1	0.040875
37.366667	1	0.040500
37.383333	1	0.040375
37.400000	1	0.039625
37.416667	1	0.038875
37.433333	1	0.038625
37.450000	1	0.038250
37.466667	1	0.038000
37.483333	1	0.037250
37.500000	1	0.036625
37.516667	1	0.036000
37.533333	1	0.035875
37.550000	1	0.034375
37.566667	1	0.034000
37.583333	1	0.033000
37.600000	1	0.031750
37.616667	1	0.031125
37.633333	1	0.030375
37.650000	1	0.029500
37.666667	1	0.028625
37.683333	1	0.028500
37.700000	1	0.028250
37.716667	1	0.027500
37.733333	1	0.027750
37.750000	1	0.027125
37.766667	1	0.026125
37.783333	1	0.026000
37.800000	1	0.026000
37.816667	1	0.026500
37.833333	1	0.026375
37.850000	1	0.026625
37.866667	1	0.026750
37.883333	1	0.026875
37.900000	1	0.027250
37.916667	1	0.027375
37.933333	1	0.028250
37.950000	1	0.030500
37.966667	1	0.031375
37.983333	1	0.032625
38.000000	1	0.033500
38.016667	1	0.035000
38.033333	1	0.036375
38.050000	1	0.036750
38.066667	1	0.037625
38.083333	1	0.039500
38.100000	1	0.041375
38.116667	1	0.043000
38.133333	1	0.044875
38.150000	1	0.046000
38.166667	1	0.048375
38.183333	1	0.049750
38.200000	1	0.050625
38.216667	1	0.051250
38.233333	1	0.052500
38.250000	1	0.053750
38.266667	1	0.055000
38.283333	1	0.055750
38.300000	1	0.057500
38.316667	1	0.058625
38.333333	1	0.059750
38.350000	1	0.060500
38.366667	1	0.061500
38.383333	1	0.061625
38.400000	1	0.062375
38.416667	1	0.062375
38.433333	1	0.063250
38.450000	1	0.063875
38.466667	1	0.064250
38.483333	1	0.064000
38.500000	1	0.064250
38.516667	1	0.065000
38.533333	1	0.065125
38.550000	1	0.064875
38.566667	1	0.064125
38.583333	1	0.064125
38.600000	1	0.064250
38.616667	1	0.064500
38.633333	1	0.064250
38.650000	1	0.064375
38.666667	1	0.063750
38.683333	1	0.063375
38.700000	1	0.063250
38.716667	1	0.063000
38.733333	1	0.062250
38.750000	1	0.061750
38.766667	1	0.061625
38.783333	1	0.061500
38.800000	1	0.061625
38.816667	1	0.061250
38.833333	1	0.061250
38.850000	1	0.060125
38.866667	1	0.059625
38.883333	1	0.058625
38.900000	1	0.058250
38.916667	1	0.057375
38.933333	1	0.057000
38.950000	1	0.055625
38.966667	1	0.055000
38.983333	1	0.054125
39.000000	1	0.052625
39.016667	1	0.051125
39.033333	1	0.049750
39.050000	1	0.048375
39.066667	1	0.046500
39.083333	1	0.045625
39.100000	1	0.044750
39.116667	1	0.042375
39.133333	1	0.040375
39.150000	1	0.039250
39.166667	1	0.037375
39.183333	1	0.036125
39.200000	1	0.034750
39.216667	1	0.032750
39.233333	1	0.031250
39.250000	1	0.029375
39.266667	1	0.027875
39.283333	1	0.026625
39.300000	1	0.025750
39.316667	1	0.025250
39.333333	1	0.023875
39.350000	1	0.022625
39.366667	1	0.022125
39.383333	1	0.021375
39.400000	1	0.020875
39.416667	1	0.020000
39.433333	1	0.019375
39.450000	1	0.018750
39.466667	1	0.018375
39.483333	1	0.018000
39.500000	1	0.018500
39.516667	1	0.017625
39.533333	1	0.017750
39.550000	1	0.017375
39.566667	1	0.017375
39.583333	1	0.017000
39.600000	1	0.017250
39.616667	1	0.017375
39.633333	1	0.017625
39.650000	1	0.017625
39.666667	1	0.017375
39.683333	1	0.018250
39.700000	1	0.017750
39.716667	1	0.017875
39.733333	1	0.017875
39.750000	1	0.017750
39.766667	1	0.018250
39.783333	1	0.017750
39.800000	1	0.018000
39.816667	1	0.018000
39.833333	1	0.018375
39.850000	1	0.018125
39.866667	1	0.018750
39.883333	1	0.018625
39.900000	1	0.019125
39.916667	1	0.019250
39.933333	1	0.018625
39.950000	1	0.018375
39.966667	1	0.018375
39.983333	1	0.018250
40.000000	1	0.017875
