URL	chrom://bioreactor/micro_cm7/HPLC_Ultimate_3000/Users/markusar/20240716_MA_pHrange2.seq/935.smp/RI_1.channel/RI_1.chm
Channel	RI_1

Injection Information:
Data Vault	micro_cm7
Sequence	20240716_MA_pHrange2
Name	Fp2_25H_3
Number	42
Position	BD6
Comment	
Processing Method	
Instrument Method	run_25B_method
Type	Unknown
Status	Finished
Inject Time	17.07.2024 22:06:13 +02:00
Volume (µl)	20.0000
Dilution Factor	1.0000
Weight	1.0000

Chromatogram Data Information:
Time Min. (min)	0.000000
Time Max. (min)	40.000000
Data Points	2401
Detector	RI
Generating Data System	Chromeleon 7.3.2.11814
Exporting Data System	Chromeleon 7.3.2.0
Operator	Instrument Controller
Signal Quantity	Refractive 
Signal Unit	µRIU
Signal Min.	-0.083000
Signal Max.	83.469875
Channel	RI_1
Driver Name	RID520Driver.dll
Channel Type	Evaluation
Min. Step (s)	1
Max. Step (s)	1
Average Step (s)	1

Signal Parameter Information:
Signal Info	

Chromatogram Data:
Time (min)	Step (s)	Value (µRIU)
0.000000	n.a.	0.003875
0.016667	1	0.004250
0.033333	1	0.004250
0.050000	1	0.003625
0.066667	1	0.003250
0.083333	1	0.003125
0.100000	1	0.002875
0.116667	1	0.001750
0.133333	1	0.001500
0.150000	1	0.001125
0.166667	1	0.000250
0.183333	1	-0.000375
0.200000	1	-0.002000
0.216667	1	-0.003875
0.233333	1	-0.005125
0.250000	1	-0.006625
0.266667	1	-0.008500
0.283333	1	-0.010125
0.300000	1	-0.012000
0.316667	1	-0.014125
0.333333	1	-0.016250
0.350000	1	-0.018625
0.366667	1	-0.021500
0.383333	1	-0.024625
0.400000	1	-0.027625
0.416667	1	-0.029500
0.433333	1	-0.030750
0.450000	1	-0.031750
0.466667	1	-0.032250
0.483333	1	-0.032500
0.500000	1	-0.033625
0.516667	1	-0.034625
0.533333	1	-0.035875
0.550000	1	-0.037625
0.566667	1	-0.040125
0.583333	1	-0.042875
0.600000	1	-0.044875
0.616667	1	-0.046625
0.633333	1	-0.048000
0.650000	1	-0.048625
0.666667	1	-0.048500
0.683333	1	-0.048125
0.700000	1	-0.047625
0.716667	1	-0.046875
0.733333	1	-0.045250
0.750000	1	-0.044125
0.766667	1	-0.042875
0.783333	1	-0.041250
0.800000	1	-0.040000
0.816667	1	-0.037125
0.833333	1	-0.035250
0.850000	1	-0.032750
0.866667	1	-0.030250
0.883333	1	-0.028250
0.900000	1	-0.025875
0.916667	1	-0.024625
0.933333	1	-0.022750
0.950000	1	-0.021750
0.966667	1	-0.020250
0.983333	1	-0.018625
1.000000	1	-0.017625
1.016667	1	-0.017000
1.033333	1	-0.015750
1.050000	1	-0.014000
1.066667	1	-0.013375
1.083333	1	-0.012625
1.100000	1	-0.012000
1.116667	1	-0.011875
1.133333	1	-0.012250
1.150000	1	-0.012000
1.166667	1	-0.012875
1.183333	1	-0.013125
1.200000	1	-0.012875
1.216667	1	-0.012750
1.233333	1	-0.012625
1.250000	1	-0.012500
1.266667	1	-0.012750
1.283333	1	-0.012250
1.300000	1	-0.012250
1.316667	1	-0.011875
1.333333	1	-0.012000
1.350000	1	-0.010875
1.366667	1	-0.010000
1.383333	1	-0.009750
1.400000	1	-0.008875
1.416667	1	-0.007500
1.433333	1	-0.005750
1.450000	1	-0.004250
1.466667	1	-0.002625
1.483333	1	-0.000750
1.500000	1	0.000750
1.516667	1	0.003000
1.533333	1	0.004500
1.550000	1	0.006125
1.566667	1	0.008750
1.583333	1	0.009750
1.600000	1	0.012125
1.616667	1	0.014125
1.633333	1	0.016125
1.650000	1	0.018375
1.666667	1	0.019750
1.683333	1	0.021750
1.700000	1	0.023250
1.716667	1	0.025000
1.733333	1	0.026250
1.750000	1	0.027125
1.766667	1	0.029125
1.783333	1	0.030250
1.800000	1	0.031375
1.816667	1	0.032375
1.833333	1	0.033625
1.850000	1	0.034500
1.866667	1	0.035125
1.883333	1	0.036000
1.900000	1	0.036500
1.916667	1	0.036375
1.933333	1	0.036375
1.950000	1	0.036375
1.966667	1	0.036875
1.983333	1	0.036500
2.000000	1	0.036875
2.016667	1	0.036500
2.033333	1	0.036375
2.050000	1	0.036125
2.066667	1	0.035250
2.083333	1	0.034500
2.100000	1	0.033500
2.116667	1	0.032625
2.133333	1	0.032250
2.150000	1	0.031125
2.166667	1	0.030500
2.183333	1	0.029000
2.200000	1	0.028000
2.216667	1	0.026625
2.233333	1	0.026125
2.250000	1	0.025250
2.266667	1	0.023500
2.283333	1	0.022375
2.300000	1	0.020500
2.316667	1	0.019250
2.333333	1	0.018375
2.350000	1	0.017500
2.366667	1	0.016250
2.383333	1	0.015375
2.400000	1	0.014000
2.416667	1	0.012875
2.433333	1	0.012125
2.450000	1	0.011625
2.466667	1	0.010625
2.483333	1	0.009625
2.500000	1	0.008875
2.516667	1	0.007875
2.533333	1	0.007750
2.550000	1	0.007250
2.566667	1	0.006375
2.583333	1	0.006125
2.600000	1	0.005500
2.616667	1	0.005875
2.633333	1	0.005000
2.650000	1	0.004875
2.666667	1	0.005250
2.683333	1	0.005875
2.700000	1	0.006000
2.716667	1	0.006000
2.733333	1	0.006625
2.750000	1	0.007250
2.766667	1	0.007375
2.783333	1	0.007500
2.800000	1	0.008500
2.816667	1	0.009500
2.833333	1	0.010125
2.850000	1	0.010875
2.866667	1	0.011250
2.883333	1	0.012000
2.900000	1	0.013000
2.916667	1	0.014500
2.933333	1	0.016250
2.950000	1	0.017875
2.966667	1	0.019000
2.983333	1	0.019875
3.000000	1	0.021125
3.016667	1	0.022000
3.033333	1	0.022500
3.050000	1	0.024125
3.066667	1	0.025375
3.083333	1	0.026750
3.100000	1	0.028000
3.116667	1	0.028875
3.133333	1	0.029750
3.150000	1	0.030750
3.166667	1	0.031875
3.183333	1	0.032500
3.200000	1	0.033750
3.216667	1	0.034750
3.233333	1	0.035125
3.250000	1	0.035625
3.266667	1	0.035875
3.283333	1	0.036250
3.300000	1	0.036875
3.316667	1	0.037250
3.333333	1	0.037750
3.350000	1	0.038250
3.366667	1	0.038500
3.383333	1	0.038625
3.400000	1	0.038500
3.416667	1	0.038750
3.433333	1	0.038375
3.450000	1	0.039000
3.466667	1	0.039125
3.483333	1	0.038875
3.500000	1	0.038750
3.516667	1	0.038750
3.533333	1	0.038250
3.550000	1	0.037250
3.566667	1	0.036875
3.583333	1	0.036125
3.600000	1	0.035750
3.616667	1	0.035750
3.633333	1	0.035125
3.650000	1	0.034375
3.666667	1	0.033125
3.683333	1	0.032500
3.700000	1	0.031125
3.716667	1	0.030125
3.733333	1	0.029000
3.750000	1	0.027500
3.766667	1	0.026125
3.783333	1	0.025125
3.800000	1	0.024375
3.816667	1	0.023125
3.833333	1	0.022125
3.850000	1	0.021375
3.866667	1	0.020750
3.883333	1	0.019875
3.900000	1	0.018250
3.916667	1	0.017875
3.933333	1	0.017125
3.950000	1	0.016125
3.966667	1	0.015125
3.983333	1	0.015000
4.000000	1	0.015375
4.016667	1	0.015875
4.033333	1	0.015625
4.050000	1	0.015625
4.066667	1	0.016125
4.083333	1	0.017250
4.100000	1	0.018625
4.116667	1	0.019625
4.133333	1	0.021500
4.150000	1	0.023625
4.166667	1	0.026500
4.183333	1	0.029125
4.200000	1	0.031875
4.216667	1	0.034375
4.233333	1	0.038500
4.250000	1	0.041500
4.266667	1	0.045250
4.283333	1	0.048750
4.300000	1	0.051750
4.316667	1	0.056000
4.333333	1	0.059500
4.350000	1	0.063500
4.366667	1	0.067375
4.383333	1	0.071875
4.400000	1	0.075625
4.416667	1	0.079125
4.433333	1	0.083125
4.450000	1	0.087125
4.466667	1	0.090625
4.483333	1	0.095125
4.500000	1	0.098875
4.516667	1	0.102375
4.533333	1	0.106125
4.550000	1	0.110000
4.566667	1	0.113375
4.583333	1	0.117125
4.600000	1	0.121000
4.616667	1	0.125750
4.633333	1	0.129250
4.650000	1	0.132125
4.666667	1	0.135875
4.683333	1	0.139000
4.700000	1	0.142375
4.716667	1	0.146000
4.733333	1	0.148250
4.750000	1	0.151500
4.766667	1	0.155250
4.783333	1	0.159000
4.800000	1	0.162500
4.816667	1	0.165000
4.833333	1	0.167750
4.850000	1	0.170500
4.866667	1	0.173500
4.883333	1	0.176625
4.900000	1	0.179875
4.916667	1	0.182250
4.933333	1	0.184250
4.950000	1	0.186625
4.966667	1	0.189375
4.983333	1	0.191750
5.000000	1	0.193625
5.016667	1	0.195125
5.033333	1	0.197250
5.050000	1	0.198750
5.066667	1	0.199750
5.083333	1	0.200500
5.100000	1	0.201500
5.116667	1	0.202250
5.133333	1	0.202625
5.150000	1	0.202500
5.166667	1	0.202500
5.183333	1	0.202500
5.200000	1	0.202250
5.216667	1	0.201750
5.233333	1	0.200500
5.250000	1	0.199125
5.266667	1	0.197375
5.283333	1	0.195625
5.300000	1	0.194125
5.316667	1	0.191625
5.333333	1	0.190125
5.350000	1	0.188625
5.366667	1	0.186500
5.383333	1	0.184250
5.400000	1	0.181625
5.416667	1	0.179125
5.433333	1	0.176250
5.450000	1	0.173000
5.466667	1	0.170500
5.483333	1	0.168000
5.500000	1	0.165625
5.516667	1	0.162000
5.533333	1	0.159750
5.550000	1	0.157250
5.566667	1	0.155000
5.583333	1	0.152375
5.600000	1	0.150125
5.616667	1	0.147250
5.633333	1	0.144875
5.650000	1	0.142000
5.666667	1	0.139875
5.683333	1	0.137500
5.700000	1	0.135375
5.716667	1	0.132625
5.733333	1	0.130250
5.750000	1	0.127875
5.766667	1	0.125250
5.783333	1	0.122750
5.800000	1	0.120500
5.816667	1	0.118125
5.833333	1	0.115250
5.850000	1	0.112125
5.866667	1	0.109125
5.883333	1	0.106125
5.900000	1	0.102750
5.916667	1	0.100250
5.933333	1	0.096500
5.950000	1	0.093000
5.966667	1	0.089875
5.983333	1	0.087000
6.000000	1	0.083625
6.016667	1	0.080750
6.033333	1	0.077625
6.050000	1	0.074750
6.066667	1	0.070625
6.083333	1	0.067250
6.100000	1	0.063625
6.116667	1	0.060625
6.133333	1	0.058375
6.150000	1	0.055875
6.166667	1	0.052875
6.183333	1	0.051000
6.200000	1	0.048375
6.216667	1	0.045500
6.233333	1	0.043250
6.250000	1	0.041500
6.266667	1	0.040000
6.283333	1	0.038750
6.300000	1	0.037375
6.316667	1	0.035875
6.333333	1	0.035000
6.350000	1	0.035125
6.366667	1	0.034250
6.383333	1	0.033500
6.400000	1	0.033875
6.416667	1	0.033750
6.433333	1	0.033625
6.450000	1	0.034000
6.466667	1	0.034625
6.483333	1	0.035000
6.500000	1	0.035625
6.516667	1	0.036375
6.533333	1	0.038125
6.550000	1	0.039625
6.566667	1	0.040125
6.583333	1	0.041000
6.600000	1	0.042500
6.616667	1	0.044250
6.633333	1	0.046625
6.650000	1	0.048750
6.666667	1	0.051375
6.683333	1	0.053875
6.700000	1	0.055750
6.716667	1	0.058500
6.733333	1	0.061000
6.750000	1	0.063375
6.766667	1	0.065875
6.783333	1	0.068875
6.800000	1	0.072375
6.816667	1	0.074875
6.833333	1	0.077625
6.850000	1	0.080000
6.866667	1	0.082750
6.883333	1	0.085375
6.900000	1	0.087875
6.916667	1	0.089625
6.933333	1	0.091500
6.950000	1	0.093875
6.966667	1	0.095500
6.983333	1	0.096750
7.000000	1	0.098375
7.016667	1	0.099750
7.033333	1	0.100250
7.050000	1	0.100750
7.066667	1	0.101125
7.083333	1	0.099875
7.100000	1	0.099750
7.116667	1	0.099125
7.133333	1	0.098375
7.150000	1	0.096625
7.166667	1	0.095750
7.183333	1	0.094000
7.200000	1	0.091750
7.216667	1	0.089875
7.233333	1	0.087125
7.250000	1	0.084000
7.266667	1	0.081125
7.283333	1	0.078250
7.300000	1	0.074750
7.316667	1	0.071750
7.333333	1	0.069000
7.350000	1	0.065875
7.366667	1	0.062250
7.383333	1	0.058875
7.400000	1	0.055375
7.416667	1	0.052375
7.433333	1	0.048250
7.450000	1	0.044000
7.466667	1	0.039875
7.483333	1	0.035500
7.500000	1	0.031125
7.516667	1	0.027625
7.533333	1	0.023250
7.550000	1	0.019500
7.566667	1	0.015250
7.583333	1	0.010875
7.600000	1	0.006625
7.616667	1	0.002375
7.633333	1	-0.002000
7.650000	1	-0.005375
7.666667	1	-0.009500
7.683333	1	-0.012875
7.700000	1	-0.015875
7.716667	1	-0.018375
7.733333	1	-0.021750
7.750000	1	-0.024750
7.766667	1	-0.027375
7.783333	1	-0.029250
7.800000	1	-0.030625
7.816667	1	-0.032000
7.833333	1	-0.033750
7.850000	1	-0.034375
7.866667	1	-0.035000
7.883333	1	-0.035750
7.900000	1	-0.035750
7.916667	1	-0.035250
7.933333	1	-0.035000
7.950000	1	-0.034500
7.966667	1	-0.033875
7.983333	1	-0.032250
8.000000	1	-0.030625
8.016667	1	-0.029500
8.033333	1	-0.027875
8.050000	1	-0.025875
8.066667	1	-0.024125
8.083333	1	-0.021750
8.100000	1	-0.019500
8.116667	1	-0.017125
8.133333	1	-0.015000
8.150000	1	-0.012750
8.166667	1	-0.010250
8.183333	1	-0.008000
8.200000	1	-0.005375
8.216667	1	-0.002875
8.233333	1	-0.001000
8.250000	1	0.000375
8.266667	1	0.001750
8.283333	1	0.004125
8.300000	1	0.005750
8.316667	1	0.008000
8.333333	1	0.010250
8.350000	1	0.012125
8.366667	1	0.014125
8.383333	1	0.015750
8.400000	1	0.017875
8.416667	1	0.019250
8.433333	1	0.019500
8.450000	1	0.020750
8.466667	1	0.021875
8.483333	1	0.022875
8.500000	1	0.023875
8.516667	1	0.024750
8.533333	1	0.025000
8.550000	1	0.025125
8.566667	1	0.025375
8.583333	1	0.025750
8.600000	1	0.024875
8.616667	1	0.024875
8.633333	1	0.024125
8.650000	1	0.023125
8.666667	1	0.021750
8.683333	1	0.021250
8.700000	1	0.019375
8.716667	1	0.017625
8.733333	1	0.016375
8.750000	1	0.014875
8.766667	1	0.013375
8.783333	1	0.011000
8.800000	1	0.009125
8.816667	1	0.006750
8.833333	1	0.004375
8.850000	1	0.002125
8.866667	1	-0.000125
8.883333	1	-0.001750
8.900000	1	-0.004125
8.916667	1	-0.006000
8.933333	1	-0.008875
8.950000	1	-0.010375
8.966667	1	-0.011875
8.983333	1	-0.014375
9.000000	1	-0.016125
9.016667	1	-0.018375
9.033333	1	-0.020375
9.050000	1	-0.021875
9.066667	1	-0.023500
9.083333	1	-0.025500
9.100000	1	-0.026500
9.116667	1	-0.028000
9.133333	1	-0.029500
9.150000	1	-0.030750
9.166667	1	-0.031875
9.183333	1	-0.032750
9.200000	1	-0.034250
9.216667	1	-0.035125
9.233333	1	-0.035875
9.250000	1	-0.037000
9.266667	1	-0.037125
9.283333	1	-0.038125
9.300000	1	-0.039000
9.316667	1	-0.040250
9.333333	1	-0.041125
9.350000	1	-0.042250
9.366667	1	-0.043625
9.383333	1	-0.044750
9.400000	1	-0.045125
9.416667	1	-0.045375
9.433333	1	-0.046250
9.450000	1	-0.047000
9.466667	1	-0.047500
9.483333	1	-0.048625
9.500000	1	-0.049000
9.516667	1	-0.049250
9.533333	1	-0.049500
9.550000	1	-0.049750
9.566667	1	-0.050375
9.583333	1	-0.051750
9.600000	1	-0.052250
9.616667	1	-0.051875
9.633333	1	-0.053000
9.650000	1	-0.053750
9.666667	1	-0.053750
9.683333	1	-0.054125
9.700000	1	-0.054875
9.716667	1	-0.055125
9.733333	1	-0.055875
9.750000	1	-0.055375
9.766667	1	-0.055000
9.783333	1	-0.055250
9.800000	1	-0.055500
9.816667	1	-0.055375
9.833333	1	-0.055500
9.850000	1	-0.055750
9.866667	1	-0.054375
9.883333	1	-0.054625
9.900000	1	-0.055000
9.916667	1	-0.054875
9.933333	1	-0.054625
9.950000	1	-0.054125
9.966667	1	-0.053500
9.983333	1	-0.053250
10.000000	1	-0.052625
10.016667	1	-0.051625
10.033333	1	-0.051250
10.050000	1	-0.050375
10.066667	1	-0.049375
10.083333	1	-0.047500
10.100000	1	-0.045125
10.116667	1	-0.042625
10.133333	1	-0.039125
10.150000	1	-0.035250
10.166667	1	-0.030750
10.183333	1	-0.024875
10.200000	1	-0.018125
10.216667	1	-0.010250
10.233333	1	-0.001000
10.250000	1	0.009250
10.266667	1	0.021125
10.283333	1	0.035625
10.300000	1	0.051250
10.316667	1	0.068375
10.333333	1	0.086375
10.350000	1	0.103500
10.366667	1	0.117750
10.383333	1	0.126000
10.400000	1	0.124000
10.416667	1	0.106875
10.433333	1	0.074000
10.450000	1	0.026000
10.466667	1	-0.028000
10.483333	1	-0.073500
10.500000	1	-0.083000
10.516667	1	-0.018750
10.533333	1	0.164500
10.550000	1	0.522750
10.566667	1	1.115750
10.583333	1	2.000375
10.600000	1	3.232250
10.616667	1	4.858375
10.633333	1	6.912750
10.650000	1	9.418750
10.666667	1	12.393000
10.683333	1	15.838750
10.700000	1	19.750000
10.716667	1	24.108625
10.733333	1	28.886250
10.750000	1	34.043500
10.766667	1	39.528250
10.783333	1	45.283250
10.800000	1	51.235250
10.816667	1	57.283625
10.833333	1	63.282875
10.850000	1	69.032000
10.866667	1	74.237250
10.883333	1	78.486625
10.900000	1	81.252500
10.916667	1	81.973000
10.933333	1	80.200000
10.950000	1	75.797000
10.966667	1	69.065500
10.983333	1	60.707750
11.000000	1	51.629500
11.016667	1	42.692125
11.033333	1	34.532375
11.050000	1	27.482375
11.066667	1	21.637875
11.083333	1	16.940750
11.100000	1	13.253375
11.116667	1	10.408500
11.133333	1	8.243750
11.150000	1	6.611375
11.166667	1	5.386250
11.183333	1	4.467750
11.200000	1	3.777375
11.216667	1	3.255750
11.233333	1	2.858625
11.250000	1	2.552375
11.266667	1	2.313625
11.283333	1	2.124000
11.300000	1	1.970500
11.316667	1	1.843875
11.333333	1	1.737625
11.350000	1	1.645625
11.366667	1	1.565625
11.383333	1	1.495625
11.400000	1	1.432750
11.416667	1	1.376375
11.433333	1	1.325750
11.450000	1	1.281000
11.466667	1	1.241750
11.483333	1	1.207375
11.500000	1	1.177625
11.516667	1	1.153375
11.533333	1	1.133625
11.550000	1	1.118750
11.566667	1	1.107750
11.583333	1	1.101500
11.600000	1	1.099625
11.616667	1	1.102000
11.633333	1	1.109375
11.650000	1	1.120750
11.666667	1	1.136375
11.683333	1	1.156625
11.700000	1	1.179375
11.716667	1	1.203875
11.733333	1	1.230375
11.750000	1	1.256875
11.766667	1	1.281500
11.783333	1	1.302875
11.800000	1	1.320125
11.816667	1	1.332250
11.833333	1	1.338750
11.850000	1	1.339875
11.866667	1	1.334625
11.883333	1	1.324250
11.900000	1	1.309125
11.916667	1	1.291250
11.933333	1	1.270250
11.950000	1	1.247875
11.966667	1	1.225000
11.983333	1	1.203250
12.000000	1	1.181375
12.016667	1	1.161875
12.033333	1	1.144000
12.050000	1	1.127750
12.066667	1	1.113250
12.083333	1	1.101625
12.100000	1	1.091625
12.116667	1	1.083250
12.133333	1	1.076250
12.150000	1	1.070750
12.166667	1	1.066000
12.183333	1	1.063000
12.200000	1	1.062125
12.216667	1	1.062250
12.233333	1	1.064500
12.250000	1	1.069125
12.266667	1	1.077250
12.283333	1	1.090000
12.300000	1	1.110375
12.316667	1	1.141125
12.333333	1	1.185500
12.350000	1	1.250875
12.366667	1	1.345500
12.383333	1	1.479875
12.400000	1	1.669375
12.416667	1	1.932875
12.433333	1	2.295750
12.450000	1	2.789125
12.466667	1	3.452500
12.483333	1	4.332875
12.500000	1	5.485500
12.516667	1	6.972500
12.533333	1	8.859250
12.550000	1	11.214500
12.566667	1	14.102500
12.583333	1	17.577250
12.600000	1	21.670500
12.616667	1	26.382750
12.633333	1	31.686625
12.650000	1	37.510750
12.666667	1	43.734375
12.683333	1	50.179125
12.700000	1	56.622125
12.716667	1	62.800250
12.733333	1	68.437625
12.750000	1	73.269250
12.766667	1	77.058500
12.783333	1	79.623500
12.800000	1	80.858500
12.816667	1	80.741125
12.833333	1	79.331000
12.850000	1	76.764250
12.866667	1	73.244375
12.883333	1	69.019375
12.900000	1	64.357500
12.916667	1	59.517750
12.933333	1	54.735500
12.950000	1	50.203875
12.966667	1	46.064500
12.983333	1	42.411375
13.000000	1	39.293375
13.016667	1	36.718500
13.033333	1	34.665625
13.050000	1	33.096000
13.066667	1	31.960875
13.083333	1	31.206250
13.100000	1	30.779250
13.116667	1	30.629125
13.133333	1	30.709250
13.150000	1	30.980125
13.166667	1	31.409500
13.183333	1	31.967250
13.200000	1	32.630125
13.216667	1	33.380250
13.233333	1	34.203750
13.250000	1	35.089375
13.266667	1	36.029875
13.283333	1	37.017250
13.300000	1	38.047375
13.316667	1	39.115250
13.333333	1	40.217000
13.350000	1	41.351000
13.366667	1	42.517250
13.383333	1	43.713000
13.400000	1	44.936375
13.416667	1	46.188625
13.433333	1	47.470750
13.450000	1	48.783625
13.466667	1	50.126125
13.483333	1	51.499625
13.500000	1	52.903500
13.516667	1	54.336625
13.533333	1	55.800125
13.550000	1	57.295000
13.566667	1	58.820750
13.583333	1	60.377875
13.600000	1	61.965375
13.616667	1	63.586125
13.633333	1	65.240625
13.650000	1	66.932125
13.666667	1	68.659625
13.683333	1	70.424250
13.700000	1	72.225625
13.716667	1	74.064000
13.733333	1	75.937125
13.750000	1	77.830375
13.766667	1	79.689000
13.783333	1	81.387125
13.800000	1	82.723625
13.816667	1	83.469875
13.833333	1	83.443625
13.850000	1	82.531125
13.866667	1	80.651500
13.883333	1	77.673375
13.900000	1	73.394250
13.916667	1	67.622000
13.933333	1	60.364500
13.950000	1	51.996375
13.966667	1	43.252000
13.983333	1	34.965875
14.000000	1	27.750000
14.016667	1	21.855375
14.033333	1	17.237375
14.050000	1	13.705125
14.066667	1	11.037750
14.083333	1	9.043875
14.100000	1	7.565000
14.116667	1	6.475000
14.133333	1	5.673250
14.150000	1	5.081250
14.166667	1	4.639500
14.183333	1	4.304750
14.200000	1	4.045750
14.216667	1	3.841250
14.233333	1	3.675750
14.250000	1	3.537750
14.266667	1	3.420875
14.283333	1	3.320250
14.300000	1	3.231750
14.316667	1	3.152250
14.333333	1	3.080875
14.350000	1	3.015250
14.366667	1	2.955500
14.383333	1	2.900375
14.400000	1	2.849125
14.416667	1	2.801750
14.433333	1	2.757875
14.450000	1	2.717625
14.466667	1	2.679875
14.483333	1	2.644875
14.500000	1	2.612250
14.516667	1	2.581625
14.533333	1	2.553250
14.550000	1	2.525875
14.566667	1	2.499500
14.583333	1	2.473625
14.600000	1	2.448500
14.616667	1	2.423000
14.633333	1	2.398500
14.650000	1	2.373000
14.666667	1	2.346625
14.683333	1	2.320500
14.700000	1	2.293125
14.716667	1	2.265500
14.733333	1	2.237625
14.750000	1	2.209250
14.766667	1	2.180875
14.783333	1	2.151250
14.800000	1	2.122250
14.816667	1	2.092750
14.833333	1	2.064625
14.850000	1	2.036500
14.866667	1	2.008250
14.883333	1	1.980875
14.900000	1	1.953250
14.916667	1	1.926750
14.933333	1	1.899625
14.950000	1	1.872750
14.966667	1	1.846750
14.983333	1	1.821000
15.000000	1	1.795750
15.016667	1	1.770625
15.033333	1	1.747125
15.050000	1	1.723875
15.066667	1	1.701000
15.083333	1	1.678875
15.100000	1	1.657625
15.116667	1	1.637250
15.133333	1	1.617250
15.150000	1	1.598125
15.166667	1	1.580000
15.183333	1	1.563375
15.200000	1	1.548625
15.216667	1	1.534000
15.233333	1	1.521750
15.250000	1	1.510000
15.266667	1	1.500250
15.283333	1	1.492500
15.300000	1	1.486875
15.316667	1	1.484250
15.333333	1	1.484000
15.350000	1	1.486750
15.366667	1	1.493000
15.383333	1	1.503625
15.400000	1	1.517625
15.416667	1	1.536500
15.433333	1	1.558500
15.450000	1	1.583750
15.466667	1	1.611375
15.483333	1	1.641375
15.500000	1	1.671125
15.516667	1	1.699625
15.533333	1	1.725750
15.550000	1	1.748750
15.566667	1	1.765125
15.583333	1	1.774625
15.600000	1	1.777125
15.616667	1	1.770625
15.633333	1	1.757125
15.650000	1	1.736125
15.666667	1	1.708875
15.683333	1	1.676125
15.700000	1	1.639250
15.716667	1	1.600875
15.733333	1	1.561250
15.750000	1	1.522000
15.766667	1	1.484000
15.783333	1	1.446375
15.800000	1	1.410750
15.816667	1	1.377125
15.833333	1	1.344875
15.850000	1	1.314375
15.866667	1	1.285500
15.883333	1	1.257250
15.900000	1	1.230125
15.916667	1	1.204750
15.933333	1	1.180875
15.950000	1	1.157875
15.966667	1	1.137250
15.983333	1	1.118500
16.000000	1	1.101750
16.016667	1	1.087125
16.033333	1	1.074375
16.050000	1	1.063500
16.066667	1	1.055375
16.083333	1	1.048875
16.100000	1	1.044500
16.116667	1	1.042000
16.133333	1	1.040875
16.150000	1	1.040750
16.166667	1	1.041750
16.183333	1	1.043125
16.200000	1	1.044625
16.216667	1	1.046250
16.233333	1	1.048375
16.250000	1	1.050125
16.266667	1	1.050500
16.283333	1	1.050750
16.300000	1	1.050375
16.316667	1	1.049500
16.333333	1	1.047500
16.350000	1	1.045625
16.366667	1	1.043250
16.383333	1	1.039750
16.400000	1	1.036750
16.416667	1	1.033500
16.433333	1	1.030375
16.450000	1	1.026750
16.466667	1	1.023625
16.483333	1	1.022000
16.500000	1	1.021625
16.516667	1	1.021125
16.533333	1	1.022750
16.550000	1	1.025875
16.566667	1	1.030500
16.583333	1	1.036000
16.600000	1	1.042875
16.616667	1	1.049750
16.633333	1	1.058125
16.650000	1	1.065750
16.666667	1	1.074000
16.683333	1	1.081000
16.700000	1	1.086625
16.716667	1	1.092125
16.733333	1	1.095875
16.750000	1	1.098375
16.766667	1	1.100375
16.783333	1	1.102250
16.800000	1	1.103250
16.816667	1	1.103750
16.833333	1	1.103250
16.850000	1	1.104000
16.866667	1	1.104875
16.883333	1	1.105625
16.900000	1	1.106625
16.916667	1	1.107750
16.933333	1	1.108875
16.950000	1	1.108875
16.966667	1	1.108500
16.983333	1	1.108250
17.000000	1	1.107000
17.016667	1	1.105125
17.033333	1	1.102375
17.050000	1	1.098375
17.066667	1	1.094500
17.083333	1	1.090500
17.100000	1	1.086750
17.116667	1	1.083250
17.133333	1	1.079625
17.150000	1	1.076500
17.166667	1	1.074250
17.183333	1	1.072875
17.200000	1	1.072500
17.216667	1	1.072375
17.233333	1	1.073750
17.250000	1	1.076125
17.266667	1	1.079375
17.283333	1	1.083250
17.300000	1	1.087750
17.316667	1	1.093000
17.333333	1	1.098875
17.350000	1	1.104750
17.366667	1	1.111250
17.383333	1	1.116875
17.400000	1	1.122250
17.416667	1	1.126500
17.433333	1	1.130750
17.450000	1	1.134000
17.466667	1	1.135750
17.483333	1	1.136000
17.500000	1	1.135125
17.516667	1	1.132250
17.533333	1	1.126375
17.550000	1	1.119125
17.566667	1	1.110625
17.583333	1	1.100625
17.600000	1	1.088500
17.616667	1	1.075500
17.633333	1	1.061000
17.650000	1	1.045625
17.666667	1	1.029250
17.683333	1	1.012000
17.700000	1	0.994875
17.716667	1	0.978500
17.733333	1	0.961500
17.750000	1	0.945375
17.766667	1	0.930375
17.783333	1	0.916000
17.800000	1	0.902500
17.816667	1	0.890125
17.833333	1	0.877250
17.850000	1	0.866125
17.866667	1	0.855375
17.883333	1	0.845625
17.900000	1	0.837000
17.916667	1	0.828250
17.933333	1	0.820125
17.950000	1	0.813250
17.966667	1	0.806500
17.983333	1	0.800375
18.000000	1	0.794875
18.016667	1	0.789750
18.033333	1	0.784500
18.050000	1	0.779375
18.066667	1	0.774750
18.083333	1	0.770250
18.100000	1	0.766125
18.116667	1	0.761375
18.133333	1	0.757500
18.150000	1	0.753000
18.166667	1	0.748750
18.183333	1	0.744375
18.200000	1	0.740375
18.216667	1	0.737375
18.233333	1	0.734750
18.250000	1	0.732375
18.266667	1	0.730625
18.283333	1	0.729250
18.300000	1	0.729000
18.316667	1	0.729125
18.333333	1	0.729625
18.350000	1	0.730625
18.366667	1	0.731875
18.383333	1	0.733875
18.400000	1	0.736250
18.416667	1	0.740000
18.433333	1	0.743875
18.450000	1	0.748500
18.466667	1	0.753875
18.483333	1	0.760000
18.500000	1	0.767125
18.516667	1	0.776250
18.533333	1	0.786875
18.550000	1	0.798875
18.566667	1	0.813125
18.583333	1	0.828500
18.600000	1	0.846000
18.616667	1	0.865125
18.633333	1	0.886875
18.650000	1	0.910500
18.666667	1	0.935375
18.683333	1	0.961875
18.700000	1	0.991375
18.716667	1	1.021625
18.733333	1	1.054125
18.750000	1	1.087000
18.766667	1	1.120250
18.783333	1	1.154500
18.800000	1	1.188125
18.816667	1	1.221375
18.833333	1	1.254000
18.850000	1	1.284625
18.866667	1	1.312875
18.883333	1	1.337250
18.900000	1	1.358875
18.916667	1	1.376125
18.933333	1	1.387750
18.950000	1	1.395250
18.966667	1	1.395750
18.983333	1	1.389875
19.000000	1	1.377250
19.016667	1	1.358375
19.033333	1	1.333125
19.050000	1	1.301625
19.066667	1	1.265375
19.083333	1	1.224625
19.100000	1	1.179250
19.116667	1	1.131625
19.133333	1	1.081125
19.150000	1	1.029750
19.166667	1	0.978250
19.183333	1	0.928375
19.200000	1	0.881125
19.216667	1	0.836000
19.233333	1	0.794250
19.250000	1	0.756250
19.266667	1	0.722500
19.283333	1	0.694000
19.300000	1	0.670750
19.316667	1	0.652875
19.333333	1	0.639875
19.350000	1	0.632125
19.366667	1	0.629500
19.383333	1	0.631500
19.400000	1	0.638250
19.416667	1	0.649750
19.433333	1	0.666000
19.450000	1	0.685750
19.466667	1	0.708500
19.483333	1	0.735125
19.500000	1	0.763750
19.516667	1	0.794875
19.533333	1	0.827500
19.550000	1	0.860250
19.566667	1	0.892375
19.583333	1	0.923750
19.600000	1	0.952875
19.616667	1	0.978750
19.633333	1	1.000375
19.650000	1	1.017750
19.666667	1	1.029750
19.683333	1	1.037000
19.700000	1	1.038625
19.716667	1	1.033750
19.733333	1	1.023500
19.750000	1	1.008500
19.766667	1	0.988250
19.783333	1	0.963875
19.800000	1	0.936250
19.816667	1	0.905375
19.833333	1	0.872750
19.850000	1	0.839125
19.866667	1	0.805500
19.883333	1	0.771125
19.900000	1	0.737125
19.916667	1	0.705375
19.933333	1	0.674875
19.950000	1	0.646500
19.966667	1	0.619750
19.983333	1	0.595375
20.000000	1	0.573375
20.016667	1	0.554875
20.033333	1	0.538375
20.050000	1	0.524625
20.066667	1	0.513375
20.083333	1	0.504750
20.100000	1	0.498500
20.116667	1	0.495500
20.133333	1	0.494875
20.150000	1	0.496750
20.166667	1	0.500875
20.183333	1	0.507500
20.200000	1	0.516125
20.216667	1	0.525875
20.233333	1	0.538125
20.250000	1	0.552000
20.266667	1	0.566500
20.283333	1	0.581250
20.300000	1	0.595750
20.316667	1	0.610500
20.333333	1	0.624625
20.350000	1	0.637500
20.366667	1	0.648500
20.383333	1	0.657125
20.400000	1	0.664500
20.416667	1	0.669375
20.433333	1	0.672625
20.450000	1	0.674250
20.466667	1	0.674000
20.483333	1	0.672875
20.500000	1	0.671500
20.516667	1	0.671250
20.533333	1	0.672500
20.550000	1	0.675375
20.566667	1	0.681875
20.583333	1	0.693000
20.600000	1	0.708750
20.616667	1	0.730125
20.633333	1	0.757125
20.650000	1	0.791875
20.666667	1	0.833000
20.683333	1	0.880875
20.700000	1	0.936125
20.716667	1	0.996625
20.733333	1	1.062000
20.750000	1	1.131000
20.766667	1	1.203375
20.783333	1	1.276500
20.800000	1	1.348625
20.816667	1	1.417375
20.833333	1	1.481125
20.850000	1	1.537250
20.866667	1	1.584125
20.883333	1	1.619625
20.900000	1	1.643000
20.916667	1	1.653000
20.933333	1	1.649625
20.950000	1	1.632750
20.966667	1	1.602375
20.983333	1	1.560000
21.000000	1	1.506750
21.016667	1	1.445000
21.033333	1	1.376250
21.050000	1	1.302875
21.066667	1	1.227250
21.083333	1	1.150750
21.100000	1	1.075250
21.116667	1	1.001750
21.133333	1	0.931250
21.150000	1	0.865625
21.166667	1	0.804375
21.183333	1	0.748750
21.200000	1	0.698000
21.216667	1	0.653375
21.233333	1	0.613000
21.250000	1	0.578625
21.266667	1	0.547750
21.283333	1	0.521625
21.300000	1	0.498625
21.316667	1	0.479250
21.333333	1	0.462250
21.350000	1	0.448000
21.366667	1	0.435875
21.383333	1	0.426000
21.400000	1	0.416625
21.416667	1	0.408250
21.433333	1	0.401875
21.450000	1	0.396875
21.466667	1	0.392500
21.483333	1	0.389125
21.500000	1	0.385750
21.516667	1	0.383500
21.533333	1	0.382625
21.550000	1	0.382125
21.566667	1	0.383250
21.583333	1	0.385000
21.600000	1	0.388125
21.616667	1	0.392500
21.633333	1	0.397750
21.650000	1	0.404375
21.666667	1	0.412750
21.683333	1	0.423500
21.700000	1	0.435750
21.716667	1	0.449000
21.733333	1	0.464625
21.750000	1	0.482125
21.766667	1	0.501625
21.783333	1	0.521750
21.800000	1	0.545125
21.816667	1	0.569250
21.833333	1	0.594625
21.850000	1	0.622250
21.866667	1	0.650625
21.883333	1	0.679875
21.900000	1	0.709500
21.916667	1	0.739125
21.933333	1	0.768375
21.950000	1	0.797125
21.966667	1	0.824875
21.983333	1	0.850375
22.000000	1	0.873625
22.016667	1	0.893375
22.033333	1	0.910750
22.050000	1	0.923875
22.066667	1	0.933125
22.083333	1	0.938625
22.100000	1	0.940250
22.116667	1	0.936500
22.133333	1	0.928875
22.150000	1	0.917250
22.166667	1	0.901750
22.183333	1	0.883000
22.200000	1	0.861000
22.216667	1	0.836375
22.233333	1	0.809875
22.250000	1	0.781375
22.266667	1	0.752000
22.283333	1	0.722125
22.300000	1	0.691500
22.316667	1	0.661000
22.333333	1	0.631000
22.350000	1	0.600625
22.366667	1	0.571375
22.383333	1	0.542875
22.400000	1	0.516125
22.416667	1	0.490125
22.433333	1	0.465250
22.450000	1	0.442625
22.466667	1	0.421125
22.483333	1	0.401250
22.500000	1	0.382000
22.516667	1	0.364500
22.533333	1	0.348875
22.550000	1	0.334750
22.566667	1	0.321750
22.583333	1	0.309250
22.600000	1	0.297875
22.616667	1	0.288125
22.633333	1	0.279500
22.650000	1	0.271875
22.666667	1	0.264375
22.683333	1	0.258000
22.700000	1	0.252625
22.716667	1	0.247500
22.733333	1	0.242250
22.750000	1	0.237625
22.766667	1	0.233750
22.783333	1	0.230125
22.800000	1	0.226125
22.816667	1	0.223250
22.833333	1	0.220500
22.850000	1	0.218500
22.866667	1	0.217000
22.883333	1	0.215375
22.900000	1	0.213750
22.916667	1	0.212500
22.933333	1	0.212125
22.950000	1	0.212125
22.966667	1	0.212500
22.983333	1	0.213125
23.000000	1	0.213875
23.016667	1	0.214625
23.033333	1	0.215625
23.050000	1	0.217625
23.066667	1	0.219625
23.083333	1	0.221875
23.100000	1	0.224500
23.116667	1	0.226875
23.133333	1	0.229750
23.150000	1	0.232375
23.166667	1	0.235875
23.183333	1	0.239000
23.200000	1	0.243500
23.216667	1	0.247000
23.233333	1	0.251250
23.250000	1	0.256125
23.266667	1	0.262125
23.283333	1	0.268625
23.300000	1	0.276875
23.316667	1	0.287000
23.333333	1	0.299125
23.350000	1	0.313375
23.366667	1	0.330875
23.383333	1	0.351875
23.400000	1	0.376875
23.416667	1	0.407625
23.433333	1	0.444000
23.450000	1	0.486875
23.466667	1	0.536750
23.483333	1	0.595750
23.500000	1	0.663250
23.516667	1	0.741125
23.533333	1	0.829000
23.550000	1	0.928500
23.566667	1	1.039500
23.583333	1	1.162375
23.600000	1	1.298250
23.616667	1	1.448375
23.633333	1	1.610125
23.650000	1	1.784500
23.666667	1	1.971625
23.683333	1	2.168625
23.700000	1	2.375750
23.716667	1	2.589625
23.733333	1	2.809000
23.750000	1	3.029875
23.766667	1	3.249125
23.783333	1	3.463500
23.800000	1	3.669625
23.816667	1	3.862125
23.833333	1	4.037750
23.850000	1	4.192750
23.866667	1	4.322750
23.883333	1	4.425750
23.900000	1	4.498125
23.916667	1	4.538500
23.933333	1	4.545875
23.950000	1	4.519750
23.966667	1	4.460500
23.983333	1	4.369875
24.000000	1	4.251375
24.016667	1	4.108000
24.033333	1	3.942375
24.050000	1	3.758625
24.066667	1	3.561250
24.083333	1	3.353000
24.100000	1	3.139375
24.116667	1	2.922875
24.133333	1	2.707375
24.150000	1	2.496625
24.166667	1	2.292500
24.183333	1	2.097000
24.200000	1	1.912625
24.216667	1	1.739000
24.233333	1	1.578875
24.250000	1	1.432500
24.266667	1	1.297375
24.283333	1	1.175250
24.300000	1	1.065125
24.316667	1	0.966000
24.333333	1	0.879000
24.350000	1	0.801500
24.366667	1	0.733250
24.383333	1	0.673500
24.400000	1	0.622125
24.416667	1	0.577375
24.433333	1	0.539000
24.450000	1	0.506875
24.466667	1	0.478875
24.483333	1	0.455500
24.500000	1	0.435625
24.516667	1	0.419125
24.533333	1	0.404625
24.550000	1	0.392750
24.566667	1	0.382500
24.583333	1	0.373125
24.600000	1	0.365000
24.616667	1	0.357875
24.633333	1	0.351750
24.650000	1	0.346000
24.666667	1	0.340250
24.683333	1	0.334500
24.700000	1	0.328625
24.716667	1	0.322875
24.733333	1	0.317375
24.750000	1	0.312375
24.766667	1	0.306125
24.783333	1	0.300000
24.800000	1	0.294000
24.816667	1	0.288375
24.833333	1	0.283500
24.850000	1	0.278500
24.866667	1	0.274000
24.883333	1	0.269000
24.900000	1	0.264375
24.916667	1	0.259625
24.933333	1	0.254750
24.950000	1	0.250500
24.966667	1	0.247000
24.983333	1	0.243125
25.000000	1	0.239875
25.016667	1	0.236125
25.033333	1	0.233125
25.050000	1	0.230500
25.066667	1	0.227375
25.083333	1	0.223750
25.100000	1	0.220375
25.116667	1	0.218000
25.133333	1	0.215500
25.150000	1	0.213125
25.166667	1	0.210000
25.183333	1	0.207250
25.200000	1	0.204250
25.216667	1	0.201500
25.233333	1	0.198500
25.250000	1	0.196125
25.266667	1	0.193750
25.283333	1	0.191375
25.300000	1	0.188875
25.316667	1	0.186625
25.333333	1	0.184500
25.350000	1	0.182125
25.366667	1	0.180000
25.383333	1	0.178250
25.400000	1	0.176875
25.416667	1	0.175375
25.433333	1	0.174000
25.450000	1	0.172875
25.466667	1	0.172375
25.483333	1	0.172250
25.500000	1	0.171750
25.516667	1	0.171875
25.533333	1	0.172375
25.550000	1	0.173125
25.566667	1	0.173500
25.583333	1	0.174375
25.600000	1	0.175125
25.616667	1	0.176000
25.633333	1	0.176750
25.650000	1	0.177625
25.666667	1	0.178625
25.683333	1	0.180375
25.700000	1	0.182250
25.716667	1	0.184375
25.733333	1	0.186000
25.750000	1	0.188000
25.766667	1	0.190125
25.783333	1	0.192875
25.800000	1	0.195125
25.816667	1	0.197625
25.833333	1	0.200250
25.850000	1	0.203125
25.866667	1	0.206500
25.883333	1	0.210625
25.900000	1	0.214125
25.916667	1	0.217625
25.933333	1	0.221875
25.950000	1	0.226875
25.966667	1	0.231750
25.983333	1	0.236500
26.000000	1	0.241625
26.016667	1	0.247125
26.033333	1	0.252875
26.050000	1	0.258125
26.066667	1	0.263625
26.083333	1	0.268500
26.100000	1	0.273125
26.116667	1	0.278125
26.133333	1	0.282875
26.150000	1	0.286375
26.166667	1	0.289875
26.183333	1	0.293750
26.200000	1	0.296625
26.216667	1	0.299750
26.233333	1	0.300875
26.250000	1	0.301625
26.266667	1	0.302625
26.283333	1	0.302125
26.300000	1	0.301875
26.316667	1	0.300500
26.333333	1	0.298375
26.350000	1	0.296250
26.366667	1	0.293125
26.383333	1	0.288375
26.400000	1	0.283750
26.416667	1	0.279125
26.433333	1	0.273500
26.450000	1	0.268125
26.466667	1	0.262500
26.483333	1	0.256250
26.500000	1	0.249875
26.516667	1	0.243500
26.533333	1	0.237000
26.550000	1	0.230125
26.566667	1	0.222625
26.583333	1	0.216000
26.600000	1	0.209375
26.616667	1	0.203250
26.633333	1	0.196750
26.650000	1	0.191125
26.666667	1	0.185875
26.683333	1	0.180750
26.700000	1	0.175625
26.716667	1	0.170750
26.733333	1	0.166875
26.750000	1	0.163250
26.766667	1	0.159625
26.783333	1	0.155750
26.800000	1	0.152625
26.816667	1	0.149625
26.833333	1	0.147750
26.850000	1	0.146875
26.866667	1	0.145375
26.883333	1	0.144125
26.900000	1	0.143000
26.916667	1	0.143000
26.933333	1	0.143375
26.950000	1	0.143750
26.966667	1	0.144625
26.983333	1	0.145625
27.000000	1	0.147750
27.016667	1	0.150000
27.033333	1	0.152375
27.050000	1	0.156625
27.066667	1	0.162250
27.083333	1	0.168250
27.100000	1	0.174875
27.116667	1	0.182875
27.133333	1	0.191375
27.150000	1	0.201875
27.166667	1	0.214125
27.183333	1	0.228250
27.200000	1	0.244375
27.216667	1	0.262750
27.233333	1	0.283500
27.250000	1	0.307875
27.266667	1	0.335375
27.283333	1	0.367375
27.300000	1	0.402375
27.316667	1	0.442500
27.333333	1	0.487250
27.350000	1	0.537125
27.366667	1	0.591750
27.383333	1	0.653750
27.400000	1	0.721250
27.416667	1	0.795750
27.433333	1	0.878125
27.450000	1	0.967500
27.466667	1	1.064250
27.483333	1	1.170250
27.500000	1	1.284125
27.516667	1	1.405250
27.533333	1	1.534750
27.550000	1	1.670750
27.566667	1	1.814250
27.583333	1	1.963750
27.600000	1	2.118500
27.616667	1	2.278625
27.633333	1	2.442250
27.650000	1	2.607500
27.666667	1	2.773625
27.683333	1	2.937875
27.700000	1	3.098875
27.716667	1	3.254250
27.733333	1	3.401250
27.750000	1	3.538500
27.766667	1	3.662375
27.783333	1	3.772625
27.800000	1	3.866875
27.816667	1	3.943250
27.833333	1	3.999125
27.850000	1	4.034000
27.866667	1	4.046250
27.883333	1	4.036625
27.900000	1	4.003375
27.916667	1	3.948000
27.933333	1	3.870500
27.950000	1	3.772625
27.966667	1	3.656375
27.983333	1	3.523250
28.000000	1	3.375625
28.016667	1	3.216000
28.033333	1	3.046500
28.050000	1	2.870250
28.066667	1	2.689875
28.083333	1	2.507875
28.100000	1	2.326750
28.116667	1	2.149125
28.133333	1	1.976125
28.150000	1	1.810375
28.166667	1	1.652875
28.183333	1	1.504625
28.200000	1	1.366375
28.216667	1	1.238375
28.233333	1	1.121125
28.250000	1	1.014500
28.266667	1	0.918250
28.283333	1	0.832000
28.300000	1	0.755875
28.316667	1	0.688500
28.333333	1	0.629875
28.350000	1	0.579750
28.366667	1	0.537125
28.383333	1	0.501500
28.400000	1	0.471875
28.416667	1	0.448500
28.433333	1	0.428750
28.450000	1	0.413500
28.466667	1	0.402750
28.483333	1	0.395125
28.500000	1	0.390750
28.516667	1	0.389250
28.533333	1	0.390375
28.550000	1	0.393250
28.566667	1	0.397625
28.583333	1	0.403000
28.600000	1	0.409250
28.616667	1	0.416125
28.633333	1	0.424500
28.650000	1	0.433000
28.666667	1	0.441375
28.683333	1	0.449625
28.700000	1	0.457000
28.716667	1	0.465375
28.733333	1	0.472125
28.750000	1	0.478750
28.766667	1	0.484875
28.783333	1	0.490125
28.800000	1	0.494750
28.816667	1	0.498250
28.833333	1	0.500625
28.850000	1	0.502500
28.866667	1	0.503125
28.883333	1	0.502500
28.900000	1	0.500750
28.916667	1	0.497875
28.933333	1	0.493500
28.950000	1	0.488250
28.966667	1	0.482000
28.983333	1	0.475375
29.000000	1	0.467250
29.016667	1	0.458000
29.033333	1	0.448375
29.050000	1	0.437875
29.066667	1	0.427000
29.083333	1	0.415000
29.100000	1	0.403000
29.116667	1	0.390250
29.133333	1	0.376875
29.150000	1	0.363375
29.166667	1	0.349375
29.183333	1	0.335500
29.200000	1	0.321750
29.216667	1	0.307750
29.233333	1	0.294375
29.250000	1	0.280875
29.266667	1	0.267250
29.283333	1	0.253625
29.300000	1	0.240125
29.316667	1	0.227500
29.333333	1	0.215375
29.350000	1	0.203500
29.366667	1	0.192125
29.383333	1	0.181375
29.400000	1	0.170875
29.416667	1	0.161125
29.433333	1	0.151500
29.450000	1	0.143125
29.466667	1	0.134875
29.483333	1	0.126625
29.500000	1	0.118250
29.516667	1	0.111500
29.533333	1	0.105500
29.550000	1	0.100250
29.566667	1	0.094625
29.583333	1	0.089500
29.600000	1	0.085375
29.616667	1	0.081000
29.633333	1	0.077250
29.650000	1	0.074250
29.666667	1	0.072000
29.683333	1	0.069750
29.700000	1	0.067375
29.716667	1	0.065125
29.733333	1	0.063750
29.750000	1	0.061375
29.766667	1	0.060375
29.783333	1	0.059750
29.800000	1	0.059125
29.816667	1	0.058500
29.833333	1	0.058000
29.850000	1	0.057750
29.866667	1	0.057125
29.883333	1	0.057375
29.900000	1	0.057500
29.916667	1	0.057000
29.933333	1	0.056875
29.950000	1	0.057000
29.966667	1	0.057625
29.983333	1	0.057875
30.000000	1	0.058125
30.016667	1	0.058375
30.033333	1	0.058125
30.050000	1	0.058375
30.066667	1	0.058750
30.083333	1	0.058875
30.100000	1	0.058375
30.116667	1	0.058875
30.133333	1	0.059125
30.150000	1	0.060000
30.166667	1	0.059875
30.183333	1	0.060750
30.200000	1	0.061625
30.216667	1	0.062375
30.233333	1	0.062500
30.250000	1	0.062875
30.266667	1	0.063625
30.283333	1	0.064375
30.300000	1	0.065250
30.316667	1	0.066250
30.333333	1	0.067875
30.350000	1	0.068875
30.366667	1	0.070375
30.383333	1	0.072125
30.400000	1	0.074125
30.416667	1	0.076250
30.433333	1	0.078375
30.450000	1	0.080750
30.466667	1	0.084000
30.483333	1	0.087125
30.500000	1	0.090625
30.516667	1	0.094250
30.533333	1	0.097875
30.550000	1	0.102500
30.566667	1	0.107625
30.583333	1	0.114750
30.600000	1	0.120875
30.616667	1	0.128500
30.633333	1	0.136625
30.650000	1	0.145750
30.666667	1	0.156000
30.683333	1	0.167125
30.700000	1	0.180875
30.716667	1	0.195250
30.733333	1	0.211375
30.750000	1	0.229500
30.766667	1	0.250500
30.783333	1	0.274000
30.800000	1	0.300125
30.816667	1	0.329750
30.833333	1	0.362625
30.850000	1	0.400125
30.866667	1	0.442000
30.883333	1	0.488875
30.900000	1	0.541250
30.916667	1	0.599125
30.933333	1	0.664125
30.950000	1	0.736250
30.966667	1	0.815875
30.983333	1	0.903750
31.000000	1	1.000375
31.016667	1	1.106875
31.033333	1	1.222250
31.050000	1	1.347250
31.066667	1	1.482750
31.083333	1	1.628125
31.100000	1	1.783500
31.116667	1	1.948500
31.133333	1	2.122875
31.150000	1	2.306625
31.166667	1	2.499375
31.183333	1	2.699375
31.200000	1	2.906500
31.216667	1	3.118625
31.233333	1	3.334750
31.250000	1	3.553500
31.266667	1	3.771875
31.283333	1	3.988250
31.300000	1	4.201000
31.316667	1	4.407250
31.333333	1	4.604125
31.350000	1	4.791000
31.366667	1	4.963875
31.383333	1	5.121250
31.400000	1	5.260500
31.416667	1	5.381125
31.433333	1	5.480250
31.450000	1	5.556250
31.466667	1	5.608500
31.483333	1	5.636500
31.500000	1	5.639000
31.516667	1	5.617000
31.533333	1	5.570625
31.550000	1	5.500625
31.566667	1	5.408125
31.583333	1	5.294375
31.600000	1	5.159875
31.616667	1	5.008125
31.633333	1	4.840750
31.650000	1	4.659750
31.666667	1	4.467125
31.683333	1	4.265375
31.700000	1	4.057750
31.716667	1	3.845250
31.733333	1	3.630625
31.750000	1	3.416250
31.766667	1	3.203750
31.783333	1	2.994000
31.800000	1	2.788625
31.816667	1	2.588875
31.833333	1	2.396500
31.850000	1	2.212375
31.866667	1	2.037500
31.883333	1	1.871500
31.900000	1	1.715625
31.916667	1	1.569000
31.933333	1	1.432125
31.950000	1	1.305625
31.966667	1	1.188625
31.983333	1	1.080250
32.000000	1	0.980125
32.016667	1	0.888750
32.033333	1	0.806250
32.050000	1	0.731375
32.066667	1	0.663625
32.083333	1	0.601500
32.100000	1	0.545375
32.116667	1	0.495875
32.133333	1	0.450000
32.150000	1	0.409250
32.166667	1	0.372375
32.183333	1	0.339875
32.200000	1	0.310250
32.216667	1	0.283500
32.233333	1	0.259125
32.250000	1	0.236875
32.266667	1	0.217250
32.283333	1	0.198875
32.300000	1	0.182125
32.316667	1	0.167375
32.333333	1	0.153500
32.350000	1	0.141250
32.366667	1	0.129250
32.383333	1	0.117875
32.400000	1	0.107375
32.416667	1	0.097750
32.433333	1	0.088750
32.450000	1	0.080625
32.466667	1	0.072500
32.483333	1	0.065250
32.500000	1	0.057875
32.516667	1	0.051250
32.533333	1	0.045625
32.550000	1	0.040875
32.566667	1	0.035000
32.583333	1	0.029625
32.600000	1	0.025125
32.616667	1	0.020500
32.633333	1	0.016625
32.650000	1	0.013375
32.666667	1	0.009625
32.683333	1	0.006750
32.700000	1	0.003500
32.716667	1	0.001000
32.733333	1	-0.001875
32.750000	1	-0.003750
32.766667	1	-0.005500
32.783333	1	-0.007125
32.800000	1	-0.009000
32.816667	1	-0.010750
32.833333	1	-0.012125
32.850000	1	-0.012750
32.866667	1	-0.013250
32.883333	1	-0.014500
32.900000	1	-0.015625
32.916667	1	-0.016000
32.933333	1	-0.016125
32.950000	1	-0.016000
32.966667	1	-0.016375
32.983333	1	-0.016625
33.000000	1	-0.016750
33.016667	1	-0.016000
33.033333	1	-0.015500
33.050000	1	-0.014750
33.066667	1	-0.013500
33.083333	1	-0.013000
33.100000	1	-0.011875
33.116667	1	-0.010625
33.133333	1	-0.009125
33.150000	1	-0.007500
33.166667	1	-0.005375
33.183333	1	-0.003125
33.200000	1	-0.000625
33.216667	1	0.002250
33.233333	1	0.005375
33.250000	1	0.009000
33.266667	1	0.013250
33.283333	1	0.017875
33.300000	1	0.023375
33.316667	1	0.028750
33.333333	1	0.035250
33.350000	1	0.042125
33.366667	1	0.050750
33.383333	1	0.059375
33.400000	1	0.068875
33.416667	1	0.079375
33.433333	1	0.090875
33.450000	1	0.103750
33.466667	1	0.117625
33.483333	1	0.132375
33.500000	1	0.148500
33.516667	1	0.165500
33.533333	1	0.184375
33.550000	1	0.204625
33.566667	1	0.226625
33.583333	1	0.250375
33.600000	1	0.275500
33.616667	1	0.302125
33.633333	1	0.330375
33.650000	1	0.360000
33.666667	1	0.390875
33.683333	1	0.423500
33.700000	1	0.457625
33.716667	1	0.493125
33.733333	1	0.529625
33.750000	1	0.567500
33.766667	1	0.606500
33.783333	1	0.645875
33.800000	1	0.685875
33.816667	1	0.726250
33.833333	1	0.767000
33.850000	1	0.806750
33.866667	1	0.845125
33.883333	1	0.883125
33.900000	1	0.919875
33.916667	1	0.955125
33.933333	1	0.987750
33.950000	1	1.018625
33.966667	1	1.047125
33.983333	1	1.072250
34.000000	1	1.094250
34.016667	1	1.112625
34.033333	1	1.127625
34.050000	1	1.138000
34.066667	1	1.144750
34.083333	1	1.148000
34.100000	1	1.147500
34.116667	1	1.142625
34.133333	1	1.134125
34.150000	1	1.121375
34.166667	1	1.104500
34.183333	1	1.084375
34.200000	1	1.060875
34.216667	1	1.034250
34.233333	1	1.005750
34.250000	1	0.975250
34.266667	1	0.942125
34.283333	1	0.908000
34.300000	1	0.872375
34.316667	1	0.836875
34.333333	1	0.799750
34.350000	1	0.762500
34.366667	1	0.725000
34.383333	1	0.688125
34.400000	1	0.652375
34.416667	1	0.617375
34.433333	1	0.582750
34.450000	1	0.549375
34.466667	1	0.516875
34.483333	1	0.486875
34.500000	1	0.457500
34.516667	1	0.430000
34.533333	1	0.404625
34.550000	1	0.379875
34.566667	1	0.357375
34.583333	1	0.335500
34.600000	1	0.316125
34.616667	1	0.297125
34.633333	1	0.279625
34.650000	1	0.263375
34.666667	1	0.249000
34.683333	1	0.235000
34.700000	1	0.222000
34.716667	1	0.210125
34.733333	1	0.199000
34.750000	1	0.189500
34.766667	1	0.180125
34.783333	1	0.172250
34.800000	1	0.164000
34.816667	1	0.156500
34.833333	1	0.149625
34.850000	1	0.143375
34.866667	1	0.137250
34.883333	1	0.132625
34.900000	1	0.127500
34.916667	1	0.122875
34.933333	1	0.118750
34.950000	1	0.115250
34.966667	1	0.112125
34.983333	1	0.109375
35.000000	1	0.106375
35.016667	1	0.104125
35.033333	1	0.101500
35.050000	1	0.099500
35.066667	1	0.097750
35.083333	1	0.096250
35.100000	1	0.094625
35.116667	1	0.093250
35.133333	1	0.092750
35.150000	1	0.091875
35.166667	1	0.090875
35.183333	1	0.090000
35.200000	1	0.089375
35.216667	1	0.089250
35.233333	1	0.089500
35.250000	1	0.089375
35.266667	1	0.088500
35.283333	1	0.088625
35.300000	1	0.088875
35.316667	1	0.089500
35.333333	1	0.089500
35.350000	1	0.089875
35.366667	1	0.089875
35.383333	1	0.089625
35.400000	1	0.089500
35.416667	1	0.089750
35.433333	1	0.089875
35.450000	1	0.089500
35.466667	1	0.089625
35.483333	1	0.089500
35.500000	1	0.089375
35.516667	1	0.088750
35.533333	1	0.088000
35.550000	1	0.088000
35.566667	1	0.087750
35.583333	1	0.087375
35.600000	1	0.086000
35.616667	1	0.085125
35.633333	1	0.083375
35.650000	1	0.083000
35.666667	1	0.081875
35.683333	1	0.081000
35.700000	1	0.079750
35.716667	1	0.078500
35.733333	1	0.077500
35.750000	1	0.075500
35.766667	1	0.074750
35.783333	1	0.073375
35.800000	1	0.071625
35.816667	1	0.070125
35.833333	1	0.068500
35.850000	1	0.067000
35.866667	1	0.065375
35.883333	1	0.063500
35.900000	1	0.063250
35.916667	1	0.062250
35.933333	1	0.061250
35.950000	1	0.060250
35.966667	1	0.059000
35.983333	1	0.058125
36.000000	1	0.057500
36.016667	1	0.057750
36.033333	1	0.057125
36.050000	1	0.057000
36.066667	1	0.057125
36.083333	1	0.057625
36.100000	1	0.057875
36.116667	1	0.058625
36.133333	1	0.059125
36.150000	1	0.060250
36.166667	1	0.061000
36.183333	1	0.061625
36.200000	1	0.062375
36.216667	1	0.063125
36.233333	1	0.064625
36.250000	1	0.064875
36.266667	1	0.065625
36.283333	1	0.067250
36.300000	1	0.068125
36.316667	1	0.069125
36.333333	1	0.069875
36.350000	1	0.070500
36.366667	1	0.071000
36.383333	1	0.071875
36.400000	1	0.072125
36.416667	1	0.071875
36.433333	1	0.071375
36.450000	1	0.071000
36.466667	1	0.070500
36.483333	1	0.070125
36.500000	1	0.069375
36.516667	1	0.068125
36.533333	1	0.067750
36.550000	1	0.066250
36.566667	1	0.065125
36.583333	1	0.063625
36.600000	1	0.062500
36.616667	1	0.060375
36.633333	1	0.058375
36.650000	1	0.055750
36.666667	1	0.054500
36.683333	1	0.052750
36.700000	1	0.050250
36.716667	1	0.048375
36.733333	1	0.046375
36.750000	1	0.044375
36.766667	1	0.043125
36.783333	1	0.041250
36.800000	1	0.039375
36.816667	1	0.037750
36.833333	1	0.036250
36.850000	1	0.034250
36.866667	1	0.032750
36.883333	1	0.031125
36.900000	1	0.030000
36.916667	1	0.028375
36.933333	1	0.027500
36.950000	1	0.026375
36.966667	1	0.025500
36.983333	1	0.025000
37.000000	1	0.023750
37.016667	1	0.023250
37.033333	1	0.022125
37.050000	1	0.021375
37.066667	1	0.020750
37.083333	1	0.020375
37.100000	1	0.019750
37.116667	1	0.019375
37.133333	1	0.018625
37.150000	1	0.018500
37.166667	1	0.018375
37.183333	1	0.018000
37.200000	1	0.018125
37.216667	1	0.017375
37.233333	1	0.017375
37.250000	1	0.017375
37.266667	1	0.017250
37.283333	1	0.017250
37.300000	1	0.017375
37.316667	1	0.017250
37.333333	1	0.017250
37.350000	1	0.017250
37.366667	1	0.017125
37.383333	1	0.017125
37.400000	1	0.016375
37.416667	1	0.016125
37.433333	1	0.016000
37.450000	1	0.015875
37.466667	1	0.016000
37.483333	1	0.015750
37.500000	1	0.015875
37.516667	1	0.015750
37.533333	1	0.015250
37.550000	1	0.015375
37.566667	1	0.015500
37.583333	1	0.015375
37.600000	1	0.014875
37.616667	1	0.014375
37.633333	1	0.014000
37.650000	1	0.013750
37.666667	1	0.014250
37.683333	1	0.014500
37.700000	1	0.013625
37.716667	1	0.013750
37.733333	1	0.014125
37.750000	1	0.014125
37.766667	1	0.013625
37.783333	1	0.013750
37.800000	1	0.013125
37.816667	1	0.012750
37.833333	1	0.013000
37.850000	1	0.013250
37.866667	1	0.013750
37.883333	1	0.014125
37.900000	1	0.014375
37.916667	1	0.014625
37.933333	1	0.015250
37.950000	1	0.015500
37.966667	1	0.015875
37.983333	1	0.016000
38.000000	1	0.016125
38.016667	1	0.017000
38.033333	1	0.017125
38.050000	1	0.017750
38.066667	1	0.018750
38.083333	1	0.019375
38.100000	1	0.020250
38.116667	1	0.020500
38.133333	1	0.021375
38.150000	1	0.022125
38.166667	1	0.022375
38.183333	1	0.023000
38.200000	1	0.023375
38.216667	1	0.024500
38.233333	1	0.025125
38.250000	1	0.026250
38.266667	1	0.027625
38.283333	1	0.028625
38.300000	1	0.029750
38.316667	1	0.031250
38.333333	1	0.032500
38.350000	1	0.034000
38.366667	1	0.035000
38.383333	1	0.036125
38.400000	1	0.037125
38.416667	1	0.038000
38.433333	1	0.038625
38.450000	1	0.039375
38.466667	1	0.040250
38.483333	1	0.041375
38.500000	1	0.042375
38.516667	1	0.042875
38.533333	1	0.043625
38.550000	1	0.044500
38.566667	1	0.044625
38.583333	1	0.045125
38.600000	1	0.045250
38.616667	1	0.045375
38.633333	1	0.045875
38.650000	1	0.045125
38.666667	1	0.044875
38.683333	1	0.044625
38.700000	1	0.044250
38.716667	1	0.043875
38.733333	1	0.042875
38.750000	1	0.042125
38.766667	1	0.041500
38.783333	1	0.041000
38.800000	1	0.040875
38.816667	1	0.040000
38.833333	1	0.039375
38.850000	1	0.038750
38.866667	1	0.037500
38.883333	1	0.036500
38.900000	1	0.035875
38.916667	1	0.035000
38.933333	1	0.033625
38.950000	1	0.032750
38.966667	1	0.031750
38.983333	1	0.030000
39.000000	1	0.029500
39.016667	1	0.028750
39.033333	1	0.027000
39.050000	1	0.025750
39.066667	1	0.024625
39.083333	1	0.023750
39.100000	1	0.023000
39.116667	1	0.022375
39.133333	1	0.021375
39.150000	1	0.020250
39.166667	1	0.019250
39.183333	1	0.018250
39.200000	1	0.017000
39.216667	1	0.016375
39.233333	1	0.015125
39.250000	1	0.013875
39.266667	1	0.013000
39.283333	1	0.012375
39.300000	1	0.010250
39.316667	1	0.008375
39.333333	1	0.007875
39.350000	1	0.007375
39.366667	1	0.005500
39.383333	1	0.004750
39.400000	1	0.004250
39.416667	1	0.003125
39.433333	1	0.002250
39.450000	1	0.001750
39.466667	1	0.001625
39.483333	1	0.000375
39.500000	1	0.000000
39.516667	1	-0.000750
39.533333	1	-0.001500
39.550000	1	-0.002750
39.566667	1	-0.003250
39.583333	1	-0.004375
39.600000	1	-0.004625
39.616667	1	-0.005125
39.633333	1	-0.005375
39.650000	1	-0.005500
39.666667	1	-0.005500
39.683333	1	-0.005875
39.700000	1	-0.005500
39.716667	1	-0.005750
39.733333	1	-0.005875
39.750000	1	-0.006000
39.766667	1	-0.006875
39.783333	1	-0.006500
39.800000	1	-0.006375
39.816667	1	-0.006125
39.833333	1	-0.005750
39.850000	1	-0.005500
39.866667	1	-0.005000
39.883333	1	-0.004875
39.900000	1	-0.004625
39.916667	1	-0.005000
39.933333	1	-0.005125
39.950000	1	-0.004875
39.966667	1	-0.004750
39.983333	1	-0.003625
40.000000	1	-0.003750
