URL	chrom://bioreactor/micro_cm7/HPLC_Ultimate_3000/Users/markusar/20240716_MA_pHrange2.seq/419.smp/RI_1.channel/RI_1.chm
Channel	RI_1

Injection Information:
Data Vault	micro_cm7
Sequence	20240716_MA_pHrange2
Name	Fp2_40H_1
Number	27
Position	BC3
Comment	
Processing Method	
Instrument Method	run_25B_method
Type	Unknown
Status	Finished
Inject Time	17.07.2024 11:51:42 +02:00
Volume (µl)	20.0000
Dilution Factor	1.0000
Weight	1.0000

Chromatogram Data Information:
Time Min. (min)	0.000000
Time Max. (min)	40.000000
Data Points	2401
Detector	RI
Generating Data System	Chromeleon 7.3.2.11814
Exporting Data System	Chromeleon 7.3.2.0
Operator	Instrument Controller
Signal Quantity	Refractive 
Signal Unit	µRIU
Signal Min.	-0.037250
Signal Max.	82.765125
Channel	RI_1
Driver Name	RID520Driver.dll
Channel Type	Evaluation
Min. Step (s)	1
Max. Step (s)	1
Average Step (s)	1

Signal Parameter Information:
Signal Info	

Chromatogram Data:
Time (min)	Step (s)	Value (µRIU)
0.000000	n.a.	-0.008750
0.016667	1	-0.009875
0.033333	1	-0.010750
0.050000	1	-0.011500
0.066667	1	-0.012500
0.083333	1	-0.013000
0.100000	1	-0.013375
0.116667	1	-0.013750
0.133333	1	-0.014250
0.150000	1	-0.015000
0.166667	1	-0.015375
0.183333	1	-0.015500
0.200000	1	-0.015500
0.216667	1	-0.016250
0.233333	1	-0.016875
0.250000	1	-0.017625
0.266667	1	-0.018000
0.283333	1	-0.018750
0.300000	1	-0.019250
0.316667	1	-0.019750
0.333333	1	-0.020250
0.350000	1	-0.021500
0.366667	1	-0.022250
0.383333	1	-0.023500
0.400000	1	-0.024375
0.416667	1	-0.024875
0.433333	1	-0.024250
0.450000	1	-0.023625
0.466667	1	-0.023250
0.483333	1	-0.022875
0.500000	1	-0.022500
0.516667	1	-0.023000
0.533333	1	-0.023375
0.550000	1	-0.024625
0.566667	1	-0.026875
0.583333	1	-0.029625
0.600000	1	-0.031875
0.616667	1	-0.033500
0.633333	1	-0.035500
0.650000	1	-0.036000
0.666667	1	-0.036875
0.683333	1	-0.037250
0.700000	1	-0.037125
0.716667	1	-0.035625
0.733333	1	-0.035000
0.750000	1	-0.034250
0.766667	1	-0.033250
0.783333	1	-0.032125
0.800000	1	-0.031125
0.816667	1	-0.029500
0.833333	1	-0.028125
0.850000	1	-0.026375
0.866667	1	-0.024250
0.883333	1	-0.022625
0.900000	1	-0.020250
0.916667	1	-0.017875
0.933333	1	-0.016125
0.950000	1	-0.014250
0.966667	1	-0.012000
0.983333	1	-0.010125
1.000000	1	-0.008375
1.016667	1	-0.006125
1.033333	1	-0.004500
1.050000	1	-0.002500
1.066667	1	-0.001125
1.083333	1	0.000000
1.100000	1	0.001000
1.116667	1	0.002250
1.133333	1	0.002875
1.150000	1	0.004125
1.166667	1	0.004750
1.183333	1	0.005125
1.200000	1	0.005000
1.216667	1	0.005125
1.233333	1	0.005750
1.250000	1	0.006125
1.266667	1	0.006250
1.283333	1	0.005625
1.300000	1	0.006000
1.316667	1	0.004875
1.333333	1	0.004375
1.350000	1	0.003625
1.366667	1	0.003000
1.383333	1	0.002750
1.400000	1	0.002750
1.416667	1	0.001875
1.433333	1	0.001125
1.450000	1	0.000250
1.466667	1	-0.000250
1.483333	1	-0.000125
1.500000	1	-0.001375
1.516667	1	-0.002000
1.533333	1	-0.001750
1.550000	1	-0.002250
1.566667	1	-0.002875
1.583333	1	-0.003125
1.600000	1	-0.003375
1.616667	1	-0.002750
1.633333	1	-0.002500
1.650000	1	-0.002750
1.666667	1	-0.003250
1.683333	1	-0.002875
1.700000	1	-0.001750
1.716667	1	-0.001625
1.733333	1	-0.001125
1.750000	1	-0.001000
1.766667	1	-0.000500
1.783333	1	0.000000
1.800000	1	0.000375
1.816667	1	0.001125
1.833333	1	0.001375
1.850000	1	0.002125
1.866667	1	0.002750
1.883333	1	0.003625
1.900000	1	0.003500
1.916667	1	0.004500
1.933333	1	0.005250
1.950000	1	0.005625
1.966667	1	0.006000
1.983333	1	0.006250
2.000000	1	0.006500
2.016667	1	0.006750
2.033333	1	0.006875
2.050000	1	0.007750
2.066667	1	0.008250
2.083333	1	0.008625
2.100000	1	0.008875
2.116667	1	0.009000
2.133333	1	0.009250
2.150000	1	0.009125
2.166667	1	0.008875
2.183333	1	0.008250
2.200000	1	0.008875
2.216667	1	0.009125
2.233333	1	0.008875
2.250000	1	0.008875
2.266667	1	0.008750
2.283333	1	0.008500
2.300000	1	0.007625
2.316667	1	0.007250
2.333333	1	0.006750
2.350000	1	0.006250
2.366667	1	0.005625
2.383333	1	0.005250
2.400000	1	0.004250
2.416667	1	0.004250
2.433333	1	0.003125
2.450000	1	0.002375
2.466667	1	0.002625
2.483333	1	0.001500
2.500000	1	0.000625
2.516667	1	0.000125
2.533333	1	-0.000875
2.550000	1	-0.002000
2.566667	1	-0.002750
2.583333	1	-0.004000
2.600000	1	-0.005125
2.616667	1	-0.006625
2.633333	1	-0.007875
2.650000	1	-0.008500
2.666667	1	-0.009750
2.683333	1	-0.011125
2.700000	1	-0.012375
2.716667	1	-0.013250
2.733333	1	-0.015250
2.750000	1	-0.016375
2.766667	1	-0.017250
2.783333	1	-0.017500
2.800000	1	-0.018125
2.816667	1	-0.018125
2.833333	1	-0.017750
2.850000	1	-0.017500
2.866667	1	-0.017375
2.883333	1	-0.016750
2.900000	1	-0.016875
2.916667	1	-0.016750
2.933333	1	-0.015500
2.950000	1	-0.014125
2.966667	1	-0.013000
2.983333	1	-0.011375
3.000000	1	-0.009500
3.016667	1	-0.008125
3.033333	1	-0.006000
3.050000	1	-0.003875
3.066667	1	-0.001750
3.083333	1	0.000750
3.100000	1	0.002750
3.116667	1	0.005125
3.133333	1	0.007625
3.150000	1	0.010000
3.166667	1	0.012375
3.183333	1	0.014875
3.200000	1	0.017750
3.216667	1	0.021250
3.233333	1	0.024000
3.250000	1	0.026500
3.266667	1	0.029375
3.283333	1	0.032500
3.300000	1	0.035250
3.316667	1	0.038375
3.333333	1	0.041875
3.350000	1	0.044500
3.366667	1	0.047875
3.383333	1	0.051500
3.400000	1	0.054625
3.416667	1	0.057500
3.433333	1	0.060750
3.450000	1	0.064000
3.466667	1	0.067250
3.483333	1	0.069750
3.500000	1	0.072875
3.516667	1	0.075500
3.533333	1	0.078125
3.550000	1	0.080375
3.566667	1	0.082750
3.583333	1	0.085375
3.600000	1	0.087375
3.616667	1	0.089250
3.633333	1	0.091125
3.650000	1	0.092125
3.666667	1	0.093375
3.683333	1	0.093875
3.700000	1	0.094375
3.716667	1	0.093875
3.733333	1	0.093875
3.750000	1	0.093750
3.766667	1	0.093000
3.783333	1	0.092000
3.800000	1	0.091125
3.816667	1	0.089000
3.833333	1	0.087125
3.850000	1	0.085000
3.866667	1	0.082375
3.883333	1	0.079125
3.900000	1	0.076125
3.916667	1	0.072625
3.933333	1	0.069500
3.950000	1	0.065875
3.966667	1	0.062125
3.983333	1	0.058375
4.000000	1	0.054625
4.016667	1	0.051375
4.033333	1	0.047125
4.050000	1	0.044625
4.066667	1	0.041500
4.083333	1	0.038125
4.100000	1	0.034750
4.116667	1	0.031625
4.133333	1	0.028750
4.150000	1	0.026625
4.166667	1	0.024875
4.183333	1	0.022875
4.200000	1	0.021000
4.216667	1	0.020125
4.233333	1	0.019750
4.250000	1	0.019000
4.266667	1	0.018000
4.283333	1	0.018375
4.300000	1	0.019875
4.316667	1	0.020500
4.333333	1	0.021500
4.350000	1	0.023000
4.366667	1	0.025250
4.383333	1	0.027375
4.400000	1	0.030125
4.416667	1	0.032750
4.433333	1	0.035750
4.450000	1	0.039375
4.466667	1	0.042250
4.483333	1	0.045750
4.500000	1	0.049375
4.516667	1	0.052750
4.533333	1	0.056500
4.550000	1	0.060250
4.566667	1	0.064375
4.583333	1	0.068000
4.600000	1	0.072125
4.616667	1	0.075875
4.633333	1	0.079000
4.650000	1	0.082125
4.666667	1	0.084875
4.683333	1	0.088125
4.700000	1	0.091000
4.716667	1	0.094625
4.733333	1	0.097875
4.750000	1	0.101375
4.766667	1	0.104000
4.783333	1	0.107000
4.800000	1	0.109875
4.816667	1	0.113250
4.833333	1	0.116625
4.850000	1	0.120250
4.866667	1	0.122875
4.883333	1	0.126000
4.900000	1	0.129125
4.916667	1	0.132750
4.933333	1	0.136375
4.950000	1	0.139750
4.966667	1	0.143625
4.983333	1	0.146875
5.000000	1	0.150625
5.016667	1	0.155000
5.033333	1	0.159375
5.050000	1	0.163375
5.066667	1	0.167125
5.083333	1	0.171000
5.100000	1	0.175875
5.116667	1	0.180750
5.133333	1	0.184625
5.150000	1	0.188375
5.166667	1	0.192625
5.183333	1	0.196625
5.200000	1	0.200500
5.216667	1	0.204625
5.233333	1	0.208625
5.250000	1	0.210750
5.266667	1	0.212375
5.283333	1	0.214875
5.300000	1	0.217500
5.316667	1	0.220250
5.333333	1	0.223125
5.350000	1	0.225375
5.366667	1	0.227375
5.383333	1	0.229625
5.400000	1	0.230875
5.416667	1	0.232125
5.433333	1	0.232750
5.450000	1	0.233250
5.466667	1	0.233500
5.483333	1	0.233250
5.500000	1	0.233625
5.516667	1	0.233125
5.533333	1	0.232625
5.550000	1	0.231750
5.566667	1	0.230375
5.583333	1	0.229250
5.600000	1	0.227750
5.616667	1	0.226625
5.633333	1	0.224625
5.650000	1	0.222500
5.666667	1	0.220875
5.683333	1	0.218250
5.700000	1	0.215500
5.716667	1	0.212375
5.733333	1	0.210375
5.750000	1	0.207250
5.766667	1	0.204375
5.783333	1	0.201875
5.800000	1	0.199625
5.816667	1	0.196750
5.833333	1	0.194000
5.850000	1	0.190625
5.866667	1	0.187625
5.883333	1	0.184875
5.900000	1	0.182125
5.916667	1	0.179125
5.933333	1	0.176500
5.950000	1	0.173875
5.966667	1	0.171250
5.983333	1	0.168625
6.000000	1	0.166875
6.016667	1	0.163750
6.033333	1	0.160875
6.050000	1	0.158750
6.066667	1	0.157000
6.083333	1	0.155000
6.100000	1	0.153250
6.116667	1	0.151000
6.133333	1	0.149250
6.150000	1	0.147875
6.166667	1	0.146000
6.183333	1	0.144625
6.200000	1	0.142625
6.216667	1	0.141125
6.233333	1	0.140000
6.250000	1	0.138500
6.266667	1	0.137125
6.283333	1	0.135875
6.300000	1	0.134625
6.316667	1	0.133375
6.333333	1	0.132000
6.350000	1	0.131625
6.366667	1	0.130750
6.383333	1	0.130625
6.400000	1	0.130125
6.416667	1	0.129500
6.433333	1	0.128750
6.450000	1	0.129000
6.466667	1	0.127500
6.483333	1	0.127500
6.500000	1	0.127500
6.516667	1	0.127875
6.533333	1	0.127875
6.550000	1	0.128125
6.566667	1	0.128750
6.583333	1	0.129125
6.600000	1	0.129625
6.616667	1	0.130250
6.633333	1	0.131125
6.650000	1	0.131625
6.666667	1	0.132375
6.683333	1	0.133125
6.700000	1	0.134375
6.716667	1	0.135750
6.733333	1	0.136875
6.750000	1	0.138500
6.766667	1	0.139750
6.783333	1	0.141500
6.800000	1	0.144000
6.816667	1	0.146625
6.833333	1	0.149125
6.850000	1	0.151250
6.866667	1	0.154250
6.883333	1	0.156625
6.900000	1	0.159250
6.916667	1	0.161500
6.933333	1	0.164500
6.950000	1	0.167125
6.966667	1	0.169875
6.983333	1	0.172750
7.000000	1	0.175000
7.016667	1	0.177000
7.033333	1	0.178875
7.050000	1	0.180500
7.066667	1	0.181875
7.083333	1	0.182125
7.100000	1	0.183750
7.116667	1	0.184375
7.133333	1	0.184250
7.150000	1	0.184375
7.166667	1	0.184250
7.183333	1	0.183625
7.200000	1	0.182250
7.216667	1	0.180875
7.233333	1	0.179000
7.250000	1	0.176750
7.266667	1	0.174250
7.283333	1	0.171500
7.300000	1	0.168375
7.316667	1	0.165125
7.333333	1	0.161750
7.350000	1	0.158500
7.366667	1	0.155000
7.383333	1	0.151625
7.400000	1	0.148250
7.416667	1	0.144250
7.433333	1	0.140750
7.450000	1	0.136625
7.466667	1	0.133000
7.483333	1	0.129000
7.500000	1	0.124750
7.516667	1	0.120375
7.533333	1	0.116750
7.550000	1	0.113125
7.566667	1	0.109500
7.583333	1	0.106750
7.600000	1	0.103875
7.616667	1	0.101625
7.633333	1	0.098250
7.650000	1	0.095250
7.666667	1	0.092875
7.683333	1	0.090625
7.700000	1	0.088125
7.716667	1	0.086000
7.733333	1	0.084125
7.750000	1	0.082875
7.766667	1	0.081625
7.783333	1	0.080000
7.800000	1	0.077875
7.816667	1	0.077375
7.833333	1	0.076375
7.850000	1	0.075125
7.866667	1	0.074125
7.883333	1	0.073375
7.900000	1	0.073125
7.916667	1	0.072875
7.933333	1	0.073000
7.950000	1	0.071875
7.966667	1	0.071250
7.983333	1	0.070500
8.000000	1	0.070250
8.016667	1	0.069625
8.033333	1	0.068625
8.050000	1	0.067500
8.066667	1	0.066500
8.083333	1	0.065500
8.100000	1	0.064375
8.116667	1	0.062750
8.133333	1	0.061250
8.150000	1	0.059750
8.166667	1	0.058375
8.183333	1	0.056875
8.200000	1	0.055250
8.216667	1	0.054250
8.233333	1	0.052750
8.250000	1	0.051375
8.266667	1	0.050000
8.283333	1	0.048625
8.300000	1	0.048250
8.316667	1	0.048500
8.333333	1	0.049000
8.350000	1	0.050125
8.366667	1	0.050750
8.383333	1	0.052000
8.400000	1	0.053750
8.416667	1	0.055750
8.433333	1	0.057250
8.450000	1	0.059250
8.466667	1	0.061000
8.483333	1	0.063750
8.500000	1	0.066250
8.516667	1	0.069625
8.533333	1	0.073250
8.550000	1	0.076500
8.566667	1	0.080625
8.583333	1	0.084000
8.600000	1	0.087875
8.616667	1	0.091125
8.633333	1	0.094500
8.650000	1	0.097750
8.666667	1	0.100500
8.683333	1	0.102750
8.700000	1	0.105375
8.716667	1	0.108125
8.733333	1	0.111375
8.750000	1	0.114000
8.766667	1	0.116500
8.783333	1	0.118250
8.800000	1	0.119625
8.816667	1	0.120875
8.833333	1	0.121500
8.850000	1	0.122125
8.866667	1	0.122625
8.883333	1	0.122250
8.900000	1	0.122250
8.916667	1	0.122000
8.933333	1	0.120875
8.950000	1	0.119500
8.966667	1	0.118500
8.983333	1	0.117125
9.000000	1	0.115250
9.016667	1	0.113875
9.033333	1	0.111875
9.050000	1	0.110125
9.066667	1	0.108125
9.083333	1	0.106125
9.100000	1	0.103375
9.116667	1	0.101250
9.133333	1	0.098625
9.150000	1	0.097125
9.166667	1	0.095000
9.183333	1	0.092125
9.200000	1	0.090250
9.216667	1	0.088125
9.233333	1	0.085375
9.250000	1	0.082875
9.266667	1	0.079750
9.283333	1	0.076750
9.300000	1	0.073625
9.316667	1	0.071875
9.333333	1	0.070250
9.350000	1	0.067750
9.366667	1	0.065500
9.383333	1	0.062750
9.400000	1	0.061000
9.416667	1	0.058750
9.433333	1	0.056750
9.450000	1	0.054125
9.466667	1	0.052125
9.483333	1	0.050125
9.500000	1	0.048375
9.516667	1	0.047250
9.533333	1	0.045750
9.550000	1	0.043500
9.566667	1	0.041750
9.583333	1	0.040750
9.600000	1	0.039500
9.616667	1	0.037125
9.633333	1	0.035500
9.650000	1	0.034000
9.666667	1	0.033375
9.683333	1	0.032000
9.700000	1	0.030625
9.716667	1	0.029625
9.733333	1	0.028500
9.750000	1	0.027875
9.766667	1	0.027000
9.783333	1	0.026375
9.800000	1	0.025500
9.816667	1	0.025250
9.833333	1	0.024000
9.850000	1	0.022750
9.866667	1	0.022125
9.883333	1	0.021125
9.900000	1	0.020500
9.916667	1	0.020000
9.933333	1	0.018500
9.950000	1	0.017625
9.966667	1	0.016750
9.983333	1	0.016000
10.000000	1	0.014500
10.016667	1	0.012750
10.033333	1	0.010875
10.050000	1	0.009375
10.066667	1	0.008125
10.083333	1	0.007000
10.100000	1	0.006375
10.116667	1	0.005625
10.133333	1	0.006000
10.150000	1	0.006750
10.166667	1	0.009375
10.183333	1	0.013375
10.200000	1	0.018500
10.216667	1	0.024750
10.233333	1	0.033750
10.250000	1	0.043750
10.266667	1	0.056875
10.283333	1	0.071750
10.300000	1	0.089500
10.316667	1	0.109000
10.333333	1	0.129875
10.350000	1	0.151375
10.366667	1	0.172125
10.383333	1	0.188750
10.400000	1	0.196750
10.416667	1	0.193250
10.433333	1	0.174750
10.450000	1	0.139500
10.466667	1	0.091750
10.483333	1	0.043500
10.500000	1	0.015125
10.516667	1	0.039125
10.533333	1	0.157500
10.550000	1	0.423250
10.566667	1	0.895125
10.583333	1	1.635000
10.600000	1	2.702000
10.616667	1	4.148875
10.633333	1	6.017125
10.650000	1	8.337000
10.666667	1	11.130000
10.683333	1	14.404000
10.700000	1	18.158125
10.716667	1	22.377500
10.733333	1	27.035375
10.750000	1	32.093625
10.766667	1	37.493375
10.783333	1	43.168000
10.800000	1	49.024250
10.816667	1	54.923750
10.833333	1	60.657250
10.850000	1	65.927625
10.866667	1	70.330875
10.883333	1	73.353500
10.900000	1	74.451750
10.916667	1	73.197375
10.933333	1	69.462250
10.950000	1	63.529000
10.966667	1	56.056250
10.983333	1	47.872500
11.000000	1	39.762000
11.016667	1	32.305125
11.033333	1	25.828000
11.050000	1	20.429000
11.066667	1	16.063750
11.083333	1	12.616500
11.100000	1	9.943250
11.116667	1	7.899125
11.133333	1	6.351250
11.150000	1	5.185875
11.166667	1	4.310750
11.183333	1	3.652375
11.200000	1	3.154750
11.216667	1	2.776000
11.233333	1	2.485250
11.250000	1	2.259125
11.266667	1	2.080875
11.283333	1	1.937500
11.300000	1	1.819125
11.316667	1	1.719875
11.333333	1	1.634500
11.350000	1	1.559625
11.366667	1	1.493000
11.383333	1	1.433125
11.400000	1	1.378875
11.416667	1	1.329375
11.433333	1	1.285125
11.450000	1	1.246000
11.466667	1	1.211250
11.483333	1	1.180750
11.500000	1	1.153750
11.516667	1	1.131375
11.533333	1	1.113500
11.550000	1	1.099250
11.566667	1	1.089625
11.583333	1	1.084000
11.600000	1	1.083375
11.616667	1	1.087000
11.633333	1	1.096125
11.650000	1	1.108750
11.666667	1	1.126125
11.683333	1	1.148000
11.700000	1	1.173125
11.716667	1	1.200625
11.733333	1	1.228625
11.750000	1	1.255250
11.766667	1	1.280500
11.783333	1	1.301625
11.800000	1	1.317625
11.816667	1	1.328250
11.833333	1	1.332000
11.850000	1	1.330000
11.866667	1	1.322625
11.883333	1	1.309750
11.900000	1	1.293125
11.916667	1	1.274125
11.933333	1	1.252875
11.950000	1	1.232000
11.966667	1	1.210750
11.983333	1	1.189625
12.000000	1	1.170500
12.016667	1	1.153500
12.033333	1	1.138750
12.050000	1	1.126500
12.066667	1	1.115500
12.083333	1	1.106500
12.100000	1	1.099375
12.116667	1	1.093500
12.133333	1	1.088500
12.150000	1	1.085125
12.166667	1	1.082875
12.183333	1	1.081625
12.200000	1	1.081625
12.216667	1	1.082250
12.233333	1	1.085500
12.250000	1	1.091000
12.266667	1	1.099125
12.283333	1	1.112500
12.300000	1	1.132875
12.316667	1	1.163375
12.333333	1	1.207625
12.350000	1	1.271000
12.366667	1	1.362250
12.383333	1	1.491625
12.400000	1	1.673625
12.416667	1	1.927750
12.433333	1	2.278750
12.450000	1	2.759000
12.466667	1	3.410500
12.483333	1	4.284125
12.500000	1	5.441250
12.516667	1	6.954750
12.533333	1	8.902125
12.550000	1	11.363125
12.566667	1	14.417250
12.583333	1	18.131250
12.600000	1	22.543250
12.616667	1	27.647750
12.633333	1	33.404375
12.650000	1	39.717625
12.666667	1	46.427375
12.683333	1	53.314000
12.700000	1	60.101125
12.716667	1	66.482625
12.733333	1	72.145625
12.750000	1	76.800625
12.766667	1	80.212125
12.783333	1	82.221250
12.800000	1	82.765125
12.816667	1	81.880875
12.833333	1	79.693875
12.850000	1	76.399625
12.866667	1	72.253250
12.883333	1	67.537500
12.900000	1	62.537875
12.916667	1	57.513500
12.933333	1	52.686625
12.950000	1	48.226125
12.966667	1	44.242875
12.983333	1	40.801250
13.000000	1	37.923625
13.016667	1	35.594625
13.033333	1	33.779375
13.050000	1	32.427250
13.066667	1	31.483875
13.083333	1	30.892875
13.100000	1	30.602500
13.116667	1	30.563875
13.133333	1	30.732375
13.150000	1	31.073625
13.166667	1	31.556250
13.183333	1	32.156125
13.200000	1	32.850875
13.216667	1	33.625375
13.233333	1	34.466875
13.250000	1	35.367000
13.266667	1	36.317875
13.283333	1	37.313125
13.300000	1	38.348625
13.316667	1	39.420750
13.333333	1	40.525875
13.350000	1	41.661750
13.366667	1	42.829625
13.383333	1	44.027000
13.400000	1	45.252250
13.416667	1	46.505875
13.433333	1	47.789500
13.450000	1	49.102875
13.466667	1	50.446750
13.483333	1	51.821125
13.500000	1	53.226125
13.516667	1	54.662250
13.533333	1	56.129875
13.550000	1	57.627250
13.566667	1	59.156375
13.583333	1	60.716125
13.600000	1	62.307250
13.616667	1	63.930375
13.633333	1	65.587250
13.650000	1	67.279500
13.666667	1	69.007875
13.683333	1	70.773625
13.700000	1	72.575500
13.716667	1	74.410750
13.733333	1	76.264375
13.750000	1	78.083750
13.766667	1	79.742750
13.783333	1	81.034000
13.800000	1	81.715000
13.816667	1	81.568125
13.833333	1	80.413875
13.850000	1	78.076625
13.866667	1	74.344625
13.883333	1	69.023750
13.900000	1	62.094125
13.916667	1	53.900250
13.933333	1	45.162250
13.950000	1	36.731875
13.966667	1	29.279125
13.983333	1	23.119750
14.000000	1	18.251125
14.016667	1	14.498000
14.033333	1	11.645125
14.050000	1	9.498500
14.066667	1	7.897625
14.083333	1	6.712875
14.100000	1	5.840250
14.116667	1	5.197000
14.133333	1	4.718625
14.150000	1	4.359250
14.166667	1	4.083875
14.183333	1	3.868000
14.200000	1	3.695125
14.216667	1	3.553375
14.233333	1	3.434000
14.250000	1	3.330625
14.266667	1	3.240750
14.283333	1	3.160875
14.300000	1	3.088250
14.316667	1	3.022875
14.333333	1	2.962125
14.350000	1	2.905125
14.366667	1	2.852750
14.383333	1	2.804125
14.400000	1	2.758125
14.416667	1	2.715875
14.433333	1	2.676750
14.450000	1	2.640625
14.466667	1	2.605125
14.483333	1	2.572875
14.500000	1	2.542750
14.516667	1	2.514125
14.533333	1	2.486750
14.550000	1	2.460250
14.566667	1	2.434625
14.583333	1	2.409500
14.600000	1	2.383500
14.616667	1	2.358125
14.633333	1	2.332125
14.650000	1	2.305625
14.666667	1	2.279000
14.683333	1	2.250750
14.700000	1	2.222875
14.716667	1	2.194375
14.733333	1	2.165875
14.750000	1	2.136125
14.766667	1	2.107500
14.783333	1	2.078625
14.800000	1	2.050750
14.816667	1	2.023875
14.833333	1	1.996875
14.850000	1	1.970625
14.866667	1	1.945375
14.883333	1	1.920250
14.900000	1	1.895750
14.916667	1	1.871875
14.933333	1	1.849125
14.950000	1	1.826500
14.966667	1	1.804250
14.983333	1	1.782125
15.000000	1	1.761125
15.016667	1	1.741000
15.033333	1	1.721375
15.050000	1	1.702625
15.066667	1	1.683875
15.083333	1	1.665250
15.100000	1	1.648125
15.116667	1	1.632125
15.133333	1	1.616500
15.150000	1	1.602000
15.166667	1	1.588250
15.183333	1	1.575625
15.200000	1	1.563250
15.216667	1	1.552375
15.233333	1	1.542875
15.250000	1	1.534375
15.266667	1	1.527875
15.283333	1	1.523375
15.300000	1	1.520375
15.316667	1	1.520125
15.333333	1	1.523125
15.350000	1	1.529625
15.366667	1	1.539250
15.383333	1	1.552750
15.400000	1	1.571000
15.416667	1	1.593625
15.433333	1	1.619875
15.450000	1	1.648750
15.466667	1	1.681000
15.483333	1	1.713500
15.500000	1	1.745625
15.516667	1	1.776250
15.533333	1	1.801125
15.550000	1	1.821125
15.566667	1	1.833500
15.583333	1	1.837875
15.600000	1	1.834500
15.616667	1	1.822125
15.633333	1	1.801875
15.650000	1	1.774500
15.666667	1	1.741500
15.683333	1	1.704125
15.700000	1	1.664000
15.716667	1	1.622875
15.733333	1	1.581000
15.750000	1	1.540000
15.766667	1	1.500000
15.783333	1	1.461000
15.800000	1	1.424000
15.816667	1	1.388625
15.833333	1	1.354125
15.850000	1	1.321250
15.866667	1	1.289375
15.883333	1	1.257625
15.900000	1	1.226875
15.916667	1	1.198250
15.933333	1	1.170625
15.950000	1	1.144500
15.966667	1	1.120375
15.983333	1	1.098000
16.000000	1	1.079125
16.016667	1	1.061750
16.033333	1	1.046125
16.050000	1	1.032875
16.066667	1	1.022750
16.083333	1	1.014125
16.100000	1	1.008000
16.116667	1	1.002625
16.133333	1	0.999250
16.150000	1	0.996875
16.166667	1	0.995750
16.183333	1	0.995625
16.200000	1	0.995125
16.216667	1	0.995000
16.233333	1	0.994625
16.250000	1	0.994875
16.266667	1	0.994500
16.283333	1	0.993125
16.300000	1	0.991375
16.316667	1	0.988625
16.333333	1	0.986250
16.350000	1	0.983000
16.366667	1	0.979250
16.383333	1	0.975375
16.400000	1	0.971125
16.416667	1	0.967000
16.433333	1	0.964125
16.450000	1	0.961750
16.466667	1	0.960500
16.483333	1	0.961000
16.500000	1	0.962875
16.516667	1	0.966000
16.533333	1	0.971250
16.550000	1	0.978000
16.566667	1	0.986375
16.583333	1	0.996250
16.600000	1	1.006750
16.616667	1	1.018125
16.633333	1	1.030000
16.650000	1	1.040875
16.666667	1	1.051625
16.683333	1	1.061250
16.700000	1	1.070250
16.716667	1	1.078125
16.733333	1	1.085125
16.750000	1	1.091250
16.766667	1	1.097375
16.783333	1	1.102375
16.800000	1	1.107375
16.816667	1	1.113000
16.833333	1	1.118750
16.850000	1	1.124625
16.866667	1	1.131000
16.883333	1	1.137000
16.900000	1	1.143500
16.916667	1	1.149125
16.933333	1	1.154625
16.950000	1	1.159125
16.966667	1	1.162750
16.983333	1	1.165875
17.000000	1	1.167875
17.016667	1	1.168250
17.033333	1	1.168500
17.050000	1	1.166750
17.066667	1	1.163875
17.083333	1	1.161125
17.100000	1	1.158125
17.116667	1	1.154875
17.133333	1	1.152375
17.150000	1	1.149875
17.166667	1	1.148000
17.183333	1	1.146250
17.200000	1	1.145125
17.216667	1	1.145625
17.233333	1	1.146750
17.250000	1	1.147375
17.266667	1	1.149125
17.283333	1	1.151125
17.300000	1	1.154000
17.316667	1	1.157000
17.333333	1	1.160125
17.350000	1	1.163500
17.366667	1	1.167500
17.383333	1	1.170875
17.400000	1	1.173750
17.416667	1	1.175500
17.433333	1	1.176750
17.450000	1	1.176625
17.466667	1	1.175875
17.483333	1	1.173625
17.500000	1	1.169875
17.516667	1	1.165250
17.533333	1	1.157750
17.550000	1	1.148625
17.566667	1	1.138375
17.583333	1	1.126000
17.600000	1	1.112625
17.616667	1	1.097250
17.633333	1	1.080375
17.650000	1	1.062750
17.666667	1	1.044375
17.683333	1	1.025875
17.700000	1	1.007125
17.716667	1	0.988000
17.733333	1	0.969000
17.750000	1	0.951125
17.766667	1	0.933250
17.783333	1	0.916500
17.800000	1	0.899875
17.816667	1	0.883875
17.833333	1	0.869000
17.850000	1	0.855125
17.866667	1	0.841500
17.883333	1	0.829500
17.900000	1	0.817625
17.916667	1	0.807000
17.933333	1	0.797250
17.950000	1	0.788125
17.966667	1	0.780125
17.983333	1	0.772500
18.000000	1	0.765125
18.016667	1	0.758125
18.033333	1	0.751250
18.050000	1	0.744625
18.066667	1	0.738250
18.083333	1	0.732250
18.100000	1	0.726250
18.116667	1	0.721000
18.133333	1	0.715500
18.150000	1	0.710000
18.166667	1	0.705125
18.183333	1	0.700250
18.200000	1	0.696750
18.216667	1	0.693750
18.233333	1	0.691000
18.250000	1	0.688625
18.266667	1	0.686375
18.283333	1	0.685250
18.300000	1	0.685125
18.316667	1	0.685500
18.333333	1	0.686500
18.350000	1	0.687375
18.366667	1	0.689250
18.383333	1	0.691500
18.400000	1	0.693750
18.416667	1	0.697375
18.433333	1	0.700875
18.450000	1	0.705500
18.466667	1	0.711000
18.483333	1	0.717625
18.500000	1	0.726250
18.516667	1	0.735875
18.533333	1	0.746500
18.550000	1	0.759375
18.566667	1	0.774375
18.583333	1	0.791000
18.600000	1	0.809875
18.616667	1	0.831500
18.633333	1	0.854875
18.650000	1	0.879500
18.666667	1	0.907000
18.683333	1	0.936125
18.700000	1	0.967250
18.716667	1	0.999875
18.733333	1	1.033875
18.750000	1	1.068750
18.766667	1	1.104875
18.783333	1	1.141500
18.800000	1	1.178500
18.816667	1	1.215125
18.833333	1	1.250125
18.850000	1	1.283375
18.866667	1	1.314625
18.883333	1	1.342000
18.900000	1	1.366250
18.916667	1	1.386375
18.933333	1	1.400875
18.950000	1	1.409250
18.966667	1	1.412250
18.983333	1	1.408750
19.000000	1	1.398750
19.016667	1	1.381875
19.033333	1	1.358875
19.050000	1	1.329500
19.066667	1	1.296000
19.083333	1	1.257375
19.100000	1	1.215500
19.116667	1	1.170250
19.133333	1	1.123750
19.150000	1	1.077375
19.166667	1	1.031000
19.183333	1	0.985625
19.200000	1	0.942125
19.216667	1	0.901250
19.233333	1	0.863125
19.250000	1	0.829250
19.266667	1	0.800250
19.283333	1	0.774750
19.300000	1	0.754375
19.316667	1	0.739375
19.333333	1	0.728625
19.350000	1	0.722875
19.366667	1	0.721625
19.383333	1	0.726625
19.400000	1	0.734750
19.416667	1	0.748875
19.433333	1	0.766750
19.450000	1	0.788125
19.466667	1	0.813875
19.483333	1	0.842750
19.500000	1	0.874125
19.516667	1	0.907750
19.533333	1	0.942000
19.550000	1	0.976875
19.566667	1	1.010500
19.583333	1	1.043125
19.600000	1	1.073250
19.616667	1	1.100250
19.633333	1	1.122750
19.650000	1	1.139750
19.666667	1	1.152000
19.683333	1	1.158875
19.700000	1	1.160250
19.716667	1	1.156250
19.733333	1	1.147250
19.750000	1	1.133125
19.766667	1	1.114500
19.783333	1	1.091000
19.800000	1	1.064500
19.816667	1	1.036000
19.833333	1	1.004750
19.850000	1	0.972000
19.866667	1	0.938250
19.883333	1	0.904625
19.900000	1	0.870500
19.916667	1	0.837500
19.933333	1	0.805625
19.950000	1	0.774625
19.966667	1	0.744750
19.983333	1	0.717500
20.000000	1	0.692125
20.016667	1	0.669500
20.033333	1	0.648625
20.050000	1	0.630250
20.066667	1	0.615000
20.083333	1	0.602375
20.100000	1	0.591750
20.116667	1	0.584750
20.133333	1	0.581000
20.150000	1	0.580000
20.166667	1	0.582000
20.183333	1	0.586625
20.200000	1	0.592750
20.216667	1	0.601875
20.233333	1	0.612250
20.250000	1	0.624250
20.266667	1	0.637500
20.283333	1	0.651125
20.300000	1	0.664375
20.316667	1	0.676875
20.333333	1	0.688125
20.350000	1	0.697625
20.366667	1	0.705375
20.383333	1	0.710375
20.400000	1	0.713750
20.416667	1	0.714375
20.433333	1	0.712375
20.450000	1	0.709125
20.466667	1	0.704500
20.483333	1	0.698125
20.500000	1	0.692750
20.516667	1	0.687750
20.533333	1	0.684375
20.550000	1	0.684000
20.566667	1	0.687625
20.583333	1	0.695750
20.600000	1	0.709625
20.616667	1	0.729375
20.633333	1	0.756125
20.650000	1	0.790250
20.666667	1	0.831625
20.683333	1	0.880125
20.700000	1	0.935125
20.716667	1	0.997125
20.733333	1	1.063750
20.750000	1	1.133875
20.766667	1	1.207000
20.783333	1	1.281375
20.800000	1	1.353750
20.816667	1	1.422375
20.833333	1	1.484750
20.850000	1	1.538250
20.866667	1	1.582250
20.883333	1	1.614000
20.900000	1	1.632500
20.916667	1	1.638250
20.933333	1	1.629500
20.950000	1	1.606375
20.966667	1	1.571500
20.983333	1	1.524250
21.000000	1	1.467375
21.016667	1	1.403750
21.033333	1	1.333250
21.050000	1	1.259000
21.066667	1	1.183000
21.083333	1	1.107750
21.100000	1	1.034500
21.116667	1	0.963000
21.133333	1	0.897000
21.150000	1	0.834875
21.166667	1	0.778625
21.183333	1	0.728125
21.200000	1	0.682875
21.216667	1	0.643375
21.233333	1	0.609500
21.250000	1	0.579500
21.266667	1	0.554500
21.283333	1	0.533750
21.300000	1	0.516000
21.316667	1	0.502250
21.333333	1	0.491375
21.350000	1	0.482375
21.366667	1	0.475750
21.383333	1	0.470125
21.400000	1	0.466375
21.416667	1	0.463625
21.433333	1	0.461375
21.450000	1	0.459875
21.466667	1	0.458875
21.483333	1	0.459125
21.500000	1	0.459000
21.516667	1	0.460125
21.533333	1	0.461625
21.550000	1	0.462500
21.566667	1	0.464000
21.583333	1	0.466375
21.600000	1	0.468875
21.616667	1	0.471750
21.633333	1	0.475250
21.650000	1	0.479625
21.666667	1	0.484750
21.683333	1	0.490375
21.700000	1	0.497500
21.716667	1	0.505125
21.733333	1	0.514375
21.750000	1	0.524375
21.766667	1	0.535500
21.783333	1	0.547250
21.800000	1	0.559625
21.816667	1	0.572875
21.833333	1	0.587750
21.850000	1	0.602500
21.866667	1	0.618375
21.883333	1	0.634750
21.900000	1	0.650375
21.916667	1	0.666875
21.933333	1	0.682750
21.950000	1	0.698000
21.966667	1	0.712125
21.983333	1	0.724625
22.000000	1	0.736625
22.016667	1	0.746875
22.033333	1	0.754875
22.050000	1	0.761000
22.066667	1	0.764875
22.083333	1	0.767000
22.100000	1	0.766750
22.116667	1	0.763875
22.133333	1	0.758500
22.150000	1	0.750875
22.166667	1	0.741375
22.183333	1	0.730375
22.200000	1	0.717125
22.216667	1	0.702250
22.233333	1	0.686625
22.250000	1	0.669500
22.266667	1	0.651750
22.283333	1	0.632625
22.300000	1	0.613000
22.316667	1	0.593000
22.333333	1	0.572500
22.350000	1	0.552750
22.366667	1	0.532875
22.383333	1	0.513000
22.400000	1	0.493125
22.416667	1	0.474125
22.433333	1	0.456125
22.450000	1	0.438875
22.466667	1	0.422125
22.483333	1	0.406375
22.500000	1	0.392000
22.516667	1	0.379250
22.533333	1	0.367500
22.550000	1	0.356000
22.566667	1	0.346125
22.583333	1	0.337000
22.600000	1	0.328625
22.616667	1	0.321750
22.633333	1	0.315750
22.650000	1	0.309875
22.666667	1	0.305250
22.683333	1	0.300750
22.700000	1	0.297000
22.716667	1	0.294625
22.733333	1	0.292250
22.750000	1	0.291000
22.766667	1	0.289375
22.783333	1	0.288625
22.800000	1	0.287250
22.816667	1	0.287250
22.833333	1	0.287125
22.850000	1	0.288000
22.866667	1	0.288625
22.883333	1	0.289375
22.900000	1	0.290000
22.916667	1	0.291000
22.933333	1	0.291875
22.950000	1	0.293375
22.966667	1	0.294875
22.983333	1	0.296000
23.000000	1	0.297625
23.016667	1	0.299500
23.033333	1	0.301500
23.050000	1	0.303375
23.066667	1	0.305750
23.083333	1	0.307625
23.100000	1	0.309625
23.116667	1	0.311500
23.133333	1	0.313375
23.150000	1	0.314375
23.166667	1	0.315625
23.183333	1	0.317125
23.200000	1	0.318500
23.216667	1	0.320250
23.233333	1	0.321625
23.250000	1	0.324250
23.266667	1	0.327125
23.283333	1	0.330625
23.300000	1	0.335875
23.316667	1	0.342625
23.333333	1	0.351875
23.350000	1	0.363875
23.366667	1	0.379250
23.383333	1	0.397625
23.400000	1	0.420375
23.416667	1	0.448625
23.433333	1	0.483500
23.450000	1	0.525875
23.466667	1	0.575500
23.483333	1	0.634125
23.500000	1	0.702875
23.516667	1	0.782500
23.533333	1	0.875125
23.550000	1	0.980625
23.566667	1	1.099000
23.583333	1	1.233000
23.600000	1	1.381625
23.616667	1	1.545125
23.633333	1	1.724250
23.650000	1	1.917250
23.666667	1	2.123875
23.683333	1	2.342000
23.700000	1	2.570625
23.716667	1	2.806875
23.733333	1	3.047500
23.750000	1	3.288125
23.766667	1	3.524500
23.783333	1	3.752500
23.800000	1	3.967875
23.816667	1	4.166000
23.833333	1	4.341875
23.850000	1	4.491500
23.866667	1	4.613125
23.883333	1	4.702250
23.900000	1	4.757625
23.916667	1	4.777375
23.933333	1	4.761250
23.950000	1	4.710500
23.966667	1	4.627000
23.983333	1	4.512875
24.000000	1	4.370875
24.016667	1	4.205500
24.033333	1	4.020875
24.050000	1	3.821750
24.066667	1	3.610875
24.083333	1	3.393500
24.100000	1	3.172625
24.116667	1	2.952875
24.133333	1	2.736250
24.150000	1	2.526000
24.166667	1	2.324875
24.183333	1	2.134125
24.200000	1	1.954250
24.216667	1	1.787750
24.233333	1	1.633625
24.250000	1	1.492875
24.266667	1	1.364250
24.283333	1	1.246875
24.300000	1	1.140875
24.316667	1	1.047375
24.333333	1	0.963375
24.350000	1	0.888750
24.366667	1	0.822750
24.383333	1	0.764875
24.400000	1	0.713750
24.416667	1	0.669625
24.433333	1	0.631500
24.450000	1	0.597750
24.466667	1	0.569375
24.483333	1	0.544250
24.500000	1	0.522875
24.516667	1	0.504500
24.533333	1	0.488625
24.550000	1	0.475000
24.566667	1	0.463500
24.583333	1	0.452875
24.600000	1	0.443875
24.616667	1	0.435625
24.633333	1	0.428125
24.650000	1	0.421250
24.666667	1	0.415250
24.683333	1	0.409875
24.700000	1	0.404375
24.716667	1	0.399875
24.733333	1	0.394750
24.750000	1	0.390375
24.766667	1	0.385625
24.783333	1	0.381250
24.800000	1	0.378125
24.816667	1	0.375125
24.833333	1	0.371750
24.850000	1	0.369250
24.866667	1	0.366500
24.883333	1	0.363500
24.900000	1	0.361250
24.916667	1	0.359375
24.933333	1	0.357625
24.950000	1	0.355625
24.966667	1	0.353500
24.983333	1	0.351750
25.000000	1	0.350125
25.016667	1	0.348750
25.033333	1	0.346875
25.050000	1	0.345000
25.066667	1	0.343875
25.083333	1	0.341750
25.100000	1	0.340000
25.116667	1	0.337125
25.133333	1	0.334375
25.150000	1	0.331750
25.166667	1	0.328625
25.183333	1	0.326000
25.200000	1	0.323375
25.216667	1	0.319500
25.233333	1	0.316625
25.250000	1	0.312750
25.266667	1	0.309000
25.283333	1	0.304875
25.300000	1	0.301125
25.316667	1	0.297750
25.333333	1	0.293000
25.350000	1	0.289125
25.366667	1	0.285000
25.383333	1	0.280750
25.400000	1	0.276500
25.416667	1	0.271875
25.433333	1	0.267625
25.450000	1	0.263500
25.466667	1	0.259750
25.483333	1	0.256500
25.500000	1	0.252625
25.516667	1	0.249000
25.533333	1	0.246000
25.550000	1	0.242375
25.566667	1	0.239250
25.583333	1	0.236750
25.600000	1	0.233875
25.616667	1	0.230500
25.633333	1	0.228000
25.650000	1	0.225375
25.666667	1	0.222875
25.683333	1	0.221500
25.700000	1	0.219750
25.716667	1	0.218250
25.733333	1	0.216750
25.750000	1	0.215750
25.766667	1	0.215000
25.783333	1	0.214250
25.800000	1	0.214250
25.816667	1	0.215375
25.833333	1	0.216500
25.850000	1	0.217875
25.866667	1	0.220125
25.883333	1	0.222625
25.900000	1	0.226125
25.916667	1	0.228250
25.933333	1	0.231875
25.950000	1	0.236000
25.966667	1	0.241000
25.983333	1	0.245750
26.000000	1	0.251250
26.016667	1	0.257375
26.033333	1	0.263875
26.050000	1	0.270000
26.066667	1	0.277500
26.083333	1	0.284625
26.100000	1	0.291250
26.116667	1	0.298000
26.133333	1	0.304750
26.150000	1	0.311000
26.166667	1	0.317000
26.183333	1	0.322625
26.200000	1	0.327000
26.216667	1	0.331375
26.233333	1	0.335125
26.250000	1	0.338250
26.266667	1	0.340625
26.283333	1	0.343000
26.300000	1	0.344250
26.316667	1	0.343500
26.333333	1	0.343250
26.350000	1	0.341625
26.366667	1	0.338875
26.383333	1	0.335125
26.400000	1	0.331250
26.416667	1	0.326750
26.433333	1	0.321375
26.450000	1	0.315500
26.466667	1	0.309000
26.483333	1	0.303375
26.500000	1	0.295875
26.516667	1	0.289000
26.533333	1	0.281375
26.550000	1	0.273500
26.566667	1	0.265625
26.583333	1	0.258250
26.600000	1	0.250250
26.616667	1	0.242625
26.633333	1	0.235750
26.650000	1	0.228750
26.666667	1	0.221625
26.683333	1	0.215875
26.700000	1	0.210000
26.716667	1	0.203875
26.733333	1	0.198250
26.750000	1	0.193375
26.766667	1	0.189875
26.783333	1	0.186625
26.800000	1	0.184000
26.816667	1	0.181250
26.833333	1	0.179125
26.850000	1	0.178625
26.866667	1	0.178500
26.883333	1	0.178625
26.900000	1	0.179375
26.916667	1	0.180250
26.933333	1	0.182125
26.950000	1	0.184750
26.966667	1	0.188375
26.983333	1	0.193000
27.000000	1	0.198000
27.016667	1	0.203125
27.033333	1	0.208125
27.050000	1	0.214000
27.066667	1	0.220625
27.083333	1	0.229125
27.100000	1	0.237750
27.116667	1	0.247875
27.133333	1	0.258750
27.150000	1	0.270625
27.166667	1	0.283250
27.183333	1	0.298000
27.200000	1	0.314625
27.216667	1	0.333500
27.233333	1	0.354250
27.250000	1	0.377625
27.266667	1	0.403250
27.283333	1	0.432750
27.300000	1	0.465625
27.316667	1	0.502875
27.333333	1	0.544750
27.350000	1	0.590875
27.366667	1	0.643250
27.383333	1	0.701625
27.400000	1	0.766500
27.416667	1	0.839125
27.433333	1	0.919625
27.450000	1	1.007875
27.466667	1	1.105375
27.483333	1	1.210750
27.500000	1	1.324750
27.516667	1	1.447875
27.533333	1	1.579625
27.550000	1	1.718750
27.566667	1	1.865250
27.583333	1	2.019000
27.600000	1	2.178750
27.616667	1	2.342625
27.633333	1	2.509625
27.650000	1	2.678875
27.666667	1	2.847000
27.683333	1	3.013250
27.700000	1	3.174875
27.716667	1	3.328500
27.733333	1	3.473000
27.750000	1	3.605125
27.766667	1	3.722625
27.783333	1	3.823625
27.800000	1	3.906000
27.816667	1	3.968625
27.833333	1	4.010250
27.850000	1	4.028125
27.866667	1	4.023500
27.883333	1	3.995500
27.900000	1	3.944125
27.916667	1	3.870875
27.933333	1	3.776875
27.950000	1	3.663375
27.966667	1	3.533000
27.983333	1	3.387375
28.000000	1	3.229625
28.016667	1	3.062250
28.033333	1	2.887875
28.050000	1	2.708500
28.066667	1	2.528125
28.083333	1	2.347750
28.100000	1	2.170500
28.116667	1	1.998375
28.133333	1	1.832375
28.150000	1	1.674875
28.166667	1	1.526625
28.183333	1	1.388500
28.200000	1	1.260375
28.216667	1	1.142500
28.233333	1	1.035750
28.250000	1	0.939125
28.266667	1	0.852875
28.283333	1	0.775625
28.300000	1	0.708125
28.316667	1	0.649875
28.333333	1	0.599375
28.350000	1	0.556625
28.366667	1	0.520500
28.383333	1	0.491000
28.400000	1	0.466875
28.416667	1	0.448625
28.433333	1	0.435125
28.450000	1	0.425750
28.466667	1	0.420000
28.483333	1	0.417500
28.500000	1	0.417875
28.516667	1	0.421000
28.533333	1	0.426250
28.550000	1	0.433500
28.566667	1	0.442375
28.583333	1	0.452750
28.600000	1	0.464750
28.616667	1	0.476500
28.633333	1	0.489125
28.650000	1	0.502250
28.666667	1	0.514875
28.683333	1	0.528250
28.700000	1	0.541000
28.716667	1	0.553250
28.733333	1	0.564625
28.750000	1	0.575125
28.766667	1	0.585375
28.783333	1	0.594750
28.800000	1	0.603125
28.816667	1	0.610250
28.833333	1	0.616250
28.850000	1	0.621625
28.866667	1	0.625000
28.883333	1	0.626875
28.900000	1	0.627375
28.916667	1	0.626375
28.933333	1	0.624250
28.950000	1	0.621000
28.966667	1	0.616250
28.983333	1	0.610000
29.000000	1	0.603000
29.016667	1	0.594375
29.033333	1	0.584250
29.050000	1	0.574000
29.066667	1	0.562875
29.083333	1	0.551250
29.100000	1	0.537500
29.116667	1	0.523250
29.133333	1	0.509375
29.150000	1	0.495250
29.166667	1	0.479875
29.183333	1	0.464500
29.200000	1	0.448625
29.216667	1	0.433250
29.233333	1	0.417500
29.250000	1	0.402125
29.266667	1	0.386375
29.283333	1	0.371000
29.300000	1	0.355625
29.316667	1	0.340375
29.333333	1	0.325625
29.350000	1	0.310625
29.366667	1	0.296500
29.383333	1	0.283375
29.400000	1	0.270500
29.416667	1	0.257875
29.433333	1	0.245375
29.450000	1	0.233875
29.466667	1	0.222750
29.483333	1	0.211625
29.500000	1	0.201250
29.516667	1	0.191875
29.533333	1	0.182500
29.550000	1	0.174000
29.566667	1	0.165875
29.583333	1	0.158375
29.600000	1	0.151875
29.616667	1	0.145750
29.633333	1	0.140125
29.650000	1	0.134375
29.666667	1	0.130125
29.683333	1	0.126125
29.700000	1	0.121625
29.716667	1	0.117625
29.733333	1	0.114625
29.750000	1	0.112375
29.766667	1	0.110250
29.783333	1	0.108625
29.800000	1	0.107375
29.816667	1	0.105625
29.833333	1	0.104375
29.850000	1	0.103250
29.866667	1	0.103375
29.883333	1	0.102750
29.900000	1	0.102625
29.916667	1	0.102375
29.933333	1	0.102500
29.950000	1	0.102375
29.966667	1	0.102000
29.983333	1	0.102375
30.000000	1	0.102000
30.016667	1	0.102125
30.033333	1	0.102375
30.050000	1	0.101875
30.066667	1	0.101875
30.083333	1	0.101250
30.100000	1	0.101000
30.116667	1	0.100375
30.133333	1	0.099125
30.150000	1	0.098000
30.166667	1	0.097375
30.183333	1	0.096625
30.200000	1	0.096000
30.216667	1	0.095125
30.233333	1	0.094625
30.250000	1	0.093625
30.266667	1	0.092375
30.283333	1	0.091375
30.300000	1	0.090875
30.316667	1	0.090250
30.333333	1	0.089875
30.350000	1	0.089875
30.366667	1	0.089375
30.383333	1	0.089875
30.400000	1	0.090625
30.416667	1	0.091625
30.433333	1	0.093250
30.450000	1	0.094625
30.466667	1	0.096750
30.483333	1	0.099500
30.500000	1	0.103250
30.516667	1	0.107750
30.533333	1	0.112875
30.550000	1	0.118625
30.566667	1	0.124875
30.583333	1	0.132375
30.600000	1	0.141625
30.616667	1	0.152000
30.633333	1	0.162875
30.650000	1	0.175500
30.666667	1	0.189250
30.683333	1	0.204500
30.700000	1	0.220875
30.716667	1	0.238875
30.733333	1	0.259875
30.750000	1	0.283000
30.766667	1	0.308250
30.783333	1	0.336875
30.800000	1	0.368000
30.816667	1	0.403875
30.833333	1	0.443375
30.850000	1	0.487750
30.866667	1	0.537250
30.883333	1	0.593500
30.900000	1	0.655750
30.916667	1	0.724500
30.933333	1	0.802500
30.950000	1	0.888500
30.966667	1	0.984500
30.983333	1	1.091250
31.000000	1	1.210000
31.016667	1	1.341250
31.033333	1	1.486125
31.050000	1	1.644125
31.066667	1	1.816875
31.083333	1	2.005000
31.100000	1	2.208000
31.116667	1	2.425625
31.133333	1	2.657750
31.150000	1	2.906125
31.166667	1	3.168125
31.183333	1	3.443625
31.200000	1	3.731375
31.216667	1	4.029000
31.233333	1	4.335000
31.250000	1	4.647000
31.266667	1	4.961625
31.283333	1	5.275500
31.300000	1	5.586375
31.316667	1	5.891125
31.333333	1	6.185500
31.350000	1	6.465625
31.366667	1	6.728875
31.383333	1	6.971875
31.400000	1	7.191000
31.416667	1	7.384000
31.433333	1	7.547375
31.450000	1	7.678375
31.466667	1	7.776250
31.483333	1	7.839625
31.500000	1	7.868000
31.516667	1	7.860500
31.533333	1	7.818375
31.550000	1	7.742125
31.566667	1	7.633125
31.583333	1	7.491625
31.600000	1	7.322250
31.616667	1	7.125625
31.633333	1	6.905750
31.650000	1	6.665125
31.666667	1	6.406875
31.683333	1	6.134500
31.700000	1	5.850750
31.716667	1	5.560125
31.733333	1	5.264625
31.750000	1	4.967750
31.766667	1	4.671875
31.783333	1	4.378500
31.800000	1	4.090250
31.816667	1	3.808875
31.833333	1	3.536625
31.850000	1	3.275500
31.866667	1	3.026250
31.883333	1	2.788125
31.900000	1	2.562625
31.916667	1	2.351125
31.933333	1	2.152500
31.950000	1	1.966625
31.966667	1	1.794125
31.983333	1	1.634125
32.000000	1	1.486500
32.016667	1	1.350000
32.033333	1	1.224625
32.050000	1	1.110625
32.066667	1	1.006625
32.083333	1	0.912125
32.100000	1	0.826375
32.116667	1	0.748375
32.133333	1	0.678625
32.150000	1	0.615250
32.166667	1	0.557750
32.183333	1	0.506625
32.200000	1	0.461000
32.216667	1	0.420250
32.233333	1	0.383125
32.250000	1	0.350875
32.266667	1	0.322250
32.283333	1	0.296875
32.300000	1	0.274375
32.316667	1	0.254000
32.333333	1	0.236500
32.350000	1	0.220875
32.366667	1	0.208125
32.383333	1	0.195625
32.400000	1	0.185000
32.416667	1	0.177125
32.433333	1	0.169000
32.450000	1	0.162875
32.466667	1	0.156625
32.483333	1	0.152250
32.500000	1	0.148000
32.516667	1	0.144500
32.533333	1	0.141375
32.550000	1	0.139250
32.566667	1	0.136875
32.583333	1	0.135625
32.600000	1	0.134250
32.616667	1	0.132750
32.633333	1	0.131625
32.650000	1	0.130375
32.666667	1	0.129250
32.683333	1	0.128375
32.700000	1	0.127375
32.716667	1	0.126875
32.733333	1	0.125250
32.750000	1	0.124875
32.766667	1	0.124000
32.783333	1	0.122875
32.800000	1	0.121750
32.816667	1	0.121000
32.833333	1	0.119750
32.850000	1	0.118500
32.866667	1	0.117125
32.883333	1	0.115500
32.900000	1	0.114250
32.916667	1	0.112875
32.933333	1	0.111250
32.950000	1	0.110500
32.966667	1	0.109125
32.983333	1	0.108250
33.000000	1	0.107875
33.016667	1	0.106750
33.033333	1	0.105250
33.050000	1	0.104375
33.066667	1	0.103625
33.083333	1	0.104000
33.100000	1	0.103750
33.116667	1	0.103250
33.133333	1	0.103375
33.150000	1	0.104000
33.166667	1	0.104125
33.183333	1	0.105125
33.200000	1	0.106750
33.216667	1	0.107750
33.233333	1	0.108875
33.250000	1	0.110625
33.266667	1	0.112625
33.283333	1	0.115250
33.300000	1	0.117875
33.316667	1	0.121125
33.333333	1	0.124125
33.350000	1	0.127750
33.366667	1	0.131750
33.383333	1	0.135875
33.400000	1	0.140875
33.416667	1	0.145500
33.433333	1	0.150875
33.450000	1	0.155750
33.466667	1	0.161875
33.483333	1	0.168125
33.500000	1	0.175750
33.516667	1	0.183125
33.533333	1	0.191000
33.550000	1	0.200125
33.566667	1	0.208500
33.583333	1	0.218250
33.600000	1	0.229000
33.616667	1	0.239500
33.633333	1	0.251250
33.650000	1	0.263500
33.666667	1	0.276125
33.683333	1	0.289250
33.700000	1	0.302750
33.716667	1	0.317250
33.733333	1	0.332125
33.750000	1	0.347375
33.766667	1	0.363500
33.783333	1	0.379375
33.800000	1	0.395125
33.816667	1	0.411125
33.833333	1	0.426750
33.850000	1	0.442000
33.866667	1	0.457125
33.883333	1	0.471375
33.900000	1	0.485125
33.916667	1	0.498000
33.933333	1	0.509875
33.950000	1	0.521500
33.966667	1	0.531000
33.983333	1	0.540000
34.000000	1	0.547250
34.016667	1	0.552500
34.033333	1	0.556375
34.050000	1	0.558750
34.066667	1	0.559000
34.083333	1	0.557875
34.100000	1	0.554625
34.116667	1	0.550000
34.133333	1	0.544250
34.150000	1	0.536375
34.166667	1	0.527250
34.183333	1	0.517375
34.200000	1	0.506125
34.216667	1	0.492875
34.233333	1	0.479500
34.250000	1	0.465500
34.266667	1	0.451000
34.283333	1	0.435125
34.300000	1	0.419500
34.316667	1	0.403625
34.333333	1	0.388375
34.350000	1	0.373125
34.366667	1	0.358625
34.383333	1	0.343875
34.400000	1	0.330250
34.416667	1	0.316375
34.433333	1	0.303125
34.450000	1	0.291250
34.466667	1	0.279500
34.483333	1	0.268750
34.500000	1	0.258125
34.516667	1	0.249000
34.533333	1	0.240375
34.550000	1	0.232875
34.566667	1	0.225875
34.583333	1	0.218625
34.600000	1	0.211750
34.616667	1	0.206250
34.633333	1	0.200625
34.650000	1	0.195750
34.666667	1	0.191500
34.683333	1	0.187500
34.700000	1	0.184000
34.716667	1	0.180000
34.733333	1	0.176125
34.750000	1	0.172250
34.766667	1	0.168875
34.783333	1	0.165375
34.800000	1	0.161750
34.816667	1	0.157875
34.833333	1	0.154250
34.850000	1	0.150250
34.866667	1	0.146750
34.883333	1	0.143000
34.900000	1	0.138750
34.916667	1	0.135000
34.933333	1	0.130750
34.950000	1	0.126500
34.966667	1	0.122625
34.983333	1	0.118750
35.000000	1	0.113875
35.016667	1	0.109625
35.033333	1	0.105250
35.050000	1	0.101500
35.066667	1	0.097625
35.083333	1	0.094000
35.100000	1	0.089875
35.116667	1	0.087250
35.133333	1	0.084625
35.150000	1	0.081500
35.166667	1	0.079000
35.183333	1	0.076750
35.200000	1	0.074375
35.216667	1	0.072750
35.233333	1	0.072375
35.250000	1	0.071625
35.266667	1	0.070750
35.283333	1	0.070625
35.300000	1	0.071000
35.316667	1	0.071250
35.333333	1	0.072375
35.350000	1	0.073875
35.366667	1	0.075500
35.383333	1	0.077625
35.400000	1	0.080500
35.416667	1	0.083375
35.433333	1	0.086125
35.450000	1	0.089000
35.466667	1	0.092250
35.483333	1	0.095375
35.500000	1	0.099250
35.516667	1	0.102875
35.533333	1	0.106750
35.550000	1	0.111625
35.566667	1	0.116375
35.583333	1	0.121000
35.600000	1	0.125500
35.616667	1	0.129375
35.633333	1	0.133500
35.650000	1	0.137375
35.666667	1	0.142000
35.683333	1	0.146000
35.700000	1	0.150500
35.716667	1	0.154750
35.733333	1	0.158625
35.750000	1	0.161625
35.766667	1	0.164500
35.783333	1	0.167625
35.800000	1	0.170750
35.816667	1	0.173625
35.833333	1	0.176875
35.850000	1	0.178875
35.866667	1	0.180875
35.883333	1	0.182750
35.900000	1	0.184625
35.916667	1	0.186250
35.933333	1	0.187250
35.950000	1	0.187750
35.966667	1	0.188250
35.983333	1	0.188750
36.000000	1	0.188750
36.016667	1	0.189375
36.033333	1	0.189375
36.050000	1	0.189625
36.066667	1	0.189125
36.083333	1	0.188625
36.100000	1	0.187625
36.116667	1	0.187250
36.133333	1	0.186750
36.150000	1	0.186625
36.166667	1	0.185875
36.183333	1	0.185250
36.200000	1	0.184125
36.216667	1	0.182500
36.233333	1	0.181375
36.250000	1	0.179875
36.266667	1	0.178375
36.283333	1	0.177000
36.300000	1	0.175500
36.316667	1	0.174000
36.333333	1	0.172125
36.350000	1	0.170250
36.366667	1	0.167875
36.383333	1	0.165000
36.400000	1	0.162250
36.416667	1	0.160125
36.433333	1	0.157375
36.450000	1	0.155375
36.466667	1	0.152750
36.483333	1	0.150375
36.500000	1	0.148500
36.516667	1	0.145125
36.533333	1	0.142000
36.550000	1	0.139000
36.566667	1	0.135875
36.583333	1	0.132375
36.600000	1	0.129000
36.616667	1	0.125750
36.633333	1	0.122375
36.650000	1	0.119500
36.666667	1	0.116125
36.683333	1	0.113500
36.700000	1	0.111375
36.716667	1	0.109250
36.733333	1	0.106250
36.750000	1	0.104000
36.766667	1	0.101000
36.783333	1	0.097750
36.800000	1	0.094875
36.816667	1	0.091875
36.833333	1	0.089250
36.850000	1	0.086875
36.866667	1	0.084750
36.883333	1	0.082625
36.900000	1	0.079875
36.916667	1	0.076875
36.933333	1	0.074125
36.950000	1	0.071875
36.966667	1	0.069500
36.983333	1	0.067125
37.000000	1	0.065250
37.016667	1	0.062625
37.033333	1	0.060375
37.050000	1	0.058250
37.066667	1	0.056750
37.083333	1	0.055000
37.100000	1	0.053500
37.116667	1	0.052125
37.133333	1	0.050750
37.150000	1	0.049500
37.166667	1	0.049250
37.183333	1	0.048500
37.200000	1	0.048625
37.216667	1	0.049000
37.233333	1	0.049625
37.250000	1	0.049500
37.266667	1	0.050375
37.283333	1	0.051375
37.300000	1	0.052750
37.316667	1	0.053625
37.333333	1	0.054750
37.350000	1	0.056125
37.366667	1	0.057625
37.383333	1	0.058875
37.400000	1	0.059875
37.416667	1	0.060125
37.433333	1	0.061250
37.450000	1	0.062500
37.466667	1	0.063375
37.483333	1	0.064625
37.500000	1	0.064875
37.516667	1	0.064875
37.533333	1	0.065000
37.550000	1	0.064875
37.566667	1	0.064750
37.583333	1	0.064500
37.600000	1	0.063875
37.616667	1	0.063125
37.633333	1	0.062000
37.650000	1	0.061250
37.666667	1	0.060125
37.683333	1	0.059875
37.700000	1	0.059375
37.716667	1	0.059000
37.733333	1	0.058250
37.750000	1	0.057125
37.766667	1	0.056625
37.783333	1	0.056000
37.800000	1	0.056250
37.816667	1	0.056250
37.833333	1	0.056125
37.850000	1	0.056250
37.866667	1	0.057375
37.883333	1	0.058000
37.900000	1	0.059000
37.916667	1	0.059750
37.933333	1	0.061250
37.950000	1	0.062625
37.966667	1	0.063625
37.983333	1	0.064250
38.000000	1	0.065125
38.016667	1	0.066125
38.033333	1	0.067750
38.050000	1	0.068750
38.066667	1	0.069750
38.083333	1	0.071625
38.100000	1	0.072750
38.116667	1	0.074125
38.133333	1	0.075000
38.150000	1	0.075875
38.166667	1	0.076375
38.183333	1	0.077000
38.200000	1	0.078250
38.216667	1	0.079375
38.233333	1	0.080375
38.250000	1	0.080750
38.266667	1	0.082000
38.283333	1	0.083500
38.300000	1	0.084625
38.316667	1	0.085125
38.333333	1	0.086000
38.350000	1	0.086875
38.366667	1	0.087500
38.383333	1	0.088750
38.400000	1	0.090375
38.416667	1	0.091250
38.433333	1	0.092375
38.450000	1	0.094000
38.466667	1	0.095000
38.483333	1	0.096375
38.500000	1	0.098125
38.516667	1	0.099375
38.533333	1	0.100125
38.550000	1	0.101750
38.566667	1	0.102250
38.583333	1	0.103000
38.600000	1	0.104125
38.616667	1	0.104625
38.633333	1	0.105125
38.650000	1	0.105625
38.666667	1	0.104500
38.683333	1	0.104125
38.700000	1	0.103250
38.716667	1	0.102125
38.733333	1	0.100250
38.750000	1	0.099000
38.766667	1	0.096625
38.783333	1	0.094250
38.800000	1	0.091625
38.816667	1	0.088750
38.833333	1	0.085250
38.850000	1	0.082000
38.866667	1	0.078125
38.883333	1	0.074500
38.900000	1	0.071000
38.916667	1	0.066500
38.933333	1	0.062000
38.950000	1	0.058000
38.966667	1	0.054000
38.983333	1	0.050125
39.000000	1	0.045875
39.016667	1	0.041125
39.033333	1	0.037250
39.050000	1	0.033875
39.066667	1	0.030875
39.083333	1	0.027625
39.100000	1	0.024375
39.116667	1	0.021875
39.133333	1	0.019375
39.150000	1	0.017125
39.166667	1	0.015000
39.183333	1	0.012875
39.200000	1	0.011000
39.216667	1	0.010500
39.233333	1	0.009375
39.250000	1	0.008875
39.266667	1	0.008250
39.283333	1	0.007875
39.300000	1	0.008125
39.316667	1	0.007875
39.333333	1	0.008250
39.350000	1	0.008125
39.366667	1	0.008250
39.383333	1	0.008375
39.400000	1	0.008250
39.416667	1	0.008000
39.433333	1	0.008125
39.450000	1	0.007500
39.466667	1	0.008125
39.483333	1	0.008125
39.500000	1	0.008000
39.516667	1	0.008125
39.533333	1	0.007625
39.550000	1	0.006000
39.566667	1	0.005250
39.583333	1	0.003625
39.600000	1	0.002000
39.616667	1	0.000500
39.633333	1	-0.000625
39.650000	1	-0.001500
39.666667	1	-0.002875
39.683333	1	-0.004375
39.700000	1	-0.006625
39.716667	1	-0.008375
39.733333	1	-0.010000
39.750000	1	-0.012000
39.766667	1	-0.013750
39.783333	1	-0.015750
39.800000	1	-0.017875
39.816667	1	-0.019500
39.833333	1	-0.021375
39.850000	1	-0.023125
39.866667	1	-0.023750
39.883333	1	-0.024750
39.900000	1	-0.026375
39.916667	1	-0.027125
39.933333	1	-0.028125
39.950000	1	-0.028750
39.966667	1	-0.028875
39.983333	1	-0.028875
40.000000	1	-0.028000
