URL	chrom://bioreactor/micro_cm7/HPLC_Ultimate_3000/Users/markusar/20240716_MA_pHrange2.seq/299.smp/RI_1.channel/RI_1.chm
Channel	RI_1

Injection Information:
Data Vault	micro_cm7
Sequence	20240716_MA_pHrange2
Name	Fp2_25H_1
Number	29
Position	BC5
Comment	
Processing Method	
Instrument Method	run_25B_method
Type	Unknown
Status	Finished
Inject Time	17.07.2024 13:13:39 +02:00
Volume (µl)	20.0000
Dilution Factor	1.0000
Weight	1.0000

Chromatogram Data Information:
Time Min. (min)	0.000000
Time Max. (min)	40.000000
Data Points	2401
Detector	RI
Generating Data System	Chromeleon 7.3.2.11814
Exporting Data System	Chromeleon 7.3.2.0
Operator	Instrument Controller
Signal Quantity	Refractive 
Signal Unit	µRIU
Signal Min.	-0.122000
Signal Max.	85.485375
Channel	RI_1
Driver Name	RID520Driver.dll
Channel Type	Evaluation
Min. Step (s)	1
Max. Step (s)	1
Average Step (s)	1

Signal Parameter Information:
Signal Info	

Chromatogram Data:
Time (min)	Step (s)	Value (µRIU)
0.000000	n.a.	-0.055625
0.016667	1	-0.053250
0.033333	1	-0.050000
0.050000	1	-0.046125
0.066667	1	-0.042250
0.083333	1	-0.038000
0.100000	1	-0.035000
0.116667	1	-0.031875
0.133333	1	-0.028375
0.150000	1	-0.025250
0.166667	1	-0.021875
0.183333	1	-0.019000
0.200000	1	-0.016625
0.216667	1	-0.014000
0.233333	1	-0.011125
0.250000	1	-0.008750
0.266667	1	-0.006875
0.283333	1	-0.004875
0.300000	1	-0.003250
0.316667	1	-0.001625
0.333333	1	-0.000375
0.350000	1	0.000625
0.366667	1	0.001500
0.383333	1	0.001750
0.400000	1	0.001500
0.416667	1	0.001750
0.433333	1	0.003000
0.450000	1	0.004375
0.466667	1	0.006125
0.483333	1	0.007000
0.500000	1	0.007500
0.516667	1	0.007875
0.533333	1	0.006000
0.550000	1	0.003875
0.566667	1	0.000375
0.583333	1	-0.003375
0.600000	1	-0.006875
0.616667	1	-0.010500
0.633333	1	-0.014625
0.650000	1	-0.018625
0.666667	1	-0.021750
0.683333	1	-0.025250
0.700000	1	-0.028750
0.716667	1	-0.032625
0.733333	1	-0.035875
0.750000	1	-0.039500
0.766667	1	-0.043250
0.783333	1	-0.047375
0.800000	1	-0.050375
0.816667	1	-0.054125
0.833333	1	-0.057875
0.850000	1	-0.061000
0.866667	1	-0.064625
0.883333	1	-0.067375
0.900000	1	-0.070000
0.916667	1	-0.072500
0.933333	1	-0.075125
0.950000	1	-0.077875
0.966667	1	-0.080250
0.983333	1	-0.081500
1.000000	1	-0.083125
1.016667	1	-0.084500
1.033333	1	-0.085125
1.050000	1	-0.085875
1.066667	1	-0.085750
1.083333	1	-0.085625
1.100000	1	-0.085625
1.116667	1	-0.084500
1.133333	1	-0.083250
1.150000	1	-0.081625
1.166667	1	-0.080250
1.183333	1	-0.077750
1.200000	1	-0.075875
1.216667	1	-0.073000
1.233333	1	-0.069250
1.250000	1	-0.065500
1.266667	1	-0.062500
1.283333	1	-0.059375
1.300000	1	-0.054750
1.316667	1	-0.050875
1.333333	1	-0.046500
1.350000	1	-0.042000
1.366667	1	-0.038375
1.383333	1	-0.034125
1.400000	1	-0.028750
1.416667	1	-0.024250
1.433333	1	-0.019000
1.450000	1	-0.014250
1.466667	1	-0.009250
1.483333	1	-0.005125
1.500000	1	-0.001250
1.516667	1	0.003000
1.533333	1	0.007875
1.550000	1	0.012000
1.566667	1	0.016500
1.583333	1	0.020750
1.600000	1	0.024000
1.616667	1	0.027750
1.633333	1	0.031000
1.650000	1	0.033875
1.666667	1	0.036375
1.683333	1	0.038875
1.700000	1	0.040500
1.716667	1	0.042625
1.733333	1	0.044375
1.750000	1	0.045750
1.766667	1	0.046500
1.783333	1	0.047750
1.800000	1	0.048875
1.816667	1	0.049500
1.833333	1	0.050000
1.850000	1	0.050250
1.866667	1	0.050750
1.883333	1	0.051000
1.900000	1	0.050875
1.916667	1	0.049875
1.933333	1	0.048875
1.950000	1	0.047500
1.966667	1	0.046625
1.983333	1	0.046000
2.000000	1	0.045375
2.016667	1	0.044000
2.033333	1	0.043250
2.050000	1	0.041750
2.066667	1	0.040750
2.083333	1	0.039125
2.100000	1	0.037625
2.116667	1	0.035500
2.133333	1	0.034000
2.150000	1	0.032250
2.166667	1	0.030500
2.183333	1	0.028750
2.200000	1	0.026750
2.216667	1	0.025000
2.233333	1	0.023125
2.250000	1	0.021750
2.266667	1	0.019375
2.283333	1	0.017625
2.300000	1	0.016250
2.316667	1	0.014375
2.333333	1	0.012625
2.350000	1	0.011000
2.366667	1	0.009125
2.383333	1	0.007500
2.400000	1	0.005875
2.416667	1	0.004375
2.433333	1	0.003375
2.450000	1	0.002125
2.466667	1	0.000375
2.483333	1	-0.001000
2.500000	1	-0.002125
2.516667	1	-0.003250
2.533333	1	-0.004625
2.550000	1	-0.005250
2.566667	1	-0.006000
2.583333	1	-0.007125
2.600000	1	-0.007750
2.616667	1	-0.009125
2.633333	1	-0.009000
2.650000	1	-0.009250
2.666667	1	-0.010125
2.683333	1	-0.010250
2.700000	1	-0.010625
2.716667	1	-0.011625
2.733333	1	-0.011875
2.750000	1	-0.012125
2.766667	1	-0.012000
2.783333	1	-0.011750
2.800000	1	-0.011500
2.816667	1	-0.011250
2.833333	1	-0.010625
2.850000	1	-0.009750
2.866667	1	-0.009000
2.883333	1	-0.008750
2.900000	1	-0.008375
2.916667	1	-0.007875
2.933333	1	-0.007375
2.950000	1	-0.006375
2.966667	1	-0.005750
2.983333	1	-0.004375
3.000000	1	-0.003125
3.016667	1	-0.002125
3.033333	1	-0.001375
3.050000	1	-0.000375
3.066667	1	0.000500
3.083333	1	0.001500
3.100000	1	0.002250
3.116667	1	0.003125
3.133333	1	0.004250
3.150000	1	0.004625
3.166667	1	0.005625
3.183333	1	0.006250
3.200000	1	0.006750
3.216667	1	0.008000
3.233333	1	0.008875
3.250000	1	0.009625
3.266667	1	0.010750
3.283333	1	0.011875
3.300000	1	0.013000
3.316667	1	0.013000
3.333333	1	0.013375
3.350000	1	0.014500
3.366667	1	0.015000
3.383333	1	0.016250
3.400000	1	0.017125
3.416667	1	0.018125
3.433333	1	0.018375
3.450000	1	0.018875
3.466667	1	0.019875
3.483333	1	0.020625
3.500000	1	0.021375
3.516667	1	0.022500
3.533333	1	0.023125
3.550000	1	0.024125
3.566667	1	0.025625
3.583333	1	0.026500
3.600000	1	0.027750
3.616667	1	0.029375
3.633333	1	0.030250
3.650000	1	0.031125
3.666667	1	0.032625
3.683333	1	0.034000
3.700000	1	0.035500
3.716667	1	0.036875
3.733333	1	0.038000
3.750000	1	0.038125
3.766667	1	0.039750
3.783333	1	0.040625
3.800000	1	0.041250
3.816667	1	0.041500
3.833333	1	0.042250
3.850000	1	0.043000
3.866667	1	0.043000
3.883333	1	0.043500
3.900000	1	0.043500
3.916667	1	0.042750
3.933333	1	0.042250
3.950000	1	0.041625
3.966667	1	0.041125
3.983333	1	0.039750
4.000000	1	0.038875
4.016667	1	0.037625
4.033333	1	0.036375
4.050000	1	0.035625
4.066667	1	0.034125
4.083333	1	0.032250
4.100000	1	0.030750
4.116667	1	0.029000
4.133333	1	0.027250
4.150000	1	0.024750
4.166667	1	0.023000
4.183333	1	0.020875
4.200000	1	0.019500
4.216667	1	0.018125
4.233333	1	0.016625
4.250000	1	0.015000
4.266667	1	0.013875
4.283333	1	0.013000
4.300000	1	0.012125
4.316667	1	0.011625
4.333333	1	0.011125
4.350000	1	0.010875
4.366667	1	0.010625
4.383333	1	0.011375
4.400000	1	0.011750
4.416667	1	0.012250
4.433333	1	0.013000
4.450000	1	0.013625
4.466667	1	0.014375
4.483333	1	0.015750
4.500000	1	0.016250
4.516667	1	0.017625
4.533333	1	0.018750
4.550000	1	0.019500
4.566667	1	0.021125
4.583333	1	0.022500
4.600000	1	0.024125
4.616667	1	0.025750
4.633333	1	0.027000
4.650000	1	0.029000
4.666667	1	0.029875
4.683333	1	0.031375
4.700000	1	0.033000
4.716667	1	0.034875
4.733333	1	0.036875
4.750000	1	0.039125
4.766667	1	0.040875
4.783333	1	0.042625
4.800000	1	0.045375
4.816667	1	0.047750
4.833333	1	0.049875
4.850000	1	0.053000
4.866667	1	0.056000
4.883333	1	0.059875
4.900000	1	0.063375
4.916667	1	0.066500
4.933333	1	0.070500
4.950000	1	0.074875
4.966667	1	0.079750
4.983333	1	0.084000
5.000000	1	0.089000
5.016667	1	0.094250
5.033333	1	0.098375
5.050000	1	0.103125
5.066667	1	0.107875
5.083333	1	0.113375
5.100000	1	0.118250
5.116667	1	0.123500
5.133333	1	0.127750
5.150000	1	0.132125
5.166667	1	0.136500
5.183333	1	0.141250
5.200000	1	0.145125
5.216667	1	0.149000
5.233333	1	0.152000
5.250000	1	0.154500
5.266667	1	0.158000
5.283333	1	0.160000
5.300000	1	0.161875
5.316667	1	0.163125
5.333333	1	0.164375
5.350000	1	0.165500
5.366667	1	0.165625
5.383333	1	0.164750
5.400000	1	0.164875
5.416667	1	0.163500
5.433333	1	0.162125
5.450000	1	0.159625
5.466667	1	0.156875
5.483333	1	0.154250
5.500000	1	0.150000
5.516667	1	0.145750
5.533333	1	0.141125
5.550000	1	0.137000
5.566667	1	0.132500
5.583333	1	0.127500
5.600000	1	0.122750
5.616667	1	0.117500
5.633333	1	0.111000
5.650000	1	0.105000
5.666667	1	0.099000
5.683333	1	0.092625
5.700000	1	0.087000
5.716667	1	0.081125
5.733333	1	0.075375
5.750000	1	0.070750
5.766667	1	0.065750
5.783333	1	0.059750
5.800000	1	0.054625
5.816667	1	0.049625
5.833333	1	0.045750
5.850000	1	0.041125
5.866667	1	0.036875
5.883333	1	0.033000
5.900000	1	0.029875
5.916667	1	0.026875
5.933333	1	0.024750
5.950000	1	0.022375
5.966667	1	0.021000
5.983333	1	0.018875
6.000000	1	0.017500
6.016667	1	0.017125
6.033333	1	0.016625
6.050000	1	0.017250
6.066667	1	0.017250
6.083333	1	0.017875
6.100000	1	0.018750
6.116667	1	0.020250
6.133333	1	0.021625
6.150000	1	0.023750
6.166667	1	0.025000
6.183333	1	0.026750
6.200000	1	0.028500
6.216667	1	0.030875
6.233333	1	0.032875
6.250000	1	0.035000
6.266667	1	0.036875
6.283333	1	0.039375
6.300000	1	0.041875
6.316667	1	0.043625
6.333333	1	0.045500
6.350000	1	0.047375
6.366667	1	0.049875
6.383333	1	0.051750
6.400000	1	0.053000
6.416667	1	0.054375
6.433333	1	0.056250
6.450000	1	0.056750
6.466667	1	0.058250
6.483333	1	0.058875
6.500000	1	0.059625
6.516667	1	0.060000
6.533333	1	0.060875
6.550000	1	0.061875
6.566667	1	0.063000
6.583333	1	0.063750
6.600000	1	0.064000
6.616667	1	0.064875
6.633333	1	0.064750
6.650000	1	0.064125
6.666667	1	0.064375
6.683333	1	0.063875
6.700000	1	0.063875
6.716667	1	0.064125
6.733333	1	0.064125
6.750000	1	0.064500
6.766667	1	0.064875
6.783333	1	0.065125
6.800000	1	0.064875
6.816667	1	0.065375
6.833333	1	0.066000
6.850000	1	0.066625
6.866667	1	0.066625
6.883333	1	0.066500
6.900000	1	0.066625
6.916667	1	0.067250
6.933333	1	0.068375
6.950000	1	0.069125
6.966667	1	0.069875
6.983333	1	0.070750
7.000000	1	0.071500
7.016667	1	0.071875
7.033333	1	0.072875
7.050000	1	0.073375
7.066667	1	0.074875
7.083333	1	0.075250
7.100000	1	0.075875
7.116667	1	0.076375
7.133333	1	0.076250
7.150000	1	0.076625
7.166667	1	0.076125
7.183333	1	0.076125
7.200000	1	0.075750
7.216667	1	0.075375
7.233333	1	0.074000
7.250000	1	0.072875
7.266667	1	0.071125
7.283333	1	0.069125
7.300000	1	0.066500
7.316667	1	0.064500
7.333333	1	0.061750
7.350000	1	0.059000
7.366667	1	0.055625
7.383333	1	0.052125
7.400000	1	0.048875
7.416667	1	0.045875
7.433333	1	0.041750
7.450000	1	0.037375
7.466667	1	0.032875
7.483333	1	0.028375
7.500000	1	0.024625
7.516667	1	0.021000
7.533333	1	0.017375
7.550000	1	0.013250
7.566667	1	0.010000
7.583333	1	0.006500
7.600000	1	0.002625
7.616667	1	-0.000250
7.633333	1	-0.003125
7.650000	1	-0.006250
7.666667	1	-0.008750
7.683333	1	-0.011375
7.700000	1	-0.013500
7.716667	1	-0.015375
7.733333	1	-0.017250
7.750000	1	-0.019125
7.766667	1	-0.021000
7.783333	1	-0.022625
7.800000	1	-0.024500
7.816667	1	-0.025750
7.833333	1	-0.026250
7.850000	1	-0.027500
7.866667	1	-0.028125
7.883333	1	-0.029000
7.900000	1	-0.030125
7.916667	1	-0.030625
7.933333	1	-0.030875
7.950000	1	-0.031125
7.966667	1	-0.032250
7.983333	1	-0.032625
8.000000	1	-0.032875
8.016667	1	-0.033500
8.033333	1	-0.034000
8.050000	1	-0.034500
8.066667	1	-0.034625
8.083333	1	-0.035125
8.100000	1	-0.035750
8.116667	1	-0.035500
8.133333	1	-0.035750
8.150000	1	-0.036375
8.166667	1	-0.037000
8.183333	1	-0.037000
8.200000	1	-0.036750
8.216667	1	-0.037000
8.233333	1	-0.037125
8.250000	1	-0.037375
8.266667	1	-0.037375
8.283333	1	-0.037000
8.300000	1	-0.036625
8.316667	1	-0.035125
8.333333	1	-0.034125
8.350000	1	-0.033125
8.366667	1	-0.031875
8.383333	1	-0.029750
8.400000	1	-0.028125
8.416667	1	-0.026750
8.433333	1	-0.025125
8.450000	1	-0.022750
8.466667	1	-0.020000
8.483333	1	-0.017625
8.500000	1	-0.014750
8.516667	1	-0.012250
8.533333	1	-0.009750
8.550000	1	-0.006750
8.566667	1	-0.004250
8.583333	1	-0.001250
8.600000	1	0.001500
8.616667	1	0.004625
8.633333	1	0.007375
8.650000	1	0.009875
8.666667	1	0.012500
8.683333	1	0.015250
8.700000	1	0.017375
8.716667	1	0.018875
8.733333	1	0.020625
8.750000	1	0.022500
8.766667	1	0.024000
8.783333	1	0.024750
8.800000	1	0.026000
8.816667	1	0.026000
8.833333	1	0.026500
8.850000	1	0.026750
8.866667	1	0.026750
8.883333	1	0.025625
8.900000	1	0.025125
8.916667	1	0.024000
8.933333	1	0.022250
8.950000	1	0.020500
8.966667	1	0.018625
8.983333	1	0.015375
9.000000	1	0.012750
9.016667	1	0.009250
9.033333	1	0.005875
9.050000	1	0.002625
9.066667	1	-0.000750
9.083333	1	-0.004375
9.100000	1	-0.008000
9.116667	1	-0.012375
9.133333	1	-0.016125
9.150000	1	-0.019500
9.166667	1	-0.022750
9.183333	1	-0.027000
9.200000	1	-0.031250
9.216667	1	-0.034875
9.233333	1	-0.038750
9.250000	1	-0.042625
9.266667	1	-0.046250
9.283333	1	-0.050125
9.300000	1	-0.053375
9.316667	1	-0.056875
9.333333	1	-0.059250
9.350000	1	-0.061875
9.366667	1	-0.064375
9.383333	1	-0.066500
9.400000	1	-0.068500
9.416667	1	-0.069625
9.433333	1	-0.071000
9.450000	1	-0.071625
9.466667	1	-0.072000
9.483333	1	-0.072375
9.500000	1	-0.072625
9.516667	1	-0.072250
9.533333	1	-0.071125
9.550000	1	-0.070125
9.566667	1	-0.068625
9.583333	1	-0.067000
9.600000	1	-0.065625
9.616667	1	-0.063875
9.633333	1	-0.062250
9.650000	1	-0.060625
9.666667	1	-0.058500
9.683333	1	-0.056000
9.700000	1	-0.052750
9.716667	1	-0.050625
9.733333	1	-0.048250
9.750000	1	-0.046125
9.766667	1	-0.043375
9.783333	1	-0.041000
9.800000	1	-0.038250
9.816667	1	-0.035750
9.833333	1	-0.033125
9.850000	1	-0.030625
9.866667	1	-0.028000
9.883333	1	-0.025375
9.900000	1	-0.023500
9.916667	1	-0.021000
9.933333	1	-0.019000
9.950000	1	-0.016750
9.966667	1	-0.015000
9.983333	1	-0.014250
10.000000	1	-0.012875
10.016667	1	-0.013000
10.033333	1	-0.011625
10.050000	1	-0.010500
10.066667	1	-0.009750
10.083333	1	-0.009375
10.100000	1	-0.008750
10.116667	1	-0.008500
10.133333	1	-0.007625
10.150000	1	-0.006125
10.166667	1	-0.004375
10.183333	1	-0.002000
10.200000	1	0.001250
10.216667	1	0.005625
10.233333	1	0.011500
10.250000	1	0.020000
10.266667	1	0.029375
10.283333	1	0.040500
10.300000	1	0.053375
10.316667	1	0.068000
10.333333	1	0.084250
10.350000	1	0.100375
10.366667	1	0.114625
10.383333	1	0.123500
10.400000	1	0.123375
10.416667	1	0.110250
10.433333	1	0.081250
10.450000	1	0.033875
10.466667	1	-0.025250
10.483333	1	-0.084625
10.500000	1	-0.122000
10.516667	1	-0.103250
10.533333	1	0.018250
10.550000	1	0.296125
10.566667	1	0.792750
10.583333	1	1.569875
10.600000	1	2.688125
10.616667	1	4.202250
10.633333	1	6.155500
10.650000	1	8.575000
10.666667	1	11.486125
10.683333	1	14.897625
10.700000	1	18.809750
10.716667	1	23.209000
10.733333	1	28.072500
10.750000	1	33.366500
10.766667	1	39.045000
10.783333	1	45.046875
10.800000	1	51.295375
10.816667	1	57.676875
10.833333	1	64.025875
10.850000	1	70.100000
10.866667	1	75.548125
10.883333	1	79.883625
10.900000	1	82.505750
10.916667	1	82.810500
10.933333	1	80.389500
10.950000	1	75.231500
10.966667	1	67.811750
10.983333	1	58.970375
11.000000	1	49.672125
11.016667	1	40.748000
11.033333	1	32.759125
11.050000	1	25.960625
11.066667	1	20.385500
11.083333	1	15.939000
11.100000	1	12.466625
11.116667	1	9.798500
11.133333	1	7.772625
11.150000	1	6.246875
11.166667	1	5.102125
11.183333	1	4.243750
11.200000	1	3.599500
11.216667	1	3.111250
11.233333	1	2.739250
11.250000	1	2.452125
11.266667	1	2.228625
11.283333	1	2.050500
11.300000	1	1.906000
11.316667	1	1.786875
11.333333	1	1.685625
11.350000	1	1.597375
11.366667	1	1.520500
11.383333	1	1.451500
11.400000	1	1.389750
11.416667	1	1.333750
11.433333	1	1.283375
11.450000	1	1.238500
11.466667	1	1.198750
11.483333	1	1.162500
11.500000	1	1.131750
11.516667	1	1.104875
11.533333	1	1.082125
11.550000	1	1.064500
11.566667	1	1.051375
11.583333	1	1.042375
11.600000	1	1.038125
11.616667	1	1.038750
11.633333	1	1.044375
11.650000	1	1.054875
11.666667	1	1.069750
11.683333	1	1.089000
11.700000	1	1.111375
11.716667	1	1.136250
11.733333	1	1.163000
11.750000	1	1.188250
11.766667	1	1.212125
11.783333	1	1.231875
11.800000	1	1.247250
11.816667	1	1.257000
11.833333	1	1.260750
11.850000	1	1.258250
11.866667	1	1.249375
11.883333	1	1.236250
11.900000	1	1.218500
11.916667	1	1.197125
11.933333	1	1.174125
11.950000	1	1.150500
11.966667	1	1.127375
11.983333	1	1.104625
12.000000	1	1.084000
12.016667	1	1.065500
12.033333	1	1.049500
12.050000	1	1.035000
12.066667	1	1.022750
12.083333	1	1.013125
12.100000	1	1.005250
12.116667	1	0.999125
12.133333	1	0.994750
12.150000	1	0.991875
12.166667	1	0.989875
12.183333	1	0.988625
12.200000	1	0.989125
12.216667	1	0.990375
12.233333	1	0.994250
12.250000	1	1.000000
12.266667	1	1.009125
12.283333	1	1.022250
12.300000	1	1.042000
12.316667	1	1.071750
12.333333	1	1.114125
12.350000	1	1.175125
12.366667	1	1.262750
12.383333	1	1.388250
12.400000	1	1.565625
12.416667	1	1.813750
12.433333	1	2.158000
12.450000	1	2.630375
12.466667	1	3.273500
12.483333	1	4.139750
12.500000	1	5.290750
12.516667	1	6.799000
12.533333	1	8.742250
12.550000	1	11.202750
12.566667	1	14.262000
12.583333	1	17.991125
12.600000	1	22.433000
12.616667	1	27.590750
12.633333	1	33.430625
12.650000	1	39.862125
12.666667	1	46.735125
12.683333	1	53.832000
12.700000	1	60.876750
12.716667	1	67.558125
12.733333	1	73.552625
12.750000	1	78.558250
12.766667	1	82.319750
12.783333	1	84.658000
12.800000	1	85.485375
12.816667	1	84.820875
12.833333	1	82.774250
12.850000	1	79.535500
12.866667	1	75.354375
12.883333	1	70.518875
12.900000	1	65.325875
12.916667	1	60.052750
12.933333	1	54.939500
12.950000	1	50.174500
12.966667	1	45.885000
12.983333	1	42.148500
13.000000	1	38.996875
13.016667	1	36.422500
13.033333	1	34.391875
13.050000	1	32.854375
13.066667	1	31.756375
13.083333	1	31.037625
13.100000	1	30.642625
13.116667	1	30.519250
13.133333	1	30.622250
13.150000	1	30.911625
13.166667	1	31.353750
13.183333	1	31.922625
13.200000	1	32.593625
13.216667	1	33.349125
13.233333	1	34.175750
13.250000	1	35.063625
13.266667	1	36.004375
13.283333	1	36.992000
13.300000	1	38.020500
13.316667	1	39.087125
13.333333	1	40.187625
13.350000	1	41.320625
13.366667	1	42.485250
13.383333	1	43.680500
13.400000	1	44.903625
13.416667	1	46.155750
13.433333	1	47.437250
13.450000	1	48.749500
13.466667	1	50.091625
13.483333	1	51.465625
13.500000	1	52.869375
13.516667	1	54.305000
13.533333	1	55.771375
13.550000	1	57.268875
13.566667	1	58.797625
13.583333	1	60.357000
13.600000	1	61.946625
13.616667	1	63.568000
13.633333	1	65.223375
13.650000	1	66.914500
13.666667	1	68.641250
13.683333	1	70.405000
13.700000	1	72.205625
13.716667	1	74.041875
13.733333	1	75.912250
13.750000	1	77.803000
13.766667	1	79.664875
13.783333	1	81.372625
13.800000	1	82.722250
13.816667	1	83.468750
13.833333	1	83.389125
13.850000	1	82.306125
13.866667	1	80.050750
13.883333	1	76.412375
13.900000	1	71.178125
13.916667	1	64.287375
13.933333	1	56.037000
13.950000	1	47.120500
13.966667	1	38.412250
13.983333	1	30.643750
14.000000	1	24.184375
14.016667	1	19.061250
14.033333	1	15.109875
14.050000	1	12.107375
14.066667	1	9.848375
14.083333	1	8.164250
14.100000	1	6.917750
14.116667	1	5.999500
14.133333	1	5.322125
14.150000	1	4.819750
14.166667	1	4.441250
14.183333	1	4.151000
14.200000	1	3.923500
14.216667	1	3.741000
14.233333	1	3.591250
14.250000	1	3.464500
14.266667	1	3.355125
14.283333	1	3.259875
14.300000	1	3.175125
14.316667	1	3.098250
14.333333	1	3.027875
14.350000	1	2.963500
14.366667	1	2.904250
14.383333	1	2.849125
14.400000	1	2.797625
14.416667	1	2.749750
14.433333	1	2.705375
14.450000	1	2.664125
14.466667	1	2.626125
14.483333	1	2.590625
14.500000	1	2.557500
14.516667	1	2.525625
14.533333	1	2.496000
14.550000	1	2.467375
14.566667	1	2.440750
14.583333	1	2.413375
14.600000	1	2.386875
14.616667	1	2.360750
14.633333	1	2.334250
14.650000	1	2.307375
14.666667	1	2.279875
14.683333	1	2.251875
14.700000	1	2.223375
14.716667	1	2.194250
14.733333	1	2.165500
14.750000	1	2.136875
14.766667	1	2.108250
14.783333	1	2.079000
14.800000	1	2.050125
14.816667	1	2.022125
14.833333	1	1.994875
14.850000	1	1.967875
14.866667	1	1.941750
14.883333	1	1.916500
14.900000	1	1.891000
14.916667	1	1.866375
14.933333	1	1.842500
14.950000	1	1.818375
14.966667	1	1.794500
14.983333	1	1.772125
15.000000	1	1.750750
15.016667	1	1.728375
15.033333	1	1.706750
15.050000	1	1.686000
15.066667	1	1.666625
15.083333	1	1.646625
15.100000	1	1.628250
15.116667	1	1.609875
15.133333	1	1.592750
15.150000	1	1.576000
15.166667	1	1.560250
15.183333	1	1.545625
15.200000	1	1.532125
15.216667	1	1.519250
15.233333	1	1.508125
15.250000	1	1.498500
15.266667	1	1.490750
15.283333	1	1.485125
15.300000	1	1.481000
15.316667	1	1.479875
15.333333	1	1.481625
15.350000	1	1.487250
15.366667	1	1.496500
15.383333	1	1.510250
15.400000	1	1.527750
15.416667	1	1.550250
15.433333	1	1.576625
15.450000	1	1.606125
15.466667	1	1.637375
15.483333	1	1.670625
15.500000	1	1.704375
15.516667	1	1.735875
15.533333	1	1.764000
15.550000	1	1.786750
15.566667	1	1.802250
15.583333	1	1.810500
15.600000	1	1.810250
15.616667	1	1.801500
15.633333	1	1.784375
15.650000	1	1.759875
15.666667	1	1.729125
15.683333	1	1.694750
15.700000	1	1.656500
15.716667	1	1.617250
15.733333	1	1.577125
15.750000	1	1.537625
15.766667	1	1.499000
15.783333	1	1.462125
15.800000	1	1.427125
15.816667	1	1.392750
15.833333	1	1.360750
15.850000	1	1.329250
15.866667	1	1.298750
15.883333	1	1.269875
15.900000	1	1.241500
15.916667	1	1.213875
15.933333	1	1.187875
15.950000	1	1.163250
15.966667	1	1.140875
15.983333	1	1.120250
16.000000	1	1.101375
16.016667	1	1.085000
16.033333	1	1.070500
16.050000	1	1.057875
16.066667	1	1.047875
16.083333	1	1.039375
16.100000	1	1.033875
16.116667	1	1.029500
16.133333	1	1.026375
16.150000	1	1.024250
16.166667	1	1.023375
16.183333	1	1.022750
16.200000	1	1.023000
16.216667	1	1.023375
16.233333	1	1.023500
16.250000	1	1.023750
16.266667	1	1.022875
16.283333	1	1.021750
16.300000	1	1.019500
16.316667	1	1.016875
16.333333	1	1.013125
16.350000	1	1.009375
16.366667	1	1.005750
16.383333	1	1.001750
16.400000	1	0.996875
16.416667	1	0.992625
16.433333	1	0.988250
16.450000	1	0.985250
16.466667	1	0.983125
16.483333	1	0.980875
16.500000	1	0.980625
16.516667	1	0.982625
16.533333	1	0.986625
16.550000	1	0.991750
16.566667	1	0.998125
16.583333	1	1.006750
16.600000	1	1.016375
16.616667	1	1.026875
16.633333	1	1.037500
16.650000	1	1.047625
16.666667	1	1.058125
16.683333	1	1.067625
16.700000	1	1.076750
16.716667	1	1.084875
16.733333	1	1.091750
16.750000	1	1.098250
16.766667	1	1.104000
16.783333	1	1.109250
16.800000	1	1.114375
16.816667	1	1.119875
16.833333	1	1.125625
16.850000	1	1.131500
16.866667	1	1.137000
16.883333	1	1.143375
16.900000	1	1.149250
16.916667	1	1.155750
16.933333	1	1.161750
16.950000	1	1.167125
16.966667	1	1.171375
16.983333	1	1.175250
17.000000	1	1.178000
17.016667	1	1.178875
17.033333	1	1.178875
17.050000	1	1.178375
17.066667	1	1.176750
17.083333	1	1.174375
17.100000	1	1.172125
17.116667	1	1.169625
17.133333	1	1.167000
17.150000	1	1.164250
17.166667	1	1.163000
17.183333	1	1.162125
17.200000	1	1.161250
17.216667	1	1.161125
17.233333	1	1.162125
17.250000	1	1.164000
17.266667	1	1.165750
17.283333	1	1.168750
17.300000	1	1.171875
17.316667	1	1.174625
17.333333	1	1.177750
17.350000	1	1.181875
17.366667	1	1.186125
17.383333	1	1.190250
17.400000	1	1.194250
17.416667	1	1.197000
17.433333	1	1.199000
17.450000	1	1.200500
17.466667	1	1.200375
17.483333	1	1.200625
17.500000	1	1.199500
17.516667	1	1.195875
17.533333	1	1.190875
17.550000	1	1.184875
17.566667	1	1.177125
17.583333	1	1.168125
17.600000	1	1.157250
17.616667	1	1.144500
17.633333	1	1.131375
17.650000	1	1.117125
17.666667	1	1.101500
17.683333	1	1.085375
17.700000	1	1.069500
17.716667	1	1.053875
17.733333	1	1.038000
17.750000	1	1.021750
17.766667	1	1.005875
17.783333	1	0.991000
17.800000	1	0.976625
17.816667	1	0.962250
17.833333	1	0.949000
17.850000	1	0.935875
17.866667	1	0.923375
17.883333	1	0.911750
17.900000	1	0.900625
17.916667	1	0.889250
17.933333	1	0.879375
17.950000	1	0.869125
17.966667	1	0.859875
17.983333	1	0.851250
18.000000	1	0.842250
18.016667	1	0.832750
18.033333	1	0.823625
18.050000	1	0.815125
18.066667	1	0.807125
18.083333	1	0.799000
18.100000	1	0.790125
18.116667	1	0.781000
18.133333	1	0.772000
18.150000	1	0.764000
18.166667	1	0.755625
18.183333	1	0.747500
18.200000	1	0.740000
18.216667	1	0.733125
18.233333	1	0.726375
18.250000	1	0.720500
18.266667	1	0.715375
18.283333	1	0.710750
18.300000	1	0.707625
18.316667	1	0.705750
18.333333	1	0.703625
18.350000	1	0.701750
18.366667	1	0.701250
18.383333	1	0.701125
18.400000	1	0.702125
18.416667	1	0.703500
18.433333	1	0.706500
18.450000	1	0.710500
18.466667	1	0.715500
18.483333	1	0.721125
18.500000	1	0.728750
18.516667	1	0.738250
18.533333	1	0.749000
18.550000	1	0.761625
18.566667	1	0.776125
18.583333	1	0.794375
18.600000	1	0.813125
18.616667	1	0.835250
18.633333	1	0.858375
18.650000	1	0.883375
18.666667	1	0.910625
18.683333	1	0.939250
18.700000	1	0.970375
18.716667	1	1.002750
18.733333	1	1.036125
18.750000	1	1.071250
18.766667	1	1.106000
18.783333	1	1.142375
18.800000	1	1.177875
18.816667	1	1.212750
18.833333	1	1.246250
18.850000	1	1.277750
18.866667	1	1.306750
18.883333	1	1.332625
18.900000	1	1.354875
18.916667	1	1.372125
18.933333	1	1.384125
18.950000	1	1.390875
18.966667	1	1.391375
18.983333	1	1.385875
19.000000	1	1.372750
19.016667	1	1.352500
19.033333	1	1.326750
19.050000	1	1.295500
19.066667	1	1.258750
19.083333	1	1.217125
19.100000	1	1.171500
19.116667	1	1.123750
19.133333	1	1.074625
19.150000	1	1.025250
19.166667	1	0.975875
19.183333	1	0.929000
19.200000	1	0.883875
19.216667	1	0.841750
19.233333	1	0.803375
19.250000	1	0.768500
19.266667	1	0.739000
19.283333	1	0.714125
19.300000	1	0.694750
19.316667	1	0.681000
19.333333	1	0.671875
19.350000	1	0.668000
19.366667	1	0.669375
19.383333	1	0.676125
19.400000	1	0.688250
19.416667	1	0.705000
19.433333	1	0.725375
19.450000	1	0.750750
19.466667	1	0.779375
19.483333	1	0.811625
19.500000	1	0.846625
19.516667	1	0.884000
19.533333	1	0.921875
19.550000	1	0.960500
19.566667	1	0.998750
19.583333	1	1.035125
19.600000	1	1.069000
19.616667	1	1.099250
19.633333	1	1.125250
19.650000	1	1.146625
19.666667	1	1.162500
19.683333	1	1.172875
19.700000	1	1.177000
19.716667	1	1.175625
19.733333	1	1.168000
19.750000	1	1.155250
19.766667	1	1.137750
19.783333	1	1.115375
19.800000	1	1.089625
19.816667	1	1.061125
19.833333	1	1.029500
19.850000	1	0.996000
19.866667	1	0.962125
19.883333	1	0.927500
19.900000	1	0.893000
19.916667	1	0.858500
19.933333	1	0.824625
19.950000	1	0.791625
19.966667	1	0.760750
19.983333	1	0.732625
20.000000	1	0.705750
20.016667	1	0.681250
20.033333	1	0.659000
20.050000	1	0.639250
20.066667	1	0.622875
20.083333	1	0.609375
20.100000	1	0.598500
20.116667	1	0.591250
20.133333	1	0.586375
20.150000	1	0.584875
20.166667	1	0.586000
20.183333	1	0.589375
20.200000	1	0.595000
20.216667	1	0.603875
20.233333	1	0.614250
20.250000	1	0.624750
20.266667	1	0.636250
20.283333	1	0.648250
20.300000	1	0.660625
20.316667	1	0.671750
20.333333	1	0.682000
20.350000	1	0.689875
20.366667	1	0.695000
20.383333	1	0.698875
20.400000	1	0.700125
20.416667	1	0.699000
20.433333	1	0.695375
20.450000	1	0.689250
20.466667	1	0.681375
20.483333	1	0.672500
20.500000	1	0.663500
20.516667	1	0.655500
20.533333	1	0.649125
20.550000	1	0.645500
20.566667	1	0.644875
20.583333	1	0.650125
20.600000	1	0.660625
20.616667	1	0.677000
20.633333	1	0.700625
20.650000	1	0.731625
20.666667	1	0.770125
20.683333	1	0.816625
20.700000	1	0.870375
20.716667	1	0.931000
20.733333	1	0.997125
20.750000	1	1.067625
20.766667	1	1.140875
20.783333	1	1.215750
20.800000	1	1.289625
20.816667	1	1.360375
20.833333	1	1.424875
20.850000	1	1.481500
20.866667	1	1.528500
20.883333	1	1.564000
20.900000	1	1.586875
20.916667	1	1.595875
20.933333	1	1.590125
20.950000	1	1.570500
20.966667	1	1.538125
20.983333	1	1.492750
21.000000	1	1.436250
21.016667	1	1.371750
21.033333	1	1.300125
21.050000	1	1.224500
21.066667	1	1.146000
21.083333	1	1.067375
21.100000	1	0.989250
21.116667	1	0.915000
21.133333	1	0.843500
21.150000	1	0.777500
21.166667	1	0.716125
21.183333	1	0.659750
21.200000	1	0.609625
21.216667	1	0.564375
21.233333	1	0.524250
21.250000	1	0.489500
21.266667	1	0.458500
21.283333	1	0.432875
21.300000	1	0.410875
21.316667	1	0.391125
21.333333	1	0.375250
21.350000	1	0.362125
21.366667	1	0.350000
21.383333	1	0.340125
21.400000	1	0.332375
21.416667	1	0.326000
21.433333	1	0.320750
21.450000	1	0.315875
21.466667	1	0.312125
21.483333	1	0.309500
21.500000	1	0.306875
21.516667	1	0.306000
21.533333	1	0.305125
21.550000	1	0.304750
21.566667	1	0.305125
21.583333	1	0.306375
21.600000	1	0.307750
21.616667	1	0.309750
21.633333	1	0.313625
21.650000	1	0.317250
21.666667	1	0.321625
21.683333	1	0.327875
21.700000	1	0.334750
21.716667	1	0.342125
21.733333	1	0.350750
21.750000	1	0.360625
21.766667	1	0.370750
21.783333	1	0.382875
21.800000	1	0.395375
21.816667	1	0.409500
21.833333	1	0.423250
21.850000	1	0.438875
21.866667	1	0.455000
21.883333	1	0.471250
21.900000	1	0.488000
21.916667	1	0.505125
21.933333	1	0.522750
21.950000	1	0.539875
21.966667	1	0.556375
21.983333	1	0.572750
22.000000	1	0.587500
22.016667	1	0.600750
22.033333	1	0.613375
22.050000	1	0.624125
22.066667	1	0.633125
22.083333	1	0.640500
22.100000	1	0.645750
22.116667	1	0.649375
22.133333	1	0.651375
22.150000	1	0.651500
22.166667	1	0.649250
22.183333	1	0.644875
22.200000	1	0.638875
22.216667	1	0.630375
22.233333	1	0.621000
22.250000	1	0.610625
22.266667	1	0.598750
22.283333	1	0.585375
22.300000	1	0.570500
22.316667	1	0.554625
22.333333	1	0.538000
22.350000	1	0.521250
22.366667	1	0.504500
22.383333	1	0.487875
22.400000	1	0.469625
22.416667	1	0.452250
22.433333	1	0.434625
22.450000	1	0.417750
22.466667	1	0.401750
22.483333	1	0.386250
22.500000	1	0.371125
22.516667	1	0.357125
22.533333	1	0.344000
22.550000	1	0.331250
22.566667	1	0.319500
22.583333	1	0.308625
22.600000	1	0.298375
22.616667	1	0.288750
22.633333	1	0.279375
22.650000	1	0.270875
22.666667	1	0.263875
22.683333	1	0.257375
22.700000	1	0.250625
22.716667	1	0.244125
22.733333	1	0.238375
22.750000	1	0.232875
22.766667	1	0.227750
22.783333	1	0.222750
22.800000	1	0.218375
22.816667	1	0.214500
22.833333	1	0.210750
22.850000	1	0.207375
22.866667	1	0.204125
22.883333	1	0.202250
22.900000	1	0.200750
22.916667	1	0.199250
22.933333	1	0.198625
22.950000	1	0.197625
22.966667	1	0.197625
22.983333	1	0.198500
23.000000	1	0.199750
23.016667	1	0.201375
23.033333	1	0.203625
23.050000	1	0.207000
23.066667	1	0.210125
23.083333	1	0.214500
23.100000	1	0.218250
23.116667	1	0.222250
23.133333	1	0.227250
23.150000	1	0.233125
23.166667	1	0.238625
23.183333	1	0.244875
23.200000	1	0.251500
23.216667	1	0.258125
23.233333	1	0.266250
23.250000	1	0.274250
23.266667	1	0.283125
23.283333	1	0.293250
23.300000	1	0.305250
23.316667	1	0.318125
23.333333	1	0.333375
23.350000	1	0.351125
23.366667	1	0.372000
23.383333	1	0.395750
23.400000	1	0.423625
23.416667	1	0.456500
23.433333	1	0.495375
23.450000	1	0.541125
23.466667	1	0.594625
23.483333	1	0.656000
23.500000	1	0.727375
23.516667	1	0.809125
23.533333	1	0.903125
23.550000	1	1.009750
23.566667	1	1.129750
23.583333	1	1.263375
23.600000	1	1.412000
23.616667	1	1.575375
23.633333	1	1.754000
23.650000	1	1.946000
23.666667	1	2.152000
23.683333	1	2.370875
23.700000	1	2.599875
23.716667	1	2.836375
23.733333	1	3.078000
23.750000	1	3.320625
23.766667	1	3.560750
23.783333	1	3.792750
23.800000	1	4.012750
23.816667	1	4.216375
23.833333	1	4.398000
23.850000	1	4.554750
23.866667	1	4.682875
23.883333	1	4.778625
23.900000	1	4.839500
23.916667	1	4.865250
23.933333	1	4.854875
23.950000	1	4.808750
23.966667	1	4.727875
23.983333	1	4.614375
24.000000	1	4.473000
24.016667	1	4.306500
24.033333	1	4.118500
24.050000	1	3.913750
24.066667	1	3.698125
24.083333	1	3.473375
24.100000	1	3.245000
24.116667	1	3.016875
24.133333	1	2.791750
24.150000	1	2.572625
24.166667	1	2.362125
24.183333	1	2.162375
24.200000	1	1.974250
24.216667	1	1.799375
24.233333	1	1.638750
24.250000	1	1.490625
24.266667	1	1.356250
24.283333	1	1.235375
24.300000	1	1.126625
24.316667	1	1.029250
24.333333	1	0.942875
24.350000	1	0.866750
24.366667	1	0.799875
24.383333	1	0.741875
24.400000	1	0.690750
24.416667	1	0.646750
24.433333	1	0.609375
24.450000	1	0.577000
24.466667	1	0.549250
24.483333	1	0.525125
24.500000	1	0.504750
24.516667	1	0.486750
24.533333	1	0.471000
24.550000	1	0.457750
24.566667	1	0.445875
24.583333	1	0.435500
24.600000	1	0.425125
24.616667	1	0.416125
24.633333	1	0.407000
24.650000	1	0.398250
24.666667	1	0.389875
24.683333	1	0.381000
24.700000	1	0.372125
24.716667	1	0.363625
24.733333	1	0.354625
24.750000	1	0.345500
24.766667	1	0.336000
24.783333	1	0.327375
24.800000	1	0.318750
24.816667	1	0.310000
24.833333	1	0.301875
24.850000	1	0.294000
24.866667	1	0.286250
24.883333	1	0.278875
24.900000	1	0.272250
24.916667	1	0.265875
24.933333	1	0.259875
24.950000	1	0.253750
24.966667	1	0.248500
24.983333	1	0.243875
25.000000	1	0.240125
25.016667	1	0.236250
25.033333	1	0.233875
25.050000	1	0.231250
25.066667	1	0.228875
25.083333	1	0.227875
25.100000	1	0.227000
25.116667	1	0.226250
25.133333	1	0.226000
25.150000	1	0.225375
25.166667	1	0.225375
25.183333	1	0.225750
25.200000	1	0.225625
25.216667	1	0.226000
25.233333	1	0.226500
25.250000	1	0.227125
25.266667	1	0.227125
25.283333	1	0.227375
25.300000	1	0.227500
25.316667	1	0.227875
25.333333	1	0.228125
25.350000	1	0.227750
25.366667	1	0.227000
25.383333	1	0.226750
25.400000	1	0.226125
25.416667	1	0.226375
25.433333	1	0.225375
25.450000	1	0.224375
25.466667	1	0.223500
25.483333	1	0.222250
25.500000	1	0.221000
25.516667	1	0.220000
25.533333	1	0.219125
25.550000	1	0.217500
25.566667	1	0.216500
25.583333	1	0.215625
25.600000	1	0.215250
25.616667	1	0.213625
25.633333	1	0.212250
25.650000	1	0.210875
25.666667	1	0.210125
25.683333	1	0.209250
25.700000	1	0.208875
25.716667	1	0.208875
25.733333	1	0.207875
25.750000	1	0.208125
25.766667	1	0.207750
25.783333	1	0.208250
25.800000	1	0.209125
25.816667	1	0.211000
25.833333	1	0.211625
25.850000	1	0.212500
25.866667	1	0.214250
25.883333	1	0.216250
25.900000	1	0.218625
25.916667	1	0.221875
25.933333	1	0.225000
25.950000	1	0.227625
25.966667	1	0.230625
25.983333	1	0.233875
26.000000	1	0.238125
26.016667	1	0.242500
26.033333	1	0.247375
26.050000	1	0.251875
26.066667	1	0.256250
26.083333	1	0.260500
26.100000	1	0.264500
26.116667	1	0.269000
26.133333	1	0.273125
26.150000	1	0.277000
26.166667	1	0.281250
26.183333	1	0.283875
26.200000	1	0.287250
26.216667	1	0.289125
26.233333	1	0.290625
26.250000	1	0.292000
26.266667	1	0.292875
26.283333	1	0.293375
26.300000	1	0.293500
26.316667	1	0.292625
26.333333	1	0.291125
26.350000	1	0.288875
26.366667	1	0.285625
26.383333	1	0.281875
26.400000	1	0.277875
26.416667	1	0.274125
26.433333	1	0.269125
26.450000	1	0.264625
26.466667	1	0.259750
26.483333	1	0.254000
26.500000	1	0.248750
26.516667	1	0.242625
26.533333	1	0.236750
26.550000	1	0.230500
26.566667	1	0.224000
26.583333	1	0.217875
26.600000	1	0.211750
26.616667	1	0.206500
26.633333	1	0.201125
26.650000	1	0.196000
26.666667	1	0.190750
26.683333	1	0.185375
26.700000	1	0.180625
26.716667	1	0.175750
26.733333	1	0.171125
26.750000	1	0.166750
26.766667	1	0.162250
26.783333	1	0.157875
26.800000	1	0.154125
26.816667	1	0.150000
26.833333	1	0.146625
26.850000	1	0.142875
26.866667	1	0.139750
26.883333	1	0.136750
26.900000	1	0.134250
26.916667	1	0.131875
26.933333	1	0.129000
26.950000	1	0.126250
26.966667	1	0.124750
26.983333	1	0.123750
27.000000	1	0.122500
27.016667	1	0.122125
27.033333	1	0.122875
27.050000	1	0.123500
27.066667	1	0.125875
27.083333	1	0.128500
27.100000	1	0.132250
27.116667	1	0.137000
27.133333	1	0.143250
27.150000	1	0.151125
27.166667	1	0.160875
27.183333	1	0.172875
27.200000	1	0.186875
27.216667	1	0.203750
27.233333	1	0.223625
27.250000	1	0.245625
27.266667	1	0.272000
27.283333	1	0.302625
27.300000	1	0.337375
27.316667	1	0.376875
27.333333	1	0.421000
27.350000	1	0.471500
27.366667	1	0.527375
27.383333	1	0.590000
27.400000	1	0.660000
27.416667	1	0.737625
27.433333	1	0.823375
27.450000	1	0.917625
27.466667	1	1.019625
27.483333	1	1.131000
27.500000	1	1.251000
27.516667	1	1.379625
27.533333	1	1.516625
27.550000	1	1.662625
27.566667	1	1.816750
27.583333	1	1.977500
27.600000	1	2.143500
27.616667	1	2.315125
27.633333	1	2.489750
27.650000	1	2.666875
27.666667	1	2.843500
27.683333	1	3.018500
27.700000	1	3.188375
27.716667	1	3.351750
27.733333	1	3.506125
27.750000	1	3.648875
27.766667	1	3.777500
27.783333	1	3.889125
27.800000	1	3.982375
27.816667	1	4.056000
27.833333	1	4.108625
27.850000	1	4.138250
27.866667	1	4.143750
27.883333	1	4.125500
27.900000	1	4.082875
27.916667	1	4.016750
27.933333	1	3.929250
27.950000	1	3.821500
27.966667	1	3.695000
27.983333	1	3.553125
28.000000	1	3.397125
28.016667	1	3.229750
28.033333	1	3.053875
28.050000	1	2.872625
28.066667	1	2.688125
28.083333	1	2.503250
28.100000	1	2.320375
28.116667	1	2.141500
28.133333	1	1.969000
28.150000	1	1.803750
28.166667	1	1.647250
28.183333	1	1.500375
28.200000	1	1.364250
28.216667	1	1.238750
28.233333	1	1.123625
28.250000	1	1.019250
28.266667	1	0.924625
28.283333	1	0.840250
28.300000	1	0.765375
28.316667	1	0.699625
28.333333	1	0.642375
28.350000	1	0.592875
28.366667	1	0.550125
28.383333	1	0.514125
28.400000	1	0.484250
28.416667	1	0.460375
28.433333	1	0.441250
28.450000	1	0.426750
28.466667	1	0.416625
28.483333	1	0.408875
28.500000	1	0.405250
28.516667	1	0.404000
28.533333	1	0.405750
28.550000	1	0.409375
28.566667	1	0.414625
28.583333	1	0.422000
28.600000	1	0.430000
28.616667	1	0.439875
28.633333	1	0.449375
28.650000	1	0.459250
28.666667	1	0.470125
28.683333	1	0.481000
28.700000	1	0.491750
28.716667	1	0.502500
28.733333	1	0.513375
28.750000	1	0.522625
28.766667	1	0.531375
28.783333	1	0.539750
28.800000	1	0.547750
28.816667	1	0.554500
28.833333	1	0.559625
28.850000	1	0.563625
28.866667	1	0.566250
28.883333	1	0.568250
28.900000	1	0.569000
28.916667	1	0.568000
28.933333	1	0.565625
28.950000	1	0.561750
28.966667	1	0.557625
28.983333	1	0.550875
29.000000	1	0.543250
29.016667	1	0.534500
29.033333	1	0.524750
29.050000	1	0.514375
29.066667	1	0.503125
29.083333	1	0.491250
29.100000	1	0.478000
29.116667	1	0.464375
29.133333	1	0.450500
29.150000	1	0.436250
29.166667	1	0.421625
29.183333	1	0.406625
29.200000	1	0.392000
29.216667	1	0.377000
29.233333	1	0.362125
29.250000	1	0.347750
29.266667	1	0.333000
29.283333	1	0.318375
29.300000	1	0.304750
29.316667	1	0.291250
29.333333	1	0.278375
29.350000	1	0.265500
29.366667	1	0.253125
29.383333	1	0.241625
29.400000	1	0.230875
29.416667	1	0.220625
29.433333	1	0.210625
29.450000	1	0.201625
29.466667	1	0.192750
29.483333	1	0.184000
29.500000	1	0.175500
29.516667	1	0.167375
29.533333	1	0.160250
29.550000	1	0.152750
29.566667	1	0.145875
29.583333	1	0.140125
29.600000	1	0.134625
29.616667	1	0.129250
29.633333	1	0.124625
29.650000	1	0.119375
29.666667	1	0.115125
29.683333	1	0.110125
29.700000	1	0.105625
29.716667	1	0.101625
29.733333	1	0.098625
29.750000	1	0.095500
29.766667	1	0.092875
29.783333	1	0.090500
29.800000	1	0.087875
29.816667	1	0.085750
29.833333	1	0.083875
29.850000	1	0.081375
29.866667	1	0.080125
29.883333	1	0.079250
29.900000	1	0.077125
29.916667	1	0.076125
29.933333	1	0.075625
29.950000	1	0.074500
29.966667	1	0.074125
29.983333	1	0.073125
30.000000	1	0.072250
30.016667	1	0.072000
30.033333	1	0.071000
30.050000	1	0.070125
30.066667	1	0.069000
30.083333	1	0.068250
30.100000	1	0.067250
30.116667	1	0.065875
30.133333	1	0.063375
30.150000	1	0.061625
30.166667	1	0.060000
30.183333	1	0.058750
30.200000	1	0.057000
30.216667	1	0.054875
30.233333	1	0.052625
30.250000	1	0.051125
30.266667	1	0.049250
30.283333	1	0.047125
30.300000	1	0.045625
30.316667	1	0.042875
30.333333	1	0.041125
30.350000	1	0.039750
30.366667	1	0.038750
30.383333	1	0.038875
30.400000	1	0.038875
30.416667	1	0.039375
30.433333	1	0.041500
30.450000	1	0.043000
30.466667	1	0.046125
30.483333	1	0.049625
30.500000	1	0.053875
30.516667	1	0.058750
30.533333	1	0.064875
30.550000	1	0.071500
30.566667	1	0.079125
30.583333	1	0.088375
30.600000	1	0.097875
30.616667	1	0.107625
30.633333	1	0.119125
30.650000	1	0.132125
30.666667	1	0.146750
30.683333	1	0.162625
30.700000	1	0.179750
30.716667	1	0.198625
30.733333	1	0.219125
30.750000	1	0.242625
30.766667	1	0.267250
30.783333	1	0.295250
30.800000	1	0.325875
30.816667	1	0.359875
30.833333	1	0.397250
30.850000	1	0.439250
30.866667	1	0.486000
30.883333	1	0.539375
30.900000	1	0.598125
30.916667	1	0.663875
30.933333	1	0.737750
30.950000	1	0.820125
30.966667	1	0.911875
30.983333	1	1.013500
31.000000	1	1.126500
31.016667	1	1.251125
31.033333	1	1.389500
31.050000	1	1.541000
31.066667	1	1.705500
31.083333	1	1.885125
31.100000	1	2.079750
31.116667	1	2.288875
31.133333	1	2.513250
31.150000	1	2.751875
31.166667	1	3.004500
31.183333	1	3.270125
31.200000	1	3.548000
31.216667	1	3.836750
31.233333	1	4.133250
31.250000	1	4.435750
31.266667	1	4.740875
31.283333	1	5.046625
31.300000	1	5.349500
31.316667	1	5.646125
31.333333	1	5.933625
31.350000	1	6.208625
31.366667	1	6.467500
31.383333	1	6.707500
31.400000	1	6.924125
31.416667	1	7.115875
31.433333	1	7.278750
31.450000	1	7.411250
31.466667	1	7.511750
31.483333	1	7.578750
31.500000	1	7.610125
31.516667	1	7.607500
31.533333	1	7.570500
31.550000	1	7.500125
31.566667	1	7.396875
31.583333	1	7.264000
31.600000	1	7.101750
31.616667	1	6.913000
31.633333	1	6.700125
31.650000	1	6.467000
31.666667	1	6.216250
31.683333	1	5.951625
31.700000	1	5.676875
31.716667	1	5.394000
31.733333	1	5.106625
31.750000	1	4.816750
31.766667	1	4.527375
31.783333	1	4.240875
31.800000	1	3.958375
31.816667	1	3.683000
31.833333	1	3.416500
31.850000	1	3.159875
31.866667	1	2.914250
31.883333	1	2.681125
31.900000	1	2.459500
31.916667	1	2.251375
31.933333	1	2.056250
31.950000	1	1.873500
31.966667	1	1.703125
31.983333	1	1.545125
32.000000	1	1.398875
32.016667	1	1.264500
32.033333	1	1.140375
32.050000	1	1.027625
32.066667	1	0.923750
32.083333	1	0.829625
32.100000	1	0.743750
32.116667	1	0.665500
32.133333	1	0.593875
32.150000	1	0.529750
32.166667	1	0.471500
32.183333	1	0.419000
32.200000	1	0.371500
32.216667	1	0.328125
32.233333	1	0.289250
32.250000	1	0.253875
32.266667	1	0.221250
32.283333	1	0.192750
32.300000	1	0.167125
32.316667	1	0.143625
32.333333	1	0.122500
32.350000	1	0.103500
32.366667	1	0.086875
32.383333	1	0.072125
32.400000	1	0.059250
32.416667	1	0.047625
32.433333	1	0.037250
32.450000	1	0.028500
32.466667	1	0.020500
32.483333	1	0.013625
32.500000	1	0.008250
32.516667	1	0.003125
32.533333	1	-0.000500
32.550000	1	-0.003750
32.566667	1	-0.005750
32.583333	1	-0.007000
32.600000	1	-0.007500
32.616667	1	-0.008000
32.633333	1	-0.008250
32.650000	1	-0.007750
32.666667	1	-0.007125
32.683333	1	-0.007000
32.700000	1	-0.005875
32.716667	1	-0.004625
32.733333	1	-0.003125
32.750000	1	-0.001625
32.766667	1	0.000875
32.783333	1	0.002500
32.800000	1	0.004375
32.816667	1	0.005625
32.833333	1	0.007125
32.850000	1	0.008375
32.866667	1	0.010000
32.883333	1	0.011750
32.900000	1	0.013250
32.916667	1	0.015125
32.933333	1	0.016750
32.950000	1	0.018000
32.966667	1	0.019625
32.983333	1	0.021750
33.000000	1	0.023500
33.016667	1	0.024875
33.033333	1	0.026625
33.050000	1	0.028625
33.066667	1	0.031000
33.083333	1	0.032875
33.100000	1	0.035375
33.116667	1	0.038000
33.133333	1	0.040625
33.150000	1	0.043625
33.166667	1	0.046500
33.183333	1	0.049125
33.200000	1	0.052875
33.216667	1	0.056625
33.233333	1	0.061125
33.250000	1	0.064875
33.266667	1	0.068375
33.283333	1	0.072625
33.300000	1	0.077250
33.316667	1	0.082125
33.333333	1	0.087000
33.350000	1	0.092750
33.366667	1	0.097875
33.383333	1	0.103625
33.400000	1	0.109500
33.416667	1	0.116000
33.433333	1	0.122250
33.450000	1	0.129250
33.466667	1	0.136125
33.483333	1	0.143750
33.500000	1	0.150500
33.516667	1	0.158375
33.533333	1	0.166750
33.550000	1	0.175125
33.566667	1	0.183875
33.583333	1	0.192875
33.600000	1	0.202375
33.616667	1	0.212125
33.633333	1	0.221875
33.650000	1	0.231375
33.666667	1	0.241875
33.683333	1	0.252875
33.700000	1	0.264625
33.716667	1	0.276125
33.733333	1	0.288125
33.750000	1	0.300125
33.766667	1	0.312000
33.783333	1	0.324500
33.800000	1	0.336875
33.816667	1	0.348875
33.833333	1	0.360750
33.850000	1	0.372750
33.866667	1	0.384125
33.883333	1	0.394750
33.900000	1	0.405750
33.916667	1	0.415500
33.933333	1	0.424250
33.950000	1	0.432375
33.966667	1	0.439625
33.983333	1	0.445000
34.000000	1	0.449625
34.016667	1	0.453000
34.033333	1	0.455250
34.050000	1	0.456375
34.066667	1	0.455500
34.083333	1	0.453125
34.100000	1	0.450000
34.116667	1	0.445000
34.133333	1	0.438875
34.150000	1	0.432000
34.166667	1	0.423250
34.183333	1	0.413875
34.200000	1	0.403750
34.216667	1	0.392875
34.233333	1	0.380750
34.250000	1	0.368875
34.266667	1	0.356625
34.283333	1	0.343500
34.300000	1	0.330125
34.316667	1	0.317500
34.333333	1	0.304875
34.350000	1	0.292625
34.366667	1	0.280500
34.383333	1	0.269125
34.400000	1	0.258625
34.416667	1	0.248625
34.433333	1	0.239250
34.450000	1	0.229750
34.466667	1	0.221875
34.483333	1	0.214875
34.500000	1	0.208000
34.516667	1	0.202625
34.533333	1	0.198000
34.550000	1	0.193375
34.566667	1	0.189250
34.583333	1	0.186500
34.600000	1	0.184000
34.616667	1	0.181500
34.633333	1	0.180000
34.650000	1	0.178375
34.666667	1	0.177500
34.683333	1	0.177750
34.700000	1	0.177625
34.716667	1	0.177000
34.733333	1	0.176625
34.750000	1	0.177125
34.766667	1	0.177375
34.783333	1	0.177500
34.800000	1	0.177750
34.816667	1	0.177500
34.833333	1	0.177250
34.850000	1	0.176500
34.866667	1	0.175875
34.883333	1	0.175500
34.900000	1	0.174875
34.916667	1	0.174000
34.933333	1	0.173250
34.950000	1	0.171625
34.966667	1	0.169875
34.983333	1	0.167875
35.000000	1	0.165875
35.016667	1	0.164375
35.033333	1	0.162000
35.050000	1	0.159375
35.066667	1	0.156000
35.083333	1	0.152750
35.100000	1	0.150000
35.116667	1	0.147375
35.133333	1	0.144125
35.150000	1	0.140625
35.166667	1	0.138125
35.183333	1	0.134500
35.200000	1	0.130750
35.216667	1	0.127000
35.233333	1	0.122750
35.250000	1	0.118500
35.266667	1	0.114875
35.283333	1	0.110875
35.300000	1	0.107375
35.316667	1	0.103625
35.333333	1	0.100375
35.350000	1	0.097125
35.366667	1	0.094000
35.383333	1	0.091000
35.400000	1	0.087625
35.416667	1	0.085625
35.433333	1	0.083500
35.450000	1	0.080875
35.466667	1	0.078625
35.483333	1	0.077250
35.500000	1	0.076125
35.516667	1	0.075250
35.533333	1	0.074750
35.550000	1	0.074500
35.566667	1	0.074500
35.583333	1	0.074875
35.600000	1	0.075000
35.616667	1	0.075500
35.633333	1	0.076125
35.650000	1	0.077500
35.666667	1	0.078000
35.683333	1	0.079250
35.700000	1	0.080750
35.716667	1	0.082875
35.733333	1	0.085125
35.750000	1	0.086625
35.766667	1	0.088500
35.783333	1	0.090625
35.800000	1	0.092125
35.816667	1	0.094000
35.833333	1	0.096125
35.850000	1	0.097875
35.866667	1	0.099125
35.883333	1	0.100500
35.900000	1	0.101875
35.916667	1	0.103750
35.933333	1	0.105250
35.950000	1	0.106375
35.966667	1	0.107250
35.983333	1	0.107750
36.000000	1	0.109000
36.016667	1	0.109125
36.033333	1	0.109875
36.050000	1	0.110375
36.066667	1	0.111625
36.083333	1	0.112500
36.100000	1	0.113125
36.116667	1	0.113250
36.133333	1	0.113500
36.150000	1	0.113500
36.166667	1	0.113750
36.183333	1	0.113750
36.200000	1	0.113000
36.216667	1	0.112500
36.233333	1	0.112375
36.250000	1	0.112750
36.266667	1	0.112625
36.283333	1	0.112125
36.300000	1	0.111625
36.316667	1	0.110750
36.333333	1	0.110375
36.350000	1	0.109750
36.366667	1	0.109750
36.383333	1	0.109375
36.400000	1	0.108000
36.416667	1	0.107000
36.433333	1	0.105750
36.450000	1	0.104000
36.466667	1	0.102125
36.483333	1	0.101250
36.500000	1	0.099250
36.516667	1	0.097250
36.533333	1	0.095625
36.550000	1	0.093125
36.566667	1	0.090875
36.583333	1	0.087625
36.600000	1	0.084125
36.616667	1	0.081375
36.633333	1	0.078375
36.650000	1	0.075500
36.666667	1	0.072625
36.683333	1	0.069250
36.700000	1	0.066000
36.716667	1	0.062625
36.733333	1	0.059125
36.750000	1	0.055625
36.766667	1	0.051625
36.783333	1	0.048375
36.800000	1	0.044875
36.816667	1	0.041625
36.833333	1	0.038875
36.850000	1	0.035625
36.866667	1	0.033000
36.883333	1	0.030625
36.900000	1	0.028375
36.916667	1	0.026625
36.933333	1	0.024500
36.950000	1	0.023875
36.966667	1	0.022625
36.983333	1	0.021750
37.000000	1	0.020875
37.016667	1	0.020375
37.033333	1	0.019875
37.050000	1	0.020250
37.066667	1	0.021000
37.083333	1	0.020625
37.100000	1	0.020750
37.116667	1	0.021500
37.133333	1	0.022375
37.150000	1	0.023000
37.166667	1	0.024125
37.183333	1	0.024500
37.200000	1	0.025125
37.216667	1	0.026250
37.233333	1	0.027125
37.250000	1	0.027500
37.266667	1	0.028250
37.283333	1	0.028625
37.300000	1	0.029375
37.316667	1	0.030125
37.333333	1	0.030375
37.350000	1	0.030375
37.366667	1	0.030375
37.383333	1	0.029750
37.400000	1	0.029125
37.416667	1	0.028875
37.433333	1	0.028250
37.450000	1	0.027125
37.466667	1	0.025625
37.483333	1	0.025125
37.500000	1	0.023375
37.516667	1	0.022000
37.533333	1	0.019750
37.550000	1	0.017875
37.566667	1	0.015875
37.583333	1	0.013750
37.600000	1	0.011375
37.616667	1	0.009000
37.633333	1	0.007375
37.650000	1	0.005250
37.666667	1	0.002625
37.683333	1	0.000125
37.700000	1	-0.001250
37.716667	1	-0.003125
37.733333	1	-0.005375
37.750000	1	-0.007500
37.766667	1	-0.009875
37.783333	1	-0.012000
37.800000	1	-0.014000
37.816667	1	-0.016000
37.833333	1	-0.017375
37.850000	1	-0.018000
37.866667	1	-0.018625
37.883333	1	-0.019000
37.900000	1	-0.020500
37.916667	1	-0.020875
37.933333	1	-0.021125
37.950000	1	-0.021000
37.966667	1	-0.021125
37.983333	1	-0.021125
38.000000	1	-0.021125
38.016667	1	-0.020250
38.033333	1	-0.019750
38.050000	1	-0.019000
38.066667	1	-0.018625
38.083333	1	-0.016875
38.100000	1	-0.014875
38.116667	1	-0.013625
38.133333	1	-0.012500
38.150000	1	-0.011750
38.166667	1	-0.010500
38.183333	1	-0.009500
38.200000	1	-0.008000
38.216667	1	-0.007500
38.233333	1	-0.005875
38.250000	1	-0.004625
38.266667	1	-0.003250
38.283333	1	-0.003125
38.300000	1	-0.002250
38.316667	1	-0.001625
38.333333	1	-0.001250
38.350000	1	-0.001125
38.366667	1	-0.000875
38.383333	1	-0.001250
38.400000	1	-0.001750
38.416667	1	-0.002125
38.433333	1	-0.002875
38.450000	1	-0.004000
38.466667	1	-0.005250
38.483333	1	-0.006125
38.500000	1	-0.007375
38.516667	1	-0.009125
38.533333	1	-0.010375
38.550000	1	-0.012750
38.566667	1	-0.014500
38.583333	1	-0.016125
38.600000	1	-0.017750
38.616667	1	-0.019875
38.633333	1	-0.021250
38.650000	1	-0.023375
38.666667	1	-0.025375
38.683333	1	-0.027500
38.700000	1	-0.029875
38.716667	1	-0.031875
38.733333	1	-0.033375
38.750000	1	-0.035500
38.766667	1	-0.038000
38.783333	1	-0.039875
38.800000	1	-0.041250
38.816667	1	-0.042875
38.833333	1	-0.044500
38.850000	1	-0.046625
38.866667	1	-0.048500
38.883333	1	-0.050500
38.900000	1	-0.052500
38.916667	1	-0.053750
38.933333	1	-0.055500
38.950000	1	-0.057500
38.966667	1	-0.058500
38.983333	1	-0.059875
39.000000	1	-0.061625
39.016667	1	-0.063375
39.033333	1	-0.064750
39.050000	1	-0.065125
39.066667	1	-0.066500
39.083333	1	-0.067500
39.100000	1	-0.068250
39.116667	1	-0.069250
39.133333	1	-0.070625
39.150000	1	-0.071625
39.166667	1	-0.073000
39.183333	1	-0.074500
39.200000	1	-0.075000
39.216667	1	-0.075500
39.233333	1	-0.076750
39.250000	1	-0.077250
39.266667	1	-0.078375
39.283333	1	-0.078750
39.300000	1	-0.079375
39.316667	1	-0.080375
39.333333	1	-0.081250
39.350000	1	-0.082875
39.366667	1	-0.083250
39.383333	1	-0.084250
39.400000	1	-0.085250
39.416667	1	-0.086125
39.433333	1	-0.086125
39.450000	1	-0.086750
39.466667	1	-0.087125
39.483333	1	-0.087750
39.500000	1	-0.088125
39.516667	1	-0.087750
39.533333	1	-0.087750
39.550000	1	-0.087250
39.566667	1	-0.086750
39.583333	1	-0.085875
39.600000	1	-0.085125
39.616667	1	-0.083750
39.633333	1	-0.082500
39.650000	1	-0.080375
39.666667	1	-0.078125
39.683333	1	-0.075625
39.700000	1	-0.073250
39.716667	1	-0.070750
39.733333	1	-0.067750
39.750000	1	-0.065125
39.766667	1	-0.062000
39.783333	1	-0.059125
39.800000	1	-0.056625
39.816667	1	-0.053000
39.833333	1	-0.049750
39.850000	1	-0.046125
39.866667	1	-0.042750
39.883333	1	-0.039250
39.900000	1	-0.036250
39.916667	1	-0.033000
39.933333	1	-0.030250
39.950000	1	-0.027500
39.966667	1	-0.025375
39.983333	1	-0.023750
40.000000	1	-0.022250
