URL	chrom://bioreactor/micro_cm7/HPLC_Ultimate_3000/Users/markusar/20240708_MA_pHrange1.seq/424.smp/RI_1.channel/RI_1.chm
Channel	RI_1

Injection Information:
Data Vault	micro_cm7
Sequence	20240708_MA_pHrange1
Name	Fp3_5.7_1
Number	67
Position	BF9
Comment	
Processing Method	
Instrument Method	run_25B_method
Type	Unknown
Status	Finished
Inject Time	10.07.2024 12:38:40 +02:00
Volume (µl)	20.0000
Dilution Factor	1.0000
Weight	1.0000

Chromatogram Data Information:
Time Min. (min)	0.000000
Time Max. (min)	40.000000
Data Points	2401
Detector	RI
Generating Data System	Chromeleon 7.3.2.11814
Exporting Data System	Chromeleon 7.3.2.0
Operator	Instrument Controller
Signal Quantity	Refractive 
Signal Unit	µRIU
Signal Min.	-0.106375
Signal Max.	84.600375
Channel	RI_1
Driver Name	RID520Driver.dll
Channel Type	Evaluation
Min. Step (s)	1
Max. Step (s)	1
Average Step (s)	1

Signal Parameter Information:
Signal Info	

Chromatogram Data:
Time (min)	Step (s)	Value (µRIU)
0.000000	n.a.	-0.030500
0.016667	1	-0.031625
0.033333	1	-0.032125
0.050000	1	-0.032750
0.066667	1	-0.033125
0.083333	1	-0.032750
0.100000	1	-0.032250
0.116667	1	-0.032500
0.133333	1	-0.032375
0.150000	1	-0.033250
0.166667	1	-0.033875
0.183333	1	-0.033875
0.200000	1	-0.033375
0.216667	1	-0.032625
0.233333	1	-0.032500
0.250000	1	-0.031875
0.266667	1	-0.031250
0.283333	1	-0.030875
0.300000	1	-0.030000
0.316667	1	-0.029000
0.333333	1	-0.028625
0.350000	1	-0.029000
0.366667	1	-0.029375
0.383333	1	-0.029375
0.400000	1	-0.029250
0.416667	1	-0.028750
0.433333	1	-0.026625
0.450000	1	-0.024875
0.466667	1	-0.023000
0.483333	1	-0.021625
0.500000	1	-0.020250
0.516667	1	-0.019875
0.533333	1	-0.019250
0.550000	1	-0.019625
0.566667	1	-0.020500
0.583333	1	-0.021500
0.600000	1	-0.023250
0.616667	1	-0.025000
0.633333	1	-0.025500
0.650000	1	-0.026125
0.666667	1	-0.027125
0.683333	1	-0.027125
0.700000	1	-0.027500
0.716667	1	-0.028000
0.733333	1	-0.028125
0.750000	1	-0.028875
0.766667	1	-0.028875
0.783333	1	-0.028375
0.800000	1	-0.028125
0.816667	1	-0.028000
0.833333	1	-0.028625
0.850000	1	-0.028625
0.866667	1	-0.028625
0.883333	1	-0.028625
0.900000	1	-0.028500
0.916667	1	-0.028500
0.933333	1	-0.028875
0.950000	1	-0.028875
0.966667	1	-0.029875
0.983333	1	-0.029750
1.000000	1	-0.029625
1.016667	1	-0.029875
1.033333	1	-0.029875
1.050000	1	-0.029750
1.066667	1	-0.029250
1.083333	1	-0.029125
1.100000	1	-0.029000
1.116667	1	-0.028875
1.133333	1	-0.028625
1.150000	1	-0.028375
1.166667	1	-0.028375
1.183333	1	-0.028250
1.200000	1	-0.028875
1.216667	1	-0.028625
1.233333	1	-0.028625
1.250000	1	-0.028250
1.266667	1	-0.027875
1.283333	1	-0.027250
1.300000	1	-0.027750
1.316667	1	-0.027750
1.333333	1	-0.027500
1.350000	1	-0.027875
1.366667	1	-0.027375
1.383333	1	-0.027750
1.400000	1	-0.028250
1.416667	1	-0.028625
1.433333	1	-0.028750
1.450000	1	-0.028500
1.466667	1	-0.028375
1.483333	1	-0.028500
1.500000	1	-0.028625
1.516667	1	-0.028375
1.533333	1	-0.029125
1.550000	1	-0.029125
1.566667	1	-0.029375
1.583333	1	-0.030500
1.600000	1	-0.030500
1.616667	1	-0.030000
1.633333	1	-0.029375
1.650000	1	-0.028625
1.666667	1	-0.028500
1.683333	1	-0.027875
1.700000	1	-0.027000
1.716667	1	-0.026875
1.733333	1	-0.026250
1.750000	1	-0.025500
1.766667	1	-0.025250
1.783333	1	-0.024750
1.800000	1	-0.023875
1.816667	1	-0.023500
1.833333	1	-0.022375
1.850000	1	-0.022125
1.866667	1	-0.021625
1.883333	1	-0.021250
1.900000	1	-0.020750
1.916667	1	-0.021000
1.933333	1	-0.021125
1.950000	1	-0.020750
1.966667	1	-0.021000
1.983333	1	-0.021500
2.000000	1	-0.021750
2.016667	1	-0.022625
2.033333	1	-0.022875
2.050000	1	-0.022875
2.066667	1	-0.023250
2.083333	1	-0.024125
2.100000	1	-0.025750
2.116667	1	-0.027000
2.133333	1	-0.028500
2.150000	1	-0.029750
2.166667	1	-0.031000
2.183333	1	-0.032250
2.200000	1	-0.033500
2.216667	1	-0.035125
2.233333	1	-0.036500
2.250000	1	-0.038000
2.266667	1	-0.039750
2.283333	1	-0.041000
2.300000	1	-0.042625
2.316667	1	-0.043875
2.333333	1	-0.045125
2.350000	1	-0.047125
2.366667	1	-0.049000
2.383333	1	-0.050375
2.400000	1	-0.052125
2.416667	1	-0.053750
2.433333	1	-0.055625
2.450000	1	-0.057500
2.466667	1	-0.058250
2.483333	1	-0.059250
2.500000	1	-0.060500
2.516667	1	-0.061625
2.533333	1	-0.062125
2.550000	1	-0.062875
2.566667	1	-0.063875
2.583333	1	-0.065125
2.600000	1	-0.065375
2.616667	1	-0.066125
2.633333	1	-0.065750
2.650000	1	-0.066000
2.666667	1	-0.066750
2.683333	1	-0.067250
2.700000	1	-0.067625
2.716667	1	-0.067250
2.733333	1	-0.066625
2.750000	1	-0.066750
2.766667	1	-0.066375
2.783333	1	-0.066625
2.800000	1	-0.065625
2.816667	1	-0.065000
2.833333	1	-0.064500
2.850000	1	-0.063500
2.866667	1	-0.063750
2.883333	1	-0.062750
2.900000	1	-0.062250
2.916667	1	-0.061500
2.933333	1	-0.059500
2.950000	1	-0.058500
2.966667	1	-0.057375
2.983333	1	-0.055875
3.000000	1	-0.054750
3.016667	1	-0.053375
3.033333	1	-0.051375
3.050000	1	-0.049625
3.066667	1	-0.047500
3.083333	1	-0.046125
3.100000	1	-0.044125
3.116667	1	-0.042250
3.133333	1	-0.040500
3.150000	1	-0.039000
3.166667	1	-0.036750
3.183333	1	-0.034500
3.200000	1	-0.032500
3.216667	1	-0.030000
3.233333	1	-0.028125
3.250000	1	-0.026000
3.266667	1	-0.023875
3.283333	1	-0.022250
3.300000	1	-0.020375
3.316667	1	-0.018125
3.333333	1	-0.016375
3.350000	1	-0.014500
3.366667	1	-0.012750
3.383333	1	-0.011000
3.400000	1	-0.009750
3.416667	1	-0.008875
3.433333	1	-0.007375
3.450000	1	-0.006125
3.466667	1	-0.005000
3.483333	1	-0.003750
3.500000	1	-0.003125
3.516667	1	-0.002250
3.533333	1	-0.001125
3.550000	1	0.000250
3.566667	1	0.001125
3.583333	1	0.002375
3.600000	1	0.003500
3.616667	1	0.003875
3.633333	1	0.004125
3.650000	1	0.004625
3.666667	1	0.005000
3.683333	1	0.005375
3.700000	1	0.005750
3.716667	1	0.006125
3.733333	1	0.007000
3.750000	1	0.007625
3.766667	1	0.007875
3.783333	1	0.008375
3.800000	1	0.009125
3.816667	1	0.009250
3.833333	1	0.009625
3.850000	1	0.010625
3.866667	1	0.011250
3.883333	1	0.011500
3.900000	1	0.012250
3.916667	1	0.013000
3.933333	1	0.013625
3.950000	1	0.013750
3.966667	1	0.014625
3.983333	1	0.015250
4.000000	1	0.015750
4.016667	1	0.016250
4.033333	1	0.016375
4.050000	1	0.016625
4.066667	1	0.017375
4.083333	1	0.017625
4.100000	1	0.018250
4.116667	1	0.018500
4.133333	1	0.019125
4.150000	1	0.019125
4.166667	1	0.019500
4.183333	1	0.019875
4.200000	1	0.021000
4.216667	1	0.021875
4.233333	1	0.022750
4.250000	1	0.023875
4.266667	1	0.025000
4.283333	1	0.025750
4.300000	1	0.026500
4.316667	1	0.026875
4.333333	1	0.028000
4.350000	1	0.029125
4.366667	1	0.030500
4.383333	1	0.032250
4.400000	1	0.034250
4.416667	1	0.035625
4.433333	1	0.037375
4.450000	1	0.039250
4.466667	1	0.041125
4.483333	1	0.042500
4.500000	1	0.044125
4.516667	1	0.045750
4.533333	1	0.047750
4.550000	1	0.049500
4.566667	1	0.051875
4.583333	1	0.054125
4.600000	1	0.056250
4.616667	1	0.058125
4.633333	1	0.059875
4.650000	1	0.062375
4.666667	1	0.065125
4.683333	1	0.067125
4.700000	1	0.069250
4.716667	1	0.071625
4.733333	1	0.074000
4.750000	1	0.076250
4.766667	1	0.078750
4.783333	1	0.081125
4.800000	1	0.084000
4.816667	1	0.086125
4.833333	1	0.088875
4.850000	1	0.091500
4.866667	1	0.094250
4.883333	1	0.097125
4.900000	1	0.099875
4.916667	1	0.102750
4.933333	1	0.105375
4.950000	1	0.108875
4.966667	1	0.112250
4.983333	1	0.115375
5.000000	1	0.118375
5.016667	1	0.121625
5.033333	1	0.125000
5.050000	1	0.128750
5.066667	1	0.132250
5.083333	1	0.135125
5.100000	1	0.139125
5.116667	1	0.143000
5.133333	1	0.146375
5.150000	1	0.150125
5.166667	1	0.154125
5.183333	1	0.157500
5.200000	1	0.161625
5.216667	1	0.165500
5.233333	1	0.169250
5.250000	1	0.172875
5.266667	1	0.175375
5.283333	1	0.178625
5.300000	1	0.181625
5.316667	1	0.184375
5.333333	1	0.187875
5.350000	1	0.190875
5.366667	1	0.193000
5.383333	1	0.195125
5.400000	1	0.196750
5.416667	1	0.198500
5.433333	1	0.200750
5.450000	1	0.201500
5.466667	1	0.202125
5.483333	1	0.202000
5.500000	1	0.202125
5.516667	1	0.202000
5.533333	1	0.201250
5.550000	1	0.200250
5.566667	1	0.199125
5.583333	1	0.197875
5.600000	1	0.195750
5.616667	1	0.193375
5.633333	1	0.190000
5.650000	1	0.187000
5.666667	1	0.183875
5.683333	1	0.180750
5.700000	1	0.176625
5.716667	1	0.172250
5.733333	1	0.167750
5.750000	1	0.163875
5.766667	1	0.159125
5.783333	1	0.154250
5.800000	1	0.149250
5.816667	1	0.144500
5.833333	1	0.139375
5.850000	1	0.134000
5.866667	1	0.128625
5.883333	1	0.123750
5.900000	1	0.118875
5.916667	1	0.113875
5.933333	1	0.109125
5.950000	1	0.104500
5.966667	1	0.099750
5.983333	1	0.095000
6.000000	1	0.090375
6.016667	1	0.086000
6.033333	1	0.081750
6.050000	1	0.077375
6.066667	1	0.072875
6.083333	1	0.069000
6.100000	1	0.065125
6.116667	1	0.061125
6.133333	1	0.057625
6.150000	1	0.054625
6.166667	1	0.051500
6.183333	1	0.048000
6.200000	1	0.044625
6.216667	1	0.041000
6.233333	1	0.037750
6.250000	1	0.034625
6.266667	1	0.031375
6.283333	1	0.028125
6.300000	1	0.025875
6.316667	1	0.023000
6.333333	1	0.019750
6.350000	1	0.016750
6.366667	1	0.013125
6.383333	1	0.010500
6.400000	1	0.006875
6.416667	1	0.004250
6.433333	1	0.001375
6.450000	1	-0.000500
6.466667	1	-0.003125
6.483333	1	-0.005625
6.500000	1	-0.007875
6.516667	1	-0.009375
6.533333	1	-0.011500
6.550000	1	-0.013500
6.566667	1	-0.015750
6.583333	1	-0.017125
6.600000	1	-0.018625
6.616667	1	-0.019750
6.633333	1	-0.020000
6.650000	1	-0.021000
6.666667	1	-0.022250
6.683333	1	-0.023000
6.700000	1	-0.023875
6.716667	1	-0.024375
6.733333	1	-0.024250
6.750000	1	-0.025000
6.766667	1	-0.024625
6.783333	1	-0.024000
6.800000	1	-0.023625
6.816667	1	-0.023250
6.833333	1	-0.023375
6.850000	1	-0.023000
6.866667	1	-0.022125
6.883333	1	-0.021250
6.900000	1	-0.020250
6.916667	1	-0.018750
6.933333	1	-0.017250
6.950000	1	-0.015625
6.966667	1	-0.013750
6.983333	1	-0.011375
7.000000	1	-0.009875
7.016667	1	-0.007625
7.033333	1	-0.005500
7.050000	1	-0.004000
7.066667	1	-0.001875
7.083333	1	-0.000500
7.100000	1	0.001000
7.116667	1	0.003625
7.133333	1	0.005750
7.150000	1	0.008125
7.166667	1	0.010500
7.183333	1	0.013250
7.200000	1	0.016000
7.216667	1	0.018500
7.233333	1	0.021875
7.250000	1	0.024000
7.266667	1	0.026000
7.283333	1	0.027875
7.300000	1	0.029875
7.316667	1	0.031750
7.333333	1	0.032875
7.350000	1	0.034375
7.366667	1	0.035125
7.383333	1	0.036375
7.400000	1	0.037875
7.416667	1	0.038250
7.433333	1	0.038000
7.450000	1	0.038125
7.466667	1	0.037125
7.483333	1	0.036750
7.500000	1	0.036250
7.516667	1	0.034875
7.533333	1	0.032875
7.550000	1	0.031125
7.566667	1	0.028625
7.583333	1	0.026125
7.600000	1	0.024125
7.616667	1	0.021500
7.633333	1	0.018500
7.650000	1	0.014375
7.666667	1	0.011125
7.683333	1	0.007625
7.700000	1	0.003750
7.716667	1	-0.000125
7.733333	1	-0.003250
7.750000	1	-0.007125
7.766667	1	-0.011125
7.783333	1	-0.015000
7.800000	1	-0.018625
7.816667	1	-0.022375
7.833333	1	-0.026625
7.850000	1	-0.030125
7.866667	1	-0.034125
7.883333	1	-0.037750
7.900000	1	-0.040875
7.916667	1	-0.044125
7.933333	1	-0.047250
7.950000	1	-0.049750
7.966667	1	-0.051875
7.983333	1	-0.054375
8.000000	1	-0.057000
8.016667	1	-0.058875
8.033333	1	-0.061250
8.050000	1	-0.063500
8.066667	1	-0.065500
8.083333	1	-0.067125
8.100000	1	-0.068750
8.116667	1	-0.070250
8.133333	1	-0.071125
8.150000	1	-0.072125
8.166667	1	-0.073625
8.183333	1	-0.074500
8.200000	1	-0.075375
8.216667	1	-0.076875
8.233333	1	-0.077750
8.250000	1	-0.078750
8.266667	1	-0.079625
8.283333	1	-0.080625
8.300000	1	-0.081375
8.316667	1	-0.082125
8.333333	1	-0.082500
8.350000	1	-0.082750
8.366667	1	-0.083250
8.383333	1	-0.083375
8.400000	1	-0.083625
8.416667	1	-0.083250
8.433333	1	-0.083500
8.450000	1	-0.083875
8.466667	1	-0.083625
8.483333	1	-0.084250
8.500000	1	-0.084000
8.516667	1	-0.082875
8.533333	1	-0.082750
8.550000	1	-0.082125
8.566667	1	-0.081875
8.583333	1	-0.081750
8.600000	1	-0.081000
8.616667	1	-0.080000
8.633333	1	-0.079000
8.650000	1	-0.078750
8.666667	1	-0.077750
8.683333	1	-0.077500
8.700000	1	-0.076000
8.716667	1	-0.075625
8.733333	1	-0.074625
8.750000	1	-0.073625
8.766667	1	-0.072750
8.783333	1	-0.071625
8.800000	1	-0.070625
8.816667	1	-0.069250
8.833333	1	-0.068000
8.850000	1	-0.067250
8.866667	1	-0.066500
8.883333	1	-0.065750
8.900000	1	-0.065125
8.916667	1	-0.064750
8.933333	1	-0.064125
8.950000	1	-0.063125
8.966667	1	-0.062250
8.983333	1	-0.061250
9.000000	1	-0.060875
9.016667	1	-0.060250
9.033333	1	-0.059750
9.050000	1	-0.059625
9.066667	1	-0.059250
9.083333	1	-0.059375
9.100000	1	-0.059250
9.116667	1	-0.059125
9.133333	1	-0.059000
9.150000	1	-0.059250
9.166667	1	-0.059125
9.183333	1	-0.059625
9.200000	1	-0.060250
9.216667	1	-0.061375
9.233333	1	-0.061750
9.250000	1	-0.062000
9.266667	1	-0.063125
9.283333	1	-0.064000
9.300000	1	-0.064750
9.316667	1	-0.065875
9.333333	1	-0.067000
9.350000	1	-0.068125
9.366667	1	-0.069000
9.383333	1	-0.069875
9.400000	1	-0.071250
9.416667	1	-0.072250
9.433333	1	-0.073250
9.450000	1	-0.074250
9.466667	1	-0.075750
9.483333	1	-0.076375
9.500000	1	-0.078000
9.516667	1	-0.078875
9.533333	1	-0.079750
9.550000	1	-0.080250
9.566667	1	-0.081000
9.583333	1	-0.081750
9.600000	1	-0.082625
9.616667	1	-0.083250
9.633333	1	-0.083875
9.650000	1	-0.084750
9.666667	1	-0.085250
9.683333	1	-0.085625
9.700000	1	-0.086375
9.716667	1	-0.086500
9.733333	1	-0.087000
9.750000	1	-0.087875
9.766667	1	-0.089125
9.783333	1	-0.090000
9.800000	1	-0.091125
9.816667	1	-0.092000
9.833333	1	-0.092500
9.850000	1	-0.093000
9.866667	1	-0.094125
9.883333	1	-0.095375
9.900000	1	-0.096500
9.916667	1	-0.097375
9.933333	1	-0.098375
9.950000	1	-0.099750
9.966667	1	-0.101375
9.983333	1	-0.102875
10.000000	1	-0.104500
10.016667	1	-0.105125
10.033333	1	-0.105875
10.050000	1	-0.106125
10.066667	1	-0.106375
10.083333	1	-0.105875
10.100000	1	-0.105000
10.116667	1	-0.102750
10.133333	1	-0.099375
10.150000	1	-0.095750
10.166667	1	-0.090000
10.183333	1	-0.084000
10.200000	1	-0.076000
10.216667	1	-0.066375
10.233333	1	-0.055500
10.250000	1	-0.043125
10.266667	1	-0.028500
10.283333	1	-0.012000
10.300000	1	0.007250
10.316667	1	0.029250
10.333333	1	0.053750
10.350000	1	0.078875
10.366667	1	0.104375
10.383333	1	0.128750
10.400000	1	0.150000
10.416667	1	0.165625
10.433333	1	0.174750
10.450000	1	0.176625
10.466667	1	0.174500
10.483333	1	0.175625
10.500000	1	0.193375
10.516667	1	0.247000
10.533333	1	0.365250
10.550000	1	0.584625
10.566667	1	0.952125
10.583333	1	1.518875
10.600000	1	2.339000
10.616667	1	3.464750
10.633333	1	4.939375
10.650000	1	6.793625
10.666667	1	9.048000
10.683333	1	11.707375
10.700000	1	14.762500
10.716667	1	18.185875
10.733333	1	21.931875
10.750000	1	25.936000
10.766667	1	30.099250
10.783333	1	34.295625
10.800000	1	38.350000
10.816667	1	42.027750
10.833333	1	45.038125
10.850000	1	47.061875
10.866667	1	47.804500
10.883333	1	47.072000
10.900000	1	44.848875
10.916667	1	41.331750
10.933333	1	36.893875
10.950000	1	31.989625
10.966667	1	27.049625
10.983333	1	22.403625
11.000000	1	18.257250
11.016667	1	14.701125
11.033333	1	11.748375
11.050000	1	9.357250
11.066667	1	7.458500
11.083333	1	5.973750
11.100000	1	4.827125
11.116667	1	3.948750
11.133333	1	3.279500
11.150000	1	2.770750
11.166667	1	2.385250
11.183333	1	2.092625
11.200000	1	1.870750
11.216667	1	1.701875
11.233333	1	1.571750
11.250000	1	1.472000
11.266667	1	1.394375
11.283333	1	1.331875
11.300000	1	1.279250
11.316667	1	1.232750
11.333333	1	1.190875
11.350000	1	1.152125
11.366667	1	1.114000
11.383333	1	1.077500
11.400000	1	1.041750
11.416667	1	1.007500
11.433333	1	0.975000
11.450000	1	0.945500
11.466667	1	0.919125
11.483333	1	0.896125
11.500000	1	0.877625
11.516667	1	0.862500
11.533333	1	0.851875
11.550000	1	0.845000
11.566667	1	0.842750
11.583333	1	0.845000
11.600000	1	0.853125
11.616667	1	0.865750
11.633333	1	0.884000
11.650000	1	0.907000
11.666667	1	0.934500
11.683333	1	0.965625
11.700000	1	0.999875
11.716667	1	1.035625
11.733333	1	1.070875
11.750000	1	1.104625
11.766667	1	1.134625
11.783333	1	1.159125
11.800000	1	1.177250
11.816667	1	1.187750
11.833333	1	1.190750
11.850000	1	1.188125
11.866667	1	1.178500
11.883333	1	1.163250
11.900000	1	1.145125
11.916667	1	1.124875
11.933333	1	1.102500
11.950000	1	1.079875
11.966667	1	1.058125
11.983333	1	1.038500
12.000000	1	1.021125
12.016667	1	1.006500
12.033333	1	0.993500
12.050000	1	0.983500
12.066667	1	0.976125
12.083333	1	0.971125
12.100000	1	0.968500
12.116667	1	0.968125
12.133333	1	0.969500
12.150000	1	0.972125
12.166667	1	0.976875
12.183333	1	0.982750
12.200000	1	0.991250
12.216667	1	1.002625
12.233333	1	1.017750
12.250000	1	1.037500
12.266667	1	1.064125
12.283333	1	1.098750
12.300000	1	1.144375
12.316667	1	1.206000
12.333333	1	1.289000
12.350000	1	1.398125
12.366667	1	1.544375
12.383333	1	1.740375
12.400000	1	2.002500
12.416667	1	2.349875
12.433333	1	2.812375
12.450000	1	3.423875
12.466667	1	4.231625
12.483333	1	5.290375
12.500000	1	6.668750
12.516667	1	8.443125
12.533333	1	10.696750
12.550000	1	13.513250
12.566667	1	16.969875
12.583333	1	21.124750
12.600000	1	26.002500
12.616667	1	31.577250
12.633333	1	37.777125
12.650000	1	44.468375
12.666667	1	51.452500
12.683333	1	58.470250
12.700000	1	65.217250
12.716667	1	71.371750
12.733333	1	76.617375
12.750000	1	80.688250
12.766667	1	83.384625
12.783333	1	84.600375
12.800000	1	84.328750
12.816667	1	82.666250
12.833333	1	79.787500
12.850000	1	75.930500
12.866667	1	71.373750
12.883333	1	66.404375
12.900000	1	61.296500
12.916667	1	56.292000
12.933333	1	51.584000
12.950000	1	47.310250
12.966667	1	43.557250
12.983333	1	40.361125
13.000000	1	37.722375
13.016667	1	35.617375
13.033333	1	34.003000
13.050000	1	32.826000
13.066667	1	32.032250
13.083333	1	31.567250
13.100000	1	31.381500
13.116667	1	31.429625
13.133333	1	31.671875
13.150000	1	32.073875
13.166667	1	32.609125
13.183333	1	33.254000
13.200000	1	33.989375
13.216667	1	34.799375
13.233333	1	35.673375
13.250000	1	36.603375
13.266667	1	37.581125
13.283333	1	38.601875
13.300000	1	39.660375
13.316667	1	40.756000
13.333333	1	41.883375
13.350000	1	43.041875
13.366667	1	44.229875
13.383333	1	45.448250
13.400000	1	46.693375
13.416667	1	47.967500
13.433333	1	49.270875
13.450000	1	50.603750
13.466667	1	51.967375
13.483333	1	53.362750
13.500000	1	54.789125
13.516667	1	56.246500
13.533333	1	57.733625
13.550000	1	59.251750
13.566667	1	60.801125
13.583333	1	62.383250
13.600000	1	63.994875
13.616667	1	65.639000
13.633333	1	67.318250
13.650000	1	69.033750
13.666667	1	70.786375
13.683333	1	72.573500
13.700000	1	74.388125
13.716667	1	76.192625
13.733333	1	77.902375
13.750000	1	79.372750
13.766667	1	80.419625
13.783333	1	80.863125
13.800000	1	80.563000
13.816667	1	79.414625
13.833333	1	77.318750
13.850000	1	74.150625
13.866667	1	69.759125
13.883333	1	64.052250
13.900000	1	57.141250
13.916667	1	49.446875
13.933333	1	41.597250
13.950000	1	34.217125
13.966667	1	27.735875
13.983333	1	22.328250
14.000000	1	17.965750
14.016667	1	14.518625
14.033333	1	11.833500
14.050000	1	9.768125
14.066667	1	8.198500
14.083333	1	7.021250
14.100000	1	6.144750
14.116667	1	5.493625
14.133333	1	5.007375
14.150000	1	4.640250
14.166667	1	4.358500
14.183333	1	4.136625
14.200000	1	3.959750
14.216667	1	3.814125
14.233333	1	3.691375
14.250000	1	3.584750
14.266667	1	3.491625
14.283333	1	3.408625
14.300000	1	3.334125
14.316667	1	3.266125
14.333333	1	3.204000
14.350000	1	3.147125
14.366667	1	3.094250
14.383333	1	3.045000
14.400000	1	2.999125
14.416667	1	2.956250
14.433333	1	2.917000
14.450000	1	2.881000
14.466667	1	2.847625
14.483333	1	2.817000
14.500000	1	2.788625
14.516667	1	2.762625
14.533333	1	2.737625
14.550000	1	2.713875
14.566667	1	2.691750
14.583333	1	2.671125
14.600000	1	2.653000
14.616667	1	2.635875
14.633333	1	2.620375
14.650000	1	2.608625
14.666667	1	2.599125
14.683333	1	2.593625
14.700000	1	2.592125
14.716667	1	2.595125
14.733333	1	2.603875
14.750000	1	2.619000
14.766667	1	2.638250
14.783333	1	2.659875
14.800000	1	2.684875
14.816667	1	2.710375
14.833333	1	2.734250
14.850000	1	2.753250
14.866667	1	2.766750
14.883333	1	2.770875
14.900000	1	2.765375
14.916667	1	2.748125
14.933333	1	2.718500
14.950000	1	2.678000
14.966667	1	2.626125
14.983333	1	2.564875
15.000000	1	2.497000
15.016667	1	2.423875
15.033333	1	2.348375
15.050000	1	2.272000
15.066667	1	2.197500
15.083333	1	2.125875
15.100000	1	2.057875
15.116667	1	1.995625
15.133333	1	1.938125
15.150000	1	1.886500
15.166667	1	1.840625
15.183333	1	1.800375
15.200000	1	1.765250
15.216667	1	1.734125
15.233333	1	1.708875
15.250000	1	1.687750
15.266667	1	1.670250
15.283333	1	1.656750
15.300000	1	1.646750
15.316667	1	1.642125
15.333333	1	1.642125
15.350000	1	1.646750
15.366667	1	1.657125
15.383333	1	1.671375
15.400000	1	1.691250
15.416667	1	1.716125
15.433333	1	1.744625
15.450000	1	1.777250
15.466667	1	1.811750
15.483333	1	1.846625
15.500000	1	1.880125
15.516667	1	1.909125
15.533333	1	1.932375
15.550000	1	1.948750
15.566667	1	1.957375
15.583333	1	1.957250
15.600000	1	1.947250
15.616667	1	1.929000
15.633333	1	1.903750
15.650000	1	1.872250
15.666667	1	1.836375
15.683333	1	1.796750
15.700000	1	1.755875
15.716667	1	1.714500
15.733333	1	1.674625
15.750000	1	1.634625
15.766667	1	1.597125
15.783333	1	1.560500
15.800000	1	1.526125
15.816667	1	1.493500
15.833333	1	1.462375
15.850000	1	1.431875
15.866667	1	1.403125
15.883333	1	1.375125
15.900000	1	1.349250
15.916667	1	1.324750
15.933333	1	1.301125
15.950000	1	1.278875
15.966667	1	1.259000
15.983333	1	1.241500
16.000000	1	1.226750
16.016667	1	1.214375
16.033333	1	1.202625
16.050000	1	1.194250
16.066667	1	1.187125
16.083333	1	1.182375
16.100000	1	1.178750
16.116667	1	1.175750
16.133333	1	1.174500
16.150000	1	1.174375
16.166667	1	1.174000
16.183333	1	1.174500
16.200000	1	1.175375
16.216667	1	1.175625
16.233333	1	1.175375
16.250000	1	1.175000
16.266667	1	1.172625
16.283333	1	1.170125
16.300000	1	1.166625
16.316667	1	1.162250
16.333333	1	1.157250
16.350000	1	1.150625
16.366667	1	1.144000
16.383333	1	1.138250
16.400000	1	1.132000
16.416667	1	1.125000
16.433333	1	1.119250
16.450000	1	1.114375
16.466667	1	1.111000
16.483333	1	1.109125
16.500000	1	1.108750
16.516667	1	1.110625
16.533333	1	1.113250
16.550000	1	1.118000
16.566667	1	1.124375
16.583333	1	1.132125
16.600000	1	1.140500
16.616667	1	1.148625
16.633333	1	1.156375
16.650000	1	1.163875
16.666667	1	1.170375
16.683333	1	1.176250
16.700000	1	1.181375
16.716667	1	1.184750
16.733333	1	1.186875
16.750000	1	1.188875
16.766667	1	1.190000
16.783333	1	1.192125
16.800000	1	1.194375
16.816667	1	1.196500
16.833333	1	1.199500
16.850000	1	1.202875
16.866667	1	1.206500
16.883333	1	1.210125
16.900000	1	1.214000
16.916667	1	1.217000
16.933333	1	1.219625
16.950000	1	1.221375
16.966667	1	1.222000
16.983333	1	1.221250
17.000000	1	1.219625
17.016667	1	1.217125
17.033333	1	1.212750
17.050000	1	1.208250
17.066667	1	1.202375
17.083333	1	1.196750
17.100000	1	1.190500
17.116667	1	1.184750
17.133333	1	1.178875
17.150000	1	1.174250
17.166667	1	1.171125
17.183333	1	1.167750
17.200000	1	1.165250
17.216667	1	1.163625
17.233333	1	1.162875
17.250000	1	1.163000
17.266667	1	1.163875
17.283333	1	1.165750
17.300000	1	1.168375
17.316667	1	1.171250
17.333333	1	1.174625
17.350000	1	1.179000
17.366667	1	1.183375
17.383333	1	1.187375
17.400000	1	1.191375
17.416667	1	1.195625
17.433333	1	1.199000
17.450000	1	1.201250
17.466667	1	1.203250
17.483333	1	1.204000
17.500000	1	1.203000
17.516667	1	1.201500
17.533333	1	1.198000
17.550000	1	1.192750
17.566667	1	1.186250
17.583333	1	1.178375
17.600000	1	1.169500
17.616667	1	1.158750
17.633333	1	1.147875
17.650000	1	1.135250
17.666667	1	1.122375
17.683333	1	1.107750
17.700000	1	1.093125
17.716667	1	1.078125
17.733333	1	1.063125
17.750000	1	1.048625
17.766667	1	1.035125
17.783333	1	1.021375
17.800000	1	1.007000
17.816667	1	0.992750
17.833333	1	0.979125
17.850000	1	0.965125
17.866667	1	0.951750
17.883333	1	0.938375
17.900000	1	0.925625
17.916667	1	0.912625
17.933333	1	0.900500
17.950000	1	0.888750
17.966667	1	0.877000
17.983333	1	0.866125
18.000000	1	0.855500
18.016667	1	0.844375
18.033333	1	0.834500
18.050000	1	0.824750
18.066667	1	0.815250
18.083333	1	0.805750
18.100000	1	0.796875
18.116667	1	0.788875
18.133333	1	0.781250
18.150000	1	0.773750
18.166667	1	0.766750
18.183333	1	0.760750
18.200000	1	0.756000
18.216667	1	0.752000
18.233333	1	0.748500
18.250000	1	0.746125
18.266667	1	0.744000
18.283333	1	0.742875
18.300000	1	0.742375
18.316667	1	0.742125
18.333333	1	0.743125
18.350000	1	0.744500
18.366667	1	0.746125
18.383333	1	0.748875
18.400000	1	0.751000
18.416667	1	0.754250
18.433333	1	0.758000
18.450000	1	0.763000
18.466667	1	0.768875
18.483333	1	0.775500
18.500000	1	0.783750
18.516667	1	0.793625
18.533333	1	0.805375
18.550000	1	0.818375
18.566667	1	0.833500
18.583333	1	0.850875
18.600000	1	0.869750
18.616667	1	0.891500
18.633333	1	0.914375
18.650000	1	0.939000
18.666667	1	0.966125
18.683333	1	0.994500
18.700000	1	1.025125
18.716667	1	1.057125
18.733333	1	1.090750
18.750000	1	1.125000
18.766667	1	1.158750
18.783333	1	1.193875
18.800000	1	1.228875
18.816667	1	1.263375
18.833333	1	1.296125
18.850000	1	1.326750
18.866667	1	1.354750
18.883333	1	1.379375
18.900000	1	1.399500
18.916667	1	1.414375
18.933333	1	1.424500
18.950000	1	1.428500
18.966667	1	1.425125
18.983333	1	1.415250
19.000000	1	1.398625
19.016667	1	1.375250
19.033333	1	1.345125
19.050000	1	1.310125
19.066667	1	1.270625
19.083333	1	1.225250
19.100000	1	1.177125
19.116667	1	1.126000
19.133333	1	1.074375
19.150000	1	1.022750
19.166667	1	0.972625
19.183333	1	0.923625
19.200000	1	0.877625
19.216667	1	0.834500
19.233333	1	0.795500
19.250000	1	0.761375
19.266667	1	0.731625
19.283333	1	0.707125
19.300000	1	0.688250
19.316667	1	0.674625
19.333333	1	0.666125
19.350000	1	0.663125
19.366667	1	0.666500
19.383333	1	0.675000
19.400000	1	0.688125
19.416667	1	0.705500
19.433333	1	0.727250
19.450000	1	0.753000
19.466667	1	0.781125
19.483333	1	0.811000
19.500000	1	0.841000
19.516667	1	0.872375
19.533333	1	0.903500
19.550000	1	0.932875
19.566667	1	0.958000
19.583333	1	0.980125
19.600000	1	0.998125
19.616667	1	1.011000
19.633333	1	1.017875
19.650000	1	1.018625
19.666667	1	1.012625
19.683333	1	1.001375
19.700000	1	0.984500
19.716667	1	0.963500
19.733333	1	0.937250
19.750000	1	0.908750
19.766667	1	0.876750
19.783333	1	0.843250
19.800000	1	0.808250
19.816667	1	0.772625
19.833333	1	0.737500
19.850000	1	0.702500
19.866667	1	0.669250
19.883333	1	0.638125
19.900000	1	0.608750
19.916667	1	0.581250
19.933333	1	0.556125
19.950000	1	0.533750
19.966667	1	0.514375
19.983333	1	0.497750
20.000000	1	0.483375
20.016667	1	0.472125
20.033333	1	0.462750
20.050000	1	0.456375
20.066667	1	0.452375
20.083333	1	0.450750
20.100000	1	0.452375
20.116667	1	0.456375
20.133333	1	0.462750
20.150000	1	0.472250
20.166667	1	0.483625
20.183333	1	0.496625
20.200000	1	0.511250
20.216667	1	0.527125
20.233333	1	0.544500
20.250000	1	0.562000
20.266667	1	0.580000
20.283333	1	0.597000
20.300000	1	0.613250
20.316667	1	0.627750
20.333333	1	0.640500
20.350000	1	0.650375
20.366667	1	0.657375
20.383333	1	0.661500
20.400000	1	0.661500
20.416667	1	0.659000
20.433333	1	0.654250
20.450000	1	0.646000
20.466667	1	0.636750
20.483333	1	0.626375
20.500000	1	0.616625
20.516667	1	0.607750
20.533333	1	0.601875
20.550000	1	0.598375
20.566667	1	0.598875
20.583333	1	0.604250
20.600000	1	0.614375
20.616667	1	0.631625
20.633333	1	0.656500
20.650000	1	0.688875
20.666667	1	0.728375
20.683333	1	0.775750
20.700000	1	0.830750
20.716667	1	0.892375
20.733333	1	0.959375
20.750000	1	1.031000
20.766667	1	1.106000
20.783333	1	1.182125
20.800000	1	1.257125
20.816667	1	1.328750
20.833333	1	1.394125
20.850000	1	1.452375
20.866667	1	1.500125
20.883333	1	1.536750
20.900000	1	1.560375
20.916667	1	1.571000
20.933333	1	1.568125
20.950000	1	1.550500
20.966667	1	1.520750
20.983333	1	1.480000
21.000000	1	1.428125
21.016667	1	1.367500
21.033333	1	1.302125
21.050000	1	1.231875
21.066667	1	1.159625
21.083333	1	1.086750
21.100000	1	1.015125
21.116667	1	0.945625
21.133333	1	0.880125
21.150000	1	0.819000
21.166667	1	0.762375
21.183333	1	0.710125
21.200000	1	0.663375
21.216667	1	0.621375
21.233333	1	0.584125
21.250000	1	0.551250
21.266667	1	0.522500
21.283333	1	0.497625
21.300000	1	0.476250
21.316667	1	0.457250
21.333333	1	0.441250
21.350000	1	0.427875
21.366667	1	0.416375
21.383333	1	0.406125
21.400000	1	0.397125
21.416667	1	0.389250
21.433333	1	0.383625
21.450000	1	0.378125
21.466667	1	0.373750
21.483333	1	0.370125
21.500000	1	0.367750
21.516667	1	0.365500
21.533333	1	0.363875
21.550000	1	0.362750
21.566667	1	0.362875
21.583333	1	0.363625
21.600000	1	0.366000
21.616667	1	0.369000
21.633333	1	0.373500
21.650000	1	0.379250
21.666667	1	0.386375
21.683333	1	0.395000
21.700000	1	0.405250
21.716667	1	0.417125
21.733333	1	0.430750
21.750000	1	0.446125
21.766667	1	0.463125
21.783333	1	0.481625
21.800000	1	0.501625
21.816667	1	0.523000
21.833333	1	0.545625
21.850000	1	0.569250
21.866667	1	0.593250
21.883333	1	0.617500
21.900000	1	0.641875
21.916667	1	0.666625
21.933333	1	0.689875
21.950000	1	0.711625
21.966667	1	0.731875
21.983333	1	0.749375
22.000000	1	0.765250
22.016667	1	0.778500
22.033333	1	0.788500
22.050000	1	0.795250
22.066667	1	0.799250
22.083333	1	0.800000
22.100000	1	0.798000
22.116667	1	0.793000
22.133333	1	0.785000
22.150000	1	0.774000
22.166667	1	0.761250
22.183333	1	0.746250
22.200000	1	0.729250
22.216667	1	0.710750
22.233333	1	0.691000
22.250000	1	0.670375
22.266667	1	0.649375
22.283333	1	0.627750
22.300000	1	0.606000
22.316667	1	0.584000
22.333333	1	0.561750
22.350000	1	0.539875
22.366667	1	0.518000
22.383333	1	0.496500
22.400000	1	0.476000
22.416667	1	0.455375
22.433333	1	0.436375
22.450000	1	0.417750
22.466667	1	0.400500
22.483333	1	0.383750
22.500000	1	0.368375
22.516667	1	0.352750
22.533333	1	0.339125
22.550000	1	0.326625
22.566667	1	0.314375
22.583333	1	0.303000
22.600000	1	0.292750
22.616667	1	0.283250
22.633333	1	0.273875
22.650000	1	0.265500
22.666667	1	0.257625
22.683333	1	0.250375
22.700000	1	0.243375
22.716667	1	0.236500
22.733333	1	0.230750
22.750000	1	0.225000
22.766667	1	0.219000
22.783333	1	0.213500
22.800000	1	0.208875
22.816667	1	0.203500
22.833333	1	0.199625
22.850000	1	0.195500
22.866667	1	0.191500
22.883333	1	0.187500
22.900000	1	0.184250
22.916667	1	0.181250
22.933333	1	0.178875
22.950000	1	0.176500
22.966667	1	0.174625
22.983333	1	0.173750
23.000000	1	0.173750
23.016667	1	0.173625
23.033333	1	0.173750
23.050000	1	0.174125
23.066667	1	0.175250
23.083333	1	0.177625
23.100000	1	0.179500
23.116667	1	0.181125
23.133333	1	0.184000
23.150000	1	0.186875
23.166667	1	0.190125
23.183333	1	0.194250
23.200000	1	0.198125
23.216667	1	0.202000
23.233333	1	0.206500
23.250000	1	0.211375
23.266667	1	0.218375
23.283333	1	0.225500
23.300000	1	0.234500
23.316667	1	0.243250
23.333333	1	0.255625
23.350000	1	0.270000
23.366667	1	0.287750
23.383333	1	0.308500
23.400000	1	0.333875
23.416667	1	0.364250
23.433333	1	0.400750
23.450000	1	0.444875
23.466667	1	0.496500
23.483333	1	0.557625
23.500000	1	0.628875
23.516667	1	0.711875
23.533333	1	0.807375
23.550000	1	0.916500
23.566667	1	1.041125
23.583333	1	1.180375
23.600000	1	1.336000
23.616667	1	1.507125
23.633333	1	1.694500
23.650000	1	1.897625
23.666667	1	2.114125
23.683333	1	2.342375
23.700000	1	2.580375
23.716667	1	2.826125
23.733333	1	3.075000
23.750000	1	3.323125
23.766667	1	3.565375
23.783333	1	3.796875
23.800000	1	4.012125
23.816667	1	4.208125
23.833333	1	4.379250
23.850000	1	4.521000
23.866667	1	4.631000
23.883333	1	4.706250
23.900000	1	4.745125
23.916667	1	4.747000
23.933333	1	4.712500
23.950000	1	4.643500
23.966667	1	4.540250
23.983333	1	4.407375
24.000000	1	4.248375
24.016667	1	4.067750
24.033333	1	3.869250
24.050000	1	3.658250
24.066667	1	3.438000
24.083333	1	3.213500
24.100000	1	2.988250
24.116667	1	2.765125
24.133333	1	2.547500
24.150000	1	2.337375
24.166667	1	2.137250
24.183333	1	1.949000
24.200000	1	1.773000
24.216667	1	1.610500
24.233333	1	1.460625
24.250000	1	1.324375
24.266667	1	1.200000
24.283333	1	1.087875
24.300000	1	0.988125
24.316667	1	0.898125
24.333333	1	0.818625
24.350000	1	0.749250
24.366667	1	0.688000
24.383333	1	0.634875
24.400000	1	0.589250
24.416667	1	0.549000
24.433333	1	0.515875
24.450000	1	0.487000
24.466667	1	0.462500
24.483333	1	0.441750
24.500000	1	0.424375
24.516667	1	0.409125
24.533333	1	0.396000
24.550000	1	0.385500
24.566667	1	0.375625
24.583333	1	0.367250
24.600000	1	0.359250
24.616667	1	0.351625
24.633333	1	0.345000
24.650000	1	0.338125
24.666667	1	0.331375
24.683333	1	0.324250
24.700000	1	0.316875
24.716667	1	0.309750
24.733333	1	0.302500
24.750000	1	0.295125
24.766667	1	0.287875
24.783333	1	0.280125
24.800000	1	0.272125
24.816667	1	0.264875
24.833333	1	0.257000
24.850000	1	0.250125
24.866667	1	0.243625
24.883333	1	0.237000
24.900000	1	0.230375
24.916667	1	0.224250
24.933333	1	0.217625
24.950000	1	0.211625
24.966667	1	0.206250
24.983333	1	0.201250
25.000000	1	0.196375
25.016667	1	0.191750
25.033333	1	0.187125
25.050000	1	0.183125
25.066667	1	0.179500
25.083333	1	0.175750
25.100000	1	0.171875
25.116667	1	0.168375
25.133333	1	0.165250
25.150000	1	0.162375
25.166667	1	0.158750
25.183333	1	0.156625
25.200000	1	0.153875
25.216667	1	0.150750
25.233333	1	0.148500
25.250000	1	0.146375
25.266667	1	0.144875
25.283333	1	0.142625
25.300000	1	0.141125
25.316667	1	0.139250
25.333333	1	0.138375
25.350000	1	0.137125
25.366667	1	0.136125
25.383333	1	0.135375
25.400000	1	0.135000
25.416667	1	0.134125
25.433333	1	0.134000
25.450000	1	0.133500
25.466667	1	0.134500
25.483333	1	0.134750
25.500000	1	0.134750
25.516667	1	0.135125
25.533333	1	0.135625
25.550000	1	0.136125
25.566667	1	0.137125
25.583333	1	0.137625
25.600000	1	0.137500
25.616667	1	0.138250
25.633333	1	0.139375
25.650000	1	0.139750
25.666667	1	0.140875
25.683333	1	0.141000
25.700000	1	0.141500
25.716667	1	0.142375
25.733333	1	0.142875
25.750000	1	0.143500
25.766667	1	0.144375
25.783333	1	0.145750
25.800000	1	0.146625
25.816667	1	0.148000
25.833333	1	0.149375
25.850000	1	0.151250
25.866667	1	0.153500
25.883333	1	0.156500
25.900000	1	0.159375
25.916667	1	0.162125
25.933333	1	0.165125
25.950000	1	0.169250
25.966667	1	0.173375
25.983333	1	0.177625
26.000000	1	0.182125
26.016667	1	0.187625
26.033333	1	0.193375
26.050000	1	0.198000
26.066667	1	0.203750
26.083333	1	0.209375
26.100000	1	0.215125
26.116667	1	0.220250
26.133333	1	0.226125
26.150000	1	0.232125
26.166667	1	0.237375
26.183333	1	0.241125
26.200000	1	0.245500
26.216667	1	0.249250
26.233333	1	0.252625
26.250000	1	0.255125
26.266667	1	0.256875
26.283333	1	0.258375
26.300000	1	0.259250
26.316667	1	0.259125
26.333333	1	0.258625
26.350000	1	0.257375
26.366667	1	0.255500
26.383333	1	0.252250
26.400000	1	0.249000
26.416667	1	0.244875
26.433333	1	0.240500
26.450000	1	0.235250
26.466667	1	0.229875
26.483333	1	0.224000
26.500000	1	0.217625
26.516667	1	0.211000
26.533333	1	0.204000
26.550000	1	0.197375
26.566667	1	0.190250
26.583333	1	0.183625
26.600000	1	0.176500
26.616667	1	0.170250
26.633333	1	0.164125
26.650000	1	0.157875
26.666667	1	0.152250
26.683333	1	0.146750
26.700000	1	0.142000
26.716667	1	0.137375
26.733333	1	0.133250
26.750000	1	0.129625
26.766667	1	0.125875
26.783333	1	0.121875
26.800000	1	0.119125
26.816667	1	0.117125
26.833333	1	0.115375
26.850000	1	0.113875
26.866667	1	0.112625
26.883333	1	0.111250
26.900000	1	0.111125
26.916667	1	0.111750
26.933333	1	0.111625
26.950000	1	0.112500
26.966667	1	0.113875
26.983333	1	0.115125
27.000000	1	0.117125
27.016667	1	0.119750
27.033333	1	0.123125
27.050000	1	0.127000
27.066667	1	0.130750
27.083333	1	0.135625
27.100000	1	0.141000
27.116667	1	0.147250
27.133333	1	0.155625
27.150000	1	0.164625
27.166667	1	0.175125
27.183333	1	0.187500
27.200000	1	0.201500
27.216667	1	0.216875
27.233333	1	0.235875
27.250000	1	0.256375
27.266667	1	0.280625
27.283333	1	0.308500
27.300000	1	0.340000
27.316667	1	0.375750
27.333333	1	0.416500
27.350000	1	0.463125
27.366667	1	0.514875
27.383333	1	0.573500
27.400000	1	0.638625
27.416667	1	0.711250
27.433333	1	0.792500
27.450000	1	0.882375
27.466667	1	0.981125
27.483333	1	1.089750
27.500000	1	1.207125
27.516667	1	1.334500
27.533333	1	1.471375
27.550000	1	1.616875
27.566667	1	1.771000
27.583333	1	1.932500
27.600000	1	2.100750
27.616667	1	2.275375
27.633333	1	2.453750
27.650000	1	2.634250
27.666667	1	2.815500
27.683333	1	2.994500
27.700000	1	3.168750
27.716667	1	3.336500
27.733333	1	3.493750
27.750000	1	3.640000
27.766667	1	3.771375
27.783333	1	3.885625
27.800000	1	3.980000
27.816667	1	4.053750
27.833333	1	4.104500
27.850000	1	4.132125
27.866667	1	4.134625
27.883333	1	4.111875
27.900000	1	4.064500
27.916667	1	3.994000
27.933333	1	3.899750
27.950000	1	3.785250
27.966667	1	3.652750
27.983333	1	3.503750
28.000000	1	3.341625
28.016667	1	3.168375
28.033333	1	2.987750
28.050000	1	2.801000
28.066667	1	2.611250
28.083333	1	2.422375
28.100000	1	2.236125
28.116667	1	2.054500
28.133333	1	1.879750
28.150000	1	1.712750
28.166667	1	1.555000
28.183333	1	1.407125
28.200000	1	1.270375
28.216667	1	1.143750
28.233333	1	1.028000
28.250000	1	0.923000
28.266667	1	0.827875
28.283333	1	0.742250
28.300000	1	0.667125
28.316667	1	0.600375
28.333333	1	0.541875
28.350000	1	0.491625
28.366667	1	0.448375
28.383333	1	0.412250
28.400000	1	0.382250
28.416667	1	0.357250
28.433333	1	0.337000
28.450000	1	0.321375
28.466667	1	0.309750
28.483333	1	0.302000
28.500000	1	0.297000
28.516667	1	0.294625
28.533333	1	0.295625
28.550000	1	0.298500
28.566667	1	0.303375
28.583333	1	0.309625
28.600000	1	0.316875
28.616667	1	0.325000
28.633333	1	0.334250
28.650000	1	0.344000
28.666667	1	0.353625
28.683333	1	0.364000
28.700000	1	0.374500
28.716667	1	0.384125
28.733333	1	0.394000
28.750000	1	0.404000
28.766667	1	0.413750
28.783333	1	0.422375
28.800000	1	0.430250
28.816667	1	0.437000
28.833333	1	0.443500
28.850000	1	0.447875
28.866667	1	0.451125
28.883333	1	0.454375
28.900000	1	0.455750
28.916667	1	0.456000
28.933333	1	0.455500
28.950000	1	0.453625
28.966667	1	0.450875
28.983333	1	0.447250
29.000000	1	0.442375
29.016667	1	0.436375
29.033333	1	0.429250
29.050000	1	0.421500
29.066667	1	0.412250
29.083333	1	0.401750
29.100000	1	0.391000
29.116667	1	0.379500
29.133333	1	0.367500
29.150000	1	0.355250
29.166667	1	0.342500
29.183333	1	0.328875
29.200000	1	0.315375
29.216667	1	0.301750
29.233333	1	0.286875
29.250000	1	0.272750
29.266667	1	0.259125
29.283333	1	0.244750
29.300000	1	0.230750
29.316667	1	0.217625
29.333333	1	0.204000
29.350000	1	0.191000
29.366667	1	0.178125
29.383333	1	0.165625
29.400000	1	0.153500
29.416667	1	0.141750
29.433333	1	0.130500
29.450000	1	0.119875
29.466667	1	0.109000
29.483333	1	0.098500
29.500000	1	0.089125
29.516667	1	0.080375
29.533333	1	0.072500
29.550000	1	0.064375
29.566667	1	0.056500
29.583333	1	0.049125
29.600000	1	0.042625
29.616667	1	0.036375
29.633333	1	0.031125
29.650000	1	0.025375
29.666667	1	0.020125
29.683333	1	0.015125
29.700000	1	0.011375
29.716667	1	0.007500
29.733333	1	0.004500
29.750000	1	0.001625
29.766667	1	-0.001250
29.783333	1	-0.003750
29.800000	1	-0.006250
29.816667	1	-0.007625
29.833333	1	-0.009875
29.850000	1	-0.011750
29.866667	1	-0.013375
29.883333	1	-0.015250
29.900000	1	-0.016500
29.916667	1	-0.017000
29.933333	1	-0.018250
29.950000	1	-0.018875
29.966667	1	-0.019875
29.983333	1	-0.020500
30.000000	1	-0.020875
30.016667	1	-0.021500
30.033333	1	-0.021500
30.050000	1	-0.021875
30.066667	1	-0.022125
30.083333	1	-0.022375
30.100000	1	-0.022375
30.116667	1	-0.022000
30.133333	1	-0.022625
30.150000	1	-0.022500
30.166667	1	-0.022375
30.183333	1	-0.022250
30.200000	1	-0.022000
30.216667	1	-0.021750
30.233333	1	-0.020375
30.250000	1	-0.019500
30.266667	1	-0.019375
30.283333	1	-0.018500
30.300000	1	-0.017375
30.316667	1	-0.015750
30.333333	1	-0.014125
30.350000	1	-0.012750
30.366667	1	-0.011250
30.383333	1	-0.009125
30.400000	1	-0.007500
30.416667	1	-0.005000
30.433333	1	-0.002750
30.450000	1	-0.000500
30.466667	1	0.001625
30.483333	1	0.005875
30.500000	1	0.009250
30.516667	1	0.012500
30.533333	1	0.016500
30.550000	1	0.021625
30.566667	1	0.027500
30.583333	1	0.033125
30.600000	1	0.038625
30.616667	1	0.044875
30.633333	1	0.052125
30.650000	1	0.059875
30.666667	1	0.068125
30.683333	1	0.076875
30.700000	1	0.086500
30.716667	1	0.096625
30.733333	1	0.106625
30.750000	1	0.118500
30.766667	1	0.130625
30.783333	1	0.143875
30.800000	1	0.157875
30.816667	1	0.172750
30.833333	1	0.189000
30.850000	1	0.206250
30.866667	1	0.225125
30.883333	1	0.245500
30.900000	1	0.267625
30.916667	1	0.291500
30.933333	1	0.317500
30.950000	1	0.345750
30.966667	1	0.377000
30.983333	1	0.410875
31.000000	1	0.448375
31.016667	1	0.489250
31.033333	1	0.533875
31.050000	1	0.582500
31.066667	1	0.636625
31.083333	1	0.695000
31.100000	1	0.758625
31.116667	1	0.827125
31.133333	1	0.900875
31.150000	1	0.980125
31.166667	1	1.065250
31.183333	1	1.156375
31.200000	1	1.252125
31.216667	1	1.354000
31.233333	1	1.459000
31.250000	1	1.568500
31.266667	1	1.681375
31.283333	1	1.796750
31.300000	1	1.913375
31.316667	1	2.030250
31.333333	1	2.145875
31.350000	1	2.260875
31.366667	1	2.372000
31.383333	1	2.478375
31.400000	1	2.579125
31.416667	1	2.673000
31.433333	1	2.757875
31.450000	1	2.833625
31.466667	1	2.898500
31.483333	1	2.951875
31.500000	1	2.992750
31.516667	1	3.020750
31.533333	1	3.035625
31.550000	1	3.036375
31.566667	1	3.024125
31.583333	1	2.998500
31.600000	1	2.960750
31.616667	1	2.909125
31.633333	1	2.847125
31.650000	1	2.775250
31.666667	1	2.693875
31.683333	1	2.603750
31.700000	1	2.507000
31.716667	1	2.404875
31.733333	1	2.298250
31.750000	1	2.188750
31.766667	1	2.076625
31.783333	1	1.963875
31.800000	1	1.851750
31.816667	1	1.740250
31.833333	1	1.630375
31.850000	1	1.523875
31.866667	1	1.420125
31.883333	1	1.321875
31.900000	1	1.227000
31.916667	1	1.138125
31.933333	1	1.054375
31.950000	1	0.975125
31.966667	1	0.901500
31.983333	1	0.832500
32.000000	1	0.768625
32.016667	1	0.710375
32.033333	1	0.656000
32.050000	1	0.606875
32.066667	1	0.561750
32.083333	1	0.519625
32.100000	1	0.481125
32.116667	1	0.446875
32.133333	1	0.415250
32.150000	1	0.385875
32.166667	1	0.359625
32.183333	1	0.334750
32.200000	1	0.311750
32.216667	1	0.289625
32.233333	1	0.270375
32.250000	1	0.251875
32.266667	1	0.234500
32.283333	1	0.217875
32.300000	1	0.201750
32.316667	1	0.186375
32.333333	1	0.172250
32.350000	1	0.158250
32.366667	1	0.144875
32.383333	1	0.132375
32.400000	1	0.120375
32.416667	1	0.108250
32.433333	1	0.096375
32.450000	1	0.085250
32.466667	1	0.075250
32.483333	1	0.065125
32.500000	1	0.056125
32.516667	1	0.047625
32.533333	1	0.039000
32.550000	1	0.031000
32.566667	1	0.023250
32.583333	1	0.016750
32.600000	1	0.010375
32.616667	1	0.004625
32.633333	1	-0.001000
32.650000	1	-0.005875
32.666667	1	-0.010750
32.683333	1	-0.014875
32.700000	1	-0.018750
32.716667	1	-0.022500
32.733333	1	-0.025875
32.750000	1	-0.029375
32.766667	1	-0.032125
32.783333	1	-0.035375
32.800000	1	-0.038125
32.816667	1	-0.040125
32.833333	1	-0.042500
32.850000	1	-0.045500
32.866667	1	-0.047500
32.883333	1	-0.049500
32.900000	1	-0.051125
32.916667	1	-0.054125
32.933333	1	-0.056000
32.950000	1	-0.057625
32.966667	1	-0.058625
32.983333	1	-0.061000
33.000000	1	-0.062125
33.016667	1	-0.063500
33.033333	1	-0.065625
33.050000	1	-0.067875
33.066667	1	-0.069000
33.083333	1	-0.070750
33.100000	1	-0.072125
33.116667	1	-0.073000
33.133333	1	-0.073125
33.150000	1	-0.073375
33.166667	1	-0.073875
33.183333	1	-0.073750
33.200000	1	-0.073125
33.216667	1	-0.072750
33.233333	1	-0.072250
33.250000	1	-0.070750
33.266667	1	-0.068125
33.283333	1	-0.066375
33.300000	1	-0.064875
33.316667	1	-0.062125
33.333333	1	-0.058625
33.350000	1	-0.054125
33.366667	1	-0.049000
33.383333	1	-0.044250
33.400000	1	-0.038750
33.416667	1	-0.032125
33.433333	1	-0.025125
33.450000	1	-0.017375
33.466667	1	-0.008625
33.483333	1	0.000875
33.500000	1	0.011250
33.516667	1	0.022625
33.533333	1	0.034750
33.550000	1	0.047875
33.566667	1	0.062250
33.583333	1	0.078125
33.600000	1	0.095125
33.616667	1	0.112375
33.633333	1	0.131250
33.650000	1	0.151250
33.666667	1	0.172125
33.683333	1	0.194500
33.700000	1	0.217500
33.716667	1	0.241375
33.733333	1	0.265750
33.750000	1	0.291750
33.766667	1	0.318375
33.783333	1	0.345250
33.800000	1	0.372750
33.816667	1	0.400125
33.833333	1	0.427000
33.850000	1	0.453750
33.866667	1	0.479250
33.883333	1	0.504625
33.900000	1	0.529250
33.916667	1	0.552875
33.933333	1	0.574125
33.950000	1	0.594500
33.966667	1	0.612750
33.983333	1	0.628375
34.000000	1	0.641875
34.016667	1	0.653125
34.033333	1	0.661625
34.050000	1	0.667500
34.066667	1	0.670000
34.083333	1	0.671000
34.100000	1	0.669125
34.116667	1	0.664625
34.133333	1	0.657875
34.150000	1	0.648625
34.166667	1	0.637125
34.183333	1	0.623750
34.200000	1	0.608125
34.216667	1	0.591375
34.233333	1	0.573250
34.250000	1	0.553375
34.266667	1	0.532750
34.283333	1	0.510875
34.300000	1	0.489500
34.316667	1	0.467000
34.333333	1	0.445250
34.350000	1	0.422625
34.366667	1	0.400375
34.383333	1	0.378625
34.400000	1	0.358125
34.416667	1	0.337375
34.433333	1	0.317250
34.450000	1	0.297750
34.466667	1	0.279750
34.483333	1	0.262625
34.500000	1	0.246750
34.516667	1	0.231000
34.533333	1	0.216375
34.550000	1	0.203000
34.566667	1	0.190125
34.583333	1	0.178750
34.600000	1	0.167500
34.616667	1	0.156750
34.633333	1	0.146750
34.650000	1	0.138000
34.666667	1	0.130000
34.683333	1	0.122000
34.700000	1	0.114875
34.716667	1	0.107750
34.733333	1	0.102125
34.750000	1	0.096125
34.766667	1	0.090750
34.783333	1	0.086000
34.800000	1	0.081750
34.816667	1	0.077375
34.833333	1	0.072875
34.850000	1	0.068375
34.866667	1	0.064875
34.883333	1	0.060750
34.900000	1	0.057750
34.916667	1	0.054375
34.933333	1	0.051750
34.950000	1	0.049625
34.966667	1	0.047500
34.983333	1	0.045125
35.000000	1	0.042875
35.016667	1	0.040625
35.033333	1	0.038625
35.050000	1	0.037875
35.066667	1	0.036750
35.083333	1	0.036250
35.100000	1	0.036375
35.116667	1	0.035625
35.133333	1	0.035250
35.150000	1	0.034875
35.166667	1	0.034875
35.183333	1	0.035250
35.200000	1	0.035750
35.216667	1	0.035000
35.233333	1	0.035125
35.250000	1	0.036250
35.266667	1	0.037875
35.283333	1	0.038875
35.300000	1	0.040125
35.316667	1	0.042375
35.333333	1	0.043500
35.350000	1	0.045500
35.366667	1	0.048125
35.383333	1	0.049625
35.400000	1	0.051500
35.416667	1	0.053500
35.433333	1	0.055500
35.450000	1	0.057750
35.466667	1	0.060250
35.483333	1	0.062250
35.500000	1	0.064250
35.516667	1	0.066750
35.533333	1	0.068750
35.550000	1	0.069875
35.566667	1	0.071750
35.583333	1	0.073250
35.600000	1	0.074375
35.616667	1	0.076000
35.633333	1	0.077375
35.650000	1	0.078875
35.666667	1	0.080250
35.683333	1	0.081625
35.700000	1	0.083125
35.716667	1	0.084250
35.733333	1	0.085250
35.750000	1	0.085875
35.766667	1	0.086000
35.783333	1	0.086500
35.800000	1	0.086375
35.816667	1	0.086625
35.833333	1	0.086750
35.850000	1	0.086125
35.866667	1	0.085875
35.883333	1	0.085500
35.900000	1	0.084750
35.916667	1	0.084250
35.933333	1	0.083500
35.950000	1	0.082000
35.966667	1	0.081125
35.983333	1	0.079875
36.000000	1	0.078125
36.016667	1	0.076500
36.033333	1	0.074625
36.050000	1	0.073750
36.066667	1	0.072000
36.083333	1	0.069750
36.100000	1	0.067875
36.116667	1	0.065875
36.133333	1	0.063500
36.150000	1	0.061500
36.166667	1	0.059125
36.183333	1	0.056750
36.200000	1	0.054875
36.216667	1	0.052625
36.233333	1	0.049750
36.250000	1	0.047625
36.266667	1	0.046375
36.283333	1	0.044750
36.300000	1	0.043125
36.316667	1	0.041125
36.333333	1	0.039125
36.350000	1	0.037125
36.366667	1	0.035125
36.383333	1	0.033000
36.400000	1	0.031500
36.416667	1	0.030125
36.433333	1	0.028250
36.450000	1	0.026125
36.466667	1	0.024000
36.483333	1	0.021875
36.500000	1	0.020375
36.516667	1	0.018125
36.533333	1	0.016250
36.550000	1	0.014625
36.566667	1	0.012500
36.583333	1	0.009125
36.600000	1	0.006750
36.616667	1	0.004500
36.633333	1	0.002000
36.650000	1	0.000000
36.666667	1	-0.002625
36.683333	1	-0.005000
36.700000	1	-0.006625
36.716667	1	-0.009125
36.733333	1	-0.010875
36.750000	1	-0.013125
36.766667	1	-0.015000
36.783333	1	-0.017500
36.800000	1	-0.020500
36.816667	1	-0.022125
36.833333	1	-0.024375
36.850000	1	-0.026250
36.866667	1	-0.028000
36.883333	1	-0.029000
36.900000	1	-0.030750
36.916667	1	-0.031375
36.933333	1	-0.032250
36.950000	1	-0.033250
36.966667	1	-0.033625
36.983333	1	-0.033625
37.000000	1	-0.034375
37.016667	1	-0.033875
37.033333	1	-0.034375
37.050000	1	-0.034750
37.066667	1	-0.034250
37.083333	1	-0.033500
37.100000	1	-0.032000
37.116667	1	-0.031000
37.133333	1	-0.030000
37.150000	1	-0.028750
37.166667	1	-0.027250
37.183333	1	-0.026625
37.200000	1	-0.025250
37.216667	1	-0.023625
37.233333	1	-0.022000
37.250000	1	-0.020875
37.266667	1	-0.019000
37.283333	1	-0.017750
37.300000	1	-0.016500
37.316667	1	-0.015500
37.333333	1	-0.014250
37.350000	1	-0.013375
37.366667	1	-0.012000
37.383333	1	-0.010625
37.400000	1	-0.009875
37.416667	1	-0.009125
37.433333	1	-0.008375
37.450000	1	-0.007875
37.466667	1	-0.007750
37.483333	1	-0.007250
37.500000	1	-0.006000
37.516667	1	-0.005375
37.533333	1	-0.005500
37.550000	1	-0.005500
37.566667	1	-0.004875
37.583333	1	-0.004750
37.600000	1	-0.005375
37.616667	1	-0.006125
37.633333	1	-0.005750
37.650000	1	-0.006625
37.666667	1	-0.007375
37.683333	1	-0.007750
37.700000	1	-0.008375
37.716667	1	-0.009125
37.733333	1	-0.010125
37.750000	1	-0.011500
37.766667	1	-0.012625
37.783333	1	-0.013750
37.800000	1	-0.015000
37.816667	1	-0.015750
37.833333	1	-0.017250
37.850000	1	-0.018625
37.866667	1	-0.020625
37.883333	1	-0.021000
37.900000	1	-0.022000
37.916667	1	-0.023125
37.933333	1	-0.023375
37.950000	1	-0.024375
37.966667	1	-0.025125
37.983333	1	-0.026375
38.000000	1	-0.027375
38.016667	1	-0.028000
38.033333	1	-0.028125
38.050000	1	-0.028625
38.066667	1	-0.028375
38.083333	1	-0.028125
38.100000	1	-0.027750
38.116667	1	-0.027125
38.133333	1	-0.026625
38.150000	1	-0.025375
38.166667	1	-0.024625
38.183333	1	-0.023250
38.200000	1	-0.022625
38.216667	1	-0.021625
38.233333	1	-0.020000
38.250000	1	-0.019250
38.266667	1	-0.018500
38.283333	1	-0.016250
38.300000	1	-0.014750
38.316667	1	-0.013625
38.333333	1	-0.012000
38.350000	1	-0.010875
38.366667	1	-0.010250
38.383333	1	-0.008750
38.400000	1	-0.007250
38.416667	1	-0.005625
38.433333	1	-0.004125
38.450000	1	-0.002750
38.466667	1	-0.001125
38.483333	1	0.000125
38.500000	1	0.001000
38.516667	1	0.002250
38.533333	1	0.003125
38.550000	1	0.004000
38.566667	1	0.005000
38.583333	1	0.005875
38.600000	1	0.007500
38.616667	1	0.008250
38.633333	1	0.009375
38.650000	1	0.009750
38.666667	1	0.010625
38.683333	1	0.009875
38.700000	1	0.010875
38.716667	1	0.011375
38.733333	1	0.011250
38.750000	1	0.011625
38.766667	1	0.012000
38.783333	1	0.012250
38.800000	1	0.011625
38.816667	1	0.011500
38.833333	1	0.011000
38.850000	1	0.010500
38.866667	1	0.010625
38.883333	1	0.011125
38.900000	1	0.011000
38.916667	1	0.011000
38.933333	1	0.010625
38.950000	1	0.010250
38.966667	1	0.009875
38.983333	1	0.009625
39.000000	1	0.009500
39.016667	1	0.009125
39.033333	1	0.009375
39.050000	1	0.009250
39.066667	1	0.008750
39.083333	1	0.009000
39.100000	1	0.008875
39.116667	1	0.008625
39.133333	1	0.008000
39.150000	1	0.007375
39.166667	1	0.007125
39.183333	1	0.006625
39.200000	1	0.005875
39.216667	1	0.004625
39.233333	1	0.003500
39.250000	1	0.002125
39.266667	1	0.000625
39.283333	1	-0.000250
39.300000	1	-0.001125
39.316667	1	-0.003000
39.333333	1	-0.004750
39.350000	1	-0.006625
39.366667	1	-0.008750
39.383333	1	-0.010625
39.400000	1	-0.012750
39.416667	1	-0.014625
39.433333	1	-0.016625
39.450000	1	-0.018625
39.466667	1	-0.020250
39.483333	1	-0.022375
39.500000	1	-0.024375
39.516667	1	-0.026375
39.533333	1	-0.027750
39.550000	1	-0.029500
39.566667	1	-0.031000
39.583333	1	-0.032250
39.600000	1	-0.033625
39.616667	1	-0.034625
39.633333	1	-0.035375
39.650000	1	-0.036750
39.666667	1	-0.037625
39.683333	1	-0.038125
39.700000	1	-0.039125
39.716667	1	-0.039625
39.733333	1	-0.039750
39.750000	1	-0.039875
39.766667	1	-0.039875
39.783333	1	-0.040250
39.800000	1	-0.039500
39.816667	1	-0.040125
39.833333	1	-0.039625
39.850000	1	-0.039125
39.866667	1	-0.038375
39.883333	1	-0.038000
39.900000	1	-0.038000
39.916667	1	-0.038000
39.933333	1	-0.037625
39.950000	1	-0.037625
39.966667	1	-0.037375
39.983333	1	-0.037625
40.000000	1	-0.036875
