URL	chrom://bioreactor/micro_cm7/HPLC_Ultimate_3000/Users/markusar/20240716_MA_pHrange2.seq/620.smp/RI_1.channel/RI_1.chm
Channel	RI_1

Injection Information:
Data Vault	micro_cm7
Sequence	20240716_MA_pHrange2
Name	Fp3_25H_1
Number	33
Position	BC9
Comment	
Processing Method	
Instrument Method	run_25B_method
Type	Unknown
Status	Finished
Inject Time	17.07.2024 15:57:32 +02:00
Volume (µl)	20.0000
Dilution Factor	1.0000
Weight	1.0000

Chromatogram Data Information:
Time Min. (min)	0.000000
Time Max. (min)	40.000000
Data Points	2401
Detector	RI
Generating Data System	Chromeleon 7.3.2.11814
Exporting Data System	Chromeleon 7.3.2.0
Operator	Instrument Controller
Signal Quantity	Refractive 
Signal Unit	µRIU
Signal Min.	0.019125
Signal Max.	84.910250
Channel	RI_1
Driver Name	RID520Driver.dll
Channel Type	Evaluation
Min. Step (s)	1
Max. Step (s)	1
Average Step (s)	1

Signal Parameter Information:
Signal Info	

Chromatogram Data:
Time (min)	Step (s)	Value (µRIU)
0.000000	n.a.	0.190000
0.016667	1	0.190375
0.033333	1	0.190875
0.050000	1	0.191500
0.066667	1	0.192000
0.083333	1	0.192250
0.100000	1	0.191875
0.116667	1	0.192125
0.133333	1	0.191875
0.150000	1	0.192000
0.166667	1	0.191000
0.183333	1	0.190250
0.200000	1	0.189250
0.216667	1	0.188250
0.233333	1	0.187125
0.250000	1	0.185625
0.266667	1	0.183875
0.283333	1	0.182625
0.300000	1	0.181625
0.316667	1	0.180375
0.333333	1	0.179625
0.350000	1	0.177750
0.366667	1	0.175125
0.383333	1	0.172625
0.400000	1	0.170750
0.416667	1	0.169375
0.433333	1	0.168750
0.450000	1	0.168750
0.466667	1	0.169000
0.483333	1	0.168750
0.500000	1	0.168375
0.516667	1	0.167250
0.533333	1	0.166625
0.550000	1	0.164000
0.566667	1	0.161875
0.583333	1	0.157875
0.600000	1	0.154750
0.616667	1	0.151500
0.633333	1	0.149000
0.650000	1	0.147000
0.666667	1	0.145875
0.683333	1	0.144500
0.700000	1	0.143000
0.716667	1	0.141125
0.733333	1	0.139750
0.750000	1	0.139000
0.766667	1	0.137500
0.783333	1	0.136000
0.800000	1	0.134875
0.816667	1	0.133875
0.833333	1	0.132875
0.850000	1	0.132000
0.866667	1	0.130625
0.883333	1	0.130250
0.900000	1	0.129000
0.916667	1	0.128500
0.933333	1	0.127125
0.950000	1	0.126125
0.966667	1	0.125375
0.983333	1	0.124625
1.000000	1	0.122750
1.016667	1	0.121875
1.033333	1	0.121000
1.050000	1	0.120750
1.066667	1	0.119875
1.083333	1	0.119250
1.100000	1	0.118125
1.116667	1	0.117125
1.133333	1	0.116125
1.150000	1	0.114625
1.166667	1	0.113750
1.183333	1	0.113375
1.200000	1	0.112000
1.216667	1	0.110750
1.233333	1	0.108875
1.250000	1	0.107250
1.266667	1	0.105500
1.283333	1	0.104250
1.300000	1	0.103125
1.316667	1	0.101250
1.333333	1	0.100125
1.350000	1	0.098375
1.366667	1	0.097750
1.383333	1	0.096750
1.400000	1	0.095250
1.416667	1	0.094125
1.433333	1	0.093375
1.450000	1	0.092125
1.466667	1	0.091750
1.483333	1	0.091375
1.500000	1	0.091125
1.516667	1	0.091500
1.533333	1	0.091625
1.550000	1	0.091500
1.566667	1	0.091625
1.583333	1	0.091875
1.600000	1	0.092875
1.616667	1	0.093375
1.633333	1	0.094000
1.650000	1	0.094875
1.666667	1	0.096250
1.683333	1	0.097000
1.700000	1	0.097875
1.716667	1	0.098750
1.733333	1	0.099750
1.750000	1	0.100625
1.766667	1	0.101125
1.783333	1	0.102375
1.800000	1	0.103375
1.816667	1	0.104125
1.833333	1	0.105375
1.850000	1	0.106250
1.866667	1	0.107000
1.883333	1	0.108000
1.900000	1	0.109250
1.916667	1	0.109500
1.933333	1	0.109625
1.950000	1	0.110375
1.966667	1	0.111000
1.983333	1	0.111125
2.000000	1	0.111750
2.016667	1	0.111750
2.033333	1	0.111750
2.050000	1	0.111750
2.066667	1	0.112250
2.083333	1	0.111750
2.100000	1	0.111375
2.116667	1	0.111000
2.133333	1	0.110625
2.150000	1	0.110000
2.166667	1	0.109875
2.183333	1	0.110000
2.200000	1	0.109625
2.216667	1	0.108875
2.233333	1	0.108750
2.250000	1	0.107750
2.266667	1	0.105875
2.283333	1	0.105375
2.300000	1	0.104500
2.316667	1	0.103750
2.333333	1	0.102250
2.350000	1	0.100875
2.366667	1	0.099875
2.383333	1	0.098750
2.400000	1	0.098000
2.416667	1	0.096875
2.433333	1	0.096125
2.450000	1	0.095125
2.466667	1	0.094000
2.483333	1	0.093250
2.500000	1	0.092000
2.516667	1	0.090875
2.533333	1	0.089750
2.550000	1	0.088875
2.566667	1	0.088125
2.583333	1	0.087125
2.600000	1	0.085750
2.616667	1	0.085500
2.633333	1	0.085250
2.650000	1	0.084500
2.666667	1	0.084125
2.683333	1	0.084000
2.700000	1	0.083750
2.716667	1	0.083500
2.733333	1	0.082875
2.750000	1	0.082000
2.766667	1	0.082125
2.783333	1	0.082250
2.800000	1	0.082750
2.816667	1	0.082125
2.833333	1	0.081875
2.850000	1	0.082125
2.866667	1	0.082125
2.883333	1	0.081750
2.900000	1	0.081625
2.916667	1	0.081000
2.933333	1	0.081500
2.950000	1	0.081625
2.966667	1	0.081875
2.983333	1	0.081375
3.000000	1	0.081250
3.016667	1	0.080875
3.033333	1	0.080750
3.050000	1	0.080750
3.066667	1	0.080125
3.083333	1	0.079875
3.100000	1	0.079375
3.116667	1	0.078375
3.133333	1	0.077500
3.150000	1	0.076500
3.166667	1	0.075125
3.183333	1	0.074375
3.200000	1	0.073500
3.216667	1	0.072125
3.233333	1	0.071000
3.250000	1	0.070625
3.266667	1	0.069500
3.283333	1	0.069125
3.300000	1	0.068750
3.316667	1	0.067625
3.333333	1	0.067250
3.350000	1	0.067250
3.366667	1	0.066500
3.383333	1	0.066375
3.400000	1	0.066625
3.416667	1	0.066625
3.433333	1	0.067000
3.450000	1	0.067500
3.466667	1	0.068125
3.483333	1	0.069375
3.500000	1	0.070875
3.516667	1	0.072250
3.533333	1	0.074625
3.550000	1	0.076000
3.566667	1	0.078375
3.583333	1	0.080500
3.600000	1	0.082875
3.616667	1	0.085875
3.633333	1	0.088500
3.650000	1	0.091250
3.666667	1	0.094250
3.683333	1	0.097375
3.700000	1	0.100250
3.716667	1	0.103375
3.733333	1	0.106375
3.750000	1	0.109750
3.766667	1	0.113250
3.783333	1	0.116000
3.800000	1	0.119375
3.816667	1	0.123375
3.833333	1	0.126500
3.850000	1	0.129000
3.866667	1	0.132375
3.883333	1	0.134875
3.900000	1	0.137250
3.916667	1	0.139875
3.933333	1	0.142500
3.950000	1	0.145375
3.966667	1	0.148250
3.983333	1	0.151000
4.000000	1	0.152875
4.016667	1	0.155000
4.033333	1	0.156250
4.050000	1	0.157625
4.066667	1	0.159000
4.083333	1	0.161625
4.100000	1	0.163000
4.116667	1	0.163875
4.133333	1	0.165375
4.150000	1	0.166125
4.166667	1	0.167375
4.183333	1	0.168125
4.200000	1	0.169250
4.216667	1	0.170750
4.233333	1	0.172000
4.250000	1	0.172500
4.266667	1	0.173000
4.283333	1	0.173625
4.300000	1	0.174000
4.316667	1	0.173750
4.333333	1	0.173875
4.350000	1	0.174375
4.366667	1	0.174750
4.383333	1	0.175000
4.400000	1	0.175125
4.416667	1	0.175125
4.433333	1	0.176000
4.450000	1	0.176625
4.466667	1	0.177250
4.483333	1	0.177250
4.500000	1	0.178125
4.516667	1	0.179250
4.533333	1	0.179750
4.550000	1	0.181750
4.566667	1	0.183625
4.583333	1	0.185625
4.600000	1	0.187750
4.616667	1	0.189875
4.633333	1	0.192375
4.650000	1	0.194625
4.666667	1	0.197250
4.683333	1	0.200250
4.700000	1	0.203375
4.716667	1	0.206875
4.733333	1	0.209750
4.750000	1	0.213125
4.766667	1	0.217500
4.783333	1	0.221000
4.800000	1	0.225125
4.816667	1	0.229125
4.833333	1	0.233375
4.850000	1	0.237875
4.866667	1	0.242625
4.883333	1	0.246500
4.900000	1	0.250875
4.916667	1	0.254625
4.933333	1	0.258625
4.950000	1	0.262875
4.966667	1	0.267375
4.983333	1	0.271750
5.000000	1	0.276000
5.016667	1	0.280125
5.033333	1	0.284375
5.050000	1	0.289125
5.066667	1	0.293250
5.083333	1	0.297625
5.100000	1	0.301625
5.116667	1	0.305000
5.133333	1	0.308625
5.150000	1	0.313000
5.166667	1	0.316875
5.183333	1	0.320625
5.200000	1	0.324750
5.216667	1	0.329000
5.233333	1	0.331750
5.250000	1	0.335125
5.266667	1	0.338125
5.283333	1	0.341000
5.300000	1	0.343500
5.316667	1	0.345250
5.333333	1	0.347375
5.350000	1	0.348250
5.366667	1	0.349125
5.383333	1	0.350125
5.400000	1	0.350625
5.416667	1	0.351500
5.433333	1	0.351500
5.450000	1	0.351125
5.466667	1	0.350375
5.483333	1	0.349125
5.500000	1	0.347875
5.516667	1	0.345875
5.533333	1	0.343625
5.550000	1	0.341375
5.566667	1	0.339000
5.583333	1	0.336000
5.600000	1	0.333250
5.616667	1	0.329875
5.633333	1	0.327000
5.650000	1	0.323375
5.666667	1	0.319500
5.683333	1	0.316125
5.700000	1	0.311875
5.716667	1	0.308000
5.733333	1	0.303875
5.750000	1	0.300000
5.766667	1	0.295875
5.783333	1	0.291250
5.800000	1	0.287500
5.816667	1	0.283125
5.833333	1	0.279250
5.850000	1	0.274875
5.866667	1	0.271125
5.883333	1	0.267000
5.900000	1	0.262625
5.916667	1	0.259000
5.933333	1	0.254625
5.950000	1	0.250875
5.966667	1	0.247125
5.983333	1	0.244000
6.000000	1	0.240375
6.016667	1	0.236875
6.033333	1	0.233500
6.050000	1	0.230000
6.066667	1	0.226250
6.083333	1	0.222750
6.100000	1	0.219750
6.116667	1	0.216250
6.133333	1	0.213875
6.150000	1	0.212000
6.166667	1	0.209875
6.183333	1	0.206875
6.200000	1	0.204375
6.216667	1	0.202375
6.233333	1	0.200000
6.250000	1	0.198500
6.266667	1	0.195875
6.283333	1	0.193875
6.300000	1	0.192250
6.316667	1	0.190000
6.333333	1	0.188500
6.350000	1	0.187375
6.366667	1	0.185250
6.383333	1	0.183875
6.400000	1	0.182125
6.416667	1	0.180625
6.433333	1	0.179125
6.450000	1	0.177375
6.466667	1	0.175625
6.483333	1	0.174375
6.500000	1	0.172750
6.516667	1	0.171250
6.533333	1	0.170000
6.550000	1	0.169000
6.566667	1	0.167625
6.583333	1	0.166250
6.600000	1	0.165125
6.616667	1	0.163750
6.633333	1	0.162750
6.650000	1	0.162625
6.666667	1	0.162125
6.683333	1	0.161875
6.700000	1	0.161125
6.716667	1	0.161250
6.733333	1	0.161000
6.750000	1	0.161375
6.766667	1	0.161750
6.783333	1	0.162250
6.800000	1	0.162125
6.816667	1	0.163375
6.833333	1	0.164500
6.850000	1	0.165750
6.866667	1	0.167500
6.883333	1	0.169500
6.900000	1	0.171375
6.916667	1	0.172625
6.933333	1	0.174250
6.950000	1	0.175875
6.966667	1	0.177625
6.983333	1	0.179250
7.000000	1	0.182125
7.016667	1	0.183625
7.033333	1	0.185500
7.050000	1	0.187500
7.066667	1	0.189125
7.083333	1	0.190875
7.100000	1	0.192375
7.116667	1	0.193250
7.133333	1	0.195250
7.150000	1	0.196625
7.166667	1	0.198375
7.183333	1	0.199250
7.200000	1	0.200000
7.216667	1	0.201250
7.233333	1	0.202875
7.250000	1	0.203875
7.266667	1	0.204875
7.283333	1	0.206000
7.300000	1	0.207375
7.316667	1	0.207500
7.333333	1	0.207625
7.350000	1	0.208375
7.366667	1	0.208875
7.383333	1	0.208250
7.400000	1	0.208000
7.416667	1	0.208250
7.433333	1	0.207750
7.450000	1	0.206500
7.466667	1	0.205750
7.483333	1	0.203875
7.500000	1	0.202250
7.516667	1	0.200750
7.533333	1	0.198250
7.550000	1	0.195625
7.566667	1	0.192750
7.583333	1	0.189625
7.600000	1	0.186250
7.616667	1	0.181875
7.633333	1	0.177250
7.650000	1	0.172750
7.666667	1	0.168250
7.683333	1	0.163375
7.700000	1	0.158375
7.716667	1	0.153125
7.733333	1	0.148000
7.750000	1	0.143500
7.766667	1	0.137875
7.783333	1	0.132375
7.800000	1	0.127125
7.816667	1	0.122625
7.833333	1	0.117250
7.850000	1	0.112875
7.866667	1	0.108625
7.883333	1	0.104500
7.900000	1	0.099875
7.916667	1	0.096250
7.933333	1	0.092625
7.950000	1	0.089500
7.966667	1	0.086625
7.983333	1	0.084375
8.000000	1	0.082375
8.016667	1	0.080250
8.033333	1	0.078750
8.050000	1	0.077500
8.066667	1	0.076625
8.083333	1	0.076750
8.100000	1	0.076375
8.116667	1	0.077250
8.133333	1	0.078000
8.150000	1	0.078875
8.166667	1	0.079750
8.183333	1	0.081625
8.200000	1	0.084250
8.216667	1	0.086250
8.233333	1	0.088375
8.250000	1	0.090625
8.266667	1	0.093000
8.283333	1	0.095375
8.300000	1	0.098125
8.316667	1	0.101125
8.333333	1	0.104875
8.350000	1	0.108125
8.366667	1	0.111250
8.383333	1	0.114750
8.400000	1	0.117625
8.416667	1	0.121250
8.433333	1	0.124500
8.450000	1	0.127000
8.466667	1	0.129875
8.483333	1	0.132875
8.500000	1	0.136000
8.516667	1	0.138375
8.533333	1	0.141250
8.550000	1	0.143750
8.566667	1	0.146500
8.583333	1	0.148750
8.600000	1	0.150625
8.616667	1	0.152625
8.633333	1	0.154000
8.650000	1	0.155125
8.666667	1	0.156250
8.683333	1	0.157500
8.700000	1	0.158000
8.716667	1	0.158500
8.733333	1	0.158875
8.750000	1	0.159500
8.766667	1	0.159625
8.783333	1	0.159250
8.800000	1	0.158750
8.816667	1	0.157750
8.833333	1	0.157500
8.850000	1	0.156375
8.866667	1	0.156125
8.883333	1	0.155000
8.900000	1	0.153750
8.916667	1	0.151875
8.933333	1	0.150875
8.950000	1	0.149750
8.966667	1	0.148500
8.983333	1	0.146750
9.000000	1	0.145250
9.016667	1	0.143375
9.033333	1	0.141875
9.050000	1	0.140250
9.066667	1	0.139500
9.083333	1	0.138125
9.100000	1	0.136750
9.116667	1	0.134875
9.133333	1	0.133625
9.150000	1	0.132375
9.166667	1	0.130625
9.183333	1	0.128750
9.200000	1	0.128250
9.216667	1	0.127250
9.233333	1	0.125875
9.250000	1	0.125000
9.266667	1	0.123750
9.283333	1	0.122875
9.300000	1	0.121250
9.316667	1	0.120750
9.333333	1	0.119375
9.350000	1	0.117875
9.366667	1	0.116500
9.383333	1	0.114625
9.400000	1	0.113000
9.416667	1	0.111625
9.433333	1	0.110125
9.450000	1	0.108625
9.466667	1	0.105875
9.483333	1	0.104125
9.500000	1	0.102875
9.516667	1	0.101625
9.533333	1	0.100125
9.550000	1	0.098875
9.566667	1	0.097125
9.583333	1	0.094500
9.600000	1	0.092625
9.616667	1	0.091375
9.633333	1	0.089125
9.650000	1	0.087125
9.666667	1	0.085250
9.683333	1	0.083500
9.700000	1	0.080875
9.716667	1	0.078750
9.733333	1	0.076750
9.750000	1	0.074625
9.766667	1	0.072500
9.783333	1	0.070250
9.800000	1	0.068500
9.816667	1	0.066625
9.833333	1	0.064000
9.850000	1	0.061375
9.866667	1	0.058375
9.883333	1	0.056000
9.900000	1	0.054000
9.916667	1	0.050625
9.933333	1	0.047750
9.950000	1	0.045250
9.966667	1	0.043125
9.983333	1	0.040625
10.000000	1	0.038500
10.016667	1	0.036750
10.033333	1	0.034375
10.050000	1	0.033375
10.066667	1	0.032625
10.083333	1	0.032875
10.100000	1	0.034250
10.116667	1	0.036125
10.133333	1	0.038375
10.150000	1	0.042000
10.166667	1	0.047750
10.183333	1	0.054125
10.200000	1	0.062125
10.216667	1	0.071000
10.233333	1	0.082125
10.250000	1	0.095625
10.266667	1	0.110125
10.283333	1	0.126125
10.300000	1	0.143750
10.316667	1	0.163250
10.333333	1	0.184250
10.350000	1	0.205125
10.366667	1	0.223500
10.383333	1	0.236750
10.400000	1	0.240625
10.416667	1	0.231125
10.433333	1	0.205125
10.450000	1	0.161000
10.466667	1	0.105125
10.483333	1	0.050000
10.500000	1	0.019125
10.516667	1	0.047250
10.533333	1	0.178875
10.550000	1	0.469375
10.566667	1	0.978125
10.583333	1	1.766375
10.600000	1	2.894250
10.616667	1	4.413500
10.633333	1	6.365500
10.650000	1	8.778125
10.666667	1	11.673875
10.683333	1	15.061125
10.700000	1	18.938750
10.716667	1	23.293250
10.733333	1	28.100500
10.750000	1	33.323000
10.766667	1	38.912750
10.783333	1	44.812000
10.800000	1	50.942875
10.816667	1	57.198750
10.833333	1	63.419500
10.850000	1	69.379875
10.866667	1	74.749875
10.883333	1	79.071125
10.900000	1	81.769125
10.916667	1	82.257750
10.933333	1	80.109250
10.950000	1	75.261500
10.966667	1	68.116625
10.983333	1	59.472750
11.000000	1	50.276000
11.016667	1	41.374750
11.033333	1	33.351875
11.050000	1	26.489875
11.066667	1	20.843500
11.083333	1	16.328250
11.100000	1	12.795625
11.116667	1	10.078375
11.133333	1	8.013500
11.150000	1	6.457625
11.166667	1	5.290875
11.183333	1	4.416250
11.200000	1	3.758750
11.216667	1	3.260625
11.233333	1	2.880875
11.250000	1	2.587875
11.266667	1	2.358250
11.283333	1	2.175375
11.300000	1	2.027125
11.316667	1	1.903500
11.333333	1	1.798125
11.350000	1	1.707000
11.366667	1	1.626875
11.383333	1	1.555125
11.400000	1	1.490125
11.416667	1	1.431250
11.433333	1	1.377875
11.450000	1	1.330000
11.466667	1	1.286750
11.483333	1	1.249000
11.500000	1	1.215750
11.516667	1	1.187500
11.533333	1	1.163625
11.550000	1	1.145375
11.566667	1	1.131500
11.583333	1	1.122125
11.600000	1	1.117625
11.616667	1	1.117750
11.633333	1	1.124750
11.650000	1	1.136625
11.666667	1	1.152875
11.683333	1	1.173500
11.700000	1	1.197375
11.716667	1	1.224875
11.733333	1	1.253875
11.750000	1	1.283000
11.766667	1	1.311125
11.783333	1	1.336125
11.800000	1	1.357625
11.816667	1	1.373000
11.833333	1	1.382875
11.850000	1	1.387750
11.866667	1	1.386250
11.883333	1	1.379500
11.900000	1	1.369250
11.916667	1	1.354375
11.933333	1	1.338000
11.950000	1	1.320125
11.966667	1	1.302500
11.983333	1	1.286000
12.000000	1	1.270875
12.016667	1	1.257125
12.033333	1	1.245375
12.050000	1	1.235500
12.066667	1	1.227625
12.083333	1	1.221875
12.100000	1	1.217625
12.116667	1	1.214625
12.133333	1	1.213875
12.150000	1	1.213875
12.166667	1	1.215375
12.183333	1	1.217625
12.200000	1	1.221375
12.216667	1	1.225625
12.233333	1	1.232375
12.250000	1	1.241250
12.266667	1	1.252000
12.283333	1	1.266750
12.300000	1	1.288375
12.316667	1	1.319250
12.333333	1	1.363000
12.350000	1	1.424750
12.366667	1	1.514000
12.383333	1	1.639875
12.400000	1	1.816625
12.416667	1	2.063500
12.433333	1	2.405125
12.450000	1	2.872500
12.466667	1	3.508000
12.483333	1	4.360125
12.500000	1	5.488500
12.516667	1	6.962000
12.533333	1	8.853000
12.550000	1	11.239875
12.566667	1	14.202125
12.583333	1	17.805125
12.600000	1	22.092875
12.616667	1	27.071125
12.633333	1	32.713625
12.650000	1	38.941875
12.666667	1	45.618750
12.683333	1	52.544000
12.700000	1	59.463250
12.716667	1	66.084250
12.733333	1	72.097250
12.750000	1	77.207375
12.766667	1	81.159250
12.783333	1	83.762000
12.800000	1	84.910250
12.816667	1	84.597500
12.833333	1	82.906125
12.850000	1	80.000375
12.866667	1	76.109750
12.883333	1	71.507625
12.900000	1	66.480875
12.916667	1	61.305500
12.933333	1	56.224875
12.950000	1	51.436375
12.966667	1	47.082750
12.983333	1	43.254125
13.000000	1	39.993500
13.016667	1	37.304625
13.033333	1	35.161125
13.050000	1	33.518125
13.066667	1	32.322750
13.083333	1	31.518000
13.100000	1	31.049250
13.116667	1	30.863750
13.133333	1	30.914625
13.150000	1	31.159750
13.166667	1	31.565375
13.183333	1	32.103625
13.200000	1	32.749875
13.216667	1	33.485500
13.233333	1	34.296500
13.250000	1	35.171250
13.266667	1	36.101750
13.283333	1	37.079750
13.300000	1	38.101500
13.316667	1	39.161375
13.333333	1	40.257500
13.350000	1	41.386750
13.366667	1	42.547125
13.383333	1	43.738375
13.400000	1	44.956875
13.416667	1	46.204250
13.433333	1	47.480875
13.450000	1	48.788125
13.466667	1	50.125625
13.483333	1	51.494250
13.500000	1	52.893125
13.516667	1	54.322125
13.533333	1	55.781625
13.550000	1	57.272375
13.566667	1	58.795000
13.583333	1	60.348875
13.600000	1	61.932125
13.616667	1	63.547375
13.633333	1	65.196250
13.650000	1	66.882125
13.666667	1	68.604875
13.683333	1	70.363625
13.700000	1	72.159375
13.716667	1	73.990875
13.733333	1	75.855875
13.750000	1	77.741250
13.766667	1	79.597875
13.783333	1	81.299750
13.800000	1	82.644250
13.816667	1	83.389625
13.833333	1	83.323125
13.850000	1	82.281625
13.866667	1	80.115000
13.883333	1	76.625750
13.900000	1	71.593000
13.916667	1	64.924250
13.933333	1	56.852500
13.950000	1	48.016000
13.966667	1	39.279000
13.983333	1	31.404375
14.000000	1	24.810250
14.016667	1	19.560250
14.033333	1	15.503875
14.050000	1	12.420500
14.066667	1	10.101250
14.083333	1	8.371750
14.100000	1	7.091750
14.116667	1	6.148375
14.133333	1	5.453250
14.150000	1	4.938000
14.166667	1	4.551250
14.183333	1	4.255500
14.200000	1	4.025000
14.216667	1	3.840125
14.233333	1	3.689125
14.250000	1	3.562500
14.266667	1	3.454000
14.283333	1	3.358875
14.300000	1	3.273625
14.316667	1	3.198375
14.333333	1	3.129750
14.350000	1	3.067375
14.366667	1	3.009500
14.383333	1	2.956375
14.400000	1	2.907125
14.416667	1	2.860875
14.433333	1	2.817875
14.450000	1	2.778500
14.466667	1	2.741875
14.483333	1	2.707375
14.500000	1	2.676000
14.516667	1	2.646000
14.533333	1	2.617875
14.550000	1	2.591250
14.566667	1	2.564875
14.583333	1	2.539375
14.600000	1	2.513875
14.616667	1	2.488625
14.633333	1	2.462875
14.650000	1	2.437375
14.666667	1	2.410750
14.683333	1	2.383250
14.700000	1	2.354625
14.716667	1	2.325250
14.733333	1	2.295625
14.750000	1	2.265375
14.766667	1	2.235000
14.783333	1	2.204500
14.800000	1	2.174750
14.816667	1	2.145375
14.833333	1	2.115625
14.850000	1	2.086125
14.866667	1	2.057375
14.883333	1	2.029000
14.900000	1	2.001750
14.916667	1	1.974625
14.933333	1	1.948250
14.950000	1	1.922250
14.966667	1	1.896500
14.983333	1	1.872000
15.000000	1	1.847875
15.016667	1	1.825125
15.033333	1	1.803250
15.050000	1	1.781750
15.066667	1	1.761000
15.083333	1	1.742250
15.100000	1	1.723750
15.116667	1	1.705750
15.133333	1	1.689125
15.150000	1	1.673875
15.166667	1	1.659500
15.183333	1	1.646250
15.200000	1	1.634125
15.216667	1	1.622625
15.233333	1	1.612875
15.250000	1	1.604750
15.266667	1	1.598250
15.283333	1	1.594250
15.300000	1	1.591875
15.316667	1	1.591625
15.333333	1	1.594500
15.350000	1	1.600625
15.366667	1	1.610750
15.383333	1	1.624875
15.400000	1	1.643125
15.416667	1	1.665750
15.433333	1	1.691250
15.450000	1	1.721125
15.466667	1	1.753500
15.483333	1	1.786375
15.500000	1	1.819250
15.516667	1	1.850750
15.533333	1	1.879375
15.550000	1	1.902750
15.566667	1	1.920125
15.583333	1	1.930000
15.600000	1	1.931875
15.616667	1	1.924750
15.633333	1	1.909500
15.650000	1	1.887250
15.666667	1	1.858500
15.683333	1	1.824500
15.700000	1	1.786875
15.716667	1	1.747000
15.733333	1	1.706875
15.750000	1	1.666375
15.766667	1	1.626750
15.783333	1	1.588750
15.800000	1	1.551750
15.816667	1	1.517000
15.833333	1	1.483125
15.850000	1	1.450375
15.866667	1	1.418750
15.883333	1	1.388125
15.900000	1	1.358875
15.916667	1	1.330750
15.933333	1	1.303875
15.950000	1	1.278000
15.966667	1	1.253125
15.983333	1	1.230625
16.000000	1	1.210750
16.016667	1	1.192625
16.033333	1	1.176500
16.050000	1	1.163375
16.066667	1	1.151625
16.083333	1	1.142375
16.100000	1	1.134375
16.116667	1	1.128625
16.133333	1	1.125125
16.150000	1	1.122000
16.166667	1	1.119875
16.183333	1	1.119875
16.200000	1	1.119250
16.216667	1	1.119875
16.233333	1	1.120000
16.250000	1	1.120500
16.266667	1	1.120375
16.283333	1	1.120375
16.300000	1	1.118875
16.316667	1	1.117125
16.333333	1	1.115000
16.350000	1	1.112250
16.366667	1	1.109125
16.383333	1	1.106250
16.400000	1	1.103375
16.416667	1	1.100875
16.433333	1	1.098000
16.450000	1	1.096500
16.466667	1	1.095375
16.483333	1	1.095125
16.500000	1	1.097125
16.516667	1	1.100625
16.533333	1	1.104625
16.550000	1	1.110500
16.566667	1	1.118875
16.583333	1	1.127750
16.600000	1	1.138375
16.616667	1	1.149375
16.633333	1	1.160250
16.650000	1	1.171375
16.666667	1	1.181875
16.683333	1	1.191750
16.700000	1	1.201375
16.716667	1	1.209625
16.733333	1	1.215875
16.750000	1	1.222500
16.766667	1	1.227125
16.783333	1	1.231375
16.800000	1	1.234875
16.816667	1	1.238750
16.833333	1	1.242250
16.850000	1	1.246125
16.866667	1	1.249875
16.883333	1	1.254125
16.900000	1	1.257750
16.916667	1	1.261500
16.933333	1	1.265500
16.950000	1	1.268000
16.966667	1	1.269500
16.983333	1	1.270375
17.000000	1	1.269000
17.016667	1	1.267125
17.033333	1	1.264000
17.050000	1	1.260375
17.066667	1	1.255125
17.083333	1	1.249750
17.100000	1	1.243750
17.116667	1	1.237750
17.133333	1	1.231750
17.150000	1	1.225750
17.166667	1	1.220750
17.183333	1	1.216250
17.200000	1	1.212500
17.216667	1	1.208875
17.233333	1	1.206750
17.250000	1	1.204875
17.266667	1	1.202875
17.283333	1	1.201250
17.300000	1	1.201875
17.316667	1	1.202125
17.333333	1	1.202500
17.350000	1	1.203125
17.366667	1	1.203875
17.383333	1	1.204500
17.400000	1	1.205000
17.416667	1	1.205625
17.433333	1	1.205125
17.450000	1	1.204000
17.466667	1	1.202000
17.483333	1	1.199125
17.500000	1	1.194500
17.516667	1	1.188000
17.533333	1	1.180625
17.550000	1	1.172125
17.566667	1	1.161500
17.583333	1	1.149250
17.600000	1	1.135875
17.616667	1	1.121125
17.633333	1	1.105500
17.650000	1	1.089375
17.666667	1	1.072125
17.683333	1	1.054000
17.700000	1	1.035500
17.716667	1	1.017375
17.733333	1	0.999875
17.750000	1	0.982875
17.766667	1	0.966375
17.783333	1	0.950000
17.800000	1	0.934500
17.816667	1	0.919750
17.833333	1	0.906375
17.850000	1	0.893625
17.866667	1	0.882000
17.883333	1	0.870375
17.900000	1	0.859750
17.916667	1	0.850375
17.933333	1	0.842125
17.950000	1	0.835000
17.966667	1	0.828125
17.983333	1	0.822125
18.000000	1	0.816750
18.016667	1	0.812250
18.033333	1	0.808000
18.050000	1	0.804250
18.066667	1	0.800500
18.083333	1	0.797125
18.100000	1	0.794000
18.116667	1	0.792000
18.133333	1	0.789000
18.150000	1	0.787125
18.166667	1	0.786000
18.183333	1	0.785000
18.200000	1	0.784625
18.216667	1	0.784625
18.233333	1	0.784875
18.250000	1	0.787625
18.266667	1	0.789500
18.283333	1	0.792875
18.300000	1	0.796250
18.316667	1	0.799750
18.333333	1	0.805000
18.350000	1	0.811250
18.366667	1	0.816750
18.383333	1	0.823250
18.400000	1	0.830750
18.416667	1	0.838875
18.433333	1	0.846500
18.450000	1	0.855125
18.466667	1	0.864375
18.483333	1	0.874875
18.500000	1	0.886375
18.516667	1	0.898875
18.533333	1	0.912625
18.550000	1	0.927375
18.566667	1	0.944500
18.583333	1	0.962500
18.600000	1	0.982750
18.616667	1	1.004500
18.633333	1	1.028250
18.650000	1	1.053375
18.666667	1	1.079875
18.683333	1	1.108500
18.700000	1	1.139250
18.716667	1	1.170500
18.733333	1	1.203375
18.750000	1	1.237125
18.766667	1	1.271500
18.783333	1	1.306250
18.800000	1	1.341125
18.816667	1	1.375125
18.833333	1	1.408375
18.850000	1	1.439125
18.866667	1	1.467500
18.883333	1	1.493500
18.900000	1	1.515125
18.916667	1	1.531750
18.933333	1	1.543875
18.950000	1	1.550875
18.966667	1	1.551375
18.983333	1	1.545125
19.000000	1	1.532000
19.016667	1	1.512375
19.033333	1	1.485375
19.050000	1	1.453500
19.066667	1	1.415250
19.083333	1	1.373250
19.100000	1	1.326875
19.116667	1	1.277500
19.133333	1	1.225875
19.150000	1	1.173625
19.166667	1	1.120875
19.183333	1	1.069750
19.200000	1	1.020500
19.216667	1	0.974375
19.233333	1	0.932000
19.250000	1	0.893375
19.266667	1	0.859625
19.283333	1	0.830500
19.300000	1	0.806625
19.316667	1	0.788375
19.333333	1	0.775000
19.350000	1	0.767250
19.366667	1	0.764750
19.383333	1	0.768500
19.400000	1	0.776625
19.416667	1	0.790625
19.433333	1	0.809375
19.450000	1	0.832875
19.466667	1	0.859750
19.483333	1	0.890750
19.500000	1	0.924500
19.516667	1	0.961125
19.533333	1	0.999500
19.550000	1	1.038750
19.566667	1	1.077750
19.583333	1	1.115750
19.600000	1	1.151875
19.616667	1	1.185250
19.633333	1	1.214625
19.650000	1	1.240125
19.666667	1	1.260750
19.683333	1	1.275375
19.700000	1	1.284250
19.716667	1	1.287250
19.733333	1	1.284000
19.750000	1	1.275500
19.766667	1	1.262125
19.783333	1	1.244125
19.800000	1	1.221875
19.816667	1	1.196375
19.833333	1	1.167625
19.850000	1	1.137125
19.866667	1	1.104250
19.883333	1	1.070625
19.900000	1	1.036500
19.916667	1	1.002000
19.933333	1	0.969000
19.950000	1	0.936750
19.966667	1	0.905375
19.983333	1	0.875375
20.000000	1	0.847875
20.016667	1	0.821500
20.033333	1	0.797875
20.050000	1	0.776125
20.066667	1	0.758000
20.083333	1	0.741375
20.100000	1	0.728000
20.116667	1	0.717750
20.133333	1	0.711375
20.150000	1	0.706375
20.166667	1	0.705000
20.183333	1	0.706125
20.200000	1	0.710375
20.216667	1	0.716250
20.233333	1	0.723750
20.250000	1	0.733125
20.266667	1	0.744000
20.283333	1	0.755000
20.300000	1	0.766500
20.316667	1	0.778500
20.333333	1	0.789500
20.350000	1	0.798250
20.366667	1	0.806125
20.383333	1	0.812125
20.400000	1	0.815875
20.416667	1	0.817125
20.433333	1	0.816125
20.450000	1	0.812750
20.466667	1	0.808375
20.483333	1	0.802750
20.500000	1	0.797875
20.516667	1	0.792375
20.533333	1	0.788875
20.550000	1	0.787500
20.566667	1	0.790125
20.583333	1	0.796875
20.600000	1	0.808875
20.616667	1	0.826875
20.633333	1	0.851125
20.650000	1	0.882125
20.666667	1	0.920875
20.683333	1	0.966125
20.700000	1	1.019250
20.716667	1	1.077875
20.733333	1	1.142375
20.750000	1	1.211625
20.766667	1	1.282875
20.783333	1	1.355375
20.800000	1	1.428000
20.816667	1	1.496625
20.833333	1	1.559375
20.850000	1	1.615500
20.866667	1	1.661500
20.883333	1	1.697000
20.900000	1	1.719750
20.916667	1	1.728250
20.933333	1	1.723250
20.950000	1	1.703750
20.966667	1	1.671750
20.983333	1	1.627500
21.000000	1	1.572375
21.016667	1	1.508625
21.033333	1	1.438250
21.050000	1	1.362625
21.066667	1	1.283875
21.083333	1	1.205750
21.100000	1	1.127875
21.116667	1	1.052125
21.133333	1	0.981000
21.150000	1	0.914375
21.166667	1	0.851750
21.183333	1	0.795000
21.200000	1	0.743500
21.216667	1	0.697750
21.233333	1	0.657250
21.250000	1	0.622125
21.266667	1	0.591250
21.283333	1	0.565000
21.300000	1	0.542375
21.316667	1	0.523000
21.333333	1	0.507000
21.350000	1	0.493250
21.366667	1	0.482625
21.383333	1	0.473750
21.400000	1	0.466875
21.416667	1	0.460250
21.433333	1	0.456000
21.450000	1	0.452375
21.466667	1	0.449875
21.483333	1	0.448875
21.500000	1	0.448000
21.516667	1	0.448875
21.533333	1	0.450125
21.550000	1	0.453000
21.566667	1	0.456125
21.583333	1	0.460125
21.600000	1	0.465125
21.616667	1	0.471000
21.633333	1	0.477750
21.650000	1	0.485625
21.666667	1	0.494250
21.683333	1	0.504500
21.700000	1	0.515750
21.716667	1	0.528375
21.733333	1	0.541875
21.750000	1	0.556500
21.766667	1	0.571625
21.783333	1	0.587875
21.800000	1	0.605000
21.816667	1	0.622375
21.833333	1	0.640500
21.850000	1	0.659750
21.866667	1	0.678750
21.883333	1	0.698875
21.900000	1	0.719000
21.916667	1	0.739500
21.933333	1	0.759500
21.950000	1	0.778125
21.966667	1	0.796250
21.983333	1	0.813375
22.000000	1	0.829375
22.016667	1	0.843375
22.033333	1	0.856125
22.050000	1	0.866875
22.066667	1	0.875875
22.083333	1	0.882500
22.100000	1	0.886750
22.116667	1	0.889500
22.133333	1	0.890250
22.150000	1	0.888375
22.166667	1	0.884625
22.183333	1	0.878625
22.200000	1	0.871000
22.216667	1	0.860750
22.233333	1	0.848375
22.250000	1	0.834875
22.266667	1	0.820750
22.283333	1	0.805500
22.300000	1	0.789375
22.316667	1	0.771875
22.333333	1	0.754125
22.350000	1	0.736500
22.366667	1	0.717750
22.383333	1	0.698625
22.400000	1	0.679500
22.416667	1	0.660250
22.433333	1	0.642000
22.450000	1	0.623750
22.466667	1	0.607000
22.483333	1	0.590500
22.500000	1	0.575000
22.516667	1	0.560375
22.533333	1	0.546625
22.550000	1	0.533750
22.566667	1	0.521750
22.583333	1	0.510500
22.600000	1	0.499750
22.616667	1	0.489625
22.633333	1	0.481375
22.650000	1	0.473250
22.666667	1	0.465500
22.683333	1	0.457625
22.700000	1	0.451125
22.716667	1	0.445500
22.733333	1	0.439750
22.750000	1	0.434250
22.766667	1	0.429625
22.783333	1	0.424625
22.800000	1	0.419625
22.816667	1	0.415125
22.833333	1	0.410375
22.850000	1	0.406625
22.866667	1	0.403250
22.883333	1	0.399750
22.900000	1	0.396500
22.916667	1	0.393625
22.933333	1	0.390875
22.950000	1	0.388250
22.966667	1	0.386000
22.983333	1	0.384375
23.000000	1	0.382875
23.016667	1	0.380375
23.033333	1	0.379625
23.050000	1	0.378875
23.066667	1	0.378875
23.083333	1	0.378375
23.100000	1	0.377875
23.116667	1	0.377875
23.133333	1	0.377875
23.150000	1	0.378625
23.166667	1	0.379500
23.183333	1	0.380000
23.200000	1	0.381500
23.216667	1	0.382875
23.233333	1	0.385375
23.250000	1	0.387875
23.266667	1	0.391125
23.283333	1	0.395625
23.300000	1	0.401375
23.316667	1	0.409125
23.333333	1	0.418375
23.350000	1	0.430500
23.366667	1	0.446125
23.383333	1	0.465250
23.400000	1	0.488000
23.416667	1	0.516625
23.433333	1	0.551000
23.450000	1	0.591375
23.466667	1	0.639625
23.483333	1	0.696625
23.500000	1	0.763250
23.516667	1	0.840500
23.533333	1	0.929750
23.550000	1	1.031375
23.566667	1	1.146000
23.583333	1	1.274875
23.600000	1	1.417625
23.616667	1	1.576000
23.633333	1	1.748625
23.650000	1	1.935250
23.666667	1	2.135125
23.683333	1	2.347500
23.700000	1	2.570125
23.716667	1	2.801500
23.733333	1	3.037125
23.750000	1	3.275250
23.766667	1	3.510875
23.783333	1	3.741125
23.800000	1	3.960125
23.816667	1	4.163750
23.833333	1	4.348625
23.850000	1	4.509875
23.866667	1	4.643500
23.883333	1	4.746500
23.900000	1	4.815875
23.916667	1	4.851125
23.933333	1	4.851375
23.950000	1	4.815750
23.966667	1	4.746375
23.983333	1	4.644625
24.000000	1	4.513875
24.016667	1	4.357375
24.033333	1	4.179625
24.050000	1	3.984000
24.066667	1	3.774750
24.083333	1	3.557000
24.100000	1	3.334250
24.116667	1	3.108875
24.133333	1	2.886875
24.150000	1	2.670250
24.166667	1	2.461500
24.183333	1	2.262500
24.200000	1	2.075125
24.216667	1	1.900250
24.233333	1	1.739500
24.250000	1	1.592125
24.266667	1	1.457750
24.283333	1	1.335875
24.300000	1	1.226875
24.316667	1	1.128625
24.333333	1	1.041750
24.350000	1	0.965250
24.366667	1	0.898125
24.383333	1	0.839750
24.400000	1	0.788875
24.416667	1	0.744875
24.433333	1	0.707875
24.450000	1	0.676250
24.466667	1	0.648750
24.483333	1	0.626000
24.500000	1	0.606375
24.516667	1	0.589875
24.533333	1	0.575625
24.550000	1	0.563875
24.566667	1	0.553625
24.583333	1	0.544625
24.600000	1	0.536375
24.616667	1	0.528875
24.633333	1	0.521625
24.650000	1	0.514625
24.666667	1	0.508625
24.683333	1	0.502375
24.700000	1	0.496000
24.716667	1	0.489875
24.733333	1	0.482500
24.750000	1	0.475625
24.766667	1	0.468750
24.783333	1	0.461750
24.800000	1	0.454625
24.816667	1	0.446625
24.833333	1	0.439250
24.850000	1	0.431500
24.866667	1	0.424500
24.883333	1	0.417375
24.900000	1	0.410000
24.916667	1	0.402875
24.933333	1	0.395875
24.950000	1	0.387875
24.966667	1	0.380375
24.983333	1	0.373125
25.000000	1	0.365500
25.016667	1	0.358375
25.033333	1	0.351000
25.050000	1	0.344875
25.066667	1	0.337875
25.083333	1	0.330750
25.100000	1	0.323500
25.116667	1	0.316375
25.133333	1	0.310000
25.150000	1	0.303625
25.166667	1	0.297250
25.183333	1	0.290750
25.200000	1	0.284625
25.216667	1	0.279125
25.233333	1	0.272500
25.250000	1	0.267375
25.266667	1	0.262000
25.283333	1	0.256875
25.300000	1	0.252250
25.316667	1	0.248875
25.333333	1	0.245250
25.350000	1	0.241500
25.366667	1	0.237750
25.383333	1	0.234750
25.400000	1	0.231625
25.416667	1	0.230125
25.433333	1	0.228375
25.450000	1	0.227875
25.466667	1	0.226875
25.483333	1	0.227250
25.500000	1	0.227875
25.516667	1	0.228000
25.533333	1	0.228875
25.550000	1	0.229250
25.566667	1	0.230750
25.583333	1	0.231875
25.600000	1	0.233500
25.616667	1	0.235500
25.633333	1	0.237750
25.650000	1	0.239875
25.666667	1	0.242125
25.683333	1	0.244500
25.700000	1	0.247000
25.716667	1	0.249750
25.733333	1	0.252125
25.750000	1	0.255250
25.766667	1	0.258375
25.783333	1	0.261875
25.800000	1	0.265500
25.816667	1	0.268875
25.833333	1	0.271875
25.850000	1	0.276000
25.866667	1	0.281000
25.883333	1	0.286375
25.900000	1	0.291000
25.916667	1	0.296250
25.933333	1	0.302125
25.950000	1	0.308875
25.966667	1	0.315000
25.983333	1	0.321875
26.000000	1	0.329000
26.016667	1	0.335750
26.033333	1	0.343750
26.050000	1	0.352250
26.066667	1	0.361000
26.083333	1	0.368750
26.100000	1	0.377500
26.116667	1	0.386250
26.133333	1	0.394250
26.150000	1	0.402000
26.166667	1	0.410125
26.183333	1	0.417625
26.200000	1	0.425000
26.216667	1	0.432375
26.233333	1	0.438875
26.250000	1	0.444875
26.266667	1	0.450375
26.283333	1	0.454750
26.300000	1	0.459250
26.316667	1	0.463000
26.333333	1	0.465750
26.350000	1	0.467375
26.366667	1	0.467750
26.383333	1	0.467750
26.400000	1	0.467000
26.416667	1	0.465625
26.433333	1	0.463250
26.450000	1	0.460750
26.466667	1	0.457875
26.483333	1	0.453750
26.500000	1	0.449125
26.516667	1	0.444000
26.533333	1	0.438375
26.550000	1	0.432875
26.566667	1	0.426500
26.583333	1	0.420125
26.600000	1	0.413000
26.616667	1	0.405375
26.633333	1	0.398500
26.650000	1	0.391750
26.666667	1	0.385125
26.683333	1	0.378625
26.700000	1	0.371375
26.716667	1	0.364375
26.733333	1	0.357250
26.750000	1	0.350250
26.766667	1	0.343250
26.783333	1	0.337125
26.800000	1	0.331375
26.816667	1	0.326250
26.833333	1	0.321125
26.850000	1	0.316625
26.866667	1	0.313250
26.883333	1	0.309250
26.900000	1	0.306250
26.916667	1	0.303000
26.933333	1	0.300625
26.950000	1	0.299250
26.966667	1	0.298750
26.983333	1	0.298625
27.000000	1	0.299750
27.016667	1	0.301375
27.033333	1	0.304000
27.050000	1	0.307500
27.066667	1	0.312375
27.083333	1	0.317875
27.100000	1	0.323875
27.116667	1	0.332000
27.133333	1	0.341000
27.150000	1	0.351375
27.166667	1	0.363625
27.183333	1	0.377500
27.200000	1	0.394000
27.216667	1	0.412750
27.233333	1	0.434125
27.250000	1	0.457500
27.266667	1	0.483500
27.283333	1	0.514125
27.300000	1	0.548125
27.316667	1	0.586250
27.333333	1	0.629000
27.350000	1	0.676625
27.366667	1	0.729375
27.383333	1	0.788375
27.400000	1	0.854000
27.416667	1	0.926875
27.433333	1	1.007125
27.450000	1	1.093750
27.466667	1	1.189125
27.483333	1	1.293125
27.500000	1	1.406000
27.516667	1	1.526375
27.533333	1	1.654125
27.550000	1	1.790250
27.566667	1	1.934375
27.583333	1	2.084250
27.600000	1	2.240125
27.616667	1	2.401125
27.633333	1	2.565875
27.650000	1	2.732375
27.666667	1	2.899375
27.683333	1	3.063875
27.700000	1	3.225125
27.716667	1	3.380250
27.733333	1	3.526625
27.750000	1	3.662250
27.766667	1	3.785125
27.783333	1	3.892375
27.800000	1	3.982875
27.816667	1	4.053875
27.833333	1	4.104750
27.850000	1	4.133750
27.866667	1	4.140125
27.883333	1	4.122875
27.900000	1	4.082250
27.916667	1	4.019625
27.933333	1	3.935250
27.950000	1	3.832000
27.966667	1	3.709625
27.983333	1	3.571750
28.000000	1	3.419625
28.016667	1	3.257125
28.033333	1	3.086125
28.050000	1	2.908750
28.066667	1	2.728250
28.083333	1	2.547000
28.100000	1	2.368250
28.116667	1	2.193000
28.133333	1	2.023250
28.150000	1	1.861625
28.166667	1	1.707250
28.183333	1	1.563125
28.200000	1	1.428250
28.216667	1	1.304000
28.233333	1	1.190000
28.250000	1	1.086750
28.266667	1	0.993250
28.283333	1	0.909875
28.300000	1	0.835625
28.316667	1	0.770750
28.333333	1	0.714250
28.350000	1	0.665000
28.366667	1	0.623000
28.383333	1	0.587125
28.400000	1	0.557250
28.416667	1	0.532500
28.433333	1	0.512500
28.450000	1	0.497000
28.466667	1	0.485375
28.483333	1	0.477375
28.500000	1	0.471750
28.516667	1	0.469375
28.533333	1	0.469375
28.550000	1	0.471500
28.566667	1	0.475375
28.583333	1	0.480750
28.600000	1	0.487875
28.616667	1	0.495875
28.633333	1	0.505375
28.650000	1	0.515250
28.666667	1	0.525125
28.683333	1	0.535125
28.700000	1	0.545625
28.716667	1	0.556125
28.733333	1	0.566250
28.750000	1	0.575875
28.766667	1	0.585000
28.783333	1	0.593500
28.800000	1	0.602000
28.816667	1	0.609125
28.833333	1	0.615250
28.850000	1	0.621125
28.866667	1	0.626125
28.883333	1	0.629500
28.900000	1	0.632125
28.916667	1	0.633500
28.933333	1	0.633375
28.950000	1	0.632375
28.966667	1	0.630500
28.983333	1	0.627625
29.000000	1	0.623500
29.016667	1	0.619000
29.033333	1	0.613125
29.050000	1	0.606500
29.066667	1	0.598750
29.083333	1	0.590750
29.100000	1	0.581625
29.116667	1	0.571750
29.133333	1	0.562375
29.150000	1	0.552000
29.166667	1	0.541000
29.183333	1	0.529625
29.200000	1	0.518625
29.216667	1	0.507500
29.233333	1	0.495875
29.250000	1	0.484125
29.266667	1	0.472625
29.283333	1	0.460875
29.300000	1	0.449125
29.316667	1	0.438000
29.333333	1	0.427625
29.350000	1	0.416875
29.366667	1	0.407250
29.383333	1	0.397750
29.400000	1	0.388375
29.416667	1	0.379375
29.433333	1	0.370125
29.450000	1	0.362250
29.466667	1	0.353875
29.483333	1	0.346500
29.500000	1	0.339875
29.516667	1	0.333375
29.533333	1	0.327375
29.550000	1	0.321000
29.566667	1	0.315000
29.583333	1	0.309625
29.600000	1	0.304750
29.616667	1	0.299750
29.633333	1	0.295500
29.650000	1	0.291375
29.666667	1	0.287375
29.683333	1	0.284000
29.700000	1	0.280250
29.716667	1	0.277375
29.733333	1	0.274125
29.750000	1	0.270500
29.766667	1	0.267750
29.783333	1	0.265000
29.800000	1	0.262500
29.816667	1	0.259875
29.833333	1	0.257875
29.850000	1	0.255250
29.866667	1	0.252875
29.883333	1	0.250750
29.900000	1	0.248000
29.916667	1	0.245625
29.933333	1	0.243125
29.950000	1	0.240250
29.966667	1	0.238625
29.983333	1	0.236500
30.000000	1	0.234125
30.016667	1	0.231125
30.033333	1	0.228625
30.050000	1	0.226625
30.066667	1	0.224750
30.083333	1	0.222250
30.100000	1	0.220750
30.116667	1	0.218625
30.133333	1	0.217125
30.150000	1	0.214750
30.166667	1	0.213000
30.183333	1	0.211250
30.200000	1	0.209875
30.216667	1	0.208750
30.233333	1	0.206750
30.250000	1	0.205875
30.266667	1	0.205125
30.283333	1	0.204500
30.300000	1	0.204250
30.316667	1	0.203500
30.333333	1	0.203375
30.350000	1	0.203250
30.366667	1	0.203250
30.383333	1	0.203875
30.400000	1	0.206000
30.416667	1	0.207375
30.433333	1	0.209375
30.450000	1	0.211875
30.466667	1	0.214500
30.483333	1	0.217625
30.500000	1	0.221125
30.516667	1	0.225375
30.533333	1	0.230000
30.550000	1	0.235625
30.566667	1	0.242000
30.583333	1	0.249000
30.600000	1	0.257125
30.616667	1	0.265875
30.633333	1	0.275750
30.650000	1	0.287000
30.666667	1	0.298875
30.683333	1	0.312875
30.700000	1	0.328375
30.716667	1	0.345375
30.733333	1	0.364750
30.750000	1	0.385875
30.766667	1	0.410875
30.783333	1	0.438375
30.800000	1	0.469500
30.816667	1	0.504875
30.833333	1	0.544250
30.850000	1	0.588375
30.866667	1	0.639125
30.883333	1	0.695875
30.900000	1	0.759750
30.916667	1	0.831000
30.933333	1	0.910875
30.950000	1	1.000125
30.966667	1	1.100000
30.983333	1	1.210375
31.000000	1	1.333375
31.016667	1	1.469625
31.033333	1	1.618875
31.050000	1	1.782250
31.066667	1	1.959750
31.083333	1	2.152750
31.100000	1	2.360750
31.116667	1	2.583625
31.133333	1	2.821375
31.150000	1	3.073500
31.166667	1	3.339750
31.183333	1	3.618625
31.200000	1	3.909000
31.216667	1	4.209125
31.233333	1	4.516500
31.250000	1	4.829125
31.266667	1	5.143875
31.283333	1	5.457875
31.300000	1	5.767875
31.316667	1	6.071000
31.333333	1	6.362625
31.350000	1	6.640000
31.366667	1	6.900500
31.383333	1	7.139625
31.400000	1	7.355000
31.416667	1	7.543625
31.433333	1	7.702000
31.450000	1	7.828375
31.466667	1	7.921500
31.483333	1	7.980000
31.500000	1	8.003250
31.516667	1	7.990125
31.533333	1	7.942750
31.550000	1	7.860125
31.566667	1	7.744750
31.583333	1	7.598000
31.600000	1	7.423000
31.616667	1	7.221375
31.633333	1	6.995875
31.650000	1	6.750000
31.666667	1	6.486750
31.683333	1	6.209750
31.700000	1	5.921000
31.716667	1	5.625750
31.733333	1	5.326125
31.750000	1	5.025500
31.766667	1	4.726125
31.783333	1	4.429750
31.800000	1	4.139250
31.816667	1	3.856750
31.833333	1	3.582500
31.850000	1	3.319500
31.866667	1	3.068500
31.883333	1	2.829750
31.900000	1	2.604375
31.916667	1	2.392750
31.933333	1	2.195000
31.950000	1	2.011125
31.966667	1	1.840625
31.983333	1	1.682250
32.000000	1	1.537125
32.016667	1	1.403625
32.033333	1	1.281500
32.050000	1	1.171250
32.066667	1	1.070500
32.083333	1	0.979500
32.100000	1	0.897000
32.116667	1	0.822625
32.133333	1	0.756875
32.150000	1	0.697125
32.166667	1	0.643750
32.183333	1	0.595875
32.200000	1	0.552625
32.216667	1	0.514125
32.233333	1	0.480125
32.250000	1	0.449500
32.266667	1	0.422000
32.283333	1	0.397125
32.300000	1	0.375250
32.316667	1	0.355750
32.333333	1	0.338375
32.350000	1	0.322500
32.366667	1	0.308500
32.383333	1	0.295375
32.400000	1	0.284000
32.416667	1	0.273625
32.433333	1	0.263000
32.450000	1	0.253875
32.466667	1	0.245750
32.483333	1	0.238500
32.500000	1	0.231500
32.516667	1	0.224500
32.533333	1	0.218375
32.550000	1	0.213125
32.566667	1	0.207875
32.583333	1	0.202750
32.600000	1	0.197750
32.616667	1	0.193500
32.633333	1	0.189250
32.650000	1	0.185500
32.666667	1	0.182125
32.683333	1	0.178625
32.700000	1	0.174625
32.716667	1	0.171375
32.733333	1	0.168750
32.750000	1	0.166750
32.766667	1	0.164500
32.783333	1	0.161750
32.800000	1	0.159375
32.816667	1	0.157375
32.833333	1	0.155000
32.850000	1	0.152750
32.866667	1	0.150625
32.883333	1	0.148625
32.900000	1	0.146500
32.916667	1	0.144875
32.933333	1	0.143250
32.950000	1	0.141750
32.966667	1	0.141125
32.983333	1	0.139250
33.000000	1	0.137625
33.016667	1	0.135625
33.033333	1	0.134250
33.050000	1	0.133000
33.066667	1	0.132375
33.083333	1	0.131500
33.100000	1	0.130500
33.116667	1	0.129750
33.133333	1	0.128625
33.150000	1	0.127875
33.166667	1	0.127000
33.183333	1	0.125875
33.200000	1	0.125375
33.216667	1	0.125250
33.233333	1	0.124750
33.250000	1	0.124625
33.266667	1	0.124375
33.283333	1	0.124000
33.300000	1	0.124375
33.316667	1	0.125625
33.333333	1	0.127500
33.350000	1	0.128750
33.366667	1	0.130750
33.383333	1	0.132625
33.400000	1	0.135125
33.416667	1	0.138750
33.433333	1	0.142875
33.450000	1	0.147500
33.466667	1	0.152250
33.483333	1	0.157875
33.500000	1	0.164500
33.516667	1	0.171625
33.533333	1	0.178500
33.550000	1	0.187500
33.566667	1	0.196250
33.583333	1	0.206250
33.600000	1	0.216375
33.616667	1	0.227625
33.633333	1	0.239750
33.650000	1	0.252625
33.666667	1	0.266750
33.683333	1	0.281250
33.700000	1	0.296375
33.716667	1	0.312125
33.733333	1	0.328125
33.750000	1	0.345125
33.766667	1	0.361750
33.783333	1	0.379375
33.800000	1	0.397125
33.816667	1	0.415000
33.833333	1	0.433000
33.850000	1	0.451125
33.866667	1	0.468500
33.883333	1	0.484875
33.900000	1	0.501625
33.916667	1	0.517125
33.933333	1	0.532125
33.950000	1	0.547000
33.966667	1	0.560250
33.983333	1	0.572250
34.000000	1	0.583375
34.016667	1	0.592375
34.033333	1	0.599125
34.050000	1	0.604625
34.066667	1	0.609375
34.083333	1	0.612500
34.100000	1	0.613750
34.116667	1	0.613125
34.133333	1	0.611625
34.150000	1	0.608250
34.166667	1	0.603500
34.183333	1	0.597875
34.200000	1	0.590125
34.216667	1	0.581500
34.233333	1	0.572375
34.250000	1	0.561250
34.266667	1	0.549375
34.283333	1	0.537500
34.300000	1	0.524375
34.316667	1	0.511250
34.333333	1	0.498250
34.350000	1	0.484000
34.366667	1	0.470625
34.383333	1	0.456125
34.400000	1	0.443000
34.416667	1	0.429125
34.433333	1	0.415500
34.450000	1	0.402500
34.466667	1	0.389875
34.483333	1	0.377250
34.500000	1	0.365250
34.516667	1	0.353750
34.533333	1	0.342750
34.550000	1	0.332125
34.566667	1	0.322000
34.583333	1	0.312750
34.600000	1	0.303250
34.616667	1	0.294375
34.633333	1	0.285750
34.650000	1	0.278625
34.666667	1	0.271875
34.683333	1	0.265250
34.700000	1	0.259000
34.716667	1	0.253250
34.733333	1	0.247625
34.750000	1	0.243000
34.766667	1	0.238875
34.783333	1	0.234500
34.800000	1	0.230500
34.816667	1	0.227500
34.833333	1	0.224875
34.850000	1	0.222625
34.866667	1	0.219875
34.883333	1	0.217625
34.900000	1	0.215750
34.916667	1	0.214500
34.933333	1	0.213000
34.950000	1	0.211500
34.966667	1	0.210000
34.983333	1	0.208750
35.000000	1	0.208000
35.016667	1	0.207125
35.033333	1	0.205750
35.050000	1	0.204625
35.066667	1	0.203375
35.083333	1	0.202625
35.100000	1	0.201375
35.116667	1	0.200125
35.133333	1	0.198750
35.150000	1	0.196625
35.166667	1	0.195125
35.183333	1	0.193875
35.200000	1	0.191625
35.216667	1	0.189375
35.233333	1	0.187125
35.250000	1	0.185000
35.266667	1	0.182500
35.283333	1	0.180000
35.300000	1	0.177500
35.316667	1	0.175125
35.333333	1	0.171625
35.350000	1	0.168750
35.366667	1	0.166125
35.383333	1	0.163000
35.400000	1	0.159625
35.416667	1	0.156625
35.433333	1	0.153500
35.450000	1	0.150750
35.466667	1	0.147750
35.483333	1	0.145000
35.500000	1	0.142125
35.516667	1	0.139625
35.533333	1	0.137000
35.550000	1	0.135500
35.566667	1	0.133875
35.583333	1	0.132000
35.600000	1	0.130000
35.616667	1	0.128875
35.633333	1	0.128125
35.650000	1	0.126750
35.666667	1	0.127000
35.683333	1	0.127250
35.700000	1	0.127500
35.716667	1	0.127750
35.733333	1	0.128125
35.750000	1	0.128500
35.766667	1	0.129125
35.783333	1	0.129625
35.800000	1	0.131375
35.816667	1	0.133375
35.833333	1	0.134875
35.850000	1	0.137125
35.866667	1	0.139125
35.883333	1	0.140500
35.900000	1	0.142625
35.916667	1	0.145500
35.933333	1	0.147625
35.950000	1	0.150000
35.966667	1	0.152750
35.983333	1	0.155125
36.000000	1	0.157500
36.016667	1	0.159875
36.033333	1	0.162125
36.050000	1	0.164750
36.066667	1	0.167125
36.083333	1	0.169625
36.100000	1	0.172500
36.116667	1	0.174625
36.133333	1	0.176375
36.150000	1	0.178125
36.166667	1	0.179250
36.183333	1	0.180500
36.200000	1	0.181250
36.216667	1	0.182125
36.233333	1	0.183125
36.250000	1	0.183625
36.266667	1	0.183250
36.283333	1	0.183250
36.300000	1	0.182875
36.316667	1	0.183000
36.333333	1	0.182625
36.350000	1	0.181875
36.366667	1	0.180625
36.383333	1	0.180500
36.400000	1	0.178875
36.416667	1	0.177125
36.433333	1	0.175375
36.450000	1	0.174000
36.466667	1	0.172125
36.483333	1	0.169375
36.500000	1	0.167500
36.516667	1	0.165625
36.533333	1	0.163250
36.550000	1	0.160750
36.566667	1	0.158125
36.583333	1	0.155625
36.600000	1	0.153375
36.616667	1	0.151000
36.633333	1	0.148875
36.650000	1	0.146875
36.666667	1	0.144875
36.683333	1	0.142875
36.700000	1	0.141125
36.716667	1	0.138875
36.733333	1	0.138000
36.750000	1	0.137250
36.766667	1	0.136500
36.783333	1	0.136250
36.800000	1	0.135125
36.816667	1	0.135375
36.833333	1	0.135625
36.850000	1	0.136125
36.866667	1	0.136500
36.883333	1	0.137250
36.900000	1	0.138500
36.916667	1	0.140250
36.933333	1	0.142125
36.950000	1	0.144375
36.966667	1	0.146375
36.983333	1	0.149125
37.000000	1	0.151500
37.016667	1	0.154250
37.033333	1	0.156625
37.050000	1	0.158875
37.066667	1	0.161875
37.083333	1	0.164875
37.100000	1	0.167125
37.116667	1	0.169875
37.133333	1	0.172875
37.150000	1	0.176000
37.166667	1	0.179000
37.183333	1	0.181250
37.200000	1	0.184000
37.216667	1	0.186125
37.233333	1	0.187625
37.250000	1	0.189875
37.266667	1	0.192125
37.283333	1	0.194625
37.300000	1	0.196750
37.316667	1	0.198875
37.333333	1	0.200750
37.350000	1	0.203125
37.366667	1	0.204250
37.383333	1	0.204500
37.400000	1	0.205875
37.416667	1	0.207000
37.433333	1	0.207500
37.450000	1	0.208000
37.466667	1	0.208125
37.483333	1	0.208625
37.500000	1	0.209250
37.516667	1	0.210000
37.533333	1	0.209625
37.550000	1	0.210250
37.566667	1	0.210125
37.583333	1	0.210000
37.600000	1	0.209250
37.616667	1	0.207875
37.633333	1	0.207625
37.650000	1	0.207125
37.666667	1	0.206000
37.683333	1	0.205000
37.700000	1	0.204000
37.716667	1	0.203250
37.733333	1	0.202000
37.750000	1	0.201000
37.766667	1	0.199500
37.783333	1	0.198750
37.800000	1	0.197750
37.816667	1	0.196250
37.833333	1	0.195000
37.850000	1	0.194000
37.866667	1	0.193000
37.883333	1	0.191625
37.900000	1	0.191250
37.916667	1	0.190125
37.933333	1	0.188750
37.950000	1	0.187875
37.966667	1	0.187000
37.983333	1	0.186625
38.000000	1	0.186250
38.016667	1	0.184750
38.033333	1	0.184625
38.050000	1	0.184250
38.066667	1	0.183125
38.083333	1	0.182625
38.100000	1	0.182750
38.116667	1	0.182125
38.133333	1	0.182000
38.150000	1	0.182000
38.166667	1	0.181625
38.183333	1	0.181375
38.200000	1	0.180875
38.216667	1	0.180625
38.233333	1	0.181375
38.250000	1	0.181375
38.266667	1	0.181500
38.283333	1	0.181500
38.300000	1	0.181875
38.316667	1	0.182875
38.333333	1	0.183750
38.350000	1	0.183625
38.366667	1	0.184000
38.383333	1	0.184750
38.400000	1	0.184500
38.416667	1	0.184375
38.433333	1	0.185000
38.450000	1	0.185750
38.466667	1	0.185875
38.483333	1	0.186125
38.500000	1	0.186750
38.516667	1	0.187000
38.533333	1	0.186875
38.550000	1	0.186875
38.566667	1	0.186750
38.583333	1	0.186250
38.600000	1	0.185000
38.616667	1	0.184500
38.633333	1	0.183375
38.650000	1	0.182125
38.666667	1	0.181250
38.683333	1	0.180625
38.700000	1	0.179500
38.716667	1	0.177500
38.733333	1	0.175750
38.750000	1	0.174500
38.766667	1	0.172625
38.783333	1	0.170250
38.800000	1	0.168250
38.816667	1	0.166000
38.833333	1	0.163875
38.850000	1	0.161875
38.866667	1	0.159250
38.883333	1	0.156625
38.900000	1	0.154250
38.916667	1	0.151625
38.933333	1	0.148500
38.950000	1	0.146125
38.966667	1	0.143875
38.983333	1	0.141000
39.000000	1	0.138500
39.016667	1	0.136125
39.033333	1	0.133750
39.050000	1	0.131125
39.066667	1	0.128250
39.083333	1	0.125750
39.100000	1	0.123500
39.116667	1	0.120875
39.133333	1	0.118750
39.150000	1	0.116000
39.166667	1	0.113750
39.183333	1	0.112125
39.200000	1	0.110750
39.216667	1	0.109125
39.233333	1	0.106375
39.250000	1	0.104625
39.266667	1	0.102625
39.283333	1	0.100875
39.300000	1	0.099500
39.316667	1	0.098125
39.333333	1	0.096500
39.350000	1	0.094875
39.366667	1	0.094000
39.383333	1	0.093625
39.400000	1	0.092875
39.416667	1	0.092500
39.433333	1	0.091500
39.450000	1	0.091125
39.466667	1	0.089875
39.483333	1	0.089500
39.500000	1	0.088750
39.516667	1	0.088250
39.533333	1	0.088125
39.550000	1	0.088625
39.566667	1	0.088500
39.583333	1	0.088500
39.600000	1	0.088125
39.616667	1	0.088000
39.633333	1	0.088500
39.650000	1	0.088750
39.666667	1	0.089375
39.683333	1	0.089250
39.700000	1	0.089250
39.716667	1	0.089500
39.733333	1	0.090625
39.750000	1	0.090750
39.766667	1	0.091000
39.783333	1	0.092000
39.800000	1	0.092000
39.816667	1	0.092500
39.833333	1	0.093375
39.850000	1	0.094875
39.866667	1	0.095500
39.883333	1	0.096750
39.900000	1	0.098250
39.916667	1	0.099250
39.933333	1	0.100125
39.950000	1	0.100875
39.966667	1	0.101875
39.983333	1	0.103000
40.000000	1	0.103875
