URL	chrom://bioreactor/micro_cm7/HPLC_Ultimate_3000/Users/markusar/20240708_MA_pHrange1.seq/513.smp/RI_1.channel/RI_1.chm
Channel	RI_1

Injection Information:
Data Vault	micro_cm7
Sequence	20240708_MA_pHrange1
Name	Fp3_6.5_4
Number	58
Position	BE12
Comment	
Processing Method	
Instrument Method	run_25B_method
Type	Unknown
Status	Finished
Inject Time	10.07.2024 06:29:56 +02:00
Volume (µl)	20.0000
Dilution Factor	1.0000
Weight	1.0000

Chromatogram Data Information:
Time Min. (min)	0.000000
Time Max. (min)	40.000000
Data Points	2401
Detector	RI
Generating Data System	Chromeleon 7.3.2.11814
Exporting Data System	Chromeleon 7.3.2.0
Operator	Instrument Controller
Signal Quantity	Refractive 
Signal Unit	µRIU
Signal Min.	-0.030500
Signal Max.	81.320000
Channel	RI_1
Driver Name	RID520Driver.dll
Channel Type	Evaluation
Min. Step (s)	1
Max. Step (s)	1
Average Step (s)	1

Signal Parameter Information:
Signal Info	

Chromatogram Data:
Time (min)	Step (s)	Value (µRIU)
0.000000	n.a.	0.023000
0.016667	1	0.023750
0.033333	1	0.024375
0.050000	1	0.025500
0.066667	1	0.026625
0.083333	1	0.027625
0.100000	1	0.028000
0.116667	1	0.029250
0.133333	1	0.029000
0.150000	1	0.030125
0.166667	1	0.031625
0.183333	1	0.032125
0.200000	1	0.033375
0.216667	1	0.034750
0.233333	1	0.036375
0.250000	1	0.037500
0.266667	1	0.038625
0.283333	1	0.040125
0.300000	1	0.041250
0.316667	1	0.042250
0.333333	1	0.042875
0.350000	1	0.043375
0.366667	1	0.043500
0.383333	1	0.043750
0.400000	1	0.044000
0.416667	1	0.044875
0.433333	1	0.046625
0.450000	1	0.048625
0.466667	1	0.050500
0.483333	1	0.052500
0.500000	1	0.052750
0.516667	1	0.053125
0.533333	1	0.053375
0.550000	1	0.052625
0.566667	1	0.050875
0.583333	1	0.049125
0.600000	1	0.046125
0.616667	1	0.042500
0.633333	1	0.040000
0.650000	1	0.037625
0.666667	1	0.035250
0.683333	1	0.033750
0.700000	1	0.031750
0.716667	1	0.030000
0.733333	1	0.027875
0.750000	1	0.026250
0.766667	1	0.024750
0.783333	1	0.024250
0.800000	1	0.023250
0.816667	1	0.022000
0.833333	1	0.020750
0.850000	1	0.020000
0.866667	1	0.019375
0.883333	1	0.017375
0.900000	1	0.017750
0.916667	1	0.016375
0.933333	1	0.015750
0.950000	1	0.015000
0.966667	1	0.015000
0.983333	1	0.015500
1.000000	1	0.015000
1.016667	1	0.015125
1.033333	1	0.015375
1.050000	1	0.016500
1.066667	1	0.017000
1.083333	1	0.017500
1.100000	1	0.018500
1.116667	1	0.019000
1.133333	1	0.019000
1.150000	1	0.019375
1.166667	1	0.019500
1.183333	1	0.019625
1.200000	1	0.020250
1.216667	1	0.021375
1.233333	1	0.022250
1.250000	1	0.022500
1.266667	1	0.022250
1.283333	1	0.022625
1.300000	1	0.023000
1.316667	1	0.023250
1.333333	1	0.023250
1.350000	1	0.024125
1.366667	1	0.023625
1.383333	1	0.022875
1.400000	1	0.022750
1.416667	1	0.022750
1.433333	1	0.022750
1.450000	1	0.022250
1.466667	1	0.021625
1.483333	1	0.021500
1.500000	1	0.021125
1.516667	1	0.020750
1.533333	1	0.020375
1.550000	1	0.019875
1.566667	1	0.019625
1.583333	1	0.019500
1.600000	1	0.019000
1.616667	1	0.018875
1.633333	1	0.018375
1.650000	1	0.017750
1.666667	1	0.018000
1.683333	1	0.018250
1.700000	1	0.018125
1.716667	1	0.017750
1.733333	1	0.017625
1.750000	1	0.017250
1.766667	1	0.017250
1.783333	1	0.018125
1.800000	1	0.018750
1.816667	1	0.019500
1.833333	1	0.020750
1.850000	1	0.021625
1.866667	1	0.022250
1.883333	1	0.022750
1.900000	1	0.023875
1.916667	1	0.024750
1.933333	1	0.025500
1.950000	1	0.026875
1.966667	1	0.027375
1.983333	1	0.027875
2.000000	1	0.028750
2.016667	1	0.029625
2.033333	1	0.030250
2.050000	1	0.030750
2.066667	1	0.031125
2.083333	1	0.032000
2.100000	1	0.032375
2.116667	1	0.032625
2.133333	1	0.032125
2.150000	1	0.032375
2.166667	1	0.031875
2.183333	1	0.031500
2.200000	1	0.032125
2.216667	1	0.032625
2.233333	1	0.031875
2.250000	1	0.031000
2.266667	1	0.030375
2.283333	1	0.029750
2.300000	1	0.029125
2.316667	1	0.028000
2.333333	1	0.027500
2.350000	1	0.026375
2.366667	1	0.025375
2.383333	1	0.024750
2.400000	1	0.023875
2.416667	1	0.024125
2.433333	1	0.023000
2.450000	1	0.022375
2.466667	1	0.021625
2.483333	1	0.020625
2.500000	1	0.019625
2.516667	1	0.018750
2.533333	1	0.017875
2.550000	1	0.017375
2.566667	1	0.017000
2.583333	1	0.016250
2.600000	1	0.015500
2.616667	1	0.015375
2.633333	1	0.015000
2.650000	1	0.014625
2.666667	1	0.014250
2.683333	1	0.014125
2.700000	1	0.013750
2.716667	1	0.013250
2.733333	1	0.013125
2.750000	1	0.012875
2.766667	1	0.012750
2.783333	1	0.012750
2.800000	1	0.012875
2.816667	1	0.013750
2.833333	1	0.014125
2.850000	1	0.014000
2.866667	1	0.014500
2.883333	1	0.015625
2.900000	1	0.016125
2.916667	1	0.016250
2.933333	1	0.016625
2.950000	1	0.017000
2.966667	1	0.017875
2.983333	1	0.018750
3.000000	1	0.019250
3.016667	1	0.020375
3.033333	1	0.021000
3.050000	1	0.021750
3.066667	1	0.023250
3.083333	1	0.025000
3.100000	1	0.025750
3.116667	1	0.027125
3.133333	1	0.028500
3.150000	1	0.029875
3.166667	1	0.031375
3.183333	1	0.032875
3.200000	1	0.034375
3.216667	1	0.035750
3.233333	1	0.037500
3.250000	1	0.039125
3.266667	1	0.041375
3.283333	1	0.043125
3.300000	1	0.044250
3.316667	1	0.045250
3.333333	1	0.046750
3.350000	1	0.048375
3.366667	1	0.049875
3.383333	1	0.051625
3.400000	1	0.053875
3.416667	1	0.055375
3.433333	1	0.057500
3.450000	1	0.058750
3.466667	1	0.060125
3.483333	1	0.061375
3.500000	1	0.062625
3.516667	1	0.063500
3.533333	1	0.064750
3.550000	1	0.065375
3.566667	1	0.066125
3.583333	1	0.067125
3.600000	1	0.067500
3.616667	1	0.068250
3.633333	1	0.069000
3.650000	1	0.068750
3.666667	1	0.069000
3.683333	1	0.069375
3.700000	1	0.068875
3.716667	1	0.069375
3.733333	1	0.069250
3.750000	1	0.069500
3.766667	1	0.069875
3.783333	1	0.070375
3.800000	1	0.070000
3.816667	1	0.069625
3.833333	1	0.068750
3.850000	1	0.068250
3.866667	1	0.067750
3.883333	1	0.067500
3.900000	1	0.067125
3.916667	1	0.067250
3.933333	1	0.067625
3.950000	1	0.068125
3.966667	1	0.067625
3.983333	1	0.067500
4.000000	1	0.067625
4.016667	1	0.068250
4.033333	1	0.068250
4.050000	1	0.067875
4.066667	1	0.068250
4.083333	1	0.067625
4.100000	1	0.067750
4.116667	1	0.067000
4.133333	1	0.066750
4.150000	1	0.066875
4.166667	1	0.067000
4.183333	1	0.066750
4.200000	1	0.066625
4.216667	1	0.066375
4.233333	1	0.066375
4.250000	1	0.065750
4.266667	1	0.065875
4.283333	1	0.065625
4.300000	1	0.065750
4.316667	1	0.064500
4.333333	1	0.064125
4.350000	1	0.063625
4.366667	1	0.063750
4.383333	1	0.064375
4.400000	1	0.064750
4.416667	1	0.065375
4.433333	1	0.066125
4.450000	1	0.066125
4.466667	1	0.066500
4.483333	1	0.068000
4.500000	1	0.069375
4.516667	1	0.070375
4.533333	1	0.071125
4.550000	1	0.072750
4.566667	1	0.075000
4.583333	1	0.077000
4.600000	1	0.078500
4.616667	1	0.080750
4.633333	1	0.083250
4.650000	1	0.086125
4.666667	1	0.088500
4.683333	1	0.090875
4.700000	1	0.093250
4.716667	1	0.096250
4.733333	1	0.100125
4.750000	1	0.103250
4.766667	1	0.106875
4.783333	1	0.110500
4.800000	1	0.114250
4.816667	1	0.117375
4.833333	1	0.121000
4.850000	1	0.124375
4.866667	1	0.127375
4.883333	1	0.131375
4.900000	1	0.136000
4.916667	1	0.140000
4.933333	1	0.144375
4.950000	1	0.147750
4.966667	1	0.152125
4.983333	1	0.156375
5.000000	1	0.161250
5.016667	1	0.165625
5.033333	1	0.170250
5.050000	1	0.174875
5.066667	1	0.178875
5.083333	1	0.182750
5.100000	1	0.186750
5.116667	1	0.190875
5.133333	1	0.195000
5.150000	1	0.199500
5.166667	1	0.203500
5.183333	1	0.206875
5.200000	1	0.209625
5.216667	1	0.213250
5.233333	1	0.216875
5.250000	1	0.220000
5.266667	1	0.222625
5.283333	1	0.225000
5.300000	1	0.227750
5.316667	1	0.230875
5.333333	1	0.232625
5.350000	1	0.235500
5.366667	1	0.237125
5.383333	1	0.239750
5.400000	1	0.241750
5.416667	1	0.243500
5.433333	1	0.244875
5.450000	1	0.245875
5.466667	1	0.247125
5.483333	1	0.248625
5.500000	1	0.249625
5.516667	1	0.250125
5.533333	1	0.250625
5.550000	1	0.250625
5.566667	1	0.250625
5.583333	1	0.250500
5.600000	1	0.249875
5.616667	1	0.249000
5.633333	1	0.248625
5.650000	1	0.248000
5.666667	1	0.246625
5.683333	1	0.245375
5.700000	1	0.243875
5.716667	1	0.242375
5.733333	1	0.239750
5.750000	1	0.238250
5.766667	1	0.236625
5.783333	1	0.234250
5.800000	1	0.231750
5.816667	1	0.229500
5.833333	1	0.226625
5.850000	1	0.223375
5.866667	1	0.220250
5.883333	1	0.217250
5.900000	1	0.213750
5.916667	1	0.210625
5.933333	1	0.207000
5.950000	1	0.203375
5.966667	1	0.199875
5.983333	1	0.195875
6.000000	1	0.192250
6.016667	1	0.188125
6.033333	1	0.184375
6.050000	1	0.180750
6.066667	1	0.176125
6.083333	1	0.172500
6.100000	1	0.168750
6.116667	1	0.164875
6.133333	1	0.160375
6.150000	1	0.156375
6.166667	1	0.152625
6.183333	1	0.148375
6.200000	1	0.145000
6.216667	1	0.141625
6.233333	1	0.137625
6.250000	1	0.134000
6.266667	1	0.129875
6.283333	1	0.126000
6.300000	1	0.122625
6.316667	1	0.119500
6.333333	1	0.116000
6.350000	1	0.112875
6.366667	1	0.109750
6.383333	1	0.106875
6.400000	1	0.103875
6.416667	1	0.100875
6.433333	1	0.097500
6.450000	1	0.094625
6.466667	1	0.092375
6.483333	1	0.089625
6.500000	1	0.086875
6.516667	1	0.084250
6.533333	1	0.081625
6.550000	1	0.079875
6.566667	1	0.077375
6.583333	1	0.075500
6.600000	1	0.074125
6.616667	1	0.072625
6.633333	1	0.071125
6.650000	1	0.069500
6.666667	1	0.068375
6.683333	1	0.067500
6.700000	1	0.066750
6.716667	1	0.066125
6.733333	1	0.065375
6.750000	1	0.065250
6.766667	1	0.065000
6.783333	1	0.065625
6.800000	1	0.066250
6.816667	1	0.067125
6.833333	1	0.067750
6.850000	1	0.068375
6.866667	1	0.069875
6.883333	1	0.070750
6.900000	1	0.071625
6.916667	1	0.074125
6.933333	1	0.075750
6.950000	1	0.077375
6.966667	1	0.079375
6.983333	1	0.082125
7.000000	1	0.084625
7.016667	1	0.086625
7.033333	1	0.088625
7.050000	1	0.091375
7.066667	1	0.094375
7.083333	1	0.097250
7.100000	1	0.099875
7.116667	1	0.102250
7.133333	1	0.104875
7.150000	1	0.107375
7.166667	1	0.110875
7.183333	1	0.114375
7.200000	1	0.117625
7.216667	1	0.120125
7.233333	1	0.123500
7.250000	1	0.126125
7.266667	1	0.128625
7.283333	1	0.130000
7.300000	1	0.132250
7.316667	1	0.134875
7.333333	1	0.137625
7.350000	1	0.139500
7.366667	1	0.141750
7.383333	1	0.143375
7.400000	1	0.145000
7.416667	1	0.145625
7.433333	1	0.146000
7.450000	1	0.146500
7.466667	1	0.146500
7.483333	1	0.146000
7.500000	1	0.145000
7.516667	1	0.144250
7.533333	1	0.143500
7.550000	1	0.142375
7.566667	1	0.141125
7.583333	1	0.139500
7.600000	1	0.137375
7.616667	1	0.135750
7.633333	1	0.133625
7.650000	1	0.130250
7.666667	1	0.127375
7.683333	1	0.124375
7.700000	1	0.121500
7.716667	1	0.118375
7.733333	1	0.115375
7.750000	1	0.110875
7.766667	1	0.107000
7.783333	1	0.102625
7.800000	1	0.098875
7.816667	1	0.094875
7.833333	1	0.090250
7.850000	1	0.086375
7.866667	1	0.082000
7.883333	1	0.078500
7.900000	1	0.074375
7.916667	1	0.070500
7.933333	1	0.066250
7.950000	1	0.062625
7.966667	1	0.058500
7.983333	1	0.055500
8.000000	1	0.053000
8.016667	1	0.049625
8.033333	1	0.046375
8.050000	1	0.043500
8.066667	1	0.040625
8.083333	1	0.037750
8.100000	1	0.034375
8.116667	1	0.031250
8.133333	1	0.028875
8.150000	1	0.026500
8.166667	1	0.024125
8.183333	1	0.021750
8.200000	1	0.019750
8.216667	1	0.017750
8.233333	1	0.015250
8.250000	1	0.013250
8.266667	1	0.011125
8.283333	1	0.009250
8.300000	1	0.007125
8.316667	1	0.005375
8.333333	1	0.004000
8.350000	1	0.002500
8.366667	1	0.001000
8.383333	1	0.000000
8.400000	1	-0.001125
8.416667	1	-0.003375
8.433333	1	-0.004750
8.450000	1	-0.005625
8.466667	1	-0.006750
8.483333	1	-0.008500
8.500000	1	-0.009375
8.516667	1	-0.009875
8.533333	1	-0.011000
8.550000	1	-0.011875
8.566667	1	-0.012750
8.583333	1	-0.013000
8.600000	1	-0.013875
8.616667	1	-0.014125
8.633333	1	-0.014250
8.650000	1	-0.014000
8.666667	1	-0.014500
8.683333	1	-0.014500
8.700000	1	-0.013625
8.716667	1	-0.013625
8.733333	1	-0.013125
8.750000	1	-0.012250
8.766667	1	-0.012125
8.783333	1	-0.011125
8.800000	1	-0.009250
8.816667	1	-0.008750
8.833333	1	-0.007875
8.850000	1	-0.007250
8.866667	1	-0.006625
8.883333	1	-0.005375
8.900000	1	-0.004500
8.916667	1	-0.003125
8.933333	1	-0.001625
8.950000	1	-0.000625
8.966667	1	0.000500
8.983333	1	0.001625
9.000000	1	0.002625
9.016667	1	0.002875
9.033333	1	0.003000
9.050000	1	0.002750
9.066667	1	0.003375
9.083333	1	0.004250
9.100000	1	0.004625
9.116667	1	0.004625
9.133333	1	0.004750
9.150000	1	0.004375
9.166667	1	0.004000
9.183333	1	0.003625
9.200000	1	0.002875
9.216667	1	0.001500
9.233333	1	0.001375
9.250000	1	0.000125
9.266667	1	0.000000
9.283333	1	-0.001000
9.300000	1	-0.001750
9.316667	1	-0.002875
9.333333	1	-0.004625
9.350000	1	-0.006625
9.366667	1	-0.008375
9.383333	1	-0.010625
9.400000	1	-0.012375
9.416667	1	-0.014125
9.433333	1	-0.016000
9.450000	1	-0.017500
9.466667	1	-0.019375
9.483333	1	-0.021000
9.500000	1	-0.022125
9.516667	1	-0.023000
9.533333	1	-0.024500
9.550000	1	-0.025875
9.566667	1	-0.026875
9.583333	1	-0.027125
9.600000	1	-0.028000
9.616667	1	-0.028875
9.633333	1	-0.029750
9.650000	1	-0.030000
9.666667	1	-0.030250
9.683333	1	-0.030250
9.700000	1	-0.030500
9.716667	1	-0.030375
9.733333	1	-0.030000
9.750000	1	-0.029625
9.766667	1	-0.029250
9.783333	1	-0.028875
9.800000	1	-0.027750
9.816667	1	-0.027125
9.833333	1	-0.026500
9.850000	1	-0.026125
9.866667	1	-0.024875
9.883333	1	-0.024375
9.900000	1	-0.023500
9.916667	1	-0.022375
9.933333	1	-0.021375
9.950000	1	-0.020375
9.966667	1	-0.019500
9.983333	1	-0.018250
10.000000	1	-0.017500
10.016667	1	-0.016125
10.033333	1	-0.015000
10.050000	1	-0.012875
10.066667	1	-0.010875
10.083333	1	-0.007750
10.100000	1	-0.004000
10.116667	1	0.000375
10.133333	1	0.005125
10.150000	1	0.011250
10.166667	1	0.017625
10.183333	1	0.025375
10.200000	1	0.034000
10.216667	1	0.045375
10.233333	1	0.058125
10.250000	1	0.072250
10.266667	1	0.089375
10.283333	1	0.108625
10.300000	1	0.129750
10.316667	1	0.153250
10.333333	1	0.179375
10.350000	1	0.206875
10.366667	1	0.235875
10.383333	1	0.262625
10.400000	1	0.286000
10.416667	1	0.302125
10.433333	1	0.310750
10.450000	1	0.311500
10.466667	1	0.307625
10.483333	1	0.308250
10.500000	1	0.328000
10.516667	1	0.391125
10.533333	1	0.530000
10.550000	1	0.786250
10.566667	1	1.212750
10.583333	1	1.864500
10.600000	1	2.799500
10.616667	1	4.068875
10.633333	1	5.714625
10.650000	1	7.764375
10.666667	1	10.234500
10.683333	1	13.125750
10.700000	1	16.422875
10.716667	1	20.093750
10.733333	1	24.086750
10.750000	1	28.327500
10.766667	1	32.706625
10.783333	1	37.084500
10.800000	1	41.262750
10.816667	1	44.981375
10.833333	1	47.918500
10.850000	1	49.739250
10.866667	1	50.144750
10.883333	1	48.969125
10.900000	1	46.248375
10.916667	1	42.249375
10.933333	1	37.402125
10.950000	1	32.195750
10.966667	1	27.063250
10.983333	1	22.316500
11.000000	1	18.133375
11.016667	1	14.584000
11.033333	1	11.660625
11.050000	1	9.307500
11.066667	1	7.448500
11.083333	1	6.000125
11.100000	1	4.884000
11.116667	1	4.029250
11.133333	1	3.377000
11.150000	1	2.879375
11.166667	1	2.499250
11.183333	1	2.207750
11.200000	1	1.985000
11.216667	1	1.813125
11.233333	1	1.679125
11.250000	1	1.574375
11.266667	1	1.490750
11.283333	1	1.421375
11.300000	1	1.364125
11.316667	1	1.314125
11.333333	1	1.269500
11.350000	1	1.228125
11.366667	1	1.190250
11.383333	1	1.155000
11.400000	1	1.121875
11.416667	1	1.090875
11.433333	1	1.062625
11.450000	1	1.037000
11.466667	1	1.014875
11.483333	1	0.994875
11.500000	1	0.978875
11.516667	1	0.966500
11.533333	1	0.957250
11.550000	1	0.951500
11.566667	1	0.950125
11.583333	1	0.952375
11.600000	1	0.958875
11.616667	1	0.970500
11.633333	1	0.985750
11.650000	1	1.004875
11.666667	1	1.028125
11.683333	1	1.053500
11.700000	1	1.081875
11.716667	1	1.111125
11.733333	1	1.139875
11.750000	1	1.167000
11.766667	1	1.190500
11.783333	1	1.209750
11.800000	1	1.224250
11.816667	1	1.233250
11.833333	1	1.235875
11.850000	1	1.233625
11.866667	1	1.227250
11.883333	1	1.217250
11.900000	1	1.203750
11.916667	1	1.189250
11.933333	1	1.173125
11.950000	1	1.156500
11.966667	1	1.140875
11.983333	1	1.126750
12.000000	1	1.114000
12.016667	1	1.103375
12.033333	1	1.095000
12.050000	1	1.088250
12.066667	1	1.083000
12.083333	1	1.079500
12.100000	1	1.076875
12.116667	1	1.076000
12.133333	1	1.077000
12.150000	1	1.079500
12.166667	1	1.083125
12.183333	1	1.088000
12.200000	1	1.095000
12.216667	1	1.105250
12.233333	1	1.119000
12.250000	1	1.137000
12.266667	1	1.161375
12.283333	1	1.195375
12.300000	1	1.241000
12.316667	1	1.303000
12.333333	1	1.386875
12.350000	1	1.499625
12.366667	1	1.651375
12.383333	1	1.855625
12.400000	1	2.129125
12.416667	1	2.494250
12.433333	1	2.980125
12.450000	1	3.624875
12.466667	1	4.476750
12.483333	1	5.593000
12.500000	1	7.042500
12.516667	1	8.901250
12.533333	1	11.250375
12.550000	1	14.167125
12.566667	1	17.719500
12.583333	1	21.950875
12.600000	1	26.866000
12.616667	1	32.418875
12.633333	1	38.517875
12.650000	1	45.007625
12.666667	1	51.674500
12.683333	1	58.250000
12.700000	1	64.434125
12.716667	1	69.923250
12.733333	1	74.435375
12.750000	1	77.741250
12.766667	1	79.691000
12.783333	1	80.226875
12.800000	1	79.393000
12.816667	1	77.321000
12.833333	1	74.208375
12.850000	1	70.298250
12.866667	1	65.858000
12.883333	1	61.154125
12.900000	1	56.429625
12.916667	1	51.891625
12.933333	1	47.698250
12.950000	1	43.953625
12.966667	1	40.717625
12.983333	1	38.009000
13.000000	1	35.816750
13.016667	1	34.109250
13.033333	1	32.841000
13.050000	1	31.961375
13.066667	1	31.417625
13.083333	1	31.162000
13.100000	1	31.149250
13.116667	1	31.338625
13.133333	1	31.696125
13.150000	1	32.192000
13.166667	1	32.804000
13.183333	1	33.510750
13.200000	1	34.296125
13.216667	1	35.148750
13.233333	1	36.057875
13.250000	1	37.017250
13.266667	1	38.020500
13.283333	1	39.063250
13.300000	1	40.142750
13.316667	1	41.255625
13.333333	1	42.400625
13.350000	1	43.575125
13.366667	1	44.778375
13.383333	1	46.011375
13.400000	1	47.270625
13.416667	1	48.559000
13.433333	1	49.876250
13.450000	1	51.224500
13.466667	1	52.603375
13.483333	1	54.013625
13.500000	1	55.455250
13.516667	1	56.927000
13.533333	1	58.428500
13.550000	1	59.961375
13.566667	1	61.525500
13.583333	1	63.122375
13.600000	1	64.749625
13.616667	1	66.411375
13.633333	1	68.107500
13.650000	1	69.839750
13.666667	1	71.610000
13.683333	1	73.414250
13.700000	1	75.239250
13.716667	1	77.038625
13.733333	1	78.713250
13.750000	1	80.105375
13.766667	1	81.030250
13.783333	1	81.320000
13.800000	1	80.850875
13.816667	1	79.525375
13.833333	1	77.241125
13.850000	1	73.850125
13.866667	1	69.178375
13.883333	1	63.139625
13.900000	1	55.906000
13.916667	1	47.985875
13.933333	1	40.063875
13.950000	1	32.762875
13.966667	1	26.468875
13.983333	1	21.294750
14.000000	1	17.168000
14.016667	1	13.937125
14.033333	1	11.441500
14.050000	1	9.536250
14.066667	1	8.100625
14.083333	1	7.028875
14.100000	1	6.233125
14.116667	1	5.641625
14.133333	1	5.198250
14.150000	1	4.861250
14.166667	1	4.599625
14.183333	1	4.392125
14.200000	1	4.223625
14.216667	1	4.083875
14.233333	1	3.964375
14.250000	1	3.860500
14.266667	1	3.768375
14.283333	1	3.685875
14.300000	1	3.611625
14.316667	1	3.542875
14.333333	1	3.480000
14.350000	1	3.421875
14.366667	1	3.368625
14.383333	1	3.318750
14.400000	1	3.272500
14.416667	1	3.229250
14.433333	1	3.189000
14.450000	1	3.151875
14.466667	1	3.117500
14.483333	1	3.085000
14.500000	1	3.054500
14.516667	1	3.024375
14.533333	1	2.995625
14.550000	1	2.968625
14.566667	1	2.941375
14.583333	1	2.914125
14.600000	1	2.887250
14.616667	1	2.860125
14.633333	1	2.832125
14.650000	1	2.803625
14.666667	1	2.774375
14.683333	1	2.744625
14.700000	1	2.715250
14.716667	1	2.685250
14.733333	1	2.656625
14.750000	1	2.628500
14.766667	1	2.600500
14.783333	1	2.573125
14.800000	1	2.545750
14.816667	1	2.518750
14.833333	1	2.491750
14.850000	1	2.464625
14.866667	1	2.436375
14.883333	1	2.408250
14.900000	1	2.379250
14.916667	1	2.349750
14.933333	1	2.318500
14.950000	1	2.287125
14.966667	1	2.254625
14.983333	1	2.223000
15.000000	1	2.190625
15.016667	1	2.158000
15.033333	1	2.126750
15.050000	1	2.096000
15.066667	1	2.066625
15.083333	1	2.038000
15.100000	1	2.010750
15.116667	1	1.985250
15.133333	1	1.962000
15.150000	1	1.939750
15.166667	1	1.918875
15.183333	1	1.899750
15.200000	1	1.882125
15.216667	1	1.866125
15.233333	1	1.852750
15.250000	1	1.841125
15.266667	1	1.832125
15.283333	1	1.825750
15.300000	1	1.822375
15.316667	1	1.822750
15.333333	1	1.827000
15.350000	1	1.836000
15.366667	1	1.849750
15.383333	1	1.868250
15.400000	1	1.891625
15.416667	1	1.919750
15.433333	1	1.951750
15.450000	1	1.987125
15.466667	1	2.022875
15.483333	1	2.057375
15.500000	1	2.088750
15.516667	1	2.115250
15.533333	1	2.135375
15.550000	1	2.147875
15.566667	1	2.150875
15.583333	1	2.144125
15.600000	1	2.128500
15.616667	1	2.104125
15.633333	1	2.072625
15.650000	1	2.036250
15.666667	1	1.994500
15.683333	1	1.951125
15.700000	1	1.906375
15.716667	1	1.861625
15.733333	1	1.818125
15.750000	1	1.776000
15.766667	1	1.736250
15.783333	1	1.697500
15.800000	1	1.662000
15.816667	1	1.627750
15.833333	1	1.595125
15.850000	1	1.564375
15.866667	1	1.535125
15.883333	1	1.506375
15.900000	1	1.479750
15.916667	1	1.454875
15.933333	1	1.432000
15.950000	1	1.411250
15.966667	1	1.392375
15.983333	1	1.376125
16.000000	1	1.361875
16.016667	1	1.350000
16.033333	1	1.340625
16.050000	1	1.332875
16.066667	1	1.326250
16.083333	1	1.321375
16.100000	1	1.318000
16.116667	1	1.316875
16.133333	1	1.316125
16.150000	1	1.315750
16.166667	1	1.315625
16.183333	1	1.315875
16.200000	1	1.315750
16.216667	1	1.315375
16.233333	1	1.314625
16.250000	1	1.312625
16.266667	1	1.310625
16.283333	1	1.307750
16.300000	1	1.304500
16.316667	1	1.299625
16.333333	1	1.294000
16.350000	1	1.287750
16.366667	1	1.281125
16.383333	1	1.274875
16.400000	1	1.268750
16.416667	1	1.262750
16.433333	1	1.257250
16.450000	1	1.252750
16.466667	1	1.249875
16.483333	1	1.248875
16.500000	1	1.249500
16.516667	1	1.252250
16.533333	1	1.256625
16.550000	1	1.262625
16.566667	1	1.270250
16.583333	1	1.279875
16.600000	1	1.288000
16.616667	1	1.296875
16.633333	1	1.304750
16.650000	1	1.312375
16.666667	1	1.318750
16.683333	1	1.324500
16.700000	1	1.328750
16.716667	1	1.331875
16.733333	1	1.334625
16.750000	1	1.336000
16.766667	1	1.337625
16.783333	1	1.339250
16.800000	1	1.341250
16.816667	1	1.343875
16.833333	1	1.347250
16.850000	1	1.350750
16.866667	1	1.354500
16.883333	1	1.357625
16.900000	1	1.360875
16.916667	1	1.363500
16.933333	1	1.365750
16.950000	1	1.368000
16.966667	1	1.368875
16.983333	1	1.368250
17.000000	1	1.366500
17.016667	1	1.364250
17.033333	1	1.361125
17.050000	1	1.357375
17.066667	1	1.352875
17.083333	1	1.349000
17.100000	1	1.345750
17.116667	1	1.343125
17.133333	1	1.341500
17.150000	1	1.341375
17.166667	1	1.342625
17.183333	1	1.345875
17.200000	1	1.350750
17.216667	1	1.357500
17.233333	1	1.366250
17.250000	1	1.376375
17.266667	1	1.388125
17.283333	1	1.401375
17.300000	1	1.415625
17.316667	1	1.430875
17.333333	1	1.446500
17.350000	1	1.461625
17.366667	1	1.475500
17.383333	1	1.489625
17.400000	1	1.501625
17.416667	1	1.511875
17.433333	1	1.519000
17.450000	1	1.523375
17.466667	1	1.524750
17.483333	1	1.522375
17.500000	1	1.517000
17.516667	1	1.508125
17.533333	1	1.496750
17.550000	1	1.482000
17.566667	1	1.464625
17.583333	1	1.445875
17.600000	1	1.424875
17.616667	1	1.402625
17.633333	1	1.379625
17.650000	1	1.356375
17.666667	1	1.332250
17.683333	1	1.309000
17.700000	1	1.286625
17.716667	1	1.264500
17.733333	1	1.243125
17.750000	1	1.222375
17.766667	1	1.202875
17.783333	1	1.184875
17.800000	1	1.166875
17.816667	1	1.150000
17.833333	1	1.133875
17.850000	1	1.119125
17.866667	1	1.105000
17.883333	1	1.091875
17.900000	1	1.079375
17.916667	1	1.067000
17.933333	1	1.056125
17.950000	1	1.046000
17.966667	1	1.035250
17.983333	1	1.026250
18.000000	1	1.016500
18.016667	1	1.006750
18.033333	1	0.998125
18.050000	1	0.989875
18.066667	1	0.980875
18.083333	1	0.972500
18.100000	1	0.964375
18.116667	1	0.956375
18.133333	1	0.947875
18.150000	1	0.939750
18.166667	1	0.933250
18.183333	1	0.927250
18.200000	1	0.921250
18.216667	1	0.916375
18.233333	1	0.912375
18.250000	1	0.909250
18.266667	1	0.906000
18.283333	1	0.903625
18.300000	1	0.901875
18.316667	1	0.900250
18.333333	1	0.900125
18.350000	1	0.900250
18.366667	1	0.899750
18.383333	1	0.900625
18.400000	1	0.902000
18.416667	1	0.903750
18.433333	1	0.906125
18.450000	1	0.909875
18.466667	1	0.914875
18.483333	1	0.921125
18.500000	1	0.929125
18.516667	1	0.939125
18.533333	1	0.950625
18.550000	1	0.964375
18.566667	1	0.980375
18.583333	1	0.998250
18.600000	1	1.018625
18.616667	1	1.041625
18.633333	1	1.066125
18.650000	1	1.092625
18.666667	1	1.121250
18.683333	1	1.151750
18.700000	1	1.184250
18.716667	1	1.217750
18.733333	1	1.252750
18.750000	1	1.288125
18.766667	1	1.325500
18.783333	1	1.362375
18.800000	1	1.398250
18.816667	1	1.433750
18.833333	1	1.467375
18.850000	1	1.498125
18.866667	1	1.526125
18.883333	1	1.550375
18.900000	1	1.571000
18.916667	1	1.585250
18.933333	1	1.593875
18.950000	1	1.596125
18.966667	1	1.591375
18.983333	1	1.579250
19.000000	1	1.560125
19.016667	1	1.534500
19.033333	1	1.502000
19.050000	1	1.463500
19.066667	1	1.420000
19.083333	1	1.372250
19.100000	1	1.321375
19.116667	1	1.268500
19.133333	1	1.216000
19.150000	1	1.162125
19.166667	1	1.110250
19.183333	1	1.060125
19.200000	1	1.013125
19.216667	1	0.969750
19.233333	1	0.930875
19.250000	1	0.897375
19.266667	1	0.868750
19.283333	1	0.845125
19.300000	1	0.827625
19.316667	1	0.816375
19.333333	1	0.810375
19.350000	1	0.810750
19.366667	1	0.816375
19.383333	1	0.827375
19.400000	1	0.842875
19.416667	1	0.863125
19.433333	1	0.887125
19.450000	1	0.914125
19.466667	1	0.944125
19.483333	1	0.975500
19.500000	1	1.007500
19.516667	1	1.038500
19.533333	1	1.068500
19.550000	1	1.096000
19.566667	1	1.120125
19.583333	1	1.139250
19.600000	1	1.153250
19.616667	1	1.161750
19.633333	1	1.163500
19.650000	1	1.159375
19.666667	1	1.148500
19.683333	1	1.132375
19.700000	1	1.111000
19.716667	1	1.085750
19.733333	1	1.056500
19.750000	1	1.023625
19.766667	1	0.989750
19.783333	1	0.954125
19.800000	1	0.917750
19.816667	1	0.882500
19.833333	1	0.847375
19.850000	1	0.814250
19.866667	1	0.782625
19.883333	1	0.753000
19.900000	1	0.726375
19.916667	1	0.702125
19.933333	1	0.680375
19.950000	1	0.661125
19.966667	1	0.644875
19.983333	1	0.630875
20.000000	1	0.619750
20.016667	1	0.610500
20.033333	1	0.603500
20.050000	1	0.599125
20.066667	1	0.597500
20.083333	1	0.597625
20.100000	1	0.599625
20.116667	1	0.604500
20.133333	1	0.611625
20.150000	1	0.620500
20.166667	1	0.632750
20.183333	1	0.645750
20.200000	1	0.659875
20.216667	1	0.675375
20.233333	1	0.691125
20.250000	1	0.707375
20.266667	1	0.723375
20.283333	1	0.738000
20.300000	1	0.752750
20.316667	1	0.764750
20.333333	1	0.774500
20.350000	1	0.782375
20.366667	1	0.786625
20.383333	1	0.787875
20.400000	1	0.786000
20.416667	1	0.781875
20.433333	1	0.774250
20.450000	1	0.766250
20.466667	1	0.756625
20.483333	1	0.747125
20.500000	1	0.738000
20.516667	1	0.731250
20.533333	1	0.726000
20.550000	1	0.724250
20.566667	1	0.726375
20.583333	1	0.735125
20.600000	1	0.749125
20.616667	1	0.769625
20.633333	1	0.798000
20.650000	1	0.833750
20.666667	1	0.877000
20.683333	1	0.928000
20.700000	1	0.985375
20.716667	1	1.049875
20.733333	1	1.120625
20.750000	1	1.194250
20.766667	1	1.271625
20.783333	1	1.349250
20.800000	1	1.425250
20.816667	1	1.496750
20.833333	1	1.561875
20.850000	1	1.618750
20.866667	1	1.664625
20.883333	1	1.697750
20.900000	1	1.717750
20.916667	1	1.723625
20.933333	1	1.714625
20.950000	1	1.692125
20.966667	1	1.656750
20.983333	1	1.610000
21.000000	1	1.552250
21.016667	1	1.486375
21.033333	1	1.414375
21.050000	1	1.338250
21.066667	1	1.261000
21.083333	1	1.184125
21.100000	1	1.108750
21.116667	1	1.036125
21.133333	1	0.967625
21.150000	1	0.903625
21.166667	1	0.845125
21.183333	1	0.791875
21.200000	1	0.743875
21.216667	1	0.701250
21.233333	1	0.663875
21.250000	1	0.630625
21.266667	1	0.601125
21.283333	1	0.576625
21.300000	1	0.556375
21.316667	1	0.538625
21.333333	1	0.523750
21.350000	1	0.511500
21.366667	1	0.502000
21.383333	1	0.493500
21.400000	1	0.486125
21.416667	1	0.480750
21.433333	1	0.476625
21.450000	1	0.473125
21.466667	1	0.471000
21.483333	1	0.470000
21.500000	1	0.471375
21.516667	1	0.473375
21.533333	1	0.476125
21.550000	1	0.481250
21.566667	1	0.488125
21.583333	1	0.497250
21.600000	1	0.509000
21.616667	1	0.523000
21.633333	1	0.540625
21.650000	1	0.561250
21.666667	1	0.585375
21.683333	1	0.613625
21.700000	1	0.646500
21.716667	1	0.683250
21.733333	1	0.724625
21.750000	1	0.770125
21.766667	1	0.820625
21.783333	1	0.876375
21.800000	1	0.935750
21.816667	1	0.998750
21.833333	1	1.065750
21.850000	1	1.134375
21.866667	1	1.203750
21.883333	1	1.274125
21.900000	1	1.343625
21.916667	1	1.410625
21.933333	1	1.473250
21.950000	1	1.531125
21.966667	1	1.583125
21.983333	1	1.626875
22.000000	1	1.661750
22.016667	1	1.686625
22.033333	1	1.701000
22.050000	1	1.705125
22.066667	1	1.699250
22.083333	1	1.683500
22.100000	1	1.657875
22.116667	1	1.623000
22.133333	1	1.581125
22.150000	1	1.532375
22.166667	1	1.478250
22.183333	1	1.419500
22.200000	1	1.358500
22.216667	1	1.296500
22.233333	1	1.233625
22.250000	1	1.170375
22.266667	1	1.109000
22.283333	1	1.049625
22.300000	1	0.991750
22.316667	1	0.937875
22.333333	1	0.885125
22.350000	1	0.836500
22.366667	1	0.790625
22.383333	1	0.747875
22.400000	1	0.707875
22.416667	1	0.671625
22.433333	1	0.639125
22.450000	1	0.608375
22.466667	1	0.581000
22.483333	1	0.555875
22.500000	1	0.532875
22.516667	1	0.512125
22.533333	1	0.494000
22.550000	1	0.477250
22.566667	1	0.461625
22.583333	1	0.447875
22.600000	1	0.436000
22.616667	1	0.425250
22.633333	1	0.414875
22.650000	1	0.406125
22.666667	1	0.398000
22.683333	1	0.391000
22.700000	1	0.383750
22.716667	1	0.377125
22.733333	1	0.371750
22.750000	1	0.366125
22.766667	1	0.360250
22.783333	1	0.355250
22.800000	1	0.350875
22.816667	1	0.345875
22.833333	1	0.341375
22.850000	1	0.337750
22.866667	1	0.334625
22.883333	1	0.331250
22.900000	1	0.328375
22.916667	1	0.325000
22.933333	1	0.322625
22.950000	1	0.320125
22.966667	1	0.318375
22.983333	1	0.317000
23.000000	1	0.316375
23.016667	1	0.315625
23.033333	1	0.315250
23.050000	1	0.315875
23.066667	1	0.317250
23.083333	1	0.317625
23.100000	1	0.319125
23.116667	1	0.321000
23.133333	1	0.323375
23.150000	1	0.326250
23.166667	1	0.329000
23.183333	1	0.332250
23.200000	1	0.335125
23.216667	1	0.338875
23.233333	1	0.342750
23.250000	1	0.348250
23.266667	1	0.353750
23.283333	1	0.361250
23.300000	1	0.369625
23.316667	1	0.379750
23.333333	1	0.392000
23.350000	1	0.406750
23.366667	1	0.426000
23.383333	1	0.448625
23.400000	1	0.476375
23.416667	1	0.509625
23.433333	1	0.550125
23.450000	1	0.597250
23.466667	1	0.654000
23.483333	1	0.720250
23.500000	1	0.798250
23.516667	1	0.888875
23.533333	1	0.993875
23.550000	1	1.113000
23.566667	1	1.248375
23.583333	1	1.399250
23.600000	1	1.568125
23.616667	1	1.753750
23.633333	1	1.956500
23.650000	1	2.173625
23.666667	1	2.404750
23.683333	1	2.648375
23.700000	1	2.901125
23.716667	1	3.159250
23.733333	1	3.419250
23.750000	1	3.676500
23.766667	1	3.925125
23.783333	1	4.160625
23.800000	1	4.377625
23.816667	1	4.571375
23.833333	1	4.737750
23.850000	1	4.872000
23.866667	1	4.971875
23.883333	1	5.034625
23.900000	1	5.058500
23.916667	1	5.044375
23.933333	1	4.992500
23.950000	1	4.904125
23.966667	1	4.783000
23.983333	1	4.631875
24.000000	1	4.454875
24.016667	1	4.256000
24.033333	1	4.042625
24.050000	1	3.818125
24.066667	1	3.585750
24.083333	1	3.349625
24.100000	1	3.115000
24.116667	1	2.883750
24.133333	1	2.659750
24.150000	1	2.445000
24.166667	1	2.242375
24.183333	1	2.051000
24.200000	1	1.873375
24.216667	1	1.709875
24.233333	1	1.560250
24.250000	1	1.423750
24.266667	1	1.301000
24.283333	1	1.190250
24.300000	1	1.091750
24.316667	1	1.003875
24.333333	1	0.926875
24.350000	1	0.859250
24.366667	1	0.800250
24.383333	1	0.749125
24.400000	1	0.704750
24.416667	1	0.667875
24.433333	1	0.635375
24.450000	1	0.608625
24.466667	1	0.586750
24.483333	1	0.568375
24.500000	1	0.552500
24.516667	1	0.540000
24.533333	1	0.529500
24.550000	1	0.521000
24.566667	1	0.513500
24.583333	1	0.507500
24.600000	1	0.501625
24.616667	1	0.497125
24.633333	1	0.492375
24.650000	1	0.487625
24.666667	1	0.483125
24.683333	1	0.478125
24.700000	1	0.473750
24.716667	1	0.469375
24.733333	1	0.463750
24.750000	1	0.457375
24.766667	1	0.450500
24.783333	1	0.443875
24.800000	1	0.437500
24.816667	1	0.431375
24.833333	1	0.424875
24.850000	1	0.418125
24.866667	1	0.411750
24.883333	1	0.404750
24.900000	1	0.399000
24.916667	1	0.393375
24.933333	1	0.387750
24.950000	1	0.382500
24.966667	1	0.377250
24.983333	1	0.371875
25.000000	1	0.367500
25.016667	1	0.363375
25.033333	1	0.359375
25.050000	1	0.355375
25.066667	1	0.351250
25.083333	1	0.347625
25.100000	1	0.343500
25.116667	1	0.339875
25.133333	1	0.336500
25.150000	1	0.333375
25.166667	1	0.329875
25.183333	1	0.326875
25.200000	1	0.324000
25.216667	1	0.321125
25.233333	1	0.317125
25.250000	1	0.314125
25.266667	1	0.311500
25.283333	1	0.308750
25.300000	1	0.306000
25.316667	1	0.303125
25.333333	1	0.300375
25.350000	1	0.298375
25.366667	1	0.297375
25.383333	1	0.295250
25.400000	1	0.293250
25.416667	1	0.291750
25.433333	1	0.290125
25.450000	1	0.288500
25.466667	1	0.287125
25.483333	1	0.286625
25.500000	1	0.285625
25.516667	1	0.284750
25.533333	1	0.283875
25.550000	1	0.283250
25.566667	1	0.283000
25.583333	1	0.282875
25.600000	1	0.283125
25.616667	1	0.282625
25.633333	1	0.282625
25.650000	1	0.282125
25.666667	1	0.282750
25.683333	1	0.282875
25.700000	1	0.282375
25.716667	1	0.281750
25.733333	1	0.281875
25.750000	1	0.281625
25.766667	1	0.281875
25.783333	1	0.282250
25.800000	1	0.283125
25.816667	1	0.283875
25.833333	1	0.285375
25.850000	1	0.286750
25.866667	1	0.288500
25.883333	1	0.290375
25.900000	1	0.293125
25.916667	1	0.295500
25.933333	1	0.298375
25.950000	1	0.301750
25.966667	1	0.305500
25.983333	1	0.310000
26.000000	1	0.314000
26.016667	1	0.319250
26.033333	1	0.325250
26.050000	1	0.330375
26.066667	1	0.336250
26.083333	1	0.342750
26.100000	1	0.349125
26.116667	1	0.355250
26.133333	1	0.361125
26.150000	1	0.367000
26.166667	1	0.372375
26.183333	1	0.377250
26.200000	1	0.382250
26.216667	1	0.386750
26.233333	1	0.390375
26.250000	1	0.394125
26.266667	1	0.397250
26.283333	1	0.399250
26.300000	1	0.401125
26.316667	1	0.401250
26.333333	1	0.401750
26.350000	1	0.400625
26.366667	1	0.398750
26.383333	1	0.396500
26.400000	1	0.392750
26.416667	1	0.388500
26.433333	1	0.383750
26.450000	1	0.378750
26.466667	1	0.373375
26.483333	1	0.367000
26.500000	1	0.361125
26.516667	1	0.354375
26.533333	1	0.347375
26.550000	1	0.339875
26.566667	1	0.331875
26.583333	1	0.324125
26.600000	1	0.316375
26.616667	1	0.309375
26.633333	1	0.302500
26.650000	1	0.295375
26.666667	1	0.287750
26.683333	1	0.280500
26.700000	1	0.273375
26.716667	1	0.267625
26.733333	1	0.260875
26.750000	1	0.254875
26.766667	1	0.248500
26.783333	1	0.243500
26.800000	1	0.238875
26.816667	1	0.234375
26.833333	1	0.230625
26.850000	1	0.227250
26.866667	1	0.224750
26.883333	1	0.221625
26.900000	1	0.218625
26.916667	1	0.216875
26.933333	1	0.215875
26.950000	1	0.214500
26.966667	1	0.213750
26.983333	1	0.213250
27.000000	1	0.213625
27.016667	1	0.214875
27.033333	1	0.217375
27.050000	1	0.219750
27.066667	1	0.223625
27.083333	1	0.227875
27.100000	1	0.234125
27.116667	1	0.240625
27.133333	1	0.248750
27.150000	1	0.258000
27.166667	1	0.268750
27.183333	1	0.281250
27.200000	1	0.295625
27.216667	1	0.312375
27.233333	1	0.331500
27.250000	1	0.353750
27.266667	1	0.379125
27.283333	1	0.408250
27.300000	1	0.442375
27.316667	1	0.480250
27.333333	1	0.523125
27.350000	1	0.571625
27.366667	1	0.626750
27.383333	1	0.688250
27.400000	1	0.757375
27.416667	1	0.834625
27.433333	1	0.920875
27.450000	1	1.015500
27.466667	1	1.119875
27.483333	1	1.233375
27.500000	1	1.357750
27.516667	1	1.492125
27.533333	1	1.636250
27.550000	1	1.789625
27.566667	1	1.951500
27.583333	1	2.121625
27.600000	1	2.299000
27.616667	1	2.481750
27.633333	1	2.669750
27.650000	1	2.859875
27.666667	1	3.049750
27.683333	1	3.237750
27.700000	1	3.421250
27.716667	1	3.597125
27.733333	1	3.762875
27.750000	1	3.916125
27.766667	1	4.054125
27.783333	1	4.173375
27.800000	1	4.272875
27.816667	1	4.350250
27.833333	1	4.404625
27.850000	1	4.433625
27.866667	1	4.436875
27.883333	1	4.414000
27.900000	1	4.366125
27.916667	1	4.293000
27.933333	1	4.195625
27.950000	1	4.076750
27.966667	1	3.938500
27.983333	1	3.783125
28.000000	1	3.614000
28.016667	1	3.433875
28.033333	1	3.244375
28.050000	1	3.050125
28.066667	1	2.853750
28.083333	1	2.656875
28.100000	1	2.462375
28.116667	1	2.272875
28.133333	1	2.090375
28.150000	1	1.916875
28.166667	1	1.752250
28.183333	1	1.597625
28.200000	1	1.455125
28.216667	1	1.323500
28.233333	1	1.202875
28.250000	1	1.093375
28.266667	1	0.995250
28.283333	1	0.906750
28.300000	1	0.827875
28.316667	1	0.759375
28.333333	1	0.699375
28.350000	1	0.647750
28.366667	1	0.603750
28.383333	1	0.566625
28.400000	1	0.535625
28.416667	1	0.510125
28.433333	1	0.490375
28.450000	1	0.475625
28.466667	1	0.465000
28.483333	1	0.457750
28.500000	1	0.453500
28.516667	1	0.452500
28.533333	1	0.453750
28.550000	1	0.457250
28.566667	1	0.463500
28.583333	1	0.471000
28.600000	1	0.479250
28.616667	1	0.488875
28.633333	1	0.500000
28.650000	1	0.511375
28.666667	1	0.522500
28.683333	1	0.534375
28.700000	1	0.545875
28.716667	1	0.557375
28.733333	1	0.568125
28.750000	1	0.578875
28.766667	1	0.588125
28.783333	1	0.597625
28.800000	1	0.605625
28.816667	1	0.612125
28.833333	1	0.618125
28.850000	1	0.623125
28.866667	1	0.627000
28.883333	1	0.629625
28.900000	1	0.630750
28.916667	1	0.630500
28.933333	1	0.629125
28.950000	1	0.626500
28.966667	1	0.623000
28.983333	1	0.618500
29.000000	1	0.612875
29.016667	1	0.605625
29.033333	1	0.597750
29.050000	1	0.588625
29.066667	1	0.578500
29.083333	1	0.567750
29.100000	1	0.556875
29.116667	1	0.544625
29.133333	1	0.531750
29.150000	1	0.519625
29.166667	1	0.506125
29.183333	1	0.492125
29.200000	1	0.478000
29.216667	1	0.464000
29.233333	1	0.450500
29.250000	1	0.437000
29.266667	1	0.423125
29.283333	1	0.409625
29.300000	1	0.395625
29.316667	1	0.382375
29.333333	1	0.369875
29.350000	1	0.357500
29.366667	1	0.345125
29.383333	1	0.332125
29.400000	1	0.320125
29.416667	1	0.309500
29.433333	1	0.298750
29.450000	1	0.287750
29.466667	1	0.277375
29.483333	1	0.267375
29.500000	1	0.258000
29.516667	1	0.248500
29.533333	1	0.239250
29.550000	1	0.230250
29.566667	1	0.222125
29.583333	1	0.214625
29.600000	1	0.207250
29.616667	1	0.200250
29.633333	1	0.193125
29.650000	1	0.186625
29.666667	1	0.180500
29.683333	1	0.174375
29.700000	1	0.169750
29.716667	1	0.164875
29.733333	1	0.160750
29.750000	1	0.156375
29.766667	1	0.152125
29.783333	1	0.148625
29.800000	1	0.145375
29.816667	1	0.143000
29.833333	1	0.140625
29.850000	1	0.137750
29.866667	1	0.136000
29.883333	1	0.134375
29.900000	1	0.132750
29.916667	1	0.131375
29.933333	1	0.130000
29.950000	1	0.128625
29.966667	1	0.127750
29.983333	1	0.126250
30.000000	1	0.125750
30.016667	1	0.124875
30.033333	1	0.123500
30.050000	1	0.123500
30.066667	1	0.122875
30.083333	1	0.122625
30.100000	1	0.122250
30.116667	1	0.121750
30.133333	1	0.121625
30.150000	1	0.121250
30.166667	1	0.120250
30.183333	1	0.120250
30.200000	1	0.120500
30.216667	1	0.120000
30.233333	1	0.119875
30.250000	1	0.119750
30.266667	1	0.119750
30.283333	1	0.120000
30.300000	1	0.120250
30.316667	1	0.120625
30.333333	1	0.120750
30.350000	1	0.121375
30.366667	1	0.121875
30.383333	1	0.123000
30.400000	1	0.124375
30.416667	1	0.126000
30.433333	1	0.127000
30.450000	1	0.128875
30.466667	1	0.130750
30.483333	1	0.132875
30.500000	1	0.135625
30.516667	1	0.138250
30.533333	1	0.141625
30.550000	1	0.145750
30.566667	1	0.149750
30.583333	1	0.154375
30.600000	1	0.159750
30.616667	1	0.165750
30.633333	1	0.171750
30.650000	1	0.177875
30.666667	1	0.184375
30.683333	1	0.191500
30.700000	1	0.198625
30.716667	1	0.206750
30.733333	1	0.215625
30.750000	1	0.224750
30.766667	1	0.234625
30.783333	1	0.244875
30.800000	1	0.255750
30.816667	1	0.266625
30.833333	1	0.278750
30.850000	1	0.291125
30.866667	1	0.303750
30.883333	1	0.318000
30.900000	1	0.332625
30.916667	1	0.348250
30.933333	1	0.364750
30.950000	1	0.381750
30.966667	1	0.400750
30.983333	1	0.421125
31.000000	1	0.443875
31.016667	1	0.468250
31.033333	1	0.494625
31.050000	1	0.522500
31.066667	1	0.552750
31.083333	1	0.585750
31.100000	1	0.621750
31.116667	1	0.660000
31.133333	1	0.701625
31.150000	1	0.746250
31.166667	1	0.793375
31.183333	1	0.843375
31.200000	1	0.897000
31.216667	1	0.953125
31.233333	1	1.011625
31.250000	1	1.073000
31.266667	1	1.135875
31.283333	1	1.200250
31.300000	1	1.265750
31.316667	1	1.332250
31.333333	1	1.397375
31.350000	1	1.462750
31.366667	1	1.527000
31.383333	1	1.588625
31.400000	1	1.646500
31.416667	1	1.700000
31.433333	1	1.750000
31.450000	1	1.795250
31.466667	1	1.834000
31.483333	1	1.866750
31.500000	1	1.892750
31.516667	1	1.911125
31.533333	1	1.921250
31.550000	1	1.923625
31.566667	1	1.918375
31.583333	1	1.905625
31.600000	1	1.884750
31.616667	1	1.856875
31.633333	1	1.821500
31.650000	1	1.780000
31.666667	1	1.732750
31.683333	1	1.680250
31.700000	1	1.622500
31.716667	1	1.562000
31.733333	1	1.499000
31.750000	1	1.433875
31.766667	1	1.366500
31.783333	1	1.298250
31.800000	1	1.230125
31.816667	1	1.162250
31.833333	1	1.095000
31.850000	1	1.029875
31.866667	1	0.966000
31.883333	1	0.904500
31.900000	1	0.845875
31.916667	1	0.790625
31.933333	1	0.738125
31.950000	1	0.689125
31.966667	1	0.643375
31.983333	1	0.599625
32.000000	1	0.559750
32.016667	1	0.522875
32.033333	1	0.489375
32.050000	1	0.458000
32.066667	1	0.428750
32.083333	1	0.402875
32.100000	1	0.379000
32.116667	1	0.357375
32.133333	1	0.337625
32.150000	1	0.320250
32.166667	1	0.303875
32.183333	1	0.288125
32.200000	1	0.274250
32.216667	1	0.260625
32.233333	1	0.247875
32.250000	1	0.236375
32.266667	1	0.225000
32.283333	1	0.214875
32.300000	1	0.205125
32.316667	1	0.195125
32.333333	1	0.186125
32.350000	1	0.176375
32.366667	1	0.167625
32.383333	1	0.159625
32.400000	1	0.151375
32.416667	1	0.143500
32.433333	1	0.135500
32.450000	1	0.128625
32.466667	1	0.122375
32.483333	1	0.115750
32.500000	1	0.109125
32.516667	1	0.103375
32.533333	1	0.097500
32.550000	1	0.092125
32.566667	1	0.087375
32.583333	1	0.082500
32.600000	1	0.077750
32.616667	1	0.073375
32.633333	1	0.069625
32.650000	1	0.065250
32.666667	1	0.061750
32.683333	1	0.057750
32.700000	1	0.054875
32.716667	1	0.051750
32.733333	1	0.048750
32.750000	1	0.047125
32.766667	1	0.045500
32.783333	1	0.043750
32.800000	1	0.042750
32.816667	1	0.041875
32.833333	1	0.040750
32.850000	1	0.040000
32.866667	1	0.039375
32.883333	1	0.039250
32.900000	1	0.039000
32.916667	1	0.039375
32.933333	1	0.039875
32.950000	1	0.041000
32.966667	1	0.042250
32.983333	1	0.043375
33.000000	1	0.044375
33.016667	1	0.045750
33.033333	1	0.047625
33.050000	1	0.048875
33.066667	1	0.050250
33.083333	1	0.052125
33.100000	1	0.053875
33.116667	1	0.056125
33.133333	1	0.058250
33.150000	1	0.060500
33.166667	1	0.063500
33.183333	1	0.066750
33.200000	1	0.069875
33.216667	1	0.073375
33.233333	1	0.076875
33.250000	1	0.080875
33.266667	1	0.085125
33.283333	1	0.090500
33.300000	1	0.096625
33.316667	1	0.103000
33.333333	1	0.109625
33.350000	1	0.117750
33.366667	1	0.127375
33.383333	1	0.137125
33.400000	1	0.147750
33.416667	1	0.160250
33.433333	1	0.174375
33.450000	1	0.189875
33.466667	1	0.207500
33.483333	1	0.226000
33.500000	1	0.247500
33.516667	1	0.270500
33.533333	1	0.295750
33.550000	1	0.324125
33.566667	1	0.354500
33.583333	1	0.387375
33.600000	1	0.423500
33.616667	1	0.461875
33.633333	1	0.503000
33.650000	1	0.546375
33.666667	1	0.592750
33.683333	1	0.641500
33.700000	1	0.691750
33.716667	1	0.745125
33.733333	1	0.800500
33.750000	1	0.857625
33.766667	1	0.915625
33.783333	1	0.974750
33.800000	1	1.035000
33.816667	1	1.095000
33.833333	1	1.154375
33.850000	1	1.213125
33.866667	1	1.270625
33.883333	1	1.326000
33.900000	1	1.378250
33.916667	1	1.427125
33.933333	1	1.472875
33.950000	1	1.513750
33.966667	1	1.550500
33.983333	1	1.582250
34.000000	1	1.609000
34.016667	1	1.629000
34.033333	1	1.642875
34.050000	1	1.651250
34.066667	1	1.653875
34.083333	1	1.650000
34.100000	1	1.640500
34.116667	1	1.624750
34.133333	1	1.604375
34.150000	1	1.577875
34.166667	1	1.545875
34.183333	1	1.509625
34.200000	1	1.469875
34.216667	1	1.426250
34.233333	1	1.379875
34.250000	1	1.330750
34.266667	1	1.280250
34.283333	1	1.227500
34.300000	1	1.173500
34.316667	1	1.120000
34.333333	1	1.066000
34.350000	1	1.013250
34.366667	1	0.960625
34.383333	1	0.908750
34.400000	1	0.858625
34.416667	1	0.810125
34.433333	1	0.763625
34.450000	1	0.719000
34.466667	1	0.677125
34.483333	1	0.637875
34.500000	1	0.600500
34.516667	1	0.565500
34.533333	1	0.532625
34.550000	1	0.502000
34.566667	1	0.474000
34.583333	1	0.448375
34.600000	1	0.424625
34.616667	1	0.401875
34.633333	1	0.382250
34.650000	1	0.364125
34.666667	1	0.347750
34.683333	1	0.332625
34.700000	1	0.319125
34.716667	1	0.306000
34.733333	1	0.294750
34.750000	1	0.284375
34.766667	1	0.275125
34.783333	1	0.267000
34.800000	1	0.260000
34.816667	1	0.252875
34.833333	1	0.246000
34.850000	1	0.239500
34.866667	1	0.234250
34.883333	1	0.229375
34.900000	1	0.224375
34.916667	1	0.219500
34.933333	1	0.215125
34.950000	1	0.211500
34.966667	1	0.207875
34.983333	1	0.204500
35.000000	1	0.200500
35.016667	1	0.196500
35.033333	1	0.193125
35.050000	1	0.190000
35.066667	1	0.186625
35.083333	1	0.183625
35.100000	1	0.180500
35.116667	1	0.178000
35.133333	1	0.175000
35.150000	1	0.171750
35.166667	1	0.168750
35.183333	1	0.166250
35.200000	1	0.163625
35.216667	1	0.160750
35.233333	1	0.158000
35.250000	1	0.155250
35.266667	1	0.153375
35.283333	1	0.151375
35.300000	1	0.149500
35.316667	1	0.148000
35.333333	1	0.145625
35.350000	1	0.144000
35.366667	1	0.142125
35.383333	1	0.140375
35.400000	1	0.139875
35.416667	1	0.138750
35.433333	1	0.137750
35.450000	1	0.136750
35.466667	1	0.136375
35.483333	1	0.135500
35.500000	1	0.135250
35.516667	1	0.134875
35.533333	1	0.134625
35.550000	1	0.134625
35.566667	1	0.134500
35.583333	1	0.136000
35.600000	1	0.136375
35.616667	1	0.137375
35.633333	1	0.138125
35.650000	1	0.138500
35.666667	1	0.139125
35.683333	1	0.139625
35.700000	1	0.140500
35.716667	1	0.142000
35.733333	1	0.143000
35.750000	1	0.144250
35.766667	1	0.145250
35.783333	1	0.146125
35.800000	1	0.147625
35.816667	1	0.148750
35.833333	1	0.150250
35.850000	1	0.151375
35.866667	1	0.152375
35.883333	1	0.153875
35.900000	1	0.155000
35.916667	1	0.155625
35.933333	1	0.156500
35.950000	1	0.156875
35.966667	1	0.157875
35.983333	1	0.158500
36.000000	1	0.160125
36.016667	1	0.161000
36.033333	1	0.161000
36.050000	1	0.161125
36.066667	1	0.161750
36.083333	1	0.163000
36.100000	1	0.163000
36.116667	1	0.163625
36.133333	1	0.164250
36.150000	1	0.164375
36.166667	1	0.165750
36.183333	1	0.166375
36.200000	1	0.167000
36.216667	1	0.166750
36.233333	1	0.167125
36.250000	1	0.167875
36.266667	1	0.168875
36.283333	1	0.169250
36.300000	1	0.169500
36.316667	1	0.170250
36.333333	1	0.170875
36.350000	1	0.171250
36.366667	1	0.171625
36.383333	1	0.171500
36.400000	1	0.172000
36.416667	1	0.172000
36.433333	1	0.171625
36.450000	1	0.171500
36.466667	1	0.171125
36.483333	1	0.170375
36.500000	1	0.170125
36.516667	1	0.169750
36.533333	1	0.168250
36.550000	1	0.166250
36.566667	1	0.164500
36.583333	1	0.162750
36.600000	1	0.160875
36.616667	1	0.158875
36.633333	1	0.155500
36.650000	1	0.153125
36.666667	1	0.150875
36.683333	1	0.148500
36.700000	1	0.145625
36.716667	1	0.143125
36.733333	1	0.140500
36.750000	1	0.137875
36.766667	1	0.134750
36.783333	1	0.131625
36.800000	1	0.128500
36.816667	1	0.125625
36.833333	1	0.123000
36.850000	1	0.120250
36.866667	1	0.117250
36.883333	1	0.115375
36.900000	1	0.113375
36.916667	1	0.111375
36.933333	1	0.109500
36.950000	1	0.107875
36.966667	1	0.105750
36.983333	1	0.103750
37.000000	1	0.101875
37.016667	1	0.100250
37.033333	1	0.099000
37.050000	1	0.098250
37.066667	1	0.097250
37.083333	1	0.096500
37.100000	1	0.095875
37.116667	1	0.095250
37.133333	1	0.094125
37.150000	1	0.094000
37.166667	1	0.093500
37.183333	1	0.093500
37.200000	1	0.093000
37.216667	1	0.092750
37.233333	1	0.092500
37.250000	1	0.092125
37.266667	1	0.093125
37.283333	1	0.093250
37.300000	1	0.093750
37.316667	1	0.093500
37.333333	1	0.093875
37.350000	1	0.094375
37.366667	1	0.094875
37.383333	1	0.095375
37.400000	1	0.096250
37.416667	1	0.096375
37.433333	1	0.096625
37.450000	1	0.096375
37.466667	1	0.096375
37.483333	1	0.097125
37.500000	1	0.098000
37.516667	1	0.098000
37.533333	1	0.098500
37.550000	1	0.099250
37.566667	1	0.099500
37.583333	1	0.099250
37.600000	1	0.099500
37.616667	1	0.099625
37.633333	1	0.100375
37.650000	1	0.100000
37.666667	1	0.100500
37.683333	1	0.100625
37.700000	1	0.101000
37.716667	1	0.101125
37.733333	1	0.101625
37.750000	1	0.101750
37.766667	1	0.101750
37.783333	1	0.101625
37.800000	1	0.101750
37.816667	1	0.101500
37.833333	1	0.101875
37.850000	1	0.102000
37.866667	1	0.102750
37.883333	1	0.102750
37.900000	1	0.103125
37.916667	1	0.103250
37.933333	1	0.103875
37.950000	1	0.104250
37.966667	1	0.104750
37.983333	1	0.105125
38.000000	1	0.105875
38.016667	1	0.106625
38.033333	1	0.107500
38.050000	1	0.108500
38.066667	1	0.108875
38.083333	1	0.110250
38.100000	1	0.110375
38.116667	1	0.111500
38.133333	1	0.112625
38.150000	1	0.114500
38.166667	1	0.115750
38.183333	1	0.116750
38.200000	1	0.117500
38.216667	1	0.117875
38.233333	1	0.120125
38.250000	1	0.121250
38.266667	1	0.122000
38.283333	1	0.122625
38.300000	1	0.123875
38.316667	1	0.124250
38.333333	1	0.125250
38.350000	1	0.125875
38.366667	1	0.125875
38.383333	1	0.125750
38.400000	1	0.125875
38.416667	1	0.126250
38.433333	1	0.126375
38.450000	1	0.126500
38.466667	1	0.126375
38.483333	1	0.126375
38.500000	1	0.125875
38.516667	1	0.125500
38.533333	1	0.125125
38.550000	1	0.124375
38.566667	1	0.123750
38.583333	1	0.122750
38.600000	1	0.122250
38.616667	1	0.121750
38.633333	1	0.120750
38.650000	1	0.120000
38.666667	1	0.119375
38.683333	1	0.118250
38.700000	1	0.117750
38.716667	1	0.117000
38.733333	1	0.116625
38.750000	1	0.115875
38.766667	1	0.115000
38.783333	1	0.114250
38.800000	1	0.113250
38.816667	1	0.112375
38.833333	1	0.111875
38.850000	1	0.111375
38.866667	1	0.110375
38.883333	1	0.110000
38.900000	1	0.109125
38.916667	1	0.108125
38.933333	1	0.107750
38.950000	1	0.106750
38.966667	1	0.105625
38.983333	1	0.104875
39.000000	1	0.104125
39.016667	1	0.103250
39.033333	1	0.102625
39.050000	1	0.101625
39.066667	1	0.100875
39.083333	1	0.099500
39.100000	1	0.098500
39.116667	1	0.097000
39.133333	1	0.095625
39.150000	1	0.095125
39.166667	1	0.094000
39.183333	1	0.092250
39.200000	1	0.091375
39.216667	1	0.090625
39.233333	1	0.089625
39.250000	1	0.088750
39.266667	1	0.087875
39.283333	1	0.087375
39.300000	1	0.087000
39.316667	1	0.086625
39.333333	1	0.085750
39.350000	1	0.085125
39.366667	1	0.084500
39.383333	1	0.084125
39.400000	1	0.083875
39.416667	1	0.083500
39.433333	1	0.083125
39.450000	1	0.082625
39.466667	1	0.082250
39.483333	1	0.082000
39.500000	1	0.081875
39.516667	1	0.082375
39.533333	1	0.082500
39.550000	1	0.083000
39.566667	1	0.083000
39.583333	1	0.082875
39.600000	1	0.083375
39.616667	1	0.084875
39.633333	1	0.085500
39.650000	1	0.086500
39.666667	1	0.087500
39.683333	1	0.088375
39.700000	1	0.089875
39.716667	1	0.091000
39.733333	1	0.092375
39.750000	1	0.093250
39.766667	1	0.094375
39.783333	1	0.095750
39.800000	1	0.097250
39.816667	1	0.098500
39.833333	1	0.100000
39.850000	1	0.101250
39.866667	1	0.102750
39.883333	1	0.104375
39.900000	1	0.104875
39.916667	1	0.106875
39.933333	1	0.108250
39.950000	1	0.109500
39.966667	1	0.110375
39.983333	1	0.111125
40.000000	1	0.112000
