URL	chrom://bioreactor/micro_cm7/HPLC_Ultimate_3000/Users/markusar/20240708_MA_pHrange1.seq/873.smp/RI_1.channel/RI_1.chm
Channel	RI_1

Injection Information:
Data Vault	micro_cm7
Sequence	20240708_MA_pHrange1
Name	Fp3_6.5_2
Number	56
Position	BE10
Comment	
Processing Method	
Instrument Method	run_25B_method
Type	Unknown
Status	Finished
Inject Time	10.07.2024 05:07:59 +02:00
Volume (µl)	20.0000
Dilution Factor	1.0000
Weight	1.0000

Chromatogram Data Information:
Time Min. (min)	0.000000
Time Max. (min)	40.000000
Data Points	2401
Detector	RI
Generating Data System	Chromeleon 7.3.2.11814
Exporting Data System	Chromeleon 7.3.2.0
Operator	Instrument Controller
Signal Quantity	Refractive 
Signal Unit	µRIU
Signal Min.	-0.055375
Signal Max.	83.408375
Channel	RI_1
Driver Name	RID520Driver.dll
Channel Type	Evaluation
Min. Step (s)	1
Max. Step (s)	1
Average Step (s)	1

Signal Parameter Information:
Signal Info	

Chromatogram Data:
Time (min)	Step (s)	Value (µRIU)
0.000000	n.a.	-0.039875
0.016667	1	-0.040875
0.033333	1	-0.042250
0.050000	1	-0.043500
0.066667	1	-0.043875
0.083333	1	-0.045125
0.100000	1	-0.046000
0.116667	1	-0.046500
0.133333	1	-0.047000
0.150000	1	-0.046875
0.166667	1	-0.047125
0.183333	1	-0.047375
0.200000	1	-0.047375
0.216667	1	-0.048000
0.233333	1	-0.048125
0.250000	1	-0.048125
0.266667	1	-0.047750
0.283333	1	-0.046875
0.300000	1	-0.047000
0.316667	1	-0.046875
0.333333	1	-0.046625
0.350000	1	-0.045750
0.366667	1	-0.045375
0.383333	1	-0.045625
0.400000	1	-0.045125
0.416667	1	-0.044375
0.433333	1	-0.042250
0.450000	1	-0.039750
0.466667	1	-0.037625
0.483333	1	-0.035250
0.500000	1	-0.033750
0.516667	1	-0.032625
0.533333	1	-0.031750
0.550000	1	-0.031125
0.566667	1	-0.030875
0.583333	1	-0.032375
0.600000	1	-0.033625
0.616667	1	-0.035125
0.633333	1	-0.037125
0.650000	1	-0.037625
0.666667	1	-0.038375
0.683333	1	-0.038750
0.700000	1	-0.039500
0.716667	1	-0.039625
0.733333	1	-0.040500
0.750000	1	-0.041625
0.766667	1	-0.042625
0.783333	1	-0.043500
0.800000	1	-0.044000
0.816667	1	-0.044250
0.833333	1	-0.044625
0.850000	1	-0.045500
0.866667	1	-0.046625
0.883333	1	-0.047375
0.900000	1	-0.048250
0.916667	1	-0.049375
0.933333	1	-0.050125
0.950000	1	-0.050875
0.966667	1	-0.052125
0.983333	1	-0.052625
1.000000	1	-0.053250
1.016667	1	-0.053875
1.033333	1	-0.053375
1.050000	1	-0.053625
1.066667	1	-0.054000
1.083333	1	-0.054125
1.100000	1	-0.055000
1.116667	1	-0.054500
1.133333	1	-0.054500
1.150000	1	-0.055125
1.166667	1	-0.055125
1.183333	1	-0.055125
1.200000	1	-0.055375
1.216667	1	-0.054875
1.233333	1	-0.055375
1.250000	1	-0.054750
1.266667	1	-0.054875
1.283333	1	-0.055375
1.300000	1	-0.055375
1.316667	1	-0.055125
1.333333	1	-0.055000
1.350000	1	-0.055000
1.366667	1	-0.054875
1.383333	1	-0.054625
1.400000	1	-0.053625
1.416667	1	-0.053000
1.433333	1	-0.052875
1.450000	1	-0.052250
1.466667	1	-0.051375
1.483333	1	-0.051750
1.500000	1	-0.051375
1.516667	1	-0.050875
1.533333	1	-0.050625
1.550000	1	-0.049750
1.566667	1	-0.049000
1.583333	1	-0.048875
1.600000	1	-0.048375
1.616667	1	-0.048000
1.633333	1	-0.047250
1.650000	1	-0.046500
1.666667	1	-0.045500
1.683333	1	-0.044500
1.700000	1	-0.043875
1.716667	1	-0.043125
1.733333	1	-0.042875
1.750000	1	-0.041875
1.766667	1	-0.041000
1.783333	1	-0.039750
1.800000	1	-0.039375
1.816667	1	-0.038500
1.833333	1	-0.037875
1.850000	1	-0.037125
1.866667	1	-0.037125
1.883333	1	-0.036125
1.900000	1	-0.035875
1.916667	1	-0.035250
1.933333	1	-0.034500
1.950000	1	-0.033750
1.966667	1	-0.033625
1.983333	1	-0.033500
2.000000	1	-0.033875
2.016667	1	-0.033750
2.033333	1	-0.033875
2.050000	1	-0.034000
2.066667	1	-0.034000
2.083333	1	-0.034250
2.100000	1	-0.034500
2.116667	1	-0.035500
2.133333	1	-0.035750
2.150000	1	-0.035625
2.166667	1	-0.035875
2.183333	1	-0.037000
2.200000	1	-0.037750
2.216667	1	-0.038250
2.233333	1	-0.038750
2.250000	1	-0.039125
2.266667	1	-0.039875
2.283333	1	-0.040875
2.300000	1	-0.041500
2.316667	1	-0.041750
2.333333	1	-0.042625
2.350000	1	-0.043125
2.366667	1	-0.044375
2.383333	1	-0.044125
2.400000	1	-0.044250
2.416667	1	-0.044375
2.433333	1	-0.044375
2.450000	1	-0.044375
2.466667	1	-0.044625
2.483333	1	-0.043500
2.500000	1	-0.044000
2.516667	1	-0.044125
2.533333	1	-0.044000
2.550000	1	-0.044000
2.566667	1	-0.043750
2.583333	1	-0.043375
2.600000	1	-0.042625
2.616667	1	-0.041750
2.633333	1	-0.041250
2.650000	1	-0.041000
2.666667	1	-0.040375
2.683333	1	-0.040250
2.700000	1	-0.040000
2.716667	1	-0.040250
2.733333	1	-0.040125
2.750000	1	-0.040000
2.766667	1	-0.039500
2.783333	1	-0.039125
2.800000	1	-0.039000
2.816667	1	-0.039000
2.833333	1	-0.038375
2.850000	1	-0.037750
2.866667	1	-0.037625
2.883333	1	-0.037500
2.900000	1	-0.037625
2.916667	1	-0.037250
2.933333	1	-0.037625
2.950000	1	-0.038500
2.966667	1	-0.038625
2.983333	1	-0.038125
3.000000	1	-0.038500
3.016667	1	-0.038875
3.033333	1	-0.038750
3.050000	1	-0.038625
3.066667	1	-0.038625
3.083333	1	-0.038875
3.100000	1	-0.039250
3.116667	1	-0.038625
3.133333	1	-0.037875
3.150000	1	-0.037875
3.166667	1	-0.037375
3.183333	1	-0.036125
3.200000	1	-0.035625
3.216667	1	-0.035500
3.233333	1	-0.035875
3.250000	1	-0.035125
3.266667	1	-0.034000
3.283333	1	-0.033250
3.300000	1	-0.033000
3.316667	1	-0.032375
3.333333	1	-0.031375
3.350000	1	-0.030750
3.366667	1	-0.029750
3.383333	1	-0.029250
3.400000	1	-0.027875
3.416667	1	-0.027250
3.433333	1	-0.026875
3.450000	1	-0.025750
3.466667	1	-0.025000
3.483333	1	-0.024125
3.500000	1	-0.023375
3.516667	1	-0.023375
3.533333	1	-0.023750
3.550000	1	-0.023750
3.566667	1	-0.023750
3.583333	1	-0.023250
3.600000	1	-0.023500
3.616667	1	-0.023500
3.633333	1	-0.023375
3.650000	1	-0.023375
3.666667	1	-0.023250
3.683333	1	-0.022625
3.700000	1	-0.022125
3.716667	1	-0.021875
3.733333	1	-0.021875
3.750000	1	-0.021250
3.766667	1	-0.020875
3.783333	1	-0.019500
3.800000	1	-0.018750
3.816667	1	-0.017375
3.833333	1	-0.016000
3.850000	1	-0.014750
3.866667	1	-0.013000
3.883333	1	-0.011625
3.900000	1	-0.010250
3.916667	1	-0.008625
3.933333	1	-0.007500
3.950000	1	-0.005750
3.966667	1	-0.003375
3.983333	1	-0.001125
4.000000	1	0.001500
4.016667	1	0.003750
4.033333	1	0.006750
4.050000	1	0.009000
4.066667	1	0.011500
4.083333	1	0.013500
4.100000	1	0.016125
4.116667	1	0.018375
4.133333	1	0.021375
4.150000	1	0.024125
4.166667	1	0.026750
4.183333	1	0.028750
4.200000	1	0.031250
4.216667	1	0.033125
4.233333	1	0.035875
4.250000	1	0.038625
4.266667	1	0.041000
4.283333	1	0.042875
4.300000	1	0.044500
4.316667	1	0.046625
4.333333	1	0.048875
4.350000	1	0.050625
4.366667	1	0.053625
4.383333	1	0.056375
4.400000	1	0.058625
4.416667	1	0.060500
4.433333	1	0.062125
4.450000	1	0.064000
4.466667	1	0.065750
4.483333	1	0.067500
4.500000	1	0.069625
4.516667	1	0.071750
4.533333	1	0.072500
4.550000	1	0.073250
4.566667	1	0.074375
4.583333	1	0.075750
4.600000	1	0.076750
4.616667	1	0.078375
4.633333	1	0.079625
4.650000	1	0.080875
4.666667	1	0.081375
4.683333	1	0.082000
4.700000	1	0.082875
4.716667	1	0.083000
4.733333	1	0.083625
4.750000	1	0.084375
4.766667	1	0.085625
4.783333	1	0.086375
4.800000	1	0.087750
4.816667	1	0.088375
4.833333	1	0.089000
4.850000	1	0.090000
4.866667	1	0.091250
4.883333	1	0.092750
4.900000	1	0.093750
4.916667	1	0.095000
4.933333	1	0.096000
4.950000	1	0.096875
4.966667	1	0.098500
4.983333	1	0.099625
5.000000	1	0.101000
5.016667	1	0.103875
5.033333	1	0.105625
5.050000	1	0.107125
5.066667	1	0.108500
5.083333	1	0.110250
5.100000	1	0.112000
5.116667	1	0.114000
5.133333	1	0.116250
5.150000	1	0.118500
5.166667	1	0.121500
5.183333	1	0.124500
5.200000	1	0.127500
5.216667	1	0.130125
5.233333	1	0.132875
5.250000	1	0.135750
5.266667	1	0.138000
5.283333	1	0.141250
5.300000	1	0.144250
5.316667	1	0.146875
5.333333	1	0.149625
5.350000	1	0.152500
5.366667	1	0.154750
5.383333	1	0.157625
5.400000	1	0.160250
5.416667	1	0.162625
5.433333	1	0.164750
5.450000	1	0.166750
5.466667	1	0.168500
5.483333	1	0.170250
5.500000	1	0.171375
5.516667	1	0.172500
5.533333	1	0.173625
5.550000	1	0.174125
5.566667	1	0.174750
5.583333	1	0.174750
5.600000	1	0.174750
5.616667	1	0.174375
5.633333	1	0.173375
5.650000	1	0.172625
5.666667	1	0.171750
5.683333	1	0.170500
5.700000	1	0.169000
5.716667	1	0.167500
5.733333	1	0.165625
5.750000	1	0.163375
5.766667	1	0.161500
5.783333	1	0.159250
5.800000	1	0.156625
5.816667	1	0.153875
5.833333	1	0.150500
5.850000	1	0.147625
5.866667	1	0.144625
5.883333	1	0.141375
5.900000	1	0.137750
5.916667	1	0.135000
5.933333	1	0.131750
5.950000	1	0.128875
5.966667	1	0.125750
5.983333	1	0.121625
6.000000	1	0.117625
6.016667	1	0.114375
6.033333	1	0.111000
6.050000	1	0.108125
6.066667	1	0.104250
6.083333	1	0.100625
6.100000	1	0.097375
6.116667	1	0.094625
6.133333	1	0.091375
6.150000	1	0.087750
6.166667	1	0.085125
6.183333	1	0.082000
6.200000	1	0.078625
6.216667	1	0.075750
6.233333	1	0.072500
6.250000	1	0.069125
6.266667	1	0.066250
6.283333	1	0.063375
6.300000	1	0.060500
6.316667	1	0.057625
6.333333	1	0.054875
6.350000	1	0.052250
6.366667	1	0.050125
6.383333	1	0.047875
6.400000	1	0.045125
6.416667	1	0.043125
6.433333	1	0.041375
6.450000	1	0.039125
6.466667	1	0.037625
6.483333	1	0.036500
6.500000	1	0.035000
6.516667	1	0.033500
6.533333	1	0.032750
6.550000	1	0.032000
6.566667	1	0.031625
6.583333	1	0.031000
6.600000	1	0.030375
6.616667	1	0.029750
6.633333	1	0.029625
6.650000	1	0.029250
6.666667	1	0.028875
6.683333	1	0.028875
6.700000	1	0.028750
6.716667	1	0.029125
6.733333	1	0.029625
6.750000	1	0.031000
6.766667	1	0.031500
6.783333	1	0.032625
6.800000	1	0.034000
6.816667	1	0.034250
6.833333	1	0.035125
6.850000	1	0.036500
6.866667	1	0.038250
6.883333	1	0.039875
6.900000	1	0.041625
6.916667	1	0.043250
6.933333	1	0.044875
6.950000	1	0.046750
6.966667	1	0.048750
6.983333	1	0.050500
7.000000	1	0.052250
7.016667	1	0.054500
7.033333	1	0.056625
7.050000	1	0.058625
7.066667	1	0.060750
7.083333	1	0.062500
7.100000	1	0.064375
7.116667	1	0.066750
7.133333	1	0.068750
7.150000	1	0.070500
7.166667	1	0.072875
7.183333	1	0.075125
7.200000	1	0.076875
7.216667	1	0.078250
7.233333	1	0.079500
7.250000	1	0.080625
7.266667	1	0.080625
7.283333	1	0.081750
7.300000	1	0.081875
7.316667	1	0.081875
7.333333	1	0.082000
7.350000	1	0.081375
7.366667	1	0.080625
7.383333	1	0.079875
7.400000	1	0.078375
7.416667	1	0.076750
7.433333	1	0.075250
7.450000	1	0.073125
7.466667	1	0.070625
7.483333	1	0.067375
7.500000	1	0.064250
7.516667	1	0.061750
7.533333	1	0.058625
7.550000	1	0.055000
7.566667	1	0.050625
7.583333	1	0.047875
7.600000	1	0.043875
7.616667	1	0.039875
7.633333	1	0.036375
7.650000	1	0.031875
7.666667	1	0.027750
7.683333	1	0.023875
7.700000	1	0.020375
7.716667	1	0.017000
7.733333	1	0.013000
7.750000	1	0.009625
7.766667	1	0.006625
7.783333	1	0.003000
7.800000	1	0.000000
7.816667	1	-0.002500
7.833333	1	-0.005500
7.850000	1	-0.008375
7.866667	1	-0.011500
7.883333	1	-0.013875
7.900000	1	-0.015875
7.916667	1	-0.018625
7.933333	1	-0.020500
7.950000	1	-0.022500
7.966667	1	-0.023875
7.983333	1	-0.025625
8.000000	1	-0.027000
8.016667	1	-0.028750
8.033333	1	-0.030375
8.050000	1	-0.031625
8.066667	1	-0.032750
8.083333	1	-0.033875
8.100000	1	-0.035000
8.116667	1	-0.037000
8.133333	1	-0.037625
8.150000	1	-0.038250
8.166667	1	-0.039750
8.183333	1	-0.040625
8.200000	1	-0.041750
8.216667	1	-0.042250
8.233333	1	-0.043000
8.250000	1	-0.044000
8.266667	1	-0.044875
8.283333	1	-0.045625
8.300000	1	-0.046250
8.316667	1	-0.046250
8.333333	1	-0.046375
8.350000	1	-0.046625
8.366667	1	-0.046750
8.383333	1	-0.046750
8.400000	1	-0.047250
8.416667	1	-0.047625
8.433333	1	-0.047875
8.450000	1	-0.047875
8.466667	1	-0.048250
8.483333	1	-0.048000
8.500000	1	-0.048000
8.516667	1	-0.047750
8.533333	1	-0.047625
8.550000	1	-0.047875
8.566667	1	-0.047875
8.583333	1	-0.048125
8.600000	1	-0.047750
8.616667	1	-0.048875
8.633333	1	-0.049250
8.650000	1	-0.049750
8.666667	1	-0.050000
8.683333	1	-0.050875
8.700000	1	-0.050750
8.716667	1	-0.051250
8.733333	1	-0.051250
8.750000	1	-0.051125
8.766667	1	-0.051375
8.783333	1	-0.051500
8.800000	1	-0.051625
8.816667	1	-0.051000
8.833333	1	-0.052000
8.850000	1	-0.051500
8.866667	1	-0.051500
8.883333	1	-0.051625
8.900000	1	-0.051125
8.916667	1	-0.050875
8.933333	1	-0.050125
8.950000	1	-0.049000
8.966667	1	-0.047750
8.983333	1	-0.046500
9.000000	1	-0.044875
9.016667	1	-0.043750
9.033333	1	-0.042000
9.050000	1	-0.039625
9.066667	1	-0.037500
9.083333	1	-0.035250
9.100000	1	-0.033125
9.116667	1	-0.030875
9.133333	1	-0.028250
9.150000	1	-0.025500
9.166667	1	-0.023250
9.183333	1	-0.020750
9.200000	1	-0.018750
9.216667	1	-0.015875
9.233333	1	-0.013500
9.250000	1	-0.011750
9.266667	1	-0.009500
9.283333	1	-0.007250
9.300000	1	-0.006625
9.316667	1	-0.004625
9.333333	1	-0.002500
9.350000	1	-0.000375
9.366667	1	0.001000
9.383333	1	0.002375
9.400000	1	0.003250
9.416667	1	0.004500
9.433333	1	0.005000
9.450000	1	0.005125
9.466667	1	0.004750
9.483333	1	0.005125
9.500000	1	0.005625
9.516667	1	0.005000
9.533333	1	0.004625
9.550000	1	0.003875
9.566667	1	0.002625
9.583333	1	0.001625
9.600000	1	0.000000
9.616667	1	-0.001125
9.633333	1	-0.002625
9.650000	1	-0.004125
9.666667	1	-0.005750
9.683333	1	-0.007500
9.700000	1	-0.009125
9.716667	1	-0.010500
9.733333	1	-0.012375
9.750000	1	-0.014625
9.766667	1	-0.016250
9.783333	1	-0.018125
9.800000	1	-0.020375
9.816667	1	-0.022500
9.833333	1	-0.023875
9.850000	1	-0.025625
9.866667	1	-0.027125
9.883333	1	-0.029250
9.900000	1	-0.030625
9.916667	1	-0.031875
9.933333	1	-0.033875
9.950000	1	-0.035375
9.966667	1	-0.037375
9.983333	1	-0.039250
10.000000	1	-0.040875
10.016667	1	-0.041875
10.033333	1	-0.042375
10.050000	1	-0.043500
10.066667	1	-0.043625
10.083333	1	-0.043125
10.100000	1	-0.042125
10.116667	1	-0.040375
10.133333	1	-0.037500
10.150000	1	-0.033875
10.166667	1	-0.028875
10.183333	1	-0.022875
10.200000	1	-0.015875
10.216667	1	-0.006750
10.233333	1	0.003625
10.250000	1	0.016250
10.266667	1	0.031250
10.283333	1	0.048625
10.300000	1	0.067625
10.316667	1	0.089500
10.333333	1	0.113625
10.350000	1	0.139750
10.366667	1	0.167500
10.383333	1	0.194125
10.400000	1	0.217625
10.416667	1	0.235250
10.433333	1	0.244875
10.450000	1	0.246375
10.466667	1	0.241750
10.483333	1	0.238500
10.500000	1	0.248500
10.516667	1	0.293750
10.533333	1	0.403875
10.550000	1	0.619500
10.566667	1	0.990875
10.583333	1	1.573750
10.600000	1	2.427625
10.616667	1	3.606250
10.633333	1	5.154750
10.650000	1	7.102375
10.666667	1	9.469500
10.683333	1	12.257875
10.700000	1	15.456500
10.716667	1	19.033250
10.733333	1	22.940250
10.750000	1	27.102250
10.766667	1	31.410750
10.783333	1	35.724375
10.800000	1	39.847000
10.816667	1	43.519500
10.833333	1	46.423875
10.850000	1	48.225250
10.866667	1	48.632500
10.883333	1	47.484125
10.900000	1	44.822750
10.916667	1	40.913500
10.933333	1	36.181250
10.950000	1	31.105000
10.966667	1	26.108250
10.983333	1	21.492875
11.000000	1	17.432625
11.016667	1	13.992500
11.033333	1	11.163625
11.050000	1	8.891000
11.066667	1	7.098500
11.083333	1	5.703625
11.100000	1	4.629250
11.116667	1	3.809500
11.133333	1	3.184875
11.150000	1	2.709250
11.166667	1	2.347125
11.183333	1	2.069625
11.200000	1	1.858125
11.216667	1	1.695250
11.233333	1	1.568250
11.250000	1	1.469375
11.266667	1	1.390625
11.283333	1	1.326500
11.300000	1	1.273125
11.316667	1	1.227250
11.333333	1	1.186625
11.350000	1	1.149000
11.366667	1	1.113625
11.383333	1	1.080625
11.400000	1	1.049375
11.416667	1	1.021000
11.433333	1	0.994625
11.450000	1	0.970875
11.466667	1	0.950250
11.483333	1	0.932750
11.500000	1	0.917875
11.516667	1	0.906875
11.533333	1	0.899125
11.550000	1	0.894875
11.566667	1	0.894375
11.583333	1	0.897250
11.600000	1	0.904750
11.616667	1	0.916750
11.633333	1	0.933500
11.650000	1	0.953625
11.666667	1	0.978625
11.683333	1	1.007000
11.700000	1	1.038000
11.716667	1	1.068875
11.733333	1	1.099625
11.750000	1	1.128250
11.766667	1	1.153500
11.783333	1	1.174875
11.800000	1	1.189750
11.816667	1	1.199125
11.833333	1	1.202000
11.850000	1	1.198250
11.866667	1	1.190000
11.883333	1	1.177625
11.900000	1	1.162125
11.916667	1	1.145000
11.933333	1	1.126625
11.950000	1	1.108000
11.966667	1	1.090875
11.983333	1	1.075250
12.000000	1	1.060375
12.016667	1	1.047750
12.033333	1	1.037500
12.050000	1	1.028750
12.066667	1	1.022250
12.083333	1	1.017500
12.100000	1	1.014625
12.116667	1	1.012875
12.133333	1	1.012625
12.150000	1	1.014125
12.166667	1	1.017250
12.183333	1	1.021125
12.200000	1	1.027625
12.216667	1	1.036375
12.233333	1	1.049125
12.250000	1	1.066000
12.266667	1	1.089125
12.283333	1	1.121000
12.300000	1	1.163875
12.316667	1	1.222500
12.333333	1	1.301125
12.350000	1	1.407500
12.366667	1	1.552000
12.383333	1	1.747500
12.400000	1	2.009750
12.416667	1	2.362250
12.433333	1	2.832250
12.450000	1	3.459250
12.466667	1	4.290750
12.483333	1	5.387250
12.500000	1	6.820000
12.516667	1	8.668500
12.533333	1	11.019625
12.550000	1	13.957125
12.566667	1	17.556500
12.583333	1	21.870875
12.600000	1	26.914625
12.616667	1	32.643875
12.633333	1	38.968250
12.650000	1	45.733125
12.666667	1	52.718625
12.683333	1	59.645250
12.700000	1	66.197875
12.716667	1	72.053375
12.733333	1	76.906750
12.750000	1	80.511625
12.766667	1	82.703125
12.783333	1	83.408375
12.800000	1	82.658875
12.816667	1	80.584500
12.833333	1	77.386500
12.850000	1	73.319000
12.866667	1	68.662750
12.883333	1	63.700500
12.900000	1	58.693750
12.916667	1	53.862875
12.933333	1	49.380000
12.950000	1	45.362625
12.966667	1	41.876250
12.983333	1	38.944000
13.000000	1	36.555250
13.016667	1	34.679000
13.033333	1	33.267750
13.050000	1	32.267875
13.066667	1	31.624750
13.083333	1	31.286500
13.100000	1	31.205375
13.116667	1	31.340125
13.133333	1	31.652375
13.150000	1	32.112000
13.166667	1	32.693000
13.183333	1	33.374500
13.200000	1	34.139250
13.216667	1	34.973375
13.233333	1	35.867875
13.250000	1	36.813625
13.266667	1	37.806125
13.283333	1	38.839625
13.300000	1	39.910250
13.316667	1	41.015250
13.333333	1	42.152625
13.350000	1	43.320125
13.366667	1	44.518125
13.383333	1	45.744875
13.400000	1	46.998625
13.416667	1	48.281125
13.433333	1	49.593000
13.450000	1	50.935125
13.466667	1	52.308000
13.483333	1	53.712000
13.500000	1	55.147000
13.516667	1	56.612500
13.533333	1	58.108500
13.550000	1	59.634625
13.566667	1	61.193500
13.583333	1	62.783500
13.600000	1	64.403750
13.616667	1	66.057250
13.633333	1	67.745625
13.650000	1	69.469625
13.666667	1	71.229250
13.683333	1	73.018625
13.700000	1	74.811750
13.716667	1	76.536250
13.733333	1	78.059125
13.750000	1	79.199250
13.766667	1	79.766000
13.783333	1	79.600625
13.800000	1	78.585500
13.816667	1	76.602500
13.833333	1	73.503000
13.850000	1	69.104500
13.866667	1	63.302500
13.883333	1	56.242125
13.900000	1	48.400375
13.916667	1	40.476250
13.933333	1	33.119375
13.950000	1	26.739375
13.966667	1	21.473625
13.983333	1	17.268250
14.000000	1	13.975875
14.016667	1	11.433750
14.033333	1	9.495125
14.050000	1	8.034125
14.066667	1	6.944000
14.083333	1	6.134750
14.100000	1	5.534375
14.116667	1	5.084625
14.133333	1	4.742375
14.150000	1	4.478250
14.166667	1	4.268125
14.183333	1	4.097625
14.200000	1	3.956750
14.216667	1	3.836750
14.233333	1	3.732875
14.250000	1	3.641375
14.266667	1	3.558875
14.283333	1	3.483375
14.300000	1	3.414500
14.316667	1	3.351250
14.333333	1	3.292000
14.350000	1	3.237625
14.366667	1	3.187125
14.383333	1	3.139875
14.400000	1	3.095750
14.416667	1	3.055375
14.433333	1	3.017750
14.450000	1	2.982375
14.466667	1	2.949125
14.483333	1	2.917875
14.500000	1	2.889750
14.516667	1	2.862375
14.533333	1	2.836375
14.550000	1	2.810625
14.566667	1	2.785000
14.583333	1	2.759000
14.600000	1	2.733125
14.616667	1	2.707000
14.633333	1	2.680375
14.650000	1	2.653250
14.666667	1	2.624875
14.683333	1	2.595500
14.700000	1	2.566375
14.716667	1	2.537125
14.733333	1	2.507750
14.750000	1	2.479125
14.766667	1	2.450750
14.783333	1	2.421875
14.800000	1	2.394375
14.816667	1	2.367500
14.833333	1	2.340000
14.850000	1	2.312625
14.866667	1	2.285500
14.883333	1	2.257875
14.900000	1	2.229500
14.916667	1	2.201375
14.933333	1	2.172000
14.950000	1	2.141750
14.966667	1	2.111625
14.983333	1	2.081875
15.000000	1	2.052250
15.016667	1	2.023500
15.033333	1	1.994750
15.050000	1	1.967125
15.066667	1	1.940375
15.083333	1	1.914375
15.100000	1	1.889625
15.116667	1	1.866375
15.133333	1	1.846000
15.150000	1	1.825375
15.166667	1	1.807125
15.183333	1	1.789875
15.200000	1	1.774125
15.216667	1	1.759375
15.233333	1	1.747000
15.250000	1	1.736125
15.266667	1	1.727750
15.283333	1	1.721750
15.300000	1	1.719875
15.316667	1	1.720375
15.333333	1	1.724625
15.350000	1	1.733500
15.366667	1	1.747250
15.383333	1	1.765875
15.400000	1	1.789125
15.416667	1	1.818125
15.433333	1	1.849625
15.450000	1	1.883625
15.466667	1	1.918750
15.483333	1	1.953500
15.500000	1	1.985500
15.516667	1	2.012500
15.533333	1	2.032500
15.550000	1	2.045500
15.566667	1	2.049375
15.583333	1	2.044000
15.600000	1	2.029125
15.616667	1	2.006500
15.633333	1	1.976125
15.650000	1	1.940375
15.666667	1	1.900500
15.683333	1	1.857625
15.700000	1	1.813750
15.716667	1	1.770000
15.733333	1	1.727625
15.750000	1	1.686500
15.766667	1	1.647375
15.783333	1	1.609750
15.800000	1	1.574500
15.816667	1	1.541500
15.833333	1	1.509625
15.850000	1	1.479750
15.866667	1	1.451000
15.883333	1	1.423875
15.900000	1	1.398500
15.916667	1	1.374250
15.933333	1	1.352125
15.950000	1	1.331250
15.966667	1	1.312875
15.983333	1	1.296875
16.000000	1	1.283000
16.016667	1	1.271625
16.033333	1	1.262000
16.050000	1	1.253750
16.066667	1	1.248000
16.083333	1	1.244000
16.100000	1	1.241125
16.116667	1	1.239500
16.133333	1	1.238125
16.150000	1	1.238125
16.166667	1	1.238625
16.183333	1	1.239250
16.200000	1	1.239125
16.216667	1	1.238750
16.233333	1	1.237625
16.250000	1	1.236500
16.266667	1	1.234125
16.283333	1	1.231500
16.300000	1	1.227000
16.316667	1	1.221625
16.333333	1	1.216000
16.350000	1	1.209750
16.366667	1	1.203125
16.383333	1	1.196125
16.400000	1	1.189250
16.416667	1	1.182000
16.433333	1	1.176000
16.450000	1	1.171125
16.466667	1	1.167875
16.483333	1	1.166250
16.500000	1	1.166125
16.516667	1	1.167875
16.533333	1	1.172000
16.550000	1	1.177125
16.566667	1	1.183625
16.583333	1	1.191125
16.600000	1	1.198500
16.616667	1	1.205875
16.633333	1	1.213125
16.650000	1	1.219500
16.666667	1	1.225250
16.683333	1	1.230125
16.700000	1	1.233875
16.716667	1	1.236000
16.733333	1	1.237500
16.750000	1	1.239500
16.766667	1	1.241000
16.783333	1	1.243125
16.800000	1	1.245250
16.816667	1	1.248000
16.833333	1	1.251125
16.850000	1	1.255375
16.866667	1	1.260000
16.883333	1	1.264625
16.900000	1	1.268875
16.916667	1	1.273500
16.933333	1	1.277000
16.950000	1	1.279750
16.966667	1	1.281875
16.983333	1	1.282125
17.000000	1	1.281750
17.016667	1	1.280000
17.033333	1	1.277375
17.050000	1	1.273875
17.066667	1	1.270625
17.083333	1	1.267000
17.100000	1	1.263250
17.116667	1	1.259875
17.133333	1	1.257125
17.150000	1	1.255750
17.166667	1	1.255125
17.183333	1	1.255625
17.200000	1	1.258125
17.216667	1	1.261750
17.233333	1	1.266500
17.250000	1	1.271875
17.266667	1	1.278875
17.283333	1	1.287250
17.300000	1	1.296000
17.316667	1	1.304500
17.333333	1	1.314625
17.350000	1	1.324125
17.366667	1	1.334125
17.383333	1	1.342625
17.400000	1	1.350875
17.416667	1	1.357750
17.433333	1	1.363375
17.450000	1	1.367000
17.466667	1	1.367875
17.483333	1	1.366750
17.500000	1	1.364125
17.516667	1	1.359250
17.533333	1	1.351750
17.550000	1	1.342500
17.566667	1	1.330500
17.583333	1	1.317125
17.600000	1	1.302000
17.616667	1	1.285500
17.633333	1	1.268000
17.650000	1	1.250000
17.666667	1	1.232000
17.683333	1	1.213625
17.700000	1	1.195125
17.716667	1	1.176500
17.733333	1	1.158000
17.750000	1	1.140750
17.766667	1	1.123750
17.783333	1	1.107500
17.800000	1	1.092000
17.816667	1	1.075750
17.833333	1	1.059875
17.850000	1	1.044750
17.866667	1	1.030375
17.883333	1	1.016625
17.900000	1	1.003250
17.916667	1	0.990625
17.933333	1	0.978750
17.950000	1	0.967250
17.966667	1	0.955875
17.983333	1	0.944625
18.000000	1	0.934250
18.016667	1	0.924125
18.033333	1	0.913500
18.050000	1	0.903250
18.066667	1	0.893000
18.083333	1	0.883250
18.100000	1	0.874250
18.116667	1	0.865250
18.133333	1	0.857625
18.150000	1	0.850000
18.166667	1	0.842625
18.183333	1	0.836125
18.200000	1	0.830250
18.216667	1	0.825250
18.233333	1	0.821625
18.250000	1	0.818375
18.266667	1	0.815625
18.283333	1	0.814250
18.300000	1	0.813375
18.316667	1	0.812875
18.333333	1	0.812500
18.350000	1	0.813500
18.366667	1	0.814750
18.383333	1	0.816625
18.400000	1	0.818750
18.416667	1	0.821875
18.433333	1	0.825375
18.450000	1	0.830750
18.466667	1	0.836375
18.483333	1	0.844000
18.500000	1	0.852000
18.516667	1	0.862125
18.533333	1	0.873625
18.550000	1	0.887625
18.566667	1	0.903250
18.583333	1	0.921000
18.600000	1	0.941125
18.616667	1	0.963000
18.633333	1	0.986000
18.650000	1	1.011500
18.666667	1	1.038875
18.683333	1	1.068000
18.700000	1	1.099000
18.716667	1	1.131500
18.733333	1	1.164250
18.750000	1	1.198375
18.766667	1	1.232875
18.783333	1	1.267250
18.800000	1	1.301625
18.816667	1	1.335250
18.833333	1	1.367375
18.850000	1	1.397750
18.866667	1	1.424250
18.883333	1	1.448750
18.900000	1	1.468000
18.916667	1	1.481750
18.933333	1	1.490375
18.950000	1	1.492375
18.966667	1	1.487875
18.983333	1	1.476750
19.000000	1	1.458500
19.016667	1	1.434375
19.033333	1	1.402750
19.050000	1	1.365875
19.066667	1	1.324500
19.083333	1	1.278500
19.100000	1	1.229750
19.116667	1	1.178375
19.133333	1	1.126375
19.150000	1	1.074750
19.166667	1	1.025375
19.183333	1	0.977500
19.200000	1	0.932375
19.216667	1	0.890625
19.233333	1	0.853875
19.250000	1	0.821625
19.266667	1	0.793500
19.283333	1	0.771500
19.300000	1	0.755625
19.316667	1	0.745500
19.333333	1	0.741250
19.350000	1	0.742750
19.366667	1	0.750250
19.383333	1	0.763125
19.400000	1	0.780250
19.416667	1	0.802625
19.433333	1	0.828125
19.450000	1	0.857375
19.466667	1	0.890125
19.483333	1	0.923750
19.500000	1	0.957750
19.516667	1	0.991500
19.533333	1	1.024125
19.550000	1	1.054375
19.566667	1	1.081250
19.583333	1	1.103750
19.600000	1	1.120875
19.616667	1	1.133000
19.633333	1	1.139125
19.650000	1	1.138375
19.666667	1	1.132375
19.683333	1	1.120625
19.700000	1	1.103250
19.716667	1	1.080500
19.733333	1	1.054625
19.750000	1	1.025500
19.766667	1	0.994000
19.783333	1	0.961375
19.800000	1	0.927000
19.816667	1	0.892375
19.833333	1	0.857875
19.850000	1	0.824750
19.866667	1	0.793125
19.883333	1	0.763125
19.900000	1	0.735375
19.916667	1	0.708875
19.933333	1	0.685875
19.950000	1	0.664500
19.966667	1	0.645875
19.983333	1	0.629125
20.000000	1	0.615000
20.016667	1	0.603875
20.033333	1	0.594875
20.050000	1	0.588000
20.066667	1	0.583625
20.083333	1	0.580375
20.100000	1	0.581000
20.116667	1	0.583375
20.133333	1	0.589375
20.150000	1	0.597000
20.166667	1	0.606125
20.183333	1	0.617125
20.200000	1	0.629875
20.216667	1	0.643125
20.233333	1	0.657875
20.250000	1	0.672125
20.266667	1	0.686625
20.283333	1	0.700125
20.300000	1	0.712125
20.316667	1	0.722125
20.333333	1	0.730000
20.350000	1	0.735500
20.366667	1	0.738125
20.383333	1	0.737625
20.400000	1	0.734500
20.416667	1	0.727875
20.433333	1	0.718750
20.450000	1	0.708750
20.466667	1	0.697250
20.483333	1	0.685500
20.500000	1	0.674125
20.516667	1	0.664500
20.533333	1	0.657375
20.550000	1	0.654000
20.566667	1	0.654250
20.583333	1	0.660375
20.600000	1	0.672750
20.616667	1	0.690625
20.633333	1	0.716875
20.650000	1	0.750875
20.666667	1	0.792375
20.683333	1	0.842500
20.700000	1	0.898750
20.716667	1	0.962375
20.733333	1	1.031250
20.750000	1	1.105250
20.766667	1	1.182500
20.783333	1	1.259875
20.800000	1	1.336500
20.816667	1	1.409000
20.833333	1	1.476000
20.850000	1	1.534750
20.866667	1	1.583250
20.883333	1	1.619250
20.900000	1	1.643125
20.916667	1	1.653000
20.933333	1	1.648250
20.950000	1	1.629750
20.966667	1	1.598125
20.983333	1	1.555250
21.000000	1	1.502250
21.016667	1	1.440125
21.033333	1	1.372375
21.050000	1	1.299625
21.066667	1	1.224875
21.083333	1	1.150500
21.100000	1	1.076250
21.116667	1	1.004500
21.133333	1	0.936750
21.150000	1	0.873250
21.166667	1	0.815000
21.183333	1	0.761000
21.200000	1	0.713125
21.216667	1	0.670500
21.233333	1	0.632250
21.250000	1	0.597750
21.266667	1	0.568000
21.283333	1	0.542000
21.300000	1	0.519500
21.316667	1	0.500500
21.333333	1	0.484250
21.350000	1	0.470375
21.366667	1	0.458250
21.383333	1	0.447750
21.400000	1	0.438875
21.416667	1	0.431500
21.433333	1	0.425375
21.450000	1	0.420125
21.466667	1	0.415375
21.483333	1	0.411500
21.500000	1	0.409125
21.516667	1	0.407500
21.533333	1	0.406875
21.550000	1	0.407500
21.566667	1	0.409750
21.583333	1	0.413000
21.600000	1	0.417500
21.616667	1	0.424500
21.633333	1	0.432375
21.650000	1	0.442750
21.666667	1	0.455500
21.683333	1	0.470625
21.700000	1	0.488125
21.716667	1	0.508500
21.733333	1	0.532375
21.750000	1	0.559250
21.766667	1	0.588000
21.783333	1	0.619500
21.800000	1	0.654000
21.816667	1	0.691125
21.833333	1	0.729375
21.850000	1	0.769000
21.866667	1	0.809000
21.883333	1	0.850250
21.900000	1	0.891125
21.916667	1	0.930375
21.933333	1	0.968500
21.950000	1	1.002750
21.966667	1	1.033750
21.983333	1	1.059875
22.000000	1	1.081625
22.016667	1	1.098125
22.033333	1	1.109375
22.050000	1	1.114125
22.066667	1	1.113250
22.083333	1	1.107000
22.100000	1	1.094625
22.116667	1	1.078625
22.133333	1	1.058000
22.150000	1	1.033250
22.166667	1	1.006250
22.183333	1	0.976250
22.200000	1	0.942875
22.216667	1	0.907875
22.233333	1	0.873500
22.250000	1	0.838750
22.266667	1	0.803875
22.283333	1	0.770000
22.300000	1	0.736125
22.316667	1	0.703500
22.333333	1	0.671750
22.350000	1	0.641500
22.366667	1	0.612375
22.383333	1	0.585500
22.400000	1	0.559000
22.416667	1	0.533875
22.433333	1	0.510125
22.450000	1	0.488125
22.466667	1	0.467750
22.483333	1	0.448625
22.500000	1	0.431875
22.516667	1	0.416500
22.533333	1	0.401125
22.550000	1	0.388250
22.566667	1	0.376125
22.583333	1	0.365250
22.600000	1	0.354375
22.616667	1	0.344750
22.633333	1	0.336250
22.650000	1	0.328250
22.666667	1	0.319875
22.683333	1	0.312875
22.700000	1	0.306000
22.716667	1	0.300125
22.733333	1	0.294375
22.750000	1	0.288125
22.766667	1	0.282125
22.783333	1	0.277250
22.800000	1	0.272250
22.816667	1	0.266875
22.833333	1	0.262500
22.850000	1	0.257750
22.866667	1	0.253875
22.883333	1	0.249875
22.900000	1	0.246625
22.916667	1	0.243625
22.933333	1	0.241500
22.950000	1	0.239125
22.966667	1	0.236875
22.983333	1	0.235500
23.000000	1	0.235250
23.016667	1	0.235125
23.033333	1	0.235500
23.050000	1	0.236125
23.066667	1	0.237250
23.083333	1	0.239000
23.100000	1	0.240875
23.116667	1	0.243875
23.133333	1	0.246375
23.150000	1	0.249500
23.166667	1	0.253500
23.183333	1	0.257750
23.200000	1	0.262000
23.216667	1	0.267500
23.233333	1	0.272750
23.250000	1	0.278875
23.266667	1	0.285375
23.283333	1	0.293500
23.300000	1	0.303375
23.316667	1	0.314375
23.333333	1	0.328125
23.350000	1	0.344125
23.366667	1	0.363125
23.383333	1	0.386000
23.400000	1	0.413750
23.416667	1	0.446500
23.433333	1	0.485375
23.450000	1	0.531625
23.466667	1	0.586750
23.483333	1	0.651500
23.500000	1	0.726750
23.516667	1	0.814625
23.533333	1	0.915750
23.550000	1	1.031500
23.566667	1	1.162375
23.583333	1	1.309250
23.600000	1	1.473500
23.616667	1	1.653625
23.633333	1	1.850125
23.650000	1	2.062125
23.666667	1	2.288625
23.683333	1	2.526500
23.700000	1	2.773750
23.716667	1	3.027250
23.733333	1	3.283250
23.750000	1	3.536000
23.766667	1	3.781500
23.783333	1	4.013750
23.800000	1	4.228250
23.816667	1	4.420000
23.833333	1	4.584750
23.850000	1	4.718500
23.866667	1	4.818750
23.883333	1	4.882000
23.900000	1	4.907375
23.916667	1	4.894500
23.933333	1	4.844625
23.950000	1	4.759250
23.966667	1	4.640875
23.983333	1	4.493375
24.000000	1	4.319625
24.016667	1	4.125375
24.033333	1	3.915250
24.050000	1	3.693625
24.066667	1	3.464875
24.083333	1	3.232750
24.100000	1	3.001250
24.116667	1	2.773125
24.133333	1	2.552250
24.150000	1	2.340250
24.166667	1	2.139125
24.183333	1	1.950750
24.200000	1	1.774250
24.216667	1	1.612375
24.233333	1	1.463625
24.250000	1	1.328250
24.266667	1	1.206000
24.283333	1	1.095750
24.300000	1	0.997000
24.316667	1	0.909375
24.333333	1	0.831750
24.350000	1	0.763500
24.366667	1	0.704750
24.383333	1	0.653250
24.400000	1	0.609250
24.416667	1	0.572000
24.433333	1	0.541000
24.450000	1	0.515000
24.466667	1	0.492500
24.483333	1	0.475250
24.500000	1	0.461000
24.516667	1	0.449500
24.533333	1	0.440125
24.550000	1	0.432750
24.566667	1	0.427125
24.583333	1	0.422125
24.600000	1	0.417750
24.616667	1	0.414625
24.633333	1	0.411375
24.650000	1	0.408875
24.666667	1	0.406125
24.683333	1	0.403500
24.700000	1	0.401000
24.716667	1	0.398250
24.733333	1	0.394625
24.750000	1	0.390750
24.766667	1	0.386500
24.783333	1	0.381500
24.800000	1	0.377500
24.816667	1	0.373375
24.833333	1	0.368375
24.850000	1	0.363750
24.866667	1	0.359625
24.883333	1	0.355500
24.900000	1	0.351375
24.916667	1	0.346750
24.933333	1	0.342750
24.950000	1	0.338375
24.966667	1	0.334375
24.983333	1	0.330500
25.000000	1	0.326250
25.016667	1	0.321625
25.033333	1	0.317375
25.050000	1	0.313500
25.066667	1	0.310500
25.083333	1	0.307250
25.100000	1	0.303625
25.116667	1	0.299625
25.133333	1	0.295375
25.150000	1	0.291125
25.166667	1	0.287500
25.183333	1	0.283375
25.200000	1	0.279000
25.216667	1	0.274875
25.233333	1	0.270875
25.250000	1	0.267625
25.266667	1	0.264250
25.283333	1	0.261625
25.300000	1	0.257750
25.316667	1	0.254500
25.333333	1	0.251000
25.350000	1	0.248375
25.366667	1	0.246125
25.383333	1	0.244375
25.400000	1	0.242250
25.416667	1	0.241250
25.433333	1	0.239875
25.450000	1	0.239375
25.466667	1	0.239250
25.483333	1	0.239125
25.500000	1	0.238875
25.516667	1	0.239000
25.533333	1	0.239500
25.550000	1	0.240000
25.566667	1	0.240375
25.583333	1	0.240875
25.600000	1	0.241750
25.616667	1	0.243125
25.633333	1	0.243875
25.650000	1	0.245125
25.666667	1	0.246500
25.683333	1	0.247250
25.700000	1	0.248750
25.716667	1	0.249875
25.733333	1	0.251375
25.750000	1	0.252875
25.766667	1	0.253875
25.783333	1	0.255500
25.800000	1	0.256750
25.816667	1	0.258375
25.833333	1	0.259250
25.850000	1	0.261000
25.866667	1	0.263375
25.883333	1	0.266375
25.900000	1	0.269250
25.916667	1	0.272125
25.933333	1	0.274625
25.950000	1	0.278250
25.966667	1	0.282375
25.983333	1	0.286250
26.000000	1	0.290125
26.016667	1	0.295125
26.033333	1	0.299625
26.050000	1	0.304625
26.066667	1	0.309250
26.083333	1	0.314625
26.100000	1	0.319500
26.116667	1	0.325125
26.133333	1	0.330250
26.150000	1	0.334875
26.166667	1	0.339625
26.183333	1	0.344375
26.200000	1	0.348375
26.216667	1	0.352250
26.233333	1	0.355750
26.250000	1	0.358750
26.266667	1	0.361625
26.283333	1	0.363750
26.300000	1	0.364375
26.316667	1	0.364375
26.333333	1	0.363625
26.350000	1	0.362875
26.366667	1	0.361125
26.383333	1	0.358625
26.400000	1	0.355750
26.416667	1	0.351625
26.433333	1	0.346500
26.450000	1	0.341375
26.466667	1	0.335125
26.483333	1	0.329000
26.500000	1	0.322750
26.516667	1	0.315750
26.533333	1	0.307750
26.550000	1	0.300250
26.566667	1	0.292250
26.583333	1	0.283375
26.600000	1	0.275750
26.616667	1	0.267375
26.633333	1	0.259750
26.650000	1	0.251250
26.666667	1	0.243625
26.683333	1	0.235875
26.700000	1	0.228250
26.716667	1	0.221125
26.733333	1	0.213750
26.750000	1	0.207375
26.766667	1	0.200875
26.783333	1	0.195125
26.800000	1	0.188875
26.816667	1	0.183000
26.833333	1	0.177250
26.850000	1	0.172625
26.866667	1	0.169000
26.883333	1	0.164875
26.900000	1	0.162125
26.916667	1	0.159375
26.933333	1	0.156000
26.950000	1	0.153625
26.966667	1	0.152500
26.983333	1	0.152125
27.000000	1	0.151500
27.016667	1	0.151125
27.033333	1	0.152500
27.050000	1	0.154500
27.066667	1	0.158125
27.083333	1	0.162125
27.100000	1	0.167875
27.116667	1	0.173875
27.133333	1	0.180875
27.150000	1	0.189125
27.166667	1	0.200375
27.183333	1	0.212750
27.200000	1	0.227125
27.216667	1	0.243500
27.233333	1	0.263250
27.250000	1	0.285375
27.266667	1	0.311000
27.283333	1	0.339500
27.300000	1	0.372875
27.316667	1	0.410750
27.333333	1	0.453250
27.350000	1	0.502000
27.366667	1	0.556125
27.383333	1	0.616625
27.400000	1	0.685000
27.416667	1	0.761000
27.433333	1	0.845625
27.450000	1	0.939625
27.466667	1	1.042500
27.483333	1	1.154750
27.500000	1	1.278000
27.516667	1	1.410875
27.533333	1	1.553500
27.550000	1	1.705625
27.566667	1	1.866500
27.583333	1	2.035625
27.600000	1	2.211375
27.616667	1	2.392875
27.633333	1	2.579250
27.650000	1	2.767000
27.666667	1	2.955500
27.683333	1	3.141500
27.700000	1	3.323625
27.716667	1	3.496875
27.733333	1	3.661250
27.750000	1	3.813375
27.766667	1	3.949375
27.783333	1	4.067500
27.800000	1	4.166125
27.816667	1	4.243000
27.833333	1	4.296875
27.850000	1	4.324750
27.866667	1	4.327875
27.883333	1	4.305125
27.900000	1	4.257625
27.916667	1	4.185000
27.933333	1	4.088875
27.950000	1	3.971875
27.966667	1	3.836250
27.983333	1	3.683625
28.000000	1	3.517000
28.016667	1	3.339750
28.033333	1	3.153500
28.050000	1	2.962625
28.066667	1	2.768750
28.083333	1	2.575250
28.100000	1	2.384625
28.116667	1	2.198625
28.133333	1	2.019125
28.150000	1	1.847750
28.166667	1	1.685500
28.183333	1	1.534000
28.200000	1	1.392625
28.216667	1	1.263000
28.233333	1	1.143500
28.250000	1	1.035625
28.266667	1	0.938250
28.283333	1	0.850500
28.300000	1	0.772250
28.316667	1	0.703750
28.333333	1	0.644000
28.350000	1	0.591750
28.366667	1	0.546875
28.383333	1	0.510125
28.400000	1	0.478750
28.416667	1	0.453000
28.433333	1	0.432500
28.450000	1	0.417000
28.466667	1	0.405750
28.483333	1	0.397250
28.500000	1	0.392250
28.516667	1	0.390500
28.533333	1	0.391750
28.550000	1	0.394125
28.566667	1	0.398875
28.583333	1	0.405250
28.600000	1	0.413500
28.616667	1	0.423125
28.633333	1	0.433625
28.650000	1	0.445000
28.666667	1	0.456000
28.683333	1	0.467750
28.700000	1	0.479125
28.716667	1	0.490375
28.733333	1	0.501250
28.750000	1	0.510875
28.766667	1	0.520750
28.783333	1	0.529750
28.800000	1	0.538625
28.816667	1	0.545500
28.833333	1	0.552125
28.850000	1	0.557625
28.866667	1	0.561500
28.883333	1	0.564500
28.900000	1	0.565750
28.916667	1	0.566500
28.933333	1	0.566250
28.950000	1	0.564250
28.966667	1	0.561250
28.983333	1	0.557000
29.000000	1	0.552125
29.016667	1	0.545750
29.033333	1	0.538750
29.050000	1	0.530625
29.066667	1	0.521125
29.083333	1	0.511000
29.100000	1	0.500000
29.116667	1	0.488500
29.133333	1	0.476500
29.150000	1	0.463875
29.166667	1	0.450625
29.183333	1	0.437500
29.200000	1	0.423875
29.216667	1	0.410000
29.233333	1	0.396000
29.250000	1	0.382125
29.266667	1	0.368625
29.283333	1	0.354875
29.300000	1	0.340625
29.316667	1	0.326875
29.333333	1	0.313625
29.350000	1	0.300500
29.366667	1	0.287875
29.383333	1	0.275250
29.400000	1	0.263500
29.416667	1	0.251875
29.433333	1	0.241000
29.450000	1	0.230500
29.466667	1	0.220125
29.483333	1	0.210625
29.500000	1	0.201375
29.516667	1	0.192500
29.533333	1	0.184125
29.550000	1	0.175875
29.566667	1	0.168250
29.583333	1	0.161000
29.600000	1	0.153750
29.616667	1	0.148125
29.633333	1	0.142000
29.650000	1	0.136625
29.666667	1	0.131875
29.683333	1	0.127000
29.700000	1	0.122250
29.716667	1	0.118000
29.733333	1	0.114000
29.750000	1	0.110625
29.766667	1	0.107375
29.783333	1	0.104375
29.800000	1	0.101375
29.816667	1	0.099000
29.833333	1	0.097000
29.850000	1	0.094750
29.866667	1	0.092750
29.883333	1	0.090375
29.900000	1	0.087875
29.916667	1	0.085625
29.933333	1	0.084125
29.950000	1	0.083500
29.966667	1	0.082250
29.983333	1	0.081250
30.000000	1	0.079250
30.016667	1	0.077500
30.033333	1	0.076250
30.050000	1	0.075000
30.066667	1	0.073750
30.083333	1	0.073375
30.100000	1	0.071375
30.116667	1	0.070625
30.133333	1	0.069625
30.150000	1	0.068750
30.166667	1	0.067625
30.183333	1	0.066625
30.200000	1	0.065500
30.216667	1	0.064625
30.233333	1	0.063000
30.250000	1	0.062000
30.266667	1	0.060750
30.283333	1	0.060125
30.300000	1	0.059625
30.316667	1	0.059250
30.333333	1	0.058875
30.350000	1	0.058500
30.366667	1	0.058250
30.383333	1	0.058375
30.400000	1	0.058625
30.416667	1	0.059500
30.433333	1	0.060500
30.450000	1	0.061875
30.466667	1	0.064000
30.483333	1	0.066500
30.500000	1	0.068375
30.516667	1	0.071125
30.533333	1	0.074750
30.550000	1	0.078500
30.566667	1	0.082625
30.583333	1	0.088125
30.600000	1	0.094125
30.616667	1	0.100000
30.633333	1	0.106875
30.650000	1	0.113875
30.666667	1	0.121500
30.683333	1	0.130750
30.700000	1	0.140250
30.716667	1	0.150125
30.733333	1	0.160625
30.750000	1	0.171250
30.766667	1	0.183375
30.783333	1	0.196625
30.800000	1	0.209750
30.816667	1	0.224250
30.833333	1	0.240500
30.850000	1	0.257250
30.866667	1	0.274750
30.883333	1	0.294125
30.900000	1	0.315375
30.916667	1	0.337250
30.933333	1	0.360500
30.950000	1	0.386500
30.966667	1	0.416000
30.983333	1	0.447375
31.000000	1	0.481500
31.016667	1	0.519000
31.033333	1	0.560625
31.050000	1	0.606250
31.066667	1	0.655625
31.083333	1	0.710125
31.100000	1	0.769500
31.116667	1	0.833125
31.133333	1	0.902000
31.150000	1	0.977000
31.166667	1	1.057375
31.183333	1	1.143875
31.200000	1	1.234875
31.216667	1	1.330750
31.233333	1	1.433000
31.250000	1	1.538750
31.266667	1	1.648125
31.283333	1	1.760875
31.300000	1	1.875250
31.316667	1	1.991750
31.333333	1	2.108000
31.350000	1	2.223250
31.366667	1	2.336000
31.383333	1	2.445375
31.400000	1	2.550000
31.416667	1	2.648875
31.433333	1	2.739375
31.450000	1	2.822000
31.466667	1	2.894375
31.483333	1	2.955625
31.500000	1	3.005250
31.516667	1	3.042250
31.533333	1	3.066750
31.550000	1	3.077625
31.566667	1	3.075625
31.583333	1	3.059625
31.600000	1	3.030000
31.616667	1	2.988875
31.633333	1	2.935125
31.650000	1	2.870250
31.666667	1	2.796125
31.683333	1	2.713500
31.700000	1	2.622500
31.716667	1	2.525000
31.733333	1	2.422625
31.750000	1	2.316375
31.766667	1	2.207375
31.783333	1	2.096875
31.800000	1	1.985250
31.816667	1	1.874250
31.833333	1	1.765125
31.850000	1	1.657500
31.866667	1	1.553125
31.883333	1	1.452875
31.900000	1	1.356250
31.916667	1	1.264375
31.933333	1	1.177875
31.950000	1	1.096000
31.966667	1	1.018250
31.983333	1	0.947125
32.000000	1	0.879875
32.016667	1	0.817250
32.033333	1	0.759625
32.050000	1	0.706375
32.066667	1	0.657625
32.083333	1	0.612500
32.100000	1	0.570250
32.116667	1	0.532000
32.133333	1	0.496125
32.150000	1	0.463625
32.166667	1	0.432250
32.183333	1	0.403750
32.200000	1	0.376625
32.216667	1	0.351875
32.233333	1	0.329250
32.250000	1	0.307500
32.266667	1	0.286875
32.283333	1	0.266875
32.300000	1	0.248125
32.316667	1	0.230125
32.333333	1	0.212875
32.350000	1	0.196750
32.366667	1	0.181500
32.383333	1	0.166500
32.400000	1	0.152625
32.416667	1	0.139250
32.433333	1	0.126500
32.450000	1	0.114750
32.466667	1	0.103250
32.483333	1	0.092125
32.500000	1	0.083125
32.516667	1	0.074250
32.533333	1	0.065875
32.550000	1	0.058625
32.566667	1	0.052000
32.583333	1	0.044750
32.600000	1	0.039250
32.616667	1	0.034250
32.633333	1	0.029125
32.650000	1	0.024875
32.666667	1	0.021125
32.683333	1	0.017625
32.700000	1	0.014125
32.716667	1	0.011875
32.733333	1	0.010125
32.750000	1	0.007375
32.766667	1	0.005625
32.783333	1	0.004000
32.800000	1	0.002500
32.816667	1	0.001000
32.833333	1	0.000000
32.850000	1	-0.001250
32.866667	1	-0.002750
32.883333	1	-0.003250
32.900000	1	-0.004750
32.916667	1	-0.005125
32.933333	1	-0.005625
32.950000	1	-0.006250
32.966667	1	-0.007250
32.983333	1	-0.007375
33.000000	1	-0.007625
33.016667	1	-0.007250
33.033333	1	-0.007625
33.050000	1	-0.008375
33.066667	1	-0.008375
33.083333	1	-0.007875
33.100000	1	-0.007250
33.116667	1	-0.007250
33.133333	1	-0.006625
33.150000	1	-0.005625
33.166667	1	-0.004750
33.183333	1	-0.003750
33.200000	1	-0.002375
33.216667	1	-0.001375
33.233333	1	0.000375
33.250000	1	0.002375
33.266667	1	0.005125
33.283333	1	0.007625
33.300000	1	0.011000
33.316667	1	0.014875
33.333333	1	0.019500
33.350000	1	0.024250
33.366667	1	0.029750
33.383333	1	0.035000
33.400000	1	0.041375
33.416667	1	0.049125
33.433333	1	0.057375
33.450000	1	0.066500
33.466667	1	0.076250
33.483333	1	0.087250
33.500000	1	0.098250
33.516667	1	0.111250
33.533333	1	0.125875
33.550000	1	0.142000
33.566667	1	0.158375
33.583333	1	0.176500
33.600000	1	0.195500
33.616667	1	0.215625
33.633333	1	0.238375
33.650000	1	0.261625
33.666667	1	0.286500
33.683333	1	0.312625
33.700000	1	0.339875
33.716667	1	0.368250
33.733333	1	0.397500
33.750000	1	0.428250
33.766667	1	0.459375
33.783333	1	0.491375
33.800000	1	0.524000
33.816667	1	0.556250
33.833333	1	0.588750
33.850000	1	0.620125
33.866667	1	0.651875
33.883333	1	0.681875
33.900000	1	0.710500
33.916667	1	0.738750
33.933333	1	0.765125
33.950000	1	0.788875
33.966667	1	0.811375
33.983333	1	0.830125
34.000000	1	0.846375
34.016667	1	0.859875
34.033333	1	0.870500
34.050000	1	0.878375
34.066667	1	0.882750
34.083333	1	0.884000
34.100000	1	0.882125
34.116667	1	0.877875
34.133333	1	0.870125
34.150000	1	0.859000
34.166667	1	0.845750
34.183333	1	0.829875
34.200000	1	0.811875
34.216667	1	0.791500
34.233333	1	0.769375
34.250000	1	0.746000
34.266667	1	0.721625
34.283333	1	0.695750
34.300000	1	0.669000
34.316667	1	0.642250
34.333333	1	0.615875
34.350000	1	0.589625
34.366667	1	0.563375
34.383333	1	0.537000
34.400000	1	0.511625
34.416667	1	0.486750
34.433333	1	0.463125
34.450000	1	0.439875
34.466667	1	0.417875
34.483333	1	0.397250
34.500000	1	0.377750
34.516667	1	0.359875
34.533333	1	0.342125
34.550000	1	0.326500
34.566667	1	0.310875
34.583333	1	0.296250
34.600000	1	0.283125
34.616667	1	0.270250
34.633333	1	0.258750
34.650000	1	0.248250
34.666667	1	0.239250
34.683333	1	0.229875
34.700000	1	0.221375
34.716667	1	0.213500
34.733333	1	0.205750
34.750000	1	0.199000
34.766667	1	0.192500
34.783333	1	0.187500
34.800000	1	0.181750
34.816667	1	0.176375
34.833333	1	0.171500
34.850000	1	0.166750
34.866667	1	0.161750
34.883333	1	0.156625
34.900000	1	0.153250
34.916667	1	0.148750
34.933333	1	0.145125
34.950000	1	0.141750
34.966667	1	0.138375
34.983333	1	0.134875
35.000000	1	0.131750
35.016667	1	0.128375
35.033333	1	0.125000
35.050000	1	0.121750
35.066667	1	0.118500
35.083333	1	0.116250
35.100000	1	0.113000
35.116667	1	0.110000
35.133333	1	0.107625
35.150000	1	0.105500
35.166667	1	0.102875
35.183333	1	0.100625
35.200000	1	0.098750
35.216667	1	0.097000
35.233333	1	0.095125
35.250000	1	0.093500
35.266667	1	0.092375
35.283333	1	0.090875
35.300000	1	0.089875
35.316667	1	0.088750
35.333333	1	0.087875
35.350000	1	0.087125
35.366667	1	0.086625
35.383333	1	0.086500
35.400000	1	0.086375
35.416667	1	0.086000
35.433333	1	0.085000
35.450000	1	0.084500
35.466667	1	0.084375
35.483333	1	0.084750
35.500000	1	0.084625
35.516667	1	0.085125
35.533333	1	0.085250
35.550000	1	0.086000
35.566667	1	0.086250
35.583333	1	0.086875
35.600000	1	0.087125
35.616667	1	0.087875
35.633333	1	0.087750
35.650000	1	0.087750
35.666667	1	0.087125
35.683333	1	0.087375
35.700000	1	0.087750
35.716667	1	0.087875
35.733333	1	0.087250
35.750000	1	0.086750
35.766667	1	0.085625
35.783333	1	0.084750
35.800000	1	0.083875
35.816667	1	0.083250
35.833333	1	0.082125
35.850000	1	0.081125
35.866667	1	0.079375
35.883333	1	0.077750
35.900000	1	0.076375
35.916667	1	0.075375
35.933333	1	0.073875
35.950000	1	0.072375
35.966667	1	0.070500
35.983333	1	0.069250
36.000000	1	0.067250
36.016667	1	0.066375
36.033333	1	0.064750
36.050000	1	0.062875
36.066667	1	0.061875
36.083333	1	0.060750
36.100000	1	0.059500
36.116667	1	0.057750
36.133333	1	0.057500
36.150000	1	0.057125
36.166667	1	0.056750
36.183333	1	0.056250
36.200000	1	0.055875
36.216667	1	0.055750
36.233333	1	0.054625
36.250000	1	0.054125
36.266667	1	0.054000
36.283333	1	0.054500
36.300000	1	0.054625
36.316667	1	0.054000
36.333333	1	0.054625
36.350000	1	0.054125
36.366667	1	0.054375
36.383333	1	0.055250
36.400000	1	0.054875
36.416667	1	0.055375
36.433333	1	0.055500
36.450000	1	0.055875
36.466667	1	0.055875
36.483333	1	0.055625
36.500000	1	0.055625
36.516667	1	0.055125
36.533333	1	0.054250
36.550000	1	0.053625
36.566667	1	0.052500
36.583333	1	0.052250
36.600000	1	0.051000
36.616667	1	0.050500
36.633333	1	0.049250
36.650000	1	0.048125
36.666667	1	0.046750
36.683333	1	0.045250
36.700000	1	0.043250
36.716667	1	0.041750
36.733333	1	0.041125
36.750000	1	0.038875
36.766667	1	0.037500
36.783333	1	0.035875
36.800000	1	0.033875
36.816667	1	0.032375
36.833333	1	0.030875
36.850000	1	0.029375
36.866667	1	0.027875
36.883333	1	0.026625
36.900000	1	0.026125
36.916667	1	0.025625
36.933333	1	0.025250
36.950000	1	0.025000
36.966667	1	0.023875
36.983333	1	0.023375
37.000000	1	0.023375
37.016667	1	0.023375
37.033333	1	0.023250
37.050000	1	0.023625
37.066667	1	0.023375
37.083333	1	0.024125
37.100000	1	0.025250
37.116667	1	0.026375
37.133333	1	0.026750
37.150000	1	0.028000
37.166667	1	0.028875
37.183333	1	0.029375
37.200000	1	0.030500
37.216667	1	0.030625
37.233333	1	0.031625
37.250000	1	0.032375
37.266667	1	0.032250
37.283333	1	0.033250
37.300000	1	0.034000
37.316667	1	0.033750
37.333333	1	0.034125
37.350000	1	0.035000
37.366667	1	0.035000
37.383333	1	0.034000
37.400000	1	0.034125
37.416667	1	0.034125
37.433333	1	0.033000
37.450000	1	0.032500
37.466667	1	0.032250
37.483333	1	0.032125
37.500000	1	0.031125
37.516667	1	0.030375
37.533333	1	0.029250
37.550000	1	0.027750
37.566667	1	0.026750
37.583333	1	0.025500
37.600000	1	0.024500
37.616667	1	0.022625
37.633333	1	0.020375
37.650000	1	0.018500
37.666667	1	0.016875
37.683333	1	0.015250
37.700000	1	0.013000
37.716667	1	0.011000
37.733333	1	0.009625
37.750000	1	0.008125
37.766667	1	0.006125
37.783333	1	0.003625
37.800000	1	0.002375
37.816667	1	0.000375
37.833333	1	-0.001250
37.850000	1	-0.002750
37.866667	1	-0.004000
37.883333	1	-0.005625
37.900000	1	-0.007250
37.916667	1	-0.007875
37.933333	1	-0.008750
37.950000	1	-0.009500
37.966667	1	-0.010375
37.983333	1	-0.011625
38.000000	1	-0.012125
38.016667	1	-0.012250
38.033333	1	-0.012875
38.050000	1	-0.013000
38.066667	1	-0.012500
38.083333	1	-0.012000
38.100000	1	-0.011250
38.116667	1	-0.011000
38.133333	1	-0.010125
38.150000	1	-0.009625
38.166667	1	-0.008500
38.183333	1	-0.007750
38.200000	1	-0.006250
38.216667	1	-0.005500
38.233333	1	-0.004375
38.250000	1	-0.003000
38.266667	1	-0.001250
38.283333	1	0.000125
38.300000	1	0.001625
38.316667	1	0.003375
38.333333	1	0.004625
38.350000	1	0.005375
38.366667	1	0.006000
38.383333	1	0.007500
38.400000	1	0.008375
38.416667	1	0.009125
38.433333	1	0.009625
38.450000	1	0.010500
38.466667	1	0.010750
38.483333	1	0.011375
38.500000	1	0.011875
38.516667	1	0.011750
38.533333	1	0.010625
38.550000	1	0.010000
38.566667	1	0.009250
38.583333	1	0.008625
38.600000	1	0.008250
38.616667	1	0.008125
38.633333	1	0.007125
38.650000	1	0.005875
38.666667	1	0.005000
38.683333	1	0.004125
38.700000	1	0.003250
38.716667	1	0.001875
38.733333	1	0.000625
38.750000	1	-0.000250
38.766667	1	-0.000375
38.783333	1	-0.001375
38.800000	1	-0.002375
38.816667	1	-0.003625
38.833333	1	-0.003750
38.850000	1	-0.004500
38.866667	1	-0.005375
38.883333	1	-0.006750
38.900000	1	-0.007375
38.916667	1	-0.007625
38.933333	1	-0.007875
38.950000	1	-0.007750
38.966667	1	-0.007750
38.983333	1	-0.007375
39.000000	1	-0.007625
39.016667	1	-0.007750
39.033333	1	-0.007125
39.050000	1	-0.006000
39.066667	1	-0.005375
39.083333	1	-0.004250
39.100000	1	-0.003875
39.116667	1	-0.003125
39.133333	1	-0.002375
39.150000	1	-0.002250
39.166667	1	-0.002375
39.183333	1	-0.002375
39.200000	1	-0.001750
39.216667	1	-0.001250
39.233333	1	-0.000750
39.250000	1	0.000000
39.266667	1	-0.000125
39.283333	1	0.000125
39.300000	1	-0.000500
39.316667	1	-0.001000
39.333333	1	-0.001375
39.350000	1	-0.001750
39.366667	1	-0.002375
39.383333	1	-0.002875
39.400000	1	-0.003500
39.416667	1	-0.004000
39.433333	1	-0.004875
39.450000	1	-0.005000
39.466667	1	-0.005625
39.483333	1	-0.006250
39.500000	1	-0.007000
39.516667	1	-0.007500
39.533333	1	-0.007625
39.550000	1	-0.007875
39.566667	1	-0.008375
39.583333	1	-0.008375
39.600000	1	-0.008125
39.616667	1	-0.008500
39.633333	1	-0.008750
39.650000	1	-0.008875
39.666667	1	-0.008625
39.683333	1	-0.009000
39.700000	1	-0.009125
39.716667	1	-0.009000
39.733333	1	-0.009125
39.750000	1	-0.009125
39.766667	1	-0.009500
39.783333	1	-0.010125
39.800000	1	-0.010125
39.816667	1	-0.010000
39.833333	1	-0.010000
39.850000	1	-0.010125
39.866667	1	-0.010625
39.883333	1	-0.011625
39.900000	1	-0.012125
39.916667	1	-0.012125
39.933333	1	-0.012500
39.950000	1	-0.012500
39.966667	1	-0.012875
39.983333	1	-0.013750
40.000000	1	-0.014750
