URL	chrom://bioreactor/micro_cm7/HPLC_Ultimate_3000/Users/markusar/20240716_MA_pHrange2.seq/431.smp/RI_1.channel/RI_1.chm
Channel	RI_1

Injection Information:
Data Vault	micro_cm7
Sequence	20240716_MA_pHrange2
Name	Fp3_40H_2
Number	30
Position	BC6
Comment	
Processing Method	
Instrument Method	run_25B_method
Type	Unknown
Status	Finished
Inject Time	17.07.2024 13:54:37 +02:00
Volume (µl)	20.0000
Dilution Factor	1.0000
Weight	1.0000

Chromatogram Data Information:
Time Min. (min)	0.000000
Time Max. (min)	40.000000
Data Points	2401
Detector	RI
Generating Data System	Chromeleon 7.3.2.11814
Exporting Data System	Chromeleon 7.3.2.0
Operator	Instrument Controller
Signal Quantity	Refractive 
Signal Unit	µRIU
Signal Min.	-0.091000
Signal Max.	81.562000
Channel	RI_1
Driver Name	RID520Driver.dll
Channel Type	Evaluation
Min. Step (s)	1
Max. Step (s)	1
Average Step (s)	1

Signal Parameter Information:
Signal Info	

Chromatogram Data:
Time (min)	Step (s)	Value (µRIU)
0.000000	n.a.	0.035875
0.016667	1	0.038000
0.033333	1	0.039750
0.050000	1	0.041500
0.066667	1	0.043500
0.083333	1	0.044625
0.100000	1	0.046500
0.116667	1	0.047750
0.133333	1	0.049500
0.150000	1	0.050375
0.166667	1	0.051375
0.183333	1	0.052125
0.200000	1	0.052125
0.216667	1	0.052250
0.233333	1	0.052500
0.250000	1	0.052250
0.266667	1	0.051750
0.283333	1	0.051000
0.300000	1	0.051375
0.316667	1	0.051250
0.333333	1	0.051125
0.350000	1	0.050375
0.366667	1	0.049000
0.383333	1	0.047625
0.400000	1	0.046000
0.416667	1	0.045750
0.433333	1	0.046375
0.450000	1	0.047375
0.466667	1	0.048875
0.483333	1	0.050250
0.500000	1	0.051250
0.516667	1	0.052000
0.533333	1	0.052250
0.550000	1	0.051875
0.566667	1	0.050250
0.583333	1	0.049375
0.600000	1	0.048500
0.616667	1	0.047750
0.633333	1	0.047875
0.650000	1	0.048375
0.666667	1	0.049125
0.683333	1	0.049500
0.700000	1	0.050000
0.716667	1	0.051375
0.733333	1	0.052000
0.750000	1	0.053000
0.766667	1	0.054625
0.783333	1	0.055000
0.800000	1	0.056500
0.816667	1	0.056750
0.833333	1	0.056500
0.850000	1	0.057000
0.866667	1	0.057875
0.883333	1	0.058375
0.900000	1	0.058250
0.916667	1	0.058375
0.933333	1	0.058625
0.950000	1	0.058375
0.966667	1	0.057750
0.983333	1	0.057125
1.000000	1	0.056875
1.016667	1	0.055500
1.033333	1	0.054875
1.050000	1	0.054000
1.066667	1	0.053000
1.083333	1	0.052000
1.100000	1	0.051375
1.116667	1	0.049750
1.133333	1	0.049125
1.150000	1	0.048125
1.166667	1	0.047125
1.183333	1	0.046250
1.200000	1	0.045750
1.216667	1	0.044500
1.233333	1	0.043750
1.250000	1	0.042375
1.266667	1	0.042000
1.283333	1	0.041750
1.300000	1	0.041000
1.316667	1	0.040750
1.333333	1	0.040500
1.350000	1	0.040000
1.366667	1	0.039500
1.383333	1	0.039125
1.400000	1	0.039125
1.416667	1	0.039250
1.433333	1	0.039375
1.450000	1	0.039625
1.466667	1	0.039750
1.483333	1	0.039125
1.500000	1	0.038875
1.516667	1	0.038375
1.533333	1	0.038250
1.550000	1	0.037875
1.566667	1	0.037125
1.583333	1	0.036250
1.600000	1	0.036000
1.616667	1	0.035375
1.633333	1	0.034125
1.650000	1	0.033000
1.666667	1	0.031250
1.683333	1	0.029625
1.700000	1	0.027625
1.716667	1	0.025125
1.733333	1	0.023000
1.750000	1	0.020875
1.766667	1	0.018000
1.783333	1	0.015125
1.800000	1	0.012500
1.816667	1	0.009500
1.833333	1	0.006375
1.850000	1	0.002750
1.866667	1	-0.000375
1.883333	1	-0.004125
1.900000	1	-0.008875
1.916667	1	-0.013250
1.933333	1	-0.017250
1.950000	1	-0.021875
1.966667	1	-0.025625
1.983333	1	-0.030375
2.000000	1	-0.034500
2.016667	1	-0.038375
2.033333	1	-0.043000
2.050000	1	-0.046750
2.066667	1	-0.050125
2.083333	1	-0.054125
2.100000	1	-0.057500
2.116667	1	-0.061375
2.133333	1	-0.064875
2.150000	1	-0.068625
2.166667	1	-0.071375
2.183333	1	-0.074375
2.200000	1	-0.076625
2.216667	1	-0.079375
2.233333	1	-0.081125
2.250000	1	-0.083750
2.266667	1	-0.085750
2.283333	1	-0.086875
2.300000	1	-0.087750
2.316667	1	-0.088750
2.333333	1	-0.089375
2.350000	1	-0.090125
2.366667	1	-0.090750
2.383333	1	-0.091000
2.400000	1	-0.090250
2.416667	1	-0.090000
2.433333	1	-0.089750
2.450000	1	-0.088875
2.466667	1	-0.088125
2.483333	1	-0.086500
2.500000	1	-0.085125
2.516667	1	-0.083875
2.533333	1	-0.081375
2.550000	1	-0.079250
2.566667	1	-0.077375
2.583333	1	-0.074375
2.600000	1	-0.071125
2.616667	1	-0.068375
2.633333	1	-0.065125
2.650000	1	-0.061125
2.666667	1	-0.058250
2.683333	1	-0.054125
2.700000	1	-0.049875
2.716667	1	-0.045875
2.733333	1	-0.041500
2.750000	1	-0.036875
2.766667	1	-0.032500
2.783333	1	-0.028250
2.800000	1	-0.023500
2.816667	1	-0.018625
2.833333	1	-0.013750
2.850000	1	-0.008500
2.866667	1	-0.002375
2.883333	1	0.002125
2.900000	1	0.007000
2.916667	1	0.012250
2.933333	1	0.017000
2.950000	1	0.022375
2.966667	1	0.026750
2.983333	1	0.031500
3.000000	1	0.036625
3.016667	1	0.041000
3.033333	1	0.045375
3.050000	1	0.050000
3.066667	1	0.054125
3.083333	1	0.057750
3.100000	1	0.062000
3.116667	1	0.065125
3.133333	1	0.067875
3.150000	1	0.070125
3.166667	1	0.072875
3.183333	1	0.075250
3.200000	1	0.077875
3.216667	1	0.081000
3.233333	1	0.082750
3.250000	1	0.084500
3.266667	1	0.086375
3.283333	1	0.088000
3.300000	1	0.088875
3.316667	1	0.089875
3.333333	1	0.090750
3.350000	1	0.091750
3.366667	1	0.092125
3.383333	1	0.092625
3.400000	1	0.093125
3.416667	1	0.093500
3.433333	1	0.093750
3.450000	1	0.093875
3.466667	1	0.094500
3.483333	1	0.094375
3.500000	1	0.094625
3.516667	1	0.095125
3.533333	1	0.095375
3.550000	1	0.095500
3.566667	1	0.095250
3.583333	1	0.095000
3.600000	1	0.095625
3.616667	1	0.095000
3.633333	1	0.095375
3.650000	1	0.095625
3.666667	1	0.095625
3.683333	1	0.095625
3.700000	1	0.095250
3.716667	1	0.095125
3.733333	1	0.095250
3.750000	1	0.095250
3.766667	1	0.095625
3.783333	1	0.095625
3.800000	1	0.095750
3.816667	1	0.095750
3.833333	1	0.095500
3.850000	1	0.095875
3.866667	1	0.095375
3.883333	1	0.095250
3.900000	1	0.094875
3.916667	1	0.094875
3.933333	1	0.095000
3.950000	1	0.095750
3.966667	1	0.095625
3.983333	1	0.095250
4.000000	1	0.094625
4.016667	1	0.093875
4.033333	1	0.093375
4.050000	1	0.093000
4.066667	1	0.093000
4.083333	1	0.092125
4.100000	1	0.091000
4.116667	1	0.090375
4.133333	1	0.089625
4.150000	1	0.088750
4.166667	1	0.088000
4.183333	1	0.086625
4.200000	1	0.085250
4.216667	1	0.084375
4.233333	1	0.083125
4.250000	1	0.081375
4.266667	1	0.080125
4.283333	1	0.078750
4.300000	1	0.077875
4.316667	1	0.076500
4.333333	1	0.075875
4.350000	1	0.074375
4.366667	1	0.074625
4.383333	1	0.073625
4.400000	1	0.073250
4.416667	1	0.073000
4.433333	1	0.073375
4.450000	1	0.073250
4.466667	1	0.073875
4.483333	1	0.074625
4.500000	1	0.075875
4.516667	1	0.078125
4.533333	1	0.080125
4.550000	1	0.082750
4.566667	1	0.085625
4.583333	1	0.089125
4.600000	1	0.092125
4.616667	1	0.095750
4.633333	1	0.098750
4.650000	1	0.102625
4.666667	1	0.106500
4.683333	1	0.110375
4.700000	1	0.114625
4.716667	1	0.119125
4.733333	1	0.123250
4.750000	1	0.127875
4.766667	1	0.131875
4.783333	1	0.136250
4.800000	1	0.140875
4.816667	1	0.144750
4.833333	1	0.149250
4.850000	1	0.153375
4.866667	1	0.156875
4.883333	1	0.160625
4.900000	1	0.164750
4.916667	1	0.169000
4.933333	1	0.172500
4.950000	1	0.175875
4.966667	1	0.179250
4.983333	1	0.182875
5.000000	1	0.186000
5.016667	1	0.188000
5.033333	1	0.190375
5.050000	1	0.193000
5.066667	1	0.195000
5.083333	1	0.196375
5.100000	1	0.197875
5.116667	1	0.198625
5.133333	1	0.199875
5.150000	1	0.201500
5.166667	1	0.202000
5.183333	1	0.202625
5.200000	1	0.201875
5.216667	1	0.201875
5.233333	1	0.201000
5.250000	1	0.199625
5.266667	1	0.197875
5.283333	1	0.195750
5.300000	1	0.193125
5.316667	1	0.190625
5.333333	1	0.186875
5.350000	1	0.183625
5.366667	1	0.180250
5.383333	1	0.175875
5.400000	1	0.171500
5.416667	1	0.166125
5.433333	1	0.160375
5.450000	1	0.155375
5.466667	1	0.149625
5.483333	1	0.143500
5.500000	1	0.137625
5.516667	1	0.131375
5.533333	1	0.125000
5.550000	1	0.118750
5.566667	1	0.113125
5.583333	1	0.107500
5.600000	1	0.101875
5.616667	1	0.095625
5.633333	1	0.090375
5.650000	1	0.085125
5.666667	1	0.080750
5.683333	1	0.075750
5.700000	1	0.072000
5.716667	1	0.068500
5.733333	1	0.065625
5.750000	1	0.063125
5.766667	1	0.060750
5.783333	1	0.059375
5.800000	1	0.058250
5.816667	1	0.057000
5.833333	1	0.056500
5.850000	1	0.056375
5.866667	1	0.056250
5.883333	1	0.057125
5.900000	1	0.058500
5.916667	1	0.059750
5.933333	1	0.062000
5.950000	1	0.063875
5.966667	1	0.066000
5.983333	1	0.068875
6.000000	1	0.071375
6.016667	1	0.073875
6.033333	1	0.076000
6.050000	1	0.078250
6.066667	1	0.080375
6.083333	1	0.082750
6.100000	1	0.084875
6.116667	1	0.087000
6.133333	1	0.088500
6.150000	1	0.090375
6.166667	1	0.092125
6.183333	1	0.093375
6.200000	1	0.094375
6.216667	1	0.094750
6.233333	1	0.095125
6.250000	1	0.095250
6.266667	1	0.095375
6.283333	1	0.094750
6.300000	1	0.094500
6.316667	1	0.094625
6.333333	1	0.093500
6.350000	1	0.092625
6.366667	1	0.091500
6.383333	1	0.089875
6.400000	1	0.089000
6.416667	1	0.087250
6.433333	1	0.086000
6.450000	1	0.084750
6.466667	1	0.083250
6.483333	1	0.081750
6.500000	1	0.080000
6.516667	1	0.078250
6.533333	1	0.076875
6.550000	1	0.075750
6.566667	1	0.074625
6.583333	1	0.073500
6.600000	1	0.072250
6.616667	1	0.071500
6.633333	1	0.070875
6.650000	1	0.070500
6.666667	1	0.070625
6.683333	1	0.070375
6.700000	1	0.069875
6.716667	1	0.070125
6.733333	1	0.070500
6.750000	1	0.070625
6.766667	1	0.071500
6.783333	1	0.072250
6.800000	1	0.074500
6.816667	1	0.076750
6.833333	1	0.078750
6.850000	1	0.081375
6.866667	1	0.084875
6.883333	1	0.088125
6.900000	1	0.091125
6.916667	1	0.094750
6.933333	1	0.098125
6.950000	1	0.102125
6.966667	1	0.106250
6.983333	1	0.110500
7.000000	1	0.114750
7.016667	1	0.118625
7.033333	1	0.123625
7.050000	1	0.127875
7.066667	1	0.132875
7.083333	1	0.137250
7.100000	1	0.142000
7.116667	1	0.145875
7.133333	1	0.149625
7.150000	1	0.153250
7.166667	1	0.156750
7.183333	1	0.160250
7.200000	1	0.163125
7.216667	1	0.165500
7.233333	1	0.167625
7.250000	1	0.169625
7.266667	1	0.170750
7.283333	1	0.171500
7.300000	1	0.172125
7.316667	1	0.172000
7.333333	1	0.171875
7.350000	1	0.170750
7.366667	1	0.169125
7.383333	1	0.167875
7.400000	1	0.165625
7.416667	1	0.163500
7.433333	1	0.160750
7.450000	1	0.157750
7.466667	1	0.153750
7.483333	1	0.149750
7.500000	1	0.145625
7.516667	1	0.141250
7.533333	1	0.136875
7.550000	1	0.132125
7.566667	1	0.127250
7.583333	1	0.121875
7.600000	1	0.117375
7.616667	1	0.112250
7.633333	1	0.106750
7.650000	1	0.100750
7.666667	1	0.095000
7.683333	1	0.089875
7.700000	1	0.084500
7.716667	1	0.079500
7.733333	1	0.074875
7.750000	1	0.069625
7.766667	1	0.065375
7.783333	1	0.060625
7.800000	1	0.056125
7.816667	1	0.052000
7.833333	1	0.047250
7.850000	1	0.043125
7.866667	1	0.039500
7.883333	1	0.036250
7.900000	1	0.032500
7.916667	1	0.029000
7.933333	1	0.025375
7.950000	1	0.022750
7.966667	1	0.019625
7.983333	1	0.016500
8.000000	1	0.013000
8.016667	1	0.010125
8.033333	1	0.007875
8.050000	1	0.005625
8.066667	1	0.003500
8.083333	1	0.000250
8.100000	1	-0.002125
8.116667	1	-0.004625
8.133333	1	-0.006750
8.150000	1	-0.009000
8.166667	1	-0.011125
8.183333	1	-0.014500
8.200000	1	-0.017000
8.216667	1	-0.019500
8.233333	1	-0.022250
8.250000	1	-0.024500
8.266667	1	-0.026750
8.283333	1	-0.029000
8.300000	1	-0.030625
8.316667	1	-0.032375
8.333333	1	-0.033125
8.350000	1	-0.034250
8.366667	1	-0.036250
8.383333	1	-0.038000
8.400000	1	-0.038750
8.416667	1	-0.040375
8.433333	1	-0.041250
8.450000	1	-0.042500
8.466667	1	-0.043250
8.483333	1	-0.044750
8.500000	1	-0.045500
8.516667	1	-0.046250
8.533333	1	-0.046375
8.550000	1	-0.047125
8.566667	1	-0.047250
8.583333	1	-0.047125
8.600000	1	-0.048250
8.616667	1	-0.048375
8.633333	1	-0.049250
8.650000	1	-0.049375
8.666667	1	-0.050125
8.683333	1	-0.049750
8.700000	1	-0.049500
8.716667	1	-0.048750
8.733333	1	-0.048375
8.750000	1	-0.047125
8.766667	1	-0.046375
8.783333	1	-0.045750
8.800000	1	-0.044250
8.816667	1	-0.043625
8.833333	1	-0.041875
8.850000	1	-0.040500
8.866667	1	-0.039125
8.883333	1	-0.036500
8.900000	1	-0.034000
8.916667	1	-0.031625
8.933333	1	-0.029375
8.950000	1	-0.026375
8.966667	1	-0.023125
8.983333	1	-0.020000
9.000000	1	-0.016375
9.016667	1	-0.013375
9.033333	1	-0.009875
9.050000	1	-0.006500
9.066667	1	-0.002500
9.083333	1	0.000750
9.100000	1	0.004750
9.116667	1	0.008250
9.133333	1	0.011500
9.150000	1	0.015125
9.166667	1	0.018750
9.183333	1	0.022375
9.200000	1	0.025250
9.216667	1	0.027750
9.233333	1	0.030375
9.250000	1	0.032750
9.266667	1	0.035250
9.283333	1	0.037000
9.300000	1	0.039250
9.316667	1	0.041500
9.333333	1	0.044250
9.350000	1	0.045875
9.366667	1	0.047125
9.383333	1	0.048000
9.400000	1	0.048625
9.416667	1	0.050000
9.433333	1	0.050125
9.450000	1	0.050500
9.466667	1	0.050250
9.483333	1	0.050250
9.500000	1	0.050875
9.516667	1	0.050875
9.533333	1	0.050000
9.550000	1	0.049250
9.566667	1	0.048875
9.583333	1	0.048375
9.600000	1	0.048250
9.616667	1	0.046875
9.633333	1	0.045875
9.650000	1	0.044250
9.666667	1	0.042750
9.683333	1	0.042125
9.700000	1	0.040625
9.716667	1	0.039000
9.733333	1	0.037000
9.750000	1	0.035875
9.766667	1	0.034750
9.783333	1	0.033500
9.800000	1	0.032000
9.816667	1	0.029875
9.833333	1	0.028500
9.850000	1	0.026750
9.866667	1	0.024750
9.883333	1	0.022750
9.900000	1	0.020875
9.916667	1	0.018875
9.933333	1	0.017375
9.950000	1	0.016250
9.966667	1	0.015500
9.983333	1	0.014000
10.000000	1	0.012000
10.016667	1	0.010125
10.033333	1	0.008500
10.050000	1	0.007625
10.066667	1	0.007250
10.083333	1	0.006875
10.100000	1	0.007000
10.116667	1	0.007500
10.133333	1	0.008250
10.150000	1	0.009125
10.166667	1	0.011250
10.183333	1	0.015000
10.200000	1	0.019625
10.216667	1	0.025625
10.233333	1	0.032750
10.250000	1	0.042375
10.266667	1	0.053375
10.283333	1	0.066875
10.300000	1	0.083125
10.316667	1	0.100250
10.333333	1	0.119875
10.350000	1	0.139875
10.366667	1	0.158875
10.383333	1	0.172875
10.400000	1	0.178875
10.416667	1	0.172250
10.433333	1	0.150500
10.450000	1	0.112625
10.466667	1	0.063000
10.483333	1	0.014250
10.500000	1	-0.012375
10.516667	1	0.014625
10.533333	1	0.138500
10.550000	1	0.411875
10.566667	1	0.891500
10.583333	1	1.638750
10.600000	1	2.712125
10.616667	1	4.162750
10.633333	1	6.030375
10.650000	1	8.342875
10.666667	1	11.122000
10.683333	1	14.375000
10.700000	1	18.100250
10.716667	1	22.280250
10.733333	1	26.890000
10.750000	1	31.889875
10.766667	1	37.221625
10.783333	1	42.821875
10.800000	1	48.600750
10.816667	1	54.422875
10.833333	1	60.088375
10.850000	1	65.317000
10.866667	1	69.720750
10.883333	1	72.803500
10.900000	1	74.030625
10.916667	1	72.968375
10.933333	1	69.456125
10.950000	1	63.733875
10.966667	1	56.417750
10.983333	1	48.319250
11.000000	1	40.224625
11.016667	1	32.734875
11.033333	1	26.196750
11.050000	1	20.725750
11.066667	1	16.291500
11.083333	1	12.782125
11.100000	1	10.056375
11.116667	1	7.970375
11.133333	1	6.389125
11.150000	1	5.198375
11.166667	1	4.303875
11.183333	1	3.630250
11.200000	1	3.121250
11.216667	1	2.733000
11.233333	1	2.434500
11.250000	1	2.202625
11.266667	1	2.019375
11.283333	1	1.870750
11.300000	1	1.749125
11.316667	1	1.647500
11.333333	1	1.559625
11.350000	1	1.481875
11.366667	1	1.412750
11.383333	1	1.350375
11.400000	1	1.293875
11.416667	1	1.242250
11.433333	1	1.196000
11.450000	1	1.153750
11.466667	1	1.116375
11.483333	1	1.083625
11.500000	1	1.054750
11.516667	1	1.030500
11.533333	1	1.010375
11.550000	1	0.994500
11.566667	1	0.982250
11.583333	1	0.975625
11.600000	1	0.973375
11.616667	1	0.976250
11.633333	1	0.983500
11.650000	1	0.995875
11.666667	1	1.012375
11.683333	1	1.033500
11.700000	1	1.056875
11.716667	1	1.084125
11.733333	1	1.112375
11.750000	1	1.140125
11.766667	1	1.165875
11.783333	1	1.188000
11.800000	1	1.206125
11.816667	1	1.218750
11.833333	1	1.226000
11.850000	1	1.227125
11.866667	1	1.222750
11.883333	1	1.213750
11.900000	1	1.201125
11.916667	1	1.184750
11.933333	1	1.166875
11.950000	1	1.148125
11.966667	1	1.130125
11.983333	1	1.112625
12.000000	1	1.096125
12.016667	1	1.081250
12.033333	1	1.068500
12.050000	1	1.057625
12.066667	1	1.048000
12.083333	1	1.041000
12.100000	1	1.035250
12.116667	1	1.031250
12.133333	1	1.029250
12.150000	1	1.027625
12.166667	1	1.027125
12.183333	1	1.028250
12.200000	1	1.029625
12.216667	1	1.032500
12.233333	1	1.037750
12.250000	1	1.045875
12.266667	1	1.057000
12.283333	1	1.073125
12.300000	1	1.096000
12.316667	1	1.128750
12.333333	1	1.175625
12.350000	1	1.242250
12.366667	1	1.336250
12.383333	1	1.469250
12.400000	1	1.654625
12.416667	1	1.911250
12.433333	1	2.263500
12.450000	1	2.743375
12.466667	1	3.391000
12.483333	1	4.255125
12.500000	1	5.394000
12.516667	1	6.875500
12.533333	1	8.772375
12.550000	1	11.161125
12.566667	1	14.117625
12.583333	1	17.703000
12.600000	1	21.951625
12.616667	1	26.861625
12.633333	1	32.397000
12.650000	1	38.467750
12.666667	1	44.927875
12.683333	1	51.567750
12.700000	1	58.130625
12.716667	1	64.323750
12.733333	1	69.851500
12.750000	1	74.433000
12.766667	1	77.837375
12.783333	1	79.906250
12.800000	1	80.568250
12.816667	1	79.850000
12.833333	1	77.861375
12.850000	1	74.784250
12.866667	1	70.859500
12.883333	1	66.357250
12.900000	1	61.552875
12.916667	1	56.702875
12.933333	1	52.024750
12.950000	1	47.687375
12.966667	1	43.802500
12.983333	1	40.438875
13.000000	1	37.620625
13.016667	1	35.338250
13.033333	1	33.557375
13.050000	1	32.231625
13.066667	1	31.308500
13.083333	1	30.733875
13.100000	1	30.456500
13.116667	1	30.428125
13.133333	1	30.606000
13.150000	1	30.955750
13.166667	1	31.445625
13.183333	1	32.052000
13.200000	1	32.752125
13.216667	1	33.531000
13.233333	1	34.376375
13.250000	1	35.279000
13.266667	1	36.232125
13.283333	1	37.228500
13.300000	1	38.264625
13.316667	1	39.337000
13.333333	1	40.443375
13.350000	1	41.580750
13.366667	1	42.748500
13.383333	1	43.945625
13.400000	1	45.170375
13.416667	1	46.424125
13.433333	1	47.707250
13.450000	1	49.019875
13.466667	1	50.363375
13.483333	1	51.737875
13.500000	1	53.143125
13.516667	1	54.579250
13.533333	1	56.045750
13.550000	1	57.543500
13.566667	1	59.073250
13.583333	1	60.633000
13.600000	1	62.222625
13.616667	1	63.844000
13.633333	1	65.498625
13.650000	1	67.189000
13.666667	1	68.915000
13.683333	1	70.677750
13.700000	1	72.476375
13.716667	1	74.309000
13.733333	1	76.159625
13.750000	1	77.973750
13.766667	1	79.623375
13.783333	1	80.899250
13.800000	1	81.562000
13.816667	1	81.402875
13.833333	1	80.258375
13.850000	1	77.963375
13.866667	1	74.315375
13.883333	1	69.109625
13.900000	1	62.301625
13.916667	1	54.200250
13.933333	1	45.498750
13.950000	1	37.046875
13.966667	1	29.536000
13.983333	1	23.306750
14.000000	1	18.374750
14.016667	1	14.569500
14.033333	1	11.677125
14.050000	1	9.498125
14.066667	1	7.871000
14.083333	1	6.665750
14.100000	1	5.776125
14.116667	1	5.119625
14.133333	1	4.631375
14.150000	1	4.263500
14.166667	1	3.981500
14.183333	1	3.760625
14.200000	1	3.583125
14.216667	1	3.437625
14.233333	1	3.314875
14.250000	1	3.210250
14.266667	1	3.118250
14.283333	1	3.036750
14.300000	1	2.963625
14.316667	1	2.897250
14.333333	1	2.836250
14.350000	1	2.779625
14.366667	1	2.728500
14.383333	1	2.680875
14.400000	1	2.636625
14.416667	1	2.595375
14.433333	1	2.557750
14.450000	1	2.522625
14.466667	1	2.489625
14.483333	1	2.459875
14.500000	1	2.432125
14.516667	1	2.406000
14.533333	1	2.380500
14.550000	1	2.356875
14.566667	1	2.333375
14.583333	1	2.309625
14.600000	1	2.286750
14.616667	1	2.263000
14.633333	1	2.239000
14.650000	1	2.214875
14.666667	1	2.190250
14.683333	1	2.164250
14.700000	1	2.137125
14.716667	1	2.109125
14.733333	1	2.080750
14.750000	1	2.052125
14.766667	1	2.023375
14.783333	1	1.994375
14.800000	1	1.965125
14.816667	1	1.935375
14.833333	1	1.907000
14.850000	1	1.879000
14.866667	1	1.851500
14.883333	1	1.824250
14.900000	1	1.796750
14.916667	1	1.769500
14.933333	1	1.742625
14.950000	1	1.716500
14.966667	1	1.690750
14.983333	1	1.665500
15.000000	1	1.641000
15.016667	1	1.617375
15.033333	1	1.593750
15.050000	1	1.570375
15.066667	1	1.548375
15.083333	1	1.527750
15.100000	1	1.507500
15.116667	1	1.487750
15.133333	1	1.468875
15.150000	1	1.452000
15.166667	1	1.436250
15.183333	1	1.421875
15.200000	1	1.408875
15.216667	1	1.396375
15.233333	1	1.385875
15.250000	1	1.376625
15.266667	1	1.369875
15.283333	1	1.365250
15.300000	1	1.362875
15.316667	1	1.363875
15.333333	1	1.367875
15.350000	1	1.375625
15.366667	1	1.388000
15.383333	1	1.404125
15.400000	1	1.424875
15.416667	1	1.449375
15.433333	1	1.478625
15.450000	1	1.511250
15.466667	1	1.546750
15.483333	1	1.583750
15.500000	1	1.620875
15.516667	1	1.656250
15.533333	1	1.687250
15.550000	1	1.713500
15.566667	1	1.733250
15.583333	1	1.745875
15.600000	1	1.750250
15.616667	1	1.745750
15.633333	1	1.733875
15.650000	1	1.715125
15.666667	1	1.690000
15.683333	1	1.660875
15.700000	1	1.628750
15.716667	1	1.595375
15.733333	1	1.561500
15.750000	1	1.528625
15.766667	1	1.496250
15.783333	1	1.465000
15.800000	1	1.435000
15.816667	1	1.407125
15.833333	1	1.380250
15.850000	1	1.354250
15.866667	1	1.329250
15.883333	1	1.304875
15.900000	1	1.281250
15.916667	1	1.257875
15.933333	1	1.237125
15.950000	1	1.216500
15.966667	1	1.198000
15.983333	1	1.181125
16.000000	1	1.165875
16.016667	1	1.152750
16.033333	1	1.141750
16.050000	1	1.132375
16.066667	1	1.125500
16.083333	1	1.120125
16.100000	1	1.116000
16.116667	1	1.112875
16.133333	1	1.111250
16.150000	1	1.110500
16.166667	1	1.111375
16.183333	1	1.112250
16.200000	1	1.112750
16.216667	1	1.113625
16.233333	1	1.113750
16.250000	1	1.113625
16.266667	1	1.112500
16.283333	1	1.110000
16.300000	1	1.107125
16.316667	1	1.102750
16.333333	1	1.097625
16.350000	1	1.092250
16.366667	1	1.085750
16.383333	1	1.078500
16.400000	1	1.070250
16.416667	1	1.062625
16.433333	1	1.054375
16.450000	1	1.047250
16.466667	1	1.041125
16.483333	1	1.034875
16.500000	1	1.030250
16.516667	1	1.026875
16.533333	1	1.024375
16.550000	1	1.023125
16.566667	1	1.023625
16.583333	1	1.025250
16.600000	1	1.027750
16.616667	1	1.030625
16.633333	1	1.033500
16.650000	1	1.036500
16.666667	1	1.039375
16.683333	1	1.040875
16.700000	1	1.041125
16.716667	1	1.041125
16.733333	1	1.040375
16.750000	1	1.038875
16.766667	1	1.037000
16.783333	1	1.034750
16.800000	1	1.033000
16.816667	1	1.030500
16.833333	1	1.029125
16.850000	1	1.028625
16.866667	1	1.029125
16.883333	1	1.029500
16.900000	1	1.030125
16.916667	1	1.031000
16.933333	1	1.032875
16.950000	1	1.033250
16.966667	1	1.033125
16.983333	1	1.033125
17.000000	1	1.032250
17.016667	1	1.030250
17.033333	1	1.028000
17.050000	1	1.024625
17.066667	1	1.020125
17.083333	1	1.016625
17.100000	1	1.012625
17.116667	1	1.009250
17.133333	1	1.005750
17.150000	1	1.003250
17.166667	1	1.001750
17.183333	1	1.001250
17.200000	1	1.002250
17.216667	1	1.003500
17.233333	1	1.005875
17.250000	1	1.009125
17.266667	1	1.013250
17.283333	1	1.018875
17.300000	1	1.024500
17.316667	1	1.030750
17.333333	1	1.037875
17.350000	1	1.045500
17.366667	1	1.052875
17.383333	1	1.060500
17.400000	1	1.067625
17.416667	1	1.075125
17.433333	1	1.081500
17.450000	1	1.087125
17.466667	1	1.091375
17.483333	1	1.094625
17.500000	1	1.096500
17.516667	1	1.097000
17.533333	1	1.095500
17.550000	1	1.092500
17.566667	1	1.087625
17.583333	1	1.082125
17.600000	1	1.075000
17.616667	1	1.065625
17.633333	1	1.056250
17.650000	1	1.045125
17.666667	1	1.033625
17.683333	1	1.021750
17.700000	1	1.009000
17.716667	1	0.997000
17.733333	1	0.985125
17.750000	1	0.973625
17.766667	1	0.962625
17.783333	1	0.951875
17.800000	1	0.941250
17.816667	1	0.931750
17.833333	1	0.922625
17.850000	1	0.914125
17.866667	1	0.906375
17.883333	1	0.898875
17.900000	1	0.891875
17.916667	1	0.885500
17.933333	1	0.879625
17.950000	1	0.873500
17.966667	1	0.868250
17.983333	1	0.863750
18.000000	1	0.859625
18.016667	1	0.855125
18.033333	1	0.850625
18.050000	1	0.846000
18.066667	1	0.841500
18.083333	1	0.836625
18.100000	1	0.831750
18.116667	1	0.826125
18.133333	1	0.821250
18.150000	1	0.816750
18.166667	1	0.812125
18.183333	1	0.807625
18.200000	1	0.802750
18.216667	1	0.799125
18.233333	1	0.794875
18.250000	1	0.791625
18.266667	1	0.788750
18.283333	1	0.786000
18.300000	1	0.783875
18.316667	1	0.782500
18.333333	1	0.781875
18.350000	1	0.781875
18.366667	1	0.781750
18.383333	1	0.782375
18.400000	1	0.783875
18.416667	1	0.785500
18.433333	1	0.787375
18.450000	1	0.790250
18.466667	1	0.793750
18.483333	1	0.798500
18.500000	1	0.804250
18.516667	1	0.811250
18.533333	1	0.820125
18.550000	1	0.830250
18.566667	1	0.842625
18.583333	1	0.856875
18.600000	1	0.873125
18.616667	1	0.892125
18.633333	1	0.911875
18.650000	1	0.934250
18.666667	1	0.958625
18.683333	1	0.985000
18.700000	1	1.013250
18.716667	1	1.042875
18.733333	1	1.073500
18.750000	1	1.105250
18.766667	1	1.137875
18.783333	1	1.170875
18.800000	1	1.204250
18.816667	1	1.236750
18.833333	1	1.268000
18.850000	1	1.297125
18.866667	1	1.324125
18.883333	1	1.347625
18.900000	1	1.367250
18.916667	1	1.382500
18.933333	1	1.392125
18.950000	1	1.397625
18.966667	1	1.396125
18.983333	1	1.387875
19.000000	1	1.373250
19.016667	1	1.352750
19.033333	1	1.326625
19.050000	1	1.294000
19.066667	1	1.256250
19.083333	1	1.214000
19.100000	1	1.168750
19.116667	1	1.121500
19.133333	1	1.072375
19.150000	1	1.022750
19.166667	1	0.974625
19.183333	1	0.928000
19.200000	1	0.883125
19.216667	1	0.841500
19.233333	1	0.803000
19.250000	1	0.769500
19.266667	1	0.740125
19.283333	1	0.716250
19.300000	1	0.696375
19.316667	1	0.681875
19.333333	1	0.672375
19.350000	1	0.668500
19.366667	1	0.669500
19.383333	1	0.674625
19.400000	1	0.685125
19.416667	1	0.700375
19.433333	1	0.720250
19.450000	1	0.743625
19.466667	1	0.770625
19.483333	1	0.800500
19.500000	1	0.832750
19.516667	1	0.867125
19.533333	1	0.902000
19.550000	1	0.937750
19.566667	1	0.972250
19.583333	1	1.004750
19.600000	1	1.035250
19.616667	1	1.061500
19.633333	1	1.084125
19.650000	1	1.101000
19.666667	1	1.113125
19.683333	1	1.119000
19.700000	1	1.120000
19.716667	1	1.115000
19.733333	1	1.104625
19.750000	1	1.089125
19.766667	1	1.070000
19.783333	1	1.046875
19.800000	1	1.020000
19.816667	1	0.990500
19.833333	1	0.959125
19.850000	1	0.926250
19.866667	1	0.893000
19.883333	1	0.859500
19.900000	1	0.826125
19.916667	1	0.794000
19.933333	1	0.763125
19.950000	1	0.733500
19.966667	1	0.706250
19.983333	1	0.680125
20.000000	1	0.656625
20.016667	1	0.635750
20.033333	1	0.616750
20.050000	1	0.600250
20.066667	1	0.586875
20.083333	1	0.575375
20.100000	1	0.566750
20.116667	1	0.560500
20.133333	1	0.557500
20.150000	1	0.556250
20.166667	1	0.557500
20.183333	1	0.561000
20.200000	1	0.566750
20.216667	1	0.573625
20.233333	1	0.582000
20.250000	1	0.591375
20.266667	1	0.602625
20.283333	1	0.613375
20.300000	1	0.623500
20.316667	1	0.632375
20.333333	1	0.640375
20.350000	1	0.646625
20.366667	1	0.649750
20.383333	1	0.650875
20.400000	1	0.650000
20.416667	1	0.646000
20.433333	1	0.640250
20.450000	1	0.632625
20.466667	1	0.623250
20.483333	1	0.613750
20.500000	1	0.604750
20.516667	1	0.595750
20.533333	1	0.589500
20.550000	1	0.585375
20.566667	1	0.586375
20.583333	1	0.592750
20.600000	1	0.604375
20.616667	1	0.623000
20.633333	1	0.647875
20.650000	1	0.680375
20.666667	1	0.720750
20.683333	1	0.768625
20.700000	1	0.823375
20.716667	1	0.885000
20.733333	1	0.952375
20.750000	1	1.024375
20.766667	1	1.098750
20.783333	1	1.174625
20.800000	1	1.249000
20.816667	1	1.319875
20.833333	1	1.385375
20.850000	1	1.442750
20.866667	1	1.490500
20.883333	1	1.526125
20.900000	1	1.549375
20.916667	1	1.559750
20.933333	1	1.555375
20.950000	1	1.537500
20.966667	1	1.506500
20.983333	1	1.463750
21.000000	1	1.411375
21.016667	1	1.350375
21.033333	1	1.283000
21.050000	1	1.212250
21.066667	1	1.139125
21.083333	1	1.065500
21.100000	1	0.992875
21.116667	1	0.924250
21.133333	1	0.858750
21.150000	1	0.798000
21.166667	1	0.742250
21.183333	1	0.691375
21.200000	1	0.646250
21.216667	1	0.606125
21.233333	1	0.570125
21.250000	1	0.539125
21.266667	1	0.512625
21.283333	1	0.490000
21.300000	1	0.470500
21.316667	1	0.453500
21.333333	1	0.440500
21.350000	1	0.429375
21.366667	1	0.420250
21.383333	1	0.411750
21.400000	1	0.404875
21.416667	1	0.398375
21.433333	1	0.393375
21.450000	1	0.388875
21.466667	1	0.386125
21.483333	1	0.383750
21.500000	1	0.381250
21.516667	1	0.379875
21.533333	1	0.379250
21.550000	1	0.379000
21.566667	1	0.379125
21.583333	1	0.381250
21.600000	1	0.383625
21.616667	1	0.387125
21.633333	1	0.392125
21.650000	1	0.398750
21.666667	1	0.406875
21.683333	1	0.416500
21.700000	1	0.428000
21.716667	1	0.440875
21.733333	1	0.456125
21.750000	1	0.473125
21.766667	1	0.491250
21.783333	1	0.511500
21.800000	1	0.533875
21.816667	1	0.557875
21.833333	1	0.582625
21.850000	1	0.608625
21.866667	1	0.635625
21.883333	1	0.663625
21.900000	1	0.691500
21.916667	1	0.720500
21.933333	1	0.749000
21.950000	1	0.776500
21.966667	1	0.802000
21.983333	1	0.826250
22.000000	1	0.847500
22.016667	1	0.866250
22.033333	1	0.882625
22.050000	1	0.894875
22.066667	1	0.904625
22.083333	1	0.910500
22.100000	1	0.912375
22.116667	1	0.911125
22.133333	1	0.906000
22.150000	1	0.898250
22.166667	1	0.886875
22.183333	1	0.872750
22.200000	1	0.856000
22.216667	1	0.837500
22.233333	1	0.817500
22.250000	1	0.795500
22.266667	1	0.773250
22.283333	1	0.749625
22.300000	1	0.725500
22.316667	1	0.700750
22.333333	1	0.675875
22.350000	1	0.651500
22.366667	1	0.627000
22.383333	1	0.602750
22.400000	1	0.579750
22.416667	1	0.556875
22.433333	1	0.534875
22.450000	1	0.513250
22.466667	1	0.493000
22.483333	1	0.473875
22.500000	1	0.455375
22.516667	1	0.438375
22.533333	1	0.421125
22.550000	1	0.404875
22.566667	1	0.389750
22.583333	1	0.376125
22.600000	1	0.362875
22.616667	1	0.350000
22.633333	1	0.338000
22.650000	1	0.327750
22.666667	1	0.318000
22.683333	1	0.307875
22.700000	1	0.299125
22.716667	1	0.290750
22.733333	1	0.282875
22.750000	1	0.276000
22.766667	1	0.269500
22.783333	1	0.263625
22.800000	1	0.258125
22.816667	1	0.253250
22.833333	1	0.248750
22.850000	1	0.244375
22.866667	1	0.241125
22.883333	1	0.238250
22.900000	1	0.236500
22.916667	1	0.235000
22.933333	1	0.234250
22.950000	1	0.234500
22.966667	1	0.234625
22.983333	1	0.234625
23.000000	1	0.235500
23.016667	1	0.236375
23.033333	1	0.238375
23.050000	1	0.240625
23.066667	1	0.243250
23.083333	1	0.245625
23.100000	1	0.248000
23.116667	1	0.251125
23.133333	1	0.253875
23.150000	1	0.256875
23.166667	1	0.259625
23.183333	1	0.263000
23.200000	1	0.266750
23.216667	1	0.269750
23.233333	1	0.274000
23.250000	1	0.278375
23.266667	1	0.282750
23.283333	1	0.287875
23.300000	1	0.294000
23.316667	1	0.301500
23.333333	1	0.311000
23.350000	1	0.322750
23.366667	1	0.337500
23.383333	1	0.354875
23.400000	1	0.377125
23.416667	1	0.403750
23.433333	1	0.435625
23.450000	1	0.474500
23.466667	1	0.520000
23.483333	1	0.574125
23.500000	1	0.637625
23.516667	1	0.711875
23.533333	1	0.797625
23.550000	1	0.895625
23.566667	1	1.006375
23.583333	1	1.131125
23.600000	1	1.270125
23.616667	1	1.423875
23.633333	1	1.592000
23.650000	1	1.773750
23.666667	1	1.968875
23.683333	1	2.176125
23.700000	1	2.393625
23.716667	1	2.617750
23.733333	1	2.847375
23.750000	1	3.077875
23.766667	1	3.305500
23.783333	1	3.526000
23.800000	1	3.735375
23.816667	1	3.929125
23.833333	1	4.102500
23.850000	1	4.251250
23.866667	1	4.373750
23.883333	1	4.465500
23.900000	1	4.524250
23.916667	1	4.549250
23.933333	1	4.541250
23.950000	1	4.498500
23.966667	1	4.424000
23.983333	1	4.319250
24.000000	1	4.187500
24.016667	1	4.032375
24.033333	1	3.857125
24.050000	1	3.666750
24.066667	1	3.465125
24.083333	1	3.256000
24.100000	1	3.043500
24.116667	1	2.830875
24.133333	1	2.621250
24.150000	1	2.417750
24.166667	1	2.221375
24.183333	1	2.035125
24.200000	1	1.859250
24.216667	1	1.696125
24.233333	1	1.544875
24.250000	1	1.405875
24.266667	1	1.280250
24.283333	1	1.166000
24.300000	1	1.062625
24.316667	1	0.970375
24.333333	1	0.888250
24.350000	1	0.815250
24.366667	1	0.750750
24.383333	1	0.694125
24.400000	1	0.644000
24.416667	1	0.600250
24.433333	1	0.563000
24.450000	1	0.530500
24.466667	1	0.502875
24.483333	1	0.479250
24.500000	1	0.458125
24.516667	1	0.440000
24.533333	1	0.424125
24.550000	1	0.410375
24.566667	1	0.399250
24.583333	1	0.388875
24.600000	1	0.380125
24.616667	1	0.371625
24.633333	1	0.364625
24.650000	1	0.358625
24.666667	1	0.352625
24.683333	1	0.347375
24.700000	1	0.343375
24.716667	1	0.338750
24.733333	1	0.335125
24.750000	1	0.331750
24.766667	1	0.328625
24.783333	1	0.325750
24.800000	1	0.323125
24.816667	1	0.321000
24.833333	1	0.319375
24.850000	1	0.318375
24.866667	1	0.317750
24.883333	1	0.317375
24.900000	1	0.316625
24.916667	1	0.316875
24.933333	1	0.317125
24.950000	1	0.317875
24.966667	1	0.319000
24.983333	1	0.319625
25.000000	1	0.320500
25.016667	1	0.321250
25.033333	1	0.321750
25.050000	1	0.322875
25.066667	1	0.323750
25.083333	1	0.324500
25.100000	1	0.325375
25.116667	1	0.325625
25.133333	1	0.325625
25.150000	1	0.326125
25.166667	1	0.325875
25.183333	1	0.325125
25.200000	1	0.324625
25.216667	1	0.323625
25.233333	1	0.321875
25.250000	1	0.321750
25.266667	1	0.319625
25.283333	1	0.317875
25.300000	1	0.316125
25.316667	1	0.314625
25.333333	1	0.312750
25.350000	1	0.310875
25.366667	1	0.308750
25.383333	1	0.306625
25.400000	1	0.304250
25.416667	1	0.302625
25.433333	1	0.301000
25.450000	1	0.299875
25.466667	1	0.298125
25.483333	1	0.296500
25.500000	1	0.295125
25.516667	1	0.294125
25.533333	1	0.292500
25.550000	1	0.291125
25.566667	1	0.289875
25.583333	1	0.288875
25.600000	1	0.287750
25.616667	1	0.287375
25.633333	1	0.286875
25.650000	1	0.286125
25.666667	1	0.285750
25.683333	1	0.284250
25.700000	1	0.283000
25.716667	1	0.282250
25.733333	1	0.282125
25.750000	1	0.281500
25.766667	1	0.280625
25.783333	1	0.279125
25.800000	1	0.278875
25.816667	1	0.278250
25.833333	1	0.278875
25.850000	1	0.278000
25.866667	1	0.277375
25.883333	1	0.277125
25.900000	1	0.277750
25.916667	1	0.277625
25.933333	1	0.278125
25.950000	1	0.279000
25.966667	1	0.279750
25.983333	1	0.281250
26.000000	1	0.283250
26.016667	1	0.285500
26.033333	1	0.287375
26.050000	1	0.289750
26.066667	1	0.291875
26.083333	1	0.294250
26.100000	1	0.296750
26.116667	1	0.299875
26.133333	1	0.301625
26.150000	1	0.303750
26.166667	1	0.306000
26.183333	1	0.308250
26.200000	1	0.310625
26.216667	1	0.312500
26.233333	1	0.313625
26.250000	1	0.314500
26.266667	1	0.315500
26.283333	1	0.316125
26.300000	1	0.317125
26.316667	1	0.317375
26.333333	1	0.316000
26.350000	1	0.315375
26.366667	1	0.314125
26.383333	1	0.312125
26.400000	1	0.310250
26.416667	1	0.308125
26.433333	1	0.305750
26.450000	1	0.303125
26.466667	1	0.300375
26.483333	1	0.297250
26.500000	1	0.293750
26.516667	1	0.290375
26.533333	1	0.286500
26.550000	1	0.282875
26.566667	1	0.279250
26.583333	1	0.275375
26.600000	1	0.272000
26.616667	1	0.269000
26.633333	1	0.265250
26.650000	1	0.260875
26.666667	1	0.257625
26.683333	1	0.254125
26.700000	1	0.250250
26.716667	1	0.246250
26.733333	1	0.242750
26.750000	1	0.239125
26.766667	1	0.235250
26.783333	1	0.231500
26.800000	1	0.227625
26.816667	1	0.224250
26.833333	1	0.220875
26.850000	1	0.217500
26.866667	1	0.214250
26.883333	1	0.210625
26.900000	1	0.207500
26.916667	1	0.204750
26.933333	1	0.201625
26.950000	1	0.198125
26.966667	1	0.195375
26.983333	1	0.192625
27.000000	1	0.190250
27.016667	1	0.188625
27.033333	1	0.188250
27.050000	1	0.187500
27.066667	1	0.187875
27.083333	1	0.188750
27.100000	1	0.191000
27.116667	1	0.194625
27.133333	1	0.199500
27.150000	1	0.206000
27.166667	1	0.213750
27.183333	1	0.223500
27.200000	1	0.236625
27.216667	1	0.251750
27.233333	1	0.269625
27.250000	1	0.290500
27.266667	1	0.315375
27.283333	1	0.343875
27.300000	1	0.376375
27.316667	1	0.414750
27.333333	1	0.456750
27.350000	1	0.505125
27.366667	1	0.559125
27.383333	1	0.619875
27.400000	1	0.687250
27.416667	1	0.761625
27.433333	1	0.843750
27.450000	1	0.934750
27.466667	1	1.034500
27.483333	1	1.142500
27.500000	1	1.259500
27.516667	1	1.385375
27.533333	1	1.518625
27.550000	1	1.660750
27.566667	1	1.810250
27.583333	1	1.965125
27.600000	1	2.126625
27.616667	1	2.291750
27.633333	1	2.460500
27.650000	1	2.630125
27.666667	1	2.799625
27.683333	1	2.966000
27.700000	1	3.127750
27.716667	1	3.282500
27.733333	1	3.428000
27.750000	1	3.560625
27.766667	1	3.680375
27.783333	1	3.783250
27.800000	1	3.867875
27.816667	1	3.933375
27.833333	1	3.977000
27.850000	1	3.998500
27.866667	1	3.997125
27.883333	1	3.971875
27.900000	1	3.923625
27.916667	1	3.853750
27.933333	1	3.763000
27.950000	1	3.653125
27.966667	1	3.526250
27.983333	1	3.384750
28.000000	1	3.230250
28.016667	1	3.065375
28.033333	1	2.893625
28.050000	1	2.716625
28.066667	1	2.538375
28.083333	1	2.359750
28.100000	1	2.183125
28.116667	1	2.012000
28.133333	1	1.847000
28.150000	1	1.690125
28.166667	1	1.542125
28.183333	1	1.403875
28.200000	1	1.275625
28.216667	1	1.157500
28.233333	1	1.050125
28.250000	1	0.952000
28.266667	1	0.863750
28.283333	1	0.786000
28.300000	1	0.717250
28.316667	1	0.657375
28.333333	1	0.604500
28.350000	1	0.560125
28.366667	1	0.522375
28.383333	1	0.489875
28.400000	1	0.463125
28.416667	1	0.441125
28.433333	1	0.423000
28.450000	1	0.410125
28.466667	1	0.401250
28.483333	1	0.394625
28.500000	1	0.390500
28.516667	1	0.389375
28.533333	1	0.390375
28.550000	1	0.392750
28.566667	1	0.395625
28.583333	1	0.400625
28.600000	1	0.405750
28.616667	1	0.412750
28.633333	1	0.419375
28.650000	1	0.427000
28.666667	1	0.434250
28.683333	1	0.441125
28.700000	1	0.448625
28.716667	1	0.455875
28.733333	1	0.462875
28.750000	1	0.469375
28.766667	1	0.475125
28.783333	1	0.480750
28.800000	1	0.484875
28.816667	1	0.488875
28.833333	1	0.492125
28.850000	1	0.494250
28.866667	1	0.495500
28.883333	1	0.495750
28.900000	1	0.495500
28.916667	1	0.494000
28.933333	1	0.492000
28.950000	1	0.489250
28.966667	1	0.485875
28.983333	1	0.481875
29.000000	1	0.476500
29.016667	1	0.471250
29.033333	1	0.464375
29.050000	1	0.457125
29.066667	1	0.450000
29.083333	1	0.442500
29.100000	1	0.433875
29.116667	1	0.424875
29.133333	1	0.415875
29.150000	1	0.406375
29.166667	1	0.397875
29.183333	1	0.388625
29.200000	1	0.379125
29.216667	1	0.369875
29.233333	1	0.360625
29.250000	1	0.352000
29.266667	1	0.343000
29.283333	1	0.334500
29.300000	1	0.326625
29.316667	1	0.318500
29.333333	1	0.309500
29.350000	1	0.302000
29.366667	1	0.294500
29.383333	1	0.286875
29.400000	1	0.279500
29.416667	1	0.273000
29.433333	1	0.266500
29.450000	1	0.260125
29.466667	1	0.254000
29.483333	1	0.248625
29.500000	1	0.243000
29.516667	1	0.237500
29.533333	1	0.232500
29.550000	1	0.228000
29.566667	1	0.223250
29.583333	1	0.218875
29.600000	1	0.215125
29.616667	1	0.212000
29.633333	1	0.208375
29.650000	1	0.204750
29.666667	1	0.201500
29.683333	1	0.199125
29.700000	1	0.196375
29.716667	1	0.194000
29.733333	1	0.191750
29.750000	1	0.189125
29.766667	1	0.187750
29.783333	1	0.185375
29.800000	1	0.184000
29.816667	1	0.182375
29.833333	1	0.181500
29.850000	1	0.180125
29.866667	1	0.178750
29.883333	1	0.177250
29.900000	1	0.176625
29.916667	1	0.175625
29.933333	1	0.174625
29.950000	1	0.173750
29.966667	1	0.172000
29.983333	1	0.170250
30.000000	1	0.169125
30.016667	1	0.167500
30.033333	1	0.165875
30.050000	1	0.164750
30.066667	1	0.163500
30.083333	1	0.160875
30.100000	1	0.157875
30.116667	1	0.155375
30.133333	1	0.153250
30.150000	1	0.150625
30.166667	1	0.147625
30.183333	1	0.144750
30.200000	1	0.141375
30.216667	1	0.138250
30.233333	1	0.134625
30.250000	1	0.131625
30.266667	1	0.128125
30.283333	1	0.124750
30.300000	1	0.121125
30.316667	1	0.117125
30.333333	1	0.113500
30.350000	1	0.110125
30.366667	1	0.107625
30.383333	1	0.104875
30.400000	1	0.101750
30.416667	1	0.098875
30.433333	1	0.096500
30.450000	1	0.095125
30.466667	1	0.093750
30.483333	1	0.092500
30.500000	1	0.093000
30.516667	1	0.093750
30.533333	1	0.095000
30.550000	1	0.096625
30.566667	1	0.099250
30.583333	1	0.103250
30.600000	1	0.108250
30.616667	1	0.114500
30.633333	1	0.121750
30.650000	1	0.130875
30.666667	1	0.141125
30.683333	1	0.152875
30.700000	1	0.166375
30.716667	1	0.182125
30.733333	1	0.199500
30.750000	1	0.220750
30.766667	1	0.244500
30.783333	1	0.270875
30.800000	1	0.300875
30.816667	1	0.334500
30.833333	1	0.374375
30.850000	1	0.418375
30.866667	1	0.468500
30.883333	1	0.524750
30.900000	1	0.588125
30.916667	1	0.659750
30.933333	1	0.739250
30.950000	1	0.828625
30.966667	1	0.928375
30.983333	1	1.040250
31.000000	1	1.164500
31.016667	1	1.301375
31.033333	1	1.452125
31.050000	1	1.617500
31.066667	1	1.798375
31.083333	1	1.994125
31.100000	1	2.206000
31.116667	1	2.433000
31.133333	1	2.675375
31.150000	1	2.932875
31.166667	1	3.204250
31.183333	1	3.489500
31.200000	1	3.786375
31.216667	1	4.094250
31.233333	1	4.409750
31.250000	1	4.730500
31.266667	1	5.052500
31.283333	1	5.374125
31.300000	1	5.692000
31.316667	1	6.002375
31.333333	1	6.302125
31.350000	1	6.587125
31.366667	1	6.854750
31.383333	1	7.101125
31.400000	1	7.322250
31.416667	1	7.515750
31.433333	1	7.679125
31.450000	1	7.809375
31.466667	1	7.906000
31.483333	1	7.966750
31.500000	1	7.991500
31.516667	1	7.979125
31.533333	1	7.931500
31.550000	1	7.848750
31.566667	1	7.732625
31.583333	1	7.585250
31.600000	1	7.408375
31.616667	1	7.203875
31.633333	1	6.975875
31.650000	1	6.727375
31.666667	1	6.460750
31.683333	1	6.181250
31.700000	1	5.888875
31.716667	1	5.591000
31.733333	1	5.288375
31.750000	1	4.984000
31.766667	1	4.680750
31.783333	1	4.381625
31.800000	1	4.087000
31.816667	1	3.800125
31.833333	1	3.523125
31.850000	1	3.256500
31.866667	1	3.002625
31.883333	1	2.760375
31.900000	1	2.531500
31.916667	1	2.316875
31.933333	1	2.116000
31.950000	1	1.928625
31.966667	1	1.755000
31.983333	1	1.593875
32.000000	1	1.445625
32.016667	1	1.308875
32.033333	1	1.184000
32.050000	1	1.071000
32.066667	1	0.968000
32.083333	1	0.875500
32.100000	1	0.791500
32.116667	1	0.715375
32.133333	1	0.647625
32.150000	1	0.587250
32.166667	1	0.533125
32.183333	1	0.484500
32.200000	1	0.440500
32.216667	1	0.401875
32.233333	1	0.368125
32.250000	1	0.338000
32.266667	1	0.311750
32.283333	1	0.288250
32.300000	1	0.267375
32.316667	1	0.249250
32.333333	1	0.233875
32.350000	1	0.219875
32.366667	1	0.207125
32.383333	1	0.196000
32.400000	1	0.186750
32.416667	1	0.178125
32.433333	1	0.170125
32.450000	1	0.163250
32.466667	1	0.157000
32.483333	1	0.152375
32.500000	1	0.147125
32.516667	1	0.142625
32.533333	1	0.138250
32.550000	1	0.134500
32.566667	1	0.131625
32.583333	1	0.128000
32.600000	1	0.125125
32.616667	1	0.122000
32.633333	1	0.119875
32.650000	1	0.117250
32.666667	1	0.115250
32.683333	1	0.113000
32.700000	1	0.110125
32.716667	1	0.107750
32.733333	1	0.104875
32.750000	1	0.102250
32.766667	1	0.099750
32.783333	1	0.097500
32.800000	1	0.095375
32.816667	1	0.092500
32.833333	1	0.089125
32.850000	1	0.086250
32.866667	1	0.082125
32.883333	1	0.078750
32.900000	1	0.075000
32.916667	1	0.071625
32.933333	1	0.068500
32.950000	1	0.064750
32.966667	1	0.060500
32.983333	1	0.057000
33.000000	1	0.053250
33.016667	1	0.049500
33.033333	1	0.045750
33.050000	1	0.042000
33.066667	1	0.038375
33.083333	1	0.034500
33.100000	1	0.030500
33.116667	1	0.027250
33.133333	1	0.024375
33.150000	1	0.022750
33.166667	1	0.020500
33.183333	1	0.018250
33.200000	1	0.017375
33.216667	1	0.016750
33.233333	1	0.016250
33.250000	1	0.016375
33.266667	1	0.018250
33.283333	1	0.020000
33.300000	1	0.022250
33.316667	1	0.025750
33.333333	1	0.030125
33.350000	1	0.034875
33.366667	1	0.040750
33.383333	1	0.047250
33.400000	1	0.055125
33.416667	1	0.063375
33.433333	1	0.073250
33.450000	1	0.083875
33.466667	1	0.094875
33.483333	1	0.107250
33.500000	1	0.121000
33.516667	1	0.135500
33.533333	1	0.151625
33.550000	1	0.168875
33.566667	1	0.186750
33.583333	1	0.206625
33.600000	1	0.226875
33.616667	1	0.248375
33.633333	1	0.270250
33.650000	1	0.293500
33.666667	1	0.318375
33.683333	1	0.344125
33.700000	1	0.371375
33.716667	1	0.399375
33.733333	1	0.427875
33.750000	1	0.457125
33.766667	1	0.486250
33.783333	1	0.516500
33.800000	1	0.546625
33.816667	1	0.576750
33.833333	1	0.606500
33.850000	1	0.636125
33.866667	1	0.664875
33.883333	1	0.692875
33.900000	1	0.719875
33.916667	1	0.745000
33.933333	1	0.768375
33.950000	1	0.789875
33.966667	1	0.809125
33.983333	1	0.826125
34.000000	1	0.841125
34.016667	1	0.852125
34.033333	1	0.860500
34.050000	1	0.866750
34.066667	1	0.869625
34.083333	1	0.869875
34.100000	1	0.866500
34.116667	1	0.860875
34.133333	1	0.852750
34.150000	1	0.842250
34.166667	1	0.828750
34.183333	1	0.813500
34.200000	1	0.795625
34.216667	1	0.776125
34.233333	1	0.755125
34.250000	1	0.732500
34.266667	1	0.709625
34.283333	1	0.685375
34.300000	1	0.661125
34.316667	1	0.636750
34.333333	1	0.612625
34.350000	1	0.588625
34.366667	1	0.565000
34.383333	1	0.541625
34.400000	1	0.518750
34.416667	1	0.496750
34.433333	1	0.475625
34.450000	1	0.455375
34.466667	1	0.436375
34.483333	1	0.418625
34.500000	1	0.401750
34.516667	1	0.386375
34.533333	1	0.371875
34.550000	1	0.358250
34.566667	1	0.346000
34.583333	1	0.334750
34.600000	1	0.323125
34.616667	1	0.313000
34.633333	1	0.304125
34.650000	1	0.295500
34.666667	1	0.287500
34.683333	1	0.279250
34.700000	1	0.272125
34.716667	1	0.265250
34.733333	1	0.258750
34.750000	1	0.252500
34.766667	1	0.246375
34.783333	1	0.241125
34.800000	1	0.235125
34.816667	1	0.229875
34.833333	1	0.224625
34.850000	1	0.218875
34.866667	1	0.213625
34.883333	1	0.208750
34.900000	1	0.203625
34.916667	1	0.199000
34.933333	1	0.194000
34.950000	1	0.190000
34.966667	1	0.185875
34.983333	1	0.181375
35.000000	1	0.177125
35.016667	1	0.172500
35.033333	1	0.167875
35.050000	1	0.163875
35.066667	1	0.159500
35.083333	1	0.155875
35.100000	1	0.152875
35.116667	1	0.149750
35.133333	1	0.146500
35.150000	1	0.143375
35.166667	1	0.140000
35.183333	1	0.137500
35.200000	1	0.135125
35.216667	1	0.132625
35.233333	1	0.130625
35.250000	1	0.128625
35.266667	1	0.127125
35.283333	1	0.125625
35.300000	1	0.124375
35.316667	1	0.122875
35.333333	1	0.121875
35.350000	1	0.121125
35.366667	1	0.120000
35.383333	1	0.118375
35.400000	1	0.117375
35.416667	1	0.116750
35.433333	1	0.116000
35.450000	1	0.115375
35.466667	1	0.114500
35.483333	1	0.114750
35.500000	1	0.114250
35.516667	1	0.114000
35.533333	1	0.113375
35.550000	1	0.112625
35.566667	1	0.112125
35.583333	1	0.112000
35.600000	1	0.110875
35.616667	1	0.110500
35.633333	1	0.110000
35.650000	1	0.109500
35.666667	1	0.109250
35.683333	1	0.108625
35.700000	1	0.107750
35.716667	1	0.107375
35.733333	1	0.106500
35.750000	1	0.106125
35.766667	1	0.105125
35.783333	1	0.104000
35.800000	1	0.104250
35.816667	1	0.103500
35.833333	1	0.102875
35.850000	1	0.101250
35.866667	1	0.100125
35.883333	1	0.099125
35.900000	1	0.097625
35.916667	1	0.096250
35.933333	1	0.094625
35.950000	1	0.093250
35.966667	1	0.091875
35.983333	1	0.090000
36.000000	1	0.088375
36.016667	1	0.086625
36.033333	1	0.084875
36.050000	1	0.083750
36.066667	1	0.082250
36.083333	1	0.080500
36.100000	1	0.079250
36.116667	1	0.077375
36.133333	1	0.076125
36.150000	1	0.075250
36.166667	1	0.074125
36.183333	1	0.072500
36.200000	1	0.071625
36.216667	1	0.071625
36.233333	1	0.071125
36.250000	1	0.071625
36.266667	1	0.071625
36.283333	1	0.071875
36.300000	1	0.072125
36.316667	1	0.072625
36.333333	1	0.073500
36.350000	1	0.074625
36.366667	1	0.075625
36.383333	1	0.077125
36.400000	1	0.078875
36.416667	1	0.079625
36.433333	1	0.081125
36.450000	1	0.082875
36.466667	1	0.084375
36.483333	1	0.086125
36.500000	1	0.087500
36.516667	1	0.089375
36.533333	1	0.090750
36.550000	1	0.092000
36.566667	1	0.093500
36.583333	1	0.094125
36.600000	1	0.095000
36.616667	1	0.095250
36.633333	1	0.095750
36.650000	1	0.095875
36.666667	1	0.096375
36.683333	1	0.095875
36.700000	1	0.095750
36.716667	1	0.095125
36.733333	1	0.093750
36.750000	1	0.093250
36.766667	1	0.092000
36.783333	1	0.090125
36.800000	1	0.089000
36.816667	1	0.087250
36.833333	1	0.085000
36.850000	1	0.082625
36.866667	1	0.080500
36.883333	1	0.078500
36.900000	1	0.076625
36.916667	1	0.074125
36.933333	1	0.071750
36.950000	1	0.069125
36.966667	1	0.066000
36.983333	1	0.063875
37.000000	1	0.061375
37.016667	1	0.059250
37.033333	1	0.057000
37.050000	1	0.054500
37.066667	1	0.052000
37.083333	1	0.050625
37.100000	1	0.049125
37.116667	1	0.047750
37.133333	1	0.045875
37.150000	1	0.044250
37.166667	1	0.043000
37.183333	1	0.041875
37.200000	1	0.040750
37.216667	1	0.039625
37.233333	1	0.038625
37.250000	1	0.037750
37.266667	1	0.037000
37.283333	1	0.036500
37.300000	1	0.036125
37.316667	1	0.034875
37.333333	1	0.033750
37.350000	1	0.033375
37.366667	1	0.032250
37.383333	1	0.031500
37.400000	1	0.030875
37.416667	1	0.030750
37.433333	1	0.030375
37.450000	1	0.029250
37.466667	1	0.028250
37.483333	1	0.028125
37.500000	1	0.027125
37.516667	1	0.026875
37.533333	1	0.026375
37.550000	1	0.026625
37.566667	1	0.026875
37.583333	1	0.026500
37.600000	1	0.025875
37.616667	1	0.025750
37.633333	1	0.026375
37.650000	1	0.026375
37.666667	1	0.028125
37.683333	1	0.029625
37.700000	1	0.030000
37.716667	1	0.030375
37.733333	1	0.031500
37.750000	1	0.032625
37.766667	1	0.033875
37.783333	1	0.035125
37.800000	1	0.036625
37.816667	1	0.037625
37.833333	1	0.038250
37.850000	1	0.039625
37.866667	1	0.041250
37.883333	1	0.042750
37.900000	1	0.044375
37.916667	1	0.045375
37.933333	1	0.046000
37.950000	1	0.047250
37.966667	1	0.048500
37.983333	1	0.048875
38.000000	1	0.049500
38.016667	1	0.050625
38.033333	1	0.051500
38.050000	1	0.052250
38.066667	1	0.052250
38.083333	1	0.053000
38.100000	1	0.053750
38.116667	1	0.054125
38.133333	1	0.054375
38.150000	1	0.055000
38.166667	1	0.055625
38.183333	1	0.055875
38.200000	1	0.055875
38.216667	1	0.055375
38.233333	1	0.055625
38.250000	1	0.056250
38.266667	1	0.056625
38.283333	1	0.055875
38.300000	1	0.056375
38.316667	1	0.056625
38.333333	1	0.056375
38.350000	1	0.056500
38.366667	1	0.055375
38.383333	1	0.054750
38.400000	1	0.054500
38.416667	1	0.053375
38.433333	1	0.052750
38.450000	1	0.052250
38.466667	1	0.050750
38.483333	1	0.050000
38.500000	1	0.048625
38.516667	1	0.047125
38.533333	1	0.045250
38.550000	1	0.043875
38.566667	1	0.042000
38.583333	1	0.040000
38.600000	1	0.037875
38.616667	1	0.036250
38.633333	1	0.034500
38.650000	1	0.031750
38.666667	1	0.030000
38.683333	1	0.028000
38.700000	1	0.025625
38.716667	1	0.023250
38.733333	1	0.020750
38.750000	1	0.018625
38.766667	1	0.016250
38.783333	1	0.013500
38.800000	1	0.011125
38.816667	1	0.009125
38.833333	1	0.007625
38.850000	1	0.005125
38.866667	1	0.003250
38.883333	1	0.001250
38.900000	1	-0.000375
38.916667	1	-0.002000
38.933333	1	-0.003875
38.950000	1	-0.005500
38.966667	1	-0.007375
38.983333	1	-0.008625
39.000000	1	-0.010000
39.016667	1	-0.011375
39.033333	1	-0.012000
39.050000	1	-0.012625
39.066667	1	-0.013500
39.083333	1	-0.014000
39.100000	1	-0.014250
39.116667	1	-0.014500
39.133333	1	-0.014625
39.150000	1	-0.015375
39.166667	1	-0.015125
39.183333	1	-0.015375
39.200000	1	-0.015500
39.216667	1	-0.015125
39.233333	1	-0.015000
39.250000	1	-0.014500
39.266667	1	-0.014500
39.283333	1	-0.013375
39.300000	1	-0.012500
39.316667	1	-0.011625
39.333333	1	-0.011125
39.350000	1	-0.010625
39.366667	1	-0.010250
39.383333	1	-0.009875
39.400000	1	-0.009250
39.416667	1	-0.008375
39.433333	1	-0.007500
39.450000	1	-0.006500
39.466667	1	-0.005375
39.483333	1	-0.005000
39.500000	1	-0.003500
39.516667	1	-0.002250
39.533333	1	-0.001125
39.550000	1	-0.000250
39.566667	1	0.000625
39.583333	1	0.001250
39.600000	1	0.002125
39.616667	1	0.003625
39.633333	1	0.004750
39.650000	1	0.005500
39.666667	1	0.007500
39.683333	1	0.009375
39.700000	1	0.010875
39.716667	1	0.012375
39.733333	1	0.013875
39.750000	1	0.015250
39.766667	1	0.017375
39.783333	1	0.019375
39.800000	1	0.021750
39.816667	1	0.024500
39.833333	1	0.026625
39.850000	1	0.029500
39.866667	1	0.031500
39.883333	1	0.034250
39.900000	1	0.037500
39.916667	1	0.040250
39.933333	1	0.043250
39.950000	1	0.046750
39.966667	1	0.049500
39.983333	1	0.052750
40.000000	1	0.055875
