URL	chrom://bioreactor/micro_cm7/HPLC_Ultimate_3000/Users/markusar/20240716_MA_pHrange2.seq/424.smp/RI_1.channel/RI_1.chm
Channel	RI_1

Injection Information:
Data Vault	micro_cm7
Sequence	20240716_MA_pHrange2
Name	Fp3_25H_3
Number	47
Position	BD11
Comment	
Processing Method	
Instrument Method	run_25B_method
Type	Unknown
Status	Finished
Inject Time	18.07.2024 01:31:01 +02:00
Volume (µl)	20.0000
Dilution Factor	1.0000
Weight	1.0000

Chromatogram Data Information:
Time Min. (min)	0.000000
Time Max. (min)	40.000000
Data Points	2401
Detector	RI
Generating Data System	Chromeleon 7.3.2.11814
Exporting Data System	Chromeleon 7.3.2.0
Operator	Instrument Controller
Signal Quantity	Refractive 
Signal Unit	µRIU
Signal Min.	-0.048125
Signal Max.	83.629000
Channel	RI_1
Driver Name	RID520Driver.dll
Channel Type	Evaluation
Min. Step (s)	1
Max. Step (s)	1
Average Step (s)	1

Signal Parameter Information:
Signal Info	

Chromatogram Data:
Time (min)	Step (s)	Value (µRIU)
0.000000	n.a.	0.052625
0.016667	1	0.051250
0.033333	1	0.050250
0.050000	1	0.049125
0.066667	1	0.047625
0.083333	1	0.047250
0.100000	1	0.046125
0.116667	1	0.045000
0.133333	1	0.044250
0.150000	1	0.043000
0.166667	1	0.041500
0.183333	1	0.040500
0.200000	1	0.038750
0.216667	1	0.037750
0.233333	1	0.036750
0.250000	1	0.035500
0.266667	1	0.034625
0.283333	1	0.033500
0.300000	1	0.033000
0.316667	1	0.031250
0.333333	1	0.029750
0.350000	1	0.028000
0.366667	1	0.025625
0.383333	1	0.023125
0.400000	1	0.021500
0.416667	1	0.020000
0.433333	1	0.019000
0.450000	1	0.019000
0.466667	1	0.019500
0.483333	1	0.018875
0.500000	1	0.018500
0.516667	1	0.018000
0.533333	1	0.016125
0.550000	1	0.013875
0.566667	1	0.011375
0.583333	1	0.008625
0.600000	1	0.006250
0.616667	1	0.003875
0.633333	1	0.002500
0.650000	1	0.001000
0.666667	1	0.000000
0.683333	1	-0.000750
0.700000	1	-0.001250
0.716667	1	-0.001500
0.733333	1	-0.001625
0.750000	1	-0.001625
0.766667	1	-0.000875
0.783333	1	-0.000875
0.800000	1	0.000125
0.816667	1	0.000625
0.833333	1	0.001125
0.850000	1	0.002625
0.866667	1	0.003625
0.883333	1	0.004750
0.900000	1	0.007250
0.916667	1	0.008875
0.933333	1	0.010250
0.950000	1	0.011500
0.966667	1	0.013125
0.983333	1	0.015250
1.000000	1	0.017625
1.016667	1	0.019625
1.033333	1	0.021875
1.050000	1	0.023750
1.066667	1	0.026000
1.083333	1	0.028000
1.100000	1	0.029750
1.116667	1	0.031375
1.133333	1	0.033250
1.150000	1	0.034750
1.166667	1	0.036250
1.183333	1	0.038500
1.200000	1	0.040375
1.216667	1	0.042000
1.233333	1	0.043000
1.250000	1	0.043750
1.266667	1	0.045125
1.283333	1	0.046375
1.300000	1	0.047750
1.316667	1	0.048250
1.333333	1	0.048625
1.350000	1	0.049625
1.366667	1	0.049875
1.383333	1	0.050125
1.400000	1	0.050250
1.416667	1	0.049625
1.433333	1	0.049750
1.450000	1	0.049375
1.466667	1	0.049250
1.483333	1	0.049000
1.500000	1	0.048125
1.516667	1	0.048000
1.533333	1	0.047500
1.550000	1	0.046125
1.566667	1	0.045875
1.583333	1	0.044875
1.600000	1	0.043875
1.616667	1	0.043000
1.633333	1	0.042250
1.650000	1	0.041250
1.666667	1	0.040500
1.683333	1	0.039750
1.700000	1	0.038250
1.716667	1	0.037625
1.733333	1	0.036000
1.750000	1	0.035625
1.766667	1	0.034875
1.783333	1	0.033625
1.800000	1	0.032750
1.816667	1	0.032375
1.833333	1	0.032375
1.850000	1	0.031500
1.866667	1	0.031375
1.883333	1	0.030750
1.900000	1	0.030375
1.916667	1	0.029375
1.933333	1	0.029250
1.950000	1	0.028625
1.966667	1	0.028375
1.983333	1	0.028500
2.000000	1	0.028375
2.016667	1	0.028750
2.033333	1	0.028750
2.050000	1	0.029250
2.066667	1	0.029625
2.083333	1	0.030125
2.100000	1	0.029750
2.116667	1	0.030375
2.133333	1	0.030125
2.150000	1	0.030750
2.166667	1	0.030250
2.183333	1	0.030750
2.200000	1	0.030875
2.216667	1	0.031375
2.233333	1	0.031375
2.250000	1	0.031625
2.266667	1	0.031625
2.283333	1	0.031750
2.300000	1	0.031125
2.316667	1	0.031250
2.333333	1	0.031625
2.350000	1	0.031625
2.366667	1	0.031750
2.383333	1	0.031625
2.400000	1	0.031875
2.416667	1	0.031625
2.433333	1	0.032000
2.450000	1	0.032250
2.466667	1	0.031750
2.483333	1	0.031500
2.500000	1	0.031500
2.516667	1	0.031250
2.533333	1	0.030625
2.550000	1	0.030250
2.566667	1	0.030500
2.583333	1	0.030375
2.600000	1	0.030000
2.616667	1	0.030125
2.633333	1	0.030000
2.650000	1	0.030375
2.666667	1	0.030875
2.683333	1	0.031500
2.700000	1	0.032000
2.716667	1	0.032875
2.733333	1	0.032500
2.750000	1	0.033000
2.766667	1	0.033125
2.783333	1	0.033375
2.800000	1	0.034000
2.816667	1	0.034500
2.833333	1	0.034875
2.850000	1	0.036000
2.866667	1	0.036375
2.883333	1	0.037625
2.900000	1	0.038875
2.916667	1	0.039750
2.933333	1	0.040375
2.950000	1	0.041250
2.966667	1	0.042500
2.983333	1	0.043625
3.000000	1	0.044375
3.016667	1	0.046125
3.033333	1	0.047000
3.050000	1	0.047750
3.066667	1	0.048625
3.083333	1	0.049500
3.100000	1	0.049750
3.116667	1	0.050875
3.133333	1	0.051375
3.150000	1	0.052000
3.166667	1	0.052750
3.183333	1	0.054125
3.200000	1	0.055125
3.216667	1	0.056000
3.233333	1	0.056500
3.250000	1	0.056125
3.266667	1	0.056875
3.283333	1	0.056875
3.300000	1	0.056750
3.316667	1	0.057500
3.333333	1	0.058250
3.350000	1	0.058125
3.366667	1	0.057750
3.383333	1	0.057500
3.400000	1	0.057250
3.416667	1	0.057125
3.433333	1	0.056875
3.450000	1	0.056125
3.466667	1	0.055750
3.483333	1	0.054750
3.500000	1	0.053750
3.516667	1	0.053000
3.533333	1	0.052375
3.550000	1	0.051000
3.566667	1	0.050625
3.583333	1	0.049500
3.600000	1	0.048875
3.616667	1	0.047250
3.633333	1	0.046375
3.650000	1	0.044750
3.666667	1	0.043500
3.683333	1	0.042750
3.700000	1	0.041875
3.716667	1	0.041000
3.733333	1	0.040750
3.750000	1	0.039750
3.766667	1	0.039750
3.783333	1	0.039750
3.800000	1	0.039375
3.816667	1	0.039625
3.833333	1	0.039875
3.850000	1	0.040000
3.866667	1	0.041000
3.883333	1	0.041375
3.900000	1	0.041875
3.916667	1	0.042750
3.933333	1	0.044375
3.950000	1	0.045250
3.966667	1	0.046750
3.983333	1	0.048125
4.000000	1	0.049875
4.016667	1	0.051750
4.033333	1	0.054125
4.050000	1	0.057250
4.066667	1	0.060125
4.083333	1	0.062875
4.100000	1	0.065625
4.116667	1	0.068750
4.133333	1	0.072000
4.150000	1	0.075000
4.166667	1	0.077500
4.183333	1	0.080000
4.200000	1	0.082875
4.216667	1	0.085500
4.233333	1	0.088750
4.250000	1	0.091875
4.266667	1	0.095000
4.283333	1	0.097625
4.300000	1	0.100750
4.316667	1	0.103125
4.333333	1	0.104750
4.350000	1	0.107750
4.366667	1	0.109750
4.383333	1	0.112250
4.400000	1	0.114250
4.416667	1	0.116750
4.433333	1	0.118875
4.450000	1	0.120750
4.466667	1	0.122750
4.483333	1	0.123875
4.500000	1	0.125375
4.516667	1	0.127000
4.533333	1	0.128875
4.550000	1	0.130000
4.566667	1	0.131750
4.583333	1	0.133625
4.600000	1	0.135250
4.616667	1	0.136250
4.633333	1	0.138250
4.650000	1	0.139625
4.666667	1	0.141000
4.683333	1	0.141500
4.700000	1	0.142375
4.716667	1	0.144125
4.733333	1	0.145000
4.750000	1	0.145500
4.766667	1	0.146875
4.783333	1	0.148250
4.800000	1	0.149000
4.816667	1	0.149625
4.833333	1	0.150000
4.850000	1	0.149875
4.866667	1	0.150125
4.883333	1	0.151250
4.900000	1	0.151875
4.916667	1	0.152875
4.933333	1	0.153250
4.950000	1	0.154125
4.966667	1	0.155625
4.983333	1	0.157000
5.000000	1	0.158125
5.016667	1	0.159500
5.033333	1	0.161375
5.050000	1	0.163625
5.066667	1	0.165500
5.083333	1	0.167750
5.100000	1	0.170500
5.116667	1	0.173000
5.133333	1	0.175250
5.150000	1	0.177750
5.166667	1	0.181500
5.183333	1	0.184625
5.200000	1	0.188000
5.216667	1	0.191000
5.233333	1	0.193875
5.250000	1	0.197250
5.266667	1	0.200500
5.283333	1	0.203125
5.300000	1	0.206000
5.316667	1	0.208625
5.333333	1	0.211250
5.350000	1	0.213750
5.366667	1	0.215875
5.383333	1	0.217500
5.400000	1	0.219500
5.416667	1	0.220625
5.433333	1	0.221750
5.450000	1	0.222125
5.466667	1	0.223625
5.483333	1	0.223625
5.500000	1	0.224000
5.516667	1	0.223625
5.533333	1	0.223375
5.550000	1	0.222875
5.566667	1	0.221750
5.583333	1	0.220750
5.600000	1	0.219500
5.616667	1	0.217500
5.633333	1	0.215625
5.650000	1	0.213375
5.666667	1	0.210625
5.683333	1	0.208000
5.700000	1	0.206000
5.716667	1	0.203375
5.733333	1	0.200375
5.750000	1	0.197125
5.766667	1	0.194000
5.783333	1	0.190875
5.800000	1	0.187750
5.816667	1	0.184875
5.833333	1	0.181000
5.850000	1	0.177500
5.866667	1	0.174500
5.883333	1	0.171625
5.900000	1	0.167875
5.916667	1	0.164375
5.933333	1	0.161375
5.950000	1	0.158750
5.966667	1	0.155375
5.983333	1	0.151750
6.000000	1	0.148625
6.016667	1	0.145500
6.033333	1	0.141750
6.050000	1	0.138875
6.066667	1	0.135750
6.083333	1	0.132875
6.100000	1	0.130000
6.116667	1	0.127375
6.133333	1	0.125250
6.150000	1	0.123250
6.166667	1	0.121125
6.183333	1	0.118250
6.200000	1	0.115875
6.216667	1	0.113625
6.233333	1	0.111375
6.250000	1	0.109125
6.266667	1	0.106875
6.283333	1	0.105000
6.300000	1	0.103125
6.316667	1	0.102125
6.333333	1	0.101125
6.350000	1	0.100125
6.366667	1	0.098750
6.383333	1	0.098000
6.400000	1	0.097125
6.416667	1	0.096375
6.433333	1	0.095125
6.450000	1	0.095000
6.466667	1	0.094125
6.483333	1	0.094500
6.500000	1	0.094250
6.516667	1	0.093875
6.533333	1	0.094125
6.550000	1	0.094750
6.566667	1	0.095000
6.583333	1	0.095750
6.600000	1	0.096250
6.616667	1	0.096875
6.633333	1	0.098125
6.650000	1	0.099125
6.666667	1	0.100125
6.683333	1	0.101250
6.700000	1	0.102625
6.716667	1	0.103875
6.733333	1	0.105375
6.750000	1	0.106875
6.766667	1	0.108000
6.783333	1	0.108875
6.800000	1	0.109625
6.816667	1	0.110625
6.833333	1	0.112375
6.850000	1	0.113500
6.866667	1	0.115250
6.883333	1	0.116875
6.900000	1	0.118125
6.916667	1	0.118750
6.933333	1	0.120125
6.950000	1	0.121125
6.966667	1	0.122500
6.983333	1	0.123750
7.000000	1	0.124375
7.016667	1	0.125000
7.033333	1	0.125875
7.050000	1	0.126250
7.066667	1	0.126750
7.083333	1	0.126875
7.100000	1	0.126875
7.116667	1	0.126750
7.133333	1	0.127125
7.150000	1	0.127000
7.166667	1	0.126000
7.183333	1	0.126250
7.200000	1	0.125625
7.216667	1	0.124750
7.233333	1	0.124375
7.250000	1	0.122750
7.266667	1	0.121500
7.283333	1	0.120750
7.300000	1	0.119375
7.316667	1	0.117625
7.333333	1	0.116125
7.350000	1	0.115000
7.366667	1	0.112750
7.383333	1	0.110250
7.400000	1	0.107750
7.416667	1	0.105125
7.433333	1	0.103125
7.450000	1	0.100625
7.466667	1	0.098375
7.483333	1	0.095625
7.500000	1	0.092375
7.516667	1	0.089375
7.533333	1	0.086375
7.550000	1	0.083625
7.566667	1	0.080875
7.583333	1	0.077625
7.600000	1	0.074125
7.616667	1	0.070875
7.633333	1	0.067875
7.650000	1	0.065375
7.666667	1	0.062000
7.683333	1	0.058875
7.700000	1	0.055125
7.716667	1	0.051625
7.733333	1	0.048625
7.750000	1	0.044875
7.766667	1	0.042000
7.783333	1	0.039000
7.800000	1	0.035750
7.816667	1	0.032125
7.833333	1	0.029000
7.850000	1	0.025625
7.866667	1	0.022250
7.883333	1	0.019125
7.900000	1	0.016500
7.916667	1	0.012875
7.933333	1	0.010125
7.950000	1	0.007250
7.966667	1	0.004000
7.983333	1	0.000750
8.000000	1	-0.002250
8.016667	1	-0.004625
8.033333	1	-0.008125
8.050000	1	-0.010500
8.066667	1	-0.013125
8.083333	1	-0.015250
8.100000	1	-0.018000
8.116667	1	-0.020500
8.133333	1	-0.023250
8.150000	1	-0.025375
8.166667	1	-0.027750
8.183333	1	-0.030125
8.200000	1	-0.031500
8.216667	1	-0.033000
8.233333	1	-0.034500
8.250000	1	-0.035875
8.266667	1	-0.037125
8.283333	1	-0.038375
8.300000	1	-0.039500
8.316667	1	-0.040250
8.333333	1	-0.040625
8.350000	1	-0.041250
8.366667	1	-0.041500
8.383333	1	-0.041500
8.400000	1	-0.041875
8.416667	1	-0.041875
8.433333	1	-0.041125
8.450000	1	-0.041250
8.466667	1	-0.040875
8.483333	1	-0.040625
8.500000	1	-0.040375
8.516667	1	-0.040000
8.533333	1	-0.039750
8.550000	1	-0.038250
8.566667	1	-0.037625
8.583333	1	-0.037250
8.600000	1	-0.036500
8.616667	1	-0.035500
8.633333	1	-0.035375
8.650000	1	-0.034750
8.666667	1	-0.033750
8.683333	1	-0.033375
8.700000	1	-0.032625
8.716667	1	-0.031750
8.733333	1	-0.031250
8.750000	1	-0.030125
8.766667	1	-0.029625
8.783333	1	-0.028375
8.800000	1	-0.027000
8.816667	1	-0.026000
8.833333	1	-0.024375
8.850000	1	-0.023875
8.866667	1	-0.022750
8.883333	1	-0.021125
8.900000	1	-0.019750
8.916667	1	-0.018750
8.933333	1	-0.016875
8.950000	1	-0.015625
8.966667	1	-0.013875
8.983333	1	-0.013125
9.000000	1	-0.011875
9.016667	1	-0.010625
9.033333	1	-0.009375
9.050000	1	-0.008250
9.066667	1	-0.007375
9.083333	1	-0.006250
9.100000	1	-0.005000
9.116667	1	-0.003750
9.133333	1	-0.002500
9.150000	1	-0.000750
9.166667	1	0.000125
9.183333	1	0.000750
9.200000	1	0.001375
9.216667	1	0.002625
9.233333	1	0.002750
9.250000	1	0.003500
9.266667	1	0.003500
9.283333	1	0.004250
9.300000	1	0.004375
9.316667	1	0.004500
9.333333	1	0.004875
9.350000	1	0.005250
9.366667	1	0.004875
9.383333	1	0.005500
9.400000	1	0.004625
9.416667	1	0.004250
9.433333	1	0.003750
9.450000	1	0.003125
9.466667	1	0.002250
9.483333	1	0.001750
9.500000	1	0.000875
9.516667	1	-0.000250
9.533333	1	-0.001125
9.550000	1	-0.002375
9.566667	1	-0.003875
9.583333	1	-0.005250
9.600000	1	-0.006625
9.616667	1	-0.008875
9.633333	1	-0.011000
9.650000	1	-0.013000
9.666667	1	-0.015125
9.683333	1	-0.017250
9.700000	1	-0.018875
9.716667	1	-0.021875
9.733333	1	-0.024625
9.750000	1	-0.026750
9.766667	1	-0.029625
9.783333	1	-0.032250
9.800000	1	-0.034000
9.816667	1	-0.036000
9.833333	1	-0.038250
9.850000	1	-0.040000
9.866667	1	-0.042500
9.883333	1	-0.043500
9.900000	1	-0.045750
9.916667	1	-0.047000
9.933333	1	-0.047625
9.950000	1	-0.048125
9.966667	1	-0.047875
9.983333	1	-0.047375
10.000000	1	-0.046750
10.016667	1	-0.044875
10.033333	1	-0.043875
10.050000	1	-0.040875
10.066667	1	-0.037625
10.083333	1	-0.034375
10.100000	1	-0.030250
10.116667	1	-0.025125
10.133333	1	-0.019000
10.150000	1	-0.012875
10.166667	1	-0.005125
10.183333	1	0.003375
10.200000	1	0.012750
10.216667	1	0.022875
10.233333	1	0.033750
10.250000	1	0.046375
10.266667	1	0.060250
10.283333	1	0.075250
10.300000	1	0.091750
10.316667	1	0.109125
10.333333	1	0.127625
10.350000	1	0.145125
10.366667	1	0.160000
10.383333	1	0.167250
10.400000	1	0.164125
10.416667	1	0.146000
10.433333	1	0.111625
10.450000	1	0.063250
10.466667	1	0.009125
10.483333	1	-0.033125
10.500000	1	-0.037000
10.516667	1	0.035375
10.533333	1	0.230000
10.550000	1	0.601500
10.566667	1	1.207875
10.583333	1	2.106125
10.600000	1	3.350125
10.616667	1	4.985250
10.633333	1	7.042875
10.650000	1	9.546000
10.666667	1	12.508875
10.683333	1	15.932875
10.700000	1	19.809250
10.716667	1	24.119250
10.733333	1	28.834250
10.750000	1	33.912375
10.766667	1	39.302125
10.783333	1	44.945875
10.800000	1	50.773125
10.816667	1	56.689625
10.833333	1	62.560375
10.850000	1	68.207500
10.866667	1	73.370125
10.883333	1	77.678375
10.900000	1	80.647625
10.916667	1	81.736250
10.933333	1	80.473125
10.950000	1	76.640375
10.966667	1	70.427875
10.983333	1	62.433250
11.000000	1	53.514625
11.016667	1	44.550625
11.033333	1	36.231625
11.050000	1	28.952625
11.066667	1	22.861500
11.083333	1	17.930875
11.100000	1	14.038500
11.116667	1	11.023625
11.133333	1	8.721000
11.150000	1	6.979625
11.166667	1	5.670750
11.183333	1	4.689875
11.200000	1	3.952375
11.216667	1	3.395500
11.233333	1	2.971125
11.250000	1	2.644125
11.266667	1	2.389125
11.283333	1	2.187750
11.300000	1	2.025625
11.316667	1	1.892250
11.333333	1	1.779500
11.350000	1	1.683250
11.366667	1	1.599625
11.383333	1	1.525250
11.400000	1	1.458750
11.416667	1	1.399375
11.433333	1	1.347250
11.450000	1	1.300000
11.466667	1	1.257875
11.483333	1	1.221500
11.500000	1	1.190000
11.516667	1	1.164000
11.533333	1	1.142625
11.550000	1	1.126125
11.566667	1	1.114125
11.583333	1	1.106875
11.600000	1	1.104375
11.616667	1	1.106875
11.633333	1	1.112500
11.650000	1	1.123625
11.666667	1	1.140125
11.683333	1	1.158875
11.700000	1	1.181875
11.716667	1	1.207250
11.733333	1	1.233875
11.750000	1	1.260625
11.766667	1	1.285875
11.783333	1	1.308750
11.800000	1	1.328500
11.816667	1	1.343875
11.833333	1	1.352875
11.850000	1	1.356750
11.866667	1	1.354500
11.883333	1	1.347500
11.900000	1	1.335625
11.916667	1	1.319375
11.933333	1	1.301375
11.950000	1	1.280875
11.966667	1	1.259750
11.983333	1	1.239000
12.000000	1	1.219250
12.016667	1	1.200875
12.033333	1	1.184250
12.050000	1	1.169375
12.066667	1	1.156750
12.083333	1	1.145875
12.100000	1	1.136750
12.116667	1	1.129875
12.133333	1	1.124375
12.150000	1	1.120750
12.166667	1	1.117375
12.183333	1	1.115875
12.200000	1	1.116250
12.216667	1	1.117875
12.233333	1	1.120750
12.250000	1	1.126500
12.266667	1	1.136000
12.283333	1	1.149750
12.300000	1	1.170875
12.316667	1	1.202500
12.333333	1	1.248250
12.350000	1	1.314625
12.366667	1	1.411000
12.383333	1	1.548375
12.400000	1	1.739875
12.416667	1	2.005750
12.433333	1	2.369875
12.450000	1	2.864375
12.466667	1	3.526875
12.483333	1	4.402000
12.500000	1	5.543500
12.516667	1	7.008000
12.533333	1	8.857625
12.550000	1	11.154000
12.566667	1	13.959750
12.583333	1	17.326000
12.600000	1	21.280625
12.616667	1	25.829000
12.633333	1	30.950000
12.650000	1	36.582125
12.666667	1	42.618250
12.683333	1	48.901375
12.700000	1	55.227750
12.716667	1	61.358875
12.733333	1	67.035000
12.750000	1	71.992500
12.766667	1	75.994000
12.783333	1	78.845250
12.800000	1	80.421750
12.816667	1	80.678125
12.833333	1	79.647250
12.850000	1	77.441500
12.866667	1	74.236250
12.883333	1	70.260375
12.900000	1	65.769375
12.916667	1	61.021750
12.933333	1	56.257750
12.950000	1	51.679250
12.966667	1	47.444125
12.983333	1	43.660875
13.000000	1	40.393375
13.016667	1	37.661625
13.033333	1	35.455250
13.050000	1	33.741625
13.066667	1	32.477250
13.083333	1	31.608750
13.100000	1	31.085125
13.116667	1	30.854875
13.133333	1	30.870625
13.150000	1	31.089500
13.166667	1	31.477125
13.183333	1	32.002500
13.200000	1	32.640375
13.216667	1	33.371500
13.233333	1	34.180125
13.250000	1	35.056125
13.266667	1	35.987375
13.283333	1	36.969375
13.300000	1	37.993750
13.316667	1	39.058000
13.333333	1	40.157250
13.350000	1	41.290125
13.366667	1	42.454000
13.383333	1	43.647750
13.400000	1	44.869750
13.416667	1	46.120500
13.433333	1	47.400875
13.450000	1	48.711750
13.466667	1	50.052500
13.483333	1	51.423125
13.500000	1	52.825250
13.516667	1	54.256500
13.533333	1	55.718250
13.550000	1	57.209875
13.566667	1	58.734125
13.583333	1	60.288875
13.600000	1	61.874250
13.616667	1	63.492500
13.633333	1	65.144875
13.650000	1	66.833875
13.666667	1	68.559500
13.683333	1	70.321000
13.700000	1	72.119625
13.716667	1	73.955000
13.733333	1	75.825250
13.750000	1	77.718625
13.766667	1	79.586750
13.783333	1	81.313000
13.800000	1	82.703875
13.816667	1	83.536875
13.833333	1	83.629000
13.850000	1	82.877500
13.866667	1	81.230375
13.883333	1	78.604250
13.900000	1	74.828250
13.916667	1	69.686250
13.933333	1	63.061625
13.950000	1	55.146500
13.966667	1	46.526875
13.983333	1	38.030625
14.000000	1	30.383500
14.016667	1	23.987000
14.033333	1	18.904625
14.050000	1	14.988250
14.066667	1	12.021250
14.083333	1	9.797875
14.100000	1	8.145250
14.116667	1	6.925875
14.133333	1	6.029000
14.150000	1	5.368125
14.166667	1	4.876750
14.183333	1	4.506125
14.200000	1	4.222125
14.216667	1	3.998375
14.233333	1	3.818250
14.250000	1	3.669500
14.266667	1	3.543875
14.283333	1	3.435875
14.300000	1	3.340250
14.316667	1	3.254750
14.333333	1	3.177250
14.350000	1	3.106375
14.366667	1	3.041125
14.383333	1	2.980375
14.400000	1	2.924125
14.416667	1	2.871750
14.433333	1	2.822750
14.450000	1	2.777125
14.466667	1	2.734375
14.483333	1	2.694625
14.500000	1	2.656750
14.516667	1	2.620875
14.533333	1	2.587125
14.550000	1	2.555375
14.566667	1	2.524875
14.583333	1	2.495375
14.600000	1	2.466625
14.616667	1	2.438625
14.633333	1	2.410625
14.650000	1	2.383500
14.666667	1	2.356375
14.683333	1	2.328250
14.700000	1	2.299875
14.716667	1	2.271000
14.733333	1	2.242000
14.750000	1	2.213625
14.766667	1	2.185125
14.783333	1	2.156750
14.800000	1	2.128875
14.816667	1	2.101375
14.833333	1	2.073375
14.850000	1	2.046000
14.866667	1	2.019375
14.883333	1	1.992750
14.900000	1	1.967250
14.916667	1	1.941125
14.933333	1	1.916125
14.950000	1	1.891375
14.966667	1	1.867375
14.983333	1	1.843500
15.000000	1	1.820250
15.016667	1	1.797750
15.033333	1	1.775500
15.050000	1	1.754000
15.066667	1	1.732375
15.083333	1	1.711125
15.100000	1	1.691125
15.116667	1	1.671250
15.133333	1	1.652750
15.150000	1	1.634750
15.166667	1	1.618125
15.183333	1	1.602250
15.200000	1	1.587500
15.216667	1	1.574375
15.233333	1	1.562000
15.250000	1	1.551500
15.266667	1	1.543875
15.283333	1	1.536500
15.300000	1	1.531625
15.316667	1	1.529750
15.333333	1	1.531125
15.350000	1	1.535000
15.366667	1	1.541875
15.383333	1	1.553500
15.400000	1	1.568125
15.416667	1	1.586875
15.433333	1	1.608375
15.450000	1	1.633875
15.466667	1	1.662125
15.483333	1	1.692375
15.500000	1	1.722625
15.516667	1	1.752875
15.533333	1	1.781250
15.550000	1	1.805875
15.566667	1	1.825750
15.583333	1	1.838625
15.600000	1	1.844125
15.616667	1	1.842250
15.633333	1	1.832125
15.650000	1	1.814250
15.666667	1	1.789375
15.683333	1	1.759250
15.700000	1	1.725125
15.716667	1	1.687125
15.733333	1	1.648000
15.750000	1	1.607875
15.766667	1	1.567875
15.783333	1	1.529375
15.800000	1	1.492250
15.816667	1	1.457125
15.833333	1	1.423625
15.850000	1	1.391750
15.866667	1	1.360875
15.883333	1	1.331625
15.900000	1	1.303375
15.916667	1	1.276125
15.933333	1	1.250000
15.950000	1	1.225125
15.966667	1	1.201750
15.983333	1	1.180625
16.000000	1	1.161250
16.016667	1	1.144875
16.033333	1	1.129500
16.050000	1	1.116750
16.066667	1	1.106000
16.083333	1	1.098250
16.100000	1	1.091375
16.116667	1	1.085750
16.133333	1	1.082750
16.150000	1	1.080375
16.166667	1	1.079625
16.183333	1	1.079250
16.200000	1	1.079375
16.216667	1	1.080375
16.233333	1	1.081750
16.250000	1	1.082375
16.266667	1	1.082625
16.283333	1	1.082000
16.300000	1	1.081375
16.316667	1	1.080250
16.333333	1	1.077750
16.350000	1	1.074875
16.366667	1	1.071250
16.383333	1	1.068250
16.400000	1	1.065125
16.416667	1	1.060875
16.433333	1	1.056750
16.450000	1	1.052500
16.466667	1	1.049250
16.483333	1	1.046000
16.500000	1	1.043750
16.516667	1	1.043000
16.533333	1	1.044250
16.550000	1	1.045750
16.566667	1	1.048750
16.583333	1	1.053125
16.600000	1	1.058875
16.616667	1	1.065375
16.633333	1	1.073375
16.650000	1	1.080625
16.666667	1	1.088125
16.683333	1	1.096500
16.700000	1	1.103625
16.716667	1	1.109750
16.733333	1	1.115000
16.750000	1	1.119250
16.766667	1	1.122875
16.783333	1	1.125875
16.800000	1	1.127750
16.816667	1	1.129750
16.833333	1	1.131375
16.850000	1	1.133500
16.866667	1	1.136250
16.883333	1	1.138250
16.900000	1	1.140000
16.916667	1	1.142250
16.933333	1	1.144250
16.950000	1	1.145875
16.966667	1	1.147000
16.983333	1	1.147125
17.000000	1	1.147000
17.016667	1	1.146375
17.033333	1	1.145000
17.050000	1	1.142625
17.066667	1	1.140000
17.083333	1	1.136000
17.100000	1	1.132125
17.116667	1	1.128875
17.133333	1	1.125500
17.150000	1	1.123250
17.166667	1	1.119375
17.183333	1	1.118125
17.200000	1	1.117750
17.216667	1	1.118125
17.233333	1	1.119750
17.250000	1	1.122125
17.266667	1	1.125125
17.283333	1	1.128875
17.300000	1	1.133625
17.316667	1	1.138500
17.333333	1	1.143625
17.350000	1	1.149750
17.366667	1	1.156125
17.383333	1	1.162500
17.400000	1	1.168875
17.416667	1	1.174625
17.433333	1	1.179375
17.450000	1	1.182875
17.466667	1	1.185625
17.483333	1	1.187375
17.500000	1	1.187125
17.516667	1	1.185250
17.533333	1	1.181875
17.550000	1	1.175625
17.566667	1	1.167500
17.583333	1	1.158375
17.600000	1	1.146875
17.616667	1	1.134250
17.633333	1	1.120125
17.650000	1	1.104625
17.666667	1	1.088250
17.683333	1	1.071500
17.700000	1	1.054125
17.716667	1	1.036375
17.733333	1	1.018750
17.750000	1	1.001875
17.766667	1	0.985625
17.783333	1	0.969625
17.800000	1	0.954250
17.816667	1	0.940125
17.833333	1	0.926750
17.850000	1	0.913625
17.866667	1	0.901250
17.883333	1	0.889500
17.900000	1	0.879250
17.916667	1	0.869000
17.933333	1	0.860125
17.950000	1	0.851875
17.966667	1	0.844375
17.983333	1	0.836125
18.000000	1	0.829375
18.016667	1	0.823000
18.033333	1	0.816625
18.050000	1	0.811500
18.066667	1	0.806125
18.083333	1	0.800625
18.100000	1	0.795000
18.116667	1	0.789750
18.133333	1	0.784625
18.150000	1	0.779750
18.166667	1	0.775750
18.183333	1	0.770875
18.200000	1	0.767000
18.216667	1	0.762500
18.233333	1	0.758500
18.250000	1	0.755000
18.266667	1	0.752375
18.283333	1	0.750375
18.300000	1	0.749000
18.316667	1	0.747750
18.333333	1	0.747250
18.350000	1	0.747750
18.366667	1	0.748625
18.383333	1	0.749750
18.400000	1	0.751625
18.416667	1	0.753750
18.433333	1	0.756125
18.450000	1	0.759625
18.466667	1	0.763625
18.483333	1	0.768375
18.500000	1	0.774500
18.516667	1	0.781750
18.533333	1	0.790750
18.550000	1	0.801000
18.566667	1	0.812875
18.583333	1	0.828000
18.600000	1	0.844625
18.616667	1	0.862500
18.633333	1	0.883250
18.650000	1	0.905750
18.666667	1	0.930000
18.683333	1	0.956500
18.700000	1	0.984375
18.716667	1	1.014500
18.733333	1	1.045125
18.750000	1	1.077125
18.766667	1	1.110000
18.783333	1	1.143750
18.800000	1	1.178125
18.816667	1	1.211500
18.833333	1	1.243875
18.850000	1	1.275875
18.866667	1	1.305500
18.883333	1	1.332125
18.900000	1	1.355125
18.916667	1	1.374500
18.933333	1	1.389250
18.950000	1	1.399125
18.966667	1	1.403000
18.983333	1	1.400125
19.000000	1	1.392375
19.016667	1	1.377500
19.033333	1	1.356500
19.050000	1	1.329500
19.066667	1	1.296875
19.083333	1	1.259375
19.100000	1	1.217625
19.116667	1	1.173625
19.133333	1	1.126375
19.150000	1	1.078125
19.166667	1	1.029875
19.183333	1	0.982375
19.200000	1	0.937000
19.216667	1	0.893250
19.233333	1	0.852750
19.250000	1	0.815875
19.266667	1	0.783875
19.283333	1	0.756250
19.300000	1	0.733750
19.316667	1	0.715750
19.333333	1	0.702500
19.350000	1	0.695125
19.366667	1	0.692500
19.383333	1	0.694625
19.400000	1	0.700250
19.416667	1	0.711125
19.433333	1	0.725625
19.450000	1	0.744500
19.466667	1	0.766250
19.483333	1	0.790750
19.500000	1	0.818250
19.516667	1	0.847625
19.533333	1	0.877875
19.550000	1	0.909500
19.566667	1	0.941375
19.583333	1	0.971625
19.600000	1	1.000000
19.616667	1	1.025875
19.633333	1	1.047500
19.650000	1	1.064875
19.666667	1	1.078500
19.683333	1	1.086625
19.700000	1	1.089000
19.716667	1	1.085875
19.733333	1	1.076750
19.750000	1	1.062625
19.766667	1	1.044125
19.783333	1	1.020875
19.800000	1	0.994375
19.816667	1	0.964000
19.833333	1	0.931875
19.850000	1	0.898250
19.866667	1	0.864750
19.883333	1	0.831000
19.900000	1	0.798000
19.916667	1	0.766250
19.933333	1	0.735875
19.950000	1	0.707125
19.966667	1	0.680750
19.983333	1	0.656250
20.000000	1	0.635500
20.016667	1	0.616125
20.033333	1	0.600125
20.050000	1	0.586500
20.066667	1	0.576000
20.083333	1	0.568500
20.100000	1	0.563500
20.116667	1	0.561125
20.133333	1	0.561500
20.150000	1	0.564000
20.166667	1	0.568750
20.183333	1	0.576125
20.200000	1	0.584750
20.216667	1	0.595500
20.233333	1	0.607750
20.250000	1	0.621750
20.266667	1	0.636125
20.283333	1	0.651500
20.300000	1	0.666500
20.316667	1	0.681875
20.333333	1	0.696500
20.350000	1	0.710625
20.366667	1	0.723125
20.383333	1	0.733500
20.400000	1	0.741875
20.416667	1	0.748625
20.433333	1	0.752875
20.450000	1	0.756500
20.466667	1	0.758125
20.483333	1	0.758875
20.500000	1	0.758375
20.516667	1	0.759250
20.533333	1	0.761250
20.550000	1	0.765250
20.566667	1	0.772500
20.583333	1	0.783875
20.600000	1	0.799125
20.616667	1	0.819750
20.633333	1	0.845625
20.650000	1	0.878750
20.666667	1	0.918500
20.683333	1	0.963875
20.700000	1	1.015625
20.716667	1	1.073375
20.733333	1	1.135500
20.750000	1	1.201625
20.766667	1	1.271000
20.783333	1	1.341625
20.800000	1	1.410625
20.816667	1	1.477375
20.833333	1	1.538875
20.850000	1	1.592625
20.866667	1	1.638000
20.883333	1	1.672625
20.900000	1	1.694875
20.916667	1	1.705000
20.933333	1	1.701375
20.950000	1	1.684250
20.966667	1	1.654250
20.983333	1	1.611500
21.000000	1	1.558125
21.016667	1	1.496125
21.033333	1	1.427375
21.050000	1	1.353625
21.066667	1	1.276125
21.083333	1	1.198375
21.100000	1	1.121125
21.116667	1	1.046750
21.133333	1	0.975250
21.150000	1	0.907625
21.166667	1	0.845625
21.183333	1	0.788000
21.200000	1	0.736000
21.216667	1	0.688875
21.233333	1	0.648250
21.250000	1	0.612250
21.266667	1	0.581000
21.283333	1	0.554125
21.300000	1	0.530750
21.316667	1	0.510500
21.333333	1	0.493750
21.350000	1	0.479250
21.366667	1	0.467375
21.383333	1	0.457125
21.400000	1	0.449125
21.416667	1	0.441625
21.433333	1	0.435625
21.450000	1	0.430125
21.466667	1	0.425625
21.483333	1	0.422375
21.500000	1	0.419750
21.516667	1	0.418500
21.533333	1	0.418000
21.550000	1	0.419125
21.566667	1	0.419875
21.583333	1	0.422000
21.600000	1	0.425625
21.616667	1	0.430500
21.633333	1	0.436125
21.650000	1	0.443250
21.666667	1	0.451875
21.683333	1	0.462500
21.700000	1	0.475375
21.716667	1	0.489375
21.733333	1	0.505500
21.750000	1	0.523500
21.766667	1	0.542375
21.783333	1	0.564125
21.800000	1	0.588000
21.816667	1	0.613000
21.833333	1	0.639625
21.850000	1	0.666750
21.866667	1	0.695375
21.883333	1	0.725125
21.900000	1	0.755875
21.916667	1	0.786625
21.933333	1	0.817500
21.950000	1	0.847500
21.966667	1	0.875875
21.983333	1	0.903875
22.000000	1	0.929375
22.016667	1	0.952625
22.033333	1	0.972375
22.050000	1	0.988250
22.066667	1	0.999875
22.083333	1	1.008500
22.100000	1	1.013250
22.116667	1	1.012750
22.133333	1	1.008250
22.150000	1	0.999250
22.166667	1	0.986375
22.183333	1	0.969875
22.200000	1	0.950000
22.216667	1	0.927250
22.233333	1	0.902625
22.250000	1	0.875125
22.266667	1	0.846000
22.283333	1	0.816000
22.300000	1	0.785500
22.316667	1	0.754875
22.333333	1	0.724750
22.350000	1	0.694125
22.366667	1	0.664625
22.383333	1	0.635500
22.400000	1	0.607750
22.416667	1	0.581000
22.433333	1	0.555875
22.450000	1	0.531000
22.466667	1	0.507500
22.483333	1	0.486125
22.500000	1	0.466500
22.516667	1	0.447875
22.533333	1	0.430625
22.550000	1	0.415000
22.566667	1	0.400000
22.583333	1	0.386500
22.600000	1	0.373875
22.616667	1	0.362750
22.633333	1	0.352375
22.650000	1	0.342250
22.666667	1	0.333625
22.683333	1	0.325375
22.700000	1	0.317500
22.716667	1	0.310625
22.733333	1	0.305375
22.750000	1	0.299750
22.766667	1	0.294125
22.783333	1	0.289500
22.800000	1	0.285000
22.816667	1	0.280250
22.833333	1	0.276250
22.850000	1	0.272875
22.866667	1	0.269125
22.883333	1	0.266750
22.900000	1	0.264625
22.916667	1	0.262625
22.933333	1	0.260750
22.950000	1	0.259500
22.966667	1	0.258250
22.983333	1	0.257625
23.000000	1	0.257250
23.016667	1	0.257125
23.033333	1	0.257250
23.050000	1	0.257375
23.066667	1	0.258000
23.083333	1	0.259125
23.100000	1	0.260125
23.116667	1	0.261000
23.133333	1	0.262375
23.150000	1	0.264500
23.166667	1	0.267000
23.183333	1	0.268625
23.200000	1	0.271250
23.216667	1	0.273625
23.233333	1	0.276875
23.250000	1	0.281625
23.266667	1	0.286625
23.283333	1	0.292875
23.300000	1	0.300750
23.316667	1	0.310125
23.333333	1	0.322125
23.350000	1	0.337000
23.366667	1	0.355125
23.383333	1	0.376625
23.400000	1	0.402750
23.416667	1	0.433375
23.433333	1	0.470375
23.450000	1	0.514750
23.466667	1	0.566000
23.483333	1	0.625625
23.500000	1	0.693625
23.516667	1	0.771875
23.533333	1	0.860625
23.550000	1	0.960125
23.566667	1	1.071250
23.583333	1	1.193625
23.600000	1	1.328625
23.616667	1	1.476125
23.633333	1	1.635125
23.650000	1	1.806875
23.666667	1	1.989750
23.683333	1	2.183125
23.700000	1	2.385375
23.716667	1	2.596000
23.733333	1	2.810875
23.750000	1	3.028000
23.766667	1	3.244625
23.783333	1	3.457000
23.800000	1	3.661875
23.816667	1	3.854625
23.833333	1	4.031875
23.850000	1	4.189875
23.866667	1	4.324750
23.883333	1	4.432625
23.900000	1	4.512500
23.916667	1	4.560750
23.933333	1	4.576500
23.950000	1	4.559750
23.966667	1	4.510875
23.983333	1	4.430250
24.000000	1	4.320875
24.016667	1	4.185375
24.033333	1	4.027625
24.050000	1	3.851125
24.066667	1	3.658875
24.083333	1	3.455250
24.100000	1	3.244500
24.116667	1	3.029625
24.133333	1	2.815000
24.150000	1	2.603875
24.166667	1	2.399625
24.183333	1	2.203250
24.200000	1	2.016750
24.216667	1	1.841750
24.233333	1	1.679000
24.250000	1	1.528750
24.266667	1	1.391500
24.283333	1	1.267125
24.300000	1	1.154375
24.316667	1	1.053625
24.333333	1	0.964125
24.350000	1	0.885125
24.366667	1	0.815250
24.383333	1	0.754375
24.400000	1	0.701000
24.416667	1	0.655125
24.433333	1	0.615750
24.450000	1	0.581250
24.466667	1	0.552500
24.483333	1	0.527625
24.500000	1	0.506250
24.516667	1	0.488000
24.533333	1	0.472500
24.550000	1	0.458750
24.566667	1	0.447000
24.583333	1	0.436375
24.600000	1	0.426750
24.616667	1	0.417875
24.633333	1	0.409875
24.650000	1	0.401750
24.666667	1	0.393250
24.683333	1	0.385500
24.700000	1	0.378000
24.716667	1	0.370375
24.733333	1	0.362750
24.750000	1	0.355250
24.766667	1	0.346875
24.783333	1	0.338375
24.800000	1	0.330500
24.816667	1	0.322625
24.833333	1	0.315250
24.850000	1	0.308000
24.866667	1	0.300125
24.883333	1	0.293875
24.900000	1	0.287375
24.916667	1	0.280500
24.933333	1	0.275125
24.950000	1	0.270125
24.966667	1	0.264750
24.983333	1	0.259875
25.000000	1	0.255750
25.016667	1	0.252000
25.033333	1	0.248625
25.050000	1	0.245125
25.066667	1	0.242750
25.083333	1	0.240375
25.100000	1	0.238250
25.116667	1	0.236750
25.133333	1	0.234875
25.150000	1	0.233000
25.166667	1	0.231250
25.183333	1	0.230000
25.200000	1	0.228625
25.216667	1	0.227875
25.233333	1	0.227125
25.250000	1	0.226250
25.266667	1	0.226000
25.283333	1	0.225375
25.300000	1	0.225250
25.316667	1	0.225125
25.333333	1	0.224750
25.350000	1	0.224250
25.366667	1	0.224250
25.383333	1	0.224375
25.400000	1	0.224375
25.416667	1	0.223500
25.433333	1	0.223750
25.450000	1	0.224375
25.466667	1	0.225000
25.483333	1	0.225875
25.500000	1	0.226125
25.516667	1	0.226500
25.533333	1	0.226500
25.550000	1	0.227375
25.566667	1	0.228500
25.583333	1	0.229250
25.600000	1	0.230625
25.616667	1	0.231500
25.633333	1	0.231875
25.650000	1	0.232625
25.666667	1	0.233375
25.683333	1	0.233750
25.700000	1	0.234750
25.716667	1	0.236375
25.733333	1	0.237000
25.750000	1	0.238000
25.766667	1	0.239125
25.783333	1	0.240000
25.800000	1	0.241250
25.816667	1	0.243250
25.833333	1	0.245375
25.850000	1	0.247250
25.866667	1	0.249125
25.883333	1	0.252250
25.900000	1	0.254250
25.916667	1	0.257375
25.933333	1	0.259875
25.950000	1	0.263375
25.966667	1	0.266875
25.983333	1	0.270000
26.000000	1	0.273500
26.016667	1	0.277500
26.033333	1	0.281375
26.050000	1	0.284625
26.066667	1	0.288500
26.083333	1	0.292750
26.100000	1	0.296500
26.116667	1	0.299875
26.133333	1	0.303250
26.150000	1	0.306375
26.166667	1	0.308875
26.183333	1	0.310875
26.200000	1	0.312625
26.216667	1	0.314125
26.233333	1	0.315250
26.250000	1	0.315375
26.266667	1	0.315250
26.283333	1	0.314625
26.300000	1	0.313250
26.316667	1	0.312125
26.333333	1	0.309875
26.350000	1	0.306750
26.366667	1	0.303500
26.383333	1	0.299000
26.400000	1	0.294000
26.416667	1	0.289875
26.433333	1	0.284375
26.450000	1	0.279000
26.466667	1	0.273250
26.483333	1	0.267625
26.500000	1	0.261375
26.516667	1	0.255125
26.533333	1	0.249250
26.550000	1	0.242625
26.566667	1	0.236125
26.583333	1	0.229750
26.600000	1	0.223875
26.616667	1	0.217625
26.633333	1	0.212125
26.650000	1	0.206375
26.666667	1	0.200875
26.683333	1	0.195875
26.700000	1	0.190750
26.716667	1	0.185750
26.733333	1	0.181125
26.750000	1	0.177375
26.766667	1	0.173375
26.783333	1	0.170625
26.800000	1	0.168125
26.816667	1	0.165375
26.833333	1	0.163500
26.850000	1	0.162125
26.866667	1	0.160625
26.883333	1	0.159750
26.900000	1	0.159125
26.916667	1	0.158875
26.933333	1	0.159500
26.950000	1	0.160750
26.966667	1	0.162500
26.983333	1	0.164375
27.000000	1	0.167125
27.016667	1	0.170625
27.033333	1	0.174250
27.050000	1	0.179375
27.066667	1	0.185000
27.083333	1	0.191625
27.100000	1	0.199750
27.116667	1	0.208250
27.133333	1	0.218625
27.150000	1	0.231000
27.166667	1	0.243875
27.183333	1	0.259250
27.200000	1	0.277125
27.216667	1	0.297500
27.233333	1	0.320375
27.250000	1	0.345625
27.266667	1	0.375000
27.283333	1	0.407625
27.300000	1	0.444125
27.316667	1	0.485625
27.333333	1	0.531250
27.350000	1	0.582500
27.366667	1	0.638750
27.383333	1	0.700250
27.400000	1	0.768750
27.416667	1	0.843625
27.433333	1	0.925875
27.450000	1	1.015375
27.466667	1	1.112250
27.483333	1	1.216125
27.500000	1	1.328625
27.516667	1	1.448750
27.533333	1	1.575000
27.550000	1	1.709500
27.566667	1	1.851000
27.583333	1	1.997875
27.600000	1	2.149875
27.616667	1	2.306875
27.633333	1	2.467250
27.650000	1	2.629500
27.666667	1	2.793125
27.683333	1	2.955250
27.700000	1	3.113875
27.716667	1	3.267750
27.733333	1	3.414500
27.750000	1	3.551500
27.766667	1	3.677750
27.783333	1	3.789125
27.800000	1	3.885125
27.816667	1	3.964375
27.833333	1	4.023875
27.850000	1	4.063375
27.866667	1	4.081625
27.883333	1	4.077750
27.900000	1	4.050375
27.916667	1	4.001125
27.933333	1	3.930750
27.950000	1	3.839000
27.966667	1	3.728875
27.983333	1	3.601500
28.000000	1	3.458625
28.016667	1	3.303375
28.033333	1	3.138250
28.050000	1	2.965125
28.066667	1	2.786500
28.083333	1	2.605375
28.100000	1	2.424125
28.116667	1	2.245125
28.133333	1	2.071000
28.150000	1	1.903500
28.166667	1	1.743500
28.183333	1	1.593250
28.200000	1	1.451750
28.216667	1	1.320625
28.233333	1	1.200125
28.250000	1	1.090125
28.266667	1	0.990375
28.283333	1	0.901250
28.300000	1	0.822250
28.316667	1	0.751875
28.333333	1	0.690500
28.350000	1	0.637750
28.366667	1	0.592125
28.383333	1	0.554125
28.400000	1	0.523125
28.416667	1	0.497500
28.433333	1	0.476750
28.450000	1	0.460250
28.466667	1	0.448125
28.483333	1	0.439500
28.500000	1	0.434125
28.516667	1	0.431500
28.533333	1	0.431625
28.550000	1	0.434000
28.566667	1	0.437750
28.583333	1	0.443625
28.600000	1	0.451000
28.616667	1	0.458250
28.633333	1	0.466625
28.650000	1	0.475375
28.666667	1	0.484750
28.683333	1	0.493750
28.700000	1	0.502750
28.716667	1	0.511250
28.733333	1	0.520375
28.750000	1	0.528625
28.766667	1	0.536625
28.783333	1	0.543000
28.800000	1	0.549500
28.816667	1	0.554625
28.833333	1	0.559375
28.850000	1	0.562625
28.866667	1	0.565875
28.883333	1	0.566875
28.900000	1	0.567125
28.916667	1	0.566750
28.933333	1	0.565125
28.950000	1	0.562375
28.966667	1	0.558625
28.983333	1	0.554375
29.000000	1	0.549500
29.016667	1	0.542625
29.033333	1	0.535375
29.050000	1	0.526625
29.066667	1	0.517750
29.083333	1	0.508375
29.100000	1	0.497875
29.116667	1	0.487125
29.133333	1	0.475375
29.150000	1	0.464000
29.166667	1	0.451375
29.183333	1	0.438750
29.200000	1	0.425625
29.216667	1	0.413000
29.233333	1	0.399625
29.250000	1	0.386500
29.266667	1	0.373500
29.283333	1	0.361250
29.300000	1	0.348375
29.316667	1	0.336750
29.333333	1	0.324625
29.350000	1	0.312000
29.366667	1	0.300375
29.383333	1	0.289000
29.400000	1	0.277625
29.416667	1	0.267750
29.433333	1	0.257875
29.450000	1	0.248000
29.466667	1	0.238750
29.483333	1	0.229750
29.500000	1	0.221625
29.516667	1	0.213500
29.533333	1	0.206375
29.550000	1	0.198625
29.566667	1	0.191875
29.583333	1	0.185125
29.600000	1	0.179125
29.616667	1	0.173000
29.633333	1	0.167750
29.650000	1	0.162500
29.666667	1	0.156500
29.683333	1	0.151750
29.700000	1	0.147375
29.716667	1	0.143500
29.733333	1	0.139625
29.750000	1	0.136125
29.766667	1	0.132750
29.783333	1	0.129375
29.800000	1	0.126125
29.816667	1	0.123250
29.833333	1	0.120500
29.850000	1	0.117750
29.866667	1	0.115000
29.883333	1	0.112000
29.900000	1	0.108375
29.916667	1	0.105250
29.933333	1	0.102875
29.950000	1	0.100125
29.966667	1	0.097500
29.983333	1	0.095000
30.000000	1	0.092500
30.016667	1	0.090000
30.033333	1	0.087375
30.050000	1	0.085125
30.066667	1	0.082500
30.083333	1	0.079875
30.100000	1	0.077500
30.116667	1	0.075500
30.133333	1	0.073125
30.150000	1	0.070750
30.166667	1	0.068500
30.183333	1	0.066000
30.200000	1	0.064500
30.216667	1	0.062750
30.233333	1	0.061000
30.250000	1	0.059750
30.266667	1	0.058625
30.283333	1	0.057625
30.300000	1	0.057500
30.316667	1	0.057875
30.333333	1	0.057500
30.350000	1	0.058250
30.366667	1	0.059500
30.383333	1	0.060875
30.400000	1	0.063250
30.416667	1	0.065625
30.433333	1	0.068625
30.450000	1	0.072375
30.466667	1	0.076875
30.483333	1	0.081000
30.500000	1	0.086250
30.516667	1	0.091875
30.533333	1	0.098375
30.550000	1	0.105125
30.566667	1	0.112375
30.583333	1	0.121000
30.600000	1	0.131000
30.616667	1	0.141375
30.633333	1	0.152750
30.650000	1	0.164250
30.666667	1	0.177000
30.683333	1	0.191875
30.700000	1	0.208000
30.716667	1	0.225875
30.733333	1	0.245125
30.750000	1	0.265750
30.766667	1	0.289875
30.783333	1	0.316000
30.800000	1	0.345500
30.816667	1	0.377500
30.833333	1	0.413250
30.850000	1	0.452875
30.866667	1	0.496625
30.883333	1	0.544375
30.900000	1	0.597875
30.916667	1	0.656250
30.933333	1	0.721500
30.950000	1	0.791500
30.966667	1	0.869750
30.983333	1	0.955000
31.000000	1	1.047250
31.016667	1	1.147875
31.033333	1	1.256375
31.050000	1	1.373375
31.066667	1	1.499000
31.083333	1	1.633250
31.100000	1	1.776125
31.116667	1	1.927500
31.133333	1	2.087125
31.150000	1	2.254000
31.166667	1	2.427750
31.183333	1	2.608000
31.200000	1	2.793000
31.216667	1	2.982625
31.233333	1	3.174875
31.250000	1	3.368250
31.266667	1	3.560250
31.283333	1	3.750375
31.300000	1	3.936500
31.316667	1	4.116375
31.333333	1	4.288375
31.350000	1	4.449250
31.366667	1	4.597625
31.383333	1	4.732250
31.400000	1	4.851250
31.416667	1	4.951625
31.433333	1	5.032500
31.450000	1	5.093000
31.466667	1	5.132875
31.483333	1	5.150250
31.500000	1	5.145625
31.516667	1	5.119125
31.533333	1	5.070750
31.550000	1	5.001750
31.566667	1	4.912750
31.583333	1	4.804000
31.600000	1	4.678625
31.616667	1	4.537500
31.633333	1	4.381375
31.650000	1	4.214500
31.666667	1	4.036875
31.683333	1	3.852250
31.700000	1	3.662250
31.716667	1	3.469250
31.733333	1	3.274000
31.750000	1	3.078500
31.766667	1	2.884750
31.783333	1	2.694000
31.800000	1	2.507250
31.816667	1	2.326500
31.833333	1	2.152000
31.850000	1	1.984750
31.866667	1	1.826125
31.883333	1	1.676125
31.900000	1	1.534750
31.916667	1	1.402625
31.933333	1	1.279250
31.950000	1	1.165125
31.966667	1	1.059500
31.983333	1	0.962125
32.000000	1	0.872875
32.016667	1	0.791500
32.033333	1	0.716875
32.050000	1	0.649625
32.066667	1	0.588500
32.083333	1	0.533625
32.100000	1	0.484375
32.116667	1	0.440000
32.133333	1	0.401125
32.150000	1	0.366375
32.166667	1	0.335125
32.183333	1	0.308000
32.200000	1	0.282625
32.216667	1	0.260500
32.233333	1	0.241250
32.250000	1	0.223375
32.266667	1	0.207750
32.283333	1	0.193750
32.300000	1	0.181000
32.316667	1	0.169625
32.333333	1	0.159250
32.350000	1	0.150500
32.366667	1	0.141875
32.383333	1	0.134750
32.400000	1	0.127875
32.416667	1	0.121125
32.433333	1	0.114125
32.450000	1	0.108000
32.466667	1	0.102250
32.483333	1	0.096750
32.500000	1	0.091875
32.516667	1	0.087000
32.533333	1	0.082500
32.550000	1	0.078000
32.566667	1	0.073875
32.583333	1	0.069750
32.600000	1	0.066250
32.616667	1	0.062875
32.633333	1	0.059500
32.650000	1	0.055500
32.666667	1	0.052500
32.683333	1	0.049250
32.700000	1	0.046375
32.716667	1	0.043625
32.733333	1	0.041500
32.750000	1	0.039000
32.766667	1	0.037125
32.783333	1	0.034750
32.800000	1	0.033000
32.816667	1	0.031250
32.833333	1	0.029375
32.850000	1	0.027625
32.866667	1	0.026750
32.883333	1	0.025875
32.900000	1	0.024750
32.916667	1	0.023750
32.933333	1	0.023125
32.950000	1	0.022375
32.966667	1	0.022500
32.983333	1	0.022250
33.000000	1	0.022000
33.016667	1	0.021625
33.033333	1	0.022125
33.050000	1	0.022625
33.066667	1	0.022500
33.083333	1	0.023000
33.100000	1	0.024000
33.116667	1	0.025125
33.133333	1	0.027125
33.150000	1	0.029125
33.166667	1	0.030875
33.183333	1	0.032625
33.200000	1	0.035000
33.216667	1	0.037000
33.233333	1	0.040625
33.250000	1	0.044875
33.266667	1	0.048875
33.283333	1	0.053500
33.300000	1	0.057875
33.316667	1	0.063500
33.333333	1	0.070250
33.350000	1	0.077375
33.366667	1	0.085125
33.383333	1	0.093750
33.400000	1	0.103500
33.416667	1	0.113875
33.433333	1	0.125625
33.450000	1	0.138250
33.466667	1	0.152250
33.483333	1	0.167375
33.500000	1	0.183875
33.516667	1	0.201125
33.533333	1	0.220250
33.550000	1	0.240375
33.566667	1	0.262125
33.583333	1	0.285750
33.600000	1	0.310375
33.616667	1	0.336625
33.633333	1	0.363625
33.650000	1	0.392750
33.666667	1	0.423625
33.683333	1	0.455500
33.700000	1	0.488000
33.716667	1	0.522000
33.733333	1	0.557875
33.750000	1	0.593875
33.766667	1	0.631875
33.783333	1	0.669375
33.800000	1	0.708250
33.816667	1	0.746875
33.833333	1	0.785750
33.850000	1	0.823625
33.866667	1	0.861250
33.883333	1	0.897500
33.900000	1	0.932750
33.916667	1	0.966375
33.933333	1	0.998375
33.950000	1	1.028750
33.966667	1	1.056625
33.983333	1	1.081375
34.000000	1	1.102500
34.016667	1	1.120875
34.033333	1	1.135875
34.050000	1	1.147125
34.066667	1	1.154750
34.083333	1	1.158875
34.100000	1	1.159250
34.116667	1	1.155625
34.133333	1	1.147875
34.150000	1	1.136625
34.166667	1	1.121500
34.183333	1	1.103625
34.200000	1	1.082625
34.216667	1	1.057750
34.233333	1	1.030750
34.250000	1	1.000875
34.266667	1	0.969750
34.283333	1	0.937250
34.300000	1	0.903000
34.316667	1	0.867750
34.333333	1	0.832250
34.350000	1	0.795750
34.366667	1	0.759625
34.383333	1	0.724000
34.400000	1	0.688625
34.416667	1	0.654375
34.433333	1	0.620875
34.450000	1	0.588125
34.466667	1	0.556625
34.483333	1	0.527250
34.500000	1	0.498750
34.516667	1	0.471750
34.533333	1	0.446625
34.550000	1	0.423125
34.566667	1	0.400250
34.583333	1	0.379625
34.600000	1	0.359875
34.616667	1	0.342375
34.633333	1	0.325500
34.650000	1	0.310125
34.666667	1	0.296250
34.683333	1	0.283500
34.700000	1	0.271625
34.716667	1	0.261250
34.733333	1	0.251250
34.750000	1	0.242125
34.766667	1	0.233250
34.783333	1	0.225125
34.800000	1	0.218875
34.816667	1	0.211375
34.833333	1	0.205000
34.850000	1	0.199375
34.866667	1	0.194875
34.883333	1	0.189375
34.900000	1	0.184250
34.916667	1	0.180375
34.933333	1	0.176500
34.950000	1	0.172000
34.966667	1	0.168250
34.983333	1	0.164750
35.000000	1	0.160875
35.016667	1	0.157875
35.033333	1	0.155000
35.050000	1	0.152125
35.066667	1	0.148750
35.083333	1	0.146125
35.100000	1	0.143500
35.116667	1	0.141125
35.133333	1	0.138750
35.150000	1	0.136625
35.166667	1	0.135000
35.183333	1	0.133500
35.200000	1	0.131500
35.216667	1	0.130250
35.233333	1	0.129000
35.250000	1	0.127625
35.266667	1	0.126625
35.283333	1	0.125750
35.300000	1	0.125125
35.316667	1	0.125000
35.333333	1	0.125250
35.350000	1	0.124875
35.366667	1	0.124875
35.383333	1	0.124875
35.400000	1	0.125250
35.416667	1	0.125000
35.433333	1	0.125500
35.450000	1	0.125375
35.466667	1	0.126125
35.483333	1	0.126375
35.500000	1	0.126750
35.516667	1	0.127125
35.533333	1	0.127375
35.550000	1	0.127625
35.566667	1	0.127875
35.583333	1	0.127875
35.600000	1	0.127875
35.616667	1	0.127875
35.633333	1	0.128125
35.650000	1	0.128250
35.666667	1	0.128000
35.683333	1	0.127750
35.700000	1	0.127250
35.716667	1	0.127000
35.733333	1	0.126625
35.750000	1	0.126125
35.766667	1	0.125625
35.783333	1	0.124875
35.800000	1	0.124375
35.816667	1	0.123750
35.833333	1	0.123375
35.850000	1	0.122875
35.866667	1	0.122500
35.883333	1	0.122125
35.900000	1	0.121250
35.916667	1	0.120875
35.933333	1	0.120500
35.950000	1	0.120500
35.966667	1	0.120000
35.983333	1	0.119875
36.000000	1	0.120250
36.016667	1	0.120125
36.033333	1	0.119875
36.050000	1	0.119000
36.066667	1	0.118750
36.083333	1	0.118875
36.100000	1	0.117875
36.116667	1	0.118000
36.133333	1	0.116750
36.150000	1	0.115750
36.166667	1	0.115125
36.183333	1	0.115125
36.200000	1	0.114375
36.216667	1	0.113125
36.233333	1	0.112750
36.250000	1	0.112250
36.266667	1	0.111375
36.283333	1	0.110125
36.300000	1	0.109375
36.316667	1	0.108750
36.333333	1	0.107500
36.350000	1	0.105750
36.366667	1	0.104875
36.383333	1	0.103125
36.400000	1	0.101375
36.416667	1	0.099750
36.433333	1	0.098375
36.450000	1	0.096750
36.466667	1	0.095250
36.483333	1	0.093750
36.500000	1	0.091625
36.516667	1	0.089875
36.533333	1	0.088125
36.550000	1	0.087000
36.566667	1	0.084625
36.583333	1	0.082625
36.600000	1	0.081000
36.616667	1	0.079625
36.633333	1	0.077375
36.650000	1	0.076000
36.666667	1	0.074500
36.683333	1	0.072875
36.700000	1	0.071375
36.716667	1	0.070250
36.733333	1	0.069125
36.750000	1	0.067750
36.766667	1	0.065875
36.783333	1	0.065125
36.800000	1	0.064125
36.816667	1	0.063125
36.833333	1	0.061875
36.850000	1	0.061250
36.866667	1	0.060500
36.883333	1	0.059875
36.900000	1	0.059250
36.916667	1	0.059000
36.933333	1	0.058625
36.950000	1	0.058750
36.966667	1	0.059000
36.983333	1	0.059375
37.000000	1	0.058875
37.016667	1	0.058750
37.033333	1	0.059250
37.050000	1	0.059125
37.066667	1	0.059125
37.083333	1	0.059250
37.100000	1	0.059500
37.116667	1	0.059875
37.133333	1	0.060375
37.150000	1	0.060750
37.166667	1	0.061250
37.183333	1	0.061125
37.200000	1	0.061750
37.216667	1	0.061750
37.233333	1	0.061875
37.250000	1	0.062625
37.266667	1	0.063375
37.283333	1	0.064000
37.300000	1	0.064500
37.316667	1	0.064625
37.333333	1	0.065625
37.350000	1	0.066375
37.366667	1	0.066875
37.383333	1	0.067875
37.400000	1	0.068000
37.416667	1	0.068375
37.433333	1	0.068625
37.450000	1	0.068625
37.466667	1	0.068875
37.483333	1	0.069250
37.500000	1	0.070000
37.516667	1	0.070500
37.533333	1	0.070875
37.550000	1	0.070875
37.566667	1	0.070875
37.583333	1	0.070875
37.600000	1	0.070875
37.616667	1	0.070000
37.633333	1	0.069625
37.650000	1	0.069875
37.666667	1	0.069125
37.683333	1	0.068750
37.700000	1	0.068750
37.716667	1	0.067625
37.733333	1	0.066750
37.750000	1	0.065500
37.766667	1	0.065000
37.783333	1	0.063750
37.800000	1	0.063000
37.816667	1	0.062500
37.833333	1	0.061625
37.850000	1	0.061000
37.866667	1	0.061125
37.883333	1	0.060625
37.900000	1	0.060250
37.916667	1	0.059625
37.933333	1	0.060000
37.950000	1	0.059750
37.966667	1	0.059875
37.983333	1	0.059875
38.000000	1	0.059750
38.016667	1	0.060625
38.033333	1	0.060875
38.050000	1	0.061375
38.066667	1	0.062500
38.083333	1	0.062500
38.100000	1	0.062750
38.116667	1	0.063500
38.133333	1	0.064250
38.150000	1	0.064250
38.166667	1	0.065375
38.183333	1	0.066250
38.200000	1	0.067250
38.216667	1	0.068000
38.233333	1	0.068875
38.250000	1	0.069625
38.266667	1	0.070625
38.283333	1	0.071625
38.300000	1	0.071875
38.316667	1	0.073000
38.333333	1	0.072875
38.350000	1	0.073250
38.366667	1	0.073375
38.383333	1	0.073250
38.400000	1	0.073250
38.416667	1	0.073250
38.433333	1	0.073125
38.450000	1	0.073375
38.466667	1	0.073375
38.483333	1	0.072500
38.500000	1	0.071500
38.516667	1	0.070000
38.533333	1	0.069250
38.550000	1	0.068375
38.566667	1	0.067250
38.583333	1	0.066125
38.600000	1	0.064625
38.616667	1	0.063875
38.633333	1	0.062125
38.650000	1	0.060250
38.666667	1	0.058625
38.683333	1	0.056875
38.700000	1	0.055125
38.716667	1	0.053125
38.733333	1	0.050875
38.750000	1	0.049250
38.766667	1	0.048250
38.783333	1	0.046000
38.800000	1	0.044250
38.816667	1	0.041875
38.833333	1	0.039750
38.850000	1	0.038250
38.866667	1	0.036875
38.883333	1	0.035875
38.900000	1	0.034250
38.916667	1	0.032500
38.933333	1	0.030750
38.950000	1	0.029500
38.966667	1	0.028250
38.983333	1	0.027125
39.000000	1	0.025500
39.016667	1	0.025000
39.033333	1	0.024875
39.050000	1	0.024625
39.066667	1	0.024125
39.083333	1	0.023125
39.100000	1	0.021750
39.116667	1	0.021875
39.133333	1	0.022250
39.150000	1	0.021625
39.166667	1	0.021875
39.183333	1	0.021875
39.200000	1	0.022250
39.216667	1	0.022625
39.233333	1	0.022875
39.250000	1	0.023125
39.266667	1	0.023750
39.283333	1	0.024500
39.300000	1	0.024875
39.316667	1	0.026000
39.333333	1	0.026750
39.350000	1	0.027625
39.366667	1	0.028000
39.383333	1	0.028000
39.400000	1	0.028250
39.416667	1	0.029250
39.433333	1	0.029875
39.450000	1	0.029875
39.466667	1	0.030375
39.483333	1	0.030625
39.500000	1	0.031500
39.516667	1	0.032000
39.533333	1	0.032625
39.550000	1	0.032750
39.566667	1	0.032375
39.583333	1	0.032875
39.600000	1	0.033125
39.616667	1	0.033375
39.633333	1	0.033125
39.650000	1	0.033500
39.666667	1	0.033875
39.683333	1	0.033750
39.700000	1	0.033875
39.716667	1	0.033125
39.733333	1	0.032750
39.750000	1	0.033000
39.766667	1	0.032875
39.783333	1	0.032875
39.800000	1	0.033625
39.816667	1	0.034125
39.833333	1	0.034375
39.850000	1	0.035125
39.866667	1	0.036125
39.883333	1	0.035750
39.900000	1	0.036000
39.916667	1	0.036750
39.933333	1	0.037625
39.950000	1	0.038125
39.966667	1	0.038875
39.983333	1	0.039625
40.000000	1	0.040000
