URL	chrom://bioreactor/micro_cm7/HPLC_Ultimate_3000/Users/markusar/20240716_MA_pHrange2.seq/577.smp/RI_1.channel/RI_1.chm
Channel	RI_1

Injection Information:
Data Vault	micro_cm7
Sequence	20240716_MA_pHrange2
Name	Fp3_25H_4
Number	48
Position	BD12
Comment	
Processing Method	
Instrument Method	run_25B_method
Type	Unknown
Status	Finished
Inject Time	18.07.2024 02:11:59 +02:00
Volume (µl)	20.0000
Dilution Factor	1.0000
Weight	1.0000

Chromatogram Data Information:
Time Min. (min)	0.000000
Time Max. (min)	40.000000
Data Points	2401
Detector	RI
Generating Data System	Chromeleon 7.3.2.11814
Exporting Data System	Chromeleon 7.3.2.0
Operator	Instrument Controller
Signal Quantity	Refractive 
Signal Unit	µRIU
Signal Min.	-0.124125
Signal Max.	84.420375
Channel	RI_1
Driver Name	RID520Driver.dll
Channel Type	Evaluation
Min. Step (s)	1
Max. Step (s)	1
Average Step (s)	1

Signal Parameter Information:
Signal Info	

Chromatogram Data:
Time (min)	Step (s)	Value (µRIU)
0.000000	n.a.	0.011375
0.016667	1	0.010875
0.033333	1	0.010875
0.050000	1	0.010250
0.066667	1	0.010375
0.083333	1	0.009750
0.100000	1	0.009000
0.116667	1	0.008500
0.133333	1	0.007500
0.150000	1	0.006625
0.166667	1	0.004875
0.183333	1	0.003250
0.200000	1	0.001500
0.216667	1	0.000375
0.233333	1	-0.001625
0.250000	1	-0.003000
0.266667	1	-0.004625
0.283333	1	-0.006375
0.300000	1	-0.007750
0.316667	1	-0.010375
0.333333	1	-0.012375
0.350000	1	-0.014375
0.366667	1	-0.016750
0.383333	1	-0.019250
0.400000	1	-0.022625
0.416667	1	-0.024625
0.433333	1	-0.025500
0.450000	1	-0.025875
0.466667	1	-0.026250
0.483333	1	-0.026000
0.500000	1	-0.026750
0.516667	1	-0.027375
0.533333	1	-0.027750
0.550000	1	-0.028500
0.566667	1	-0.030625
0.583333	1	-0.033500
0.600000	1	-0.035750
0.616667	1	-0.037750
0.633333	1	-0.039125
0.650000	1	-0.039750
0.666667	1	-0.040500
0.683333	1	-0.040125
0.700000	1	-0.039875
0.716667	1	-0.039000
0.733333	1	-0.039000
0.750000	1	-0.038500
0.766667	1	-0.037875
0.783333	1	-0.037375
0.800000	1	-0.037125
0.816667	1	-0.036875
0.833333	1	-0.036500
0.850000	1	-0.034875
0.866667	1	-0.034375
0.883333	1	-0.034125
0.900000	1	-0.033250
0.916667	1	-0.032500
0.933333	1	-0.031750
0.950000	1	-0.032250
0.966667	1	-0.031375
0.983333	1	-0.030000
1.000000	1	-0.029375
1.016667	1	-0.028375
1.033333	1	-0.027875
1.050000	1	-0.026250
1.066667	1	-0.025750
1.083333	1	-0.025000
1.100000	1	-0.024000
1.116667	1	-0.023000
1.133333	1	-0.021500
1.150000	1	-0.019375
1.166667	1	-0.017875
1.183333	1	-0.016875
1.200000	1	-0.015375
1.216667	1	-0.013500
1.233333	1	-0.011625
1.250000	1	-0.009875
1.266667	1	-0.008000
1.283333	1	-0.006125
1.300000	1	-0.003875
1.316667	1	-0.002000
1.333333	1	0.000000
1.350000	1	0.001875
1.366667	1	0.004625
1.383333	1	0.007250
1.400000	1	0.009125
1.416667	1	0.011875
1.433333	1	0.014250
1.450000	1	0.016500
1.466667	1	0.018875
1.483333	1	0.021125
1.500000	1	0.022875
1.516667	1	0.025375
1.533333	1	0.027625
1.550000	1	0.029750
1.566667	1	0.031750
1.583333	1	0.033875
1.600000	1	0.035500
1.616667	1	0.037125
1.633333	1	0.039375
1.650000	1	0.040750
1.666667	1	0.042750
1.683333	1	0.044000
1.700000	1	0.045250
1.716667	1	0.046000
1.733333	1	0.047250
1.750000	1	0.047500
1.766667	1	0.048250
1.783333	1	0.049125
1.800000	1	0.049625
1.816667	1	0.050000
1.833333	1	0.050750
1.850000	1	0.051250
1.866667	1	0.051500
1.883333	1	0.050875
1.900000	1	0.051250
1.916667	1	0.050125
1.933333	1	0.049250
1.950000	1	0.048500
1.966667	1	0.047750
1.983333	1	0.047000
2.000000	1	0.046000
2.016667	1	0.045750
2.033333	1	0.044875
2.050000	1	0.044125
2.066667	1	0.042250
2.083333	1	0.041500
2.100000	1	0.040250
2.116667	1	0.039250
2.133333	1	0.037500
2.150000	1	0.036250
2.166667	1	0.034625
2.183333	1	0.033000
2.200000	1	0.031375
2.216667	1	0.030125
2.233333	1	0.029375
2.250000	1	0.028000
2.266667	1	0.027375
2.283333	1	0.026250
2.300000	1	0.024625
2.316667	1	0.023500
2.333333	1	0.021875
2.350000	1	0.020625
2.366667	1	0.019625
2.383333	1	0.017750
2.400000	1	0.016875
2.416667	1	0.015875
2.433333	1	0.015125
2.450000	1	0.014000
2.466667	1	0.013375
2.483333	1	0.012625
2.500000	1	0.012250
2.516667	1	0.011000
2.533333	1	0.010375
2.550000	1	0.009625
2.566667	1	0.008500
2.583333	1	0.008125
2.600000	1	0.007625
2.616667	1	0.006750
2.633333	1	0.006500
2.650000	1	0.005625
2.666667	1	0.005000
2.683333	1	0.004875
2.700000	1	0.004625
2.716667	1	0.004500
2.733333	1	0.004625
2.750000	1	0.003875
2.766667	1	0.003125
2.783333	1	0.002875
2.800000	1	0.003000
2.816667	1	0.003250
2.833333	1	0.002750
2.850000	1	0.003125
2.866667	1	0.004250
2.883333	1	0.004500
2.900000	1	0.004750
2.916667	1	0.005500
2.933333	1	0.005375
2.950000	1	0.005750
2.966667	1	0.006750
2.983333	1	0.007875
3.000000	1	0.008875
3.016667	1	0.009875
3.033333	1	0.011250
3.050000	1	0.012875
3.066667	1	0.013750
3.083333	1	0.014375
3.100000	1	0.016250
3.116667	1	0.016750
3.133333	1	0.017750
3.150000	1	0.019375
3.166667	1	0.020625
3.183333	1	0.022375
3.200000	1	0.024125
3.216667	1	0.025000
3.233333	1	0.026250
3.250000	1	0.027125
3.266667	1	0.028500
3.283333	1	0.029625
3.300000	1	0.031125
3.316667	1	0.032000
3.333333	1	0.033125
3.350000	1	0.034250
3.366667	1	0.034625
3.383333	1	0.035875
3.400000	1	0.036375
3.416667	1	0.037625
3.433333	1	0.038000
3.450000	1	0.039250
3.466667	1	0.040125
3.483333	1	0.040750
3.500000	1	0.041250
3.516667	1	0.042000
3.533333	1	0.042125
3.550000	1	0.042625
3.566667	1	0.043125
3.583333	1	0.044000
3.600000	1	0.044500
3.616667	1	0.045125
3.633333	1	0.045500
3.650000	1	0.045500
3.666667	1	0.045500
3.683333	1	0.045625
3.700000	1	0.046125
3.716667	1	0.046125
3.733333	1	0.046500
3.750000	1	0.046375
3.766667	1	0.046000
3.783333	1	0.046000
3.800000	1	0.046125
3.816667	1	0.045750
3.833333	1	0.045750
3.850000	1	0.046125
3.866667	1	0.046000
3.883333	1	0.045125
3.900000	1	0.045125
3.916667	1	0.044750
3.933333	1	0.044500
3.950000	1	0.043875
3.966667	1	0.043750
3.983333	1	0.043750
4.000000	1	0.043625
4.016667	1	0.043250
4.033333	1	0.043125
4.050000	1	0.043000
4.066667	1	0.043125
4.083333	1	0.043250
4.100000	1	0.043375
4.116667	1	0.043125
4.133333	1	0.043750
4.150000	1	0.044250
4.166667	1	0.044750
4.183333	1	0.045500
4.200000	1	0.046500
4.216667	1	0.047000
4.233333	1	0.047375
4.250000	1	0.048500
4.266667	1	0.049250
4.283333	1	0.050125
4.300000	1	0.050875
4.316667	1	0.053000
4.333333	1	0.053500
4.350000	1	0.054500
4.366667	1	0.055500
4.383333	1	0.056500
4.400000	1	0.057000
4.416667	1	0.057875
4.433333	1	0.058875
4.450000	1	0.059875
4.466667	1	0.060250
4.483333	1	0.061250
4.500000	1	0.062250
4.516667	1	0.063125
4.533333	1	0.064125
4.550000	1	0.065125
4.566667	1	0.066125
4.583333	1	0.067625
4.600000	1	0.069250
4.616667	1	0.070625
4.633333	1	0.072250
4.650000	1	0.074000
4.666667	1	0.076125
4.683333	1	0.077875
4.700000	1	0.079875
4.716667	1	0.081375
4.733333	1	0.084125
4.750000	1	0.086875
4.766667	1	0.089375
4.783333	1	0.092375
4.800000	1	0.096125
4.816667	1	0.099250
4.833333	1	0.102875
4.850000	1	0.106750
4.866667	1	0.110750
4.883333	1	0.114625
4.900000	1	0.118625
4.916667	1	0.123375
4.933333	1	0.127250
4.950000	1	0.131875
4.966667	1	0.136125
4.983333	1	0.140375
5.000000	1	0.144750
5.016667	1	0.149500
5.033333	1	0.154375
5.050000	1	0.159375
5.066667	1	0.163125
5.083333	1	0.167500
5.100000	1	0.171625
5.116667	1	0.175500
5.133333	1	0.179250
5.150000	1	0.182625
5.166667	1	0.186250
5.183333	1	0.189750
5.200000	1	0.194250
5.216667	1	0.197625
5.233333	1	0.200625
5.250000	1	0.203750
5.266667	1	0.206500
5.283333	1	0.209000
5.300000	1	0.211000
5.316667	1	0.213250
5.333333	1	0.214750
5.350000	1	0.216125
5.366667	1	0.217625
5.383333	1	0.218375
5.400000	1	0.219250
5.416667	1	0.219375
5.433333	1	0.219500
5.450000	1	0.218750
5.466667	1	0.217875
5.483333	1	0.216875
5.500000	1	0.215875
5.516667	1	0.214500
5.533333	1	0.212750
5.550000	1	0.210375
5.566667	1	0.206625
5.583333	1	0.204375
5.600000	1	0.201125
5.616667	1	0.198000
5.633333	1	0.194500
5.650000	1	0.190500
5.666667	1	0.186125
5.683333	1	0.181750
5.700000	1	0.177125
5.716667	1	0.172750
5.733333	1	0.167500
5.750000	1	0.163375
5.766667	1	0.158500
5.783333	1	0.153625
5.800000	1	0.148250
5.816667	1	0.142750
5.833333	1	0.138125
5.850000	1	0.132750
5.866667	1	0.127750
5.883333	1	0.122250
5.900000	1	0.118375
5.916667	1	0.113750
5.933333	1	0.108750
5.950000	1	0.103500
5.966667	1	0.099125
5.983333	1	0.095375
6.000000	1	0.091000
6.016667	1	0.087125
6.033333	1	0.083250
6.050000	1	0.079375
6.066667	1	0.075375
6.083333	1	0.071875
6.100000	1	0.068500
6.116667	1	0.065625
6.133333	1	0.063125
6.150000	1	0.060500
6.166667	1	0.057500
6.183333	1	0.055125
6.200000	1	0.053250
6.216667	1	0.050625
6.233333	1	0.048750
6.250000	1	0.046875
6.266667	1	0.045000
6.283333	1	0.042750
6.300000	1	0.041125
6.316667	1	0.039625
6.333333	1	0.038250
6.350000	1	0.037125
6.366667	1	0.036625
6.383333	1	0.035750
6.400000	1	0.035375
6.416667	1	0.034375
6.433333	1	0.033500
6.450000	1	0.033250
6.466667	1	0.032625
6.483333	1	0.031750
6.500000	1	0.031625
6.516667	1	0.031375
6.533333	1	0.031375
6.550000	1	0.031750
6.566667	1	0.031625
6.583333	1	0.031875
6.600000	1	0.032375
6.616667	1	0.033125
6.633333	1	0.033625
6.650000	1	0.033500
6.666667	1	0.034375
6.683333	1	0.034625
6.700000	1	0.035375
6.716667	1	0.036375
6.733333	1	0.037250
6.750000	1	0.038750
6.766667	1	0.040000
6.783333	1	0.040750
6.800000	1	0.042625
6.816667	1	0.044250
6.833333	1	0.045375
6.850000	1	0.046750
6.866667	1	0.047875
6.883333	1	0.048875
6.900000	1	0.050875
6.916667	1	0.052750
6.933333	1	0.054750
6.950000	1	0.056000
6.966667	1	0.057500
6.983333	1	0.059750
7.000000	1	0.061500
7.016667	1	0.062125
7.033333	1	0.063500
7.050000	1	0.065000
7.066667	1	0.066250
7.083333	1	0.067250
7.100000	1	0.068125
7.116667	1	0.069125
7.133333	1	0.069250
7.150000	1	0.070250
7.166667	1	0.071125
7.183333	1	0.070125
7.200000	1	0.069625
7.216667	1	0.069625
7.233333	1	0.069000
7.250000	1	0.067625
7.266667	1	0.066750
7.283333	1	0.065125
7.300000	1	0.063500
7.316667	1	0.061500
7.333333	1	0.059875
7.350000	1	0.057375
7.366667	1	0.055000
7.383333	1	0.052250
7.400000	1	0.050000
7.416667	1	0.047375
7.433333	1	0.044500
7.450000	1	0.041375
7.466667	1	0.038750
7.483333	1	0.035125
7.500000	1	0.031625
7.516667	1	0.028125
7.533333	1	0.025000
7.550000	1	0.021375
7.566667	1	0.017750
7.583333	1	0.014375
7.600000	1	0.011375
7.616667	1	0.007500
7.633333	1	0.004000
7.650000	1	0.000500
7.666667	1	-0.002250
7.683333	1	-0.005375
7.700000	1	-0.007875
7.716667	1	-0.010875
7.733333	1	-0.013375
7.750000	1	-0.016000
7.766667	1	-0.018500
7.783333	1	-0.021125
7.800000	1	-0.022875
7.816667	1	-0.025125
7.833333	1	-0.027250
7.850000	1	-0.028750
7.866667	1	-0.030375
7.883333	1	-0.031875
7.900000	1	-0.033375
7.916667	1	-0.034500
7.933333	1	-0.036000
7.950000	1	-0.037125
7.966667	1	-0.037750
7.983333	1	-0.038250
8.000000	1	-0.038625
8.016667	1	-0.038500
8.033333	1	-0.038000
8.050000	1	-0.038500
8.066667	1	-0.038000
8.083333	1	-0.037875
8.100000	1	-0.037000
8.116667	1	-0.036375
8.133333	1	-0.035750
8.150000	1	-0.034875
8.166667	1	-0.033875
8.183333	1	-0.032875
8.200000	1	-0.031750
8.216667	1	-0.030750
8.233333	1	-0.029500
8.250000	1	-0.028750
8.266667	1	-0.027250
8.283333	1	-0.025875
8.300000	1	-0.024375
8.316667	1	-0.022875
8.333333	1	-0.021750
8.350000	1	-0.019875
8.366667	1	-0.017875
8.383333	1	-0.016000
8.400000	1	-0.014250
8.416667	1	-0.012500
8.433333	1	-0.011125
8.450000	1	-0.010125
8.466667	1	-0.008750
8.483333	1	-0.007125
8.500000	1	-0.006375
8.516667	1	-0.004875
8.533333	1	-0.003750
8.550000	1	-0.003000
8.566667	1	-0.001875
8.583333	1	-0.001250
8.600000	1	0.000000
8.616667	1	-0.000125
8.633333	1	0.000375
8.650000	1	0.000250
8.666667	1	0.001000
8.683333	1	0.000750
8.700000	1	-0.000125
8.716667	1	-0.000125
8.733333	1	-0.000625
8.750000	1	-0.001000
8.766667	1	-0.001750
8.783333	1	-0.002750
8.800000	1	-0.003500
8.816667	1	-0.004500
8.833333	1	-0.006000
8.850000	1	-0.006875
8.866667	1	-0.008125
8.883333	1	-0.009875
8.900000	1	-0.011250
8.916667	1	-0.013375
8.933333	1	-0.014625
8.950000	1	-0.016250
8.966667	1	-0.017875
8.983333	1	-0.019625
9.000000	1	-0.021750
9.016667	1	-0.024125
9.033333	1	-0.025875
9.050000	1	-0.028125
9.066667	1	-0.029625
9.083333	1	-0.031500
9.100000	1	-0.033750
9.116667	1	-0.034875
9.133333	1	-0.036500
9.150000	1	-0.038000
9.166667	1	-0.039250
9.183333	1	-0.040875
9.200000	1	-0.042500
9.216667	1	-0.043375
9.233333	1	-0.045000
9.250000	1	-0.046500
9.266667	1	-0.048125
9.283333	1	-0.049125
9.300000	1	-0.050000
9.316667	1	-0.051250
9.333333	1	-0.052000
9.350000	1	-0.053125
9.366667	1	-0.053750
9.383333	1	-0.054500
9.400000	1	-0.055375
9.416667	1	-0.056750
9.433333	1	-0.057875
9.450000	1	-0.058750
9.466667	1	-0.059625
9.483333	1	-0.060250
9.500000	1	-0.060875
9.516667	1	-0.061250
9.533333	1	-0.061625
9.550000	1	-0.062250
9.566667	1	-0.063000
9.583333	1	-0.064000
9.600000	1	-0.064625
9.616667	1	-0.065125
9.633333	1	-0.065125
9.650000	1	-0.065500
9.666667	1	-0.066000
9.683333	1	-0.066375
9.700000	1	-0.066750
9.716667	1	-0.067000
9.733333	1	-0.066500
9.750000	1	-0.066500
9.766667	1	-0.066250
9.783333	1	-0.065875
9.800000	1	-0.065875
9.816667	1	-0.066250
9.833333	1	-0.066125
9.850000	1	-0.066625
9.866667	1	-0.065750
9.883333	1	-0.065000
9.900000	1	-0.064125
9.916667	1	-0.064250
9.933333	1	-0.064250
9.950000	1	-0.064000
9.966667	1	-0.064125
9.983333	1	-0.063875
10.000000	1	-0.063875
10.016667	1	-0.063875
10.033333	1	-0.063250
10.050000	1	-0.063375
10.066667	1	-0.063375
10.083333	1	-0.063625
10.100000	1	-0.063000
10.116667	1	-0.062750
10.133333	1	-0.061625
10.150000	1	-0.059875
10.166667	1	-0.057250
10.183333	1	-0.053625
10.200000	1	-0.049250
10.216667	1	-0.043500
10.233333	1	-0.036125
10.250000	1	-0.027375
10.266667	1	-0.017000
10.283333	1	-0.004375
10.300000	1	0.009875
10.316667	1	0.025500
10.333333	1	0.042250
10.350000	1	0.058500
10.366667	1	0.072375
10.383333	1	0.079750
10.400000	1	0.077375
10.416667	1	0.060000
10.433333	1	0.026000
10.450000	1	-0.021500
10.466667	1	-0.075500
10.483333	1	-0.118625
10.500000	1	-0.124125
10.516667	1	-0.054500
10.533333	1	0.135625
10.550000	1	0.500250
10.566667	1	1.098000
10.583333	1	1.986625
10.600000	1	3.219000
10.616667	1	4.841500
10.633333	1	6.886750
10.650000	1	9.377750
10.666667	1	12.328750
10.683333	1	15.743500
10.700000	1	19.612125
10.716667	1	23.916750
10.733333	1	28.627875
10.750000	1	33.705750
10.766667	1	39.099000
10.783333	1	44.751500
10.800000	1	50.594375
10.816667	1	56.538250
10.833333	1	62.458625
10.850000	1	68.185250
10.866667	1	73.475875
10.883333	1	77.977000
10.900000	1	81.223875
10.916667	1	82.670250
10.933333	1	81.817375
10.950000	1	78.382250
10.966667	1	72.474750
10.983333	1	64.634375
11.000000	1	55.698625
11.016667	1	46.568500
11.033333	1	37.991250
11.050000	1	30.420250
11.066667	1	24.043000
11.083333	1	18.856500
11.100000	1	14.747000
11.116667	1	11.555000
11.133333	1	9.113625
11.150000	1	7.266125
11.166667	1	5.878125
11.183333	1	4.836625
11.200000	1	4.055000
11.216667	1	3.465125
11.233333	1	3.016500
11.250000	1	2.672750
11.266667	1	2.405250
11.283333	1	2.194125
11.300000	1	2.025500
11.316667	1	1.886875
11.333333	1	1.771625
11.350000	1	1.673375
11.366667	1	1.587500
11.383333	1	1.513125
11.400000	1	1.446750
11.416667	1	1.388000
11.433333	1	1.335500
11.450000	1	1.288250
11.466667	1	1.246625
11.483333	1	1.210750
11.500000	1	1.180625
11.516667	1	1.155000
11.533333	1	1.133625
11.550000	1	1.117375
11.566667	1	1.105250
11.583333	1	1.098375
11.600000	1	1.096375
11.616667	1	1.098375
11.633333	1	1.104250
11.650000	1	1.115000
11.666667	1	1.130500
11.683333	1	1.149625
11.700000	1	1.172000
11.716667	1	1.197000
11.733333	1	1.223250
11.750000	1	1.250250
11.766667	1	1.276250
11.783333	1	1.298875
11.800000	1	1.318875
11.816667	1	1.334375
11.833333	1	1.344250
11.850000	1	1.348375
11.866667	1	1.347250
11.883333	1	1.341125
11.900000	1	1.329875
11.916667	1	1.315125
11.933333	1	1.296875
11.950000	1	1.277000
11.966667	1	1.256250
11.983333	1	1.235250
12.000000	1	1.215250
12.016667	1	1.196500
12.033333	1	1.179250
12.050000	1	1.163625
12.066667	1	1.151000
12.083333	1	1.139250
12.100000	1	1.129500
12.116667	1	1.121250
12.133333	1	1.114750
12.150000	1	1.109500
12.166667	1	1.105875
12.183333	1	1.103375
12.200000	1	1.102250
12.216667	1	1.102375
12.233333	1	1.104625
12.250000	1	1.109500
12.266667	1	1.117750
12.283333	1	1.130625
12.300000	1	1.151000
12.316667	1	1.181375
12.333333	1	1.225875
12.350000	1	1.290875
12.366667	1	1.383250
12.383333	1	1.514500
12.400000	1	1.700500
12.416667	1	1.957250
12.433333	1	2.309500
12.450000	1	2.788000
12.466667	1	3.428375
12.483333	1	4.275750
12.500000	1	5.379625
12.516667	1	6.796000
12.533333	1	8.585375
12.550000	1	10.807750
12.566667	1	13.522375
12.583333	1	16.778000
12.600000	1	20.607000
12.616667	1	25.015125
12.633333	1	29.982250
12.650000	1	35.455875
12.666667	1	41.336000
12.683333	1	47.474875
12.700000	1	53.677875
12.716667	1	59.714625
12.733333	1	65.332000
12.750000	1	70.278125
12.766667	1	74.320000
12.783333	1	77.263875
12.800000	1	78.976875
12.816667	1	79.401375
12.833333	1	78.560125
12.850000	1	76.547875
12.866667	1	73.531250
12.883333	1	69.727625
12.900000	1	65.386750
12.916667	1	60.761125
12.933333	1	56.091000
12.950000	1	51.581750
12.966667	1	47.393125
12.983333	1	43.637375
13.000000	1	40.381750
13.016667	1	37.651875
13.033333	1	35.440875
13.050000	1	33.719250
13.066667	1	32.444500
13.083333	1	31.565375
13.100000	1	31.031500
13.116667	1	30.791500
13.133333	1	30.798000
13.150000	1	31.009000
13.166667	1	31.388875
13.183333	1	31.908000
13.200000	1	32.540000
13.216667	1	33.265875
13.233333	1	34.070250
13.250000	1	34.941125
13.266667	1	35.869625
13.283333	1	36.847125
13.300000	1	37.868375
13.316667	1	38.928500
13.333333	1	40.024500
13.350000	1	41.153125
13.366667	1	42.314125
13.383333	1	43.505000
13.400000	1	44.723875
13.416667	1	45.970375
13.433333	1	47.247250
13.450000	1	48.554125
13.466667	1	49.891750
13.483333	1	51.259875
13.500000	1	52.658875
13.516667	1	54.087125
13.533333	1	55.545750
13.550000	1	57.035875
13.566667	1	58.556875
13.583333	1	60.109000
13.600000	1	61.692500
13.616667	1	63.307500
13.633333	1	64.957875
13.650000	1	66.644750
13.666667	1	68.367625
13.683333	1	70.126625
13.700000	1	71.922500
13.716667	1	73.755625
13.733333	1	75.625625
13.750000	1	77.527500
13.766667	1	79.431750
13.783333	1	81.257125
13.800000	1	82.840625
13.816667	1	83.965250
13.833333	1	84.420375
13.850000	1	84.070375
13.866667	1	82.856125
13.883333	1	80.730000
13.900000	1	77.575125
13.916667	1	73.190125
13.933333	1	67.368500
13.950000	1	60.100625
13.966667	1	51.749375
13.983333	1	43.040250
14.000000	1	34.792625
14.016667	1	27.612125
14.033333	1	21.752000
14.050000	1	17.164750
14.066667	1	13.659875
14.083333	1	11.017375
14.100000	1	9.043500
14.116667	1	7.581125
14.133333	1	6.504000
14.150000	1	5.711625
14.166667	1	5.125875
14.183333	1	4.689125
14.200000	1	4.357250
14.216667	1	4.100125
14.233333	1	3.896500
14.250000	1	3.731375
14.266667	1	3.593750
14.283333	1	3.477250
14.300000	1	3.376875
14.316667	1	3.288000
14.333333	1	3.208375
14.350000	1	3.135875
14.366667	1	3.070750
14.383333	1	3.010375
14.400000	1	2.955375
14.416667	1	2.904750
14.433333	1	2.858125
14.450000	1	2.815375
14.466667	1	2.775500
14.483333	1	2.738625
14.500000	1	2.704125
14.516667	1	2.671625
14.533333	1	2.641000
14.550000	1	2.612125
14.566667	1	2.584375
14.583333	1	2.557625
14.600000	1	2.532125
14.616667	1	2.506875
14.633333	1	2.481125
14.650000	1	2.455125
14.666667	1	2.428250
14.683333	1	2.402125
14.700000	1	2.374375
14.716667	1	2.346375
14.733333	1	2.317625
14.750000	1	2.288500
14.766667	1	2.259250
14.783333	1	2.229750
14.800000	1	2.200125
14.816667	1	2.170500
14.833333	1	2.140750
14.850000	1	2.111125
14.866667	1	2.082250
14.883333	1	2.052875
14.900000	1	2.023500
14.916667	1	1.995250
14.933333	1	1.966500
14.950000	1	1.938250
14.966667	1	1.910875
14.983333	1	1.883500
15.000000	1	1.856250
15.016667	1	1.829375
15.033333	1	1.803750
15.050000	1	1.778875
15.066667	1	1.755125
15.083333	1	1.731125
15.100000	1	1.708375
15.116667	1	1.686125
15.133333	1	1.665000
15.150000	1	1.645375
15.166667	1	1.626625
15.183333	1	1.609375
15.200000	1	1.593625
15.216667	1	1.579000
15.233333	1	1.566875
15.250000	1	1.555875
15.266667	1	1.546750
15.283333	1	1.539750
15.300000	1	1.535500
15.316667	1	1.534375
15.333333	1	1.535875
15.350000	1	1.540375
15.366667	1	1.548250
15.383333	1	1.559125
15.400000	1	1.574750
15.416667	1	1.594000
15.433333	1	1.616875
15.450000	1	1.643250
15.466667	1	1.672750
15.483333	1	1.703875
15.500000	1	1.736375
15.516667	1	1.767750
15.533333	1	1.798000
15.550000	1	1.824375
15.566667	1	1.845500
15.583333	1	1.860750
15.600000	1	1.868250
15.616667	1	1.868375
15.633333	1	1.859500
15.650000	1	1.842875
15.666667	1	1.819375
15.683333	1	1.789625
15.700000	1	1.754625
15.716667	1	1.717375
15.733333	1	1.677500
15.750000	1	1.637250
15.766667	1	1.597750
15.783333	1	1.558000
15.800000	1	1.520500
15.816667	1	1.484875
15.833333	1	1.450250
15.850000	1	1.417125
15.866667	1	1.385500
15.883333	1	1.355250
15.900000	1	1.325875
15.916667	1	1.297250
15.933333	1	1.270375
15.950000	1	1.244750
15.966667	1	1.221000
15.983333	1	1.198625
16.000000	1	1.178500
16.016667	1	1.160750
16.033333	1	1.145125
16.050000	1	1.131625
16.066667	1	1.120375
16.083333	1	1.111000
16.100000	1	1.103750
16.116667	1	1.098375
16.133333	1	1.094000
16.150000	1	1.090875
16.166667	1	1.090000
16.183333	1	1.089375
16.200000	1	1.089875
16.216667	1	1.090000
16.233333	1	1.090375
16.250000	1	1.091000
16.266667	1	1.090875
16.283333	1	1.090375
16.300000	1	1.089375
16.316667	1	1.088000
16.333333	1	1.086000
16.350000	1	1.083750
16.366667	1	1.080375
16.383333	1	1.076500
16.400000	1	1.072375
16.416667	1	1.068875
16.433333	1	1.065125
16.450000	1	1.061500
16.466667	1	1.059000
16.483333	1	1.056500
16.500000	1	1.055500
16.516667	1	1.055250
16.533333	1	1.055875
16.550000	1	1.058500
16.566667	1	1.062375
16.583333	1	1.067875
16.600000	1	1.075250
16.616667	1	1.082250
16.633333	1	1.090250
16.650000	1	1.098375
16.666667	1	1.108125
16.683333	1	1.118125
16.700000	1	1.125875
16.716667	1	1.133375
16.733333	1	1.139625
16.750000	1	1.145000
16.766667	1	1.149500
16.783333	1	1.152875
16.800000	1	1.155625
16.816667	1	1.157875
16.833333	1	1.159625
16.850000	1	1.161625
16.866667	1	1.162875
16.883333	1	1.163875
16.900000	1	1.166000
16.916667	1	1.167125
16.933333	1	1.168500
16.950000	1	1.169125
16.966667	1	1.169500
16.983333	1	1.168750
17.000000	1	1.167625
17.016667	1	1.165375
17.033333	1	1.162250
17.050000	1	1.158625
17.066667	1	1.154000
17.083333	1	1.149125
17.100000	1	1.144375
17.116667	1	1.139250
17.133333	1	1.134375
17.150000	1	1.129375
17.166667	1	1.125125
17.183333	1	1.122500
17.200000	1	1.120500
17.216667	1	1.119625
17.233333	1	1.118625
17.250000	1	1.118625
17.266667	1	1.120000
17.283333	1	1.122375
17.300000	1	1.125875
17.316667	1	1.130250
17.333333	1	1.135125
17.350000	1	1.140375
17.366667	1	1.145375
17.383333	1	1.150625
17.400000	1	1.155750
17.416667	1	1.160375
17.433333	1	1.163750
17.450000	1	1.166500
17.466667	1	1.168625
17.483333	1	1.168250
17.500000	1	1.166500
17.516667	1	1.163000
17.533333	1	1.157875
17.550000	1	1.151000
17.566667	1	1.141750
17.583333	1	1.130625
17.600000	1	1.117375
17.616667	1	1.102875
17.633333	1	1.087000
17.650000	1	1.070125
17.666667	1	1.053250
17.683333	1	1.035250
17.700000	1	1.017000
17.716667	1	0.998375
17.733333	1	0.980750
17.750000	1	0.962625
17.766667	1	0.946000
17.783333	1	0.930000
17.800000	1	0.914875
17.816667	1	0.900500
17.833333	1	0.886875
17.850000	1	0.873625
17.866667	1	0.862125
17.883333	1	0.851750
17.900000	1	0.842000
17.916667	1	0.832375
17.933333	1	0.823750
17.950000	1	0.815875
17.966667	1	0.809500
17.983333	1	0.803000
18.000000	1	0.796375
18.016667	1	0.790750
18.033333	1	0.785000
18.050000	1	0.780625
18.066667	1	0.775875
18.083333	1	0.771000
18.100000	1	0.766125
18.116667	1	0.761625
18.133333	1	0.757625
18.150000	1	0.754125
18.166667	1	0.750000
18.183333	1	0.746500
18.200000	1	0.743500
18.216667	1	0.740125
18.233333	1	0.736750
18.250000	1	0.733875
18.266667	1	0.731750
18.283333	1	0.730125
18.300000	1	0.729375
18.316667	1	0.729250
18.333333	1	0.729625
18.350000	1	0.730750
18.366667	1	0.732000
18.383333	1	0.733875
18.400000	1	0.736500
18.416667	1	0.739375
18.433333	1	0.743250
18.450000	1	0.747875
18.466667	1	0.752750
18.483333	1	0.758625
18.500000	1	0.765250
18.516667	1	0.773375
18.533333	1	0.783125
18.550000	1	0.794625
18.566667	1	0.807750
18.583333	1	0.822375
18.600000	1	0.839000
18.616667	1	0.857875
18.633333	1	0.878500
18.650000	1	0.901000
18.666667	1	0.925125
18.683333	1	0.951250
18.700000	1	0.979750
18.716667	1	1.009500
18.733333	1	1.041250
18.750000	1	1.073625
18.766667	1	1.107750
18.783333	1	1.142000
18.800000	1	1.176875
18.816667	1	1.211250
18.833333	1	1.245000
18.850000	1	1.276875
18.866667	1	1.306875
18.883333	1	1.334500
18.900000	1	1.358000
18.916667	1	1.378250
18.933333	1	1.394500
18.950000	1	1.405500
18.966667	1	1.409875
18.983333	1	1.408375
19.000000	1	1.401000
19.016667	1	1.386000
19.033333	1	1.365500
19.050000	1	1.338750
19.066667	1	1.306625
19.083333	1	1.268125
19.100000	1	1.226375
19.116667	1	1.180625
19.133333	1	1.132875
19.150000	1	1.083250
19.166667	1	1.033125
19.183333	1	0.983500
19.200000	1	0.935625
19.216667	1	0.889750
19.233333	1	0.846500
19.250000	1	0.807250
19.266667	1	0.772375
19.283333	1	0.742000
19.300000	1	0.716125
19.316667	1	0.695125
19.333333	1	0.678625
19.350000	1	0.668125
19.366667	1	0.662000
19.383333	1	0.661000
19.400000	1	0.664625
19.416667	1	0.672875
19.433333	1	0.684750
19.450000	1	0.700500
19.466667	1	0.719375
19.483333	1	0.741750
19.500000	1	0.766750
19.516667	1	0.794250
19.533333	1	0.823250
19.550000	1	0.852500
19.566667	1	0.881375
19.583333	1	0.910375
19.600000	1	0.937625
19.616667	1	0.962250
19.633333	1	0.982750
19.650000	1	1.000000
19.666667	1	1.012000
19.683333	1	1.018750
19.700000	1	1.019375
19.716667	1	1.014750
19.733333	1	1.004500
19.750000	1	0.988875
19.766667	1	0.968875
19.783333	1	0.944750
19.800000	1	0.916000
19.816667	1	0.884000
19.833333	1	0.850250
19.850000	1	0.815375
19.866667	1	0.780000
19.883333	1	0.744250
19.900000	1	0.710500
19.916667	1	0.677750
19.933333	1	0.647125
19.950000	1	0.618625
19.966667	1	0.592375
19.983333	1	0.569000
20.000000	1	0.547625
20.016667	1	0.528750
20.033333	1	0.513250
20.050000	1	0.500375
20.066667	1	0.490500
20.083333	1	0.484250
20.100000	1	0.480500
20.116667	1	0.479375
20.133333	1	0.481000
20.150000	1	0.485250
20.166667	1	0.491125
20.183333	1	0.499500
20.200000	1	0.510000
20.216667	1	0.521625
20.233333	1	0.535250
20.250000	1	0.550250
20.266667	1	0.565750
20.283333	1	0.581750
20.300000	1	0.598625
20.316667	1	0.614750
20.333333	1	0.631125
20.350000	1	0.645875
20.366667	1	0.660500
20.383333	1	0.672375
20.400000	1	0.681875
20.416667	1	0.689500
20.433333	1	0.695750
20.450000	1	0.699500
20.466667	1	0.702250
20.483333	1	0.703750
20.500000	1	0.704875
20.516667	1	0.705625
20.533333	1	0.708250
20.550000	1	0.712500
20.566667	1	0.719875
20.583333	1	0.731000
20.600000	1	0.746375
20.616667	1	0.766875
20.633333	1	0.793375
20.650000	1	0.826125
20.666667	1	0.864625
20.683333	1	0.909250
20.700000	1	0.961250
20.716667	1	1.018375
20.733333	1	1.080750
20.750000	1	1.148125
20.766667	1	1.217375
20.783333	1	1.288250
20.800000	1	1.357875
20.816667	1	1.425375
20.833333	1	1.488125
20.850000	1	1.543875
20.866667	1	1.590625
20.883333	1	1.626250
20.900000	1	1.651125
20.916667	1	1.663500
20.933333	1	1.662000
20.950000	1	1.647125
20.966667	1	1.618500
20.983333	1	1.577500
21.000000	1	1.525500
21.016667	1	1.464250
21.033333	1	1.395750
21.050000	1	1.322375
21.066667	1	1.245500
21.083333	1	1.167000
21.100000	1	1.089750
21.116667	1	1.014375
21.133333	1	0.941625
21.150000	1	0.873125
21.166667	1	0.810125
21.183333	1	0.752000
21.200000	1	0.699875
21.216667	1	0.653375
21.233333	1	0.611375
21.250000	1	0.575375
21.266667	1	0.543875
21.283333	1	0.516875
21.300000	1	0.493250
21.316667	1	0.473875
21.333333	1	0.456625
21.350000	1	0.441875
21.366667	1	0.429250
21.383333	1	0.419000
21.400000	1	0.410250
21.416667	1	0.402625
21.433333	1	0.395875
21.450000	1	0.390875
21.466667	1	0.387125
21.483333	1	0.383625
21.500000	1	0.381000
21.516667	1	0.379625
21.533333	1	0.379125
21.550000	1	0.379750
21.566667	1	0.381625
21.583333	1	0.384500
21.600000	1	0.388250
21.616667	1	0.394375
21.633333	1	0.401750
21.650000	1	0.411375
21.666667	1	0.422375
21.683333	1	0.436500
21.700000	1	0.452625
21.716667	1	0.470750
21.733333	1	0.491500
21.750000	1	0.514125
21.766667	1	0.539125
21.783333	1	0.566250
21.800000	1	0.596250
21.816667	1	0.627625
21.833333	1	0.660750
21.850000	1	0.696750
21.866667	1	0.734125
21.883333	1	0.772125
21.900000	1	0.810875
21.916667	1	0.850875
21.933333	1	0.890000
21.950000	1	0.929000
21.966667	1	0.966625
21.983333	1	1.001750
22.000000	1	1.034375
22.016667	1	1.063875
22.033333	1	1.089625
22.050000	1	1.110625
22.066667	1	1.126625
22.083333	1	1.137250
22.100000	1	1.142375
22.116667	1	1.141250
22.133333	1	1.135250
22.150000	1	1.123500
22.166667	1	1.106375
22.183333	1	1.084750
22.200000	1	1.059000
22.216667	1	1.028625
22.233333	1	0.996625
22.250000	1	0.961500
22.266667	1	0.924625
22.283333	1	0.886250
22.300000	1	0.848250
22.316667	1	0.809750
22.333333	1	0.772125
22.350000	1	0.734500
22.366667	1	0.698500
22.383333	1	0.663625
22.400000	1	0.630875
22.416667	1	0.599250
22.433333	1	0.569750
22.450000	1	0.542125
22.466667	1	0.515500
22.483333	1	0.491375
22.500000	1	0.469625
22.516667	1	0.449000
22.533333	1	0.430250
22.550000	1	0.413000
22.566667	1	0.397125
22.583333	1	0.382500
22.600000	1	0.369625
22.616667	1	0.357500
22.633333	1	0.346875
22.650000	1	0.336625
22.666667	1	0.327375
22.683333	1	0.319500
22.700000	1	0.311500
22.716667	1	0.305250
22.733333	1	0.298625
22.750000	1	0.292875
22.766667	1	0.287000
22.783333	1	0.281625
22.800000	1	0.276750
22.816667	1	0.272000
22.833333	1	0.268000
22.850000	1	0.263750
22.866667	1	0.259250
22.883333	1	0.255500
22.900000	1	0.252125
22.916667	1	0.249375
22.933333	1	0.246625
22.950000	1	0.243625
22.966667	1	0.240875
22.983333	1	0.238875
23.000000	1	0.236750
23.016667	1	0.234875
23.033333	1	0.233250
23.050000	1	0.231875
23.066667	1	0.231500
23.083333	1	0.231250
23.100000	1	0.230875
23.116667	1	0.230875
23.133333	1	0.230875
23.150000	1	0.231250
23.166667	1	0.231500
23.183333	1	0.232125
23.200000	1	0.233375
23.216667	1	0.234750
23.233333	1	0.236750
23.250000	1	0.239500
23.266667	1	0.242750
23.283333	1	0.247500
23.300000	1	0.253750
23.316667	1	0.262250
23.333333	1	0.273250
23.350000	1	0.287000
23.366667	1	0.303625
23.383333	1	0.324250
23.400000	1	0.348750
23.416667	1	0.378375
23.433333	1	0.414000
23.450000	1	0.456375
23.466667	1	0.505875
23.483333	1	0.564000
23.500000	1	0.630375
23.516667	1	0.706750
23.533333	1	0.792875
23.550000	1	0.890000
23.566667	1	0.998125
23.583333	1	1.117500
23.600000	1	1.249250
23.616667	1	1.394125
23.633333	1	1.550000
23.650000	1	1.717500
23.666667	1	1.896750
23.683333	1	2.086875
23.700000	1	2.285375
23.716667	1	2.491875
23.733333	1	2.703500
23.750000	1	2.918000
23.766667	1	3.132000
23.783333	1	3.343125
23.800000	1	3.547625
23.816667	1	3.741000
23.833333	1	3.919250
23.850000	1	4.078875
23.866667	1	4.216875
23.883333	1	4.329625
23.900000	1	4.414750
23.916667	1	4.469250
23.933333	1	4.492125
23.950000	1	4.482500
23.966667	1	4.440500
23.983333	1	4.368375
24.000000	1	4.266625
24.016667	1	4.139125
24.033333	1	3.988000
24.050000	1	3.818250
24.066667	1	3.632750
24.083333	1	3.435375
24.100000	1	3.229875
24.116667	1	3.020625
24.133333	1	2.810125
24.150000	1	2.603125
24.166667	1	2.401000
24.183333	1	2.207250
24.200000	1	2.022500
24.216667	1	1.848250
24.233333	1	1.686000
24.250000	1	1.536875
24.266667	1	1.399750
24.283333	1	1.274625
24.300000	1	1.162000
24.316667	1	1.061000
24.333333	1	0.971000
24.350000	1	0.890875
24.366667	1	0.820750
24.383333	1	0.759625
24.400000	1	0.706000
24.416667	1	0.658625
24.433333	1	0.618250
24.450000	1	0.584250
24.466667	1	0.554875
24.483333	1	0.530000
24.500000	1	0.507625
24.516667	1	0.489625
24.533333	1	0.473750
24.550000	1	0.460250
24.566667	1	0.447875
24.583333	1	0.437750
24.600000	1	0.428000
24.616667	1	0.419250
24.633333	1	0.411500
24.650000	1	0.404750
24.666667	1	0.398250
24.683333	1	0.391750
24.700000	1	0.385000
24.716667	1	0.377875
24.733333	1	0.371500
24.750000	1	0.364875
24.766667	1	0.358500
24.783333	1	0.352375
24.800000	1	0.345750
24.816667	1	0.338500
24.833333	1	0.332750
24.850000	1	0.327250
24.866667	1	0.321750
24.883333	1	0.315875
24.900000	1	0.310875
24.916667	1	0.306375
24.933333	1	0.302250
24.950000	1	0.297500
24.966667	1	0.293250
24.983333	1	0.290125
25.000000	1	0.286750
25.016667	1	0.284000
25.033333	1	0.280500
25.050000	1	0.277750
25.066667	1	0.274875
25.083333	1	0.272250
25.100000	1	0.270125
25.116667	1	0.267375
25.133333	1	0.265500
25.150000	1	0.263375
25.166667	1	0.261625
25.183333	1	0.258375
25.200000	1	0.255750
25.216667	1	0.253375
25.233333	1	0.251250
25.250000	1	0.248625
25.266667	1	0.246250
25.283333	1	0.244375
25.300000	1	0.241875
25.316667	1	0.240125
25.333333	1	0.237875
25.350000	1	0.235500
25.366667	1	0.233125
25.383333	1	0.230625
25.400000	1	0.229125
25.416667	1	0.226750
25.433333	1	0.224625
25.450000	1	0.222750
25.466667	1	0.221000
25.483333	1	0.219375
25.500000	1	0.217500
25.516667	1	0.216375
25.533333	1	0.215125
25.550000	1	0.213500
25.566667	1	0.212375
25.583333	1	0.211500
25.600000	1	0.210250
25.616667	1	0.209500
25.633333	1	0.209000
25.650000	1	0.208500
25.666667	1	0.207625
25.683333	1	0.207125
25.700000	1	0.206500
25.716667	1	0.206250
25.733333	1	0.206750
25.750000	1	0.207000
25.766667	1	0.206875
25.783333	1	0.207125
25.800000	1	0.208125
25.816667	1	0.209375
25.833333	1	0.210625
25.850000	1	0.212000
25.866667	1	0.214250
25.883333	1	0.216625
25.900000	1	0.219000
25.916667	1	0.221750
25.933333	1	0.224875
25.950000	1	0.228500
25.966667	1	0.232125
25.983333	1	0.236000
26.000000	1	0.239625
26.016667	1	0.243625
26.033333	1	0.248000
26.050000	1	0.252250
26.066667	1	0.256250
26.083333	1	0.261000
26.100000	1	0.265250
26.116667	1	0.269250
26.133333	1	0.273500
26.150000	1	0.277250
26.166667	1	0.280625
26.183333	1	0.283000
26.200000	1	0.285750
26.216667	1	0.287875
26.233333	1	0.289500
26.250000	1	0.291250
26.266667	1	0.292000
26.283333	1	0.291500
26.300000	1	0.291750
26.316667	1	0.290750
26.333333	1	0.289375
26.350000	1	0.287500
26.366667	1	0.285125
26.383333	1	0.282250
26.400000	1	0.278875
26.416667	1	0.274500
26.433333	1	0.270250
26.450000	1	0.264750
26.466667	1	0.260000
26.483333	1	0.255000
26.500000	1	0.249750
26.516667	1	0.244125
26.533333	1	0.238125
26.550000	1	0.231750
26.566667	1	0.225750
26.583333	1	0.220500
26.600000	1	0.214875
26.616667	1	0.208875
26.633333	1	0.203750
26.650000	1	0.198625
26.666667	1	0.193625
26.683333	1	0.188500
26.700000	1	0.184500
26.716667	1	0.179500
26.733333	1	0.175750
26.750000	1	0.172125
26.766667	1	0.168500
26.783333	1	0.165250
26.800000	1	0.162375
26.816667	1	0.160125
26.833333	1	0.158000
26.850000	1	0.156250
26.866667	1	0.154500
26.883333	1	0.153500
26.900000	1	0.152875
26.916667	1	0.152125
26.933333	1	0.152375
26.950000	1	0.153250
26.966667	1	0.154875
26.983333	1	0.156500
27.000000	1	0.158625
27.016667	1	0.161750
27.033333	1	0.165625
27.050000	1	0.170500
27.066667	1	0.175750
27.083333	1	0.182125
27.100000	1	0.188625
27.116667	1	0.197375
27.133333	1	0.207500
27.150000	1	0.219375
27.166667	1	0.232250
27.183333	1	0.247125
27.200000	1	0.264500
27.216667	1	0.284500
27.233333	1	0.307375
27.250000	1	0.332250
27.266667	1	0.361750
27.283333	1	0.394625
27.300000	1	0.430750
27.316667	1	0.472125
27.333333	1	0.518000
27.350000	1	0.569500
27.366667	1	0.625875
27.383333	1	0.687875
27.400000	1	0.756625
27.416667	1	0.832125
27.433333	1	0.914625
27.450000	1	1.004750
27.466667	1	1.101625
27.483333	1	1.206125
27.500000	1	1.318250
27.516667	1	1.438250
27.533333	1	1.564875
27.550000	1	1.699500
27.566667	1	1.840250
27.583333	1	1.987500
27.600000	1	2.139750
27.616667	1	2.296875
27.633333	1	2.457000
27.650000	1	2.620000
27.666667	1	2.783250
27.683333	1	2.945625
27.700000	1	3.106000
27.716667	1	3.260250
27.733333	1	3.406875
27.750000	1	3.545000
27.766667	1	3.672125
27.783333	1	3.785750
27.800000	1	3.883500
27.816667	1	3.964375
27.833333	1	4.026000
27.850000	1	4.066875
27.866667	1	4.086750
27.883333	1	4.084250
27.900000	1	4.059125
27.916667	1	4.010500
27.933333	1	3.939625
27.950000	1	3.847500
27.966667	1	3.736750
27.983333	1	3.608500
28.000000	1	3.464375
28.016667	1	3.306625
28.033333	1	3.137125
28.050000	1	2.960125
28.066667	1	2.778500
28.083333	1	2.593500
28.100000	1	2.407625
28.116667	1	2.224625
28.133333	1	2.045875
28.150000	1	1.873000
28.166667	1	1.708625
28.183333	1	1.553375
28.200000	1	1.408125
28.216667	1	1.273375
28.233333	1	1.149500
28.250000	1	1.036250
28.266667	1	0.934000
28.283333	1	0.842625
28.300000	1	0.761375
28.316667	1	0.691000
28.333333	1	0.629250
28.350000	1	0.577125
28.366667	1	0.532625
28.383333	1	0.495125
28.400000	1	0.464875
28.416667	1	0.440000
28.433333	1	0.421000
28.450000	1	0.406375
28.466667	1	0.396875
28.483333	1	0.390875
28.500000	1	0.387875
28.516667	1	0.387875
28.533333	1	0.391000
28.550000	1	0.395750
28.566667	1	0.402750
28.583333	1	0.410750
28.600000	1	0.420000
28.616667	1	0.430000
28.633333	1	0.440750
28.650000	1	0.451625
28.666667	1	0.462500
28.683333	1	0.473500
28.700000	1	0.485125
28.716667	1	0.496125
28.733333	1	0.505875
28.750000	1	0.515125
28.766667	1	0.523875
28.783333	1	0.531250
28.800000	1	0.538000
28.816667	1	0.544125
28.833333	1	0.549250
28.850000	1	0.552875
28.866667	1	0.555250
28.883333	1	0.556000
28.900000	1	0.556125
28.916667	1	0.554375
28.933333	1	0.551625
28.950000	1	0.547750
28.966667	1	0.542375
28.983333	1	0.536625
29.000000	1	0.530375
29.016667	1	0.521875
29.033333	1	0.512125
29.050000	1	0.502500
29.066667	1	0.491625
29.083333	1	0.479625
29.100000	1	0.467000
29.116667	1	0.454375
29.133333	1	0.440875
29.150000	1	0.426750
29.166667	1	0.412750
29.183333	1	0.398875
29.200000	1	0.383875
29.216667	1	0.369250
29.233333	1	0.354500
29.250000	1	0.341000
29.266667	1	0.326625
29.283333	1	0.312750
29.300000	1	0.298875
29.316667	1	0.285875
29.333333	1	0.272750
29.350000	1	0.260125
29.366667	1	0.247625
29.383333	1	0.236000
29.400000	1	0.224500
29.416667	1	0.213750
29.433333	1	0.203375
29.450000	1	0.193500
29.466667	1	0.183750
29.483333	1	0.174625
29.500000	1	0.166000
29.516667	1	0.157875
29.533333	1	0.150500
29.550000	1	0.142500
29.566667	1	0.135375
29.583333	1	0.129375
29.600000	1	0.123375
29.616667	1	0.117750
29.633333	1	0.112375
29.650000	1	0.107000
29.666667	1	0.102125
29.683333	1	0.098000
29.700000	1	0.094500
29.716667	1	0.091000
29.733333	1	0.087375
29.750000	1	0.084000
29.766667	1	0.081375
29.783333	1	0.079375
29.800000	1	0.077000
29.816667	1	0.075125
29.833333	1	0.073250
29.850000	1	0.072125
29.866667	1	0.069875
29.883333	1	0.069000
29.900000	1	0.068000
29.916667	1	0.066750
29.933333	1	0.066125
29.950000	1	0.065125
29.966667	1	0.064625
29.983333	1	0.064375
30.000000	1	0.064125
30.016667	1	0.064000
30.033333	1	0.063750
30.050000	1	0.063500
30.066667	1	0.063875
30.083333	1	0.064000
30.100000	1	0.064375
30.116667	1	0.064500
30.133333	1	0.064125
30.150000	1	0.065375
30.166667	1	0.066000
30.183333	1	0.066125
30.200000	1	0.066625
30.216667	1	0.067375
30.233333	1	0.068000
30.250000	1	0.068500
30.266667	1	0.069750
30.283333	1	0.072000
30.300000	1	0.073375
30.316667	1	0.075000
30.333333	1	0.077250
30.350000	1	0.079125
30.366667	1	0.081000
30.383333	1	0.083375
30.400000	1	0.086000
30.416667	1	0.088750
30.433333	1	0.090875
30.450000	1	0.094125
30.466667	1	0.097875
30.483333	1	0.102250
30.500000	1	0.106125
30.516667	1	0.110875
30.533333	1	0.115375
30.550000	1	0.121125
30.566667	1	0.127000
30.583333	1	0.133625
30.600000	1	0.140625
30.616667	1	0.148500
30.633333	1	0.157125
30.650000	1	0.166750
30.666667	1	0.177125
30.683333	1	0.187500
30.700000	1	0.200125
30.716667	1	0.213375
30.733333	1	0.228625
30.750000	1	0.245500
30.766667	1	0.263000
30.783333	1	0.283375
30.800000	1	0.306750
30.816667	1	0.331875
30.833333	1	0.360125
30.850000	1	0.391250
30.866667	1	0.425750
30.883333	1	0.463750
30.900000	1	0.505000
30.916667	1	0.551125
30.933333	1	0.601500
30.950000	1	0.656875
30.966667	1	0.717625
30.983333	1	0.784500
31.000000	1	0.857500
31.016667	1	0.936500
31.033333	1	1.021625
31.050000	1	1.114000
31.066667	1	1.212250
31.083333	1	1.317750
31.100000	1	1.430250
31.116667	1	1.548750
31.133333	1	1.673750
31.150000	1	1.803375
31.166667	1	1.939500
31.183333	1	2.080250
31.200000	1	2.226000
31.216667	1	2.375000
31.233333	1	2.526125
31.250000	1	2.677250
31.266667	1	2.828125
31.283333	1	2.977625
31.300000	1	3.123875
31.316667	1	3.265250
31.333333	1	3.400250
31.350000	1	3.527625
31.366667	1	3.645250
31.383333	1	3.751500
31.400000	1	3.845625
31.416667	1	3.925625
31.433333	1	3.990625
31.450000	1	4.038125
31.466667	1	4.070375
31.483333	1	4.085000
31.500000	1	4.081625
31.516667	1	4.060875
31.533333	1	4.024000
31.550000	1	3.970375
31.566667	1	3.900375
31.583333	1	3.815000
31.600000	1	3.715875
31.616667	1	3.603750
31.633333	1	3.480375
31.650000	1	3.348500
31.666667	1	3.208500
31.683333	1	3.061875
31.700000	1	2.911375
31.716667	1	2.757750
31.733333	1	2.602250
31.750000	1	2.447125
31.766667	1	2.293125
31.783333	1	2.141500
31.800000	1	1.993125
31.816667	1	1.849500
31.833333	1	1.712000
31.850000	1	1.579500
31.866667	1	1.453500
31.883333	1	1.335125
31.900000	1	1.223625
31.916667	1	1.119375
31.933333	1	1.021875
31.950000	1	0.931875
31.966667	1	0.849125
31.983333	1	0.772875
32.000000	1	0.703625
32.016667	1	0.639875
32.033333	1	0.582125
32.050000	1	0.531000
32.066667	1	0.484125
32.083333	1	0.442625
32.100000	1	0.404875
32.116667	1	0.370875
32.133333	1	0.341250
32.150000	1	0.314375
32.166667	1	0.291000
32.183333	1	0.270250
32.200000	1	0.250500
32.216667	1	0.233375
32.233333	1	0.217625
32.250000	1	0.203875
32.266667	1	0.191750
32.283333	1	0.180875
32.300000	1	0.170250
32.316667	1	0.160500
32.333333	1	0.152375
32.350000	1	0.143875
32.366667	1	0.135750
32.383333	1	0.128375
32.400000	1	0.121250
32.416667	1	0.114500
32.433333	1	0.107750
32.450000	1	0.102500
32.466667	1	0.097125
32.483333	1	0.090750
32.500000	1	0.085500
32.516667	1	0.079875
32.533333	1	0.075125
32.550000	1	0.070625
32.566667	1	0.065500
32.583333	1	0.062000
32.600000	1	0.057875
32.616667	1	0.054625
32.633333	1	0.050875
32.650000	1	0.047375
32.666667	1	0.044500
32.683333	1	0.042375
32.700000	1	0.040375
32.716667	1	0.037750
32.733333	1	0.036000
32.750000	1	0.034625
32.766667	1	0.032875
32.783333	1	0.032000
32.800000	1	0.030875
32.816667	1	0.029125
32.833333	1	0.027375
32.850000	1	0.026625
32.866667	1	0.026875
32.883333	1	0.026250
32.900000	1	0.025750
32.916667	1	0.025500
32.933333	1	0.025625
32.950000	1	0.025375
32.966667	1	0.025750
32.983333	1	0.025500
33.000000	1	0.025625
33.016667	1	0.026375
33.033333	1	0.026500
33.050000	1	0.027125
33.066667	1	0.027625
33.083333	1	0.028750
33.100000	1	0.029875
33.116667	1	0.031000
33.133333	1	0.033000
33.150000	1	0.034750
33.166667	1	0.036375
33.183333	1	0.038375
33.200000	1	0.040125
33.216667	1	0.043125
33.233333	1	0.046500
33.250000	1	0.050125
33.266667	1	0.054250
33.283333	1	0.058250
33.300000	1	0.063125
33.316667	1	0.069375
33.333333	1	0.075625
33.350000	1	0.082750
33.366667	1	0.090875
33.383333	1	0.100000
33.400000	1	0.110125
33.416667	1	0.121500
33.433333	1	0.134125
33.450000	1	0.148375
33.466667	1	0.164375
33.483333	1	0.181875
33.500000	1	0.201625
33.516667	1	0.222875
33.533333	1	0.246000
33.550000	1	0.271000
33.566667	1	0.298625
33.583333	1	0.328125
33.600000	1	0.359875
33.616667	1	0.393500
33.633333	1	0.429625
33.650000	1	0.467875
33.666667	1	0.507875
33.683333	1	0.550625
33.700000	1	0.595500
33.716667	1	0.642125
33.733333	1	0.690375
33.750000	1	0.740875
33.766667	1	0.792500
33.783333	1	0.845000
33.800000	1	0.898125
33.816667	1	0.951875
33.833333	1	1.005750
33.850000	1	1.059125
33.866667	1	1.112000
33.883333	1	1.163500
33.900000	1	1.213500
33.916667	1	1.261625
33.933333	1	1.307125
33.950000	1	1.350125
33.966667	1	1.389000
33.983333	1	1.424250
34.000000	1	1.455375
34.016667	1	1.482125
34.033333	1	1.504375
34.050000	1	1.521125
34.066667	1	1.532250
34.083333	1	1.538125
34.100000	1	1.538750
34.116667	1	1.533500
34.133333	1	1.523500
34.150000	1	1.508500
34.166667	1	1.487375
34.183333	1	1.462750
34.200000	1	1.433000
34.216667	1	1.399375
34.233333	1	1.361250
34.250000	1	1.320375
34.266667	1	1.277625
34.283333	1	1.231625
34.300000	1	1.183750
34.316667	1	1.134125
34.333333	1	1.084875
34.350000	1	1.034250
34.366667	1	0.983375
34.383333	1	0.933250
34.400000	1	0.883875
34.416667	1	0.834625
34.433333	1	0.787125
34.450000	1	0.740875
34.466667	1	0.695750
34.483333	1	0.652500
34.500000	1	0.610625
34.516667	1	0.571625
34.533333	1	0.534500
34.550000	1	0.498625
34.566667	1	0.464625
34.583333	1	0.433000
34.600000	1	0.402875
34.616667	1	0.375500
34.633333	1	0.349125
34.650000	1	0.324625
34.666667	1	0.301750
34.683333	1	0.280500
34.700000	1	0.260125
34.716667	1	0.241375
34.733333	1	0.224125
34.750000	1	0.207750
34.766667	1	0.191875
34.783333	1	0.178250
34.800000	1	0.165375
34.816667	1	0.152875
34.833333	1	0.141375
34.850000	1	0.131250
34.866667	1	0.121625
34.883333	1	0.113000
34.900000	1	0.104875
34.916667	1	0.097875
34.933333	1	0.091250
34.950000	1	0.085500
34.966667	1	0.080125
34.983333	1	0.076125
35.000000	1	0.072500
35.016667	1	0.069500
35.033333	1	0.067125
35.050000	1	0.065750
35.066667	1	0.064500
35.083333	1	0.064000
35.100000	1	0.064250
35.116667	1	0.065000
35.133333	1	0.066125
35.150000	1	0.067500
35.166667	1	0.069375
35.183333	1	0.072125
35.200000	1	0.074625
35.216667	1	0.077375
35.233333	1	0.080000
35.250000	1	0.083750
35.266667	1	0.086875
35.283333	1	0.090500
35.300000	1	0.094000
35.316667	1	0.098000
35.333333	1	0.102250
35.350000	1	0.106125
35.366667	1	0.109875
35.383333	1	0.113875
35.400000	1	0.116625
35.416667	1	0.119625
35.433333	1	0.123375
35.450000	1	0.126875
35.466667	1	0.129125
35.483333	1	0.131625
35.500000	1	0.134500
35.516667	1	0.136375
35.533333	1	0.138125
35.550000	1	0.140250
35.566667	1	0.141875
35.583333	1	0.143000
35.600000	1	0.144250
35.616667	1	0.145000
35.633333	1	0.144750
35.650000	1	0.144750
35.666667	1	0.145750
35.683333	1	0.146125
35.700000	1	0.146375
35.716667	1	0.146250
35.733333	1	0.146000
35.750000	1	0.146000
35.766667	1	0.145625
35.783333	1	0.145000
35.800000	1	0.144625
35.816667	1	0.144000
35.833333	1	0.143375
35.850000	1	0.142625
35.866667	1	0.141625
35.883333	1	0.141250
35.900000	1	0.140625
35.916667	1	0.139625
35.933333	1	0.139125
35.950000	1	0.137875
35.966667	1	0.136000
35.983333	1	0.135250
36.000000	1	0.134625
36.016667	1	0.133750
36.033333	1	0.132750
36.050000	1	0.131500
36.066667	1	0.130375
36.083333	1	0.129500
36.100000	1	0.127750
36.116667	1	0.126375
36.133333	1	0.124125
36.150000	1	0.122500
36.166667	1	0.120375
36.183333	1	0.118125
36.200000	1	0.115000
36.216667	1	0.113125
36.233333	1	0.110375
36.250000	1	0.107500
36.266667	1	0.104625
36.283333	1	0.101375
36.300000	1	0.097875
36.316667	1	0.094375
36.333333	1	0.091000
36.350000	1	0.087125
36.366667	1	0.083375
36.383333	1	0.079875
36.400000	1	0.076125
36.416667	1	0.072625
36.433333	1	0.069000
36.450000	1	0.065500
36.466667	1	0.062875
36.483333	1	0.060250
36.500000	1	0.056875
36.516667	1	0.054000
36.533333	1	0.051500
36.550000	1	0.049375
36.566667	1	0.047125
36.583333	1	0.044750
36.600000	1	0.042750
36.616667	1	0.040875
36.633333	1	0.039000
36.650000	1	0.037625
36.666667	1	0.036875
36.683333	1	0.036250
36.700000	1	0.036375
36.716667	1	0.036125
36.733333	1	0.036250
36.750000	1	0.036625
36.766667	1	0.036125
36.783333	1	0.036000
36.800000	1	0.036500
36.816667	1	0.037000
36.833333	1	0.038000
36.850000	1	0.038875
36.866667	1	0.039125
36.883333	1	0.040375
36.900000	1	0.041750
36.916667	1	0.043000
36.933333	1	0.044750
36.950000	1	0.046000
36.966667	1	0.047000
36.983333	1	0.048000
37.000000	1	0.049625
37.016667	1	0.051000
37.033333	1	0.052500
37.050000	1	0.053625
37.066667	1	0.055125
37.083333	1	0.056000
37.100000	1	0.057375
37.116667	1	0.058000
37.133333	1	0.058875
37.150000	1	0.059125
37.166667	1	0.059375
37.183333	1	0.060625
37.200000	1	0.060875
37.216667	1	0.061000
37.233333	1	0.061500
37.250000	1	0.060750
37.266667	1	0.060500
37.283333	1	0.060000
37.300000	1	0.059500
37.316667	1	0.059125
37.333333	1	0.059250
37.350000	1	0.058250
37.366667	1	0.057250
37.383333	1	0.055500
37.400000	1	0.054750
37.416667	1	0.053750
37.433333	1	0.052625
37.450000	1	0.051375
37.466667	1	0.050375
37.483333	1	0.048625
37.500000	1	0.047250
37.516667	1	0.046375
37.533333	1	0.044875
37.550000	1	0.043375
37.566667	1	0.042750
37.583333	1	0.042250
37.600000	1	0.041250
37.616667	1	0.040125
37.633333	1	0.039000
37.650000	1	0.038375
37.666667	1	0.038000
37.683333	1	0.036875
37.700000	1	0.036125
37.716667	1	0.036500
37.733333	1	0.036500
37.750000	1	0.036625
37.766667	1	0.036750
37.783333	1	0.036125
37.800000	1	0.036250
37.816667	1	0.036125
37.833333	1	0.036250
37.850000	1	0.036375
37.866667	1	0.037500
37.883333	1	0.037250
37.900000	1	0.036875
37.916667	1	0.037125
37.933333	1	0.037375
37.950000	1	0.038000
37.966667	1	0.038500
37.983333	1	0.038375
38.000000	1	0.038250
38.016667	1	0.038750
38.033333	1	0.038125
38.050000	1	0.039000
38.066667	1	0.039625
38.083333	1	0.040375
38.100000	1	0.040875
38.116667	1	0.041250
38.133333	1	0.041875
38.150000	1	0.042125
38.166667	1	0.042625
38.183333	1	0.043500
38.200000	1	0.044125
38.216667	1	0.045000
38.233333	1	0.046250
38.250000	1	0.047125
38.266667	1	0.048125
38.283333	1	0.049000
38.300000	1	0.050375
38.316667	1	0.051250
38.333333	1	0.052750
38.350000	1	0.053875
38.366667	1	0.054500
38.383333	1	0.055000
38.400000	1	0.055375
38.416667	1	0.056250
38.433333	1	0.057375
38.450000	1	0.058125
38.466667	1	0.058625
38.483333	1	0.058750
38.500000	1	0.060125
38.516667	1	0.061000
38.533333	1	0.061375
38.550000	1	0.061125
38.566667	1	0.061500
38.583333	1	0.062500
38.600000	1	0.062375
38.616667	1	0.062625
38.633333	1	0.062750
38.650000	1	0.062750
38.666667	1	0.061875
38.683333	1	0.061750
38.700000	1	0.061875
38.716667	1	0.061000
38.733333	1	0.060500
38.750000	1	0.060250
38.766667	1	0.060000
38.783333	1	0.059625
38.800000	1	0.058875
38.816667	1	0.058500
38.833333	1	0.057875
38.850000	1	0.057125
38.866667	1	0.056500
38.883333	1	0.055375
38.900000	1	0.055750
38.916667	1	0.055250
38.933333	1	0.054500
38.950000	1	0.053625
38.966667	1	0.052750
38.983333	1	0.052375
39.000000	1	0.051500
39.016667	1	0.050500
39.033333	1	0.049375
39.050000	1	0.049250
39.066667	1	0.048750
39.083333	1	0.048250
39.100000	1	0.047250
39.116667	1	0.045625
39.133333	1	0.044625
39.150000	1	0.043500
39.166667	1	0.043000
39.183333	1	0.041500
39.200000	1	0.040250
39.216667	1	0.039375
39.233333	1	0.038625
39.250000	1	0.038250
39.266667	1	0.037125
39.283333	1	0.036375
39.300000	1	0.035125
39.316667	1	0.034375
39.333333	1	0.032500
39.350000	1	0.031250
39.366667	1	0.030375
39.383333	1	0.029000
39.400000	1	0.027500
39.416667	1	0.026250
39.433333	1	0.025125
39.450000	1	0.023875
39.466667	1	0.022625
39.483333	1	0.021000
39.500000	1	0.019125
39.516667	1	0.017750
39.533333	1	0.016500
39.550000	1	0.015500
39.566667	1	0.014000
39.583333	1	0.012250
39.600000	1	0.011375
39.616667	1	0.009250
39.633333	1	0.008000
39.650000	1	0.006625
39.666667	1	0.005125
39.683333	1	0.003625
39.700000	1	0.002375
39.716667	1	0.000375
39.733333	1	-0.001250
39.750000	1	-0.002750
39.766667	1	-0.004500
39.783333	1	-0.006625
39.800000	1	-0.009000
39.816667	1	-0.011000
39.833333	1	-0.012750
39.850000	1	-0.015375
39.866667	1	-0.018000
39.883333	1	-0.020125
39.900000	1	-0.023000
39.916667	1	-0.025750
39.933333	1	-0.028125
39.950000	1	-0.030750
39.966667	1	-0.032875
39.983333	1	-0.035750
40.000000	1	-0.038500
