URL	chrom://bioreactor/micro_cm7/HPLC_Ultimate_3000/Users/markusar/20240716_MA_pHrange2.seq/988.smp/RI_1.channel/RI_1.chm
Channel	RI_1

Injection Information:
Data Vault	micro_cm7
Sequence	20240716_MA_pHrange2
Name	Fp3_40H_3
Number	32
Position	BC8
Comment	
Processing Method	
Instrument Method	run_25B_method
Type	Unknown
Status	Finished
Inject Time	17.07.2024 15:16:34 +02:00
Volume (µl)	20.0000
Dilution Factor	1.0000
Weight	1.0000

Chromatogram Data Information:
Time Min. (min)	0.000000
Time Max. (min)	40.000000
Data Points	2401
Detector	RI
Generating Data System	Chromeleon 7.3.2.11814
Exporting Data System	Chromeleon 7.3.2.0
Operator	Instrument Controller
Signal Quantity	Refractive 
Signal Unit	µRIU
Signal Min.	-0.053000
Signal Max.	81.798875
Channel	RI_1
Driver Name	RID520Driver.dll
Channel Type	Evaluation
Min. Step (s)	1
Max. Step (s)	1
Average Step (s)	1

Signal Parameter Information:
Signal Info	

Chromatogram Data:
Time (min)	Step (s)	Value (µRIU)
0.000000	n.a.	0.094875
0.016667	1	0.094750
0.033333	1	0.094750
0.050000	1	0.095000
0.066667	1	0.095125
0.083333	1	0.095125
0.100000	1	0.095000
0.116667	1	0.094125
0.133333	1	0.093875
0.150000	1	0.092750
0.166667	1	0.092000
0.183333	1	0.091125
0.200000	1	0.089875
0.216667	1	0.088500
0.233333	1	0.087375
0.250000	1	0.085625
0.266667	1	0.084250
0.283333	1	0.082750
0.300000	1	0.081750
0.316667	1	0.080500
0.333333	1	0.079000
0.350000	1	0.076875
0.366667	1	0.074875
0.383333	1	0.073125
0.400000	1	0.071250
0.416667	1	0.069250
0.433333	1	0.068125
0.450000	1	0.068250
0.466667	1	0.068875
0.483333	1	0.069000
0.500000	1	0.069000
0.516667	1	0.069125
0.533333	1	0.068875
0.550000	1	0.067750
0.566667	1	0.066250
0.583333	1	0.064500
0.600000	1	0.061750
0.616667	1	0.059750
0.633333	1	0.058750
0.650000	1	0.058125
0.666667	1	0.056875
0.683333	1	0.056500
0.700000	1	0.057125
0.716667	1	0.056875
0.733333	1	0.056500
0.750000	1	0.056625
0.766667	1	0.056875
0.783333	1	0.057125
0.800000	1	0.057625
0.816667	1	0.057625
0.833333	1	0.057750
0.850000	1	0.057875
0.866667	1	0.057250
0.883333	1	0.058250
0.900000	1	0.058125
0.916667	1	0.058250
0.933333	1	0.059000
0.950000	1	0.058750
0.966667	1	0.058875
0.983333	1	0.059125
1.000000	1	0.059375
1.016667	1	0.059750
1.033333	1	0.060125
1.050000	1	0.060375
1.066667	1	0.060875
1.083333	1	0.060750
1.100000	1	0.061250
1.116667	1	0.061500
1.133333	1	0.062250
1.150000	1	0.062250
1.166667	1	0.063375
1.183333	1	0.064000
1.200000	1	0.063750
1.216667	1	0.065000
1.233333	1	0.065375
1.250000	1	0.066000
1.266667	1	0.066000
1.283333	1	0.066000
1.300000	1	0.066625
1.316667	1	0.066500
1.333333	1	0.065875
1.350000	1	0.065250
1.366667	1	0.064375
1.383333	1	0.063375
1.400000	1	0.062375
1.416667	1	0.061500
1.433333	1	0.060125
1.450000	1	0.058750
1.466667	1	0.057000
1.483333	1	0.055125
1.500000	1	0.052375
1.516667	1	0.050000
1.533333	1	0.047250
1.550000	1	0.045250
1.566667	1	0.042500
1.583333	1	0.039500
1.600000	1	0.037250
1.616667	1	0.034625
1.633333	1	0.031250
1.650000	1	0.028250
1.666667	1	0.026000
1.683333	1	0.023750
1.700000	1	0.021750
1.716667	1	0.019000
1.733333	1	0.016625
1.750000	1	0.014875
1.766667	1	0.014000
1.783333	1	0.011875
1.800000	1	0.010375
1.816667	1	0.009500
1.833333	1	0.008875
1.850000	1	0.008375
1.866667	1	0.009000
1.883333	1	0.008625
1.900000	1	0.009000
1.916667	1	0.009375
1.933333	1	0.010250
1.950000	1	0.011000
1.966667	1	0.012375
1.983333	1	0.014125
2.000000	1	0.015625
2.016667	1	0.016625
2.033333	1	0.018125
2.050000	1	0.019375
2.066667	1	0.021250
2.083333	1	0.023125
2.100000	1	0.025125
2.116667	1	0.026875
2.133333	1	0.028625
2.150000	1	0.030000
2.166667	1	0.031500
2.183333	1	0.033000
2.200000	1	0.034875
2.216667	1	0.036625
2.233333	1	0.038625
2.250000	1	0.040000
2.266667	1	0.040500
2.283333	1	0.041750
2.300000	1	0.042500
2.316667	1	0.043625
2.333333	1	0.044375
2.350000	1	0.044000
2.366667	1	0.044250
2.383333	1	0.044625
2.400000	1	0.045000
2.416667	1	0.044750
2.433333	1	0.043625
2.450000	1	0.043125
2.466667	1	0.042750
2.483333	1	0.042375
2.500000	1	0.042000
2.516667	1	0.041250
2.533333	1	0.040250
2.550000	1	0.039500
2.566667	1	0.038250
2.583333	1	0.037625
2.600000	1	0.036750
2.616667	1	0.036250
2.633333	1	0.035125
2.650000	1	0.035250
2.666667	1	0.034500
2.683333	1	0.034125
2.700000	1	0.033500
2.716667	1	0.033000
2.733333	1	0.033000
2.750000	1	0.032375
2.766667	1	0.032250
2.783333	1	0.032500
2.800000	1	0.032125
2.816667	1	0.032375
2.833333	1	0.032000
2.850000	1	0.032625
2.866667	1	0.032500
2.883333	1	0.032625
2.900000	1	0.032625
2.916667	1	0.032250
2.933333	1	0.031625
2.950000	1	0.031625
2.966667	1	0.031375
2.983333	1	0.030750
3.000000	1	0.030375
3.016667	1	0.029750
3.033333	1	0.030000
3.050000	1	0.029000
3.066667	1	0.027875
3.083333	1	0.026875
3.100000	1	0.026000
3.116667	1	0.025125
3.133333	1	0.023500
3.150000	1	0.021250
3.166667	1	0.019500
3.183333	1	0.017625
3.200000	1	0.016875
3.216667	1	0.015500
3.233333	1	0.014250
3.250000	1	0.012875
3.266667	1	0.012000
3.283333	1	0.010875
3.300000	1	0.009875
3.316667	1	0.008875
3.333333	1	0.007750
3.350000	1	0.006875
3.366667	1	0.005625
3.383333	1	0.004875
3.400000	1	0.004500
3.416667	1	0.004125
3.433333	1	0.003875
3.450000	1	0.003750
3.466667	1	0.003375
3.483333	1	0.003625
3.500000	1	0.004000
3.516667	1	0.004000
3.533333	1	0.004875
3.550000	1	0.005625
3.566667	1	0.007000
3.583333	1	0.009250
3.600000	1	0.011500
3.616667	1	0.014000
3.633333	1	0.016375
3.650000	1	0.018625
3.666667	1	0.021750
3.683333	1	0.025250
3.700000	1	0.029375
3.716667	1	0.034250
3.733333	1	0.038000
3.750000	1	0.042500
3.766667	1	0.047625
3.783333	1	0.052375
3.800000	1	0.057875
3.816667	1	0.062375
3.833333	1	0.068000
3.850000	1	0.074125
3.866667	1	0.079500
3.883333	1	0.084625
3.900000	1	0.090750
3.916667	1	0.096625
3.933333	1	0.103000
3.950000	1	0.108750
3.966667	1	0.114500
3.983333	1	0.120500
4.000000	1	0.126625
4.016667	1	0.133000
4.033333	1	0.139000
4.050000	1	0.145625
4.066667	1	0.151000
4.083333	1	0.156000
4.100000	1	0.160875
4.116667	1	0.166875
4.133333	1	0.171375
4.150000	1	0.176375
4.166667	1	0.181125
4.183333	1	0.185625
4.200000	1	0.190125
4.216667	1	0.194500
4.233333	1	0.198000
4.250000	1	0.201375
4.266667	1	0.204875
4.283333	1	0.208250
4.300000	1	0.211500
4.316667	1	0.214000
4.333333	1	0.216375
4.350000	1	0.218875
4.366667	1	0.221125
4.383333	1	0.222750
4.400000	1	0.224500
4.416667	1	0.225500
4.433333	1	0.226750
4.450000	1	0.228000
4.466667	1	0.228750
4.483333	1	0.229250
4.500000	1	0.229500
4.516667	1	0.230375
4.533333	1	0.230375
4.550000	1	0.230125
4.566667	1	0.230250
4.583333	1	0.230500
4.600000	1	0.230125
4.616667	1	0.229875
4.633333	1	0.229625
4.650000	1	0.229500
4.666667	1	0.229250
4.683333	1	0.228500
4.700000	1	0.228125
4.716667	1	0.228000
4.733333	1	0.227375
4.750000	1	0.226500
4.766667	1	0.226000
4.783333	1	0.225875
4.800000	1	0.225750
4.816667	1	0.225500
4.833333	1	0.225375
4.850000	1	0.226125
4.866667	1	0.227000
4.883333	1	0.227750
4.900000	1	0.228500
4.916667	1	0.229375
4.933333	1	0.230875
4.950000	1	0.232875
4.966667	1	0.234625
4.983333	1	0.236000
5.000000	1	0.238125
5.016667	1	0.240625
5.033333	1	0.243125
5.050000	1	0.245625
5.066667	1	0.248875
5.083333	1	0.251875
5.100000	1	0.255125
5.116667	1	0.257875
5.133333	1	0.260875
5.150000	1	0.263750
5.166667	1	0.266625
5.183333	1	0.269250
5.200000	1	0.272250
5.216667	1	0.274875
5.233333	1	0.276625
5.250000	1	0.278875
5.266667	1	0.281375
5.283333	1	0.283375
5.300000	1	0.285000
5.316667	1	0.285875
5.333333	1	0.286500
5.350000	1	0.287750
5.366667	1	0.288125
5.383333	1	0.288125
5.400000	1	0.287750
5.416667	1	0.287500
5.433333	1	0.286750
5.450000	1	0.285375
5.466667	1	0.283500
5.483333	1	0.281625
5.500000	1	0.279625
5.516667	1	0.277375
5.533333	1	0.274750
5.550000	1	0.271875
5.566667	1	0.269000
5.583333	1	0.265250
5.600000	1	0.261250
5.616667	1	0.257000
5.633333	1	0.253375
5.650000	1	0.249000
5.666667	1	0.245000
5.683333	1	0.240625
5.700000	1	0.236375
5.716667	1	0.231375
5.733333	1	0.227125
5.750000	1	0.223125
5.766667	1	0.219250
5.783333	1	0.213875
5.800000	1	0.208750
5.816667	1	0.204375
5.833333	1	0.200125
5.850000	1	0.195875
5.866667	1	0.190875
5.883333	1	0.186500
5.900000	1	0.181500
5.916667	1	0.177625
5.933333	1	0.173250
5.950000	1	0.169125
5.966667	1	0.164500
5.983333	1	0.159750
6.000000	1	0.155375
6.016667	1	0.150875
6.033333	1	0.146625
6.050000	1	0.142375
6.066667	1	0.137625
6.083333	1	0.133125
6.100000	1	0.129125
6.116667	1	0.125250
6.133333	1	0.121625
6.150000	1	0.118000
6.166667	1	0.114625
6.183333	1	0.111125
6.200000	1	0.107625
6.216667	1	0.104000
6.233333	1	0.102125
6.250000	1	0.100125
6.266667	1	0.098375
6.283333	1	0.096250
6.300000	1	0.094125
6.316667	1	0.093500
6.333333	1	0.092375
6.350000	1	0.091875
6.366667	1	0.091625
6.383333	1	0.091125
6.400000	1	0.091000
6.416667	1	0.091125
6.433333	1	0.091750
6.450000	1	0.092625
6.466667	1	0.092875
6.483333	1	0.094500
6.500000	1	0.096250
6.516667	1	0.097000
6.533333	1	0.098125
6.550000	1	0.100000
6.566667	1	0.102125
6.583333	1	0.103750
6.600000	1	0.105625
6.616667	1	0.107625
6.633333	1	0.109250
6.650000	1	0.111000
6.666667	1	0.112250
6.683333	1	0.114125
6.700000	1	0.116000
6.716667	1	0.118250
6.733333	1	0.120500
6.750000	1	0.122625
6.766667	1	0.125250
6.783333	1	0.127625
6.800000	1	0.129875
6.816667	1	0.131875
6.833333	1	0.133500
6.850000	1	0.135250
6.866667	1	0.137375
6.883333	1	0.139750
6.900000	1	0.141875
6.916667	1	0.144500
6.933333	1	0.147375
6.950000	1	0.149625
6.966667	1	0.152125
6.983333	1	0.154875
7.000000	1	0.157125
7.016667	1	0.159250
7.033333	1	0.161500
7.050000	1	0.163375
7.066667	1	0.165250
7.083333	1	0.167000
7.100000	1	0.168500
7.116667	1	0.170500
7.133333	1	0.171750
7.150000	1	0.173000
7.166667	1	0.173875
7.183333	1	0.174500
7.200000	1	0.175375
7.216667	1	0.175625
7.233333	1	0.175250
7.250000	1	0.175375
7.266667	1	0.174125
7.283333	1	0.173125
7.300000	1	0.172000
7.316667	1	0.170125
7.333333	1	0.167500
7.350000	1	0.165375
7.366667	1	0.162375
7.383333	1	0.158750
7.400000	1	0.155000
7.416667	1	0.151250
7.433333	1	0.146625
7.450000	1	0.141625
7.466667	1	0.136875
7.483333	1	0.130625
7.500000	1	0.125375
7.516667	1	0.120000
7.533333	1	0.115125
7.550000	1	0.110000
7.566667	1	0.104375
7.583333	1	0.099000
7.600000	1	0.092875
7.616667	1	0.087500
7.633333	1	0.082625
7.650000	1	0.077750
7.666667	1	0.072750
7.683333	1	0.067625
7.700000	1	0.063375
7.716667	1	0.058875
7.733333	1	0.054625
7.750000	1	0.051750
7.766667	1	0.048250
7.783333	1	0.045000
7.800000	1	0.042125
7.816667	1	0.039375
7.833333	1	0.036375
7.850000	1	0.034500
7.866667	1	0.032000
7.883333	1	0.030000
7.900000	1	0.029125
7.916667	1	0.029000
7.933333	1	0.028875
7.950000	1	0.028250
7.966667	1	0.028125
7.983333	1	0.027375
8.000000	1	0.027625
8.016667	1	0.028000
8.033333	1	0.027500
8.050000	1	0.027500
8.066667	1	0.027500
8.083333	1	0.027125
8.100000	1	0.027000
8.116667	1	0.026625
8.133333	1	0.026750
8.150000	1	0.026500
8.166667	1	0.026000
8.183333	1	0.025500
8.200000	1	0.025375
8.216667	1	0.024500
8.233333	1	0.024375
8.250000	1	0.023000
8.266667	1	0.021750
8.283333	1	0.020875
8.300000	1	0.020125
8.316667	1	0.018625
8.333333	1	0.017625
8.350000	1	0.016250
8.366667	1	0.015000
8.383333	1	0.014500
8.400000	1	0.013125
8.416667	1	0.012500
8.433333	1	0.011250
8.450000	1	0.011000
8.466667	1	0.010875
8.483333	1	0.010625
8.500000	1	0.010500
8.516667	1	0.010250
8.533333	1	0.011000
8.550000	1	0.011875
8.566667	1	0.012000
8.583333	1	0.012250
8.600000	1	0.012750
8.616667	1	0.013625
8.633333	1	0.013875
8.650000	1	0.014750
8.666667	1	0.016000
8.683333	1	0.016250
8.700000	1	0.016750
8.716667	1	0.017500
8.733333	1	0.018500
8.750000	1	0.019500
8.766667	1	0.020000
8.783333	1	0.019625
8.800000	1	0.019500
8.816667	1	0.019250
8.833333	1	0.019625
8.850000	1	0.020000
8.866667	1	0.020250
8.883333	1	0.019375
8.900000	1	0.018750
8.916667	1	0.017000
8.933333	1	0.016375
8.950000	1	0.014875
8.966667	1	0.013750
8.983333	1	0.012000
9.000000	1	0.009625
9.016667	1	0.008125
9.033333	1	0.006500
9.050000	1	0.005125
9.066667	1	0.003625
9.083333	1	0.001500
9.100000	1	-0.000500
9.116667	1	-0.002125
9.133333	1	-0.002875
9.150000	1	-0.003750
9.166667	1	-0.004375
9.183333	1	-0.005125
9.200000	1	-0.005500
9.216667	1	-0.005625
9.233333	1	-0.006125
9.250000	1	-0.005750
9.266667	1	-0.005375
9.283333	1	-0.004875
9.300000	1	-0.004250
9.316667	1	-0.002500
9.333333	1	-0.000750
9.350000	1	0.001375
9.366667	1	0.003750
9.383333	1	0.006500
9.400000	1	0.009000
9.416667	1	0.012750
9.433333	1	0.016000
9.450000	1	0.020375
9.466667	1	0.024500
9.483333	1	0.028500
9.500000	1	0.033000
9.516667	1	0.036875
9.533333	1	0.041375
9.550000	1	0.046000
9.566667	1	0.051250
9.583333	1	0.055250
9.600000	1	0.060000
9.616667	1	0.065250
9.633333	1	0.070375
9.650000	1	0.075000
9.666667	1	0.078750
9.683333	1	0.082750
9.700000	1	0.087125
9.716667	1	0.090625
9.733333	1	0.095000
9.750000	1	0.099250
9.766667	1	0.102750
9.783333	1	0.106125
9.800000	1	0.108875
9.816667	1	0.111375
9.833333	1	0.114125
9.850000	1	0.115750
9.866667	1	0.117625
9.883333	1	0.119375
9.900000	1	0.120250
9.916667	1	0.120375
9.933333	1	0.121250
9.950000	1	0.120875
9.966667	1	0.121250
9.983333	1	0.120250
10.000000	1	0.119500
10.016667	1	0.117875
10.033333	1	0.115750
10.050000	1	0.112750
10.066667	1	0.109875
10.083333	1	0.107000
10.100000	1	0.103750
10.116667	1	0.100750
10.133333	1	0.098250
10.150000	1	0.095875
10.166667	1	0.094875
10.183333	1	0.094375
10.200000	1	0.094375
10.216667	1	0.095875
10.233333	1	0.099375
10.250000	1	0.104000
10.266667	1	0.110625
10.283333	1	0.119125
10.300000	1	0.129625
10.316667	1	0.142250
10.333333	1	0.156250
10.350000	1	0.170375
10.366667	1	0.184500
10.383333	1	0.193750
10.400000	1	0.196625
10.416667	1	0.186875
10.433333	1	0.162750
10.450000	1	0.123125
10.466667	1	0.070375
10.483333	1	0.015750
10.500000	1	-0.022625
10.516667	1	-0.014250
10.533333	1	0.082125
10.550000	1	0.315875
10.566667	1	0.742750
10.583333	1	1.422750
10.600000	1	2.415000
10.616667	1	3.771250
10.633333	1	5.532875
10.650000	1	7.730625
10.666667	1	10.387500
10.683333	1	13.513125
10.700000	1	17.107500
10.716667	1	21.155875
10.733333	1	25.635125
10.750000	1	30.510000
10.766667	1	35.732875
10.783333	1	41.238500
10.800000	1	46.940375
10.816667	1	52.721000
10.833333	1	58.402875
10.850000	1	63.733625
10.866667	1	68.369625
10.883333	1	71.853125
10.900000	1	73.663125
10.916667	1	73.324125
10.933333	1	70.578000
10.950000	1	65.531625
10.966667	1	58.690375
10.983333	1	50.807250
11.000000	1	42.686250
11.016667	1	34.994000
11.033333	1	28.158625
11.050000	1	22.362625
11.066667	1	17.614875
11.083333	1	13.827375
11.100000	1	10.866125
11.116667	1	8.587250
11.133333	1	6.853875
11.150000	1	5.544750
11.166667	1	4.559625
11.183333	1	3.819125
11.200000	1	3.259500
11.216667	1	2.835000
11.233333	1	2.510375
11.250000	1	2.259375
11.266667	1	2.062875
11.283333	1	1.906250
11.300000	1	1.779500
11.316667	1	1.675125
11.333333	1	1.586625
11.350000	1	1.510125
11.366667	1	1.443125
11.383333	1	1.383375
11.400000	1	1.330250
11.416667	1	1.283000
11.433333	1	1.240875
11.450000	1	1.202500
11.466667	1	1.168750
11.483333	1	1.139625
11.500000	1	1.114125
11.516667	1	1.093625
11.533333	1	1.076375
11.550000	1	1.063125
11.566667	1	1.054125
11.583333	1	1.049875
11.600000	1	1.049875
11.616667	1	1.053875
11.633333	1	1.062375
11.650000	1	1.075125
11.666667	1	1.091875
11.683333	1	1.112625
11.700000	1	1.136750
11.716667	1	1.163625
11.733333	1	1.191000
11.750000	1	1.217875
11.766667	1	1.243125
11.783333	1	1.265625
11.800000	1	1.284250
11.816667	1	1.297625
11.833333	1	1.305875
11.850000	1	1.307375
11.866667	1	1.303250
11.883333	1	1.294625
11.900000	1	1.281125
11.916667	1	1.264625
11.933333	1	1.246000
11.950000	1	1.226375
11.966667	1	1.206500
11.983333	1	1.187500
12.000000	1	1.169375
12.016667	1	1.153125
12.033333	1	1.138625
12.050000	1	1.126500
12.066667	1	1.115875
12.083333	1	1.107500
12.100000	1	1.101875
12.116667	1	1.097875
12.133333	1	1.094875
12.150000	1	1.093125
12.166667	1	1.093500
12.183333	1	1.094500
12.200000	1	1.097375
12.216667	1	1.101375
12.233333	1	1.107500
12.250000	1	1.115750
12.266667	1	1.126375
12.283333	1	1.140875
12.300000	1	1.162500
12.316667	1	1.192750
12.333333	1	1.235500
12.350000	1	1.296750
12.366667	1	1.382375
12.383333	1	1.502500
12.400000	1	1.669750
12.416667	1	1.902000
12.433333	1	2.220500
12.450000	1	2.654000
12.466667	1	3.239375
12.483333	1	4.021375
12.500000	1	5.051750
12.516667	1	6.395375
12.533333	1	8.119375
12.550000	1	10.295500
12.566667	1	12.994500
12.583333	1	16.281625
12.600000	1	20.198375
12.616667	1	24.751875
12.633333	1	29.919000
12.650000	1	35.631500
12.666667	1	41.768750
12.683333	1	48.150625
12.700000	1	54.544625
12.716667	1	60.682250
12.733333	1	66.279125
12.750000	1	71.060000
12.766667	1	74.784250
12.783333	1	77.272750
12.800000	1	78.426500
12.816667	1	78.236750
12.833333	1	76.779500
12.850000	1	74.207500
12.866667	1	70.728250
12.883333	1	66.593500
12.900000	1	62.067625
12.916667	1	57.404750
12.933333	1	52.831625
12.950000	1	48.527500
12.966667	1	44.621625
12.983333	1	41.194625
13.000000	1	38.286750
13.016667	1	35.902250
13.033333	1	34.017125
13.050000	1	32.590000
13.066667	1	31.573500
13.083333	1	30.915875
13.100000	1	30.565750
13.116667	1	30.476000
13.133333	1	30.603375
13.150000	1	30.911000
13.166667	1	31.366375
13.183333	1	31.943750
13.200000	1	32.621625
13.216667	1	33.382000
13.233333	1	34.211625
13.250000	1	35.101625
13.266667	1	36.042375
13.283333	1	37.028750
13.300000	1	38.055375
13.316667	1	39.119375
13.333333	1	40.217125
13.350000	1	41.345750
13.366667	1	42.504625
13.383333	1	43.694375
13.400000	1	44.911375
13.416667	1	46.155750
13.433333	1	47.429250
13.450000	1	48.733000
13.466667	1	50.066500
13.483333	1	51.430500
13.500000	1	52.824875
13.516667	1	54.249875
13.533333	1	55.705625
13.550000	1	57.192000
13.566667	1	58.709875
13.583333	1	60.257500
13.600000	1	61.835500
13.616667	1	63.444375
13.633333	1	65.087500
13.650000	1	66.765625
13.666667	1	68.479875
13.683333	1	70.230375
13.700000	1	72.017375
13.716667	1	73.839500
13.733333	1	75.688250
13.750000	1	77.527250
13.766667	1	79.258125
13.783333	1	80.701375
13.800000	1	81.621625
13.816667	1	81.798875
13.833333	1	81.062250
13.850000	1	79.268375
13.866667	1	76.242875
13.883333	1	71.774500
13.900000	1	65.715500
13.916667	1	58.178875
13.933333	1	49.675500
13.950000	1	41.011625
13.966667	1	32.988125
13.983333	1	26.126625
14.000000	1	20.590625
14.016667	1	16.277000
14.033333	1	12.981750
14.050000	1	10.492625
14.066667	1	8.629625
14.083333	1	7.247250
14.100000	1	6.227500
14.116667	1	5.476625
14.133333	1	4.922125
14.150000	1	4.508000
14.166667	1	4.193250
14.183333	1	3.949625
14.200000	1	3.757125
14.216667	1	3.600250
14.233333	1	3.470375
14.250000	1	3.359375
14.266667	1	3.262875
14.283333	1	3.178375
14.300000	1	3.101750
14.316667	1	3.032000
14.333333	1	2.968375
14.350000	1	2.909500
14.366667	1	2.855625
14.383333	1	2.805125
14.400000	1	2.758250
14.416667	1	2.714750
14.433333	1	2.675125
14.450000	1	2.637125
14.466667	1	2.602375
14.483333	1	2.570375
14.500000	1	2.540125
14.516667	1	2.512625
14.533333	1	2.486000
14.550000	1	2.461000
14.566667	1	2.437875
14.583333	1	2.414125
14.600000	1	2.390250
14.616667	1	2.367750
14.633333	1	2.345375
14.650000	1	2.321750
14.666667	1	2.297500
14.683333	1	2.273125
14.700000	1	2.248125
14.716667	1	2.222625
14.733333	1	2.195875
14.750000	1	2.168625
14.766667	1	2.141875
14.783333	1	2.115000
14.800000	1	2.088250
14.816667	1	2.062250
14.833333	1	2.036500
14.850000	1	2.011250
14.866667	1	1.986125
14.883333	1	1.961500
14.900000	1	1.937000
14.916667	1	1.912625
14.933333	1	1.889000
14.950000	1	1.864500
14.966667	1	1.840500
14.983333	1	1.817375
15.000000	1	1.794875
15.016667	1	1.772000
15.033333	1	1.749125
15.050000	1	1.728125
15.066667	1	1.707250
15.083333	1	1.687250
15.100000	1	1.666875
15.116667	1	1.647750
15.133333	1	1.628625
15.150000	1	1.611000
15.166667	1	1.594000
15.183333	1	1.578125
15.200000	1	1.564000
15.216667	1	1.550625
15.233333	1	1.538875
15.250000	1	1.528250
15.266667	1	1.519125
15.283333	1	1.512000
15.300000	1	1.506750
15.316667	1	1.504500
15.333333	1	1.505625
15.350000	1	1.510125
15.366667	1	1.518125
15.383333	1	1.530000
15.400000	1	1.546125
15.416667	1	1.567125
15.433333	1	1.591625
15.450000	1	1.620125
15.466667	1	1.651000
15.483333	1	1.683625
15.500000	1	1.716750
15.516667	1	1.748500
15.533333	1	1.777500
15.550000	1	1.801625
15.566667	1	1.819250
15.583333	1	1.829500
15.600000	1	1.832375
15.616667	1	1.826625
15.633333	1	1.812625
15.650000	1	1.791750
15.666667	1	1.764250
15.683333	1	1.732000
15.700000	1	1.695750
15.716667	1	1.657375
15.733333	1	1.618875
15.750000	1	1.579500
15.766667	1	1.541250
15.783333	1	1.504125
15.800000	1	1.468125
15.816667	1	1.434250
15.833333	1	1.400625
15.850000	1	1.369000
15.866667	1	1.337500
15.883333	1	1.307875
15.900000	1	1.278750
15.916667	1	1.250625
15.933333	1	1.223625
15.950000	1	1.198125
15.966667	1	1.174000
15.983333	1	1.152000
16.000000	1	1.131500
16.016667	1	1.113250
16.033333	1	1.097375
16.050000	1	1.083875
16.066667	1	1.072125
16.083333	1	1.062375
16.100000	1	1.054500
16.116667	1	1.048000
16.133333	1	1.043875
16.150000	1	1.040125
16.166667	1	1.037625
16.183333	1	1.036375
16.200000	1	1.034750
16.216667	1	1.033500
16.233333	1	1.033250
16.250000	1	1.032125
16.266667	1	1.031125
16.283333	1	1.029125
16.300000	1	1.026500
16.316667	1	1.023500
16.333333	1	1.020375
16.350000	1	1.016500
16.366667	1	1.012375
16.383333	1	1.007750
16.400000	1	1.002125
16.416667	1	0.997750
16.433333	1	0.994125
16.450000	1	0.990750
16.466667	1	0.988000
16.483333	1	0.987000
16.500000	1	0.987500
16.516667	1	0.988500
16.533333	1	0.992125
16.550000	1	0.996750
16.566667	1	1.003125
16.583333	1	1.011125
16.600000	1	1.019750
16.616667	1	1.029750
16.633333	1	1.040375
16.650000	1	1.051000
16.666667	1	1.061250
16.683333	1	1.071250
16.700000	1	1.080500
16.716667	1	1.088250
16.733333	1	1.095375
16.750000	1	1.101625
16.766667	1	1.107250
16.783333	1	1.112625
16.800000	1	1.116750
16.816667	1	1.121500
16.833333	1	1.126750
16.850000	1	1.132125
16.866667	1	1.136750
16.883333	1	1.141875
16.900000	1	1.146750
16.916667	1	1.152500
16.933333	1	1.157125
16.950000	1	1.161125
16.966667	1	1.164875
16.983333	1	1.167750
17.000000	1	1.169000
17.016667	1	1.168875
17.033333	1	1.168125
17.050000	1	1.166750
17.066667	1	1.164375
17.083333	1	1.161000
17.100000	1	1.157500
17.116667	1	1.154125
17.133333	1	1.150750
17.150000	1	1.147500
17.166667	1	1.145250
17.183333	1	1.144375
17.200000	1	1.143375
17.216667	1	1.144000
17.233333	1	1.145125
17.250000	1	1.147125
17.266667	1	1.149750
17.283333	1	1.152625
17.300000	1	1.157125
17.316667	1	1.162250
17.333333	1	1.166875
17.350000	1	1.172375
17.366667	1	1.178000
17.383333	1	1.183875
17.400000	1	1.188125
17.416667	1	1.192375
17.433333	1	1.196500
17.450000	1	1.199000
17.466667	1	1.200125
17.483333	1	1.200000
17.500000	1	1.198000
17.516667	1	1.195125
17.533333	1	1.190375
17.550000	1	1.183750
17.566667	1	1.175500
17.583333	1	1.165375
17.600000	1	1.154250
17.616667	1	1.141250
17.633333	1	1.127375
17.650000	1	1.113250
17.666667	1	1.098250
17.683333	1	1.082625
17.700000	1	1.067375
17.716667	1	1.052125
17.733333	1	1.037125
17.750000	1	1.023500
17.766667	1	1.009875
17.783333	1	0.997250
17.800000	1	0.986125
17.816667	1	0.976000
17.833333	1	0.966125
17.850000	1	0.956875
17.866667	1	0.948625
17.883333	1	0.942250
17.900000	1	0.935875
17.916667	1	0.930250
17.933333	1	0.925250
17.950000	1	0.920500
17.966667	1	0.917500
17.983333	1	0.914000
18.000000	1	0.910500
18.016667	1	0.907625
18.033333	1	0.904125
18.050000	1	0.900875
18.066667	1	0.897875
18.083333	1	0.894750
18.100000	1	0.892000
18.116667	1	0.889000
18.133333	1	0.885125
18.150000	1	0.881500
18.166667	1	0.877625
18.183333	1	0.873875
18.200000	1	0.869875
18.216667	1	0.866125
18.233333	1	0.863000
18.250000	1	0.859875
18.266667	1	0.856500
18.283333	1	0.854250
18.300000	1	0.851250
18.316667	1	0.848875
18.333333	1	0.846375
18.350000	1	0.844625
18.366667	1	0.843250
18.383333	1	0.842125
18.400000	1	0.840875
18.416667	1	0.840000
18.433333	1	0.839750
18.450000	1	0.839875
18.466667	1	0.840875
18.483333	1	0.842250
18.500000	1	0.844750
18.516667	1	0.848125
18.533333	1	0.854000
18.550000	1	0.860875
18.566667	1	0.870750
18.583333	1	0.882000
18.600000	1	0.895375
18.616667	1	0.910875
18.633333	1	0.928375
18.650000	1	0.948250
18.666667	1	0.970500
18.683333	1	0.994500
18.700000	1	1.020125
18.716667	1	1.048750
18.733333	1	1.078250
18.750000	1	1.109250
18.766667	1	1.141250
18.783333	1	1.174250
18.800000	1	1.208125
18.816667	1	1.241500
18.833333	1	1.274625
18.850000	1	1.306375
18.866667	1	1.335125
18.883333	1	1.361625
18.900000	1	1.384750
18.916667	1	1.403750
18.933333	1	1.417750
18.950000	1	1.427125
18.966667	1	1.430500
18.983333	1	1.427500
19.000000	1	1.418250
19.016667	1	1.402875
19.033333	1	1.381375
19.050000	1	1.353500
19.066667	1	1.320750
19.083333	1	1.283000
19.100000	1	1.241750
19.116667	1	1.197250
19.133333	1	1.151375
19.150000	1	1.104500
19.166667	1	1.057875
19.183333	1	1.012000
19.200000	1	0.967750
19.216667	1	0.926625
19.233333	1	0.888375
19.250000	1	0.854375
19.266667	1	0.824500
19.283333	1	0.799375
19.300000	1	0.778625
19.316667	1	0.763000
19.333333	1	0.752625
19.350000	1	0.746375
19.366667	1	0.745500
19.383333	1	0.749625
19.400000	1	0.758875
19.416667	1	0.772250
19.433333	1	0.789500
19.450000	1	0.811000
19.466667	1	0.835000
19.483333	1	0.863500
19.500000	1	0.894750
19.516667	1	0.927500
19.533333	1	0.961125
19.550000	1	0.995000
19.566667	1	1.029250
19.583333	1	1.061000
19.600000	1	1.090625
19.616667	1	1.117250
19.633333	1	1.139375
19.650000	1	1.157375
19.666667	1	1.169625
19.683333	1	1.176750
19.700000	1	1.177625
19.716667	1	1.172750
19.733333	1	1.163375
19.750000	1	1.148500
19.766667	1	1.129125
19.783333	1	1.105875
19.800000	1	1.078875
19.816667	1	1.049750
19.833333	1	1.018250
19.850000	1	0.985250
19.866667	1	0.952875
19.883333	1	0.920000
19.900000	1	0.887875
19.916667	1	0.856125
19.933333	1	0.826250
19.950000	1	0.797500
19.966667	1	0.770625
19.983333	1	0.745750
20.000000	1	0.723250
20.016667	1	0.703000
20.033333	1	0.684625
20.050000	1	0.669000
20.066667	1	0.656125
20.083333	1	0.645250
20.100000	1	0.637125
20.116667	1	0.631500
20.133333	1	0.628375
20.150000	1	0.627625
20.166667	1	0.629250
20.183333	1	0.633000
20.200000	1	0.639250
20.216667	1	0.647375
20.233333	1	0.656375
20.250000	1	0.666625
20.266667	1	0.678375
20.283333	1	0.690500
20.300000	1	0.701750
20.316667	1	0.713375
20.333333	1	0.724250
20.350000	1	0.733500
20.366667	1	0.740750
20.383333	1	0.745875
20.400000	1	0.748500
20.416667	1	0.748000
20.433333	1	0.746000
20.450000	1	0.742750
20.466667	1	0.737875
20.483333	1	0.731375
20.500000	1	0.724875
20.516667	1	0.718250
20.533333	1	0.714125
20.550000	1	0.712500
20.566667	1	0.713625
20.583333	1	0.718875
20.600000	1	0.729375
20.616667	1	0.746500
20.633333	1	0.769875
20.650000	1	0.799875
20.666667	1	0.837375
20.683333	1	0.881750
20.700000	1	0.933250
20.716667	1	0.990750
20.733333	1	1.053250
20.750000	1	1.120625
20.766667	1	1.191625
20.783333	1	1.263625
20.800000	1	1.334375
20.816667	1	1.401500
20.833333	1	1.463750
20.850000	1	1.519250
20.866667	1	1.565250
20.883333	1	1.599875
20.900000	1	1.622500
20.916667	1	1.631125
20.933333	1	1.626500
20.950000	1	1.609000
20.966667	1	1.577625
20.983333	1	1.533875
21.000000	1	1.480000
21.016667	1	1.417875
21.033333	1	1.348000
21.050000	1	1.274375
21.066667	1	1.198625
21.083333	1	1.121750
21.100000	1	1.046375
21.116667	1	0.973250
21.133333	1	0.903750
21.150000	1	0.838125
21.166667	1	0.779250
21.183333	1	0.725375
21.200000	1	0.677000
21.216667	1	0.633625
21.233333	1	0.595625
21.250000	1	0.562875
21.266667	1	0.534625
21.283333	1	0.511000
21.300000	1	0.491125
21.316667	1	0.475125
21.333333	1	0.461125
21.350000	1	0.449875
21.366667	1	0.440625
21.383333	1	0.433750
21.400000	1	0.427750
21.416667	1	0.423500
21.433333	1	0.420250
21.450000	1	0.417750
21.466667	1	0.415750
21.483333	1	0.414750
21.500000	1	0.415250
21.516667	1	0.416375
21.533333	1	0.418000
21.550000	1	0.420500
21.566667	1	0.424125
21.583333	1	0.428750
21.600000	1	0.433875
21.616667	1	0.440000
21.633333	1	0.448625
21.650000	1	0.457750
21.666667	1	0.468875
21.683333	1	0.481000
21.700000	1	0.495125
21.716667	1	0.511875
21.733333	1	0.530500
21.750000	1	0.550750
21.766667	1	0.573375
21.783333	1	0.597750
21.800000	1	0.623125
21.816667	1	0.650875
21.833333	1	0.680125
21.850000	1	0.711125
21.866667	1	0.742875
21.883333	1	0.775875
21.900000	1	0.809125
21.916667	1	0.841500
21.933333	1	0.873625
21.950000	1	0.904875
21.966667	1	0.934625
21.983333	1	0.961750
22.000000	1	0.986125
22.016667	1	1.006500
22.033333	1	1.023875
22.050000	1	1.036750
22.066667	1	1.045125
22.083333	1	1.049250
22.100000	1	1.048250
22.116667	1	1.042500
22.133333	1	1.031875
22.150000	1	1.017375
22.166667	1	0.999500
22.183333	1	0.977875
22.200000	1	0.953625
22.216667	1	0.926375
22.233333	1	0.896750
22.250000	1	0.866125
22.266667	1	0.834000
22.283333	1	0.801500
22.300000	1	0.768875
22.316667	1	0.736125
22.333333	1	0.703875
22.350000	1	0.672875
22.366667	1	0.642375
22.383333	1	0.612500
22.400000	1	0.583750
22.416667	1	0.556375
22.433333	1	0.530500
22.450000	1	0.506250
22.466667	1	0.483250
22.483333	1	0.461250
22.500000	1	0.441125
22.516667	1	0.422250
22.533333	1	0.405375
22.550000	1	0.389750
22.566667	1	0.374750
22.583333	1	0.360875
22.600000	1	0.348625
22.616667	1	0.336875
22.633333	1	0.326750
22.650000	1	0.317125
22.666667	1	0.309000
22.683333	1	0.301000
22.700000	1	0.293250
22.716667	1	0.285875
22.733333	1	0.279875
22.750000	1	0.274375
22.766667	1	0.268500
22.783333	1	0.264000
22.800000	1	0.259375
22.816667	1	0.255250
22.833333	1	0.251625
22.850000	1	0.248000
22.866667	1	0.245125
22.883333	1	0.242750
22.900000	1	0.241125
22.916667	1	0.239250
22.933333	1	0.237625
22.950000	1	0.237125
22.966667	1	0.236125
22.983333	1	0.236500
23.000000	1	0.237500
23.016667	1	0.238375
23.033333	1	0.239875
23.050000	1	0.241625
23.066667	1	0.244250
23.083333	1	0.247375
23.100000	1	0.250375
23.116667	1	0.253500
23.133333	1	0.256750
23.150000	1	0.261000
23.166667	1	0.264875
23.183333	1	0.268500
23.200000	1	0.273500
23.216667	1	0.278500
23.233333	1	0.284250
23.250000	1	0.289500
23.266667	1	0.296000
23.283333	1	0.303625
23.300000	1	0.311625
23.316667	1	0.320875
23.333333	1	0.332250
23.350000	1	0.345875
23.366667	1	0.362500
23.383333	1	0.382625
23.400000	1	0.406000
23.416667	1	0.432875
23.433333	1	0.466250
23.450000	1	0.504375
23.466667	1	0.550000
23.483333	1	0.602625
23.500000	1	0.664875
23.516667	1	0.737000
23.533333	1	0.818875
23.550000	1	0.913000
23.566667	1	1.019000
23.583333	1	1.137875
23.600000	1	1.270250
23.616667	1	1.416500
23.633333	1	1.576000
23.650000	1	1.748375
23.666667	1	1.933750
23.683333	1	2.131000
23.700000	1	2.338875
23.716667	1	2.554625
23.733333	1	2.775500
23.750000	1	2.998250
23.766667	1	3.220375
23.783333	1	3.436375
23.800000	1	3.642875
23.816667	1	3.836375
23.833333	1	4.011375
23.850000	1	4.163750
23.866667	1	4.291125
23.883333	1	4.390250
23.900000	1	4.457750
23.916667	1	4.493125
23.933333	1	4.495500
23.950000	1	4.464875
23.966667	1	4.402375
23.983333	1	4.309500
24.000000	1	4.189375
24.016667	1	4.044375
24.033333	1	3.879750
24.050000	1	3.699375
24.066667	1	3.505625
24.083333	1	3.302875
24.100000	1	3.095125
24.116667	1	2.885000
24.133333	1	2.677500
24.150000	1	2.474250
24.166667	1	2.278125
24.183333	1	2.091000
24.200000	1	1.915000
24.216667	1	1.750625
24.233333	1	1.597500
24.250000	1	1.457375
24.266667	1	1.328625
24.283333	1	1.212125
24.300000	1	1.107500
24.316667	1	1.013500
24.333333	1	0.930375
24.350000	1	0.855750
24.366667	1	0.790375
24.383333	1	0.732375
24.400000	1	0.681875
24.416667	1	0.638000
24.433333	1	0.599750
24.450000	1	0.566750
24.466667	1	0.538500
24.483333	1	0.513625
24.500000	1	0.493125
24.516667	1	0.475500
24.533333	1	0.459875
24.550000	1	0.446375
24.566667	1	0.435000
24.583333	1	0.424500
24.600000	1	0.415250
24.616667	1	0.405750
24.633333	1	0.397000
24.650000	1	0.389125
24.666667	1	0.381375
24.683333	1	0.373500
24.700000	1	0.367000
24.716667	1	0.360875
24.733333	1	0.354375
24.750000	1	0.347625
24.766667	1	0.341625
24.783333	1	0.335125
24.800000	1	0.329625
24.816667	1	0.324125
24.833333	1	0.319000
24.850000	1	0.314500
24.866667	1	0.310250
24.883333	1	0.305875
24.900000	1	0.303000
24.916667	1	0.300000
24.933333	1	0.297625
24.950000	1	0.295750
24.966667	1	0.294875
24.983333	1	0.294375
25.000000	1	0.293500
25.016667	1	0.293125
25.033333	1	0.293250
25.050000	1	0.293750
25.066667	1	0.294375
25.083333	1	0.294875
25.100000	1	0.296375
25.116667	1	0.297625
25.133333	1	0.299000
25.150000	1	0.300000
25.166667	1	0.301500
25.183333	1	0.303000
25.200000	1	0.304250
25.216667	1	0.304500
25.233333	1	0.305750
25.250000	1	0.306875
25.266667	1	0.307750
25.283333	1	0.308625
25.300000	1	0.309125
25.316667	1	0.309750
25.333333	1	0.310750
25.350000	1	0.311000
25.366667	1	0.311750
25.383333	1	0.311375
25.400000	1	0.312125
25.416667	1	0.312375
25.433333	1	0.313125
25.450000	1	0.313875
25.466667	1	0.314500
25.483333	1	0.315375
25.500000	1	0.316625
25.516667	1	0.317500
25.533333	1	0.318500
25.550000	1	0.319625
25.566667	1	0.320500
25.583333	1	0.321625
25.600000	1	0.322750
25.616667	1	0.324125
25.633333	1	0.325125
25.650000	1	0.326125
25.666667	1	0.327500
25.683333	1	0.329250
25.700000	1	0.330375
25.716667	1	0.332125
25.733333	1	0.333125
25.750000	1	0.334625
25.766667	1	0.337000
25.783333	1	0.338125
25.800000	1	0.339250
25.816667	1	0.340750
25.833333	1	0.343000
25.850000	1	0.345000
25.866667	1	0.347500
25.883333	1	0.350000
25.900000	1	0.352750
25.916667	1	0.355375
25.933333	1	0.358375
25.950000	1	0.360750
25.966667	1	0.364500
25.983333	1	0.368500
26.000000	1	0.372625
26.016667	1	0.376875
26.033333	1	0.380375
26.050000	1	0.384375
26.066667	1	0.388750
26.083333	1	0.393000
26.100000	1	0.396875
26.116667	1	0.399875
26.133333	1	0.403125
26.150000	1	0.405500
26.166667	1	0.408125
26.183333	1	0.409625
26.200000	1	0.410375
26.216667	1	0.410750
26.233333	1	0.410625
26.250000	1	0.410000
26.266667	1	0.409000
26.283333	1	0.407000
26.300000	1	0.404500
26.316667	1	0.401250
26.333333	1	0.397000
26.350000	1	0.392500
26.366667	1	0.386875
26.383333	1	0.382250
26.400000	1	0.375875
26.416667	1	0.369125
26.433333	1	0.362500
26.450000	1	0.354625
26.466667	1	0.346625
26.483333	1	0.338750
26.500000	1	0.330875
26.516667	1	0.323125
26.533333	1	0.315125
26.550000	1	0.307625
26.566667	1	0.300125
26.583333	1	0.293000
26.600000	1	0.285750
26.616667	1	0.278500
26.633333	1	0.271750
26.650000	1	0.265250
26.666667	1	0.260000
26.683333	1	0.254375
26.700000	1	0.248875
26.716667	1	0.244250
26.733333	1	0.239750
26.750000	1	0.235375
26.766667	1	0.231375
26.783333	1	0.228125
26.800000	1	0.225375
26.816667	1	0.223125
26.833333	1	0.221375
26.850000	1	0.219375
26.866667	1	0.218125
26.883333	1	0.217500
26.900000	1	0.216750
26.916667	1	0.216000
26.933333	1	0.216000
26.950000	1	0.216375
26.966667	1	0.217625
26.983333	1	0.218500
27.000000	1	0.219625
27.016667	1	0.221500
27.033333	1	0.224375
27.050000	1	0.226875
27.066667	1	0.230375
27.083333	1	0.235000
27.100000	1	0.240750
27.116667	1	0.246750
27.133333	1	0.254125
27.150000	1	0.263375
27.166667	1	0.274125
27.183333	1	0.285875
27.200000	1	0.300125
27.216667	1	0.316125
27.233333	1	0.334375
27.250000	1	0.356000
27.266667	1	0.380625
27.283333	1	0.409250
27.300000	1	0.441250
27.316667	1	0.478000
27.333333	1	0.518875
27.350000	1	0.565000
27.366667	1	0.617500
27.383333	1	0.675750
27.400000	1	0.740750
27.416667	1	0.812375
27.433333	1	0.891875
27.450000	1	0.978750
27.466667	1	1.073625
27.483333	1	1.177125
27.500000	1	1.289500
27.516667	1	1.409750
27.533333	1	1.539500
27.550000	1	1.676250
27.566667	1	1.820125
27.583333	1	1.971000
27.600000	1	2.127250
27.616667	1	2.289000
27.633333	1	2.454750
27.650000	1	2.622375
27.666667	1	2.789500
27.683333	1	2.955625
27.700000	1	3.117625
27.716667	1	3.273125
27.733333	1	3.421000
27.750000	1	3.558375
27.766667	1	3.682375
27.783333	1	3.790875
27.800000	1	3.882625
27.816667	1	3.955125
27.833333	1	4.007500
27.850000	1	4.038500
27.866667	1	4.046750
27.883333	1	4.032750
27.900000	1	3.995500
27.916667	1	3.936500
27.933333	1	3.855875
27.950000	1	3.755500
27.966667	1	3.637125
27.983333	1	3.503625
28.000000	1	3.356250
28.016667	1	3.197750
28.033333	1	3.031750
28.050000	1	2.858875
28.066667	1	2.683000
28.083333	1	2.506125
28.100000	1	2.331375
28.116667	1	2.159625
28.133333	1	1.994000
28.150000	1	1.835750
28.166667	1	1.686000
28.183333	1	1.544750
28.200000	1	1.413875
28.216667	1	1.293875
28.233333	1	1.183375
28.250000	1	1.083875
28.266667	1	0.993500
28.283333	1	0.913000
28.300000	1	0.842125
28.316667	1	0.779750
28.333333	1	0.725250
28.350000	1	0.678625
28.366667	1	0.638375
28.383333	1	0.605250
28.400000	1	0.576500
28.416667	1	0.554000
28.433333	1	0.536000
28.450000	1	0.523000
28.466667	1	0.512625
28.483333	1	0.505875
28.500000	1	0.502125
28.516667	1	0.500750
28.533333	1	0.501125
28.550000	1	0.502625
28.566667	1	0.506000
28.583333	1	0.511250
28.600000	1	0.518625
28.616667	1	0.525500
28.633333	1	0.533125
28.650000	1	0.540375
28.666667	1	0.548750
28.683333	1	0.556625
28.700000	1	0.564750
28.716667	1	0.572750
28.733333	1	0.579500
28.750000	1	0.586750
28.766667	1	0.592875
28.783333	1	0.598875
28.800000	1	0.604000
28.816667	1	0.608375
28.833333	1	0.611750
28.850000	1	0.614000
28.866667	1	0.615125
28.883333	1	0.615500
28.900000	1	0.614375
28.916667	1	0.612500
28.933333	1	0.609750
28.950000	1	0.605875
28.966667	1	0.600625
28.983333	1	0.595000
29.000000	1	0.588375
29.016667	1	0.580375
29.033333	1	0.571750
29.050000	1	0.562625
29.066667	1	0.552500
29.083333	1	0.541750
29.100000	1	0.530125
29.116667	1	0.518500
29.133333	1	0.505750
29.150000	1	0.493375
29.166667	1	0.480250
29.183333	1	0.466750
29.200000	1	0.453500
29.216667	1	0.440250
29.233333	1	0.426750
29.250000	1	0.413375
29.266667	1	0.399500
29.283333	1	0.386375
29.300000	1	0.373500
29.316667	1	0.360250
29.333333	1	0.348000
29.350000	1	0.335375
29.366667	1	0.323500
29.383333	1	0.312750
29.400000	1	0.302375
29.416667	1	0.292125
29.433333	1	0.282000
29.450000	1	0.272500
29.466667	1	0.263875
29.483333	1	0.255250
29.500000	1	0.247500
29.516667	1	0.239875
29.533333	1	0.232750
29.550000	1	0.226125
29.566667	1	0.219750
29.583333	1	0.213000
29.600000	1	0.207875
29.616667	1	0.202750
29.633333	1	0.198625
29.650000	1	0.194500
29.666667	1	0.190750
29.683333	1	0.187375
29.700000	1	0.183500
29.716667	1	0.180625
29.733333	1	0.177875
29.750000	1	0.174875
29.766667	1	0.172375
29.783333	1	0.170250
29.800000	1	0.168000
29.816667	1	0.166125
29.833333	1	0.163875
29.850000	1	0.162500
29.866667	1	0.161250
29.883333	1	0.159625
29.900000	1	0.158000
29.916667	1	0.156625
29.933333	1	0.154625
29.950000	1	0.152500
29.966667	1	0.151375
29.983333	1	0.149375
30.000000	1	0.147375
30.016667	1	0.145250
30.033333	1	0.143125
30.050000	1	0.141500
30.066667	1	0.139125
30.083333	1	0.136750
30.100000	1	0.134125
30.116667	1	0.131375
30.133333	1	0.128625
30.150000	1	0.126000
30.166667	1	0.123375
30.183333	1	0.120625
30.200000	1	0.117875
30.216667	1	0.115125
30.233333	1	0.112500
30.250000	1	0.109875
30.266667	1	0.107875
30.283333	1	0.105500
30.300000	1	0.103500
30.316667	1	0.101750
30.333333	1	0.100750
30.350000	1	0.099625
30.366667	1	0.099000
30.383333	1	0.098000
30.400000	1	0.098875
30.416667	1	0.100000
30.433333	1	0.101250
30.450000	1	0.103250
30.466667	1	0.106250
30.483333	1	0.109125
30.500000	1	0.112500
30.516667	1	0.117000
30.533333	1	0.121625
30.550000	1	0.126500
30.566667	1	0.132750
30.583333	1	0.140250
30.600000	1	0.148250
30.616667	1	0.156750
30.633333	1	0.166625
30.650000	1	0.177500
30.666667	1	0.189375
30.683333	1	0.203250
30.700000	1	0.218000
30.716667	1	0.234125
30.733333	1	0.252125
30.750000	1	0.272375
30.766667	1	0.295500
30.783333	1	0.320500
30.800000	1	0.349125
30.816667	1	0.380750
30.833333	1	0.417625
30.850000	1	0.459625
30.866667	1	0.506875
30.883333	1	0.560250
30.900000	1	0.620250
30.916667	1	0.687000
30.933333	1	0.762250
30.950000	1	0.846750
30.966667	1	0.941125
30.983333	1	1.046375
31.000000	1	1.164000
31.016667	1	1.294875
31.033333	1	1.438875
31.050000	1	1.596500
31.066667	1	1.768750
31.083333	1	1.956000
31.100000	1	2.158250
31.116667	1	2.376250
31.133333	1	2.608875
31.150000	1	2.855750
31.166667	1	3.117000
31.183333	1	3.391375
31.200000	1	3.677625
31.216667	1	3.974500
31.233333	1	4.280000
31.250000	1	4.590125
31.266667	1	4.903250
31.283333	1	5.216750
31.300000	1	5.526375
31.316667	1	5.830250
31.333333	1	6.123750
31.350000	1	6.404000
31.366667	1	6.666875
31.383333	1	6.910250
31.400000	1	7.129625
31.416667	1	7.323625
31.433333	1	7.488125
31.450000	1	7.621625
31.466667	1	7.722500
31.483333	1	7.788875
31.500000	1	7.820250
31.516667	1	7.815875
31.533333	1	7.776750
31.550000	1	7.702875
31.566667	1	7.596750
31.583333	1	7.459250
31.600000	1	7.293500
31.616667	1	7.100750
31.633333	1	6.883125
31.650000	1	6.645375
31.666667	1	6.389625
31.683333	1	6.119250
31.700000	1	5.837750
31.716667	1	5.548625
31.733333	1	5.254875
31.750000	1	4.959000
31.766667	1	4.663500
31.783333	1	4.371125
31.800000	1	4.084375
31.816667	1	3.803750
31.833333	1	3.531750
31.850000	1	3.270250
31.866667	1	3.020250
31.883333	1	2.781875
31.900000	1	2.556375
31.916667	1	2.344750
31.933333	1	2.146750
31.950000	1	1.962625
31.966667	1	1.791375
31.983333	1	1.632500
32.000000	1	1.485750
32.016667	1	1.350875
32.033333	1	1.226875
32.050000	1	1.113750
32.066667	1	1.010500
32.083333	1	0.917250
32.100000	1	0.833000
32.116667	1	0.757500
32.133333	1	0.689250
32.150000	1	0.627750
32.166667	1	0.572375
32.183333	1	0.522625
32.200000	1	0.478125
32.216667	1	0.438250
32.233333	1	0.402500
32.250000	1	0.370375
32.266667	1	0.342125
32.283333	1	0.316750
32.300000	1	0.293500
32.316667	1	0.273250
32.333333	1	0.255250
32.350000	1	0.238625
32.366667	1	0.224375
32.383333	1	0.210875
32.400000	1	0.198375
32.416667	1	0.187875
32.433333	1	0.178500
32.450000	1	0.170500
32.466667	1	0.162375
32.483333	1	0.155625
32.500000	1	0.148750
32.516667	1	0.142625
32.533333	1	0.137375
32.550000	1	0.132500
32.566667	1	0.128500
32.583333	1	0.124625
32.600000	1	0.121000
32.616667	1	0.118500
32.633333	1	0.115875
32.650000	1	0.113125
32.666667	1	0.111125
32.683333	1	0.109375
32.700000	1	0.108250
32.716667	1	0.106750
32.733333	1	0.105250
32.750000	1	0.103750
32.766667	1	0.103375
32.783333	1	0.102500
32.800000	1	0.101875
32.816667	1	0.101000
32.833333	1	0.100125
32.850000	1	0.098750
32.866667	1	0.098125
32.883333	1	0.096500
32.900000	1	0.095125
32.916667	1	0.094875
32.933333	1	0.093375
32.950000	1	0.092000
32.966667	1	0.091000
32.983333	1	0.089250
33.000000	1	0.088000
33.016667	1	0.085750
33.033333	1	0.083375
33.050000	1	0.080500
33.066667	1	0.078125
33.083333	1	0.076000
33.100000	1	0.073875
33.116667	1	0.070750
33.133333	1	0.067750
33.150000	1	0.065000
33.166667	1	0.062625
33.183333	1	0.059625
33.200000	1	0.057375
33.216667	1	0.055625
33.233333	1	0.054000
33.250000	1	0.051875
33.266667	1	0.050750
33.283333	1	0.050000
33.300000	1	0.049750
33.316667	1	0.050750
33.333333	1	0.052500
33.350000	1	0.055250
33.366667	1	0.058500
33.383333	1	0.062875
33.400000	1	0.068500
33.416667	1	0.075250
33.433333	1	0.083375
33.450000	1	0.093250
33.466667	1	0.104375
33.483333	1	0.117250
33.500000	1	0.131875
33.516667	1	0.148625
33.533333	1	0.167125
33.550000	1	0.187375
33.566667	1	0.210375
33.583333	1	0.235375
33.600000	1	0.261500
33.616667	1	0.289625
33.633333	1	0.320875
33.650000	1	0.354125
33.666667	1	0.388125
33.683333	1	0.424875
33.700000	1	0.463375
33.716667	1	0.502750
33.733333	1	0.543875
33.750000	1	0.586500
33.766667	1	0.631000
33.783333	1	0.676000
33.800000	1	0.721250
33.816667	1	0.766250
33.833333	1	0.811125
33.850000	1	0.856250
33.866667	1	0.899875
33.883333	1	0.942125
33.900000	1	0.982625
33.916667	1	1.021250
33.933333	1	1.057500
33.950000	1	1.091250
33.966667	1	1.121750
33.983333	1	1.149125
34.000000	1	1.171875
34.016667	1	1.192000
34.033333	1	1.207000
34.050000	1	1.218375
34.066667	1	1.225750
34.083333	1	1.228375
34.100000	1	1.227000
34.116667	1	1.221000
34.133333	1	1.211500
34.150000	1	1.197875
34.166667	1	1.180375
34.183333	1	1.159250
34.200000	1	1.134750
34.216667	1	1.107875
34.233333	1	1.079125
34.250000	1	1.047375
34.266667	1	1.013750
34.283333	1	0.978750
34.300000	1	0.942875
34.316667	1	0.906500
34.333333	1	0.869750
34.350000	1	0.832875
34.366667	1	0.796250
34.383333	1	0.759875
34.400000	1	0.725125
34.416667	1	0.691000
34.433333	1	0.657750
34.450000	1	0.625375
34.466667	1	0.595375
34.483333	1	0.566750
34.500000	1	0.539125
34.516667	1	0.513750
34.533333	1	0.489250
34.550000	1	0.467125
34.566667	1	0.446250
34.583333	1	0.426625
34.600000	1	0.408125
34.616667	1	0.391375
34.633333	1	0.375500
34.650000	1	0.361375
34.666667	1	0.349000
34.683333	1	0.337625
34.700000	1	0.326625
34.716667	1	0.316750
34.733333	1	0.307250
34.750000	1	0.298750
34.766667	1	0.290750
34.783333	1	0.283375
34.800000	1	0.276625
34.816667	1	0.271250
34.833333	1	0.265875
34.850000	1	0.260000
34.866667	1	0.254875
34.883333	1	0.250250
34.900000	1	0.245875
34.916667	1	0.241250
34.933333	1	0.236500
34.950000	1	0.232750
34.966667	1	0.228500
34.983333	1	0.224000
35.000000	1	0.220750
35.016667	1	0.217125
35.033333	1	0.214250
35.050000	1	0.210500
35.066667	1	0.207000
35.083333	1	0.203125
35.100000	1	0.199875
35.116667	1	0.197125
35.133333	1	0.194125
35.150000	1	0.191250
35.166667	1	0.188250
35.183333	1	0.185250
35.200000	1	0.182500
35.216667	1	0.180000
35.233333	1	0.176750
35.250000	1	0.174125
35.266667	1	0.171250
35.283333	1	0.168625
35.300000	1	0.165750
35.316667	1	0.163625
35.333333	1	0.161625
35.350000	1	0.159250
35.366667	1	0.156500
35.383333	1	0.154500
35.400000	1	0.152750
35.416667	1	0.151625
35.433333	1	0.149625
35.450000	1	0.148250
35.466667	1	0.146250
35.483333	1	0.145625
35.500000	1	0.144750
35.516667	1	0.143875
35.533333	1	0.143500
35.550000	1	0.143625
35.566667	1	0.144000
35.583333	1	0.143500
35.600000	1	0.143375
35.616667	1	0.143875
35.633333	1	0.143875
35.650000	1	0.144375
35.666667	1	0.145125
35.683333	1	0.146000
35.700000	1	0.147875
35.716667	1	0.149375
35.733333	1	0.150875
35.750000	1	0.151875
35.766667	1	0.153000
35.783333	1	0.155000
35.800000	1	0.156250
35.816667	1	0.157750
35.833333	1	0.158875
35.850000	1	0.159875
35.866667	1	0.161125
35.883333	1	0.162625
35.900000	1	0.164000
35.916667	1	0.164625
35.933333	1	0.165125
35.950000	1	0.166375
35.966667	1	0.167500
35.983333	1	0.168500
36.000000	1	0.168750
36.016667	1	0.168750
36.033333	1	0.168500
36.050000	1	0.168625
36.066667	1	0.169000
36.083333	1	0.169000
36.100000	1	0.169375
36.116667	1	0.169625
36.133333	1	0.169250
36.150000	1	0.169125
36.166667	1	0.168500
36.183333	1	0.168125
36.200000	1	0.167375
36.216667	1	0.166875
36.233333	1	0.165750
36.250000	1	0.164625
36.266667	1	0.163500
36.283333	1	0.162125
36.300000	1	0.160500
36.316667	1	0.159000
36.333333	1	0.157250
36.350000	1	0.155750
36.366667	1	0.153125
36.383333	1	0.151375
36.400000	1	0.149000
36.416667	1	0.145875
36.433333	1	0.142625
36.450000	1	0.139375
36.466667	1	0.136500
36.483333	1	0.133125
36.500000	1	0.129625
36.516667	1	0.125625
36.533333	1	0.121125
36.550000	1	0.116875
36.566667	1	0.112625
36.583333	1	0.108250
36.600000	1	0.103625
36.616667	1	0.099375
36.633333	1	0.095625
36.650000	1	0.091375
36.666667	1	0.087375
36.683333	1	0.083000
36.700000	1	0.079000
36.716667	1	0.075250
36.733333	1	0.071250
36.750000	1	0.068375
36.766667	1	0.065750
36.783333	1	0.062875
36.800000	1	0.060625
36.816667	1	0.058250
36.833333	1	0.056125
36.850000	1	0.054375
36.866667	1	0.053000
36.883333	1	0.051625
36.900000	1	0.050625
36.916667	1	0.050000
36.933333	1	0.049875
36.950000	1	0.049125
36.966667	1	0.049000
36.983333	1	0.048750
37.000000	1	0.048500
37.016667	1	0.048625
37.033333	1	0.048875
37.050000	1	0.049125
37.066667	1	0.050000
37.083333	1	0.050750
37.100000	1	0.051500
37.116667	1	0.052500
37.133333	1	0.054000
37.150000	1	0.055250
37.166667	1	0.056000
37.183333	1	0.057000
37.200000	1	0.058625
37.216667	1	0.060250
37.233333	1	0.062000
37.250000	1	0.063250
37.266667	1	0.065125
37.283333	1	0.066625
37.300000	1	0.069000
37.316667	1	0.071250
37.333333	1	0.072750
37.350000	1	0.073875
37.366667	1	0.075250
37.383333	1	0.077375
37.400000	1	0.078500
37.416667	1	0.080125
37.433333	1	0.081500
37.450000	1	0.082875
37.466667	1	0.084250
37.483333	1	0.085875
37.500000	1	0.087125
37.516667	1	0.088875
37.533333	1	0.090000
37.550000	1	0.091000
37.566667	1	0.091875
37.583333	1	0.092750
37.600000	1	0.093750
37.616667	1	0.094250
37.633333	1	0.095375
37.650000	1	0.096750
37.666667	1	0.097375
37.683333	1	0.098375
37.700000	1	0.099375
37.716667	1	0.100125
37.733333	1	0.101125
37.750000	1	0.102875
37.766667	1	0.103375
37.783333	1	0.104250
37.800000	1	0.105625
37.816667	1	0.107125
37.833333	1	0.108625
37.850000	1	0.110750
37.866667	1	0.112875
37.883333	1	0.114250
37.900000	1	0.116125
37.916667	1	0.118250
37.933333	1	0.120125
37.950000	1	0.122375
37.966667	1	0.124125
37.983333	1	0.125875
38.000000	1	0.127875
38.016667	1	0.129500
38.033333	1	0.131625
38.050000	1	0.132750
38.066667	1	0.133875
38.083333	1	0.135625
38.100000	1	0.136375
38.116667	1	0.136875
38.133333	1	0.137500
38.150000	1	0.138000
38.166667	1	0.138000
38.183333	1	0.138250
38.200000	1	0.138250
38.216667	1	0.137500
38.233333	1	0.136375
38.250000	1	0.135750
38.266667	1	0.134500
38.283333	1	0.133500
38.300000	1	0.132250
38.316667	1	0.129625
38.333333	1	0.127500
38.350000	1	0.126000
38.366667	1	0.123375
38.383333	1	0.121125
38.400000	1	0.118875
38.416667	1	0.116375
38.433333	1	0.113875
38.450000	1	0.111500
38.466667	1	0.109875
38.483333	1	0.107875
38.500000	1	0.106000
38.516667	1	0.104000
38.533333	1	0.101625
38.550000	1	0.100125
38.566667	1	0.098250
38.583333	1	0.096875
38.600000	1	0.095625
38.616667	1	0.094875
38.633333	1	0.094875
38.650000	1	0.094000
38.666667	1	0.094375
38.683333	1	0.094375
38.700000	1	0.094125
38.716667	1	0.094125
38.733333	1	0.094500
38.750000	1	0.094750
38.766667	1	0.094125
38.783333	1	0.094375
38.800000	1	0.094500
38.816667	1	0.094375
38.833333	1	0.094500
38.850000	1	0.094625
38.866667	1	0.095500
38.883333	1	0.095250
38.900000	1	0.095375
38.916667	1	0.094875
38.933333	1	0.094750
38.950000	1	0.094500
38.966667	1	0.094125
38.983333	1	0.093000
39.000000	1	0.091625
39.016667	1	0.090625
39.033333	1	0.089500
39.050000	1	0.087875
39.066667	1	0.086375
39.083333	1	0.085500
39.100000	1	0.083375
39.116667	1	0.081000
39.133333	1	0.079375
39.150000	1	0.076625
39.166667	1	0.074250
39.183333	1	0.071875
39.200000	1	0.069000
39.216667	1	0.066000
39.233333	1	0.063375
39.250000	1	0.061000
39.266667	1	0.057500
39.283333	1	0.054875
39.300000	1	0.052250
39.316667	1	0.049000
39.333333	1	0.045250
39.350000	1	0.042500
39.366667	1	0.038750
39.383333	1	0.035250
39.400000	1	0.032000
39.416667	1	0.029250
39.433333	1	0.026375
39.450000	1	0.023250
39.466667	1	0.020125
39.483333	1	0.016125
39.500000	1	0.012250
39.516667	1	0.008625
39.533333	1	0.005125
39.550000	1	0.001750
39.566667	1	-0.001250
39.583333	1	-0.004625
39.600000	1	-0.007875
39.616667	1	-0.010375
39.633333	1	-0.013250
39.650000	1	-0.016125
39.666667	1	-0.019625
39.683333	1	-0.022500
39.700000	1	-0.025375
39.716667	1	-0.027000
39.733333	1	-0.029750
39.750000	1	-0.032500
39.766667	1	-0.034500
39.783333	1	-0.037000
39.800000	1	-0.039375
39.816667	1	-0.041375
39.833333	1	-0.042375
39.850000	1	-0.044375
39.866667	1	-0.046625
39.883333	1	-0.047875
39.900000	1	-0.048750
39.916667	1	-0.048875
39.933333	1	-0.049500
39.950000	1	-0.050500
39.966667	1	-0.051875
39.983333	1	-0.052000
40.000000	1	-0.053000
