URL	chrom://bioreactor/micro_cm7/HPLC_Ultimate_3000/Users/markusar/20240708_MA_pHrange1.seq/632.smp/RI_1.channel/RI_1.chm
Channel	RI_1

Injection Information:
Data Vault	micro_cm7
Sequence	20240708_MA_pHrange1
Name	Fp3_5.7_3
Number	69
Position	BF11
Comment	
Processing Method	
Instrument Method	run_25B_method
Type	Unknown
Status	Finished
Inject Time	10.07.2024 14:00:37 +02:00
Volume (µl)	20.0000
Dilution Factor	1.0000
Weight	1.0000

Chromatogram Data Information:
Time Min. (min)	0.000000
Time Max. (min)	40.000000
Data Points	2401
Detector	RI
Generating Data System	Chromeleon 7.3.2.11814
Exporting Data System	Chromeleon 7.3.2.0
Operator	Instrument Controller
Signal Quantity	Refractive 
Signal Unit	µRIU
Signal Min.	-0.093125
Signal Max.	83.033875
Channel	RI_1
Driver Name	RID520Driver.dll
Channel Type	Evaluation
Min. Step (s)	1
Max. Step (s)	1
Average Step (s)	1

Signal Parameter Information:
Signal Info	

Chromatogram Data:
Time (min)	Step (s)	Value (µRIU)
0.000000	n.a.	-0.018000
0.016667	1	-0.016000
0.033333	1	-0.013625
0.050000	1	-0.011875
0.066667	1	-0.009500
0.083333	1	-0.007375
0.100000	1	-0.005000
0.116667	1	-0.002375
0.133333	1	0.000000
0.150000	1	0.003125
0.166667	1	0.006375
0.183333	1	0.009750
0.200000	1	0.012875
0.216667	1	0.016250
0.233333	1	0.019250
0.250000	1	0.022250
0.266667	1	0.025750
0.283333	1	0.028875
0.300000	1	0.032000
0.316667	1	0.035250
0.333333	1	0.038375
0.350000	1	0.040750
0.366667	1	0.043125
0.383333	1	0.044625
0.400000	1	0.046500
0.416667	1	0.049000
0.433333	1	0.052625
0.450000	1	0.056125
0.466667	1	0.060125
0.483333	1	0.063875
0.500000	1	0.066750
0.516667	1	0.069750
0.533333	1	0.072125
0.550000	1	0.072750
0.566667	1	0.072125
0.583333	1	0.071500
0.600000	1	0.070375
0.616667	1	0.069750
0.633333	1	0.068625
0.650000	1	0.068125
0.666667	1	0.067125
0.683333	1	0.067125
0.700000	1	0.066500
0.716667	1	0.065750
0.733333	1	0.065250
0.750000	1	0.064625
0.766667	1	0.064125
0.783333	1	0.062500
0.800000	1	0.060750
0.816667	1	0.059375
0.833333	1	0.058125
0.850000	1	0.056875
0.866667	1	0.056000
0.883333	1	0.054125
0.900000	1	0.051750
0.916667	1	0.049000
0.933333	1	0.047000
0.950000	1	0.044500
0.966667	1	0.042375
0.983333	1	0.040375
1.000000	1	0.038375
1.016667	1	0.036250
1.033333	1	0.034000
1.050000	1	0.032750
1.066667	1	0.031250
1.083333	1	0.029125
1.100000	1	0.027500
1.116667	1	0.025750
1.133333	1	0.024000
1.150000	1	0.022625
1.166667	1	0.021250
1.183333	1	0.019875
1.200000	1	0.018875
1.216667	1	0.018125
1.233333	1	0.017375
1.250000	1	0.016625
1.266667	1	0.016375
1.283333	1	0.015125
1.300000	1	0.014125
1.316667	1	0.013625
1.333333	1	0.013125
1.350000	1	0.012500
1.366667	1	0.011875
1.383333	1	0.011500
1.400000	1	0.011625
1.416667	1	0.011125
1.433333	1	0.010875
1.450000	1	0.010750
1.466667	1	0.010625
1.483333	1	0.010250
1.500000	1	0.009625
1.516667	1	0.009250
1.533333	1	0.009125
1.550000	1	0.009000
1.566667	1	0.008500
1.583333	1	0.007750
1.600000	1	0.007750
1.616667	1	0.007625
1.633333	1	0.007375
1.650000	1	0.006875
1.666667	1	0.006500
1.683333	1	0.006000
1.700000	1	0.006000
1.716667	1	0.006125
1.733333	1	0.006250
1.750000	1	0.005875
1.766667	1	0.005125
1.783333	1	0.004875
1.800000	1	0.005000
1.816667	1	0.005000
1.833333	1	0.004500
1.850000	1	0.004375
1.866667	1	0.004250
1.883333	1	0.003625
1.900000	1	0.003500
1.916667	1	0.003000
1.933333	1	0.002250
1.950000	1	0.002625
1.966667	1	0.002000
1.983333	1	0.001500
2.000000	1	0.001375
2.016667	1	0.000875
2.033333	1	0.000375
2.050000	1	-0.000250
2.066667	1	-0.000500
2.083333	1	-0.001500
2.100000	1	-0.002125
2.116667	1	-0.003875
2.133333	1	-0.004500
2.150000	1	-0.005250
2.166667	1	-0.006500
2.183333	1	-0.008000
2.200000	1	-0.009000
2.216667	1	-0.010500
2.233333	1	-0.011500
2.250000	1	-0.013250
2.266667	1	-0.015250
2.283333	1	-0.016000
2.300000	1	-0.017125
2.316667	1	-0.018375
2.333333	1	-0.020250
2.350000	1	-0.021500
2.366667	1	-0.022500
2.383333	1	-0.023250
2.400000	1	-0.024500
2.416667	1	-0.025750
2.433333	1	-0.026250
2.450000	1	-0.027125
2.466667	1	-0.027750
2.483333	1	-0.028000
2.500000	1	-0.028250
2.516667	1	-0.028125
2.533333	1	-0.028375
2.550000	1	-0.028000
2.566667	1	-0.028250
2.583333	1	-0.027750
2.600000	1	-0.027125
2.616667	1	-0.026125
2.633333	1	-0.026000
2.650000	1	-0.024625
2.666667	1	-0.023125
2.683333	1	-0.021250
2.700000	1	-0.020250
2.716667	1	-0.019625
2.733333	1	-0.019250
2.750000	1	-0.018000
2.766667	1	-0.016625
2.783333	1	-0.015000
2.800000	1	-0.013250
2.816667	1	-0.011625
2.833333	1	-0.009750
2.850000	1	-0.007750
2.866667	1	-0.005875
2.883333	1	-0.004125
2.900000	1	-0.002625
2.916667	1	-0.001375
2.933333	1	-0.000250
2.950000	1	0.001750
2.966667	1	0.004000
2.983333	1	0.005500
3.000000	1	0.007375
3.016667	1	0.009500
3.033333	1	0.011500
3.050000	1	0.013250
3.066667	1	0.015000
3.083333	1	0.016125
3.100000	1	0.017500
3.116667	1	0.019125
3.133333	1	0.020375
3.150000	1	0.022000
3.166667	1	0.024125
3.183333	1	0.025375
3.200000	1	0.027250
3.216667	1	0.028250
3.233333	1	0.029750
3.250000	1	0.031750
3.266667	1	0.033250
3.283333	1	0.035000
3.300000	1	0.036500
3.316667	1	0.037875
3.333333	1	0.039500
3.350000	1	0.040625
3.366667	1	0.042625
3.383333	1	0.043750
3.400000	1	0.044875
3.416667	1	0.045500
3.433333	1	0.047250
3.450000	1	0.048000
3.466667	1	0.049250
3.483333	1	0.050125
3.500000	1	0.050875
3.516667	1	0.051875
3.533333	1	0.052250
3.550000	1	0.052875
3.566667	1	0.053625
3.583333	1	0.053875
3.600000	1	0.053375
3.616667	1	0.053875
3.633333	1	0.053875
3.650000	1	0.053500
3.666667	1	0.052750
3.683333	1	0.052125
3.700000	1	0.052000
3.716667	1	0.051500
3.733333	1	0.051125
3.750000	1	0.050625
3.766667	1	0.049000
3.783333	1	0.047750
3.800000	1	0.047250
3.816667	1	0.046250
3.833333	1	0.045500
3.850000	1	0.044125
3.866667	1	0.043000
3.883333	1	0.041625
3.900000	1	0.040625
3.916667	1	0.039500
3.933333	1	0.037625
3.950000	1	0.036500
3.966667	1	0.036250
3.983333	1	0.036250
4.000000	1	0.036125
4.016667	1	0.035375
4.033333	1	0.035500
4.050000	1	0.035750
4.066667	1	0.035500
4.083333	1	0.035750
4.100000	1	0.036750
4.116667	1	0.036750
4.133333	1	0.037500
4.150000	1	0.038250
4.166667	1	0.039875
4.183333	1	0.041125
4.200000	1	0.042000
4.216667	1	0.043875
4.233333	1	0.045250
4.250000	1	0.046875
4.266667	1	0.048750
4.283333	1	0.050375
4.300000	1	0.052625
4.316667	1	0.054625
4.333333	1	0.055750
4.350000	1	0.058000
4.366667	1	0.059875
4.383333	1	0.061500
4.400000	1	0.063375
4.416667	1	0.065375
4.433333	1	0.067250
4.450000	1	0.069000
4.466667	1	0.070750
4.483333	1	0.072000
4.500000	1	0.073375
4.516667	1	0.075375
4.533333	1	0.076500
4.550000	1	0.077625
4.566667	1	0.079000
4.583333	1	0.080500
4.600000	1	0.081500
4.616667	1	0.082250
4.633333	1	0.083625
4.650000	1	0.084125
4.666667	1	0.085625
4.683333	1	0.086625
4.700000	1	0.087375
4.716667	1	0.087875
4.733333	1	0.088000
4.750000	1	0.088125
4.766667	1	0.089625
4.783333	1	0.091000
4.800000	1	0.092000
4.816667	1	0.093500
4.833333	1	0.095125
4.850000	1	0.095875
4.866667	1	0.097375
4.883333	1	0.100000
4.900000	1	0.102250
4.916667	1	0.104500
4.933333	1	0.107375
4.950000	1	0.110250
4.966667	1	0.113750
4.983333	1	0.116875
5.000000	1	0.119500
5.016667	1	0.122875
5.033333	1	0.126750
5.050000	1	0.130625
5.066667	1	0.135000
5.083333	1	0.139750
5.100000	1	0.144125
5.116667	1	0.148750
5.133333	1	0.154000
5.150000	1	0.158500
5.166667	1	0.162625
5.183333	1	0.167625
5.200000	1	0.172250
5.216667	1	0.177500
5.233333	1	0.182625
5.250000	1	0.186875
5.266667	1	0.191750
5.283333	1	0.195875
5.300000	1	0.200000
5.316667	1	0.204625
5.333333	1	0.208500
5.350000	1	0.212000
5.366667	1	0.215375
5.383333	1	0.218500
5.400000	1	0.221875
5.416667	1	0.223875
5.433333	1	0.225500
5.450000	1	0.227250
5.466667	1	0.228875
5.483333	1	0.229875
5.500000	1	0.230125
5.516667	1	0.230000
5.533333	1	0.230375
5.550000	1	0.229750
5.566667	1	0.229125
5.583333	1	0.228500
5.600000	1	0.227500
5.616667	1	0.225875
5.633333	1	0.223875
5.650000	1	0.222500
5.666667	1	0.220000
5.683333	1	0.217000
5.700000	1	0.213500
5.716667	1	0.210750
5.733333	1	0.207625
5.750000	1	0.204625
5.766667	1	0.200375
5.783333	1	0.196875
5.800000	1	0.192625
5.816667	1	0.189000
5.833333	1	0.184500
5.850000	1	0.179875
5.866667	1	0.175500
5.883333	1	0.171625
5.900000	1	0.166625
5.916667	1	0.162625
5.933333	1	0.158375
5.950000	1	0.154250
5.966667	1	0.150375
5.983333	1	0.145750
6.000000	1	0.140875
6.016667	1	0.135875
6.033333	1	0.131375
6.050000	1	0.127625
6.066667	1	0.123750
6.083333	1	0.119375
6.100000	1	0.115375
6.116667	1	0.111625
6.133333	1	0.107625
6.150000	1	0.104375
6.166667	1	0.100500
6.183333	1	0.097250
6.200000	1	0.094125
6.216667	1	0.091000
6.233333	1	0.088125
6.250000	1	0.084750
6.266667	1	0.081500
6.283333	1	0.078875
6.300000	1	0.075875
6.316667	1	0.073625
6.333333	1	0.071250
6.350000	1	0.069375
6.366667	1	0.067000
6.383333	1	0.065250
6.400000	1	0.063000
6.416667	1	0.061500
6.433333	1	0.059875
6.450000	1	0.058625
6.466667	1	0.057000
6.483333	1	0.055500
6.500000	1	0.054625
6.516667	1	0.053750
6.533333	1	0.052875
6.550000	1	0.052250
6.566667	1	0.052125
6.583333	1	0.052500
6.600000	1	0.053125
6.616667	1	0.053125
6.633333	1	0.052875
6.650000	1	0.053250
6.666667	1	0.053250
6.683333	1	0.053625
6.700000	1	0.053625
6.716667	1	0.054625
6.733333	1	0.055875
6.750000	1	0.056875
6.766667	1	0.057750
6.783333	1	0.057875
6.800000	1	0.058875
6.816667	1	0.060500
6.833333	1	0.061750
6.850000	1	0.062250
6.866667	1	0.063250
6.883333	1	0.064125
6.900000	1	0.065500
6.916667	1	0.066375
6.933333	1	0.067375
6.950000	1	0.068625
6.966667	1	0.069500
6.983333	1	0.070625
7.000000	1	0.071750
7.016667	1	0.072625
7.033333	1	0.073500
7.050000	1	0.074375
7.066667	1	0.075375
7.083333	1	0.076125
7.100000	1	0.077375
7.116667	1	0.078375
7.133333	1	0.078750
7.150000	1	0.079125
7.166667	1	0.079750
7.183333	1	0.080500
7.200000	1	0.081000
7.216667	1	0.081750
7.233333	1	0.082125
7.250000	1	0.082500
7.266667	1	0.082750
7.283333	1	0.083000
7.300000	1	0.083875
7.316667	1	0.084000
7.333333	1	0.083500
7.350000	1	0.083500
7.366667	1	0.083000
7.383333	1	0.082375
7.400000	1	0.082000
7.416667	1	0.080875
7.433333	1	0.079750
7.450000	1	0.078375
7.466667	1	0.076750
7.483333	1	0.075250
7.500000	1	0.073750
7.516667	1	0.071625
7.533333	1	0.070125
7.550000	1	0.067875
7.566667	1	0.065500
7.583333	1	0.061875
7.600000	1	0.059125
7.616667	1	0.055750
7.633333	1	0.052500
7.650000	1	0.048750
7.666667	1	0.045500
7.683333	1	0.041750
7.700000	1	0.038000
7.716667	1	0.033375
7.733333	1	0.029625
7.750000	1	0.025750
7.766667	1	0.020875
7.783333	1	0.016875
7.800000	1	0.012500
7.816667	1	0.008250
7.833333	1	0.003625
7.850000	1	-0.000500
7.866667	1	-0.004875
7.883333	1	-0.008500
7.900000	1	-0.012750
7.916667	1	-0.016250
7.933333	1	-0.020875
7.950000	1	-0.024125
7.966667	1	-0.027625
7.983333	1	-0.030625
8.000000	1	-0.034125
8.016667	1	-0.037250
8.033333	1	-0.040250
8.050000	1	-0.043625
8.066667	1	-0.046375
8.083333	1	-0.049375
8.100000	1	-0.052250
8.116667	1	-0.054250
8.133333	1	-0.056875
8.150000	1	-0.058625
8.166667	1	-0.061250
8.183333	1	-0.063375
8.200000	1	-0.065500
8.216667	1	-0.068250
8.233333	1	-0.070000
8.250000	1	-0.071875
8.266667	1	-0.073875
8.283333	1	-0.075500
8.300000	1	-0.076875
8.316667	1	-0.079000
8.333333	1	-0.080625
8.350000	1	-0.082000
8.366667	1	-0.084000
8.383333	1	-0.085375
8.400000	1	-0.085875
8.416667	1	-0.086750
8.433333	1	-0.088250
8.450000	1	-0.089000
8.466667	1	-0.089750
8.483333	1	-0.090000
8.500000	1	-0.091000
8.516667	1	-0.091625
8.533333	1	-0.091875
8.550000	1	-0.092000
8.566667	1	-0.092000
8.583333	1	-0.092250
8.600000	1	-0.093125
8.616667	1	-0.092750
8.633333	1	-0.092250
8.650000	1	-0.091750
8.666667	1	-0.090750
8.683333	1	-0.089500
8.700000	1	-0.088250
8.716667	1	-0.087125
8.733333	1	-0.085625
8.750000	1	-0.084625
8.766667	1	-0.083625
8.783333	1	-0.082500
8.800000	1	-0.081500
8.816667	1	-0.080125
8.833333	1	-0.078625
8.850000	1	-0.076875
8.866667	1	-0.076375
8.883333	1	-0.075750
8.900000	1	-0.075000
8.916667	1	-0.074125
8.933333	1	-0.073125
8.950000	1	-0.072500
8.966667	1	-0.071625
8.983333	1	-0.070875
9.000000	1	-0.070750
9.016667	1	-0.070500
9.033333	1	-0.070125
9.050000	1	-0.069500
9.066667	1	-0.069375
9.083333	1	-0.069625
9.100000	1	-0.069750
9.116667	1	-0.069625
9.133333	1	-0.069500
9.150000	1	-0.069625
9.166667	1	-0.070625
9.183333	1	-0.071750
9.200000	1	-0.072375
9.216667	1	-0.073125
9.233333	1	-0.073500
9.250000	1	-0.074750
9.266667	1	-0.075875
9.283333	1	-0.076375
9.300000	1	-0.076875
9.316667	1	-0.077250
9.333333	1	-0.077875
9.350000	1	-0.078625
9.366667	1	-0.078625
9.383333	1	-0.079750
9.400000	1	-0.080375
9.416667	1	-0.080625
9.433333	1	-0.081250
9.450000	1	-0.081125
9.466667	1	-0.081250
9.483333	1	-0.081625
9.500000	1	-0.081000
9.516667	1	-0.080625
9.533333	1	-0.080875
9.550000	1	-0.080500
9.566667	1	-0.080625
9.583333	1	-0.080625
9.600000	1	-0.080625
9.616667	1	-0.080500
9.633333	1	-0.081000
9.650000	1	-0.081000
9.666667	1	-0.081500
9.683333	1	-0.081375
9.700000	1	-0.081375
9.716667	1	-0.081500
9.733333	1	-0.081750
9.750000	1	-0.081750
9.766667	1	-0.081625
9.783333	1	-0.081625
9.800000	1	-0.081750
9.816667	1	-0.082500
9.833333	1	-0.083250
9.850000	1	-0.084250
9.866667	1	-0.084625
9.883333	1	-0.085250
9.900000	1	-0.086000
9.916667	1	-0.086500
9.933333	1	-0.087250
9.950000	1	-0.087250
9.966667	1	-0.087125
9.983333	1	-0.087500
10.000000	1	-0.087250
10.016667	1	-0.087000
10.033333	1	-0.085625
10.050000	1	-0.084250
10.066667	1	-0.082500
10.083333	1	-0.080000
10.100000	1	-0.077000
10.116667	1	-0.072875
10.133333	1	-0.068125
10.150000	1	-0.063000
10.166667	1	-0.055375
10.183333	1	-0.047625
10.200000	1	-0.038000
10.216667	1	-0.027500
10.233333	1	-0.015125
10.250000	1	-0.001750
10.266667	1	0.014000
10.283333	1	0.031750
10.300000	1	0.052000
10.316667	1	0.073875
10.333333	1	0.098500
10.350000	1	0.124625
10.366667	1	0.151000
10.383333	1	0.176125
10.400000	1	0.197750
10.416667	1	0.214000
10.433333	1	0.223500
10.450000	1	0.225750
10.466667	1	0.225875
10.483333	1	0.231250
10.500000	1	0.255125
10.516667	1	0.318625
10.533333	1	0.451000
10.550000	1	0.690125
10.566667	1	1.081625
10.583333	1	1.678875
10.600000	1	2.536375
10.616667	1	3.706125
10.633333	1	5.231125
10.650000	1	7.145000
10.666667	1	9.467500
10.683333	1	12.205750
10.700000	1	15.350625
10.716667	1	18.877500
10.733333	1	22.742750
10.750000	1	26.881375
10.766667	1	31.200000
10.783333	1	35.570875
10.800000	1	39.818000
10.816667	1	43.712250
10.833333	1	46.960750
10.850000	1	49.239000
10.866667	1	50.236875
10.883333	1	49.729125
10.900000	1	47.661875
10.916667	1	44.202375
10.933333	1	39.711125
10.950000	1	34.653125
10.966667	1	29.485125
10.983333	1	24.565625
11.000000	1	20.128625
11.016667	1	16.288500
11.033333	1	13.075125
11.050000	1	10.454000
11.066667	1	8.359750
11.083333	1	6.713500
11.100000	1	5.436625
11.116667	1	4.455000
11.133333	1	3.704625
11.150000	1	3.132250
11.166667	1	2.695875
11.183333	1	2.363500
11.200000	1	2.109250
11.216667	1	1.916125
11.233333	1	1.766875
11.250000	1	1.651750
11.266667	1	1.560750
11.283333	1	1.487250
11.300000	1	1.425750
11.316667	1	1.372750
11.333333	1	1.324250
11.350000	1	1.278750
11.366667	1	1.235125
11.383333	1	1.192875
11.400000	1	1.152500
11.416667	1	1.113000
11.433333	1	1.076250
11.450000	1	1.041750
11.466667	1	1.010625
11.483333	1	0.983750
11.500000	1	0.961000
11.516667	1	0.942625
11.533333	1	0.929250
11.550000	1	0.919500
11.566667	1	0.915125
11.583333	1	0.915125
11.600000	1	0.919875
11.616667	1	0.929000
11.633333	1	0.943750
11.650000	1	0.962000
11.666667	1	0.985000
11.683333	1	1.011875
11.700000	1	1.041250
11.716667	1	1.071500
11.733333	1	1.102875
11.750000	1	1.131500
11.766667	1	1.157125
11.783333	1	1.179000
11.800000	1	1.196125
11.816667	1	1.206375
11.833333	1	1.210750
11.850000	1	1.209000
11.866667	1	1.202250
11.883333	1	1.191000
11.900000	1	1.176000
11.916667	1	1.159000
11.933333	1	1.140875
11.950000	1	1.122500
11.966667	1	1.104750
11.983333	1	1.087625
12.000000	1	1.072375
12.016667	1	1.058750
12.033333	1	1.047375
12.050000	1	1.038000
12.066667	1	1.030750
12.083333	1	1.025625
12.100000	1	1.022875
12.116667	1	1.021250
12.133333	1	1.021500
12.150000	1	1.022750
12.166667	1	1.025750
12.183333	1	1.030625
12.200000	1	1.037250
12.216667	1	1.046875
12.233333	1	1.059625
12.250000	1	1.077500
12.266667	1	1.101250
12.283333	1	1.133500
12.300000	1	1.177375
12.316667	1	1.236875
12.333333	1	1.316875
12.350000	1	1.425375
12.366667	1	1.569625
12.383333	1	1.763375
12.400000	1	2.022500
12.416667	1	2.367250
12.433333	1	2.824000
12.450000	1	3.429250
12.466667	1	4.226500
12.483333	1	5.271250
12.500000	1	6.627750
12.516667	1	8.370625
12.533333	1	10.578500
12.550000	1	13.331500
12.566667	1	16.703875
12.583333	1	20.753375
12.600000	1	25.504000
12.616667	1	30.932250
12.633333	1	36.968625
12.650000	1	43.487625
12.666667	1	50.297125
12.683333	1	57.147125
12.700000	1	63.744375
12.716667	1	69.775125
12.733333	1	74.935625
12.750000	1	78.961500
12.766667	1	81.656375
12.783333	1	82.910000
12.800000	1	82.714625
12.816667	1	81.159250
12.833333	1	78.414625
12.850000	1	74.707000
12.866667	1	70.304750
12.883333	1	65.487875
12.900000	1	60.527625
12.916667	1	55.656875
12.933333	1	51.067625
12.950000	1	46.895250
12.966667	1	43.224250
12.983333	1	40.094250
13.000000	1	37.509750
13.016667	1	35.448375
13.033333	1	33.869125
13.050000	1	32.720625
13.066667	1	31.949625
13.083333	1	31.502875
13.100000	1	31.332125
13.116667	1	31.392875
13.133333	1	31.645750
13.150000	1	32.056500
13.166667	1	32.598625
13.183333	1	33.249875
13.200000	1	33.989625
13.216667	1	34.804875
13.233333	1	35.682625
13.250000	1	36.615750
13.266667	1	37.596375
13.283333	1	38.619625
13.300000	1	39.681125
13.316667	1	40.777625
13.333333	1	41.906500
13.350000	1	43.066000
13.366667	1	44.254750
13.383333	1	45.473625
13.400000	1	46.719625
13.416667	1	47.995000
13.433333	1	49.300125
13.450000	1	50.635000
13.466667	1	52.001125
13.483333	1	53.398375
13.500000	1	54.827125
13.516667	1	56.287625
13.533333	1	57.779750
13.550000	1	59.303000
13.566667	1	60.857500
13.583333	1	62.443500
13.600000	1	64.060500
13.616667	1	65.710375
13.633333	1	67.394125
13.650000	1	69.114000
13.666667	1	70.871125
13.683333	1	72.665000
13.700000	1	74.496250
13.716667	1	76.351500
13.733333	1	78.196125
13.750000	1	79.945875
13.766667	1	81.455750
13.783333	1	82.542250
13.800000	1	83.033875
13.816667	1	82.795250
13.833333	1	81.731375
13.850000	1	79.758375
13.866667	1	76.771750
13.883333	1	72.631125
13.900000	1	67.209000
13.916667	1	60.529375
13.933333	1	52.900875
13.950000	1	44.901125
13.966667	1	37.193125
13.983333	1	30.291750
14.000000	1	24.450500
14.016667	1	19.689625
14.033333	1	15.903625
14.050000	1	12.939375
14.066667	1	10.649000
14.083333	1	8.902375
14.100000	1	7.586500
14.116667	1	6.605875
14.133333	1	5.876750
14.150000	1	5.334125
14.166667	1	4.926000
14.183333	1	4.614375
14.200000	1	4.372625
14.216667	1	4.179875
14.233333	1	4.022375
14.250000	1	3.890000
14.266667	1	3.777250
14.283333	1	3.678875
14.300000	1	3.592125
14.316667	1	3.513625
14.333333	1	3.443250
14.350000	1	3.377625
14.366667	1	3.317500
14.383333	1	3.262500
14.400000	1	3.212000
14.416667	1	3.165125
14.433333	1	3.121750
14.450000	1	3.082000
14.466667	1	3.044500
14.483333	1	3.010250
14.500000	1	2.977750
14.516667	1	2.947625
14.533333	1	2.918875
14.550000	1	2.891625
14.566667	1	2.866000
14.583333	1	2.840750
14.600000	1	2.816625
14.616667	1	2.793375
14.633333	1	2.770875
14.650000	1	2.748250
14.666667	1	2.727125
14.683333	1	2.707375
14.700000	1	2.688750
14.716667	1	2.672500
14.733333	1	2.657625
14.750000	1	2.644625
14.766667	1	2.633625
14.783333	1	2.624875
14.800000	1	2.617750
14.816667	1	2.609875
14.833333	1	2.602625
14.850000	1	2.593250
14.866667	1	2.580875
14.883333	1	2.564500
14.900000	1	2.544500
14.916667	1	2.519000
14.933333	1	2.488625
14.950000	1	2.453125
14.966667	1	2.413250
14.983333	1	2.369125
15.000000	1	2.322125
15.016667	1	2.272750
15.033333	1	2.222875
15.050000	1	2.172375
15.066667	1	2.123125
15.083333	1	2.076000
15.100000	1	2.031125
15.116667	1	1.989500
15.133333	1	1.951250
15.150000	1	1.915125
15.166667	1	1.882000
15.183333	1	1.852375
15.200000	1	1.826125
15.216667	1	1.803375
15.233333	1	1.783375
15.250000	1	1.767125
15.266667	1	1.752250
15.283333	1	1.741000
15.300000	1	1.733875
15.316667	1	1.730625
15.333333	1	1.731500
15.350000	1	1.737625
15.366667	1	1.748000
15.383333	1	1.763500
15.400000	1	1.783625
15.416667	1	1.808875
15.433333	1	1.838625
15.450000	1	1.870875
15.466667	1	1.906625
15.483333	1	1.941375
15.500000	1	1.974500
15.516667	1	2.003750
15.533333	1	2.027750
15.550000	1	2.044000
15.566667	1	2.052375
15.583333	1	2.051500
15.600000	1	2.041500
15.616667	1	2.022125
15.633333	1	1.996875
15.650000	1	1.963375
15.666667	1	1.925000
15.683333	1	1.883375
15.700000	1	1.839375
15.716667	1	1.795625
15.733333	1	1.752875
15.750000	1	1.710500
15.766667	1	1.670000
15.783333	1	1.631750
15.800000	1	1.594750
15.816667	1	1.560625
15.833333	1	1.527500
15.850000	1	1.495125
15.866667	1	1.464500
15.883333	1	1.434375
15.900000	1	1.406000
15.916667	1	1.379500
15.933333	1	1.354625
15.950000	1	1.331875
15.966667	1	1.311375
15.983333	1	1.292125
16.000000	1	1.275875
16.016667	1	1.262750
16.033333	1	1.251250
16.050000	1	1.242875
16.066667	1	1.236000
16.083333	1	1.231000
16.100000	1	1.227625
16.116667	1	1.226250
16.133333	1	1.226250
16.150000	1	1.226750
16.166667	1	1.227375
16.183333	1	1.228125
16.200000	1	1.228875
16.216667	1	1.229875
16.233333	1	1.230500
16.250000	1	1.230625
16.266667	1	1.229875
16.283333	1	1.228000
16.300000	1	1.225750
16.316667	1	1.222375
16.333333	1	1.217750
16.350000	1	1.212000
16.366667	1	1.206125
16.383333	1	1.199500
16.400000	1	1.192500
16.416667	1	1.186250
16.433333	1	1.180750
16.450000	1	1.175125
16.466667	1	1.171375
16.483333	1	1.168375
16.500000	1	1.166750
16.516667	1	1.167375
16.533333	1	1.169875
16.550000	1	1.174500
16.566667	1	1.179750
16.583333	1	1.186375
16.600000	1	1.193375
16.616667	1	1.200625
16.633333	1	1.207500
16.650000	1	1.214750
16.666667	1	1.220750
16.683333	1	1.225750
16.700000	1	1.229625
16.716667	1	1.232000
16.733333	1	1.233375
16.750000	1	1.234375
16.766667	1	1.235625
16.783333	1	1.236250
16.800000	1	1.237375
16.816667	1	1.238000
16.833333	1	1.239875
16.850000	1	1.242125
16.866667	1	1.244750
16.883333	1	1.247875
16.900000	1	1.251125
16.916667	1	1.254250
16.933333	1	1.256875
16.950000	1	1.257375
16.966667	1	1.257750
16.983333	1	1.257125
17.000000	1	1.255375
17.016667	1	1.252625
17.033333	1	1.249500
17.050000	1	1.245250
17.066667	1	1.240750
17.083333	1	1.235875
17.100000	1	1.230875
17.116667	1	1.226250
17.133333	1	1.222750
17.150000	1	1.220000
17.166667	1	1.218500
17.183333	1	1.217875
17.200000	1	1.218375
17.216667	1	1.220375
17.233333	1	1.223125
17.250000	1	1.227750
17.266667	1	1.232750
17.283333	1	1.238875
17.300000	1	1.245500
17.316667	1	1.253625
17.333333	1	1.262000
17.350000	1	1.271250
17.366667	1	1.279875
17.383333	1	1.288375
17.400000	1	1.296375
17.416667	1	1.303750
17.433333	1	1.310125
17.450000	1	1.314750
17.466667	1	1.318000
17.483333	1	1.319750
17.500000	1	1.320000
17.516667	1	1.318625
17.533333	1	1.313625
17.550000	1	1.308250
17.566667	1	1.300500
17.583333	1	1.290500
17.600000	1	1.278875
17.616667	1	1.265500
17.633333	1	1.251125
17.650000	1	1.235375
17.666667	1	1.219750
17.683333	1	1.203125
17.700000	1	1.186250
17.716667	1	1.168750
17.733333	1	1.152250
17.750000	1	1.135000
17.766667	1	1.117625
17.783333	1	1.101250
17.800000	1	1.085250
17.816667	1	1.069250
17.833333	1	1.054000
17.850000	1	1.038250
17.866667	1	1.023625
17.883333	1	1.008875
17.900000	1	0.994750
17.916667	1	0.980250
17.933333	1	0.966250
17.950000	1	0.953375
17.966667	1	0.940625
17.983333	1	0.928875
18.000000	1	0.916625
18.016667	1	0.904000
18.033333	1	0.892000
18.050000	1	0.881125
18.066667	1	0.870375
18.083333	1	0.859375
18.100000	1	0.848750
18.116667	1	0.838375
18.133333	1	0.829000
18.150000	1	0.820250
18.166667	1	0.812000
18.183333	1	0.804875
18.200000	1	0.797875
18.216667	1	0.792500
18.233333	1	0.787500
18.250000	1	0.783375
18.266667	1	0.779625
18.283333	1	0.777000
18.300000	1	0.776250
18.316667	1	0.775250
18.333333	1	0.774750
18.350000	1	0.775125
18.366667	1	0.775875
18.383333	1	0.777125
18.400000	1	0.779125
18.416667	1	0.781125
18.433333	1	0.785000
18.450000	1	0.789125
18.466667	1	0.794875
18.483333	1	0.801000
18.500000	1	0.809250
18.516667	1	0.819125
18.533333	1	0.830625
18.550000	1	0.844125
18.566667	1	0.859750
18.583333	1	0.877875
18.600000	1	0.897125
18.616667	1	0.918625
18.633333	1	0.942750
18.650000	1	0.969625
18.666667	1	0.997375
18.683333	1	1.027750
18.700000	1	1.059375
18.716667	1	1.093000
18.733333	1	1.127750
18.750000	1	1.162750
18.766667	1	1.200250
18.783333	1	1.237250
18.800000	1	1.273875
18.816667	1	1.310000
18.833333	1	1.345125
18.850000	1	1.377875
18.866667	1	1.408250
18.883333	1	1.434625
18.900000	1	1.457500
18.916667	1	1.474375
18.933333	1	1.486000
18.950000	1	1.491500
18.966667	1	1.490125
18.983333	1	1.481500
19.000000	1	1.466125
19.016667	1	1.444000
19.033333	1	1.414500
19.050000	1	1.379125
19.066667	1	1.337750
19.083333	1	1.292500
19.100000	1	1.244250
19.116667	1	1.193000
19.133333	1	1.139375
19.150000	1	1.086625
19.166667	1	1.035000
19.183333	1	0.984375
19.200000	1	0.935625
19.216667	1	0.889875
19.233333	1	0.849375
19.250000	1	0.812875
19.266667	1	0.781500
19.283333	1	0.756000
19.300000	1	0.736125
19.316667	1	0.721000
19.333333	1	0.712000
19.350000	1	0.708750
19.366667	1	0.710750
19.383333	1	0.718250
19.400000	1	0.731250
19.416667	1	0.748375
19.433333	1	0.770500
19.450000	1	0.795625
19.466667	1	0.823375
19.483333	1	0.853125
19.500000	1	0.884500
19.516667	1	0.916375
19.533333	1	0.948000
19.550000	1	0.977125
19.566667	1	1.003875
19.583333	1	1.027250
19.600000	1	1.045500
19.616667	1	1.058250
19.633333	1	1.066125
19.650000	1	1.067500
19.666667	1	1.063000
19.683333	1	1.051750
19.700000	1	1.035625
19.716667	1	1.014125
19.733333	1	0.988125
19.750000	1	0.958750
19.766667	1	0.926875
19.783333	1	0.893500
19.800000	1	0.859250
19.816667	1	0.823875
19.833333	1	0.789500
19.850000	1	0.755000
19.866667	1	0.722000
19.883333	1	0.691500
19.900000	1	0.663750
19.916667	1	0.637750
19.933333	1	0.615125
19.950000	1	0.594875
19.966667	1	0.576250
19.983333	1	0.561125
20.000000	1	0.548250
20.016667	1	0.537625
20.033333	1	0.528875
20.050000	1	0.523125
20.066667	1	0.519125
20.083333	1	0.518125
20.100000	1	0.518875
20.116667	1	0.522875
20.133333	1	0.528500
20.150000	1	0.536750
20.166667	1	0.547250
20.183333	1	0.560000
20.200000	1	0.573250
20.216667	1	0.588875
20.233333	1	0.605375
20.250000	1	0.622000
20.266667	1	0.638750
20.283333	1	0.654750
20.300000	1	0.669875
20.316667	1	0.683125
20.333333	1	0.695500
20.350000	1	0.704500
20.366667	1	0.710250
20.383333	1	0.713125
20.400000	1	0.713625
20.416667	1	0.711000
20.433333	1	0.705250
20.450000	1	0.697875
20.466667	1	0.688500
20.483333	1	0.678875
20.500000	1	0.668500
20.516667	1	0.660000
20.533333	1	0.654250
20.550000	1	0.651000
20.566667	1	0.651375
20.583333	1	0.657000
20.600000	1	0.668750
20.616667	1	0.687250
20.633333	1	0.712875
20.650000	1	0.745750
20.666667	1	0.786875
20.683333	1	0.835375
20.700000	1	0.891125
20.716667	1	0.953750
20.733333	1	1.022000
20.750000	1	1.095625
20.766667	1	1.171625
20.783333	1	1.248250
20.800000	1	1.324125
20.816667	1	1.396625
20.833333	1	1.462750
20.850000	1	1.520750
20.866667	1	1.568750
20.883333	1	1.605250
20.900000	1	1.628375
20.916667	1	1.638000
20.933333	1	1.633375
20.950000	1	1.615000
20.966667	1	1.583500
20.983333	1	1.539250
21.000000	1	1.485250
21.016667	1	1.422375
21.033333	1	1.353750
21.050000	1	1.280000
21.066667	1	1.204750
21.083333	1	1.128875
21.100000	1	1.054500
21.116667	1	0.982250
21.133333	1	0.914125
21.150000	1	0.849750
21.166667	1	0.789875
21.183333	1	0.735750
21.200000	1	0.687500
21.216667	1	0.643625
21.233333	1	0.605250
21.250000	1	0.571375
21.266667	1	0.541500
21.283333	1	0.516250
21.300000	1	0.493875
21.316667	1	0.474625
21.333333	1	0.458750
21.350000	1	0.445375
21.366667	1	0.433125
21.383333	1	0.423000
21.400000	1	0.414250
21.416667	1	0.407375
21.433333	1	0.401500
21.450000	1	0.396375
21.466667	1	0.392625
21.483333	1	0.389625
21.500000	1	0.387625
21.516667	1	0.385875
21.533333	1	0.385500
21.550000	1	0.386625
21.566667	1	0.388750
21.583333	1	0.392750
21.600000	1	0.398625
21.616667	1	0.406125
21.633333	1	0.415250
21.650000	1	0.426750
21.666667	1	0.440875
21.683333	1	0.458000
21.700000	1	0.477625
21.716667	1	0.499250
21.733333	1	0.524500
21.750000	1	0.552625
21.766667	1	0.584125
21.783333	1	0.618625
21.800000	1	0.656250
21.816667	1	0.696500
21.833333	1	0.738875
21.850000	1	0.783375
21.866667	1	0.829625
21.883333	1	0.875875
21.900000	1	0.922250
21.916667	1	0.968000
21.933333	1	1.012000
21.950000	1	1.053125
21.966667	1	1.091000
21.983333	1	1.124250
22.000000	1	1.152750
22.016667	1	1.175375
22.033333	1	1.191625
22.050000	1	1.201500
22.066667	1	1.205750
22.083333	1	1.202500
22.100000	1	1.193125
22.116667	1	1.177750
22.133333	1	1.157625
22.150000	1	1.132000
22.166667	1	1.102250
22.183333	1	1.069125
22.200000	1	1.033125
22.216667	1	0.995625
22.233333	1	0.956000
22.250000	1	0.915250
22.266667	1	0.875375
22.283333	1	0.835500
22.300000	1	0.796125
22.316667	1	0.758875
22.333333	1	0.721875
22.350000	1	0.686250
22.366667	1	0.652750
22.383333	1	0.619875
22.400000	1	0.589125
22.416667	1	0.560250
22.433333	1	0.534000
22.450000	1	0.508875
22.466667	1	0.485125
22.483333	1	0.463750
22.500000	1	0.444375
22.516667	1	0.426000
22.533333	1	0.408625
22.550000	1	0.392750
22.566667	1	0.378750
22.583333	1	0.365125
22.600000	1	0.353000
22.616667	1	0.341875
22.633333	1	0.331750
22.650000	1	0.322375
22.666667	1	0.313500
22.683333	1	0.305375
22.700000	1	0.297625
22.716667	1	0.290750
22.733333	1	0.283375
22.750000	1	0.276500
22.766667	1	0.270000
22.783333	1	0.263625
22.800000	1	0.257250
22.816667	1	0.251375
22.833333	1	0.245875
22.850000	1	0.241125
22.866667	1	0.236625
22.883333	1	0.232500
22.900000	1	0.228375
22.916667	1	0.224875
22.933333	1	0.221500
22.950000	1	0.218750
22.966667	1	0.216625
22.983333	1	0.214500
23.000000	1	0.213125
23.016667	1	0.212250
23.033333	1	0.210750
23.050000	1	0.210250
23.066667	1	0.210750
23.083333	1	0.211375
23.100000	1	0.212500
23.116667	1	0.213625
23.133333	1	0.215875
23.150000	1	0.218000
23.166667	1	0.220250
23.183333	1	0.222875
23.200000	1	0.225625
23.216667	1	0.228625
23.233333	1	0.232375
23.250000	1	0.236875
23.266667	1	0.242625
23.283333	1	0.249000
23.300000	1	0.257625
23.316667	1	0.267625
23.333333	1	0.280250
23.350000	1	0.294875
23.366667	1	0.313375
23.383333	1	0.335250
23.400000	1	0.361875
23.416667	1	0.393750
23.433333	1	0.432125
23.450000	1	0.477875
23.466667	1	0.531750
23.483333	1	0.595875
23.500000	1	0.670750
23.516667	1	0.757375
23.533333	1	0.856500
23.550000	1	0.970250
23.566667	1	1.099000
23.583333	1	1.243500
23.600000	1	1.404375
23.616667	1	1.581625
23.633333	1	1.774750
23.650000	1	1.982625
23.666667	1	2.205250
23.683333	1	2.440625
23.700000	1	2.687250
23.716667	1	2.940250
23.733333	1	3.196375
23.750000	1	3.451875
23.766667	1	3.701000
23.783333	1	3.939250
23.800000	1	4.162250
23.816667	1	4.364500
23.833333	1	4.541750
23.850000	1	4.688750
23.866667	1	4.803250
23.883333	1	4.883750
23.900000	1	4.925875
23.916667	1	4.930750
23.933333	1	4.897875
23.950000	1	4.827125
23.966667	1	4.722875
23.983333	1	4.587500
24.000000	1	4.425125
24.016667	1	4.239375
24.033333	1	4.035750
24.050000	1	3.817750
24.066667	1	3.590875
24.083333	1	3.358375
24.100000	1	3.125250
24.116667	1	2.894125
24.133333	1	2.668000
24.150000	1	2.450250
24.166667	1	2.242625
24.183333	1	2.046875
24.200000	1	1.863125
24.216667	1	1.692875
24.233333	1	1.536625
24.250000	1	1.394750
24.266667	1	1.265125
24.283333	1	1.148000
24.300000	1	1.043625
24.316667	1	0.950500
24.333333	1	0.868000
24.350000	1	0.795375
24.366667	1	0.731875
24.383333	1	0.676625
24.400000	1	0.628875
24.416667	1	0.587750
24.433333	1	0.552500
24.450000	1	0.524125
24.466667	1	0.498750
24.483333	1	0.477375
24.500000	1	0.460250
24.516667	1	0.444625
24.533333	1	0.431500
24.550000	1	0.421125
24.566667	1	0.412000
24.583333	1	0.403500
24.600000	1	0.395000
24.616667	1	0.388125
24.633333	1	0.381125
24.650000	1	0.374375
24.666667	1	0.368125
24.683333	1	0.361625
24.700000	1	0.354375
24.716667	1	0.347125
24.733333	1	0.340000
24.750000	1	0.332250
24.766667	1	0.324375
24.783333	1	0.316500
24.800000	1	0.309375
24.816667	1	0.302375
24.833333	1	0.295250
24.850000	1	0.287000
24.866667	1	0.279625
24.883333	1	0.273000
24.900000	1	0.267000
24.916667	1	0.261375
24.933333	1	0.255375
24.950000	1	0.250000
24.966667	1	0.244375
24.983333	1	0.239750
25.000000	1	0.235125
25.016667	1	0.231125
25.033333	1	0.227250
25.050000	1	0.223500
25.066667	1	0.220125
25.083333	1	0.216750
25.100000	1	0.213875
25.116667	1	0.211500
25.133333	1	0.208750
25.150000	1	0.206625
25.166667	1	0.203750
25.183333	1	0.201375
25.200000	1	0.198500
25.216667	1	0.195500
25.233333	1	0.192875
25.250000	1	0.190875
25.266667	1	0.188625
25.283333	1	0.186750
25.300000	1	0.184750
25.316667	1	0.182750
25.333333	1	0.181250
25.350000	1	0.179375
25.366667	1	0.177500
25.383333	1	0.176125
25.400000	1	0.174375
25.416667	1	0.173500
25.433333	1	0.172500
25.450000	1	0.171250
25.466667	1	0.171500
25.483333	1	0.171125
25.500000	1	0.170625
25.516667	1	0.170500
25.533333	1	0.170500
25.550000	1	0.171250
25.566667	1	0.171250
25.583333	1	0.172000
25.600000	1	0.171625
25.616667	1	0.172375
25.633333	1	0.173250
25.650000	1	0.174125
25.666667	1	0.174625
25.683333	1	0.175000
25.700000	1	0.176000
25.716667	1	0.176375
25.733333	1	0.177375
25.750000	1	0.178250
25.766667	1	0.178750
25.783333	1	0.179500
25.800000	1	0.180250
25.816667	1	0.181750
25.833333	1	0.183250
25.850000	1	0.185125
25.866667	1	0.188000
25.883333	1	0.190000
25.900000	1	0.192625
25.916667	1	0.195875
25.933333	1	0.199375
25.950000	1	0.202625
25.966667	1	0.206250
25.983333	1	0.210500
26.000000	1	0.214500
26.016667	1	0.219125
26.033333	1	0.224250
26.050000	1	0.228875
26.066667	1	0.234750
26.083333	1	0.240250
26.100000	1	0.245625
26.116667	1	0.250625
26.133333	1	0.255375
26.150000	1	0.260625
26.166667	1	0.265250
26.183333	1	0.269875
26.200000	1	0.273125
26.216667	1	0.277000
26.233333	1	0.279625
26.250000	1	0.282000
26.266667	1	0.283500
26.283333	1	0.284375
26.300000	1	0.284625
26.316667	1	0.284250
26.333333	1	0.282625
26.350000	1	0.280375
26.366667	1	0.278000
26.383333	1	0.275125
26.400000	1	0.271000
26.416667	1	0.266375
26.433333	1	0.261500
26.450000	1	0.256250
26.466667	1	0.250750
26.483333	1	0.245375
26.500000	1	0.239000
26.516667	1	0.232125
26.533333	1	0.225375
26.550000	1	0.218875
26.566667	1	0.212125
26.583333	1	0.205375
26.600000	1	0.198625
26.616667	1	0.192375
26.633333	1	0.187000
26.650000	1	0.181375
26.666667	1	0.175250
26.683333	1	0.169250
26.700000	1	0.164000
26.716667	1	0.158875
26.733333	1	0.154750
26.750000	1	0.150375
26.766667	1	0.146875
26.783333	1	0.143625
26.800000	1	0.140500
26.816667	1	0.137500
26.833333	1	0.135375
26.850000	1	0.133250
26.866667	1	0.131750
26.883333	1	0.131000
26.900000	1	0.130125
26.916667	1	0.129625
26.933333	1	0.129875
26.950000	1	0.130500
26.966667	1	0.131375
26.983333	1	0.132750
27.000000	1	0.134625
27.016667	1	0.137250
27.033333	1	0.140750
27.050000	1	0.144875
27.066667	1	0.149625
27.083333	1	0.155500
27.100000	1	0.162375
27.116667	1	0.170000
27.133333	1	0.178500
27.150000	1	0.189375
27.166667	1	0.200750
27.183333	1	0.214125
27.200000	1	0.229250
27.216667	1	0.247000
27.233333	1	0.267750
27.250000	1	0.290500
27.266667	1	0.317000
27.283333	1	0.346625
27.300000	1	0.380500
27.316667	1	0.419250
27.333333	1	0.462125
27.350000	1	0.510625
27.366667	1	0.566125
27.383333	1	0.627250
27.400000	1	0.695875
27.416667	1	0.772875
27.433333	1	0.857625
27.450000	1	0.950250
27.466667	1	1.053750
27.483333	1	1.166500
27.500000	1	1.289000
27.516667	1	1.421375
27.533333	1	1.563375
27.550000	1	1.714750
27.566667	1	1.875000
27.583333	1	2.043125
27.600000	1	2.217750
27.616667	1	2.398625
27.633333	1	2.583875
27.650000	1	2.771250
27.666667	1	2.958750
27.683333	1	3.145875
27.700000	1	3.328625
27.716667	1	3.504375
27.733333	1	3.669750
27.750000	1	3.823125
27.766667	1	3.961750
27.783333	1	4.082500
27.800000	1	4.184750
27.816667	1	4.264625
27.833333	1	4.320750
27.850000	1	4.353000
27.866667	1	4.360000
27.883333	1	4.341125
27.900000	1	4.296750
27.916667	1	4.227500
27.933333	1	4.134375
27.950000	1	4.019375
27.966667	1	3.884375
27.983333	1	3.732500
28.000000	1	3.565375
28.016667	1	3.387625
28.033333	1	3.200875
28.050000	1	3.007250
28.066667	1	2.811000
28.083333	1	2.614625
28.100000	1	2.420125
28.116667	1	2.229875
28.133333	1	2.046375
28.150000	1	1.870500
28.166667	1	1.704250
28.183333	1	1.548375
28.200000	1	1.403000
28.216667	1	1.269125
28.233333	1	1.146125
28.250000	1	1.034375
28.266667	1	0.933500
28.283333	1	0.842250
28.300000	1	0.761750
28.316667	1	0.690250
28.333333	1	0.627625
28.350000	1	0.574500
28.366667	1	0.528000
28.383333	1	0.488250
28.400000	1	0.455125
28.416667	1	0.427375
28.433333	1	0.404750
28.450000	1	0.387250
28.466667	1	0.374375
28.483333	1	0.365250
28.500000	1	0.359000
28.516667	1	0.355375
28.533333	1	0.354625
28.550000	1	0.356000
28.566667	1	0.359875
28.583333	1	0.364375
28.600000	1	0.371500
28.616667	1	0.378750
28.633333	1	0.388000
28.650000	1	0.397000
28.666667	1	0.406500
28.683333	1	0.416125
28.700000	1	0.426500
28.716667	1	0.436375
28.733333	1	0.446875
28.750000	1	0.455500
28.766667	1	0.464375
28.783333	1	0.472125
28.800000	1	0.478750
28.816667	1	0.485250
28.833333	1	0.491125
28.850000	1	0.495125
28.866667	1	0.498250
28.883333	1	0.499875
28.900000	1	0.501250
28.916667	1	0.500375
28.933333	1	0.499000
28.950000	1	0.496000
28.966667	1	0.492000
28.983333	1	0.486750
29.000000	1	0.480500
29.016667	1	0.473250
29.033333	1	0.464500
29.050000	1	0.455875
29.066667	1	0.446000
29.083333	1	0.435250
29.100000	1	0.423875
29.116667	1	0.412125
29.133333	1	0.399000
29.150000	1	0.385875
29.166667	1	0.372000
29.183333	1	0.357875
29.200000	1	0.343500
29.216667	1	0.329625
29.233333	1	0.316500
29.250000	1	0.302500
29.266667	1	0.288625
29.283333	1	0.274750
29.300000	1	0.261125
29.316667	1	0.247750
29.333333	1	0.235250
29.350000	1	0.222375
29.366667	1	0.210000
29.383333	1	0.198375
29.400000	1	0.187125
29.416667	1	0.175875
29.433333	1	0.166000
29.450000	1	0.156625
29.466667	1	0.147500
29.483333	1	0.139000
29.500000	1	0.130750
29.516667	1	0.122625
29.533333	1	0.115000
29.550000	1	0.107750
29.566667	1	0.100750
29.583333	1	0.095250
29.600000	1	0.089875
29.616667	1	0.084500
29.633333	1	0.079500
29.650000	1	0.075000
29.666667	1	0.070750
29.683333	1	0.067125
29.700000	1	0.063500
29.716667	1	0.060250
29.733333	1	0.057250
29.750000	1	0.054000
29.766667	1	0.051875
29.783333	1	0.049250
29.800000	1	0.047625
29.816667	1	0.046000
29.833333	1	0.044875
29.850000	1	0.044250
29.866667	1	0.042625
29.883333	1	0.041000
29.900000	1	0.039750
29.916667	1	0.038500
29.933333	1	0.037125
29.950000	1	0.036000
29.966667	1	0.035250
29.983333	1	0.034625
30.000000	1	0.034875
30.016667	1	0.034125
30.033333	1	0.033375
30.050000	1	0.032750
30.066667	1	0.032375
30.083333	1	0.031125
30.100000	1	0.030625
30.116667	1	0.030500
30.133333	1	0.029375
30.150000	1	0.029000
30.166667	1	0.028375
30.183333	1	0.028375
30.200000	1	0.028125
30.216667	1	0.027625
30.233333	1	0.027750
30.250000	1	0.026875
30.266667	1	0.026875
30.283333	1	0.026500
30.300000	1	0.026875
30.316667	1	0.027375
30.333333	1	0.027625
30.350000	1	0.028375
30.366667	1	0.028875
30.383333	1	0.030000
30.400000	1	0.032750
30.416667	1	0.034000
30.433333	1	0.036625
30.450000	1	0.039000
30.466667	1	0.040500
30.483333	1	0.043750
30.500000	1	0.047125
30.516667	1	0.050750
30.533333	1	0.054625
30.550000	1	0.058625
30.566667	1	0.063625
30.583333	1	0.068875
30.600000	1	0.074375
30.616667	1	0.081125
30.633333	1	0.087625
30.650000	1	0.094250
30.666667	1	0.101625
30.683333	1	0.109250
30.700000	1	0.117500
30.716667	1	0.125750
30.733333	1	0.134625
30.750000	1	0.143875
30.766667	1	0.153625
30.783333	1	0.163375
30.800000	1	0.174125
30.816667	1	0.184875
30.833333	1	0.196125
30.850000	1	0.207500
30.866667	1	0.219500
30.883333	1	0.231375
30.900000	1	0.244250
30.916667	1	0.257375
30.933333	1	0.271000
30.950000	1	0.285875
30.966667	1	0.301125
30.983333	1	0.317500
31.000000	1	0.335875
31.016667	1	0.354875
31.033333	1	0.374875
31.050000	1	0.396750
31.066667	1	0.419750
31.083333	1	0.444500
31.100000	1	0.470500
31.116667	1	0.498500
31.133333	1	0.528500
31.150000	1	0.560250
31.166667	1	0.594750
31.183333	1	0.630750
31.200000	1	0.668375
31.216667	1	0.708375
31.233333	1	0.749250
31.250000	1	0.791625
31.266667	1	0.835000
31.283333	1	0.879875
31.300000	1	0.924000
31.316667	1	0.968625
31.333333	1	1.012375
31.350000	1	1.056000
31.366667	1	1.098125
31.383333	1	1.138625
31.400000	1	1.176250
31.416667	1	1.210875
31.433333	1	1.242375
31.450000	1	1.269625
31.466667	1	1.292750
31.483333	1	1.310875
31.500000	1	1.324750
31.516667	1	1.333125
31.533333	1	1.335875
31.550000	1	1.332500
31.566667	1	1.324375
31.583333	1	1.311250
31.600000	1	1.293000
31.616667	1	1.269375
31.633333	1	1.241375
31.650000	1	1.208875
31.666667	1	1.172250
31.683333	1	1.132125
31.700000	1	1.090000
31.716667	1	1.045375
31.733333	1	0.999625
31.750000	1	0.952875
31.766667	1	0.906375
31.783333	1	0.858750
31.800000	1	0.811500
31.816667	1	0.764875
31.833333	1	0.719625
31.850000	1	0.675500
31.866667	1	0.633125
31.883333	1	0.592625
31.900000	1	0.554875
31.916667	1	0.519750
31.933333	1	0.486625
31.950000	1	0.455750
31.966667	1	0.427375
31.983333	1	0.401000
32.000000	1	0.376625
32.016667	1	0.354875
32.033333	1	0.334375
32.050000	1	0.316125
32.066667	1	0.300125
32.083333	1	0.284750
32.100000	1	0.270625
32.116667	1	0.257375
32.133333	1	0.245750
32.150000	1	0.234250
32.166667	1	0.223375
32.183333	1	0.213125
32.200000	1	0.203375
32.216667	1	0.193625
32.233333	1	0.184250
32.250000	1	0.174750
32.266667	1	0.165500
32.283333	1	0.156375
32.300000	1	0.146750
32.316667	1	0.137250
32.333333	1	0.128250
32.350000	1	0.119375
32.366667	1	0.110000
32.383333	1	0.100750
32.400000	1	0.091875
32.416667	1	0.082875
32.433333	1	0.074000
32.450000	1	0.065375
32.466667	1	0.056750
32.483333	1	0.048125
32.500000	1	0.040000
32.516667	1	0.031625
32.533333	1	0.022750
32.550000	1	0.015875
32.566667	1	0.009250
32.583333	1	0.003750
32.600000	1	-0.002250
32.616667	1	-0.008250
32.633333	1	-0.013875
32.650000	1	-0.019000
32.666667	1	-0.023000
32.683333	1	-0.027500
32.700000	1	-0.031625
32.716667	1	-0.035500
32.733333	1	-0.039625
32.750000	1	-0.041875
32.766667	1	-0.044625
32.783333	1	-0.047500
32.800000	1	-0.050250
32.816667	1	-0.052875
32.833333	1	-0.055375
32.850000	1	-0.057125
32.866667	1	-0.059500
32.883333	1	-0.062000
32.900000	1	-0.063750
32.916667	1	-0.065125
32.933333	1	-0.066750
32.950000	1	-0.068250
32.966667	1	-0.069250
32.983333	1	-0.070875
33.000000	1	-0.071875
33.016667	1	-0.073000
33.033333	1	-0.074000
33.050000	1	-0.074000
33.066667	1	-0.074000
33.083333	1	-0.073875
33.100000	1	-0.074500
33.116667	1	-0.073250
33.133333	1	-0.072875
33.150000	1	-0.071000
33.166667	1	-0.068875
33.183333	1	-0.066500
33.200000	1	-0.063750
33.216667	1	-0.060500
33.233333	1	-0.056375
33.250000	1	-0.051875
33.266667	1	-0.047000
33.283333	1	-0.041500
33.300000	1	-0.035000
33.316667	1	-0.028500
33.333333	1	-0.020250
33.350000	1	-0.011000
33.366667	1	-0.000750
33.383333	1	0.009625
33.400000	1	0.020750
33.416667	1	0.033875
33.433333	1	0.047375
33.450000	1	0.062750
33.466667	1	0.079875
33.483333	1	0.097625
33.500000	1	0.117500
33.516667	1	0.139250
33.533333	1	0.163500
33.550000	1	0.188125
33.566667	1	0.214875
33.583333	1	0.244000
33.600000	1	0.274625
33.616667	1	0.308000
33.633333	1	0.343500
33.650000	1	0.380625
33.666667	1	0.420375
33.683333	1	0.461375
33.700000	1	0.504500
33.716667	1	0.548875
33.733333	1	0.595375
33.750000	1	0.642500
33.766667	1	0.690875
33.783333	1	0.740125
33.800000	1	0.789875
33.816667	1	0.839125
33.833333	1	0.888250
33.850000	1	0.937250
33.866667	1	0.984750
33.883333	1	1.030750
33.900000	1	1.075500
33.916667	1	1.116875
33.933333	1	1.155625
33.950000	1	1.190750
33.966667	1	1.222125
33.983333	1	1.249750
34.000000	1	1.272000
34.016667	1	1.291000
34.033333	1	1.304875
34.050000	1	1.313250
34.066667	1	1.317250
34.083333	1	1.315250
34.100000	1	1.308500
34.116667	1	1.297625
34.133333	1	1.281750
34.150000	1	1.261375
34.166667	1	1.236875
34.183333	1	1.208375
34.200000	1	1.176625
34.216667	1	1.141625
34.233333	1	1.104250
34.250000	1	1.064125
34.266667	1	1.022250
34.283333	1	0.979125
34.300000	1	0.934500
34.316667	1	0.890125
34.333333	1	0.845250
34.350000	1	0.800250
34.366667	1	0.755750
34.383333	1	0.711750
34.400000	1	0.669375
34.416667	1	0.627125
34.433333	1	0.586500
34.450000	1	0.547125
34.466667	1	0.509750
34.483333	1	0.474250
34.500000	1	0.441250
34.516667	1	0.410125
34.533333	1	0.381125
34.550000	1	0.353500
34.566667	1	0.327250
34.583333	1	0.303125
34.600000	1	0.280500
34.616667	1	0.259625
34.633333	1	0.240875
34.650000	1	0.223375
34.666667	1	0.206875
34.683333	1	0.192250
34.700000	1	0.178500
34.716667	1	0.166250
34.733333	1	0.155000
34.750000	1	0.144750
34.766667	1	0.135500
34.783333	1	0.126375
34.800000	1	0.118875
34.816667	1	0.111750
34.833333	1	0.105250
34.850000	1	0.099250
34.866667	1	0.093625
34.883333	1	0.088750
34.900000	1	0.085125
34.916667	1	0.081125
34.933333	1	0.078000
34.950000	1	0.075375
34.966667	1	0.073125
34.983333	1	0.071000
35.000000	1	0.069250
35.016667	1	0.067000
35.033333	1	0.065250
35.050000	1	0.063500
35.066667	1	0.062875
35.083333	1	0.061750
35.100000	1	0.060875
35.116667	1	0.061125
35.133333	1	0.061000
35.150000	1	0.060500
35.166667	1	0.061125
35.183333	1	0.060875
35.200000	1	0.061125
35.216667	1	0.061125
35.233333	1	0.061250
35.250000	1	0.061500
35.266667	1	0.062500
35.283333	1	0.063250
35.300000	1	0.064875
35.316667	1	0.065750
35.333333	1	0.066125
35.350000	1	0.068000
35.366667	1	0.069125
35.383333	1	0.070500
35.400000	1	0.071875
35.416667	1	0.072500
35.433333	1	0.074125
35.450000	1	0.075500
35.466667	1	0.077000
35.483333	1	0.078250
35.500000	1	0.079875
35.516667	1	0.081750
35.533333	1	0.083375
35.550000	1	0.085000
35.566667	1	0.086375
35.583333	1	0.088125
35.600000	1	0.089375
35.616667	1	0.090625
35.633333	1	0.091500
35.650000	1	0.093250
35.666667	1	0.094875
35.683333	1	0.095500
35.700000	1	0.097125
35.716667	1	0.098000
35.733333	1	0.099875
35.750000	1	0.101125
35.766667	1	0.101875
35.783333	1	0.102875
35.800000	1	0.103875
35.816667	1	0.104375
35.833333	1	0.104250
35.850000	1	0.104750
35.866667	1	0.104750
35.883333	1	0.105375
35.900000	1	0.106250
35.916667	1	0.106125
35.933333	1	0.106000
35.950000	1	0.106250
35.966667	1	0.106000
35.983333	1	0.105750
36.000000	1	0.105125
36.016667	1	0.104875
36.033333	1	0.103875
36.050000	1	0.102875
36.066667	1	0.102625
36.083333	1	0.101875
36.100000	1	0.100875
36.116667	1	0.099625
36.133333	1	0.098750
36.150000	1	0.097500
36.166667	1	0.097000
36.183333	1	0.096500
36.200000	1	0.094625
36.216667	1	0.093250
36.233333	1	0.092125
36.250000	1	0.091375
36.266667	1	0.090625
36.283333	1	0.089500
36.300000	1	0.088875
36.316667	1	0.087875
36.333333	1	0.087125
36.350000	1	0.086000
36.366667	1	0.084875
36.383333	1	0.084125
36.400000	1	0.083250
36.416667	1	0.082375
36.433333	1	0.081750
36.450000	1	0.080750
36.466667	1	0.079875
36.483333	1	0.078375
36.500000	1	0.077375
36.516667	1	0.076375
36.533333	1	0.075125
36.550000	1	0.073875
36.566667	1	0.073125
36.583333	1	0.071375
36.600000	1	0.069875
36.616667	1	0.068500
36.633333	1	0.066750
36.650000	1	0.065250
36.666667	1	0.063875
36.683333	1	0.062250
36.700000	1	0.060875
36.716667	1	0.059500
36.733333	1	0.057625
36.750000	1	0.056250
36.766667	1	0.054375
36.783333	1	0.052375
36.800000	1	0.050500
36.816667	1	0.049000
36.833333	1	0.047250
36.850000	1	0.047000
36.866667	1	0.046125
36.883333	1	0.045625
36.900000	1	0.045250
36.916667	1	0.044250
36.933333	1	0.044375
36.950000	1	0.044250
36.966667	1	0.044500
36.983333	1	0.043875
37.000000	1	0.044625
37.016667	1	0.045375
37.033333	1	0.046375
37.050000	1	0.046625
37.066667	1	0.048250
37.083333	1	0.049125
37.100000	1	0.050875
37.116667	1	0.052000
37.133333	1	0.053500
37.150000	1	0.054625
37.166667	1	0.056000
37.183333	1	0.057750
37.200000	1	0.058875
37.216667	1	0.060125
37.233333	1	0.061500
37.250000	1	0.062750
37.266667	1	0.064125
37.283333	1	0.064875
37.300000	1	0.066500
37.316667	1	0.067000
37.333333	1	0.067000
37.350000	1	0.066750
37.366667	1	0.067000
37.383333	1	0.066625
37.400000	1	0.066375
37.416667	1	0.065500
37.433333	1	0.064750
37.450000	1	0.063750
37.466667	1	0.062750
37.483333	1	0.061250
37.500000	1	0.060125
37.516667	1	0.058625
37.533333	1	0.057250
37.550000	1	0.055125
37.566667	1	0.053500
37.583333	1	0.051750
37.600000	1	0.049750
37.616667	1	0.047375
37.633333	1	0.045750
37.650000	1	0.043500
37.666667	1	0.041375
37.683333	1	0.039000
37.700000	1	0.037125
37.716667	1	0.035250
37.733333	1	0.033250
37.750000	1	0.031500
37.766667	1	0.029500
37.783333	1	0.027750
37.800000	1	0.025875
37.816667	1	0.024625
37.833333	1	0.023000
37.850000	1	0.021750
37.866667	1	0.019625
37.883333	1	0.017875
37.900000	1	0.017250
37.916667	1	0.015625
37.933333	1	0.014125
37.950000	1	0.012625
37.966667	1	0.011375
37.983333	1	0.010250
38.000000	1	0.009000
38.016667	1	0.007500
38.033333	1	0.006375
38.050000	1	0.005500
38.066667	1	0.004375
38.083333	1	0.003875
38.100000	1	0.003125
38.116667	1	0.001875
38.133333	1	0.001750
38.150000	1	0.000625
38.166667	1	0.000125
38.183333	1	0.000000
38.200000	1	-0.000125
38.216667	1	-0.000125
38.233333	1	-0.000875
38.250000	1	-0.001375
38.266667	1	-0.001375
38.283333	1	-0.001000
38.300000	1	-0.001250
38.316667	1	-0.001125
38.333333	1	-0.001500
38.350000	1	-0.001125
38.366667	1	-0.000625
38.383333	1	-0.000375
38.400000	1	-0.000375
38.416667	1	-0.000250
38.433333	1	0.000000
38.450000	1	0.000375
38.466667	1	0.000625
38.483333	1	0.000875
38.500000	1	0.001125
38.516667	1	0.001250
38.533333	1	0.001875
38.550000	1	0.002375
38.566667	1	0.002500
38.583333	1	0.002375
38.600000	1	0.002750
38.616667	1	0.003000
38.633333	1	0.004375
38.650000	1	0.005000
38.666667	1	0.005500
38.683333	1	0.006125
38.700000	1	0.006875
38.716667	1	0.007500
38.733333	1	0.008375
38.750000	1	0.009625
38.766667	1	0.010625
38.783333	1	0.011125
38.800000	1	0.012375
38.816667	1	0.014000
38.833333	1	0.015375
38.850000	1	0.016250
38.866667	1	0.017500
38.883333	1	0.018875
38.900000	1	0.019750
38.916667	1	0.021000
38.933333	1	0.022500
38.950000	1	0.023375
38.966667	1	0.024875
38.983333	1	0.025875
39.000000	1	0.026250
39.016667	1	0.027250
39.033333	1	0.028250
39.050000	1	0.029250
39.066667	1	0.029875
39.083333	1	0.030375
39.100000	1	0.030500
39.116667	1	0.030750
39.133333	1	0.031375
39.150000	1	0.030250
39.166667	1	0.030750
39.183333	1	0.030000
39.200000	1	0.029375
39.216667	1	0.028750
39.233333	1	0.027875
39.250000	1	0.026750
39.266667	1	0.025125
39.283333	1	0.023750
39.300000	1	0.022750
39.316667	1	0.021250
39.333333	1	0.020125
39.350000	1	0.018625
39.366667	1	0.017500
39.383333	1	0.016125
39.400000	1	0.015000
39.416667	1	0.012750
39.433333	1	0.010875
39.450000	1	0.009000
39.466667	1	0.008000
39.483333	1	0.006875
39.500000	1	0.006250
39.516667	1	0.005625
39.533333	1	0.004500
39.550000	1	0.003000
39.566667	1	0.001875
39.583333	1	0.001125
39.600000	1	-0.000250
39.616667	1	-0.000875
39.633333	1	-0.001375
39.650000	1	-0.002125
39.666667	1	-0.002750
39.683333	1	-0.003125
39.700000	1	-0.003500
39.716667	1	-0.004625
39.733333	1	-0.004375
39.750000	1	-0.005000
39.766667	1	-0.005125
39.783333	1	-0.005000
39.800000	1	-0.004625
39.816667	1	-0.004375
39.833333	1	-0.004375
39.850000	1	-0.004500
39.866667	1	-0.003875
39.883333	1	-0.003625
39.900000	1	-0.003250
39.916667	1	-0.003125
39.933333	1	-0.002375
39.950000	1	-0.002125
39.966667	1	-0.001500
39.983333	1	-0.001000
40.000000	1	-0.000250
