URL	chrom://bioreactor/micro_cm7/HPLC_Ultimate_3000/Users/markusar/20240708_MA_pHrange1.seq/661.smp/RI_1.channel/RI_1.chm
Channel	RI_1

Injection Information:
Data Vault	micro_cm7
Sequence	20240708_MA_pHrange1
Name	Fp3_6.5_3
Number	57
Position	BE11
Comment	
Processing Method	
Instrument Method	run_25B_method
Type	Unknown
Status	Finished
Inject Time	10.07.2024 05:48:58 +02:00
Volume (µl)	20.0000
Dilution Factor	1.0000
Weight	1.0000

Chromatogram Data Information:
Time Min. (min)	0.000000
Time Max. (min)	40.000000
Data Points	2401
Detector	RI
Generating Data System	Chromeleon 7.3.2.11814
Exporting Data System	Chromeleon 7.3.2.0
Operator	Instrument Controller
Signal Quantity	Refractive 
Signal Unit	µRIU
Signal Min.	-0.058375
Signal Max.	82.647000
Channel	RI_1
Driver Name	RID520Driver.dll
Channel Type	Evaluation
Min. Step (s)	1
Max. Step (s)	1
Average Step (s)	1

Signal Parameter Information:
Signal Info	

Chromatogram Data:
Time (min)	Step (s)	Value (µRIU)
0.000000	n.a.	0.008125
0.016667	1	0.007250
0.033333	1	0.005625
0.050000	1	0.004500
0.066667	1	0.003375
0.083333	1	0.002750
0.100000	1	0.002500
0.116667	1	0.001625
0.133333	1	0.000000
0.150000	1	-0.001000
0.166667	1	-0.002375
0.183333	1	-0.004000
0.200000	1	-0.005250
0.216667	1	-0.006875
0.233333	1	-0.007750
0.250000	1	-0.009375
0.266667	1	-0.009875
0.283333	1	-0.011125
0.300000	1	-0.012000
0.316667	1	-0.012625
0.333333	1	-0.013125
0.350000	1	-0.014500
0.366667	1	-0.015750
0.383333	1	-0.017500
0.400000	1	-0.018000
0.416667	1	-0.018250
0.433333	1	-0.017375
0.450000	1	-0.016125
0.466667	1	-0.015000
0.483333	1	-0.013250
0.500000	1	-0.012250
0.516667	1	-0.011375
0.533333	1	-0.011875
0.550000	1	-0.012000
0.566667	1	-0.012250
0.583333	1	-0.013875
0.600000	1	-0.015625
0.616667	1	-0.017625
0.633333	1	-0.019125
0.650000	1	-0.020000
0.666667	1	-0.020875
0.683333	1	-0.021250
0.700000	1	-0.021750
0.716667	1	-0.022250
0.733333	1	-0.022250
0.750000	1	-0.021875
0.766667	1	-0.021125
0.783333	1	-0.021750
0.800000	1	-0.022125
0.816667	1	-0.021750
0.833333	1	-0.021625
0.850000	1	-0.021500
0.866667	1	-0.021375
0.883333	1	-0.021125
0.900000	1	-0.020500
0.916667	1	-0.020125
0.933333	1	-0.020125
0.950000	1	-0.020000
0.966667	1	-0.019875
0.983333	1	-0.020000
1.000000	1	-0.019625
1.016667	1	-0.019500
1.033333	1	-0.019375
1.050000	1	-0.019250
1.066667	1	-0.019625
1.083333	1	-0.019375
1.100000	1	-0.019125
1.116667	1	-0.019250
1.133333	1	-0.018625
1.150000	1	-0.018250
1.166667	1	-0.018250
1.183333	1	-0.017875
1.200000	1	-0.017625
1.216667	1	-0.017750
1.233333	1	-0.018125
1.250000	1	-0.017500
1.266667	1	-0.017125
1.283333	1	-0.016500
1.300000	1	-0.016750
1.316667	1	-0.016625
1.333333	1	-0.016750
1.350000	1	-0.016125
1.366667	1	-0.016375
1.383333	1	-0.016250
1.400000	1	-0.016250
1.416667	1	-0.016125
1.433333	1	-0.015875
1.450000	1	-0.015625
1.466667	1	-0.015625
1.483333	1	-0.015625
1.500000	1	-0.015875
1.516667	1	-0.016500
1.533333	1	-0.016500
1.550000	1	-0.016875
1.566667	1	-0.017250
1.583333	1	-0.017250
1.600000	1	-0.017500
1.616667	1	-0.017375
1.633333	1	-0.016750
1.650000	1	-0.016500
1.666667	1	-0.017000
1.683333	1	-0.017750
1.700000	1	-0.018125
1.716667	1	-0.019625
1.733333	1	-0.020000
1.750000	1	-0.020375
1.766667	1	-0.020875
1.783333	1	-0.021000
1.800000	1	-0.021125
1.816667	1	-0.021125
1.833333	1	-0.020750
1.850000	1	-0.021125
1.866667	1	-0.022000
1.883333	1	-0.022375
1.900000	1	-0.023500
1.916667	1	-0.024500
1.933333	1	-0.024500
1.950000	1	-0.025500
1.966667	1	-0.025875
1.983333	1	-0.026500
2.000000	1	-0.027375
2.016667	1	-0.027500
2.033333	1	-0.028875
2.050000	1	-0.030125
2.066667	1	-0.030875
2.083333	1	-0.031125
2.100000	1	-0.031625
2.116667	1	-0.032750
2.133333	1	-0.033250
2.150000	1	-0.034750
2.166667	1	-0.036125
2.183333	1	-0.037000
2.200000	1	-0.038250
2.216667	1	-0.040000
2.233333	1	-0.041000
2.250000	1	-0.041625
2.266667	1	-0.042500
2.283333	1	-0.043250
2.300000	1	-0.044500
2.316667	1	-0.046000
2.333333	1	-0.047375
2.350000	1	-0.048500
2.366667	1	-0.049375
2.383333	1	-0.051000
2.400000	1	-0.052125
2.416667	1	-0.052625
2.433333	1	-0.053250
2.450000	1	-0.054000
2.466667	1	-0.054750
2.483333	1	-0.055875
2.500000	1	-0.056375
2.516667	1	-0.056875
2.533333	1	-0.057000
2.550000	1	-0.057125
2.566667	1	-0.057500
2.583333	1	-0.058250
2.600000	1	-0.058125
2.616667	1	-0.058375
2.633333	1	-0.058000
2.650000	1	-0.057750
2.666667	1	-0.057500
2.683333	1	-0.056875
2.700000	1	-0.056625
2.716667	1	-0.056375
2.733333	1	-0.055500
2.750000	1	-0.054750
2.766667	1	-0.054500
2.783333	1	-0.053625
2.800000	1	-0.053125
2.816667	1	-0.052125
2.833333	1	-0.051500
2.850000	1	-0.049875
2.866667	1	-0.048875
2.883333	1	-0.047125
2.900000	1	-0.045750
2.916667	1	-0.044625
2.933333	1	-0.043625
2.950000	1	-0.041750
2.966667	1	-0.039750
2.983333	1	-0.037750
3.000000	1	-0.035500
3.016667	1	-0.033500
3.033333	1	-0.031250
3.050000	1	-0.029500
3.066667	1	-0.027375
3.083333	1	-0.026000
3.100000	1	-0.024875
3.116667	1	-0.023125
3.133333	1	-0.021250
3.150000	1	-0.018875
3.166667	1	-0.016500
3.183333	1	-0.014500
3.200000	1	-0.012375
3.216667	1	-0.010750
3.233333	1	-0.008250
3.250000	1	-0.005625
3.266667	1	-0.003750
3.283333	1	-0.001625
3.300000	1	0.000750
3.316667	1	0.002875
3.333333	1	0.005125
3.350000	1	0.007625
3.366667	1	0.009500
3.383333	1	0.012750
3.400000	1	0.015625
3.416667	1	0.017750
3.433333	1	0.020375
3.450000	1	0.022500
3.466667	1	0.025125
3.483333	1	0.027375
3.500000	1	0.029375
3.516667	1	0.031250
3.533333	1	0.032875
3.550000	1	0.035250
3.566667	1	0.037875
3.583333	1	0.040250
3.600000	1	0.041750
3.616667	1	0.043875
3.633333	1	0.046250
3.650000	1	0.048375
3.666667	1	0.050125
3.683333	1	0.052250
3.700000	1	0.053750
3.716667	1	0.055375
3.733333	1	0.057625
3.750000	1	0.059250
3.766667	1	0.060875
3.783333	1	0.063000
3.800000	1	0.064750
3.816667	1	0.065875
3.833333	1	0.067125
3.850000	1	0.068750
3.866667	1	0.069750
3.883333	1	0.071000
3.900000	1	0.072625
3.916667	1	0.073000
3.933333	1	0.074250
3.950000	1	0.075375
3.966667	1	0.075875
3.983333	1	0.077125
4.000000	1	0.077875
4.016667	1	0.079125
4.033333	1	0.080000
4.050000	1	0.080125
4.066667	1	0.080625
4.083333	1	0.082000
4.100000	1	0.082625
4.116667	1	0.083500
4.133333	1	0.083875
4.150000	1	0.084625
4.166667	1	0.085625
4.183333	1	0.087125
4.200000	1	0.088125
4.216667	1	0.089375
4.233333	1	0.091500
4.250000	1	0.092125
4.266667	1	0.092875
4.283333	1	0.092875
4.300000	1	0.094125
4.316667	1	0.095500
4.333333	1	0.096375
4.350000	1	0.097375
4.366667	1	0.098625
4.383333	1	0.100000
4.400000	1	0.101375
4.416667	1	0.102125
4.433333	1	0.103125
4.450000	1	0.103875
4.466667	1	0.104000
4.483333	1	0.104875
4.500000	1	0.105375
4.516667	1	0.105375
4.533333	1	0.105750
4.550000	1	0.106250
4.566667	1	0.106625
4.583333	1	0.106500
4.600000	1	0.106750
4.616667	1	0.106750
4.633333	1	0.107125
4.650000	1	0.107500
4.666667	1	0.108000
4.683333	1	0.108125
4.700000	1	0.108000
4.716667	1	0.108375
4.733333	1	0.108375
4.750000	1	0.108625
4.766667	1	0.109375
4.783333	1	0.110000
4.800000	1	0.110750
4.816667	1	0.112250
4.833333	1	0.113125
4.850000	1	0.114250
4.866667	1	0.115500
4.883333	1	0.117375
4.900000	1	0.118500
4.916667	1	0.120625
4.933333	1	0.122875
4.950000	1	0.124625
4.966667	1	0.127250
4.983333	1	0.130250
5.000000	1	0.133000
5.016667	1	0.135625
5.033333	1	0.139125
5.050000	1	0.142375
5.066667	1	0.146000
5.083333	1	0.149625
5.100000	1	0.153500
5.116667	1	0.156750
5.133333	1	0.160625
5.150000	1	0.164000
5.166667	1	0.167625
5.183333	1	0.171000
5.200000	1	0.175250
5.216667	1	0.179375
5.233333	1	0.183000
5.250000	1	0.185875
5.266667	1	0.189125
5.283333	1	0.192000
5.300000	1	0.195125
5.316667	1	0.198000
5.333333	1	0.200875
5.350000	1	0.203375
5.366667	1	0.205250
5.383333	1	0.206875
5.400000	1	0.208875
5.416667	1	0.210250
5.433333	1	0.211875
5.450000	1	0.212625
5.466667	1	0.213000
5.483333	1	0.212750
5.500000	1	0.212625
5.516667	1	0.212250
5.533333	1	0.212500
5.550000	1	0.211625
5.566667	1	0.210750
5.583333	1	0.209750
5.600000	1	0.208500
5.616667	1	0.208000
5.633333	1	0.205750
5.650000	1	0.204250
5.666667	1	0.202000
5.683333	1	0.200000
5.700000	1	0.197500
5.716667	1	0.194625
5.733333	1	0.192125
5.750000	1	0.189625
5.766667	1	0.187375
5.783333	1	0.184375
5.800000	1	0.181875
5.816667	1	0.179375
5.833333	1	0.176875
5.850000	1	0.174250
5.866667	1	0.170875
5.883333	1	0.167625
5.900000	1	0.164875
5.916667	1	0.161625
5.933333	1	0.158750
5.950000	1	0.155875
5.966667	1	0.152000
5.983333	1	0.149000
6.000000	1	0.146125
6.016667	1	0.143125
6.033333	1	0.140000
6.050000	1	0.137250
6.066667	1	0.134500
6.083333	1	0.131250
6.100000	1	0.128500
6.116667	1	0.125625
6.133333	1	0.122750
6.150000	1	0.119625
6.166667	1	0.117000
6.183333	1	0.114875
6.200000	1	0.112250
6.216667	1	0.110250
6.233333	1	0.107500
6.250000	1	0.105375
6.266667	1	0.103000
6.283333	1	0.101000
6.300000	1	0.099000
6.316667	1	0.097125
6.333333	1	0.094875
6.350000	1	0.092875
6.366667	1	0.091125
6.383333	1	0.089250
6.400000	1	0.088000
6.416667	1	0.086500
6.433333	1	0.085500
6.450000	1	0.084500
6.466667	1	0.083375
6.483333	1	0.082750
6.500000	1	0.082250
6.516667	1	0.081375
6.533333	1	0.081500
6.550000	1	0.081250
6.566667	1	0.081875
6.583333	1	0.082250
6.600000	1	0.082750
6.616667	1	0.083625
6.633333	1	0.083750
6.650000	1	0.084000
6.666667	1	0.085125
6.683333	1	0.086125
6.700000	1	0.086625
6.716667	1	0.087250
6.733333	1	0.088375
6.750000	1	0.089000
6.766667	1	0.090000
6.783333	1	0.091250
6.800000	1	0.093000
6.816667	1	0.094500
6.833333	1	0.095500
6.850000	1	0.096375
6.866667	1	0.097000
6.883333	1	0.098250
6.900000	1	0.099000
6.916667	1	0.099875
6.933333	1	0.101250
6.950000	1	0.102625
6.966667	1	0.103500
6.983333	1	0.103875
7.000000	1	0.105125
7.016667	1	0.106250
7.033333	1	0.107625
7.050000	1	0.108125
7.066667	1	0.109250
7.083333	1	0.110125
7.100000	1	0.110625
7.116667	1	0.111750
7.133333	1	0.112250
7.150000	1	0.113250
7.166667	1	0.114750
7.183333	1	0.115375
7.200000	1	0.115750
7.216667	1	0.116500
7.233333	1	0.117750
7.250000	1	0.118375
7.266667	1	0.119125
7.283333	1	0.120250
7.300000	1	0.120750
7.316667	1	0.121750
7.333333	1	0.122000
7.350000	1	0.120875
7.366667	1	0.121375
7.383333	1	0.121125
7.400000	1	0.121125
7.416667	1	0.120500
7.433333	1	0.119625
7.450000	1	0.118875
7.466667	1	0.117750
7.483333	1	0.116250
7.500000	1	0.114125
7.516667	1	0.112500
7.533333	1	0.110375
7.550000	1	0.107750
7.566667	1	0.105375
7.583333	1	0.102000
7.600000	1	0.098000
7.616667	1	0.094125
7.633333	1	0.090375
7.650000	1	0.086750
7.666667	1	0.082625
7.683333	1	0.078250
7.700000	1	0.074000
7.716667	1	0.069375
7.733333	1	0.064625
7.750000	1	0.060250
7.766667	1	0.056000
7.783333	1	0.051125
7.800000	1	0.046500
7.816667	1	0.041875
7.833333	1	0.037250
7.850000	1	0.032375
7.866667	1	0.028125
7.883333	1	0.023250
7.900000	1	0.018750
7.916667	1	0.014875
7.933333	1	0.010375
7.950000	1	0.006250
7.966667	1	0.002750
7.983333	1	-0.001000
8.000000	1	-0.004375
8.016667	1	-0.007500
8.033333	1	-0.010875
8.050000	1	-0.014375
8.066667	1	-0.017000
8.083333	1	-0.019500
8.100000	1	-0.021625
8.116667	1	-0.023625
8.133333	1	-0.024500
8.150000	1	-0.026500
8.166667	1	-0.028250
8.183333	1	-0.029750
8.200000	1	-0.031250
8.216667	1	-0.031500
8.233333	1	-0.032500
8.250000	1	-0.032875
8.266667	1	-0.032875
8.283333	1	-0.032750
8.300000	1	-0.033375
8.316667	1	-0.033375
8.333333	1	-0.033250
8.350000	1	-0.032500
8.366667	1	-0.032000
8.383333	1	-0.031875
8.400000	1	-0.030750
8.416667	1	-0.029625
8.433333	1	-0.029000
8.450000	1	-0.027625
8.466667	1	-0.026875
8.483333	1	-0.026750
8.500000	1	-0.025500
8.516667	1	-0.024500
8.533333	1	-0.023625
8.550000	1	-0.022375
8.566667	1	-0.021750
8.583333	1	-0.021125
8.600000	1	-0.020625
8.616667	1	-0.019750
8.633333	1	-0.019125
8.650000	1	-0.018625
8.666667	1	-0.018125
8.683333	1	-0.017875
8.700000	1	-0.017750
8.716667	1	-0.018000
8.733333	1	-0.017625
8.750000	1	-0.017625
8.766667	1	-0.017750
8.783333	1	-0.017750
8.800000	1	-0.018000
8.816667	1	-0.018000
8.833333	1	-0.018125
8.850000	1	-0.018500
8.866667	1	-0.018500
8.883333	1	-0.018750
8.900000	1	-0.019125
8.916667	1	-0.019250
8.933333	1	-0.019250
8.950000	1	-0.019250
8.966667	1	-0.019500
8.983333	1	-0.018875
9.000000	1	-0.019750
9.016667	1	-0.019625
9.033333	1	-0.020750
9.050000	1	-0.020000
9.066667	1	-0.019750
9.083333	1	-0.019250
9.100000	1	-0.019000
9.116667	1	-0.018625
9.133333	1	-0.018625
9.150000	1	-0.018250
9.166667	1	-0.017750
9.183333	1	-0.017875
9.200000	1	-0.016750
9.216667	1	-0.016875
9.233333	1	-0.017375
9.250000	1	-0.017750
9.266667	1	-0.017375
9.283333	1	-0.017000
9.300000	1	-0.016625
9.316667	1	-0.017125
9.333333	1	-0.016625
9.350000	1	-0.016250
9.366667	1	-0.016375
9.383333	1	-0.016250
9.400000	1	-0.016625
9.416667	1	-0.017500
9.433333	1	-0.016750
9.450000	1	-0.016875
9.466667	1	-0.016750
9.483333	1	-0.017125
9.500000	1	-0.016375
9.516667	1	-0.016875
9.533333	1	-0.016250
9.550000	1	-0.017375
9.566667	1	-0.017875
9.583333	1	-0.017875
9.600000	1	-0.017875
9.616667	1	-0.017750
9.633333	1	-0.017250
9.650000	1	-0.016875
9.666667	1	-0.016375
9.683333	1	-0.017375
9.700000	1	-0.017875
9.716667	1	-0.017500
9.733333	1	-0.018000
9.750000	1	-0.017375
9.766667	1	-0.017000
9.783333	1	-0.017000
9.800000	1	-0.017000
9.816667	1	-0.016500
9.833333	1	-0.017125
9.850000	1	-0.016625
9.866667	1	-0.016875
9.883333	1	-0.017000
9.900000	1	-0.017250
9.916667	1	-0.016875
9.933333	1	-0.016750
9.950000	1	-0.016875
9.966667	1	-0.017125
9.983333	1	-0.017125
10.000000	1	-0.017375
10.016667	1	-0.016750
10.033333	1	-0.016625
10.050000	1	-0.016125
10.066667	1	-0.015375
10.083333	1	-0.014000
10.100000	1	-0.012875
10.116667	1	-0.010250
10.133333	1	-0.007125
10.150000	1	-0.002875
10.166667	1	0.002750
10.183333	1	0.009250
10.200000	1	0.016750
10.216667	1	0.025000
10.233333	1	0.035375
10.250000	1	0.047750
10.266667	1	0.062750
10.283333	1	0.079500
10.300000	1	0.099000
10.316667	1	0.121375
10.333333	1	0.145500
10.350000	1	0.172000
10.366667	1	0.199125
10.383333	1	0.224000
10.400000	1	0.246375
10.416667	1	0.262750
10.433333	1	0.271750
10.450000	1	0.272625
10.466667	1	0.268000
10.483333	1	0.265000
10.500000	1	0.276125
10.516667	1	0.324375
10.533333	1	0.439375
10.550000	1	0.662375
10.566667	1	1.043625
10.583333	1	1.639500
10.600000	1	2.506125
10.616667	1	3.699500
10.633333	1	5.263000
10.650000	1	7.226750
10.666667	1	9.609250
10.683333	1	12.414500
10.700000	1	15.628125
10.716667	1	19.221250
10.733333	1	23.144500
10.750000	1	27.327750
10.766667	1	31.665250
10.783333	1	36.016250
10.800000	1	40.192500
10.816667	1	43.937250
10.833333	1	46.939625
10.850000	1	48.861375
10.866667	1	49.405125
10.883333	1	48.389500
10.900000	1	45.832625
10.916667	1	41.979625
10.933333	1	37.249125
10.950000	1	32.122000
10.966667	1	27.037125
10.983333	1	22.313125
11.000000	1	18.136750
11.016667	1	14.582875
11.033333	1	11.650500
11.050000	1	9.287750
11.066667	1	7.419000
11.083333	1	5.962500
11.100000	1	4.838000
11.116667	1	3.977875
11.133333	1	3.321000
11.150000	1	2.821000
11.166667	1	2.440625
11.183333	1	2.149500
11.200000	1	1.926500
11.216667	1	1.755000
11.233333	1	1.622250
11.250000	1	1.519000
11.266667	1	1.436875
11.283333	1	1.369375
11.300000	1	1.313250
11.316667	1	1.265875
11.333333	1	1.223875
11.350000	1	1.185875
11.366667	1	1.150500
11.383333	1	1.117625
11.400000	1	1.087250
11.416667	1	1.058875
11.433333	1	1.033125
11.450000	1	1.009750
11.466667	1	0.989500
11.483333	1	0.972500
11.500000	1	0.959250
11.516667	1	0.949625
11.533333	1	0.942625
11.550000	1	0.939125
11.566667	1	0.939500
11.583333	1	0.944000
11.600000	1	0.953250
11.616667	1	0.966250
11.633333	1	0.984500
11.650000	1	1.006125
11.666667	1	1.031250
11.683333	1	1.060125
11.700000	1	1.090875
11.716667	1	1.122625
11.733333	1	1.154875
11.750000	1	1.184875
11.766667	1	1.210750
11.783333	1	1.233000
11.800000	1	1.249500
11.816667	1	1.260000
11.833333	1	1.264500
11.850000	1	1.263000
11.866667	1	1.256375
11.883333	1	1.246000
11.900000	1	1.231625
11.916667	1	1.215500
11.933333	1	1.198250
11.950000	1	1.180125
11.966667	1	1.162625
11.983333	1	1.146375
12.000000	1	1.131625
12.016667	1	1.118125
12.033333	1	1.107250
12.050000	1	1.097875
12.066667	1	1.090000
12.083333	1	1.083750
12.100000	1	1.080125
12.116667	1	1.076625
12.133333	1	1.074875
12.150000	1	1.075000
12.166667	1	1.076625
12.183333	1	1.079125
12.200000	1	1.083500
12.216667	1	1.090125
12.233333	1	1.101250
12.250000	1	1.115875
12.266667	1	1.136250
12.283333	1	1.165250
12.300000	1	1.206375
12.316667	1	1.262625
12.333333	1	1.339750
12.350000	1	1.444750
12.366667	1	1.587125
12.383333	1	1.779625
12.400000	1	2.038625
12.416667	1	2.386875
12.433333	1	2.852750
12.450000	1	3.473125
12.466667	1	4.295125
12.483333	1	5.378625
12.500000	1	6.792125
12.516667	1	8.615375
12.533333	1	10.931250
12.550000	1	13.823000
12.566667	1	17.364125
12.583333	1	21.604375
12.600000	1	26.557750
12.616667	1	32.185875
12.633333	1	38.401500
12.650000	1	45.058125
12.666667	1	51.942625
12.683333	1	58.785125
12.700000	1	65.277625
12.716667	1	71.103000
12.733333	1	75.961500
12.750000	1	79.603250
12.766667	1	81.857500
12.783333	1	82.647000
12.800000	1	82.000500
12.816667	1	80.039250
12.833333	1	76.960375
12.850000	1	73.008750
12.866667	1	68.459000
12.883333	1	63.587750
12.900000	1	58.656375
12.916667	1	53.884250
12.933333	1	49.444500
12.950000	1	45.454875
12.966667	1	41.983500
12.983333	1	39.054125
13.000000	1	36.664000
13.016667	1	34.780750
13.033333	1	33.361000
13.050000	1	32.351875
13.066667	1	31.699625
13.083333	1	31.354125
13.100000	1	31.265750
13.116667	1	31.394500
13.133333	1	31.701625
13.150000	1	32.157625
13.166667	1	32.735625
13.183333	1	33.415125
13.200000	1	34.178125
13.216667	1	35.010375
13.233333	1	35.903250
13.250000	1	36.847375
13.266667	1	37.838375
13.283333	1	38.870625
13.300000	1	39.939750
13.316667	1	41.043750
13.333333	1	42.179000
13.350000	1	43.345000
13.366667	1	44.540625
13.383333	1	45.764875
13.400000	1	47.017375
13.416667	1	48.297250
13.433333	1	49.607500
13.450000	1	50.948250
13.466667	1	52.319625
13.483333	1	53.721625
13.500000	1	55.155625
13.516667	1	56.619125
13.533333	1	58.113375
13.550000	1	59.638250
13.566667	1	61.195000
13.583333	1	62.783500
13.600000	1	64.403000
13.616667	1	66.056750
13.633333	1	67.744375
13.650000	1	69.468625
13.666667	1	71.229500
13.683333	1	73.024125
13.700000	1	74.836000
13.716667	1	76.615125
13.733333	1	78.252375
13.750000	1	79.583250
13.766667	1	80.415250
13.783333	1	80.577875
13.800000	1	79.939250
13.816667	1	78.394250
13.833333	1	75.819250
13.850000	1	72.050500
13.866667	1	66.930750
13.883333	1	60.453250
13.900000	1	52.913750
13.916667	1	44.909125
13.933333	1	37.145750
13.950000	1	30.181250
13.966667	1	24.295875
13.983333	1	19.523500
14.000000	1	15.751500
14.016667	1	12.816250
14.033333	1	10.561750
14.050000	1	8.850500
14.066667	1	7.566250
14.083333	1	6.611125
14.100000	1	5.903000
14.116667	1	5.374875
14.133333	1	4.978375
14.150000	1	4.674875
14.166667	1	4.437000
14.183333	1	4.247375
14.200000	1	4.092125
14.216667	1	3.961875
14.233333	1	3.850375
14.250000	1	3.752625
14.266667	1	3.665500
14.283333	1	3.587375
14.300000	1	3.515750
14.316667	1	3.449750
14.333333	1	3.389000
14.350000	1	3.332625
14.366667	1	3.279875
14.383333	1	3.231125
14.400000	1	3.186000
14.416667	1	3.144500
14.433333	1	3.105750
14.450000	1	3.069375
14.466667	1	3.035000
14.483333	1	3.003000
14.500000	1	2.973750
14.516667	1	2.945250
14.533333	1	2.917875
14.550000	1	2.891625
14.566667	1	2.865375
14.583333	1	2.839500
14.600000	1	2.813375
14.616667	1	2.786500
14.633333	1	2.759125
14.650000	1	2.731500
14.666667	1	2.702750
14.683333	1	2.672875
14.700000	1	2.643875
14.716667	1	2.614500
14.733333	1	2.585750
14.750000	1	2.557000
14.766667	1	2.528500
14.783333	1	2.501000
14.800000	1	2.473375
14.816667	1	2.446375
14.833333	1	2.420000
14.850000	1	2.393250
14.866667	1	2.366000
14.883333	1	2.339125
14.900000	1	2.311125
14.916667	1	2.282500
14.933333	1	2.253250
14.950000	1	2.223500
14.966667	1	2.193500
14.983333	1	2.162875
15.000000	1	2.132375
15.016667	1	2.102500
15.033333	1	2.073125
15.050000	1	2.044750
15.066667	1	2.016875
15.083333	1	1.991125
15.100000	1	1.965125
15.116667	1	1.941625
15.133333	1	1.919000
15.150000	1	1.898000
15.166667	1	1.878125
15.183333	1	1.860500
15.200000	1	1.844000
15.216667	1	1.829250
15.233333	1	1.816000
15.250000	1	1.805250
15.266667	1	1.795875
15.283333	1	1.789625
15.300000	1	1.785750
15.316667	1	1.785625
15.333333	1	1.789250
15.350000	1	1.797375
15.366667	1	1.810750
15.383333	1	1.829000
15.400000	1	1.851500
15.416667	1	1.878625
15.433333	1	1.909875
15.450000	1	1.944000
15.466667	1	1.980125
15.483333	1	2.014500
15.500000	1	2.047000
15.516667	1	2.073375
15.533333	1	2.094375
15.550000	1	2.106875
15.566667	1	2.111000
15.583333	1	2.105750
15.600000	1	2.091875
15.616667	1	2.069375
15.633333	1	2.039625
15.650000	1	2.002875
15.666667	1	1.961875
15.683333	1	1.918625
15.700000	1	1.874375
15.716667	1	1.830375
15.733333	1	1.786750
15.750000	1	1.744500
15.766667	1	1.703875
15.783333	1	1.666250
15.800000	1	1.629250
15.816667	1	1.595500
15.833333	1	1.562125
15.850000	1	1.531125
15.866667	1	1.501500
15.883333	1	1.472750
15.900000	1	1.445625
15.916667	1	1.420875
15.933333	1	1.397125
15.950000	1	1.375875
15.966667	1	1.356625
15.983333	1	1.339500
16.000000	1	1.324875
16.016667	1	1.312625
16.033333	1	1.302500
16.050000	1	1.293875
16.066667	1	1.287750
16.083333	1	1.282875
16.100000	1	1.280000
16.116667	1	1.278375
16.133333	1	1.277500
16.150000	1	1.277375
16.166667	1	1.277625
16.183333	1	1.277625
16.200000	1	1.278125
16.216667	1	1.278500
16.233333	1	1.278750
16.250000	1	1.278000
16.266667	1	1.276000
16.283333	1	1.273125
16.300000	1	1.270000
16.316667	1	1.265875
16.333333	1	1.260875
16.350000	1	1.255500
16.366667	1	1.249250
16.383333	1	1.243000
16.400000	1	1.236625
16.416667	1	1.230500
16.433333	1	1.225625
16.450000	1	1.221750
16.466667	1	1.219250
16.483333	1	1.218000
16.500000	1	1.219000
16.516667	1	1.221500
16.533333	1	1.225500
16.550000	1	1.231000
16.566667	1	1.238125
16.583333	1	1.245625
16.600000	1	1.253875
16.616667	1	1.262125
16.633333	1	1.269750
16.650000	1	1.276375
16.666667	1	1.282750
16.683333	1	1.288375
16.700000	1	1.292750
16.716667	1	1.294375
16.733333	1	1.295500
16.750000	1	1.296500
16.766667	1	1.297750
16.783333	1	1.299250
16.800000	1	1.300875
16.816667	1	1.302625
16.833333	1	1.305875
16.850000	1	1.309500
16.866667	1	1.313750
16.883333	1	1.318000
16.900000	1	1.322000
16.916667	1	1.325500
16.933333	1	1.328000
16.950000	1	1.330125
16.966667	1	1.330750
16.983333	1	1.331000
17.000000	1	1.330000
17.016667	1	1.327500
17.033333	1	1.325000
17.050000	1	1.320625
17.066667	1	1.316125
17.083333	1	1.312250
17.100000	1	1.308000
17.116667	1	1.305125
17.133333	1	1.302375
17.150000	1	1.300625
17.166667	1	1.299750
17.183333	1	1.300500
17.200000	1	1.302750
17.216667	1	1.306625
17.233333	1	1.311000
17.250000	1	1.318375
17.266667	1	1.326625
17.283333	1	1.335625
17.300000	1	1.345750
17.316667	1	1.356250
17.333333	1	1.367000
17.350000	1	1.377875
17.366667	1	1.388625
17.383333	1	1.399000
17.400000	1	1.407500
17.416667	1	1.414875
17.433333	1	1.420250
17.450000	1	1.423250
17.466667	1	1.424250
17.483333	1	1.422625
17.500000	1	1.417750
17.516667	1	1.410500
17.533333	1	1.400250
17.550000	1	1.388250
17.566667	1	1.374125
17.583333	1	1.357750
17.600000	1	1.339500
17.616667	1	1.320750
17.633333	1	1.300875
17.650000	1	1.280125
17.666667	1	1.258500
17.683333	1	1.237625
17.700000	1	1.217250
17.716667	1	1.197000
17.733333	1	1.177125
17.750000	1	1.157750
17.766667	1	1.139125
17.783333	1	1.120500
17.800000	1	1.103125
17.816667	1	1.086000
17.833333	1	1.070375
17.850000	1	1.055500
17.866667	1	1.041750
17.883333	1	1.027875
17.900000	1	1.014125
17.916667	1	1.002000
17.933333	1	0.990000
17.950000	1	0.979125
17.966667	1	0.969250
17.983333	1	0.958875
18.000000	1	0.949250
18.016667	1	0.939500
18.033333	1	0.930250
18.050000	1	0.921625
18.066667	1	0.912500
18.083333	1	0.903750
18.100000	1	0.894625
18.116667	1	0.886500
18.133333	1	0.879000
18.150000	1	0.871875
18.166667	1	0.865125
18.183333	1	0.858750
18.200000	1	0.853875
18.216667	1	0.849500
18.233333	1	0.846500
18.250000	1	0.843375
18.266667	1	0.841625
18.283333	1	0.840125
18.300000	1	0.839125
18.316667	1	0.838250
18.333333	1	0.839250
18.350000	1	0.840125
18.366667	1	0.840750
18.383333	1	0.843125
18.400000	1	0.845625
18.416667	1	0.848250
18.433333	1	0.851375
18.450000	1	0.855875
18.466667	1	0.861125
18.483333	1	0.868250
18.500000	1	0.877375
18.516667	1	0.887000
18.533333	1	0.899125
18.550000	1	0.913375
18.566667	1	0.930125
18.583333	1	0.948125
18.600000	1	0.968250
18.616667	1	0.990250
18.633333	1	1.015125
18.650000	1	1.042000
18.666667	1	1.070125
18.683333	1	1.100750
18.700000	1	1.132750
18.716667	1	1.166500
18.733333	1	1.200750
18.750000	1	1.236500
18.766667	1	1.272500
18.783333	1	1.308500
18.800000	1	1.344750
18.816667	1	1.380125
18.833333	1	1.413625
18.850000	1	1.445125
18.866667	1	1.472875
18.883333	1	1.497625
18.900000	1	1.518125
18.916667	1	1.533750
18.933333	1	1.543625
18.950000	1	1.546500
18.966667	1	1.543500
18.983333	1	1.532625
19.000000	1	1.515000
19.016667	1	1.490250
19.033333	1	1.459000
19.050000	1	1.422500
19.066667	1	1.380750
19.083333	1	1.334875
19.100000	1	1.285750
19.116667	1	1.234500
19.133333	1	1.182000
19.150000	1	1.129125
19.166667	1	1.077375
19.183333	1	1.028375
19.200000	1	0.981500
19.216667	1	0.938625
19.233333	1	0.900000
19.250000	1	0.866750
19.266667	1	0.837875
19.283333	1	0.815750
19.300000	1	0.799125
19.316667	1	0.787750
19.333333	1	0.782250
19.350000	1	0.782250
19.366667	1	0.787750
19.383333	1	0.798375
19.400000	1	0.814125
19.416667	1	0.834250
19.433333	1	0.857750
19.450000	1	0.885250
19.466667	1	0.916125
19.483333	1	0.947875
19.500000	1	0.980500
19.516667	1	1.012250
19.533333	1	1.042375
19.550000	1	1.070875
19.566667	1	1.096000
19.583333	1	1.116125
19.600000	1	1.131125
19.616667	1	1.140875
19.633333	1	1.144750
19.650000	1	1.143125
19.666667	1	1.134625
19.683333	1	1.120125
19.700000	1	1.100625
19.716667	1	1.075875
19.733333	1	1.048125
19.750000	1	1.017125
19.766667	1	0.983750
19.783333	1	0.948625
19.800000	1	0.912750
19.816667	1	0.877625
19.833333	1	0.842875
19.850000	1	0.809125
19.866667	1	0.776875
19.883333	1	0.745875
19.900000	1	0.716875
19.916667	1	0.692000
19.933333	1	0.669000
19.950000	1	0.647750
19.966667	1	0.629500
19.983333	1	0.614375
20.000000	1	0.600625
20.016667	1	0.589375
20.033333	1	0.580250
20.050000	1	0.574000
20.066667	1	0.569750
20.083333	1	0.568125
20.100000	1	0.568750
20.116667	1	0.571625
20.133333	1	0.576625
20.150000	1	0.584125
20.166667	1	0.593750
20.183333	1	0.605375
20.200000	1	0.617375
20.216667	1	0.631125
20.233333	1	0.645500
20.250000	1	0.660250
20.266667	1	0.675250
20.283333	1	0.689125
20.300000	1	0.701875
20.316667	1	0.713000
20.333333	1	0.721250
20.350000	1	0.727750
20.366667	1	0.731375
20.383333	1	0.731875
20.400000	1	0.729500
20.416667	1	0.724375
20.433333	1	0.716750
20.450000	1	0.707375
20.466667	1	0.697500
20.483333	1	0.686750
20.500000	1	0.676000
20.516667	1	0.667375
20.533333	1	0.661250
20.550000	1	0.658375
20.566667	1	0.659875
20.583333	1	0.666125
20.600000	1	0.678500
20.616667	1	0.697750
20.633333	1	0.724125
20.650000	1	0.757250
20.666667	1	0.799125
20.683333	1	0.848500
20.700000	1	0.904750
20.716667	1	0.968250
20.733333	1	1.037750
20.750000	1	1.111875
20.766667	1	1.188375
20.783333	1	1.266000
20.800000	1	1.342500
20.816667	1	1.416000
20.833333	1	1.482625
20.850000	1	1.541500
20.866667	1	1.590000
20.883333	1	1.625250
20.900000	1	1.649250
20.916667	1	1.658875
20.933333	1	1.654250
20.950000	1	1.636250
20.966667	1	1.604125
20.983333	1	1.560250
21.000000	1	1.505750
21.016667	1	1.442875
21.033333	1	1.374125
21.050000	1	1.301375
21.066667	1	1.226250
21.083333	1	1.150000
21.100000	1	1.075125
21.116667	1	1.002875
21.133333	1	0.934500
21.150000	1	0.871000
21.166667	1	0.812625
21.183333	1	0.758625
21.200000	1	0.710375
21.216667	1	0.667000
21.233333	1	0.629125
21.250000	1	0.596125
21.266667	1	0.567000
21.283333	1	0.542250
21.300000	1	0.521125
21.316667	1	0.502875
21.333333	1	0.488000
21.350000	1	0.475875
21.366667	1	0.466000
21.383333	1	0.457500
21.400000	1	0.451125
21.416667	1	0.445875
21.433333	1	0.442375
21.450000	1	0.439500
21.466667	1	0.437750
21.483333	1	0.437625
21.500000	1	0.438000
21.516667	1	0.439750
21.533333	1	0.442625
21.550000	1	0.447500
21.566667	1	0.452875
21.583333	1	0.460500
21.600000	1	0.469500
21.616667	1	0.480875
21.633333	1	0.494125
21.650000	1	0.509250
21.666667	1	0.527875
21.683333	1	0.549500
21.700000	1	0.573750
21.716667	1	0.601125
21.733333	1	0.632500
21.750000	1	0.666750
21.766667	1	0.704375
21.783333	1	0.745000
21.800000	1	0.789250
21.816667	1	0.835625
21.833333	1	0.884125
21.850000	1	0.933625
21.866667	1	0.984750
21.883333	1	1.036250
21.900000	1	1.086500
21.916667	1	1.135000
21.933333	1	1.180375
21.950000	1	1.222625
21.966667	1	1.260125
21.983333	1	1.292500
22.000000	1	1.318375
22.016667	1	1.337375
22.033333	1	1.348875
22.050000	1	1.353500
22.066667	1	1.350250
22.083333	1	1.339375
22.100000	1	1.322375
22.116667	1	1.298625
22.133333	1	1.269500
22.150000	1	1.235750
22.166667	1	1.197500
22.183333	1	1.156875
22.200000	1	1.113375
22.216667	1	1.068000
22.233333	1	1.022125
22.250000	1	0.976250
22.266667	1	0.930750
22.283333	1	0.885875
22.300000	1	0.842125
22.316667	1	0.800125
22.333333	1	0.760500
22.350000	1	0.722500
22.366667	1	0.686625
22.383333	1	0.652500
22.400000	1	0.620500
22.416667	1	0.590500
22.433333	1	0.562000
22.450000	1	0.536625
22.466667	1	0.513000
22.483333	1	0.491625
22.500000	1	0.472000
22.516667	1	0.454625
22.533333	1	0.438750
22.550000	1	0.425000
22.566667	1	0.411875
22.583333	1	0.400000
22.600000	1	0.390125
22.616667	1	0.381375
22.633333	1	0.373000
22.650000	1	0.365250
22.666667	1	0.358500
22.683333	1	0.353125
22.700000	1	0.348375
22.716667	1	0.344125
22.733333	1	0.339875
22.750000	1	0.336125
22.766667	1	0.332250
22.783333	1	0.328750
22.800000	1	0.325625
22.816667	1	0.321875
22.833333	1	0.319375
22.850000	1	0.316875
22.866667	1	0.315125
22.883333	1	0.313625
22.900000	1	0.312500
22.916667	1	0.310500
22.933333	1	0.309625
22.950000	1	0.308625
22.966667	1	0.307250
22.983333	1	0.306750
23.000000	1	0.306875
23.016667	1	0.306875
23.033333	1	0.307875
23.050000	1	0.308500
23.066667	1	0.310000
23.083333	1	0.310875
23.100000	1	0.312000
23.116667	1	0.313875
23.133333	1	0.316000
23.150000	1	0.318375
23.166667	1	0.320875
23.183333	1	0.323375
23.200000	1	0.326250
23.216667	1	0.329250
23.233333	1	0.333500
23.250000	1	0.338375
23.266667	1	0.343750
23.283333	1	0.349625
23.300000	1	0.357250
23.316667	1	0.366500
23.333333	1	0.378125
23.350000	1	0.392625
23.366667	1	0.410500
23.383333	1	0.432500
23.400000	1	0.459000
23.416667	1	0.491250
23.433333	1	0.529750
23.450000	1	0.575375
23.466667	1	0.630625
23.483333	1	0.695625
23.500000	1	0.771375
23.516667	1	0.859500
23.533333	1	0.960875
23.550000	1	1.077250
23.566667	1	1.209625
23.583333	1	1.358375
23.600000	1	1.523500
23.616667	1	1.705625
23.633333	1	1.904375
23.650000	1	2.118875
23.666667	1	2.348000
23.683333	1	2.589125
23.700000	1	2.840000
23.716667	1	3.097125
23.733333	1	3.356750
23.750000	1	3.614250
23.766667	1	3.863625
23.783333	1	4.100375
23.800000	1	4.320000
23.816667	1	4.516875
23.833333	1	4.686500
23.850000	1	4.825000
23.866667	1	4.929375
23.883333	1	4.996875
23.900000	1	5.026625
23.916667	1	5.018250
23.933333	1	4.971250
23.950000	1	4.888000
23.966667	1	4.772125
23.983333	1	4.625125
24.000000	1	4.452750
24.016667	1	4.258375
24.033333	1	4.048125
24.050000	1	3.825500
24.066667	1	3.595125
24.083333	1	3.361375
24.100000	1	3.127500
24.116667	1	2.897750
24.133333	1	2.673750
24.150000	1	2.459125
24.166667	1	2.255000
24.183333	1	2.063125
24.200000	1	1.883375
24.216667	1	1.718125
24.233333	1	1.565750
24.250000	1	1.428125
24.266667	1	1.303375
24.283333	1	1.190625
24.300000	1	1.089750
24.316667	1	1.000625
24.333333	1	0.920875
24.350000	1	0.850500
24.366667	1	0.789250
24.383333	1	0.735375
24.400000	1	0.689125
24.416667	1	0.649500
24.433333	1	0.615250
24.450000	1	0.586250
24.466667	1	0.562250
24.483333	1	0.541750
24.500000	1	0.524625
24.516667	1	0.509625
24.533333	1	0.496875
24.550000	1	0.486625
24.566667	1	0.477750
24.583333	1	0.469750
24.600000	1	0.462875
24.616667	1	0.456375
24.633333	1	0.451000
24.650000	1	0.444875
24.666667	1	0.439625
24.683333	1	0.434375
24.700000	1	0.429000
24.716667	1	0.423375
24.733333	1	0.417375
24.750000	1	0.411125
24.766667	1	0.405500
24.783333	1	0.400000
24.800000	1	0.393625
24.816667	1	0.388250
24.833333	1	0.382250
24.850000	1	0.376500
24.866667	1	0.371125
24.883333	1	0.365250
24.900000	1	0.360500
24.916667	1	0.355625
24.933333	1	0.351250
24.950000	1	0.347250
24.966667	1	0.343625
24.983333	1	0.339750
25.000000	1	0.335875
25.016667	1	0.332375
25.033333	1	0.328500
25.050000	1	0.325375
25.066667	1	0.323000
25.083333	1	0.320000
25.100000	1	0.317375
25.116667	1	0.314250
25.133333	1	0.311500
25.150000	1	0.309250
25.166667	1	0.307125
25.183333	1	0.304000
25.200000	1	0.301000
25.216667	1	0.298500
25.233333	1	0.296250
25.250000	1	0.294000
25.266667	1	0.291125
25.283333	1	0.288250
25.300000	1	0.285750
25.316667	1	0.284000
25.333333	1	0.281375
25.350000	1	0.279500
25.366667	1	0.276875
25.383333	1	0.275000
25.400000	1	0.273500
25.416667	1	0.272250
25.433333	1	0.271250
25.450000	1	0.269750
25.466667	1	0.268750
25.483333	1	0.267875
25.500000	1	0.266625
25.516667	1	0.266250
25.533333	1	0.265625
25.550000	1	0.265375
25.566667	1	0.264500
25.583333	1	0.264250
25.600000	1	0.263625
25.616667	1	0.263875
25.633333	1	0.264125
25.650000	1	0.263625
25.666667	1	0.262625
25.683333	1	0.262125
25.700000	1	0.262125
25.716667	1	0.262000
25.733333	1	0.261500
25.750000	1	0.261000
25.766667	1	0.260375
25.783333	1	0.260500
25.800000	1	0.260250
25.816667	1	0.259750
25.833333	1	0.260250
25.850000	1	0.260875
25.866667	1	0.262000
25.883333	1	0.263125
25.900000	1	0.264125
25.916667	1	0.265375
25.933333	1	0.268000
25.950000	1	0.270625
25.966667	1	0.273000
25.983333	1	0.276375
26.000000	1	0.280000
26.016667	1	0.284250
26.033333	1	0.287750
26.050000	1	0.292875
26.066667	1	0.297625
26.083333	1	0.303125
26.100000	1	0.308000
26.116667	1	0.312625
26.133333	1	0.317875
26.150000	1	0.323000
26.166667	1	0.327250
26.183333	1	0.331375
26.200000	1	0.335375
26.216667	1	0.339375
26.233333	1	0.343000
26.250000	1	0.345750
26.266667	1	0.347500
26.283333	1	0.349625
26.300000	1	0.350250
26.316667	1	0.350250
26.333333	1	0.349500
26.350000	1	0.348750
26.366667	1	0.347375
26.383333	1	0.344750
26.400000	1	0.342000
26.416667	1	0.338500
26.433333	1	0.334625
26.450000	1	0.330500
26.466667	1	0.325500
26.483333	1	0.320500
26.500000	1	0.314500
26.516667	1	0.308625
26.533333	1	0.302375
26.550000	1	0.295875
26.566667	1	0.290000
26.583333	1	0.283875
26.600000	1	0.277875
26.616667	1	0.271500
26.633333	1	0.265250
26.650000	1	0.259375
26.666667	1	0.253750
26.683333	1	0.248875
26.700000	1	0.243375
26.716667	1	0.238625
26.733333	1	0.233750
26.750000	1	0.229875
26.766667	1	0.226375
26.783333	1	0.223125
26.800000	1	0.218750
26.816667	1	0.215875
26.833333	1	0.214000
26.850000	1	0.211625
26.866667	1	0.210500
26.883333	1	0.209625
26.900000	1	0.209000
26.916667	1	0.208375
26.933333	1	0.208125
26.950000	1	0.208625
26.966667	1	0.209875
26.983333	1	0.211500
27.000000	1	0.213125
27.016667	1	0.215625
27.033333	1	0.218250
27.050000	1	0.220750
27.066667	1	0.224625
27.083333	1	0.230250
27.100000	1	0.235375
27.116667	1	0.241750
27.133333	1	0.249125
27.150000	1	0.257875
27.166667	1	0.267625
27.183333	1	0.278750
27.200000	1	0.292375
27.216667	1	0.307125
27.233333	1	0.325250
27.250000	1	0.345500
27.266667	1	0.369375
27.283333	1	0.396125
27.300000	1	0.426750
27.316667	1	0.461875
27.333333	1	0.502625
27.350000	1	0.548625
27.366667	1	0.600500
27.383333	1	0.659625
27.400000	1	0.725250
27.416667	1	0.798750
27.433333	1	0.880125
27.450000	1	0.971000
27.466667	1	1.072000
27.483333	1	1.182125
27.500000	1	1.302250
27.516667	1	1.432375
27.533333	1	1.572625
27.550000	1	1.722375
27.566667	1	1.880750
27.583333	1	2.047125
27.600000	1	2.220875
27.616667	1	2.400750
27.633333	1	2.585375
27.650000	1	2.772750
27.666667	1	2.961125
27.683333	1	3.147250
27.700000	1	3.329375
27.716667	1	3.504000
27.733333	1	3.668750
27.750000	1	3.820625
27.766667	1	3.959250
27.783333	1	4.079375
27.800000	1	4.180250
27.816667	1	4.259750
27.833333	1	4.315250
27.850000	1	4.347125
27.866667	1	4.353500
27.883333	1	4.333625
27.900000	1	4.288500
27.916667	1	4.218375
27.933333	1	4.125625
27.950000	1	4.010875
27.966667	1	3.876750
27.983333	1	3.725375
28.000000	1	3.559750
28.016667	1	3.383125
28.033333	1	3.198125
28.050000	1	3.007000
28.066667	1	2.813750
28.083333	1	2.619750
28.100000	1	2.428750
28.116667	1	2.242250
28.133333	1	2.061750
28.150000	1	1.889875
28.166667	1	1.727750
28.183333	1	1.575500
28.200000	1	1.434000
28.216667	1	1.303875
28.233333	1	1.184625
28.250000	1	1.075875
28.266667	1	0.978375
28.283333	1	0.890875
28.300000	1	0.813375
28.316667	1	0.745375
28.333333	1	0.685250
28.350000	1	0.633875
28.366667	1	0.590375
28.383333	1	0.553000
28.400000	1	0.522125
28.416667	1	0.497125
28.433333	1	0.477375
28.450000	1	0.462250
28.466667	1	0.451500
28.483333	1	0.444125
28.500000	1	0.441000
28.516667	1	0.440750
28.533333	1	0.442625
28.550000	1	0.447125
28.566667	1	0.453250
28.583333	1	0.461125
28.600000	1	0.470375
28.616667	1	0.480875
28.633333	1	0.492250
28.650000	1	0.504375
28.666667	1	0.516250
28.683333	1	0.528000
28.700000	1	0.540750
28.716667	1	0.552125
28.733333	1	0.564125
28.750000	1	0.574875
28.766667	1	0.585125
28.783333	1	0.595125
28.800000	1	0.603750
28.816667	1	0.611500
28.833333	1	0.617750
28.850000	1	0.622250
28.866667	1	0.626125
28.883333	1	0.629125
28.900000	1	0.630750
28.916667	1	0.631000
28.933333	1	0.629750
28.950000	1	0.626625
28.966667	1	0.623250
28.983333	1	0.618000
29.000000	1	0.611125
29.016667	1	0.603875
29.033333	1	0.595750
29.050000	1	0.586375
29.066667	1	0.576125
29.083333	1	0.564500
29.100000	1	0.552500
29.116667	1	0.539500
29.133333	1	0.525750
29.150000	1	0.511875
29.166667	1	0.498125
29.183333	1	0.483125
29.200000	1	0.467625
29.216667	1	0.451625
29.233333	1	0.436375
29.250000	1	0.420500
29.266667	1	0.405000
29.283333	1	0.389125
29.300000	1	0.374375
29.316667	1	0.358875
29.333333	1	0.344500
29.350000	1	0.329250
29.366667	1	0.315375
29.383333	1	0.301750
29.400000	1	0.288125
29.416667	1	0.274875
29.433333	1	0.262750
29.450000	1	0.250750
29.466667	1	0.239250
29.483333	1	0.227625
29.500000	1	0.217000
29.516667	1	0.207000
29.533333	1	0.197000
29.550000	1	0.187625
29.566667	1	0.179750
29.583333	1	0.172125
29.600000	1	0.164750
29.616667	1	0.158250
29.633333	1	0.151750
29.650000	1	0.146000
29.666667	1	0.140250
29.683333	1	0.135750
29.700000	1	0.131125
29.716667	1	0.127750
29.733333	1	0.124250
29.750000	1	0.121750
29.766667	1	0.119500
29.783333	1	0.117875
29.800000	1	0.116250
29.816667	1	0.115250
29.833333	1	0.114000
29.850000	1	0.113625
29.866667	1	0.112750
29.883333	1	0.112625
29.900000	1	0.113500
29.916667	1	0.113875
29.933333	1	0.114625
29.950000	1	0.114750
29.966667	1	0.115375
29.983333	1	0.116750
30.000000	1	0.118500
30.016667	1	0.119250
30.033333	1	0.120500
30.050000	1	0.121875
30.066667	1	0.123500
30.083333	1	0.124750
30.100000	1	0.126750
30.116667	1	0.128625
30.133333	1	0.130625
30.150000	1	0.132625
30.166667	1	0.134875
30.183333	1	0.136250
30.200000	1	0.138375
30.216667	1	0.140250
30.233333	1	0.142375
30.250000	1	0.144750
30.266667	1	0.146375
30.283333	1	0.148875
30.300000	1	0.150375
30.316667	1	0.152250
30.333333	1	0.154375
30.350000	1	0.156500
30.366667	1	0.158375
30.383333	1	0.160875
30.400000	1	0.162875
30.416667	1	0.165625
30.433333	1	0.168375
30.450000	1	0.170625
30.466667	1	0.174375
30.483333	1	0.178375
30.500000	1	0.182125
30.516667	1	0.186000
30.533333	1	0.189625
30.550000	1	0.194625
30.566667	1	0.199125
30.583333	1	0.204875
30.600000	1	0.211125
30.616667	1	0.217875
30.633333	1	0.225000
30.650000	1	0.232875
30.666667	1	0.241125
30.683333	1	0.249625
30.700000	1	0.258375
30.716667	1	0.267625
30.733333	1	0.278500
30.750000	1	0.288750
30.766667	1	0.300250
30.783333	1	0.311500
30.800000	1	0.323750
30.816667	1	0.336750
30.833333	1	0.350250
30.850000	1	0.364500
30.866667	1	0.379750
30.883333	1	0.395625
30.900000	1	0.412625
30.916667	1	0.429500
30.933333	1	0.448875
30.950000	1	0.468500
30.966667	1	0.490000
30.983333	1	0.512875
31.000000	1	0.538375
31.016667	1	0.565250
31.033333	1	0.594750
31.050000	1	0.626625
31.066667	1	0.662000
31.083333	1	0.699625
31.100000	1	0.740125
31.116667	1	0.784625
31.133333	1	0.831500
31.150000	1	0.882250
31.166667	1	0.937000
31.183333	1	0.995250
31.200000	1	1.056875
31.216667	1	1.122500
31.233333	1	1.191000
31.250000	1	1.262125
31.266667	1	1.336000
31.283333	1	1.412125
31.300000	1	1.489500
31.316667	1	1.567500
31.333333	1	1.645750
31.350000	1	1.722875
31.366667	1	1.798875
31.383333	1	1.872000
31.400000	1	1.942250
31.416667	1	2.007875
31.433333	1	2.068375
31.450000	1	2.122750
31.466667	1	2.170125
31.483333	1	2.209750
31.500000	1	2.242000
31.516667	1	2.264375
31.533333	1	2.278250
31.550000	1	2.283125
31.566667	1	2.278000
31.583333	1	2.263750
31.600000	1	2.241000
31.616667	1	2.210375
31.633333	1	2.170125
31.650000	1	2.123125
31.666667	1	2.068625
31.683333	1	2.007875
31.700000	1	1.942250
31.716667	1	1.872375
31.733333	1	1.798000
31.750000	1	1.723000
31.766667	1	1.645500
31.783333	1	1.567250
31.800000	1	1.487500
31.816667	1	1.408500
31.833333	1	1.331125
31.850000	1	1.255625
31.866667	1	1.181875
31.883333	1	1.111500
31.900000	1	1.043375
31.916667	1	0.979000
31.933333	1	0.918375
31.950000	1	0.861625
31.966667	1	0.807000
31.983333	1	0.757500
32.000000	1	0.711125
32.016667	1	0.668875
32.033333	1	0.628250
32.050000	1	0.591375
32.066667	1	0.557500
32.083333	1	0.526125
32.100000	1	0.497625
32.116667	1	0.470875
32.133333	1	0.446375
32.150000	1	0.424250
32.166667	1	0.403250
32.183333	1	0.383750
32.200000	1	0.365875
32.216667	1	0.348750
32.233333	1	0.331375
32.250000	1	0.316000
32.266667	1	0.301125
32.283333	1	0.286625
32.300000	1	0.273000
32.316667	1	0.260125
32.333333	1	0.247750
32.350000	1	0.235625
32.366667	1	0.223750
32.383333	1	0.212875
32.400000	1	0.202625
32.416667	1	0.192250
32.433333	1	0.182125
32.450000	1	0.172750
32.466667	1	0.163750
32.483333	1	0.154875
32.500000	1	0.146875
32.516667	1	0.139125
32.533333	1	0.131875
32.550000	1	0.124875
32.566667	1	0.118625
32.583333	1	0.112750
32.600000	1	0.107875
32.616667	1	0.103250
32.633333	1	0.098875
32.650000	1	0.094000
32.666667	1	0.089875
32.683333	1	0.085750
32.700000	1	0.082500
32.716667	1	0.079625
32.733333	1	0.077250
32.750000	1	0.075375
32.766667	1	0.072250
32.783333	1	0.070875
32.800000	1	0.069125
32.816667	1	0.067500
32.833333	1	0.066250
32.850000	1	0.065125
32.866667	1	0.064250
32.883333	1	0.063375
32.900000	1	0.062000
32.916667	1	0.061000
32.933333	1	0.060875
32.950000	1	0.060250
32.966667	1	0.059875
32.983333	1	0.059625
33.000000	1	0.059875
33.016667	1	0.059250
33.033333	1	0.059000
33.050000	1	0.059000
33.066667	1	0.058750
33.083333	1	0.059750
33.100000	1	0.060750
33.116667	1	0.061500
33.133333	1	0.062125
33.150000	1	0.063000
33.166667	1	0.064375
33.183333	1	0.066375
33.200000	1	0.068125
33.216667	1	0.070625
33.233333	1	0.073875
33.250000	1	0.077125
33.266667	1	0.080500
33.283333	1	0.085125
33.300000	1	0.089375
33.316667	1	0.094500
33.333333	1	0.100750
33.350000	1	0.107125
33.366667	1	0.114500
33.383333	1	0.122375
33.400000	1	0.131500
33.416667	1	0.140875
33.433333	1	0.151750
33.450000	1	0.163875
33.466667	1	0.177125
33.483333	1	0.191625
33.500000	1	0.207375
33.516667	1	0.224875
33.533333	1	0.242500
33.550000	1	0.262125
33.566667	1	0.283875
33.583333	1	0.307500
33.600000	1	0.332500
33.616667	1	0.358125
33.633333	1	0.386875
33.650000	1	0.416750
33.666667	1	0.447625
33.683333	1	0.481000
33.700000	1	0.515750
33.716667	1	0.551500
33.733333	1	0.588750
33.750000	1	0.627500
33.766667	1	0.666750
33.783333	1	0.706500
33.800000	1	0.747000
33.816667	1	0.787250
33.833333	1	0.827625
33.850000	1	0.866750
33.866667	1	0.905250
33.883333	1	0.942125
33.900000	1	0.977625
33.916667	1	1.010750
33.933333	1	1.041625
33.950000	1	1.070500
33.966667	1	1.095250
33.983333	1	1.117250
34.000000	1	1.135625
34.016667	1	1.150250
34.033333	1	1.160125
34.050000	1	1.166250
34.066667	1	1.168250
34.083333	1	1.166250
34.100000	1	1.159875
34.116667	1	1.149750
34.133333	1	1.135125
34.150000	1	1.117250
34.166667	1	1.096500
34.183333	1	1.071500
34.200000	1	1.044375
34.216667	1	1.014500
34.233333	1	0.982375
34.250000	1	0.947875
34.266667	1	0.913375
34.283333	1	0.878000
34.300000	1	0.841250
34.316667	1	0.804500
34.333333	1	0.767750
34.350000	1	0.731250
34.366667	1	0.695375
34.383333	1	0.659750
34.400000	1	0.624875
34.416667	1	0.591375
34.433333	1	0.558875
34.450000	1	0.527750
34.466667	1	0.498750
34.483333	1	0.470750
34.500000	1	0.444500
34.516667	1	0.420625
34.533333	1	0.398125
34.550000	1	0.377375
34.566667	1	0.357500
34.583333	1	0.339875
34.600000	1	0.323125
34.616667	1	0.308125
34.633333	1	0.294375
34.650000	1	0.281500
34.666667	1	0.269875
34.683333	1	0.258500
34.700000	1	0.249625
34.716667	1	0.241625
34.733333	1	0.233875
34.750000	1	0.227250
34.766667	1	0.221500
34.783333	1	0.215375
34.800000	1	0.210250
34.816667	1	0.206500
34.833333	1	0.202750
34.850000	1	0.198125
34.866667	1	0.194750
34.883333	1	0.191000
34.900000	1	0.188625
34.916667	1	0.186500
34.933333	1	0.183875
34.950000	1	0.181250
34.966667	1	0.178875
34.983333	1	0.176750
35.000000	1	0.175250
35.016667	1	0.173625
35.033333	1	0.171875
35.050000	1	0.170375
35.066667	1	0.168625
35.083333	1	0.166875
35.100000	1	0.165750
35.116667	1	0.165000
35.133333	1	0.164250
35.150000	1	0.163000
35.166667	1	0.162250
35.183333	1	0.160750
35.200000	1	0.160000
35.216667	1	0.159125
35.233333	1	0.158375
35.250000	1	0.157750
35.266667	1	0.157625
35.283333	1	0.157125
35.300000	1	0.157000
35.316667	1	0.156875
35.333333	1	0.156625
35.350000	1	0.156125
35.366667	1	0.156250
35.383333	1	0.155500
35.400000	1	0.155500
35.416667	1	0.155375
35.433333	1	0.154750
35.450000	1	0.154500
35.466667	1	0.153375
35.483333	1	0.153125
35.500000	1	0.152750
35.516667	1	0.152250
35.533333	1	0.152125
35.550000	1	0.151375
35.566667	1	0.151125
35.583333	1	0.150000
35.600000	1	0.149500
35.616667	1	0.148125
35.633333	1	0.146750
35.650000	1	0.146125
35.666667	1	0.145500
35.683333	1	0.144000
35.700000	1	0.142625
35.716667	1	0.141375
35.733333	1	0.139875
35.750000	1	0.138375
35.766667	1	0.136625
35.783333	1	0.135125
35.800000	1	0.133750
35.816667	1	0.131750
35.833333	1	0.129500
35.850000	1	0.128000
35.866667	1	0.126500
35.883333	1	0.124875
35.900000	1	0.123250
35.916667	1	0.121625
35.933333	1	0.120250
35.950000	1	0.119750
35.966667	1	0.117625
35.983333	1	0.115875
36.000000	1	0.114250
36.016667	1	0.113875
36.033333	1	0.113375
36.050000	1	0.112750
36.066667	1	0.112000
36.083333	1	0.111625
36.100000	1	0.112000
36.116667	1	0.112625
36.133333	1	0.112375
36.150000	1	0.112750
36.166667	1	0.113375
36.183333	1	0.113625
36.200000	1	0.115250
36.216667	1	0.116625
36.233333	1	0.117750
36.250000	1	0.119000
36.266667	1	0.121375
36.283333	1	0.122750
36.300000	1	0.124500
36.316667	1	0.126750
36.333333	1	0.128250
36.350000	1	0.129375
36.366667	1	0.130625
36.383333	1	0.132500
36.400000	1	0.133250
36.416667	1	0.133875
36.433333	1	0.134125
36.450000	1	0.134875
36.466667	1	0.134250
36.483333	1	0.134250
36.500000	1	0.133625
36.516667	1	0.132375
36.533333	1	0.131375
36.550000	1	0.130375
36.566667	1	0.128875
36.583333	1	0.127375
36.600000	1	0.125625
36.616667	1	0.123625
36.633333	1	0.120750
36.650000	1	0.118375
36.666667	1	0.116000
36.683333	1	0.113750
36.700000	1	0.111375
36.716667	1	0.108750
36.733333	1	0.106375
36.750000	1	0.104000
36.766667	1	0.100625
36.783333	1	0.098375
36.800000	1	0.096250
36.816667	1	0.094750
36.833333	1	0.092875
36.850000	1	0.091000
36.866667	1	0.089000
36.883333	1	0.087125
36.900000	1	0.086625
36.916667	1	0.084750
36.933333	1	0.084250
36.950000	1	0.083375
36.966667	1	0.081875
36.983333	1	0.081250
37.000000	1	0.081000
37.016667	1	0.081000
37.033333	1	0.080875
37.050000	1	0.080375
37.066667	1	0.080250
37.083333	1	0.080875
37.100000	1	0.081250
37.116667	1	0.081750
37.133333	1	0.082500
37.150000	1	0.082375
37.166667	1	0.083000
37.183333	1	0.083500
37.200000	1	0.084250
37.216667	1	0.085000
37.233333	1	0.085125
37.250000	1	0.087125
37.266667	1	0.088125
37.283333	1	0.088750
37.300000	1	0.089625
37.316667	1	0.090375
37.333333	1	0.091625
37.350000	1	0.092625
37.366667	1	0.093625
37.383333	1	0.094000
37.400000	1	0.094500
37.416667	1	0.095125
37.433333	1	0.095250
37.450000	1	0.095000
37.466667	1	0.094875
37.483333	1	0.096375
37.500000	1	0.096500
37.516667	1	0.096500
37.533333	1	0.096375
37.550000	1	0.096375
37.566667	1	0.096875
37.583333	1	0.096375
37.600000	1	0.095625
37.616667	1	0.094125
37.633333	1	0.093125
37.650000	1	0.091000
37.666667	1	0.089875
37.683333	1	0.089125
37.700000	1	0.087625
37.716667	1	0.086500
37.733333	1	0.085000
37.750000	1	0.082750
37.766667	1	0.080500
37.783333	1	0.078750
37.800000	1	0.076500
37.816667	1	0.073750
37.833333	1	0.072250
37.850000	1	0.070375
37.866667	1	0.068375
37.883333	1	0.066750
37.900000	1	0.065500
37.916667	1	0.064500
37.933333	1	0.063000
37.950000	1	0.061375
37.966667	1	0.059500
37.983333	1	0.057750
38.000000	1	0.057125
38.016667	1	0.056125
38.033333	1	0.055375
38.050000	1	0.055000
38.066667	1	0.055250
38.083333	1	0.055250
38.100000	1	0.055500
38.116667	1	0.055750
38.133333	1	0.056250
38.150000	1	0.057000
38.166667	1	0.057500
38.183333	1	0.057625
38.200000	1	0.058125
38.216667	1	0.058375
38.233333	1	0.059250
38.250000	1	0.060500
38.266667	1	0.061875
38.283333	1	0.063000
38.300000	1	0.063875
38.316667	1	0.065375
38.333333	1	0.066375
38.350000	1	0.067375
38.366667	1	0.068500
38.383333	1	0.068375
38.400000	1	0.068875
38.416667	1	0.069250
38.433333	1	0.070375
38.450000	1	0.071125
38.466667	1	0.071125
38.483333	1	0.071375
38.500000	1	0.071125
38.516667	1	0.070375
38.533333	1	0.070125
38.550000	1	0.070000
38.566667	1	0.069375
38.583333	1	0.068625
38.600000	1	0.067500
38.616667	1	0.067000
38.633333	1	0.065750
38.650000	1	0.064625
38.666667	1	0.063250
38.683333	1	0.062000
38.700000	1	0.060500
38.716667	1	0.059125
38.733333	1	0.057125
38.750000	1	0.055250
38.766667	1	0.053500
38.783333	1	0.052500
38.800000	1	0.050875
38.816667	1	0.049250
38.833333	1	0.047250
38.850000	1	0.045750
38.866667	1	0.043750
38.883333	1	0.042250
38.900000	1	0.041000
38.916667	1	0.039250
38.933333	1	0.037375
38.950000	1	0.035500
38.966667	1	0.033750
38.983333	1	0.032375
39.000000	1	0.030625
39.016667	1	0.029250
39.033333	1	0.027875
39.050000	1	0.024750
39.066667	1	0.023250
39.083333	1	0.021250
39.100000	1	0.019750
39.116667	1	0.017625
39.133333	1	0.015750
39.150000	1	0.013750
39.166667	1	0.011750
39.183333	1	0.010000
39.200000	1	0.008125
39.216667	1	0.006500
39.233333	1	0.005000
39.250000	1	0.003250
39.266667	1	0.001750
39.283333	1	-0.000500
39.300000	1	-0.002000
39.316667	1	-0.003250
39.333333	1	-0.005125
39.350000	1	-0.006875
39.366667	1	-0.007750
39.383333	1	-0.008625
39.400000	1	-0.009500
39.416667	1	-0.010625
39.433333	1	-0.011625
39.450000	1	-0.012875
39.466667	1	-0.013250
39.483333	1	-0.013500
39.500000	1	-0.014125
39.516667	1	-0.014375
39.533333	1	-0.014375
39.550000	1	-0.014875
39.566667	1	-0.014875
39.583333	1	-0.014625
39.600000	1	-0.014000
39.616667	1	-0.013625
39.633333	1	-0.013625
39.650000	1	-0.013500
39.666667	1	-0.012875
39.683333	1	-0.012750
39.700000	1	-0.012875
39.716667	1	-0.012625
39.733333	1	-0.012250
39.750000	1	-0.011750
39.766667	1	-0.011375
39.783333	1	-0.010875
39.800000	1	-0.010625
39.816667	1	-0.010250
39.833333	1	-0.009000
39.850000	1	-0.008375
39.866667	1	-0.008375
39.883333	1	-0.007875
39.900000	1	-0.006375
39.916667	1	-0.006375
39.933333	1	-0.005875
39.950000	1	-0.005125
39.966667	1	-0.004500
39.983333	1	-0.004500
40.000000	1	-0.004125
