URL	chrom://bioreactor/micro_cm7/HPLC_Ultimate_3000/Users/markusar/20240708_MA_pHrange1.seq/945.smp/RI_1.channel/RI_1.chm
Channel	RI_1

Injection Information:
Data Vault	micro_cm7
Sequence	20240708_MA_pHrange1
Name	Fp3_6.5_1
Number	55
Position	BE9
Comment	
Processing Method	
Instrument Method	run_25B_method
Type	Unknown
Status	Finished
Inject Time	10.07.2024 04:27:01 +02:00
Volume (µl)	20.0000
Dilution Factor	1.0000
Weight	1.0000

Chromatogram Data Information:
Time Min. (min)	0.000000
Time Max. (min)	40.000000
Data Points	2401
Detector	RI
Generating Data System	Chromeleon 7.3.2.11814
Exporting Data System	Chromeleon 7.3.2.0
Operator	Instrument Controller
Signal Quantity	Refractive 
Signal Unit	µRIU
Signal Min.	-0.020375
Signal Max.	84.939500
Channel	RI_1
Driver Name	RID520Driver.dll
Channel Type	Evaluation
Min. Step (s)	1
Max. Step (s)	1
Average Step (s)	1

Signal Parameter Information:
Signal Info	

Chromatogram Data:
Time (min)	Step (s)	Value (µRIU)
0.000000	n.a.	0.032500
0.016667	1	0.034000
0.033333	1	0.035250
0.050000	1	0.036500
0.066667	1	0.037125
0.083333	1	0.037750
0.100000	1	0.039000
0.116667	1	0.039875
0.133333	1	0.040250
0.150000	1	0.040250
0.166667	1	0.040625
0.183333	1	0.041125
0.200000	1	0.041875
0.216667	1	0.042750
0.233333	1	0.043125
0.250000	1	0.042875
0.266667	1	0.042625
0.283333	1	0.042500
0.300000	1	0.042875
0.316667	1	0.043250
0.333333	1	0.043000
0.350000	1	0.042125
0.366667	1	0.041625
0.383333	1	0.040375
0.400000	1	0.039625
0.416667	1	0.039000
0.433333	1	0.039500
0.450000	1	0.039500
0.466667	1	0.040000
0.483333	1	0.040250
0.500000	1	0.040625
0.516667	1	0.039625
0.533333	1	0.038750
0.550000	1	0.037250
0.566667	1	0.034750
0.583333	1	0.032250
0.600000	1	0.028625
0.616667	1	0.024375
0.633333	1	0.021000
0.650000	1	0.018375
0.666667	1	0.016125
0.683333	1	0.013125
0.700000	1	0.010250
0.716667	1	0.007875
0.733333	1	0.005875
0.750000	1	0.004250
0.766667	1	0.003000
0.783333	1	0.001625
0.800000	1	0.000375
0.816667	1	-0.001000
0.833333	1	-0.002625
0.850000	1	-0.004125
0.866667	1	-0.005875
0.883333	1	-0.007125
0.900000	1	-0.008625
0.916667	1	-0.010125
0.933333	1	-0.010625
0.950000	1	-0.011125
0.966667	1	-0.011375
0.983333	1	-0.012375
1.000000	1	-0.012375
1.016667	1	-0.012750
1.033333	1	-0.012125
1.050000	1	-0.012500
1.066667	1	-0.011875
1.083333	1	-0.012250
1.100000	1	-0.012000
1.116667	1	-0.011750
1.133333	1	-0.011750
1.150000	1	-0.011250
1.166667	1	-0.010375
1.183333	1	-0.010250
1.200000	1	-0.009625
1.216667	1	-0.009500
1.233333	1	-0.009000
1.250000	1	-0.008500
1.266667	1	-0.007750
1.283333	1	-0.006250
1.300000	1	-0.005375
1.316667	1	-0.004750
1.333333	1	-0.004000
1.350000	1	-0.003250
1.366667	1	-0.002625
1.383333	1	-0.002125
1.400000	1	-0.001125
1.416667	1	-0.000250
1.433333	1	0.000125
1.450000	1	0.000625
1.466667	1	0.001000
1.483333	1	0.001875
1.500000	1	0.002500
1.516667	1	0.002875
1.533333	1	0.003625
1.550000	1	0.003875
1.566667	1	0.005125
1.583333	1	0.005875
1.600000	1	0.006125
1.616667	1	0.007500
1.633333	1	0.007875
1.650000	1	0.008750
1.666667	1	0.009250
1.683333	1	0.010000
1.700000	1	0.011000
1.716667	1	0.011375
1.733333	1	0.012125
1.750000	1	0.012625
1.766667	1	0.013000
1.783333	1	0.013375
1.800000	1	0.013625
1.816667	1	0.013875
1.833333	1	0.014250
1.850000	1	0.014750
1.866667	1	0.014250
1.883333	1	0.014750
1.900000	1	0.014750
1.916667	1	0.014125
1.933333	1	0.013375
1.950000	1	0.012375
1.966667	1	0.011500
1.983333	1	0.010625
2.000000	1	0.009750
2.016667	1	0.008375
2.033333	1	0.006625
2.050000	1	0.005250
2.066667	1	0.004250
2.083333	1	0.002500
2.100000	1	0.001250
2.116667	1	-0.000125
2.133333	1	-0.001250
2.150000	1	-0.002750
2.166667	1	-0.005000
2.183333	1	-0.006375
2.200000	1	-0.008125
2.216667	1	-0.008875
2.233333	1	-0.010000
2.250000	1	-0.011125
2.266667	1	-0.012125
2.283333	1	-0.012875
2.300000	1	-0.013250
2.316667	1	-0.014375
2.333333	1	-0.015000
2.350000	1	-0.015000
2.366667	1	-0.015500
2.383333	1	-0.015750
2.400000	1	-0.015375
2.416667	1	-0.015000
2.433333	1	-0.014875
2.450000	1	-0.015000
2.466667	1	-0.014375
2.483333	1	-0.014125
2.500000	1	-0.014125
2.516667	1	-0.013000
2.533333	1	-0.012625
2.550000	1	-0.011625
2.566667	1	-0.010875
2.583333	1	-0.010125
2.600000	1	-0.008500
2.616667	1	-0.007000
2.633333	1	-0.005750
2.650000	1	-0.004125
2.666667	1	-0.003250
2.683333	1	-0.002000
2.700000	1	-0.001125
2.716667	1	-0.000500
2.733333	1	0.000000
2.750000	1	0.001000
2.766667	1	0.002000
2.783333	1	0.003250
2.800000	1	0.004750
2.816667	1	0.005750
2.833333	1	0.007000
2.850000	1	0.007375
2.866667	1	0.008250
2.883333	1	0.009375
2.900000	1	0.009875
2.916667	1	0.010625
2.933333	1	0.011500
2.950000	1	0.012250
2.966667	1	0.012500
2.983333	1	0.012500
3.000000	1	0.013375
3.016667	1	0.013875
3.033333	1	0.014750
3.050000	1	0.016000
3.066667	1	0.016500
3.083333	1	0.017000
3.100000	1	0.017125
3.116667	1	0.017625
3.133333	1	0.018750
3.150000	1	0.019375
3.166667	1	0.019625
3.183333	1	0.020625
3.200000	1	0.021625
3.216667	1	0.022250
3.233333	1	0.023000
3.250000	1	0.024250
3.266667	1	0.025125
3.283333	1	0.026625
3.300000	1	0.027500
3.316667	1	0.029000
3.333333	1	0.029875
3.350000	1	0.030375
3.366667	1	0.030875
3.383333	1	0.031750
3.400000	1	0.032500
3.416667	1	0.033250
3.433333	1	0.033625
3.450000	1	0.034000
3.466667	1	0.034875
3.483333	1	0.035625
3.500000	1	0.036500
3.516667	1	0.036000
3.533333	1	0.035375
3.550000	1	0.035000
3.566667	1	0.035125
3.583333	1	0.034625
3.600000	1	0.034375
3.616667	1	0.034625
3.633333	1	0.034750
3.650000	1	0.035125
3.666667	1	0.035875
3.683333	1	0.035000
3.700000	1	0.034500
3.716667	1	0.033750
3.733333	1	0.033375
3.750000	1	0.033250
3.766667	1	0.032625
3.783333	1	0.032000
3.800000	1	0.031125
3.816667	1	0.030625
3.833333	1	0.030750
3.850000	1	0.030500
3.866667	1	0.030875
3.883333	1	0.030750
3.900000	1	0.031375
3.916667	1	0.032125
3.933333	1	0.032125
3.950000	1	0.032500
3.966667	1	0.033250
3.983333	1	0.033875
4.000000	1	0.034250
4.016667	1	0.035250
4.033333	1	0.036500
4.050000	1	0.037500
4.066667	1	0.038750
4.083333	1	0.039875
4.100000	1	0.041625
4.116667	1	0.043625
4.133333	1	0.045375
4.150000	1	0.047625
4.166667	1	0.049250
4.183333	1	0.051500
4.200000	1	0.053250
4.216667	1	0.055250
4.233333	1	0.058125
4.250000	1	0.060375
4.266667	1	0.062375
4.283333	1	0.064750
4.300000	1	0.067250
4.316667	1	0.069750
4.333333	1	0.071875
4.350000	1	0.074000
4.366667	1	0.076375
4.383333	1	0.078500
4.400000	1	0.080375
4.416667	1	0.082500
4.433333	1	0.085375
4.450000	1	0.087250
4.466667	1	0.089750
4.483333	1	0.092375
4.500000	1	0.094250
4.516667	1	0.096250
4.533333	1	0.098000
4.550000	1	0.100875
4.566667	1	0.103125
4.583333	1	0.105375
4.600000	1	0.107500
4.616667	1	0.110000
4.633333	1	0.112125
4.650000	1	0.114125
4.666667	1	0.115875
4.683333	1	0.118500
4.700000	1	0.121125
4.716667	1	0.124125
4.733333	1	0.126125
4.750000	1	0.129125
4.766667	1	0.132000
4.783333	1	0.135625
4.800000	1	0.138875
4.816667	1	0.142000
4.833333	1	0.144500
4.850000	1	0.147625
4.866667	1	0.151125
4.883333	1	0.154250
4.900000	1	0.158500
4.916667	1	0.162125
4.933333	1	0.165375
4.950000	1	0.169125
4.966667	1	0.173125
4.983333	1	0.177250
5.000000	1	0.181875
5.016667	1	0.186000
5.033333	1	0.190250
5.050000	1	0.194375
5.066667	1	0.198375
5.083333	1	0.202000
5.100000	1	0.206125
5.116667	1	0.210125
5.133333	1	0.213250
5.150000	1	0.216625
5.166667	1	0.220500
5.183333	1	0.224375
5.200000	1	0.228250
5.216667	1	0.232500
5.233333	1	0.235250
5.250000	1	0.238250
5.266667	1	0.241500
5.283333	1	0.244750
5.300000	1	0.247250
5.316667	1	0.249750
5.333333	1	0.252375
5.350000	1	0.254000
5.366667	1	0.256625
5.383333	1	0.258500
5.400000	1	0.260250
5.416667	1	0.261500
5.433333	1	0.262875
5.450000	1	0.263250
5.466667	1	0.264000
5.483333	1	0.264875
5.500000	1	0.265750
5.516667	1	0.265500
5.533333	1	0.265125
5.550000	1	0.264375
5.566667	1	0.262750
5.583333	1	0.261000
5.600000	1	0.260250
5.616667	1	0.258750
5.633333	1	0.257500
5.650000	1	0.255500
5.666667	1	0.252500
5.683333	1	0.249875
5.700000	1	0.246250
5.716667	1	0.243750
5.733333	1	0.241375
5.750000	1	0.238375
5.766667	1	0.235125
5.783333	1	0.231750
5.800000	1	0.228750
5.816667	1	0.225375
5.833333	1	0.222375
5.850000	1	0.218625
5.866667	1	0.214625
5.883333	1	0.210375
5.900000	1	0.207500
5.916667	1	0.203500
5.933333	1	0.200625
5.950000	1	0.197125
5.966667	1	0.193125
5.983333	1	0.189375
6.000000	1	0.185875
6.016667	1	0.181750
6.033333	1	0.178375
6.050000	1	0.174875
6.066667	1	0.171125
6.083333	1	0.166750
6.100000	1	0.163500
6.116667	1	0.159500
6.133333	1	0.156375
6.150000	1	0.153500
6.166667	1	0.149750
6.183333	1	0.146375
6.200000	1	0.142750
6.216667	1	0.139375
6.233333	1	0.135875
6.250000	1	0.133000
6.266667	1	0.129500
6.283333	1	0.126250
6.300000	1	0.123250
6.316667	1	0.119875
6.333333	1	0.116875
6.350000	1	0.114000
6.366667	1	0.111750
6.383333	1	0.109625
6.400000	1	0.106625
6.416667	1	0.104375
6.433333	1	0.101750
6.450000	1	0.099875
6.466667	1	0.097875
6.483333	1	0.096500
6.500000	1	0.094500
6.516667	1	0.093000
6.533333	1	0.091625
6.550000	1	0.089625
6.566667	1	0.089250
6.583333	1	0.088000
6.600000	1	0.087750
6.616667	1	0.086500
6.633333	1	0.085500
6.650000	1	0.084625
6.666667	1	0.084500
6.683333	1	0.083750
6.700000	1	0.083750
6.716667	1	0.083375
6.733333	1	0.083875
6.750000	1	0.083875
6.766667	1	0.083875
6.783333	1	0.083625
6.800000	1	0.083125
6.816667	1	0.083000
6.833333	1	0.083500
6.850000	1	0.084000
6.866667	1	0.084750
6.883333	1	0.084375
6.900000	1	0.084750
6.916667	1	0.085125
6.933333	1	0.085750
6.950000	1	0.085750
6.966667	1	0.086125
6.983333	1	0.086625
7.000000	1	0.087375
7.016667	1	0.088000
7.033333	1	0.088375
7.050000	1	0.088625
7.066667	1	0.088875
7.083333	1	0.089625
7.100000	1	0.090375
7.116667	1	0.090875
7.133333	1	0.091750
7.150000	1	0.093000
7.166667	1	0.093875
7.183333	1	0.094500
7.200000	1	0.095625
7.216667	1	0.096875
7.233333	1	0.097750
7.250000	1	0.098000
7.266667	1	0.098375
7.283333	1	0.098500
7.300000	1	0.098750
7.316667	1	0.098625
7.333333	1	0.099000
7.350000	1	0.099375
7.366667	1	0.100000
7.383333	1	0.099750
7.400000	1	0.100250
7.416667	1	0.099625
7.433333	1	0.098875
7.450000	1	0.097000
7.466667	1	0.095875
7.483333	1	0.094625
7.500000	1	0.093125
7.516667	1	0.091750
7.533333	1	0.089875
7.550000	1	0.087375
7.566667	1	0.084500
7.583333	1	0.081875
7.600000	1	0.078875
7.616667	1	0.075500
7.633333	1	0.072250
7.650000	1	0.069625
7.666667	1	0.066500
7.683333	1	0.062375
7.700000	1	0.059000
7.716667	1	0.055625
7.733333	1	0.052375
7.750000	1	0.048875
7.766667	1	0.045250
7.783333	1	0.041750
7.800000	1	0.037750
7.816667	1	0.034000
7.833333	1	0.029750
7.850000	1	0.026000
7.866667	1	0.020750
7.883333	1	0.016000
7.900000	1	0.012250
7.916667	1	0.008875
7.933333	1	0.005625
7.950000	1	0.002875
7.966667	1	-0.000750
7.983333	1	-0.003500
8.000000	1	-0.005750
8.016667	1	-0.008625
8.033333	1	-0.010500
8.050000	1	-0.012750
8.066667	1	-0.014250
8.083333	1	-0.016125
8.100000	1	-0.017625
8.116667	1	-0.019000
8.133333	1	-0.019375
8.150000	1	-0.020250
8.166667	1	-0.020375
8.183333	1	-0.020000
8.200000	1	-0.020000
8.216667	1	-0.020250
8.233333	1	-0.019625
8.250000	1	-0.019875
8.266667	1	-0.019125
8.283333	1	-0.018625
8.300000	1	-0.017500
8.316667	1	-0.015750
8.333333	1	-0.014500
8.350000	1	-0.013625
8.366667	1	-0.012375
8.383333	1	-0.011250
8.400000	1	-0.010625
8.416667	1	-0.009875
8.433333	1	-0.009125
8.450000	1	-0.007625
8.466667	1	-0.007000
8.483333	1	-0.005500
8.500000	1	-0.004000
8.516667	1	-0.002375
8.533333	1	-0.000875
8.550000	1	0.000750
8.566667	1	0.002250
8.583333	1	0.003375
8.600000	1	0.004125
8.616667	1	0.005250
8.633333	1	0.006000
8.650000	1	0.007000
8.666667	1	0.008125
8.683333	1	0.008750
8.700000	1	0.010125
8.716667	1	0.011000
8.733333	1	0.011750
8.750000	1	0.012500
8.766667	1	0.013250
8.783333	1	0.014000
8.800000	1	0.015250
8.816667	1	0.016000
8.833333	1	0.016375
8.850000	1	0.017250
8.866667	1	0.018250
8.883333	1	0.018375
8.900000	1	0.019375
8.916667	1	0.020500
8.933333	1	0.021375
8.950000	1	0.022000
8.966667	1	0.023000
8.983333	1	0.024125
9.000000	1	0.024875
9.016667	1	0.025250
9.033333	1	0.025625
9.050000	1	0.026250
9.066667	1	0.027250
9.083333	1	0.027875
9.100000	1	0.028625
9.116667	1	0.028875
9.133333	1	0.028875
9.150000	1	0.029750
9.166667	1	0.029875
9.183333	1	0.030250
9.200000	1	0.030250
9.216667	1	0.030500
9.233333	1	0.030375
9.250000	1	0.029750
9.266667	1	0.029000
9.283333	1	0.028625
9.300000	1	0.029000
9.316667	1	0.029000
9.333333	1	0.028750
9.350000	1	0.028000
9.366667	1	0.027875
9.383333	1	0.027750
9.400000	1	0.027500
9.416667	1	0.026500
9.433333	1	0.025250
9.450000	1	0.024500
9.466667	1	0.023500
9.483333	1	0.022250
9.500000	1	0.022500
9.516667	1	0.022125
9.533333	1	0.020875
9.550000	1	0.019875
9.566667	1	0.019250
9.583333	1	0.017500
9.600000	1	0.015625
9.616667	1	0.015500
9.633333	1	0.014125
9.650000	1	0.013625
9.666667	1	0.013375
9.683333	1	0.012500
9.700000	1	0.012500
9.716667	1	0.012250
9.733333	1	0.012375
9.750000	1	0.012375
9.766667	1	0.013000
9.783333	1	0.013125
9.800000	1	0.013000
9.816667	1	0.013875
9.833333	1	0.013500
9.850000	1	0.013500
9.866667	1	0.013625
9.883333	1	0.013875
9.900000	1	0.013875
9.916667	1	0.014000
9.933333	1	0.013500
9.950000	1	0.013500
9.966667	1	0.013750
9.983333	1	0.014250
10.000000	1	0.014000
10.016667	1	0.014250
10.033333	1	0.014375
10.050000	1	0.014375
10.066667	1	0.014875
10.083333	1	0.015875
10.100000	1	0.016375
10.116667	1	0.017875
10.133333	1	0.021000
10.150000	1	0.024500
10.166667	1	0.028875
10.183333	1	0.034625
10.200000	1	0.041500
10.216667	1	0.049875
10.233333	1	0.059500
10.250000	1	0.071500
10.266667	1	0.085625
10.283333	1	0.102250
10.300000	1	0.121500
10.316667	1	0.142750
10.333333	1	0.166125
10.350000	1	0.192125
10.366667	1	0.218500
10.383333	1	0.244125
10.400000	1	0.266000
10.416667	1	0.282375
10.433333	1	0.291250
10.450000	1	0.292500
10.466667	1	0.287500
10.483333	1	0.283625
10.500000	1	0.294250
10.516667	1	0.339750
10.533333	1	0.450875
10.550000	1	0.668625
10.566667	1	1.043625
10.583333	1	1.632125
10.600000	1	2.491875
10.616667	1	3.678375
10.633333	1	5.233750
10.650000	1	7.190125
10.666667	1	9.565625
10.683333	1	12.362750
10.700000	1	15.568125
10.716667	1	19.150000
10.733333	1	23.058250
10.750000	1	27.216875
10.766667	1	31.516625
10.783333	1	35.810625
10.800000	1	39.896875
10.816667	1	43.510875
10.833333	1	46.331250
10.850000	1	48.025500
10.866667	1	48.310875
10.883333	1	47.040375
10.900000	1	44.276625
10.916667	1	40.300625
10.933333	1	35.546125
10.950000	1	30.487250
10.966667	1	25.540875
10.983333	1	20.995500
11.000000	1	17.012625
11.016667	1	13.648250
11.033333	1	10.889000
11.050000	1	8.675875
11.066667	1	6.933375
11.083333	1	5.578625
11.100000	1	4.535750
11.116667	1	3.738500
11.133333	1	3.131250
11.150000	1	2.669000
11.166667	1	2.317375
11.183333	1	2.048375
11.200000	1	1.842375
11.216667	1	1.685000
11.233333	1	1.563125
11.250000	1	1.467875
11.266667	1	1.391625
11.283333	1	1.329000
11.300000	1	1.276625
11.316667	1	1.231625
11.333333	1	1.191375
11.350000	1	1.155125
11.366667	1	1.121875
11.383333	1	1.091125
11.400000	1	1.061625
11.416667	1	1.034375
11.433333	1	1.010625
11.450000	1	0.989500
11.466667	1	0.970875
11.483333	1	0.955625
11.500000	1	0.943125
11.516667	1	0.933750
11.533333	1	0.927375
11.550000	1	0.924875
11.566667	1	0.926500
11.583333	1	0.931875
11.600000	1	0.942125
11.616667	1	0.957000
11.633333	1	0.976375
11.650000	1	0.999375
11.666667	1	1.026750
11.683333	1	1.057000
11.700000	1	1.090125
11.716667	1	1.124625
11.733333	1	1.158250
11.750000	1	1.188875
11.766667	1	1.215875
11.783333	1	1.238125
11.800000	1	1.253250
11.816667	1	1.262375
11.833333	1	1.265000
11.850000	1	1.261750
11.866667	1	1.252125
11.883333	1	1.238375
11.900000	1	1.221375
11.916667	1	1.203250
11.933333	1	1.183000
11.950000	1	1.163375
11.966667	1	1.144875
11.983333	1	1.127375
12.000000	1	1.112000
12.016667	1	1.098250
12.033333	1	1.087750
12.050000	1	1.077625
12.066667	1	1.070250
12.083333	1	1.065000
12.100000	1	1.061750
12.116667	1	1.060250
12.133333	1	1.058875
12.150000	1	1.059750
12.166667	1	1.062000
12.183333	1	1.065875
12.200000	1	1.071750
12.216667	1	1.079375
12.233333	1	1.090625
12.250000	1	1.106625
12.266667	1	1.129500
12.283333	1	1.160375
12.300000	1	1.202625
12.316667	1	1.260500
12.333333	1	1.339375
12.350000	1	1.447500
12.366667	1	1.593625
12.383333	1	1.792125
12.400000	1	2.060250
12.416667	1	2.420000
12.433333	1	2.901250
12.450000	1	3.544375
12.466667	1	4.398625
12.483333	1	5.526125
12.500000	1	7.000125
12.516667	1	8.904000
12.533333	1	11.326250
12.550000	1	14.352875
12.566667	1	18.060625
12.583333	1	22.500625
12.600000	1	27.685375
12.616667	1	33.569000
12.633333	1	40.054750
12.650000	1	46.978875
12.666667	1	54.112125
12.683333	1	61.168125
12.700000	1	67.820750
12.716667	1	73.739375
12.733333	1	78.614750
12.750000	1	82.199375
12.766667	1	84.329500
12.783333	1	84.939500
12.800000	1	84.068875
12.816667	1	81.857500
12.833333	1	78.516125
12.850000	1	74.306375
12.866667	1	69.514625
12.883333	1	64.428000
12.900000	1	59.311625
12.916667	1	54.386875
12.933333	1	49.825375
12.950000	1	45.742750
12.966667	1	42.203875
12.983333	1	39.228750
13.000000	1	36.808250
13.016667	1	34.907750
13.033333	1	33.478000
13.050000	1	32.462000
13.066667	1	31.806875
13.083333	1	31.459000
13.100000	1	31.370000
13.116667	1	31.497750
13.133333	1	31.803500
13.150000	1	32.258375
13.166667	1	32.836125
13.183333	1	33.515500
13.200000	1	34.277750
13.216667	1	35.110000
13.233333	1	36.003125
13.250000	1	36.948500
13.266667	1	37.939625
13.283333	1	38.971750
13.300000	1	40.041625
13.316667	1	41.146125
13.333333	1	42.281500
13.350000	1	43.448500
13.366667	1	44.645625
13.383333	1	45.870875
13.400000	1	47.124000
13.416667	1	48.406000
13.433333	1	49.717625
13.450000	1	51.058375
13.466667	1	52.430875
13.483333	1	53.833750
13.500000	1	55.267750
13.516667	1	56.732875
13.533333	1	58.227250
13.550000	1	59.752625
13.566667	1	61.310250
13.583333	1	62.899125
13.600000	1	64.519375
13.616667	1	66.172250
13.633333	1	67.860125
13.650000	1	69.583750
13.666667	1	71.342375
13.683333	1	73.129125
13.700000	1	74.913250
13.716667	1	76.615000
13.733333	1	78.094125
13.750000	1	79.160125
13.766667	1	79.622625
13.783333	1	79.321750
13.800000	1	78.128125
13.816667	1	75.908875
13.833333	1	72.493875
13.850000	1	67.710125
13.866667	1	61.512500
13.883333	1	54.151500
13.900000	1	46.194875
13.916667	1	38.360500
13.933333	1	31.241250
13.950000	1	25.164000
13.966667	1	20.199250
13.983333	1	16.257750
14.000000	1	13.185250
14.016667	1	10.820750
14.033333	1	9.023125
14.050000	1	7.672000
14.066667	1	6.665875
14.083333	1	5.919500
14.100000	1	5.364875
14.116667	1	4.948500
14.133333	1	4.630750
14.150000	1	4.383250
14.166667	1	4.185750
14.183333	1	4.025125
14.200000	1	3.891375
14.216667	1	3.777125
14.233333	1	3.677250
14.250000	1	3.588750
14.266667	1	3.508625
14.283333	1	3.435375
14.300000	1	3.368625
14.316667	1	3.306250
14.333333	1	3.249000
14.350000	1	3.195875
14.366667	1	3.146625
14.383333	1	3.101000
14.400000	1	3.058625
14.416667	1	3.019000
14.433333	1	2.982375
14.450000	1	2.948375
14.466667	1	2.917000
14.483333	1	2.888125
14.500000	1	2.861125
14.516667	1	2.835375
14.533333	1	2.810500
14.550000	1	2.786750
14.566667	1	2.763750
14.583333	1	2.741125
14.600000	1	2.718750
14.616667	1	2.696625
14.633333	1	2.674875
14.650000	1	2.652875
14.666667	1	2.631250
14.683333	1	2.611000
14.700000	1	2.592000
14.716667	1	2.573625
14.733333	1	2.557125
14.750000	1	2.543250
14.766667	1	2.530625
14.783333	1	2.519125
14.800000	1	2.509125
14.816667	1	2.498625
14.833333	1	2.488125
14.850000	1	2.475125
14.866667	1	2.460250
14.883333	1	2.442500
14.900000	1	2.421000
14.916667	1	2.395625
14.933333	1	2.367000
14.950000	1	2.334250
14.966667	1	2.299000
14.983333	1	2.261000
15.000000	1	2.221750
15.016667	1	2.180750
15.033333	1	2.140250
15.050000	1	2.100375
15.066667	1	2.062000
15.083333	1	2.025250
15.100000	1	1.991250
15.116667	1	1.958500
15.133333	1	1.929625
15.150000	1	1.902250
15.166667	1	1.878000
15.183333	1	1.855625
15.200000	1	1.835875
15.216667	1	1.818500
15.233333	1	1.803125
15.250000	1	1.790875
15.266667	1	1.780625
15.283333	1	1.773500
15.300000	1	1.769250
15.316667	1	1.769500
15.333333	1	1.773250
15.350000	1	1.781875
15.366667	1	1.795000
15.383333	1	1.813250
15.400000	1	1.836750
15.416667	1	1.864250
15.433333	1	1.895875
15.450000	1	1.929875
15.466667	1	1.964500
15.483333	1	1.998625
15.500000	1	2.030250
15.516667	1	2.056500
15.533333	1	2.076375
15.550000	1	2.088000
15.566667	1	2.090750
15.583333	1	2.083625
15.600000	1	2.067875
15.616667	1	2.043750
15.633333	1	2.012500
15.650000	1	1.975750
15.666667	1	1.935000
15.683333	1	1.892250
15.700000	1	1.848625
15.716667	1	1.805500
15.733333	1	1.763625
15.750000	1	1.723000
15.766667	1	1.683500
15.783333	1	1.646750
15.800000	1	1.611625
15.816667	1	1.578375
15.833333	1	1.547125
15.850000	1	1.517000
15.866667	1	1.488375
15.883333	1	1.460875
15.900000	1	1.435125
15.916667	1	1.410750
15.933333	1	1.387500
15.950000	1	1.367000
15.966667	1	1.349125
15.983333	1	1.332375
16.000000	1	1.317375
16.016667	1	1.305375
16.033333	1	1.295125
16.050000	1	1.286625
16.066667	1	1.279625
16.083333	1	1.274750
16.100000	1	1.270125
16.116667	1	1.267750
16.133333	1	1.266000
16.150000	1	1.264625
16.166667	1	1.263750
16.183333	1	1.262500
16.200000	1	1.261875
16.216667	1	1.260750
16.233333	1	1.258750
16.250000	1	1.256125
16.266667	1	1.252500
16.283333	1	1.248750
16.300000	1	1.244125
16.316667	1	1.238250
16.333333	1	1.231750
16.350000	1	1.224375
16.366667	1	1.216750
16.383333	1	1.208500
16.400000	1	1.201125
16.416667	1	1.195000
16.433333	1	1.188375
16.450000	1	1.183375
16.466667	1	1.179750
16.483333	1	1.177875
16.500000	1	1.178375
16.516667	1	1.181000
16.533333	1	1.184250
16.550000	1	1.190375
16.566667	1	1.197750
16.583333	1	1.206000
16.600000	1	1.213875
16.616667	1	1.221750
16.633333	1	1.229250
16.650000	1	1.236250
16.666667	1	1.242250
16.683333	1	1.246875
16.700000	1	1.250000
16.716667	1	1.252125
16.733333	1	1.253875
16.750000	1	1.255375
16.766667	1	1.257375
16.783333	1	1.258500
16.800000	1	1.260125
16.816667	1	1.263375
16.833333	1	1.267000
16.850000	1	1.271500
16.866667	1	1.276250
16.883333	1	1.280500
16.900000	1	1.284875
16.916667	1	1.288750
16.933333	1	1.292250
16.950000	1	1.294375
16.966667	1	1.294750
16.983333	1	1.294750
17.000000	1	1.293750
17.016667	1	1.291250
17.033333	1	1.287750
17.050000	1	1.283250
17.066667	1	1.278000
17.083333	1	1.272875
17.100000	1	1.267875
17.116667	1	1.263625
17.133333	1	1.259500
17.150000	1	1.256625
17.166667	1	1.254500
17.183333	1	1.253750
17.200000	1	1.253375
17.216667	1	1.254375
17.233333	1	1.256625
17.250000	1	1.259125
17.266667	1	1.263250
17.283333	1	1.267750
17.300000	1	1.273375
17.316667	1	1.279375
17.333333	1	1.285250
17.350000	1	1.291375
17.366667	1	1.297500
17.383333	1	1.304000
17.400000	1	1.310125
17.416667	1	1.315625
17.433333	1	1.320250
17.450000	1	1.323750
17.466667	1	1.325750
17.483333	1	1.326500
17.500000	1	1.324875
17.516667	1	1.323125
17.533333	1	1.318375
17.550000	1	1.312375
17.566667	1	1.304125
17.583333	1	1.294500
17.600000	1	1.284000
17.616667	1	1.272000
17.633333	1	1.258625
17.650000	1	1.245125
17.666667	1	1.230250
17.683333	1	1.214750
17.700000	1	1.199875
17.716667	1	1.185250
17.733333	1	1.170125
17.750000	1	1.155000
17.766667	1	1.140500
17.783333	1	1.127000
17.800000	1	1.113875
17.816667	1	1.100625
17.833333	1	1.087875
17.850000	1	1.074750
17.866667	1	1.062750
17.883333	1	1.051250
17.900000	1	1.040625
17.916667	1	1.030000
17.933333	1	1.019750
17.950000	1	1.010000
17.966667	1	1.000750
17.983333	1	0.991875
18.000000	1	0.983000
18.016667	1	0.973875
18.033333	1	0.965750
18.050000	1	0.957375
18.066667	1	0.948500
18.083333	1	0.939625
18.100000	1	0.931750
18.116667	1	0.923625
18.133333	1	0.915625
18.150000	1	0.908625
18.166667	1	0.902000
18.183333	1	0.896125
18.200000	1	0.890875
18.216667	1	0.886625
18.233333	1	0.882500
18.250000	1	0.878750
18.266667	1	0.875500
18.283333	1	0.873250
18.300000	1	0.870750
18.316667	1	0.870000
18.333333	1	0.869250
18.350000	1	0.869250
18.366667	1	0.869375
18.383333	1	0.870500
18.400000	1	0.871125
18.416667	1	0.873125
18.433333	1	0.875500
18.450000	1	0.878750
18.466667	1	0.883375
18.483333	1	0.889125
18.500000	1	0.896875
18.516667	1	0.905750
18.533333	1	0.916875
18.550000	1	0.929375
18.566667	1	0.944125
18.583333	1	0.961500
18.600000	1	0.980750
18.616667	1	1.002750
18.633333	1	1.026250
18.650000	1	1.050875
18.666667	1	1.077750
18.683333	1	1.107000
18.700000	1	1.137375
18.716667	1	1.169750
18.733333	1	1.203250
18.750000	1	1.237000
18.766667	1	1.271375
18.783333	1	1.305875
18.800000	1	1.340625
18.816667	1	1.375000
18.833333	1	1.407375
18.850000	1	1.437125
18.866667	1	1.463750
18.883333	1	1.487125
18.900000	1	1.506375
18.916667	1	1.520250
18.933333	1	1.528625
18.950000	1	1.530625
18.966667	1	1.525625
18.983333	1	1.514500
19.000000	1	1.496250
19.016667	1	1.471250
19.033333	1	1.440000
19.050000	1	1.403000
19.066667	1	1.360625
19.083333	1	1.314000
19.100000	1	1.264625
19.116667	1	1.213750
19.133333	1	1.162000
19.150000	1	1.110375
19.166667	1	1.060000
19.183333	1	1.011250
19.200000	1	0.966000
19.216667	1	0.924500
19.233333	1	0.887000
19.250000	1	0.854500
19.266667	1	0.826625
19.283333	1	0.805375
19.300000	1	0.789250
19.316667	1	0.778125
19.333333	1	0.773250
19.350000	1	0.774375
19.366667	1	0.781125
19.383333	1	0.793750
19.400000	1	0.810375
19.416667	1	0.832250
19.433333	1	0.858500
19.450000	1	0.887750
19.466667	1	0.919625
19.483333	1	0.954250
19.500000	1	0.989500
19.516667	1	1.024625
19.533333	1	1.059750
19.550000	1	1.092125
19.566667	1	1.121375
19.583333	1	1.146625
19.600000	1	1.167250
19.616667	1	1.182875
19.633333	1	1.192125
19.650000	1	1.196000
19.666667	1	1.193875
19.683333	1	1.186375
19.700000	1	1.174000
19.716667	1	1.157000
19.733333	1	1.135625
19.750000	1	1.111000
19.766667	1	1.082750
19.783333	1	1.052750
19.800000	1	1.021625
19.816667	1	0.989750
19.833333	1	0.957250
19.850000	1	0.925500
19.866667	1	0.894500
19.883333	1	0.864125
19.900000	1	0.835125
19.916667	1	0.808250
19.933333	1	0.783500
19.950000	1	0.760125
19.966667	1	0.739125
19.983333	1	0.721500
20.000000	1	0.705125
20.016667	1	0.690875
20.033333	1	0.678500
20.050000	1	0.669125
20.066667	1	0.662250
20.083333	1	0.658500
20.100000	1	0.656375
20.116667	1	0.656250
20.133333	1	0.659500
20.150000	1	0.665125
20.166667	1	0.673375
20.183333	1	0.682625
20.200000	1	0.694000
20.216667	1	0.707000
20.233333	1	0.720125
20.250000	1	0.734250
20.266667	1	0.748000
20.283333	1	0.760375
20.300000	1	0.771250
20.316667	1	0.780250
20.333333	1	0.787750
20.350000	1	0.792375
20.366667	1	0.793875
20.383333	1	0.791750
20.400000	1	0.787500
20.416667	1	0.779375
20.433333	1	0.769125
20.450000	1	0.757500
20.466667	1	0.744000
20.483333	1	0.730875
20.500000	1	0.719000
20.516667	1	0.707875
20.533333	1	0.699000
20.550000	1	0.693875
20.566667	1	0.693375
20.583333	1	0.698500
20.600000	1	0.708625
20.616667	1	0.725500
20.633333	1	0.749375
20.650000	1	0.781375
20.666667	1	0.821375
20.683333	1	0.869000
20.700000	1	0.923625
20.716667	1	0.985625
20.733333	1	1.052875
20.750000	1	1.124875
20.766667	1	1.200250
20.783333	1	1.275875
20.800000	1	1.350125
20.816667	1	1.421125
20.833333	1	1.486125
20.850000	1	1.544250
20.866667	1	1.591000
20.883333	1	1.625375
20.900000	1	1.646875
20.916667	1	1.655125
20.933333	1	1.649125
20.950000	1	1.629750
20.966667	1	1.597250
20.983333	1	1.553750
21.000000	1	1.499625
21.016667	1	1.437125
21.033333	1	1.369625
21.050000	1	1.297250
21.066667	1	1.222500
21.083333	1	1.147625
21.100000	1	1.074500
21.116667	1	1.003250
21.133333	1	0.936250
21.150000	1	0.873625
21.166667	1	0.815500
21.183333	1	0.762250
21.200000	1	0.714750
21.216667	1	0.672000
21.233333	1	0.634125
21.250000	1	0.600000
21.266667	1	0.570625
21.283333	1	0.545125
21.300000	1	0.523750
21.316667	1	0.505500
21.333333	1	0.489500
21.350000	1	0.476000
21.366667	1	0.464125
21.383333	1	0.454500
21.400000	1	0.446875
21.416667	1	0.440000
21.433333	1	0.434625
21.450000	1	0.430375
21.466667	1	0.426000
21.483333	1	0.423625
21.500000	1	0.422750
21.516667	1	0.421875
21.533333	1	0.422375
21.550000	1	0.424125
21.566667	1	0.426750
21.583333	1	0.430125
21.600000	1	0.434500
21.616667	1	0.441125
21.633333	1	0.449000
21.650000	1	0.458500
21.666667	1	0.469750
21.683333	1	0.482375
21.700000	1	0.497000
21.716667	1	0.513750
21.733333	1	0.532875
21.750000	1	0.553625
21.766667	1	0.576250
21.783333	1	0.600625
21.800000	1	0.626625
21.816667	1	0.654250
21.833333	1	0.683250
21.850000	1	0.712875
21.866667	1	0.742625
21.883333	1	0.773125
21.900000	1	0.803125
21.916667	1	0.831875
21.933333	1	0.859000
21.950000	1	0.883500
21.966667	1	0.905875
21.983333	1	0.925500
22.000000	1	0.942000
22.016667	1	0.954875
22.033333	1	0.963750
22.050000	1	0.968500
22.066667	1	0.969750
22.083333	1	0.966375
22.100000	1	0.960000
22.116667	1	0.949500
22.133333	1	0.937000
22.150000	1	0.920625
22.166667	1	0.902500
22.183333	1	0.882625
22.200000	1	0.861000
22.216667	1	0.838000
22.233333	1	0.814125
22.250000	1	0.789500
22.266667	1	0.764500
22.283333	1	0.739875
22.300000	1	0.715125
22.316667	1	0.691250
22.333333	1	0.666125
22.350000	1	0.642250
22.366667	1	0.619000
22.383333	1	0.597250
22.400000	1	0.574875
22.416667	1	0.553750
22.433333	1	0.534375
22.450000	1	0.515375
22.466667	1	0.497250
22.483333	1	0.480875
22.500000	1	0.465500
22.516667	1	0.452000
22.533333	1	0.439000
22.550000	1	0.427000
22.566667	1	0.416375
22.583333	1	0.405875
22.600000	1	0.396125
22.616667	1	0.387375
22.633333	1	0.379500
22.650000	1	0.372250
22.666667	1	0.365750
22.683333	1	0.359500
22.700000	1	0.353625
22.716667	1	0.347375
22.733333	1	0.342125
22.750000	1	0.337375
22.766667	1	0.333375
22.783333	1	0.329000
22.800000	1	0.324625
22.816667	1	0.320750
22.833333	1	0.316750
22.850000	1	0.312875
22.866667	1	0.310125
22.883333	1	0.307375
22.900000	1	0.304125
22.916667	1	0.302250
22.933333	1	0.299375
22.950000	1	0.297875
22.966667	1	0.296500
22.983333	1	0.295000
23.000000	1	0.294500
23.016667	1	0.293500
23.033333	1	0.293750
23.050000	1	0.294125
23.066667	1	0.294875
23.083333	1	0.296125
23.100000	1	0.297625
23.116667	1	0.299375
23.133333	1	0.301625
23.150000	1	0.304125
23.166667	1	0.306750
23.183333	1	0.309750
23.200000	1	0.313750
23.216667	1	0.317375
23.233333	1	0.322750
23.250000	1	0.328375
23.266667	1	0.334625
23.283333	1	0.342125
23.300000	1	0.351250
23.316667	1	0.361625
23.333333	1	0.373375
23.350000	1	0.389250
23.366667	1	0.407875
23.383333	1	0.430500
23.400000	1	0.457125
23.416667	1	0.489625
23.433333	1	0.527750
23.450000	1	0.573625
23.466667	1	0.628125
23.483333	1	0.692625
23.500000	1	0.768000
23.516667	1	0.855500
23.533333	1	0.956750
23.550000	1	1.073000
23.566667	1	1.204750
23.583333	1	1.352750
23.600000	1	1.517500
23.616667	1	1.698875
23.633333	1	1.895875
23.650000	1	2.108750
23.666667	1	2.335875
23.683333	1	2.574500
23.700000	1	2.822625
23.716667	1	3.077125
23.733333	1	3.333375
23.750000	1	3.586500
23.766667	1	3.831375
23.783333	1	4.063375
23.800000	1	4.277875
23.816667	1	4.469125
23.833333	1	4.633125
23.850000	1	4.766375
23.866667	1	4.864875
23.883333	1	4.926625
23.900000	1	4.951125
23.916667	1	4.937750
23.933333	1	4.886625
23.950000	1	4.800750
23.966667	1	4.682500
23.983333	1	4.534500
24.000000	1	4.362000
24.016667	1	4.167750
24.033333	1	3.959000
24.050000	1	3.738750
24.066667	1	3.511750
24.083333	1	3.281125
24.100000	1	3.051750
24.116667	1	2.826000
24.133333	1	2.606375
24.150000	1	2.396750
24.166667	1	2.197250
24.183333	1	2.010375
24.200000	1	1.836500
24.216667	1	1.676000
24.233333	1	1.528000
24.250000	1	1.393375
24.266667	1	1.272375
24.283333	1	1.163125
24.300000	1	1.065250
24.316667	1	0.978125
24.333333	1	0.900875
24.350000	1	0.833125
24.366667	1	0.773875
24.383333	1	0.722125
24.400000	1	0.678000
24.416667	1	0.639875
24.433333	1	0.607125
24.450000	1	0.579375
24.466667	1	0.556625
24.483333	1	0.538250
24.500000	1	0.522000
24.516667	1	0.508500
24.533333	1	0.497875
24.550000	1	0.488875
24.566667	1	0.481125
24.583333	1	0.474875
24.600000	1	0.468750
24.616667	1	0.463250
24.633333	1	0.459250
24.650000	1	0.454000
24.666667	1	0.449250
24.683333	1	0.445125
24.700000	1	0.440750
24.716667	1	0.436250
24.733333	1	0.431125
24.750000	1	0.425750
24.766667	1	0.420250
24.783333	1	0.415000
24.800000	1	0.409625
24.816667	1	0.404375
24.833333	1	0.398875
24.850000	1	0.393250
24.866667	1	0.388375
24.883333	1	0.383750
24.900000	1	0.379875
24.916667	1	0.374875
24.933333	1	0.370125
24.950000	1	0.366375
24.966667	1	0.362625
24.983333	1	0.358250
25.000000	1	0.354625
25.016667	1	0.350875
25.033333	1	0.347375
25.050000	1	0.343875
25.066667	1	0.340625
25.083333	1	0.337250
25.100000	1	0.334375
25.116667	1	0.331500
25.133333	1	0.328500
25.150000	1	0.324875
25.166667	1	0.321750
25.183333	1	0.318125
25.200000	1	0.314500
25.216667	1	0.311000
25.233333	1	0.307625
25.250000	1	0.304500
25.266667	1	0.300875
25.283333	1	0.297750
25.300000	1	0.294750
25.316667	1	0.290875
25.333333	1	0.286125
25.350000	1	0.282500
25.366667	1	0.279500
25.383333	1	0.276125
25.400000	1	0.272875
25.416667	1	0.270750
25.433333	1	0.267500
25.450000	1	0.264875
25.466667	1	0.263000
25.483333	1	0.261375
25.500000	1	0.260125
25.516667	1	0.258375
25.533333	1	0.257125
25.550000	1	0.255250
25.566667	1	0.253125
25.583333	1	0.252125
25.600000	1	0.250375
25.616667	1	0.249375
25.633333	1	0.248250
25.650000	1	0.247625
25.666667	1	0.247000
25.683333	1	0.246250
25.700000	1	0.245500
25.716667	1	0.245375
25.733333	1	0.244375
25.750000	1	0.243625
25.766667	1	0.243750
25.783333	1	0.243250
25.800000	1	0.243750
25.816667	1	0.244375
25.833333	1	0.245375
25.850000	1	0.245750
25.866667	1	0.247125
25.883333	1	0.249125
25.900000	1	0.251750
25.916667	1	0.254250
25.933333	1	0.257250
25.950000	1	0.261250
25.966667	1	0.265000
25.983333	1	0.269000
26.000000	1	0.273375
26.016667	1	0.278250
26.033333	1	0.283375
26.050000	1	0.289125
26.066667	1	0.294625
26.083333	1	0.301000
26.100000	1	0.306750
26.116667	1	0.312625
26.133333	1	0.317625
26.150000	1	0.323000
26.166667	1	0.329125
26.183333	1	0.333875
26.200000	1	0.338250
26.216667	1	0.342500
26.233333	1	0.346000
26.250000	1	0.349375
26.266667	1	0.351625
26.283333	1	0.354000
26.300000	1	0.355500
26.316667	1	0.355875
26.333333	1	0.355625
26.350000	1	0.354125
26.366667	1	0.351875
26.383333	1	0.349125
26.400000	1	0.346250
26.416667	1	0.342875
26.433333	1	0.338750
26.450000	1	0.333750
26.466667	1	0.328250
26.483333	1	0.322250
26.500000	1	0.315750
26.516667	1	0.309250
26.533333	1	0.303125
26.550000	1	0.296875
26.566667	1	0.289750
26.583333	1	0.282500
26.600000	1	0.275875
26.616667	1	0.268500
26.633333	1	0.262125
26.650000	1	0.256125
26.666667	1	0.249875
26.683333	1	0.244125
26.700000	1	0.239125
26.716667	1	0.234250
26.733333	1	0.229500
26.750000	1	0.225125
26.766667	1	0.221250
26.783333	1	0.217250
26.800000	1	0.214000
26.816667	1	0.211375
26.833333	1	0.209625
26.850000	1	0.207875
26.866667	1	0.207125
26.883333	1	0.206375
26.900000	1	0.206625
26.916667	1	0.207125
26.933333	1	0.208000
26.950000	1	0.208625
26.966667	1	0.210375
26.983333	1	0.213000
27.000000	1	0.215625
27.016667	1	0.219500
27.033333	1	0.223500
27.050000	1	0.228000
27.066667	1	0.233625
27.083333	1	0.240000
27.100000	1	0.247500
27.116667	1	0.255125
27.133333	1	0.264375
27.150000	1	0.274250
27.166667	1	0.285625
27.183333	1	0.298875
27.200000	1	0.314125
27.216667	1	0.331000
27.233333	1	0.350250
27.250000	1	0.372750
27.266667	1	0.397375
27.283333	1	0.425500
27.300000	1	0.457250
27.316667	1	0.493500
27.333333	1	0.534500
27.350000	1	0.580500
27.366667	1	0.632750
27.383333	1	0.691875
27.400000	1	0.757625
27.416667	1	0.831375
27.433333	1	0.913125
27.450000	1	1.003125
27.466667	1	1.102625
27.483333	1	1.212250
27.500000	1	1.331000
27.516667	1	1.460125
27.533333	1	1.599250
27.550000	1	1.747375
27.566667	1	1.904625
27.583333	1	2.069500
27.600000	1	2.240750
27.616667	1	2.417750
27.633333	1	2.599875
27.650000	1	2.783250
27.666667	1	2.967000
27.683333	1	3.148625
27.700000	1	3.325250
27.716667	1	3.494875
27.733333	1	3.654125
27.750000	1	3.800875
27.766667	1	3.932250
27.783333	1	4.046000
27.800000	1	4.140000
27.816667	1	4.212750
27.833333	1	4.261250
27.850000	1	4.285250
27.866667	1	4.285125
27.883333	1	4.259625
27.900000	1	4.208625
27.916667	1	4.133875
27.933333	1	4.036500
27.950000	1	3.918500
27.966667	1	3.782000
27.983333	1	3.629625
28.000000	1	3.464125
28.016667	1	3.287625
28.033333	1	3.103875
28.050000	1	2.915500
28.066667	1	2.724500
28.083333	1	2.534125
28.100000	1	2.347375
28.116667	1	2.166375
28.133333	1	1.992500
28.150000	1	1.826250
28.166667	1	1.670125
28.183333	1	1.523125
28.200000	1	1.388000
28.216667	1	1.263250
28.233333	1	1.149625
28.250000	1	1.046625
28.266667	1	0.953625
28.283333	1	0.870750
28.300000	1	0.796875
28.316667	1	0.732000
28.333333	1	0.675875
28.350000	1	0.628000
28.366667	1	0.587375
28.383333	1	0.553750
28.400000	1	0.525625
28.416667	1	0.502500
28.433333	1	0.484250
28.450000	1	0.471250
28.466667	1	0.462125
28.483333	1	0.455875
28.500000	1	0.452625
28.516667	1	0.452625
28.533333	1	0.454875
28.550000	1	0.459625
28.566667	1	0.465500
28.583333	1	0.473750
28.600000	1	0.481750
28.616667	1	0.491375
28.633333	1	0.501000
28.650000	1	0.511250
28.666667	1	0.521750
28.683333	1	0.532500
28.700000	1	0.543250
28.716667	1	0.554250
28.733333	1	0.563750
28.750000	1	0.572875
28.766667	1	0.581125
28.783333	1	0.588000
28.800000	1	0.594250
28.816667	1	0.599750
28.833333	1	0.604750
28.850000	1	0.607750
28.866667	1	0.610125
28.883333	1	0.609500
28.900000	1	0.609000
28.916667	1	0.607625
28.933333	1	0.604625
28.950000	1	0.599750
28.966667	1	0.593500
28.983333	1	0.585750
29.000000	1	0.577625
29.016667	1	0.568375
29.033333	1	0.558000
29.050000	1	0.546875
29.066667	1	0.535500
29.083333	1	0.523500
29.100000	1	0.509750
29.116667	1	0.495625
29.133333	1	0.481000
29.150000	1	0.466375
29.166667	1	0.451125
29.183333	1	0.436125
29.200000	1	0.420625
29.216667	1	0.405000
29.233333	1	0.389625
29.250000	1	0.374750
29.266667	1	0.359625
29.283333	1	0.345375
29.300000	1	0.331500
29.316667	1	0.318500
29.333333	1	0.305125
29.350000	1	0.292375
29.366667	1	0.280875
29.383333	1	0.270250
29.400000	1	0.259625
29.416667	1	0.249500
29.433333	1	0.239500
29.450000	1	0.230000
29.466667	1	0.221375
29.483333	1	0.213500
29.500000	1	0.205375
29.516667	1	0.198500
29.533333	1	0.192750
29.550000	1	0.186375
29.566667	1	0.181000
29.583333	1	0.176125
29.600000	1	0.171875
29.616667	1	0.168000
29.633333	1	0.164000
29.650000	1	0.160125
29.666667	1	0.156875
29.683333	1	0.153625
29.700000	1	0.151125
29.716667	1	0.148625
29.733333	1	0.146250
29.750000	1	0.144250
29.766667	1	0.142750
29.783333	1	0.141375
29.800000	1	0.139750
29.816667	1	0.138750
29.833333	1	0.138000
29.850000	1	0.137500
29.866667	1	0.136625
29.883333	1	0.136000
29.900000	1	0.135000
29.916667	1	0.134500
29.933333	1	0.133500
29.950000	1	0.132875
29.966667	1	0.132375
29.983333	1	0.131875
30.000000	1	0.131250
30.016667	1	0.131000
30.033333	1	0.130750
30.050000	1	0.130375
30.066667	1	0.130500
30.083333	1	0.129875
30.100000	1	0.128875
30.116667	1	0.128625
30.133333	1	0.127875
30.150000	1	0.127500
30.166667	1	0.126500
30.183333	1	0.125500
30.200000	1	0.125000
30.216667	1	0.124625
30.233333	1	0.124250
30.250000	1	0.123625
30.266667	1	0.123625
30.283333	1	0.122750
30.300000	1	0.122875
30.316667	1	0.122000
30.333333	1	0.121000
30.350000	1	0.120875
30.366667	1	0.121375
30.383333	1	0.121625
30.400000	1	0.121375
30.416667	1	0.122375
30.433333	1	0.122625
30.450000	1	0.123625
30.466667	1	0.125250
30.483333	1	0.126875
30.500000	1	0.129125
30.516667	1	0.130500
30.533333	1	0.133250
30.550000	1	0.137125
30.566667	1	0.140250
30.583333	1	0.145625
30.600000	1	0.150375
30.616667	1	0.155500
30.633333	1	0.161625
30.650000	1	0.167875
30.666667	1	0.175125
30.683333	1	0.183000
30.700000	1	0.190750
30.716667	1	0.199750
30.733333	1	0.209125
30.750000	1	0.219750
30.766667	1	0.231250
30.783333	1	0.243125
30.800000	1	0.256500
30.816667	1	0.270500
30.833333	1	0.285250
30.850000	1	0.301875
30.866667	1	0.319875
30.883333	1	0.338375
30.900000	1	0.359125
30.916667	1	0.382625
30.933333	1	0.407250
30.950000	1	0.434250
30.966667	1	0.464750
30.983333	1	0.497625
31.000000	1	0.534250
31.016667	1	0.575125
31.033333	1	0.620250
31.050000	1	0.669500
31.066667	1	0.723750
31.083333	1	0.783500
31.100000	1	0.849625
31.116667	1	0.921375
31.133333	1	0.998000
31.150000	1	1.082125
31.166667	1	1.172750
31.183333	1	1.270125
31.200000	1	1.373500
31.216667	1	1.482875
31.233333	1	1.598125
31.250000	1	1.718250
31.266667	1	1.843375
31.283333	1	1.971875
31.300000	1	2.103375
31.316667	1	2.236000
31.333333	1	2.369500
31.350000	1	2.501875
31.366667	1	2.631625
31.383333	1	2.757875
31.400000	1	2.877625
31.416667	1	2.991500
31.433333	1	3.096875
31.450000	1	3.192000
31.466667	1	3.276000
31.483333	1	3.347375
31.500000	1	3.405375
31.516667	1	3.448875
31.533333	1	3.478125
31.550000	1	3.492125
31.566667	1	3.490375
31.583333	1	3.473750
31.600000	1	3.442000
31.616667	1	3.396125
31.633333	1	3.337125
31.650000	1	3.264875
31.666667	1	3.180875
31.683333	1	3.086750
31.700000	1	2.984000
31.716667	1	2.873375
31.733333	1	2.756875
31.750000	1	2.636000
31.766667	1	2.511375
31.783333	1	2.385250
31.800000	1	2.259000
31.816667	1	2.131875
31.833333	1	2.006125
31.850000	1	1.882625
31.866667	1	1.762875
31.883333	1	1.647125
31.900000	1	1.536375
31.916667	1	1.431125
31.933333	1	1.329750
31.950000	1	1.234625
31.966667	1	1.144750
31.983333	1	1.060375
32.000000	1	0.981500
32.016667	1	0.909375
32.033333	1	0.842000
32.050000	1	0.779625
32.066667	1	0.722500
32.083333	1	0.669125
32.100000	1	0.620625
32.116667	1	0.575625
32.133333	1	0.534375
32.150000	1	0.496000
32.166667	1	0.461500
32.183333	1	0.429500
32.200000	1	0.399500
32.216667	1	0.372375
32.233333	1	0.347250
32.250000	1	0.323000
32.266667	1	0.300750
32.283333	1	0.280250
32.300000	1	0.261875
32.316667	1	0.244750
32.333333	1	0.229125
32.350000	1	0.213875
32.366667	1	0.199875
32.383333	1	0.186875
32.400000	1	0.175000
32.416667	1	0.164000
32.433333	1	0.154125
32.450000	1	0.144750
32.466667	1	0.136125
32.483333	1	0.128250
32.500000	1	0.121000
32.516667	1	0.114750
32.533333	1	0.108750
32.550000	1	0.103250
32.566667	1	0.098375
32.583333	1	0.094750
32.600000	1	0.091250
32.616667	1	0.088125
32.633333	1	0.085250
32.650000	1	0.083125
32.666667	1	0.081125
32.683333	1	0.079125
32.700000	1	0.077000
32.716667	1	0.076000
32.733333	1	0.074625
32.750000	1	0.073875
32.766667	1	0.072750
32.783333	1	0.072625
32.800000	1	0.071750
32.816667	1	0.070875
32.833333	1	0.069875
32.850000	1	0.069000
32.866667	1	0.068375
32.883333	1	0.067875
32.900000	1	0.067000
32.916667	1	0.066250
32.933333	1	0.066500
32.950000	1	0.065875
32.966667	1	0.065875
32.983333	1	0.065750
33.000000	1	0.066375
33.016667	1	0.066250
33.033333	1	0.066250
33.050000	1	0.065875
33.066667	1	0.066000
33.083333	1	0.066625
33.100000	1	0.067000
33.116667	1	0.067625
33.133333	1	0.068125
33.150000	1	0.068750
33.166667	1	0.069750
33.183333	1	0.070500
33.200000	1	0.072125
33.216667	1	0.073625
33.233333	1	0.074750
33.250000	1	0.076250
33.266667	1	0.078375
33.283333	1	0.081625
33.300000	1	0.083500
33.316667	1	0.086625
33.333333	1	0.090375
33.350000	1	0.094625
33.366667	1	0.098500
33.383333	1	0.102875
33.400000	1	0.107375
33.416667	1	0.112375
33.433333	1	0.118125
33.450000	1	0.124375
33.466667	1	0.130875
33.483333	1	0.137875
33.500000	1	0.145625
33.516667	1	0.154125
33.533333	1	0.163250
33.550000	1	0.173250
33.566667	1	0.184375
33.583333	1	0.195875
33.600000	1	0.208625
33.616667	1	0.222125
33.633333	1	0.236375
33.650000	1	0.251375
33.666667	1	0.267250
33.683333	1	0.283750
33.700000	1	0.301750
33.716667	1	0.319750
33.733333	1	0.338875
33.750000	1	0.358125
33.766667	1	0.378875
33.783333	1	0.399500
33.800000	1	0.421375
33.816667	1	0.442000
33.833333	1	0.462250
33.850000	1	0.482500
33.866667	1	0.502250
33.883333	1	0.520750
33.900000	1	0.539375
33.916667	1	0.556750
33.933333	1	0.574000
33.950000	1	0.588750
33.966667	1	0.601750
33.983333	1	0.612625
34.000000	1	0.621625
34.016667	1	0.629000
34.033333	1	0.634250
34.050000	1	0.638000
34.066667	1	0.639250
34.083333	1	0.638500
34.100000	1	0.635875
34.116667	1	0.630125
34.133333	1	0.622500
34.150000	1	0.613250
34.166667	1	0.602375
34.183333	1	0.590500
34.200000	1	0.576500
34.216667	1	0.561125
34.233333	1	0.544500
34.250000	1	0.527375
34.266667	1	0.509000
34.283333	1	0.489875
34.300000	1	0.471000
34.316667	1	0.452750
34.333333	1	0.434125
34.350000	1	0.415125
34.366667	1	0.397125
34.383333	1	0.378750
34.400000	1	0.362000
34.416667	1	0.345375
34.433333	1	0.329625
34.450000	1	0.313625
34.466667	1	0.298500
34.483333	1	0.284625
34.500000	1	0.272250
34.516667	1	0.259750
34.533333	1	0.248125
34.550000	1	0.238375
34.566667	1	0.228875
34.583333	1	0.220000
34.600000	1	0.211625
34.616667	1	0.204125
34.633333	1	0.197250
34.650000	1	0.191625
34.666667	1	0.185250
34.683333	1	0.180000
34.700000	1	0.175500
34.716667	1	0.171250
34.733333	1	0.167375
34.750000	1	0.162875
34.766667	1	0.158875
34.783333	1	0.155250
34.800000	1	0.152375
34.816667	1	0.149625
34.833333	1	0.146750
34.850000	1	0.144375
34.866667	1	0.142125
34.883333	1	0.140000
34.900000	1	0.138000
34.916667	1	0.136125
34.933333	1	0.134875
34.950000	1	0.133000
34.966667	1	0.130625
34.983333	1	0.130000
35.000000	1	0.128375
35.016667	1	0.127625
35.033333	1	0.126625
35.050000	1	0.126000
35.066667	1	0.125250
35.083333	1	0.124125
35.100000	1	0.124000
35.116667	1	0.123250
35.133333	1	0.123000
35.150000	1	0.123375
35.166667	1	0.123375
35.183333	1	0.124125
35.200000	1	0.124625
35.216667	1	0.125750
35.233333	1	0.126500
35.250000	1	0.126875
35.266667	1	0.128000
35.283333	1	0.129375
35.300000	1	0.130875
35.316667	1	0.132125
35.333333	1	0.133375
35.350000	1	0.134375
35.366667	1	0.135625
35.383333	1	0.137625
35.400000	1	0.138750
35.416667	1	0.140125
35.433333	1	0.141500
35.450000	1	0.143875
35.466667	1	0.144750
35.483333	1	0.145875
35.500000	1	0.147125
35.516667	1	0.148250
35.533333	1	0.149250
35.550000	1	0.150625
35.566667	1	0.152000
35.583333	1	0.152625
35.600000	1	0.153500
35.616667	1	0.154750
35.633333	1	0.155000
35.650000	1	0.155250
35.666667	1	0.155500
35.683333	1	0.155750
35.700000	1	0.155625
35.716667	1	0.155500
35.733333	1	0.155750
35.750000	1	0.155125
35.766667	1	0.154500
35.783333	1	0.153375
35.800000	1	0.152000
35.816667	1	0.151000
35.833333	1	0.149625
35.850000	1	0.148000
35.866667	1	0.146125
35.883333	1	0.144250
35.900000	1	0.142125
35.916667	1	0.140250
35.933333	1	0.138875
35.950000	1	0.136875
35.966667	1	0.135000
35.983333	1	0.133500
36.000000	1	0.131750
36.016667	1	0.129375
36.033333	1	0.127875
36.050000	1	0.125375
36.066667	1	0.123875
36.083333	1	0.122250
36.100000	1	0.120875
36.116667	1	0.120250
36.133333	1	0.119500
36.150000	1	0.119250
36.166667	1	0.118250
36.183333	1	0.118125
36.200000	1	0.117375
36.216667	1	0.117125
36.233333	1	0.117125
36.250000	1	0.118000
36.266667	1	0.117500
36.283333	1	0.118250
36.300000	1	0.118750
36.316667	1	0.118750
36.333333	1	0.120000
36.350000	1	0.120875
36.366667	1	0.121125
36.383333	1	0.121375
36.400000	1	0.122625
36.416667	1	0.123500
36.433333	1	0.124375
36.450000	1	0.124625
36.466667	1	0.126000
36.483333	1	0.126000
36.500000	1	0.126000
36.516667	1	0.125750
36.533333	1	0.126625
36.550000	1	0.127000
36.566667	1	0.126875
36.583333	1	0.126750
36.600000	1	0.125625
36.616667	1	0.125000
36.633333	1	0.124625
36.650000	1	0.124000
36.666667	1	0.123875
36.683333	1	0.122500
36.700000	1	0.121250
36.716667	1	0.120500
36.733333	1	0.119875
36.750000	1	0.119500
36.766667	1	0.118250
36.783333	1	0.117500
36.800000	1	0.115875
36.816667	1	0.115250
36.833333	1	0.114125
36.850000	1	0.112875
36.866667	1	0.112250
36.883333	1	0.111375
36.900000	1	0.111125
36.916667	1	0.110000
36.933333	1	0.109125
36.950000	1	0.107250
36.966667	1	0.106125
36.983333	1	0.105500
37.000000	1	0.103625
37.016667	1	0.102125
37.033333	1	0.101500
37.050000	1	0.100125
37.066667	1	0.098125
37.083333	1	0.096500
37.100000	1	0.095000
37.116667	1	0.093125
37.133333	1	0.091250
37.150000	1	0.089250
37.166667	1	0.087250
37.183333	1	0.084750
37.200000	1	0.083000
37.216667	1	0.080500
37.233333	1	0.078500
37.250000	1	0.076375
37.266667	1	0.074500
37.283333	1	0.071750
37.300000	1	0.068875
37.316667	1	0.066500
37.333333	1	0.065625
37.350000	1	0.063750
37.366667	1	0.061375
37.383333	1	0.058875
37.400000	1	0.057125
37.416667	1	0.055625
37.433333	1	0.054500
37.450000	1	0.052625
37.466667	1	0.051875
37.483333	1	0.051250
37.500000	1	0.049875
37.516667	1	0.048375
37.533333	1	0.046750
37.550000	1	0.045250
37.566667	1	0.044375
37.583333	1	0.043250
37.600000	1	0.042250
37.616667	1	0.041625
37.633333	1	0.040125
37.650000	1	0.039625
37.666667	1	0.039500
37.683333	1	0.039125
37.700000	1	0.038500
37.716667	1	0.037750
37.733333	1	0.037750
37.750000	1	0.036625
37.766667	1	0.035500
37.783333	1	0.034250
37.800000	1	0.033625
37.816667	1	0.032750
37.833333	1	0.031875
37.850000	1	0.031000
37.866667	1	0.030500
37.883333	1	0.029500
37.900000	1	0.029375
37.916667	1	0.028625
37.933333	1	0.028375
37.950000	1	0.027625
37.966667	1	0.026625
37.983333	1	0.026125
38.000000	1	0.026125
38.016667	1	0.026375
38.033333	1	0.026750
38.050000	1	0.026625
38.066667	1	0.027125
38.083333	1	0.027250
38.100000	1	0.027500
38.116667	1	0.029000
38.133333	1	0.028875
38.150000	1	0.029750
38.166667	1	0.031125
38.183333	1	0.031500
38.200000	1	0.033375
38.216667	1	0.034500
38.233333	1	0.035250
38.250000	1	0.036750
38.266667	1	0.038125
38.283333	1	0.039750
38.300000	1	0.040250
38.316667	1	0.042125
38.333333	1	0.043000
38.350000	1	0.044750
38.366667	1	0.045125
38.383333	1	0.045875
38.400000	1	0.047250
38.416667	1	0.048625
38.433333	1	0.049125
38.450000	1	0.049875
38.466667	1	0.050250
38.483333	1	0.050250
38.500000	1	0.050875
38.516667	1	0.050875
38.533333	1	0.050500
38.550000	1	0.050000
38.566667	1	0.049375
38.583333	1	0.048875
38.600000	1	0.048125
38.616667	1	0.047000
38.633333	1	0.046250
38.650000	1	0.045375
38.666667	1	0.044000
38.683333	1	0.043000
38.700000	1	0.041875
38.716667	1	0.040625
38.733333	1	0.039125
38.750000	1	0.037250
38.766667	1	0.035875
38.783333	1	0.034750
38.800000	1	0.033500
38.816667	1	0.032250
38.833333	1	0.030125
38.850000	1	0.029250
38.866667	1	0.027875
38.883333	1	0.026250
38.900000	1	0.025125
38.916667	1	0.024250
38.933333	1	0.023375
38.950000	1	0.021375
38.966667	1	0.019750
38.983333	1	0.019000
39.000000	1	0.017375
39.016667	1	0.015750
39.033333	1	0.014000
39.050000	1	0.012875
39.066667	1	0.011500
39.083333	1	0.011000
39.100000	1	0.009500
39.116667	1	0.008375
39.133333	1	0.007125
39.150000	1	0.005625
39.166667	1	0.005125
39.183333	1	0.003250
39.200000	1	0.002625
39.216667	1	0.001875
39.233333	1	0.001000
39.250000	1	0.000000
39.266667	1	-0.000750
39.283333	1	-0.001500
39.300000	1	-0.002000
39.316667	1	-0.002250
39.333333	1	-0.003000
39.350000	1	-0.003750
39.366667	1	-0.003625
39.383333	1	-0.003750
39.400000	1	-0.004125
39.416667	1	-0.004500
39.433333	1	-0.005375
39.450000	1	-0.005625
39.466667	1	-0.005500
39.483333	1	-0.005125
39.500000	1	-0.004750
39.516667	1	-0.004000
39.533333	1	-0.003625
39.550000	1	-0.002500
39.566667	1	-0.001625
39.583333	1	-0.001000
39.600000	1	0.000500
39.616667	1	0.002250
39.633333	1	0.003750
39.650000	1	0.005625
39.666667	1	0.006750
39.683333	1	0.008000
39.700000	1	0.009750
39.716667	1	0.011625
39.733333	1	0.013625
39.750000	1	0.015500
39.766667	1	0.017500
39.783333	1	0.019500
39.800000	1	0.021250
39.816667	1	0.023500
39.833333	1	0.025125
39.850000	1	0.027625
39.866667	1	0.029500
39.883333	1	0.031500
39.900000	1	0.033250
39.916667	1	0.035250
39.933333	1	0.037375
39.950000	1	0.038750
39.966667	1	0.040750
39.983333	1	0.042000
40.000000	1	0.043250
