URL	chrom://bioreactor/micro_cm7/HPLC_Ultimate_3000/Users/markusar/20240708_MA_pHrange1.seq/577.smp/RI_1.channel/RI_1.chm
Channel	RI_1

Injection Information:
Data Vault	micro_cm7
Sequence	20240708_MA_pHrange1
Name	Fp3_5.7_2
Number	68
Position	BF10
Comment	
Processing Method	
Instrument Method	run_25B_method
Type	Unknown
Status	Finished
Inject Time	10.07.2024 13:19:38 +02:00
Volume (µl)	20.0000
Dilution Factor	1.0000
Weight	1.0000

Chromatogram Data Information:
Time Min. (min)	0.000000
Time Max. (min)	40.000000
Data Points	2401
Detector	RI
Generating Data System	Chromeleon 7.3.2.11814
Exporting Data System	Chromeleon 7.3.2.0
Operator	Instrument Controller
Signal Quantity	Refractive 
Signal Unit	µRIU
Signal Min.	-0.055125
Signal Max.	83.602000
Channel	RI_1
Driver Name	RID520Driver.dll
Channel Type	Evaluation
Min. Step (s)	1
Max. Step (s)	1
Average Step (s)	1

Signal Parameter Information:
Signal Info	

Chromatogram Data:
Time (min)	Step (s)	Value (µRIU)
0.000000	n.a.	0.036500
0.016667	1	0.036875
0.033333	1	0.037000
0.050000	1	0.037250
0.066667	1	0.038125
0.083333	1	0.039000
0.100000	1	0.039875
0.116667	1	0.040250
0.133333	1	0.041500
0.150000	1	0.042500
0.166667	1	0.041875
0.183333	1	0.042875
0.200000	1	0.043750
0.216667	1	0.044875
0.233333	1	0.046375
0.250000	1	0.048125
0.266667	1	0.049250
0.283333	1	0.050000
0.300000	1	0.050625
0.316667	1	0.051125
0.333333	1	0.051625
0.350000	1	0.051750
0.366667	1	0.052125
0.383333	1	0.051375
0.400000	1	0.050500
0.416667	1	0.050250
0.433333	1	0.051375
0.450000	1	0.052375
0.466667	1	0.053500
0.483333	1	0.054500
0.500000	1	0.055250
0.516667	1	0.055500
0.533333	1	0.054500
0.550000	1	0.053000
0.566667	1	0.050500
0.583333	1	0.047625
0.600000	1	0.044375
0.616667	1	0.040875
0.633333	1	0.038000
0.650000	1	0.035625
0.666667	1	0.033625
0.683333	1	0.032000
0.700000	1	0.030000
0.716667	1	0.027625
0.733333	1	0.026000
0.750000	1	0.024500
0.766667	1	0.022625
0.783333	1	0.021000
0.800000	1	0.019125
0.816667	1	0.017875
0.833333	1	0.016375
0.850000	1	0.014375
0.866667	1	0.013750
0.883333	1	0.012375
0.900000	1	0.010875
0.916667	1	0.009875
0.933333	1	0.009000
0.950000	1	0.009000
0.966667	1	0.007750
0.983333	1	0.007875
1.000000	1	0.007625
1.016667	1	0.007750
1.033333	1	0.008125
1.050000	1	0.008000
1.066667	1	0.008500
1.083333	1	0.008875
1.100000	1	0.009875
1.116667	1	0.010375
1.133333	1	0.011375
1.150000	1	0.012750
1.166667	1	0.013500
1.183333	1	0.015000
1.200000	1	0.016375
1.216667	1	0.017375
1.233333	1	0.018625
1.250000	1	0.020250
1.266667	1	0.022000
1.283333	1	0.023500
1.300000	1	0.025250
1.316667	1	0.026875
1.333333	1	0.028375
1.350000	1	0.030000
1.366667	1	0.031125
1.383333	1	0.032625
1.400000	1	0.033750
1.416667	1	0.035000
1.433333	1	0.036625
1.450000	1	0.038000
1.466667	1	0.039375
1.483333	1	0.040625
1.500000	1	0.041000
1.516667	1	0.041250
1.533333	1	0.041375
1.550000	1	0.042250
1.566667	1	0.042000
1.583333	1	0.041500
1.600000	1	0.041750
1.616667	1	0.041625
1.633333	1	0.041625
1.650000	1	0.042000
1.666667	1	0.041250
1.683333	1	0.039875
1.700000	1	0.039875
1.716667	1	0.039125
1.733333	1	0.037500
1.750000	1	0.035625
1.766667	1	0.034000
1.783333	1	0.032750
1.800000	1	0.031375
1.816667	1	0.029625
1.833333	1	0.029125
1.850000	1	0.028375
1.866667	1	0.026500
1.883333	1	0.024875
1.900000	1	0.023375
1.916667	1	0.021875
1.933333	1	0.020000
1.950000	1	0.017875
1.966667	1	0.016625
1.983333	1	0.015250
2.000000	1	0.013500
2.016667	1	0.012125
2.033333	1	0.011500
2.050000	1	0.010000
2.066667	1	0.009375
2.083333	1	0.008500
2.100000	1	0.008375
2.116667	1	0.008000
2.133333	1	0.007375
2.150000	1	0.006375
2.166667	1	0.006125
2.183333	1	0.005000
2.200000	1	0.004875
2.216667	1	0.004875
2.233333	1	0.004875
2.250000	1	0.004875
2.266667	1	0.005000
2.283333	1	0.004875
2.300000	1	0.004750
2.316667	1	0.005000
2.333333	1	0.005375
2.350000	1	0.005625
2.366667	1	0.005875
2.383333	1	0.006250
2.400000	1	0.006500
2.416667	1	0.007125
2.433333	1	0.007250
2.450000	1	0.007625
2.466667	1	0.008500
2.483333	1	0.009250
2.500000	1	0.010375
2.516667	1	0.010500
2.533333	1	0.011000
2.550000	1	0.011750
2.566667	1	0.011875
2.583333	1	0.013125
2.600000	1	0.013625
2.616667	1	0.014500
2.633333	1	0.014875
2.650000	1	0.015625
2.666667	1	0.016875
2.683333	1	0.018500
2.700000	1	0.019375
2.716667	1	0.020375
2.733333	1	0.020625
2.750000	1	0.021000
2.766667	1	0.021750
2.783333	1	0.022750
2.800000	1	0.022875
2.816667	1	0.023375
2.833333	1	0.023500
2.850000	1	0.024625
2.866667	1	0.025375
2.883333	1	0.025875
2.900000	1	0.026000
2.916667	1	0.026750
2.933333	1	0.026750
2.950000	1	0.026750
2.966667	1	0.027125
2.983333	1	0.027125
3.000000	1	0.027375
3.016667	1	0.026875
3.033333	1	0.026750
3.050000	1	0.026250
3.066667	1	0.025250
3.083333	1	0.025000
3.100000	1	0.024000
3.116667	1	0.023125
3.133333	1	0.022125
3.150000	1	0.021125
3.166667	1	0.020000
3.183333	1	0.020000
3.200000	1	0.019875
3.216667	1	0.019625
3.233333	1	0.019250
3.250000	1	0.018750
3.266667	1	0.018250
3.283333	1	0.018125
3.300000	1	0.018625
3.316667	1	0.018750
3.333333	1	0.018875
3.350000	1	0.019000
3.366667	1	0.019375
3.383333	1	0.020250
3.400000	1	0.020875
3.416667	1	0.021875
3.433333	1	0.023000
3.450000	1	0.023625
3.466667	1	0.024625
3.483333	1	0.026625
3.500000	1	0.028375
3.516667	1	0.029750
3.533333	1	0.031750
3.550000	1	0.033750
3.566667	1	0.034875
3.583333	1	0.036875
3.600000	1	0.039125
3.616667	1	0.041000
3.633333	1	0.042375
3.650000	1	0.043625
3.666667	1	0.045250
3.683333	1	0.047000
3.700000	1	0.048625
3.716667	1	0.050000
3.733333	1	0.052000
3.750000	1	0.053500
3.766667	1	0.054875
3.783333	1	0.056500
3.800000	1	0.057875
3.816667	1	0.059250
3.833333	1	0.060625
3.850000	1	0.061625
3.866667	1	0.062750
3.883333	1	0.063750
3.900000	1	0.065375
3.916667	1	0.066250
3.933333	1	0.067125
3.950000	1	0.068000
3.966667	1	0.069250
3.983333	1	0.070500
4.000000	1	0.071500
4.016667	1	0.072500
4.033333	1	0.073625
4.050000	1	0.074625
4.066667	1	0.075250
4.083333	1	0.075625
4.100000	1	0.076500
4.116667	1	0.077125
4.133333	1	0.078000
4.150000	1	0.078125
4.166667	1	0.078500
4.183333	1	0.079375
4.200000	1	0.080375
4.216667	1	0.081000
4.233333	1	0.081750
4.250000	1	0.082500
4.266667	1	0.083375
4.283333	1	0.084375
4.300000	1	0.084500
4.316667	1	0.085125
4.333333	1	0.086625
4.350000	1	0.087250
4.366667	1	0.088625
4.383333	1	0.089375
4.400000	1	0.090875
4.416667	1	0.092125
4.433333	1	0.093250
4.450000	1	0.094125
4.466667	1	0.095875
4.483333	1	0.097125
4.500000	1	0.098750
4.516667	1	0.100000
4.533333	1	0.102000
4.550000	1	0.104875
4.566667	1	0.106625
4.583333	1	0.109625
4.600000	1	0.112625
4.616667	1	0.115250
4.633333	1	0.117625
4.650000	1	0.120625
4.666667	1	0.123250
4.683333	1	0.126625
4.700000	1	0.129125
4.716667	1	0.131750
4.733333	1	0.135000
4.750000	1	0.138125
4.766667	1	0.141250
4.783333	1	0.144500
4.800000	1	0.148125
4.816667	1	0.151500
4.833333	1	0.155000
4.850000	1	0.158750
4.866667	1	0.161625
4.883333	1	0.164625
4.900000	1	0.167625
4.916667	1	0.171000
4.933333	1	0.174750
4.950000	1	0.178375
4.966667	1	0.181375
4.983333	1	0.184750
5.000000	1	0.188125
5.016667	1	0.191875
5.033333	1	0.195125
5.050000	1	0.198500
5.066667	1	0.201875
5.083333	1	0.204500
5.100000	1	0.207375
5.116667	1	0.209875
5.133333	1	0.212875
5.150000	1	0.215750
5.166667	1	0.218250
5.183333	1	0.220500
5.200000	1	0.223250
5.216667	1	0.225500
5.233333	1	0.227750
5.250000	1	0.229250
5.266667	1	0.231000
5.283333	1	0.232375
5.300000	1	0.233875
5.316667	1	0.235000
5.333333	1	0.235875
5.350000	1	0.236500
5.366667	1	0.237250
5.383333	1	0.237500
5.400000	1	0.237375
5.416667	1	0.237375
5.433333	1	0.236375
5.450000	1	0.235750
5.466667	1	0.234250
5.483333	1	0.232500
5.500000	1	0.230875
5.516667	1	0.228375
5.533333	1	0.226375
5.550000	1	0.224375
5.566667	1	0.221625
5.583333	1	0.219250
5.600000	1	0.216125
5.616667	1	0.212750
5.633333	1	0.209375
5.650000	1	0.205625
5.666667	1	0.201500
5.683333	1	0.197375
5.700000	1	0.192500
5.716667	1	0.188375
5.733333	1	0.183750
5.750000	1	0.179500
5.766667	1	0.176000
5.783333	1	0.171750
5.800000	1	0.168125
5.816667	1	0.164500
5.833333	1	0.159750
5.850000	1	0.155625
5.866667	1	0.151375
5.883333	1	0.147500
5.900000	1	0.143625
5.916667	1	0.139875
5.933333	1	0.136250
5.950000	1	0.133500
5.966667	1	0.130250
5.983333	1	0.127000
6.000000	1	0.124250
6.016667	1	0.122000
6.033333	1	0.119375
6.050000	1	0.117125
6.066667	1	0.114875
6.083333	1	0.112750
6.100000	1	0.111000
6.116667	1	0.108625
6.133333	1	0.106875
6.150000	1	0.105375
6.166667	1	0.103625
6.183333	1	0.101875
6.200000	1	0.099625
6.216667	1	0.096750
6.233333	1	0.094500
6.250000	1	0.092375
6.266667	1	0.089500
6.283333	1	0.088000
6.300000	1	0.086500
6.316667	1	0.084500
6.333333	1	0.083250
6.350000	1	0.080875
6.366667	1	0.078875
6.383333	1	0.076625
6.400000	1	0.075000
6.416667	1	0.073250
6.433333	1	0.070125
6.450000	1	0.068250
6.466667	1	0.066250
6.483333	1	0.064000
6.500000	1	0.062375
6.516667	1	0.060625
6.533333	1	0.058250
6.550000	1	0.056250
6.566667	1	0.054375
6.583333	1	0.052375
6.600000	1	0.050250
6.616667	1	0.048000
6.633333	1	0.047000
6.650000	1	0.046125
6.666667	1	0.044625
6.683333	1	0.043250
6.700000	1	0.041375
6.716667	1	0.040375
6.733333	1	0.039125
6.750000	1	0.038000
6.766667	1	0.036625
6.783333	1	0.036125
6.800000	1	0.035125
6.816667	1	0.035125
6.833333	1	0.034875
6.850000	1	0.035000
6.866667	1	0.034750
6.883333	1	0.035000
6.900000	1	0.035625
6.916667	1	0.036500
6.933333	1	0.037500
6.950000	1	0.038875
6.966667	1	0.040750
6.983333	1	0.042375
7.000000	1	0.044875
7.016667	1	0.047625
7.033333	1	0.050750
7.050000	1	0.053500
7.066667	1	0.056250
7.083333	1	0.059375
7.100000	1	0.062375
7.116667	1	0.065750
7.133333	1	0.069750
7.150000	1	0.073125
7.166667	1	0.076250
7.183333	1	0.080125
7.200000	1	0.083500
7.216667	1	0.087125
7.233333	1	0.090000
7.250000	1	0.093250
7.266667	1	0.096375
7.283333	1	0.098750
7.300000	1	0.100875
7.316667	1	0.103375
7.333333	1	0.105500
7.350000	1	0.107375
7.366667	1	0.108125
7.383333	1	0.109500
7.400000	1	0.110250
7.416667	1	0.110500
7.433333	1	0.110750
7.450000	1	0.110625
7.466667	1	0.110000
7.483333	1	0.109000
7.500000	1	0.107875
7.516667	1	0.106375
7.533333	1	0.104250
7.550000	1	0.101875
7.566667	1	0.100000
7.583333	1	0.097875
7.600000	1	0.095500
7.616667	1	0.092625
7.633333	1	0.090000
7.650000	1	0.086875
7.666667	1	0.082500
7.683333	1	0.078875
7.700000	1	0.075250
7.716667	1	0.071125
7.733333	1	0.068000
7.750000	1	0.064125
7.766667	1	0.060500
7.783333	1	0.056500
7.800000	1	0.052625
7.816667	1	0.048750
7.833333	1	0.044125
7.850000	1	0.040500
7.866667	1	0.036625
7.883333	1	0.032000
7.900000	1	0.026875
7.916667	1	0.023250
7.933333	1	0.019625
7.950000	1	0.016250
7.966667	1	0.012375
7.983333	1	0.008500
8.000000	1	0.005500
8.016667	1	0.002250
8.033333	1	-0.001000
8.050000	1	-0.004375
8.066667	1	-0.007250
8.083333	1	-0.010375
8.100000	1	-0.013250
8.116667	1	-0.016000
8.133333	1	-0.017625
8.150000	1	-0.020250
8.166667	1	-0.022250
8.183333	1	-0.023875
8.200000	1	-0.025125
8.216667	1	-0.026250
8.233333	1	-0.027875
8.250000	1	-0.029500
8.266667	1	-0.030875
8.283333	1	-0.031375
8.300000	1	-0.032000
8.316667	1	-0.032375
8.333333	1	-0.033500
8.350000	1	-0.033625
8.366667	1	-0.034000
8.383333	1	-0.034000
8.400000	1	-0.034000
8.416667	1	-0.034375
8.433333	1	-0.034750
8.450000	1	-0.035125
8.466667	1	-0.035750
8.483333	1	-0.036125
8.500000	1	-0.036750
8.516667	1	-0.037125
8.533333	1	-0.037500
8.550000	1	-0.037750
8.566667	1	-0.038500
8.583333	1	-0.038875
8.600000	1	-0.039750
8.616667	1	-0.039875
8.633333	1	-0.040625
8.650000	1	-0.041000
8.666667	1	-0.041125
8.683333	1	-0.042000
8.700000	1	-0.042500
8.716667	1	-0.042625
8.733333	1	-0.043125
8.750000	1	-0.043000
8.766667	1	-0.043125
8.783333	1	-0.043750
8.800000	1	-0.044750
8.816667	1	-0.044250
8.833333	1	-0.043250
8.850000	1	-0.042500
8.866667	1	-0.043125
8.883333	1	-0.042500
8.900000	1	-0.041750
8.916667	1	-0.041000
8.933333	1	-0.040875
8.950000	1	-0.040250
8.966667	1	-0.040000
8.983333	1	-0.038625
9.000000	1	-0.038000
9.016667	1	-0.037500
9.033333	1	-0.036500
9.050000	1	-0.035375
9.066667	1	-0.034750
9.083333	1	-0.034750
9.100000	1	-0.034125
9.116667	1	-0.033125
9.133333	1	-0.032875
9.150000	1	-0.033000
9.166667	1	-0.032250
9.183333	1	-0.032125
9.200000	1	-0.032000
9.216667	1	-0.032000
9.233333	1	-0.032375
9.250000	1	-0.032500
9.266667	1	-0.033125
9.283333	1	-0.034250
9.300000	1	-0.034875
9.316667	1	-0.035000
9.333333	1	-0.036250
9.350000	1	-0.036500
9.366667	1	-0.036500
9.383333	1	-0.037875
9.400000	1	-0.039250
9.416667	1	-0.040625
9.433333	1	-0.042000
9.450000	1	-0.042000
9.466667	1	-0.043500
9.483333	1	-0.044125
9.500000	1	-0.045375
9.516667	1	-0.046500
9.533333	1	-0.047125
9.550000	1	-0.048000
9.566667	1	-0.048500
9.583333	1	-0.048875
9.600000	1	-0.050250
9.616667	1	-0.050750
9.633333	1	-0.050875
9.650000	1	-0.051625
9.666667	1	-0.051875
9.683333	1	-0.051875
9.700000	1	-0.052000
9.716667	1	-0.051375
9.733333	1	-0.051500
9.750000	1	-0.051875
9.766667	1	-0.051875
9.783333	1	-0.051750
9.800000	1	-0.051875
9.816667	1	-0.052500
9.833333	1	-0.052000
9.850000	1	-0.052000
9.866667	1	-0.051875
9.883333	1	-0.052000
9.900000	1	-0.052250
9.916667	1	-0.051875
9.933333	1	-0.052125
9.950000	1	-0.052625
9.966667	1	-0.052750
9.983333	1	-0.053125
10.000000	1	-0.053625
10.016667	1	-0.054125
10.033333	1	-0.054750
10.050000	1	-0.055125
10.066667	1	-0.055125
10.083333	1	-0.054500
10.100000	1	-0.053750
10.116667	1	-0.052500
10.133333	1	-0.051125
10.150000	1	-0.047875
10.166667	1	-0.044000
10.183333	1	-0.038750
10.200000	1	-0.032250
10.216667	1	-0.024125
10.233333	1	-0.014625
10.250000	1	-0.002125
10.266667	1	0.011250
10.283333	1	0.027250
10.300000	1	0.045375
10.316667	1	0.066625
10.333333	1	0.091000
10.350000	1	0.116000
10.366667	1	0.142000
10.383333	1	0.168250
10.400000	1	0.191875
10.416667	1	0.210875
10.433333	1	0.222875
10.450000	1	0.227875
10.466667	1	0.229375
10.483333	1	0.232000
10.500000	1	0.247500
10.516667	1	0.293250
10.533333	1	0.397125
10.550000	1	0.593250
10.566667	1	0.925750
10.583333	1	1.444125
10.600000	1	2.203625
10.616667	1	3.258125
10.633333	1	4.653750
10.650000	1	6.424375
10.666667	1	8.594625
10.683333	1	11.172625
10.700000	1	14.154750
10.716667	1	17.518750
10.733333	1	21.226500
10.750000	1	25.218500
10.766667	1	29.406250
10.783333	1	33.670125
10.800000	1	37.850875
10.816667	1	41.731125
10.833333	1	45.034625
10.850000	1	47.443250
10.866667	1	48.647250
10.883333	1	48.405750
10.900000	1	46.637625
10.916667	1	43.471625
10.933333	1	39.233500
10.950000	1	34.368500
10.966667	1	29.329875
10.983333	1	24.488625
11.000000	1	20.094375
11.016667	1	16.274625
11.033333	1	13.066625
11.050000	1	10.445875
11.066667	1	8.348500
11.083333	1	6.700625
11.100000	1	5.422125
11.116667	1	4.439500
11.133333	1	3.690250
11.150000	1	3.119000
11.166667	1	2.685750
11.183333	1	2.357250
11.200000	1	2.107750
11.216667	1	1.917875
11.233333	1	1.773000
11.250000	1	1.661500
11.266667	1	1.575375
11.283333	1	1.506000
11.300000	1	1.448750
11.316667	1	1.399250
11.333333	1	1.355625
11.350000	1	1.314375
11.366667	1	1.274625
11.383333	1	1.236000
11.400000	1	1.198750
11.416667	1	1.162250
11.433333	1	1.127875
11.450000	1	1.096000
11.466667	1	1.066750
11.483333	1	1.041250
11.500000	1	1.019500
11.516667	1	1.001250
11.533333	1	0.986375
11.550000	1	0.976000
11.566667	1	0.970000
11.583333	1	0.969125
11.600000	1	0.972250
11.616667	1	0.980750
11.633333	1	0.993500
11.650000	1	1.010375
11.666667	1	1.032500
11.683333	1	1.058125
11.700000	1	1.086375
11.716667	1	1.116875
11.733333	1	1.146625
11.750000	1	1.175625
11.766667	1	1.201875
11.783333	1	1.224500
11.800000	1	1.241250
11.816667	1	1.252000
11.833333	1	1.256125
11.850000	1	1.253625
11.866667	1	1.245625
11.883333	1	1.232125
11.900000	1	1.214625
11.916667	1	1.194750
11.933333	1	1.173750
11.950000	1	1.151875
11.966667	1	1.129875
11.983333	1	1.109500
12.000000	1	1.091000
12.016667	1	1.074375
12.033333	1	1.060250
12.050000	1	1.048625
12.066667	1	1.039375
12.083333	1	1.031875
12.100000	1	1.026625
12.116667	1	1.023625
12.133333	1	1.021500
12.150000	1	1.021375
12.166667	1	1.022125
12.183333	1	1.025125
12.200000	1	1.031250
12.216667	1	1.040000
12.233333	1	1.051000
12.250000	1	1.067375
12.266667	1	1.088500
12.283333	1	1.118125
12.300000	1	1.158250
12.316667	1	1.212500
12.333333	1	1.286000
12.350000	1	1.384875
12.366667	1	1.517500
12.383333	1	1.695875
12.400000	1	1.934500
12.416667	1	2.253375
12.433333	1	2.677250
12.450000	1	3.237750
12.466667	1	3.978625
12.483333	1	4.952250
12.500000	1	6.222500
12.516667	1	7.862375
12.533333	1	9.951875
12.550000	1	12.573125
12.566667	1	15.805250
12.583333	1	19.711125
12.600000	1	24.327625
12.616667	1	29.641875
12.633333	1	35.595625
12.650000	1	42.076375
12.666667	1	48.907625
12.683333	1	55.849125
12.700000	1	62.613875
12.716667	1	68.886250
12.733333	1	74.352875
12.750000	1	78.730250
12.766667	1	81.803875
12.783333	1	83.440250
12.800000	1	83.602000
12.816667	1	82.357625
12.833333	1	79.859125
12.850000	1	76.325250
12.866667	1	72.018875
12.883333	1	67.223125
12.900000	1	62.213875
12.916667	1	57.239375
12.933333	1	52.505375
12.950000	1	48.165125
12.966667	1	44.316250
12.983333	1	41.009375
13.000000	1	38.256750
13.016667	1	36.040500
13.033333	1	34.321625
13.050000	1	33.051250
13.066667	1	32.175000
13.083333	1	31.639250
13.100000	1	31.392875
13.116667	1	31.390500
13.133333	1	31.590250
13.150000	1	31.957875
13.166667	1	32.464125
13.183333	1	33.085125
13.200000	1	33.800750
13.216667	1	34.594375
13.233333	1	35.454375
13.250000	1	36.371875
13.266667	1	37.339125
13.283333	1	38.349875
13.300000	1	39.401000
13.316667	1	40.487375
13.333333	1	41.606750
13.350000	1	42.757875
13.366667	1	43.938750
13.383333	1	45.149250
13.400000	1	46.388375
13.416667	1	47.654875
13.433333	1	48.950125
13.450000	1	50.276000
13.466667	1	51.632750
13.483333	1	53.020375
13.500000	1	54.439125
13.516667	1	55.889000
13.533333	1	57.368125
13.550000	1	58.878500
13.566667	1	60.419750
13.583333	1	61.993500
13.600000	1	63.598750
13.616667	1	65.235250
13.633333	1	66.905000
13.650000	1	68.611500
13.666667	1	70.354250
13.683333	1	72.133500
13.700000	1	73.946000
13.716667	1	75.774500
13.733333	1	77.566750
13.750000	1	79.212750
13.766667	1	80.548500
13.783333	1	81.386250
13.800000	1	81.564500
13.816667	1	80.962375
13.833333	1	79.484625
13.850000	1	77.031375
13.866667	1	73.471375
13.883333	1	68.662000
13.900000	1	62.555250
13.916667	1	55.347000
13.933333	1	47.529125
13.950000	1	39.745750
13.966667	1	32.578250
13.983333	1	26.379625
14.000000	1	21.258250
14.016667	1	17.146125
14.033333	1	13.905125
14.050000	1	11.385125
14.066667	1	9.449750
14.083333	1	7.982750
14.100000	1	6.883875
14.116667	1	6.066500
14.133333	1	5.458000
14.150000	1	5.003000
14.166667	1	4.659250
14.183333	1	4.392875
14.200000	1	4.183125
14.216667	1	4.013750
14.233333	1	3.873125
14.250000	1	3.754125
14.266667	1	3.651125
14.283333	1	3.560250
14.300000	1	3.479875
14.316667	1	3.406875
14.333333	1	3.340875
14.350000	1	3.279875
14.366667	1	3.224000
14.383333	1	3.172750
14.400000	1	3.125125
14.416667	1	3.081000
14.433333	1	3.040625
14.450000	1	3.004125
14.466667	1	2.970000
14.483333	1	2.938125
14.500000	1	2.908500
14.516667	1	2.880250
14.533333	1	2.854500
14.550000	1	2.829625
14.566667	1	2.805375
14.583333	1	2.782375
14.600000	1	2.759625
14.616667	1	2.737500
14.633333	1	2.715250
14.650000	1	2.694125
14.666667	1	2.673875
14.683333	1	2.654250
14.700000	1	2.635500
14.716667	1	2.617500
14.733333	1	2.601500
14.750000	1	2.587000
14.766667	1	2.574250
14.783333	1	2.563500
14.800000	1	2.554625
14.816667	1	2.545750
14.833333	1	2.536250
14.850000	1	2.526000
14.866667	1	2.513375
14.883333	1	2.498000
14.900000	1	2.478875
14.916667	1	2.456375
14.933333	1	2.428625
14.950000	1	2.396250
14.966667	1	2.360000
14.983333	1	2.320000
15.000000	1	2.278375
15.016667	1	2.234000
15.033333	1	2.188375
15.050000	1	2.143375
15.066667	1	2.099375
15.083333	1	2.056375
15.100000	1	2.015125
15.116667	1	1.977000
15.133333	1	1.940375
15.150000	1	1.906625
15.166667	1	1.876125
15.183333	1	1.848375
15.200000	1	1.824000
15.216667	1	1.801125
15.233333	1	1.781500
15.250000	1	1.764125
15.266667	1	1.749125
15.283333	1	1.737750
15.300000	1	1.729375
15.316667	1	1.724625
15.333333	1	1.723125
15.350000	1	1.725750
15.366667	1	1.734000
15.383333	1	1.747000
15.400000	1	1.764125
15.416667	1	1.787250
15.433333	1	1.814250
15.450000	1	1.844750
15.466667	1	1.877375
15.483333	1	1.910875
15.500000	1	1.943000
15.516667	1	1.972125
15.533333	1	1.996750
15.550000	1	2.014250
15.566667	1	2.023875
15.583333	1	2.024875
15.600000	1	2.017250
15.616667	1	2.001000
15.633333	1	1.976750
15.650000	1	1.946250
15.666667	1	1.910625
15.683333	1	1.871125
15.700000	1	1.829375
15.716667	1	1.787250
15.733333	1	1.745375
15.750000	1	1.704875
15.766667	1	1.666000
15.783333	1	1.628500
15.800000	1	1.592125
15.816667	1	1.557625
15.833333	1	1.525500
15.850000	1	1.494250
15.866667	1	1.464625
15.883333	1	1.435500
15.900000	1	1.408125
15.916667	1	1.382000
15.933333	1	1.357500
15.950000	1	1.334375
15.966667	1	1.313375
15.983333	1	1.294500
16.000000	1	1.277750
16.016667	1	1.263000
16.033333	1	1.250750
16.050000	1	1.240000
16.066667	1	1.231250
16.083333	1	1.224250
16.100000	1	1.218125
16.116667	1	1.213750
16.133333	1	1.211125
16.150000	1	1.208625
16.166667	1	1.207375
16.183333	1	1.206125
16.200000	1	1.204500
16.216667	1	1.202750
16.233333	1	1.200875
16.250000	1	1.197750
16.266667	1	1.195000
16.283333	1	1.190625
16.300000	1	1.185875
16.316667	1	1.180750
16.333333	1	1.174125
16.350000	1	1.167000
16.366667	1	1.159000
16.383333	1	1.151500
16.400000	1	1.144375
16.416667	1	1.137125
16.433333	1	1.130625
16.450000	1	1.125000
16.466667	1	1.121000
16.483333	1	1.118375
16.500000	1	1.117750
16.516667	1	1.118750
16.533333	1	1.121500
16.550000	1	1.126375
16.566667	1	1.133250
16.583333	1	1.141125
16.600000	1	1.150125
16.616667	1	1.159875
16.633333	1	1.169375
16.650000	1	1.178375
16.666667	1	1.186500
16.683333	1	1.193625
16.700000	1	1.199125
16.716667	1	1.204375
16.733333	1	1.207875
16.750000	1	1.211250
16.766667	1	1.214125
16.783333	1	1.216750
16.800000	1	1.219500
16.816667	1	1.222625
16.833333	1	1.226250
16.850000	1	1.230375
16.866667	1	1.235875
16.883333	1	1.240625
16.900000	1	1.245750
16.916667	1	1.250250
16.933333	1	1.254375
16.950000	1	1.257500
16.966667	1	1.260125
16.983333	1	1.261625
17.000000	1	1.261375
17.016667	1	1.260000
17.033333	1	1.257375
17.050000	1	1.254750
17.066667	1	1.250875
17.083333	1	1.246875
17.100000	1	1.241875
17.116667	1	1.238125
17.133333	1	1.234250
17.150000	1	1.230750
17.166667	1	1.227375
17.183333	1	1.225625
17.200000	1	1.225750
17.216667	1	1.226125
17.233333	1	1.227875
17.250000	1	1.230375
17.266667	1	1.233250
17.283333	1	1.237500
17.300000	1	1.242500
17.316667	1	1.247375
17.333333	1	1.253000
17.350000	1	1.259375
17.366667	1	1.265625
17.383333	1	1.272125
17.400000	1	1.277875
17.416667	1	1.283500
17.433333	1	1.287875
17.450000	1	1.292000
17.466667	1	1.295000
17.483333	1	1.296250
17.500000	1	1.297250
17.516667	1	1.296125
17.533333	1	1.292500
17.550000	1	1.287000
17.566667	1	1.280000
17.583333	1	1.271875
17.600000	1	1.262375
17.616667	1	1.251000
17.633333	1	1.238750
17.650000	1	1.225500
17.666667	1	1.211750
17.683333	1	1.196750
17.700000	1	1.181625
17.716667	1	1.166375
17.733333	1	1.150750
17.750000	1	1.135250
17.766667	1	1.120250
17.783333	1	1.105750
17.800000	1	1.091625
17.816667	1	1.077250
17.833333	1	1.062750
17.850000	1	1.049250
17.866667	1	1.035000
17.883333	1	1.021375
17.900000	1	1.008125
17.916667	1	0.995875
17.933333	1	0.983875
17.950000	1	0.971500
17.966667	1	0.959375
17.983333	1	0.948000
18.000000	1	0.936625
18.016667	1	0.925375
18.033333	1	0.913250
18.050000	1	0.902875
18.066667	1	0.892000
18.083333	1	0.880875
18.100000	1	0.870750
18.116667	1	0.860000
18.133333	1	0.849625
18.150000	1	0.840125
18.166667	1	0.831500
18.183333	1	0.823625
18.200000	1	0.816250
18.216667	1	0.809500
18.233333	1	0.803125
18.250000	1	0.797500
18.266667	1	0.793625
18.283333	1	0.790125
18.300000	1	0.787500
18.316667	1	0.785625
18.333333	1	0.784125
18.350000	1	0.783375
18.366667	1	0.782875
18.383333	1	0.783750
18.400000	1	0.784750
18.416667	1	0.786375
18.433333	1	0.788750
18.450000	1	0.792375
18.466667	1	0.797250
18.483333	1	0.803375
18.500000	1	0.810375
18.516667	1	0.818875
18.533333	1	0.830625
18.550000	1	0.843750
18.566667	1	0.858625
18.583333	1	0.875000
18.600000	1	0.893250
18.616667	1	0.914000
18.633333	1	0.937375
18.650000	1	0.962625
18.666667	1	0.989750
18.683333	1	1.018750
18.700000	1	1.050000
18.716667	1	1.082000
18.733333	1	1.116125
18.750000	1	1.150875
18.766667	1	1.186500
18.783333	1	1.222625
18.800000	1	1.259000
18.816667	1	1.294625
18.833333	1	1.329500
18.850000	1	1.362125
18.866667	1	1.392500
18.883333	1	1.419125
18.900000	1	1.441750
18.916667	1	1.459500
18.933333	1	1.472375
18.950000	1	1.478500
18.966667	1	1.479000
18.983333	1	1.472000
19.000000	1	1.458250
19.016667	1	1.438125
19.033333	1	1.411625
19.050000	1	1.378125
19.066667	1	1.340125
19.083333	1	1.297375
19.100000	1	1.250250
19.116667	1	1.200250
19.133333	1	1.148875
19.150000	1	1.097875
19.166667	1	1.047500
19.183333	1	0.998125
19.200000	1	0.950500
19.216667	1	0.907000
19.233333	1	0.867250
19.250000	1	0.831500
19.266667	1	0.800375
19.283333	1	0.774625
19.300000	1	0.755000
19.316667	1	0.739375
19.333333	1	0.729500
19.350000	1	0.725250
19.366667	1	0.727500
19.383333	1	0.734375
19.400000	1	0.745750
19.416667	1	0.761750
19.433333	1	0.782875
19.450000	1	0.807000
19.466667	1	0.834375
19.483333	1	0.864375
19.500000	1	0.895250
19.516667	1	0.926750
19.533333	1	0.958500
19.550000	1	0.988500
19.566667	1	1.015500
19.583333	1	1.039500
19.600000	1	1.059000
19.616667	1	1.073500
19.633333	1	1.082500
19.650000	1	1.085750
19.666667	1	1.082625
19.683333	1	1.073875
19.700000	1	1.059000
19.716667	1	1.039750
19.733333	1	1.015000
19.750000	1	0.987125
19.766667	1	0.956250
19.783333	1	0.923500
19.800000	1	0.889125
19.816667	1	0.854250
19.833333	1	0.819375
19.850000	1	0.785250
19.866667	1	0.752250
19.883333	1	0.721875
19.900000	1	0.692500
19.916667	1	0.665625
19.933333	1	0.641750
19.950000	1	0.619625
19.966667	1	0.600250
19.983333	1	0.584000
20.000000	1	0.569625
20.016667	1	0.558500
20.033333	1	0.549000
20.050000	1	0.542125
20.066667	1	0.538500
20.083333	1	0.537125
20.100000	1	0.539625
20.116667	1	0.542875
20.133333	1	0.549500
20.150000	1	0.557750
20.166667	1	0.567750
20.183333	1	0.580250
20.200000	1	0.595250
20.216667	1	0.611500
20.233333	1	0.629125
20.250000	1	0.646375
20.266667	1	0.664875
20.283333	1	0.682125
20.300000	1	0.698750
20.316667	1	0.714000
20.333333	1	0.726000
20.350000	1	0.736625
20.366667	1	0.743875
20.383333	1	0.748000
20.400000	1	0.748750
20.416667	1	0.746375
20.433333	1	0.741625
20.450000	1	0.734000
20.466667	1	0.724000
20.483333	1	0.713500
20.500000	1	0.702625
20.516667	1	0.692500
20.533333	1	0.683875
20.550000	1	0.677750
20.566667	1	0.675250
20.583333	1	0.677375
20.600000	1	0.684500
20.616667	1	0.697625
20.633333	1	0.717875
20.650000	1	0.745125
20.666667	1	0.780125
20.683333	1	0.823000
20.700000	1	0.872625
20.716667	1	0.929125
20.733333	1	0.992000
20.750000	1	1.059750
20.766667	1	1.132000
20.783333	1	1.204375
20.800000	1	1.276250
20.816667	1	1.345500
20.833333	1	1.410625
20.850000	1	1.467375
20.866667	1	1.516000
20.883333	1	1.553000
20.900000	1	1.577625
20.916667	1	1.588375
20.933333	1	1.586750
20.950000	1	1.571375
20.966667	1	1.542875
20.983333	1	1.502375
21.000000	1	1.451375
21.016667	1	1.392000
21.033333	1	1.325875
21.050000	1	1.254625
21.066667	1	1.181250
21.083333	1	1.106625
21.100000	1	1.033375
21.116667	1	0.962875
21.133333	1	0.895250
21.150000	1	0.832125
21.166667	1	0.773500
21.183333	1	0.720000
21.200000	1	0.671375
21.216667	1	0.628625
21.233333	1	0.590375
21.250000	1	0.557125
21.266667	1	0.527500
21.283333	1	0.502500
21.300000	1	0.481125
21.316667	1	0.462875
21.333333	1	0.447250
21.350000	1	0.433125
21.366667	1	0.421625
21.383333	1	0.412500
21.400000	1	0.404250
21.416667	1	0.397875
21.433333	1	0.392875
21.450000	1	0.388625
21.466667	1	0.385000
21.483333	1	0.381875
21.500000	1	0.380625
21.516667	1	0.379125
21.533333	1	0.378875
21.550000	1	0.379500
21.566667	1	0.381875
21.583333	1	0.384625
21.600000	1	0.388500
21.616667	1	0.394125
21.633333	1	0.401125
21.650000	1	0.410125
21.666667	1	0.420875
21.683333	1	0.433500
21.700000	1	0.448125
21.716667	1	0.465125
21.733333	1	0.483750
21.750000	1	0.505250
21.766667	1	0.529125
21.783333	1	0.555625
21.800000	1	0.583000
21.816667	1	0.612625
21.833333	1	0.644375
21.850000	1	0.677750
21.866667	1	0.712000
21.883333	1	0.746375
21.900000	1	0.781625
21.916667	1	0.815750
21.933333	1	0.848625
21.950000	1	0.880000
21.966667	1	0.908875
21.983333	1	0.935375
22.000000	1	0.957000
22.016667	1	0.974750
22.033333	1	0.988250
22.050000	1	0.997125
22.066667	1	1.001625
22.083333	1	1.001000
22.100000	1	0.996500
22.116667	1	0.987125
22.133333	1	0.973250
22.150000	1	0.955375
22.166667	1	0.934750
22.183333	1	0.911250
22.200000	1	0.885875
22.216667	1	0.857875
22.233333	1	0.829125
22.250000	1	0.799125
22.266667	1	0.769375
22.283333	1	0.738625
22.300000	1	0.708375
22.316667	1	0.678625
22.333333	1	0.648125
22.350000	1	0.619625
22.366667	1	0.591125
22.383333	1	0.564375
22.400000	1	0.538625
22.416667	1	0.514000
22.433333	1	0.490500
22.450000	1	0.468375
22.466667	1	0.448625
22.483333	1	0.429875
22.500000	1	0.412375
22.516667	1	0.396500
22.533333	1	0.382125
22.550000	1	0.368875
22.566667	1	0.356625
22.583333	1	0.346000
22.600000	1	0.336125
22.616667	1	0.326500
22.633333	1	0.318375
22.650000	1	0.310625
22.666667	1	0.303875
22.683333	1	0.298000
22.700000	1	0.292250
22.716667	1	0.286875
22.733333	1	0.281750
22.750000	1	0.277375
22.766667	1	0.273000
22.783333	1	0.269250
22.800000	1	0.265500
22.816667	1	0.261750
22.833333	1	0.259000
22.850000	1	0.255625
22.866667	1	0.252875
22.883333	1	0.250000
22.900000	1	0.248250
22.916667	1	0.246375
22.933333	1	0.244625
22.950000	1	0.243125
22.966667	1	0.242375
22.983333	1	0.241125
23.000000	1	0.241375
23.016667	1	0.241625
23.033333	1	0.242750
23.050000	1	0.243500
23.066667	1	0.245250
23.083333	1	0.247625
23.100000	1	0.249500
23.116667	1	0.252125
23.133333	1	0.254375
23.150000	1	0.257625
23.166667	1	0.260500
23.183333	1	0.263750
23.200000	1	0.267750
23.216667	1	0.271875
23.233333	1	0.276375
23.250000	1	0.281125
23.266667	1	0.287250
23.283333	1	0.294000
23.300000	1	0.301625
23.316667	1	0.312000
23.333333	1	0.323625
23.350000	1	0.338250
23.366667	1	0.355625
23.383333	1	0.375750
23.400000	1	0.401125
23.416667	1	0.430500
23.433333	1	0.465875
23.450000	1	0.508250
23.466667	1	0.558125
23.483333	1	0.617250
23.500000	1	0.686500
23.516667	1	0.767375
23.533333	1	0.860000
23.550000	1	0.966000
23.566667	1	1.085750
23.583333	1	1.221750
23.600000	1	1.374000
23.616667	1	1.542125
23.633333	1	1.726375
23.650000	1	1.926000
23.666667	1	2.140000
23.683333	1	2.366125
23.700000	1	2.603250
23.716667	1	2.848375
23.733333	1	3.097500
23.750000	1	3.346250
23.766667	1	3.590500
23.783333	1	3.826250
23.800000	1	4.048500
23.816667	1	4.251500
23.833333	1	4.430500
23.850000	1	4.581750
23.866667	1	4.701500
23.883333	1	4.787000
23.900000	1	4.836500
23.916667	1	4.848250
23.933333	1	4.823500
23.950000	1	4.762375
23.966667	1	4.667625
23.983333	1	4.540875
24.000000	1	4.386625
24.016667	1	4.208750
24.033333	1	4.011625
24.050000	1	3.799875
24.066667	1	3.578500
24.083333	1	3.351625
24.100000	1	3.123375
24.116667	1	2.895625
24.133333	1	2.672500
24.150000	1	2.457125
24.166667	1	2.252000
24.183333	1	2.057125
24.200000	1	1.874750
24.216667	1	1.705500
24.233333	1	1.550500
24.250000	1	1.408125
24.266667	1	1.278625
24.283333	1	1.162625
24.300000	1	1.057500
24.316667	1	0.964750
24.333333	1	0.882500
24.350000	1	0.810125
24.366667	1	0.746250
24.383333	1	0.691375
24.400000	1	0.643875
24.416667	1	0.603250
24.433333	1	0.568375
24.450000	1	0.539000
24.466667	1	0.513875
24.483333	1	0.493500
24.500000	1	0.476250
24.516667	1	0.461750
24.533333	1	0.449875
24.550000	1	0.439750
24.566667	1	0.432125
24.583333	1	0.425250
24.600000	1	0.419375
24.616667	1	0.414000
24.633333	1	0.409000
24.650000	1	0.404000
24.666667	1	0.399125
24.683333	1	0.394125
24.700000	1	0.388500
24.716667	1	0.383875
24.733333	1	0.377750
24.750000	1	0.371250
24.766667	1	0.365375
24.783333	1	0.358875
24.800000	1	0.352750
24.816667	1	0.346750
24.833333	1	0.341250
24.850000	1	0.335375
24.866667	1	0.330375
24.883333	1	0.324625
24.900000	1	0.318500
24.916667	1	0.312750
24.933333	1	0.308000
24.950000	1	0.303250
24.966667	1	0.298250
24.983333	1	0.293875
25.000000	1	0.289625
25.016667	1	0.285750
25.033333	1	0.281125
25.050000	1	0.277125
25.066667	1	0.273250
25.083333	1	0.269500
25.100000	1	0.265875
25.116667	1	0.262000
25.133333	1	0.258875
25.150000	1	0.254375
25.166667	1	0.251000
25.183333	1	0.247750
25.200000	1	0.244000
25.216667	1	0.240000
25.233333	1	0.236500
25.250000	1	0.233000
25.266667	1	0.229125
25.283333	1	0.225875
25.300000	1	0.222250
25.316667	1	0.219375
25.333333	1	0.215750
25.350000	1	0.213125
25.366667	1	0.209875
25.383333	1	0.207375
25.400000	1	0.204375
25.416667	1	0.201500
25.433333	1	0.199250
25.450000	1	0.197625
25.466667	1	0.195750
25.483333	1	0.194750
25.500000	1	0.193625
25.516667	1	0.192000
25.533333	1	0.190750
25.550000	1	0.190125
25.566667	1	0.189625
25.583333	1	0.189625
25.600000	1	0.188750
25.616667	1	0.187250
25.633333	1	0.186125
25.650000	1	0.185875
25.666667	1	0.185500
25.683333	1	0.185875
25.700000	1	0.186000
25.716667	1	0.186125
25.733333	1	0.186375
25.750000	1	0.186375
25.766667	1	0.186375
25.783333	1	0.186750
25.800000	1	0.187000
25.816667	1	0.187500
25.833333	1	0.189000
25.850000	1	0.190500
25.866667	1	0.192125
25.883333	1	0.193875
25.900000	1	0.196125
25.916667	1	0.199250
25.933333	1	0.202875
25.950000	1	0.206625
25.966667	1	0.210250
25.983333	1	0.214750
26.000000	1	0.219250
26.016667	1	0.225000
26.033333	1	0.230375
26.050000	1	0.237000
26.066667	1	0.242875
26.083333	1	0.248750
26.100000	1	0.255250
26.116667	1	0.262000
26.133333	1	0.268375
26.150000	1	0.274875
26.166667	1	0.281250
26.183333	1	0.287125
26.200000	1	0.292625
26.216667	1	0.298125
26.233333	1	0.302500
26.250000	1	0.306125
26.266667	1	0.309625
26.283333	1	0.312500
26.300000	1	0.315250
26.316667	1	0.316125
26.333333	1	0.316875
26.350000	1	0.316000
26.366667	1	0.315250
26.383333	1	0.313125
26.400000	1	0.310250
26.416667	1	0.307125
26.433333	1	0.303500
26.450000	1	0.298875
26.466667	1	0.294500
26.483333	1	0.288875
26.500000	1	0.283625
26.516667	1	0.276625
26.533333	1	0.270000
26.550000	1	0.263625
26.566667	1	0.256375
26.583333	1	0.248500
26.600000	1	0.241125
26.616667	1	0.233500
26.633333	1	0.226125
26.650000	1	0.219125
26.666667	1	0.212375
26.683333	1	0.205875
26.700000	1	0.199000
26.716667	1	0.192375
26.733333	1	0.186875
26.750000	1	0.180625
26.766667	1	0.175000
26.783333	1	0.169625
26.800000	1	0.164625
26.816667	1	0.160250
26.833333	1	0.156125
26.850000	1	0.151875
26.866667	1	0.148750
26.883333	1	0.146250
26.900000	1	0.143375
26.916667	1	0.140750
26.933333	1	0.138500
26.950000	1	0.136500
26.966667	1	0.135875
26.983333	1	0.135625
27.000000	1	0.135625
27.016667	1	0.135000
27.033333	1	0.135875
27.050000	1	0.137875
27.066667	1	0.140500
27.083333	1	0.144375
27.100000	1	0.148750
27.116667	1	0.154250
27.133333	1	0.160750
27.150000	1	0.168250
27.166667	1	0.177750
27.183333	1	0.188750
27.200000	1	0.201375
27.216667	1	0.216000
27.233333	1	0.233750
27.250000	1	0.253750
27.266667	1	0.277000
27.283333	1	0.304000
27.300000	1	0.335000
27.316667	1	0.370375
27.333333	1	0.410750
27.350000	1	0.456375
27.366667	1	0.507250
27.383333	1	0.564750
27.400000	1	0.629125
27.416667	1	0.701500
27.433333	1	0.781875
27.450000	1	0.871250
27.466667	1	0.969375
27.483333	1	1.077000
27.500000	1	1.195250
27.516667	1	1.322750
27.533333	1	1.459500
27.550000	1	1.605500
27.566667	1	1.760375
27.583333	1	1.923000
27.600000	1	2.092250
27.616667	1	2.268375
27.633333	1	2.448875
27.650000	1	2.632375
27.666667	1	2.816750
27.683333	1	2.999750
27.700000	1	3.179250
27.716667	1	3.352500
27.733333	1	3.516625
27.750000	1	3.669250
27.766667	1	3.808250
27.783333	1	3.930125
27.800000	1	4.033375
27.816667	1	4.115875
27.833333	1	4.176875
27.850000	1	4.213625
27.866667	1	4.225250
27.883333	1	4.212625
27.900000	1	4.174500
27.916667	1	4.112000
27.933333	1	4.026250
27.950000	1	3.918500
27.966667	1	3.790875
27.983333	1	3.646875
28.000000	1	3.488250
28.016667	1	3.318000
28.033333	1	3.138375
28.050000	1	2.952500
28.066667	1	2.762000
28.083333	1	2.571500
28.100000	1	2.382875
28.116667	1	2.198000
28.133333	1	2.019875
28.150000	1	1.849000
28.166667	1	1.686750
28.183333	1	1.534625
28.200000	1	1.392875
28.216667	1	1.261250
28.233333	1	1.141125
28.250000	1	1.031375
28.266667	1	0.932625
28.283333	1	0.843625
28.300000	1	0.764375
28.316667	1	0.694375
28.333333	1	0.633500
28.350000	1	0.580250
28.366667	1	0.535500
28.383333	1	0.496875
28.400000	1	0.465625
28.416667	1	0.439375
28.433333	1	0.418625
28.450000	1	0.403125
28.466667	1	0.391250
28.483333	1	0.383500
28.500000	1	0.379375
28.516667	1	0.378125
28.533333	1	0.379250
28.550000	1	0.383125
28.566667	1	0.389000
28.583333	1	0.396500
28.600000	1	0.405125
28.616667	1	0.415000
28.633333	1	0.425250
28.650000	1	0.437125
28.666667	1	0.448750
28.683333	1	0.460750
28.700000	1	0.472750
28.716667	1	0.484250
28.733333	1	0.495500
28.750000	1	0.505750
28.766667	1	0.516000
28.783333	1	0.524875
28.800000	1	0.532875
28.816667	1	0.539750
28.833333	1	0.546125
28.850000	1	0.551500
28.866667	1	0.555750
28.883333	1	0.558375
28.900000	1	0.560500
28.916667	1	0.560625
28.933333	1	0.558875
28.950000	1	0.556375
28.966667	1	0.553000
28.983333	1	0.547875
29.000000	1	0.541625
29.016667	1	0.535125
29.033333	1	0.527500
29.050000	1	0.518000
29.066667	1	0.508375
29.083333	1	0.497375
29.100000	1	0.485875
29.116667	1	0.473125
29.133333	1	0.459375
29.150000	1	0.445500
29.166667	1	0.431875
29.183333	1	0.418000
29.200000	1	0.404000
29.216667	1	0.389500
29.233333	1	0.374875
29.250000	1	0.360000
29.266667	1	0.345250
29.283333	1	0.331125
29.300000	1	0.316125
29.316667	1	0.302125
29.333333	1	0.287625
29.350000	1	0.274375
29.366667	1	0.261375
29.383333	1	0.249125
29.400000	1	0.237125
29.416667	1	0.225000
29.433333	1	0.213250
29.450000	1	0.202125
29.466667	1	0.191000
29.483333	1	0.180750
29.500000	1	0.171000
29.516667	1	0.161625
29.533333	1	0.152625
29.550000	1	0.144625
29.566667	1	0.136250
29.583333	1	0.128125
29.600000	1	0.120750
29.616667	1	0.113500
29.633333	1	0.108000
29.650000	1	0.101500
29.666667	1	0.095875
29.683333	1	0.090750
29.700000	1	0.086250
29.716667	1	0.081250
29.733333	1	0.076750
29.750000	1	0.072000
29.766667	1	0.068000
29.783333	1	0.064375
29.800000	1	0.061375
29.816667	1	0.058500
29.833333	1	0.055375
29.850000	1	0.052500
29.866667	1	0.049875
29.883333	1	0.047750
29.900000	1	0.045750
29.916667	1	0.043750
29.933333	1	0.042000
29.950000	1	0.040500
29.966667	1	0.038500
29.983333	1	0.037500
30.000000	1	0.036125
30.016667	1	0.034625
30.033333	1	0.033875
30.050000	1	0.032875
30.066667	1	0.032375
30.083333	1	0.031375
30.100000	1	0.029875
30.116667	1	0.029125
30.133333	1	0.028000
30.150000	1	0.027500
30.166667	1	0.026500
30.183333	1	0.026125
30.200000	1	0.025375
30.216667	1	0.024875
30.233333	1	0.024375
30.250000	1	0.023875
30.266667	1	0.023750
30.283333	1	0.023250
30.300000	1	0.023250
30.316667	1	0.023625
30.333333	1	0.023875
30.350000	1	0.024125
30.366667	1	0.024250
30.383333	1	0.024500
30.400000	1	0.025250
30.416667	1	0.026500
30.433333	1	0.028000
30.450000	1	0.029625
30.466667	1	0.031750
30.483333	1	0.033375
30.500000	1	0.035625
30.516667	1	0.037875
30.533333	1	0.040875
30.550000	1	0.044125
30.566667	1	0.048750
30.583333	1	0.052625
30.600000	1	0.057875
30.616667	1	0.063250
30.633333	1	0.068875
30.650000	1	0.075750
30.666667	1	0.082500
30.683333	1	0.089875
30.700000	1	0.097375
30.716667	1	0.105250
30.733333	1	0.115000
30.750000	1	0.124750
30.766667	1	0.134750
30.783333	1	0.146125
30.800000	1	0.157375
30.816667	1	0.169375
30.833333	1	0.182250
30.850000	1	0.197125
30.866667	1	0.211500
30.883333	1	0.227375
30.900000	1	0.244500
30.916667	1	0.263125
30.933333	1	0.282875
30.950000	1	0.304375
30.966667	1	0.328250
30.983333	1	0.354250
31.000000	1	0.382125
31.016667	1	0.412250
31.033333	1	0.446250
31.050000	1	0.482875
31.066667	1	0.522500
31.083333	1	0.565125
31.100000	1	0.611625
31.116667	1	0.661875
31.133333	1	0.715875
31.150000	1	0.773375
31.166667	1	0.835125
31.183333	1	0.900875
31.200000	1	0.970625
31.216667	1	1.043875
31.233333	1	1.121125
31.250000	1	1.200500
31.266667	1	1.282875
31.283333	1	1.366500
31.300000	1	1.451125
31.316667	1	1.536875
31.333333	1	1.621875
31.350000	1	1.705250
31.366667	1	1.786250
31.383333	1	1.865500
31.400000	1	1.940125
31.416667	1	2.009750
31.433333	1	2.073375
31.450000	1	2.130625
31.466667	1	2.180250
31.483333	1	2.221625
31.500000	1	2.253000
31.516667	1	2.275875
31.533333	1	2.289125
31.550000	1	2.292375
31.566667	1	2.285875
31.583333	1	2.270125
31.600000	1	2.244625
31.616667	1	2.209375
31.633333	1	2.166250
31.650000	1	2.115250
31.666667	1	2.057875
31.683333	1	1.993500
31.700000	1	1.923750
31.716667	1	1.850000
31.733333	1	1.773625
31.750000	1	1.693000
31.766667	1	1.612125
31.783333	1	1.530000
31.800000	1	1.448000
31.816667	1	1.366375
31.833333	1	1.287125
31.850000	1	1.209375
31.866667	1	1.134250
31.883333	1	1.061500
31.900000	1	0.992500
31.916667	1	0.926875
31.933333	1	0.865000
31.950000	1	0.806750
31.966667	1	0.753000
31.983333	1	0.702375
32.000000	1	0.655000
32.016667	1	0.611625
32.033333	1	0.571875
32.050000	1	0.534125
32.066667	1	0.499875
32.083333	1	0.468375
32.100000	1	0.439000
32.116667	1	0.412750
32.133333	1	0.387500
32.150000	1	0.363750
32.166667	1	0.342000
32.183333	1	0.321875
32.200000	1	0.302875
32.216667	1	0.284625
32.233333	1	0.267125
32.250000	1	0.250875
32.266667	1	0.235000
32.283333	1	0.219625
32.300000	1	0.204875
32.316667	1	0.191125
32.333333	1	0.177500
32.350000	1	0.164250
32.366667	1	0.151000
32.383333	1	0.138750
32.400000	1	0.126250
32.416667	1	0.114875
32.433333	1	0.103875
32.450000	1	0.093375
32.466667	1	0.083375
32.483333	1	0.074000
32.500000	1	0.065000
32.516667	1	0.056750
32.533333	1	0.048500
32.550000	1	0.041000
32.566667	1	0.034750
32.583333	1	0.028375
32.600000	1	0.022750
32.616667	1	0.017500
32.633333	1	0.012625
32.650000	1	0.008500
32.666667	1	0.004000
32.683333	1	0.000375
32.700000	1	-0.003125
32.716667	1	-0.005750
32.733333	1	-0.007625
32.750000	1	-0.009500
32.766667	1	-0.010875
32.783333	1	-0.012375
32.800000	1	-0.013875
32.816667	1	-0.014500
32.833333	1	-0.015500
32.850000	1	-0.015250
32.866667	1	-0.015750
32.883333	1	-0.015625
32.900000	1	-0.015875
32.916667	1	-0.015875
32.933333	1	-0.016250
32.950000	1	-0.016375
32.966667	1	-0.015750
32.983333	1	-0.015375
33.000000	1	-0.014500
33.016667	1	-0.014750
33.033333	1	-0.015125
33.050000	1	-0.015000
33.066667	1	-0.014500
33.083333	1	-0.013500
33.100000	1	-0.013000
33.116667	1	-0.012250
33.133333	1	-0.011375
33.150000	1	-0.010625
33.166667	1	-0.009875
33.183333	1	-0.007875
33.200000	1	-0.006500
33.216667	1	-0.004875
33.233333	1	-0.002500
33.250000	1	-0.000500
33.266667	1	0.002375
33.283333	1	0.006125
33.300000	1	0.010375
33.316667	1	0.014875
33.333333	1	0.019750
33.350000	1	0.025000
33.366667	1	0.031500
33.383333	1	0.037625
33.400000	1	0.045375
33.416667	1	0.053125
33.433333	1	0.062250
33.450000	1	0.073000
33.466667	1	0.084375
33.483333	1	0.096750
33.500000	1	0.110250
33.516667	1	0.124625
33.533333	1	0.140375
33.550000	1	0.158250
33.566667	1	0.177625
33.583333	1	0.198625
33.600000	1	0.220125
33.616667	1	0.242375
33.633333	1	0.267375
33.650000	1	0.293000
33.666667	1	0.320875
33.683333	1	0.349500
33.700000	1	0.379375
33.716667	1	0.410750
33.733333	1	0.442875
33.750000	1	0.475750
33.766667	1	0.509625
33.783333	1	0.545000
33.800000	1	0.580500
33.816667	1	0.615750
33.833333	1	0.650250
33.850000	1	0.684625
33.866667	1	0.718500
33.883333	1	0.750875
33.900000	1	0.782250
33.916667	1	0.811000
33.933333	1	0.838500
33.950000	1	0.863250
33.966667	1	0.886000
33.983333	1	0.906250
34.000000	1	0.923250
34.016667	1	0.937500
34.033333	1	0.947625
34.050000	1	0.954375
34.066667	1	0.957625
34.083333	1	0.957500
34.100000	1	0.953875
34.116667	1	0.947000
34.133333	1	0.936625
34.150000	1	0.924000
34.166667	1	0.908125
34.183333	1	0.888625
34.200000	1	0.867250
34.216667	1	0.844125
34.233333	1	0.818375
34.250000	1	0.791500
34.266667	1	0.763000
34.283333	1	0.733625
34.300000	1	0.703750
34.316667	1	0.672750
34.333333	1	0.642375
34.350000	1	0.611875
34.366667	1	0.582125
34.383333	1	0.552125
34.400000	1	0.523125
34.416667	1	0.494875
34.433333	1	0.467875
34.450000	1	0.442750
34.466667	1	0.417750
34.483333	1	0.394125
34.500000	1	0.372250
34.516667	1	0.351625
34.533333	1	0.332000
34.550000	1	0.313625
34.566667	1	0.297125
34.583333	1	0.280875
34.600000	1	0.267125
34.616667	1	0.253375
34.633333	1	0.240625
34.650000	1	0.228625
34.666667	1	0.218500
34.683333	1	0.208375
34.700000	1	0.198875
34.716667	1	0.191250
34.733333	1	0.184250
34.750000	1	0.177750
34.766667	1	0.171750
34.783333	1	0.165750
34.800000	1	0.160375
34.816667	1	0.155000
34.833333	1	0.150625
34.850000	1	0.146250
34.866667	1	0.142125
34.883333	1	0.138625
34.900000	1	0.134625
34.916667	1	0.131500
34.933333	1	0.128625
34.950000	1	0.125875
34.966667	1	0.123625
34.983333	1	0.120875
35.000000	1	0.118875
35.016667	1	0.116625
35.033333	1	0.114500
35.050000	1	0.113625
35.066667	1	0.112000
35.083333	1	0.110375
35.100000	1	0.109875
35.116667	1	0.109000
35.133333	1	0.108250
35.150000	1	0.107500
35.166667	1	0.106875
35.183333	1	0.106750
35.200000	1	0.106500
35.216667	1	0.105875
35.233333	1	0.105750
35.250000	1	0.105625
35.266667	1	0.105375
35.283333	1	0.105375
35.300000	1	0.106250
35.316667	1	0.106875
35.333333	1	0.107375
35.350000	1	0.107750
35.366667	1	0.108500
35.383333	1	0.109125
35.400000	1	0.109625
35.416667	1	0.109875
35.433333	1	0.110375
35.450000	1	0.110500
35.466667	1	0.110500
35.483333	1	0.111625
35.500000	1	0.112250
35.516667	1	0.112250
35.533333	1	0.112750
35.550000	1	0.113500
35.566667	1	0.113875
35.583333	1	0.114125
35.600000	1	0.113875
35.616667	1	0.114500
35.633333	1	0.113875
35.650000	1	0.113125
35.666667	1	0.112375
35.683333	1	0.112000
35.700000	1	0.111875
35.716667	1	0.110875
35.733333	1	0.110375
35.750000	1	0.109625
35.766667	1	0.108750
35.783333	1	0.107875
35.800000	1	0.106500
35.816667	1	0.105750
35.833333	1	0.104875
35.850000	1	0.103750
35.866667	1	0.102500
35.883333	1	0.102000
35.900000	1	0.100375
35.916667	1	0.098750
35.933333	1	0.097750
35.950000	1	0.097750
35.966667	1	0.097125
35.983333	1	0.096625
36.000000	1	0.095875
36.016667	1	0.095125
36.033333	1	0.095000
36.050000	1	0.094250
36.066667	1	0.093875
36.083333	1	0.094125
36.100000	1	0.094250
36.116667	1	0.093375
36.133333	1	0.093625
36.150000	1	0.094250
36.166667	1	0.094500
36.183333	1	0.094875
36.200000	1	0.094750
36.216667	1	0.094750
36.233333	1	0.094375
36.250000	1	0.094500
36.266667	1	0.094250
36.283333	1	0.094750
36.300000	1	0.095375
36.316667	1	0.095250
36.333333	1	0.095500
36.350000	1	0.095750
36.366667	1	0.096250
36.383333	1	0.096625
36.400000	1	0.096125
36.416667	1	0.096250
36.433333	1	0.095125
36.450000	1	0.094125
36.466667	1	0.093875
36.483333	1	0.092750
36.500000	1	0.093125
36.516667	1	0.092750
36.533333	1	0.091750
36.550000	1	0.091125
36.566667	1	0.090250
36.583333	1	0.089375
36.600000	1	0.087500
36.616667	1	0.086625
36.633333	1	0.085500
36.650000	1	0.084125
36.666667	1	0.083000
36.683333	1	0.081750
36.700000	1	0.080125
36.716667	1	0.078500
36.733333	1	0.077625
36.750000	1	0.075750
36.766667	1	0.074375
36.783333	1	0.072375
36.800000	1	0.070125
36.816667	1	0.068125
36.833333	1	0.066375
36.850000	1	0.064125
36.866667	1	0.062375
36.883333	1	0.060500
36.900000	1	0.058750
36.916667	1	0.057125
36.933333	1	0.055375
36.950000	1	0.053750
36.966667	1	0.051750
36.983333	1	0.050500
37.000000	1	0.048875
37.016667	1	0.047375
37.033333	1	0.045750
37.050000	1	0.043750
37.066667	1	0.042750
37.083333	1	0.041250
37.100000	1	0.039875
37.116667	1	0.039250
37.133333	1	0.038375
37.150000	1	0.036875
37.166667	1	0.035250
37.183333	1	0.034625
37.200000	1	0.033625
37.216667	1	0.033000
37.233333	1	0.031625
37.250000	1	0.031500
37.266667	1	0.031125
37.283333	1	0.031000
37.300000	1	0.030000
37.316667	1	0.029625
37.333333	1	0.029625
37.350000	1	0.029250
37.366667	1	0.029375
37.383333	1	0.029250
37.400000	1	0.029375
37.416667	1	0.029125
37.433333	1	0.028500
37.450000	1	0.028500
37.466667	1	0.028875
37.483333	1	0.028375
37.500000	1	0.028750
37.516667	1	0.028750
37.533333	1	0.028625
37.550000	1	0.028500
37.566667	1	0.028750
37.583333	1	0.028625
37.600000	1	0.028500
37.616667	1	0.028625
37.633333	1	0.028500
37.650000	1	0.028500
37.666667	1	0.028500
37.683333	1	0.028625
37.700000	1	0.027750
37.716667	1	0.027875
37.733333	1	0.027875
37.750000	1	0.028375
37.766667	1	0.029375
37.783333	1	0.031000
37.800000	1	0.031625
37.816667	1	0.032250
37.833333	1	0.032375
37.850000	1	0.033500
37.866667	1	0.034875
37.883333	1	0.036250
37.900000	1	0.037625
37.916667	1	0.039250
37.933333	1	0.040375
37.950000	1	0.041375
37.966667	1	0.042875
37.983333	1	0.044500
38.000000	1	0.045875
38.016667	1	0.047125
38.033333	1	0.048375
38.050000	1	0.049875
38.066667	1	0.051625
38.083333	1	0.053000
38.100000	1	0.054625
38.116667	1	0.055625
38.133333	1	0.056750
38.150000	1	0.057625
38.166667	1	0.058250
38.183333	1	0.058750
38.200000	1	0.060125
38.216667	1	0.061250
38.233333	1	0.062375
38.250000	1	0.062375
38.266667	1	0.063000
38.283333	1	0.063875
38.300000	1	0.064125
38.316667	1	0.064875
38.333333	1	0.065375
38.350000	1	0.065500
38.366667	1	0.065375
38.383333	1	0.065250
38.400000	1	0.066000
38.416667	1	0.065875
38.433333	1	0.065625
38.450000	1	0.065625
38.466667	1	0.065250
38.483333	1	0.064750
38.500000	1	0.064750
38.516667	1	0.064500
38.533333	1	0.063625
38.550000	1	0.063125
38.566667	1	0.062125
38.583333	1	0.061875
38.600000	1	0.061000
38.616667	1	0.060125
38.633333	1	0.059875
38.650000	1	0.059125
38.666667	1	0.057375
38.683333	1	0.056500
38.700000	1	0.055500
38.716667	1	0.054375
38.733333	1	0.053375
38.750000	1	0.051750
38.766667	1	0.050625
38.783333	1	0.050000
38.800000	1	0.049375
38.816667	1	0.047750
38.833333	1	0.047125
38.850000	1	0.045750
38.866667	1	0.045125
38.883333	1	0.043625
38.900000	1	0.042750
38.916667	1	0.041250
38.933333	1	0.040250
38.950000	1	0.038500
38.966667	1	0.037375
38.983333	1	0.036625
39.000000	1	0.035750
39.016667	1	0.035000
39.033333	1	0.033250
39.050000	1	0.032750
39.066667	1	0.031750
39.083333	1	0.030625
39.100000	1	0.029875
39.116667	1	0.029125
39.133333	1	0.027750
39.150000	1	0.026500
39.166667	1	0.025375
39.183333	1	0.024500
39.200000	1	0.023625
39.216667	1	0.022875
39.233333	1	0.022125
39.250000	1	0.021250
39.266667	1	0.020875
39.283333	1	0.020000
39.300000	1	0.019500
39.316667	1	0.019250
39.333333	1	0.018750
39.350000	1	0.018375
39.366667	1	0.018250
39.383333	1	0.017250
39.400000	1	0.017000
39.416667	1	0.017375
39.433333	1	0.017375
39.450000	1	0.017250
39.466667	1	0.016750
39.483333	1	0.017375
39.500000	1	0.017125
39.516667	1	0.017250
39.533333	1	0.017375
39.550000	1	0.017125
39.566667	1	0.017000
39.583333	1	0.017000
39.600000	1	0.017750
39.616667	1	0.017875
39.633333	1	0.018125
39.650000	1	0.018125
39.666667	1	0.018500
39.683333	1	0.019125
39.700000	1	0.019125
39.716667	1	0.020125
39.733333	1	0.021000
39.750000	1	0.020875
39.766667	1	0.021125
39.783333	1	0.020875
39.800000	1	0.021250
39.816667	1	0.021250
39.833333	1	0.021000
39.850000	1	0.021500
39.866667	1	0.022750
39.883333	1	0.023000
39.900000	1	0.023500
39.916667	1	0.023625
39.933333	1	0.023750
39.950000	1	0.024125
39.966667	1	0.024125
39.983333	1	0.024000
40.000000	1	0.024375
