URL	chrom://bioreactor/micro_cm7/HPLC_Ultimate_3000/Users/markusar/20240716_MA_pHrange2.seq/661.smp/RI_1.channel/RI_1.chm
Channel	RI_1

Injection Information:
Data Vault	micro_cm7
Sequence	20240716_MA_pHrange2
Name	Fp3_40H_4
Number	37
Position	BD1
Comment	
Processing Method	
Instrument Method	run_25B_method
Type	Unknown
Status	Finished
Inject Time	17.07.2024 18:41:24 +02:00
Volume (µl)	20.0000
Dilution Factor	1.0000
Weight	1.0000

Chromatogram Data Information:
Time Min. (min)	0.000000
Time Max. (min)	40.000000
Data Points	2401
Detector	RI
Generating Data System	Chromeleon 7.3.2.11814
Exporting Data System	Chromeleon 7.3.2.0
Operator	Instrument Controller
Signal Quantity	Refractive 
Signal Unit	µRIU
Signal Min.	0.002625
Signal Max.	82.073750
Channel	RI_1
Driver Name	RID520Driver.dll
Channel Type	Evaluation
Min. Step (s)	1
Max. Step (s)	1
Average Step (s)	1

Signal Parameter Information:
Signal Info	

Chromatogram Data:
Time (min)	Step (s)	Value (µRIU)
0.000000	n.a.	0.019625
0.016667	1	0.020000
0.033333	1	0.020875
0.050000	1	0.021875
0.066667	1	0.022875
0.083333	1	0.024500
0.100000	1	0.025625
0.116667	1	0.027125
0.133333	1	0.029250
0.150000	1	0.030875
0.166667	1	0.032375
0.183333	1	0.033625
0.200000	1	0.035125
0.216667	1	0.037000
0.233333	1	0.039125
0.250000	1	0.040375
0.266667	1	0.042000
0.283333	1	0.044000
0.300000	1	0.046250
0.316667	1	0.048375
0.333333	1	0.049625
0.350000	1	0.050625
0.366667	1	0.051250
0.383333	1	0.050625
0.400000	1	0.051750
0.416667	1	0.053250
0.433333	1	0.055625
0.450000	1	0.057750
0.466667	1	0.060250
0.483333	1	0.062250
0.500000	1	0.064375
0.516667	1	0.065250
0.533333	1	0.066250
0.550000	1	0.066625
0.566667	1	0.065500
0.583333	1	0.064125
0.600000	1	0.062625
0.616667	1	0.061375
0.633333	1	0.060125
0.650000	1	0.059500
0.666667	1	0.059750
0.683333	1	0.059875
0.700000	1	0.059125
0.716667	1	0.059125
0.733333	1	0.058625
0.750000	1	0.058250
0.766667	1	0.057625
0.783333	1	0.056625
0.800000	1	0.056500
0.816667	1	0.055750
0.833333	1	0.055000
0.850000	1	0.054750
0.866667	1	0.053875
0.883333	1	0.052875
0.900000	1	0.051500
0.916667	1	0.051250
0.933333	1	0.050250
0.950000	1	0.049375
0.966667	1	0.048250
0.983333	1	0.047750
1.000000	1	0.047000
1.016667	1	0.045875
1.033333	1	0.044750
1.050000	1	0.044000
1.066667	1	0.043250
1.083333	1	0.042000
1.100000	1	0.042125
1.116667	1	0.041375
1.133333	1	0.039875
1.150000	1	0.039375
1.166667	1	0.038375
1.183333	1	0.038125
1.200000	1	0.037750
1.216667	1	0.037375
1.233333	1	0.037250
1.250000	1	0.037375
1.266667	1	0.037500
1.283333	1	0.036750
1.300000	1	0.037500
1.316667	1	0.037125
1.333333	1	0.037125
1.350000	1	0.037250
1.366667	1	0.037625
1.383333	1	0.037875
1.400000	1	0.038125
1.416667	1	0.038625
1.433333	1	0.039500
1.450000	1	0.040125
1.466667	1	0.040125
1.483333	1	0.040875
1.500000	1	0.040875
1.516667	1	0.040625
1.533333	1	0.041250
1.550000	1	0.041500
1.566667	1	0.041250
1.583333	1	0.040625
1.600000	1	0.040625
1.616667	1	0.039750
1.633333	1	0.040000
1.650000	1	0.040250
1.666667	1	0.040250
1.683333	1	0.039500
1.700000	1	0.039500
1.716667	1	0.038625
1.733333	1	0.037875
1.750000	1	0.037375
1.766667	1	0.036625
1.783333	1	0.035625
1.800000	1	0.034500
1.816667	1	0.033125
1.833333	1	0.032250
1.850000	1	0.030875
1.866667	1	0.030625
1.883333	1	0.029625
1.900000	1	0.028625
1.916667	1	0.028125
1.933333	1	0.027250
1.950000	1	0.027000
1.966667	1	0.026750
1.983333	1	0.026250
2.000000	1	0.025000
2.016667	1	0.024125
2.033333	1	0.023500
2.050000	1	0.023500
2.066667	1	0.023500
2.083333	1	0.023375
2.100000	1	0.023375
2.116667	1	0.023125
2.133333	1	0.022750
2.150000	1	0.022625
2.166667	1	0.022125
2.183333	1	0.022500
2.200000	1	0.022250
2.216667	1	0.022125
2.233333	1	0.022125
2.250000	1	0.022750
2.266667	1	0.022875
2.283333	1	0.023125
2.300000	1	0.022875
2.316667	1	0.023250
2.333333	1	0.023500
2.350000	1	0.023625
2.366667	1	0.023750
2.383333	1	0.023500
2.400000	1	0.023875
2.416667	1	0.024625
2.433333	1	0.024750
2.450000	1	0.025000
2.466667	1	0.025500
2.483333	1	0.024875
2.500000	1	0.024500
2.516667	1	0.024375
2.533333	1	0.024000
2.550000	1	0.024500
2.566667	1	0.024625
2.583333	1	0.024000
2.600000	1	0.023875
2.616667	1	0.024125
2.633333	1	0.023875
2.650000	1	0.023750
2.666667	1	0.023750
2.683333	1	0.024000
2.700000	1	0.023250
2.716667	1	0.023500
2.733333	1	0.022750
2.750000	1	0.022750
2.766667	1	0.022375
2.783333	1	0.022875
2.800000	1	0.022500
2.816667	1	0.022000
2.833333	1	0.021375
2.850000	1	0.020500
2.866667	1	0.020250
2.883333	1	0.020625
2.900000	1	0.020625
2.916667	1	0.020250
2.933333	1	0.019750
2.950000	1	0.019875
2.966667	1	0.019375
2.983333	1	0.019375
3.000000	1	0.019000
3.016667	1	0.019125
3.033333	1	0.019125
3.050000	1	0.019750
3.066667	1	0.019750
3.083333	1	0.019500
3.100000	1	0.020000
3.116667	1	0.020375
3.133333	1	0.020375
3.150000	1	0.020125
3.166667	1	0.020750
3.183333	1	0.021375
3.200000	1	0.022000
3.216667	1	0.023125
3.233333	1	0.023750
3.250000	1	0.025000
3.266667	1	0.026250
3.283333	1	0.027500
3.300000	1	0.028500
3.316667	1	0.028875
3.333333	1	0.030625
3.350000	1	0.032375
3.366667	1	0.033250
3.383333	1	0.034500
3.400000	1	0.036125
3.416667	1	0.037500
3.433333	1	0.039625
3.450000	1	0.041250
3.466667	1	0.042625
3.483333	1	0.044625
3.500000	1	0.047250
3.516667	1	0.049500
3.533333	1	0.051250
3.550000	1	0.053250
3.566667	1	0.055875
3.583333	1	0.058375
3.600000	1	0.061000
3.616667	1	0.063500
3.633333	1	0.064875
3.650000	1	0.067500
3.666667	1	0.069625
3.683333	1	0.072125
3.700000	1	0.074250
3.716667	1	0.076125
3.733333	1	0.077500
3.750000	1	0.079500
3.766667	1	0.081000
3.783333	1	0.082375
3.800000	1	0.083625
3.816667	1	0.085250
3.833333	1	0.086750
3.850000	1	0.087625
3.866667	1	0.088500
3.883333	1	0.089625
3.900000	1	0.090250
3.916667	1	0.091500
3.933333	1	0.092500
3.950000	1	0.092875
3.966667	1	0.093375
3.983333	1	0.094375
4.000000	1	0.094750
4.016667	1	0.094750
4.033333	1	0.095375
4.050000	1	0.096250
4.066667	1	0.096875
4.083333	1	0.097750
4.100000	1	0.098625
4.116667	1	0.098750
4.133333	1	0.099250
4.150000	1	0.100625
4.166667	1	0.101625
4.183333	1	0.102250
4.200000	1	0.103250
4.216667	1	0.104250
4.233333	1	0.104750
4.250000	1	0.106125
4.266667	1	0.107875
4.283333	1	0.109125
4.300000	1	0.111125
4.316667	1	0.112625
4.333333	1	0.114000
4.350000	1	0.115375
4.366667	1	0.116750
4.383333	1	0.118625
4.400000	1	0.120750
4.416667	1	0.123250
4.433333	1	0.124750
4.450000	1	0.126125
4.466667	1	0.127625
4.483333	1	0.129375
4.500000	1	0.131250
4.516667	1	0.132750
4.533333	1	0.134000
4.550000	1	0.135750
4.566667	1	0.137500
4.583333	1	0.139250
4.600000	1	0.140750
4.616667	1	0.142125
4.633333	1	0.143750
4.650000	1	0.144875
4.666667	1	0.146500
4.683333	1	0.147875
4.700000	1	0.149125
4.716667	1	0.150250
4.733333	1	0.151875
4.750000	1	0.153375
4.766667	1	0.155500
4.783333	1	0.157625
4.800000	1	0.159625
4.816667	1	0.162375
4.833333	1	0.164500
4.850000	1	0.167250
4.866667	1	0.169250
4.883333	1	0.171250
4.900000	1	0.174250
4.916667	1	0.177125
4.933333	1	0.179750
4.950000	1	0.182500
4.966667	1	0.185125
4.983333	1	0.188750
5.000000	1	0.192375
5.016667	1	0.195000
5.033333	1	0.198875
5.050000	1	0.201750
5.066667	1	0.204625
5.083333	1	0.208125
5.100000	1	0.211375
5.116667	1	0.214500
5.133333	1	0.217375
5.150000	1	0.220750
5.166667	1	0.223625
5.183333	1	0.226125
5.200000	1	0.228750
5.216667	1	0.230875
5.233333	1	0.232125
5.250000	1	0.233875
5.266667	1	0.235250
5.283333	1	0.235375
5.300000	1	0.236125
5.316667	1	0.235875
5.333333	1	0.235375
5.350000	1	0.234625
5.366667	1	0.232750
5.383333	1	0.230750
5.400000	1	0.229125
5.416667	1	0.226750
5.433333	1	0.224750
5.450000	1	0.221125
5.466667	1	0.216750
5.483333	1	0.213000
5.500000	1	0.208625
5.516667	1	0.204000
5.533333	1	0.199375
5.550000	1	0.194375
5.566667	1	0.189375
5.583333	1	0.184250
5.600000	1	0.179375
5.616667	1	0.174750
5.633333	1	0.170000
5.650000	1	0.164875
5.666667	1	0.159750
5.683333	1	0.154875
5.700000	1	0.149875
5.716667	1	0.144875
5.733333	1	0.140625
5.750000	1	0.136750
5.766667	1	0.132500
5.783333	1	0.128625
5.800000	1	0.125000
5.816667	1	0.122125
5.833333	1	0.118625
5.850000	1	0.115375
5.866667	1	0.111875
5.883333	1	0.109375
5.900000	1	0.106750
5.916667	1	0.103750
5.933333	1	0.101375
5.950000	1	0.098375
5.966667	1	0.096000
5.983333	1	0.094125
6.000000	1	0.092125
6.016667	1	0.090000
6.033333	1	0.087750
6.050000	1	0.085500
6.066667	1	0.083125
6.083333	1	0.081125
6.100000	1	0.078500
6.116667	1	0.076125
6.133333	1	0.074125
6.150000	1	0.071375
6.166667	1	0.068875
6.183333	1	0.066250
6.200000	1	0.063875
6.216667	1	0.061375
6.233333	1	0.059000
6.250000	1	0.056000
6.266667	1	0.053375
6.283333	1	0.051125
6.300000	1	0.048500
6.316667	1	0.045375
6.333333	1	0.043125
6.350000	1	0.040250
6.366667	1	0.038250
6.383333	1	0.036250
6.400000	1	0.034125
6.416667	1	0.032000
6.433333	1	0.030500
6.450000	1	0.029000
6.466667	1	0.028125
6.483333	1	0.026625
6.500000	1	0.025625
6.516667	1	0.024750
6.533333	1	0.024250
6.550000	1	0.024125
6.566667	1	0.023625
6.583333	1	0.024500
6.600000	1	0.025125
6.616667	1	0.025875
6.633333	1	0.027000
6.650000	1	0.028375
6.666667	1	0.029625
6.683333	1	0.031250
6.700000	1	0.033375
6.716667	1	0.036125
6.733333	1	0.039000
6.750000	1	0.042000
6.766667	1	0.045250
6.783333	1	0.048500
6.800000	1	0.051500
6.816667	1	0.054875
6.833333	1	0.058375
6.850000	1	0.061875
6.866667	1	0.065625
6.883333	1	0.069250
6.900000	1	0.072875
6.916667	1	0.077000
6.933333	1	0.080375
6.950000	1	0.084875
6.966667	1	0.089250
6.983333	1	0.093000
7.000000	1	0.097375
7.016667	1	0.100125
7.033333	1	0.103750
7.050000	1	0.107250
7.066667	1	0.110000
7.083333	1	0.113000
7.100000	1	0.115625
7.116667	1	0.118500
7.133333	1	0.120250
7.150000	1	0.122625
7.166667	1	0.124875
7.183333	1	0.126500
7.200000	1	0.127750
7.216667	1	0.128875
7.233333	1	0.129875
7.250000	1	0.131125
7.266667	1	0.131500
7.283333	1	0.131500
7.300000	1	0.130375
7.316667	1	0.129625
7.333333	1	0.129000
7.350000	1	0.128250
7.366667	1	0.126625
7.383333	1	0.124500
7.400000	1	0.122250
7.416667	1	0.119750
7.433333	1	0.116500
7.450000	1	0.113750
7.466667	1	0.110625
7.483333	1	0.107125
7.500000	1	0.103250
7.516667	1	0.100000
7.533333	1	0.096000
7.550000	1	0.091875
7.566667	1	0.088125
7.583333	1	0.083875
7.600000	1	0.079125
7.616667	1	0.074625
7.633333	1	0.070375
7.650000	1	0.066000
7.666667	1	0.061750
7.683333	1	0.057250
7.700000	1	0.052375
7.716667	1	0.048375
7.733333	1	0.044250
7.750000	1	0.040375
7.766667	1	0.036875
7.783333	1	0.034000
7.800000	1	0.030625
7.816667	1	0.027125
7.833333	1	0.024000
7.850000	1	0.020875
7.866667	1	0.018375
7.883333	1	0.015625
7.900000	1	0.013375
7.916667	1	0.011750
7.933333	1	0.010125
7.950000	1	0.008750
7.966667	1	0.007750
7.983333	1	0.006125
8.000000	1	0.005625
8.016667	1	0.004625
8.033333	1	0.003875
8.050000	1	0.003750
8.066667	1	0.003125
8.083333	1	0.002750
8.100000	1	0.002625
8.116667	1	0.003500
8.133333	1	0.003875
8.150000	1	0.004500
8.166667	1	0.005000
8.183333	1	0.005750
8.200000	1	0.006000
8.216667	1	0.006375
8.233333	1	0.007125
8.250000	1	0.007375
8.266667	1	0.008500
8.283333	1	0.008875
8.300000	1	0.010250
8.316667	1	0.011250
8.333333	1	0.012000
8.350000	1	0.012375
8.366667	1	0.013500
8.383333	1	0.013500
8.400000	1	0.013625
8.416667	1	0.013750
8.433333	1	0.014250
8.450000	1	0.014500
8.466667	1	0.014875
8.483333	1	0.014250
8.500000	1	0.014250
8.516667	1	0.014500
8.533333	1	0.014375
8.550000	1	0.013875
8.566667	1	0.013125
8.583333	1	0.013250
8.600000	1	0.013750
8.616667	1	0.013250
8.633333	1	0.013000
8.650000	1	0.012625
8.666667	1	0.012625
8.683333	1	0.012875
8.700000	1	0.013125
8.716667	1	0.013375
8.733333	1	0.013625
8.750000	1	0.014375
8.766667	1	0.015875
8.783333	1	0.016250
8.800000	1	0.017375
8.816667	1	0.018125
8.833333	1	0.019000
8.850000	1	0.019750
8.866667	1	0.021375
8.883333	1	0.023000
8.900000	1	0.024750
8.916667	1	0.026375
8.933333	1	0.028375
8.950000	1	0.030125
8.966667	1	0.032125
8.983333	1	0.034500
9.000000	1	0.037125
9.016667	1	0.038750
9.033333	1	0.041125
9.050000	1	0.042500
9.066667	1	0.044500
9.083333	1	0.046000
9.100000	1	0.048000
9.116667	1	0.049500
9.133333	1	0.050875
9.150000	1	0.052875
9.166667	1	0.054875
9.183333	1	0.056000
9.200000	1	0.057625
9.216667	1	0.057875
9.233333	1	0.058750
9.250000	1	0.059250
9.266667	1	0.059625
9.283333	1	0.061000
9.300000	1	0.061250
9.316667	1	0.061500
9.333333	1	0.061250
9.350000	1	0.061875
9.366667	1	0.061375
9.383333	1	0.061375
9.400000	1	0.060625
9.416667	1	0.060125
9.433333	1	0.059750
9.450000	1	0.058875
9.466667	1	0.058500
9.483333	1	0.056500
9.500000	1	0.055750
9.516667	1	0.054625
9.533333	1	0.053250
9.550000	1	0.052125
9.566667	1	0.049875
9.583333	1	0.048625
9.600000	1	0.047000
9.616667	1	0.044875
9.633333	1	0.043750
9.650000	1	0.042000
9.666667	1	0.040625
9.683333	1	0.039375
9.700000	1	0.038375
9.716667	1	0.036250
9.733333	1	0.034875
9.750000	1	0.033250
9.766667	1	0.031875
9.783333	1	0.030125
9.800000	1	0.029125
9.816667	1	0.027625
9.833333	1	0.026500
9.850000	1	0.024875
9.866667	1	0.023500
9.883333	1	0.022000
9.900000	1	0.020125
9.916667	1	0.018625
9.933333	1	0.018250
9.950000	1	0.017250
9.966667	1	0.016500
9.983333	1	0.015875
10.000000	1	0.015125
10.016667	1	0.014500
10.033333	1	0.014375
10.050000	1	0.014500
10.066667	1	0.014500
10.083333	1	0.016500
10.100000	1	0.017625
10.116667	1	0.019000
10.133333	1	0.022375
10.150000	1	0.025500
10.166667	1	0.030250
10.183333	1	0.036125
10.200000	1	0.042250
10.216667	1	0.049750
10.233333	1	0.057875
10.250000	1	0.068125
10.266667	1	0.080625
10.283333	1	0.094875
10.300000	1	0.111375
10.316667	1	0.128500
10.333333	1	0.147250
10.350000	1	0.166000
10.366667	1	0.182875
10.383333	1	0.194500
10.400000	1	0.196875
10.416667	1	0.187000
10.433333	1	0.161500
10.450000	1	0.120625
10.466667	1	0.070875
10.483333	1	0.026250
10.500000	1	0.009750
10.516667	1	0.054750
10.533333	1	0.205000
10.550000	1	0.513625
10.566667	1	1.035875
10.583333	1	1.830500
10.600000	1	2.951750
10.616667	1	4.449000
10.633333	1	6.358000
10.650000	1	8.704625
10.666667	1	11.506500
10.683333	1	14.768625
10.700000	1	18.484875
10.716667	1	22.638000
10.733333	1	27.199125
10.750000	1	32.129125
10.766667	1	37.374625
10.783333	1	42.869000
10.800000	1	48.524000
10.816667	1	54.217875
10.833333	1	59.768875
10.850000	1	64.924625
10.866667	1	69.334000
10.883333	1	72.541625
10.900000	1	74.035250
10.916667	1	73.365750
10.933333	1	70.313625
10.950000	1	65.022875
10.966667	1	58.021500
10.983333	1	50.068625
11.000000	1	41.958125
11.016667	1	34.330375
11.033333	1	27.589750
11.050000	1	21.895375
11.066667	1	17.247375
11.083333	1	13.548375
11.100000	1	10.664375
11.116667	1	8.449250
11.133333	1	6.766875
11.150000	1	5.498625
11.166667	1	4.545375
11.183333	1	3.828000
11.200000	1	3.286500
11.216667	1	2.874500
11.233333	1	2.559125
11.250000	1	2.313750
11.266667	1	2.120875
11.283333	1	1.965875
11.300000	1	1.840000
11.316667	1	1.735375
11.333333	1	1.647000
11.350000	1	1.569250
11.366667	1	1.502125
11.383333	1	1.441500
11.400000	1	1.387000
11.416667	1	1.338250
11.433333	1	1.294125
11.450000	1	1.255375
11.466667	1	1.220125
11.483333	1	1.189375
11.500000	1	1.163375
11.516667	1	1.141500
11.533333	1	1.123750
11.550000	1	1.109875
11.566667	1	1.100000
11.583333	1	1.094375
11.600000	1	1.093750
11.616667	1	1.097000
11.633333	1	1.105375
11.650000	1	1.117750
11.666667	1	1.133500
11.683333	1	1.152250
11.700000	1	1.175375
11.716667	1	1.199875
11.733333	1	1.226125
11.750000	1	1.251125
11.766667	1	1.275125
11.783333	1	1.295125
11.800000	1	1.311375
11.816667	1	1.323250
11.833333	1	1.329000
11.850000	1	1.329125
11.866667	1	1.324375
11.883333	1	1.314500
11.900000	1	1.301500
11.916667	1	1.284250
11.933333	1	1.264750
11.950000	1	1.244625
11.966667	1	1.224125
11.983333	1	1.204625
12.000000	1	1.185250
12.016667	1	1.168125
12.033333	1	1.153125
12.050000	1	1.139625
12.066667	1	1.127750
12.083333	1	1.118000
12.100000	1	1.110125
12.116667	1	1.104125
12.133333	1	1.099000
12.150000	1	1.095250
12.166667	1	1.092750
12.183333	1	1.091750
12.200000	1	1.092250
12.216667	1	1.093500
12.233333	1	1.096750
12.250000	1	1.102750
12.266667	1	1.112250
12.283333	1	1.126375
12.300000	1	1.147750
12.316667	1	1.179500
12.333333	1	1.225250
12.350000	1	1.290000
12.366667	1	1.382750
12.383333	1	1.513625
12.400000	1	1.696500
12.416667	1	1.948375
12.433333	1	2.294250
12.450000	1	2.763000
12.466667	1	3.392250
12.483333	1	4.227250
12.500000	1	5.321250
12.516667	1	6.733625
12.533333	1	8.528875
12.550000	1	10.774000
12.566667	1	13.532625
12.583333	1	16.861250
12.600000	1	20.790750
12.616667	1	25.323000
12.633333	1	30.428500
12.650000	1	36.036625
12.666667	1	42.019375
12.683333	1	48.199750
12.700000	1	54.349375
12.716667	1	60.211750
12.733333	1	65.518125
12.750000	1	70.011625
12.766667	1	73.470625
12.783333	1	75.733250
12.800000	1	76.712125
12.816667	1	76.406250
12.833333	1	74.895750
12.850000	1	72.326750
12.866667	1	68.904500
12.883333	1	64.871125
12.900000	1	60.480000
12.916667	1	55.975375
12.933333	1	51.572125
12.950000	1	47.440000
12.966667	1	43.699375
12.983333	1	40.426125
13.000000	1	37.658875
13.016667	1	35.398250
13.033333	1	33.619750
13.050000	1	32.284875
13.066667	1	31.345875
13.083333	1	30.753625
13.100000	1	30.458500
13.116667	1	30.414250
13.133333	1	30.579875
13.150000	1	30.918500
13.166667	1	31.400500
13.183333	1	32.000500
13.200000	1	32.696500
13.216667	1	33.473250
13.233333	1	34.317750
13.250000	1	35.220625
13.266667	1	36.174000
13.283333	1	37.172000
13.300000	1	38.209625
13.316667	1	39.283375
13.333333	1	40.389250
13.350000	1	41.526375
13.366667	1	42.694125
13.383333	1	43.892000
13.400000	1	45.117375
13.416667	1	46.371750
13.433333	1	47.654250
13.450000	1	48.967750
13.466667	1	50.311375
13.483333	1	51.684875
13.500000	1	53.089750
13.516667	1	54.524500
13.533333	1	55.989500
13.550000	1	57.485875
13.566667	1	59.013125
13.583333	1	60.571125
13.600000	1	62.159625
13.616667	1	63.781500
13.633333	1	65.436250
13.650000	1	67.126250
13.666667	1	68.852500
13.683333	1	70.614000
13.700000	1	72.412750
13.716667	1	74.245250
13.733333	1	76.101250
13.750000	1	77.942000
13.766667	1	79.661250
13.783333	1	81.071875
13.800000	1	81.945125
13.816667	1	82.073750
13.833333	1	81.311625
13.850000	1	79.541250
13.866667	1	76.610125
13.883333	1	72.307875
13.900000	1	66.455125
13.916667	1	59.108875
13.933333	1	50.707500
13.950000	1	42.024500
13.966667	1	33.882875
13.983333	1	26.858500
14.000000	1	21.157375
14.016667	1	16.703875
14.033333	1	13.299125
14.050000	1	10.727250
14.066667	1	8.803250
14.083333	1	7.374250
14.100000	1	6.320000
14.116667	1	5.544750
14.133333	1	4.972500
14.150000	1	4.544375
14.166667	1	4.219750
14.183333	1	3.968625
14.200000	1	3.770000
14.216667	1	3.609250
14.233333	1	3.476125
14.250000	1	3.362750
14.266667	1	3.264375
14.283333	1	3.177250
14.300000	1	3.099625
14.316667	1	3.029625
14.333333	1	2.965375
14.350000	1	2.906250
14.366667	1	2.851625
14.383333	1	2.800875
14.400000	1	2.754625
14.416667	1	2.711125
14.433333	1	2.670375
14.450000	1	2.633125
14.466667	1	2.599000
14.483333	1	2.566250
14.500000	1	2.536625
14.516667	1	2.508375
14.533333	1	2.482125
14.550000	1	2.457375
14.566667	1	2.433250
14.583333	1	2.409500
14.600000	1	2.385250
14.616667	1	2.362125
14.633333	1	2.338750
14.650000	1	2.314375
14.666667	1	2.290000
14.683333	1	2.265125
14.700000	1	2.238750
14.716667	1	2.211875
14.733333	1	2.185125
14.750000	1	2.158375
14.766667	1	2.130750
14.783333	1	2.103375
14.800000	1	2.075750
14.816667	1	2.048500
14.833333	1	2.021875
14.850000	1	1.995625
14.866667	1	1.969875
14.883333	1	1.943875
14.900000	1	1.918875
14.916667	1	1.893750
14.933333	1	1.869250
14.950000	1	1.844500
14.966667	1	1.820375
14.983333	1	1.796875
15.000000	1	1.774375
15.016667	1	1.751625
15.033333	1	1.729250
15.050000	1	1.707875
15.066667	1	1.686875
15.083333	1	1.666125
15.100000	1	1.645750
15.116667	1	1.627500
15.133333	1	1.609875
15.150000	1	1.591875
15.166667	1	1.575375
15.183333	1	1.560250
15.200000	1	1.546000
15.216667	1	1.533500
15.233333	1	1.521750
15.250000	1	1.512000
15.266667	1	1.503625
15.283333	1	1.497375
15.300000	1	1.492250
15.316667	1	1.490500
15.333333	1	1.492000
15.350000	1	1.496875
15.366667	1	1.505250
15.383333	1	1.518125
15.400000	1	1.534625
15.416667	1	1.555125
15.433333	1	1.579250
15.450000	1	1.606125
15.466667	1	1.636375
15.483333	1	1.667750
15.500000	1	1.698875
15.516667	1	1.728750
15.533333	1	1.756000
15.550000	1	1.778500
15.566667	1	1.795000
15.583333	1	1.804375
15.600000	1	1.806500
15.616667	1	1.799625
15.633333	1	1.784750
15.650000	1	1.762750
15.666667	1	1.735125
15.683333	1	1.701500
15.700000	1	1.665250
15.716667	1	1.626625
15.733333	1	1.587250
15.750000	1	1.548500
15.766667	1	1.510625
15.783333	1	1.474125
15.800000	1	1.439375
15.816667	1	1.405625
15.833333	1	1.373875
15.850000	1	1.342875
15.866667	1	1.313500
15.883333	1	1.285375
15.900000	1	1.258375
15.916667	1	1.231625
15.933333	1	1.207125
15.950000	1	1.183875
15.966667	1	1.162375
15.983333	1	1.143375
16.000000	1	1.126750
16.016667	1	1.111250
16.033333	1	1.097375
16.050000	1	1.086250
16.066667	1	1.077125
16.083333	1	1.070375
16.100000	1	1.065250
16.116667	1	1.061250
16.133333	1	1.059250
16.150000	1	1.058500
16.166667	1	1.058375
16.183333	1	1.059125
16.200000	1	1.059750
16.216667	1	1.061000
16.233333	1	1.061250
16.250000	1	1.061500
16.266667	1	1.061125
16.283333	1	1.060125
16.300000	1	1.058875
16.316667	1	1.057250
16.333333	1	1.054500
16.350000	1	1.050375
16.366667	1	1.046625
16.383333	1	1.042375
16.400000	1	1.037500
16.416667	1	1.032250
16.433333	1	1.027625
16.450000	1	1.023250
16.466667	1	1.019875
16.483333	1	1.017375
16.500000	1	1.016500
16.516667	1	1.016000
16.533333	1	1.018000
16.550000	1	1.021125
16.566667	1	1.026375
16.583333	1	1.032250
16.600000	1	1.039500
16.616667	1	1.047375
16.633333	1	1.054750
16.650000	1	1.063000
16.666667	1	1.070875
16.683333	1	1.078625
16.700000	1	1.084500
16.716667	1	1.090500
16.733333	1	1.094875
16.750000	1	1.099000
16.766667	1	1.102250
16.783333	1	1.105750
16.800000	1	1.108875
16.816667	1	1.111000
16.833333	1	1.113750
16.850000	1	1.117000
16.866667	1	1.120500
16.883333	1	1.124125
16.900000	1	1.128125
16.916667	1	1.132000
16.933333	1	1.136000
16.950000	1	1.139375
16.966667	1	1.141625
16.983333	1	1.143375
17.000000	1	1.143875
17.016667	1	1.143750
17.033333	1	1.143250
17.050000	1	1.141250
17.066667	1	1.139125
17.083333	1	1.135875
17.100000	1	1.132625
17.116667	1	1.129250
17.133333	1	1.126375
17.150000	1	1.124125
17.166667	1	1.122625
17.183333	1	1.121750
17.200000	1	1.122000
17.216667	1	1.122625
17.233333	1	1.124750
17.250000	1	1.127500
17.266667	1	1.131375
17.283333	1	1.136625
17.300000	1	1.142000
17.316667	1	1.148125
17.333333	1	1.154000
17.350000	1	1.159875
17.366667	1	1.166250
17.383333	1	1.172500
17.400000	1	1.178375
17.416667	1	1.183125
17.433333	1	1.186875
17.450000	1	1.190000
17.466667	1	1.191000
17.483333	1	1.190625
17.500000	1	1.188250
17.516667	1	1.183625
17.533333	1	1.177750
17.550000	1	1.170250
17.566667	1	1.160250
17.583333	1	1.148875
17.600000	1	1.135125
17.616667	1	1.120250
17.633333	1	1.104375
17.650000	1	1.087750
17.666667	1	1.069750
17.683333	1	1.051750
17.700000	1	1.033375
17.716667	1	1.014750
17.733333	1	0.997000
17.750000	1	0.980375
17.766667	1	0.964000
17.783333	1	0.948375
17.800000	1	0.933250
17.816667	1	0.919250
17.833333	1	0.906625
17.850000	1	0.894125
17.866667	1	0.883125
17.883333	1	0.871375
17.900000	1	0.861000
17.916667	1	0.851750
17.933333	1	0.843500
17.950000	1	0.835750
17.966667	1	0.829125
17.983333	1	0.822125
18.000000	1	0.817125
18.016667	1	0.811750
18.033333	1	0.806125
18.050000	1	0.800750
18.066667	1	0.795625
18.083333	1	0.791375
18.100000	1	0.786250
18.116667	1	0.781625
18.133333	1	0.777375
18.150000	1	0.773500
18.166667	1	0.769875
18.183333	1	0.766000
18.200000	1	0.762000
18.216667	1	0.758375
18.233333	1	0.756250
18.250000	1	0.754000
18.266667	1	0.752125
18.283333	1	0.750750
18.300000	1	0.750125
18.316667	1	0.750000
18.333333	1	0.750250
18.350000	1	0.750875
18.366667	1	0.751500
18.383333	1	0.753750
18.400000	1	0.756000
18.416667	1	0.758875
18.433333	1	0.762125
18.450000	1	0.766125
18.466667	1	0.770875
18.483333	1	0.777125
18.500000	1	0.783875
18.516667	1	0.791750
18.533333	1	0.801875
18.550000	1	0.813375
18.566667	1	0.826875
18.583333	1	0.842125
18.600000	1	0.859000
18.616667	1	0.877500
18.633333	1	0.898500
18.650000	1	0.921625
18.666667	1	0.947125
18.683333	1	0.974750
18.700000	1	1.003250
18.716667	1	1.033375
18.733333	1	1.064500
18.750000	1	1.097000
18.766667	1	1.131000
18.783333	1	1.165625
18.800000	1	1.199750
18.816667	1	1.233500
18.833333	1	1.266125
18.850000	1	1.297125
18.866667	1	1.326000
18.883333	1	1.351625
18.900000	1	1.373250
18.916667	1	1.390875
18.933333	1	1.403375
18.950000	1	1.410000
18.966667	1	1.411375
18.983333	1	1.405500
19.000000	1	1.393375
19.016667	1	1.375000
19.033333	1	1.350125
19.050000	1	1.319750
19.066667	1	1.284125
19.083333	1	1.243625
19.100000	1	1.199500
19.116667	1	1.152500
19.133333	1	1.104375
19.150000	1	1.054625
19.166667	1	1.006125
19.183333	1	0.958500
19.200000	1	0.912125
19.216667	1	0.869500
19.233333	1	0.829625
19.250000	1	0.793875
19.266667	1	0.762375
19.283333	1	0.735625
19.300000	1	0.713750
19.316667	1	0.696875
19.333333	1	0.684625
19.350000	1	0.677875
19.366667	1	0.675375
19.383333	1	0.677625
19.400000	1	0.684625
19.416667	1	0.696500
19.433333	1	0.712500
19.450000	1	0.732250
19.466667	1	0.755125
19.483333	1	0.780625
19.500000	1	0.809500
19.516667	1	0.840500
19.533333	1	0.871250
19.550000	1	0.902375
19.566667	1	0.932500
19.583333	1	0.962000
19.600000	1	0.989000
19.616667	1	1.012125
19.633333	1	1.031000
19.650000	1	1.045375
19.666667	1	1.054750
19.683333	1	1.058000
19.700000	1	1.056375
19.716667	1	1.049125
19.733333	1	1.036625
19.750000	1	1.019375
19.766667	1	0.997875
19.783333	1	0.973000
19.800000	1	0.944625
19.816667	1	0.914375
19.833333	1	0.883500
19.850000	1	0.851375
19.866667	1	0.819250
19.883333	1	0.787750
19.900000	1	0.757375
19.916667	1	0.729125
19.933333	1	0.702875
19.950000	1	0.677750
19.966667	1	0.654875
19.983333	1	0.634500
20.000000	1	0.617125
20.016667	1	0.601500
20.033333	1	0.588500
20.050000	1	0.578625
20.066667	1	0.570750
20.083333	1	0.565375
20.100000	1	0.562625
20.116667	1	0.562125
20.133333	1	0.564125
20.150000	1	0.568375
20.166667	1	0.574125
20.183333	1	0.582375
20.200000	1	0.592875
20.216667	1	0.605125
20.233333	1	0.617875
20.250000	1	0.631500
20.266667	1	0.646500
20.283333	1	0.661125
20.300000	1	0.675875
20.316667	1	0.689375
20.333333	1	0.702375
20.350000	1	0.713250
20.366667	1	0.722500
20.383333	1	0.729625
20.400000	1	0.734625
20.416667	1	0.737250
20.433333	1	0.736875
20.450000	1	0.735625
20.466667	1	0.732250
20.483333	1	0.727625
20.500000	1	0.724000
20.516667	1	0.720500
20.533333	1	0.718625
20.550000	1	0.719375
20.566667	1	0.723625
20.583333	1	0.731375
20.600000	1	0.744750
20.616667	1	0.764250
20.633333	1	0.790250
20.650000	1	0.823625
20.666667	1	0.863750
20.683333	1	0.910000
20.700000	1	0.962625
20.716667	1	1.022000
20.733333	1	1.086750
20.750000	1	1.155625
20.766667	1	1.226875
20.783333	1	1.298625
20.800000	1	1.369000
20.816667	1	1.436125
20.833333	1	1.498750
20.850000	1	1.553250
20.866667	1	1.597250
20.883333	1	1.630750
20.900000	1	1.652375
20.916667	1	1.660000
20.933333	1	1.654125
20.950000	1	1.634875
20.966667	1	1.602000
20.983333	1	1.557750
21.000000	1	1.503000
21.016667	1	1.439750
21.033333	1	1.370000
21.050000	1	1.295750
21.066667	1	1.219500
21.083333	1	1.142875
21.100000	1	1.067125
21.116667	1	0.994000
21.133333	1	0.924375
21.150000	1	0.859375
21.166667	1	0.799875
21.183333	1	0.744875
21.200000	1	0.695375
21.216667	1	0.651500
21.233333	1	0.612875
21.250000	1	0.578625
21.266667	1	0.549000
21.283333	1	0.523750
21.300000	1	0.502375
21.316667	1	0.484125
21.333333	1	0.468000
21.350000	1	0.454875
21.366667	1	0.444000
21.383333	1	0.434500
21.400000	1	0.426875
21.416667	1	0.420375
21.433333	1	0.414875
21.450000	1	0.410750
21.466667	1	0.407375
21.483333	1	0.405000
21.500000	1	0.403500
21.516667	1	0.403875
21.533333	1	0.404625
21.550000	1	0.406250
21.566667	1	0.408875
21.583333	1	0.413125
21.600000	1	0.418625
21.616667	1	0.426125
21.633333	1	0.434625
21.650000	1	0.445375
21.666667	1	0.458000
21.683333	1	0.472625
21.700000	1	0.490375
21.716667	1	0.509625
21.733333	1	0.532250
21.750000	1	0.556125
21.766667	1	0.583125
21.783333	1	0.612750
21.800000	1	0.644000
21.816667	1	0.677625
21.833333	1	0.713000
21.850000	1	0.750500
21.866667	1	0.789500
21.883333	1	0.829375
21.900000	1	0.869875
21.916667	1	0.909500
21.933333	1	0.949125
21.950000	1	0.987000
21.966667	1	1.023000
21.983333	1	1.055750
22.000000	1	1.085250
22.016667	1	1.111500
22.033333	1	1.131750
22.050000	1	1.147500
22.066667	1	1.156875
22.083333	1	1.161500
22.100000	1	1.159625
22.116667	1	1.152000
22.133333	1	1.138500
22.150000	1	1.119500
22.166667	1	1.096750
22.183333	1	1.068750
22.200000	1	1.037625
22.216667	1	1.003750
22.233333	1	0.967875
22.250000	1	0.929875
22.266667	1	0.890375
22.283333	1	0.851125
22.300000	1	0.812125
22.316667	1	0.773500
22.333333	1	0.736375
22.350000	1	0.699750
22.366667	1	0.664750
22.383333	1	0.631375
22.400000	1	0.599625
22.416667	1	0.570125
22.433333	1	0.541750
22.450000	1	0.515250
22.466667	1	0.491125
22.483333	1	0.469000
22.500000	1	0.448875
22.516667	1	0.430875
22.533333	1	0.413500
22.550000	1	0.397875
22.566667	1	0.383625
22.583333	1	0.370250
22.600000	1	0.359375
22.616667	1	0.348750
22.633333	1	0.339375
22.650000	1	0.330875
22.666667	1	0.323125
22.683333	1	0.316000
22.700000	1	0.310125
22.716667	1	0.304125
22.733333	1	0.298500
22.750000	1	0.293875
22.766667	1	0.289125
22.783333	1	0.284500
22.800000	1	0.280625
22.816667	1	0.276250
22.833333	1	0.272500
22.850000	1	0.269500
22.866667	1	0.267000
22.883333	1	0.264375
22.900000	1	0.261500
22.916667	1	0.259250
22.933333	1	0.256625
22.950000	1	0.255000
22.966667	1	0.254125
22.983333	1	0.253125
23.000000	1	0.252125
23.016667	1	0.252000
23.033333	1	0.252250
23.050000	1	0.252250
23.066667	1	0.252875
23.083333	1	0.254125
23.100000	1	0.254875
23.116667	1	0.256250
23.133333	1	0.257500
23.150000	1	0.259625
23.166667	1	0.261750
23.183333	1	0.263875
23.200000	1	0.266750
23.216667	1	0.268625
23.233333	1	0.271500
23.250000	1	0.275875
23.266667	1	0.281750
23.283333	1	0.288375
23.300000	1	0.296125
23.316667	1	0.305750
23.333333	1	0.317375
23.350000	1	0.331000
23.366667	1	0.347000
23.383333	1	0.367250
23.400000	1	0.391250
23.416667	1	0.421125
23.433333	1	0.456125
23.450000	1	0.497125
23.466667	1	0.544625
23.483333	1	0.600375
23.500000	1	0.664750
23.516667	1	0.739125
23.533333	1	0.823500
23.550000	1	0.919625
23.566667	1	1.026875
23.583333	1	1.146625
23.600000	1	1.278375
23.616667	1	1.423750
23.633333	1	1.581625
23.650000	1	1.751500
23.666667	1	1.933750
23.683333	1	2.126625
23.700000	1	2.328625
23.716667	1	2.538250
23.733333	1	2.750750
23.750000	1	2.966125
23.766667	1	3.179375
23.783333	1	3.386625
23.800000	1	3.584125
23.816667	1	3.768125
23.833333	1	3.934250
23.850000	1	4.079750
23.866667	1	4.200125
23.883333	1	4.292875
23.900000	1	4.355875
23.916667	1	4.388000
23.933333	1	4.387750
23.950000	1	4.355500
23.966667	1	4.293000
23.983333	1	4.201375
24.000000	1	4.083125
24.016667	1	3.941375
24.033333	1	3.780125
24.050000	1	3.602625
24.066667	1	3.413625
24.083333	1	3.216000
24.100000	1	3.013250
24.116667	1	2.810000
24.133333	1	2.608375
24.150000	1	2.411375
24.166667	1	2.222125
24.183333	1	2.041875
24.200000	1	1.872375
24.216667	1	1.714000
24.233333	1	1.567125
24.250000	1	1.432375
24.266667	1	1.310000
24.283333	1	1.199750
24.300000	1	1.100000
24.316667	1	1.011375
24.333333	1	0.932125
24.350000	1	0.862125
24.366667	1	0.801250
24.383333	1	0.747375
24.400000	1	0.701250
24.416667	1	0.660750
24.433333	1	0.626750
24.450000	1	0.596875
24.466667	1	0.571625
24.483333	1	0.549875
24.500000	1	0.531000
24.516667	1	0.514625
24.533333	1	0.501375
24.550000	1	0.489375
24.566667	1	0.478125
24.583333	1	0.468375
24.600000	1	0.459500
24.616667	1	0.451875
24.633333	1	0.444500
24.650000	1	0.437500
24.666667	1	0.431000
24.683333	1	0.424750
24.700000	1	0.417750
24.716667	1	0.410375
24.733333	1	0.403625
24.750000	1	0.398125
24.766667	1	0.392125
24.783333	1	0.386000
24.800000	1	0.379250
24.816667	1	0.372875
24.833333	1	0.367500
24.850000	1	0.362750
24.866667	1	0.357500
24.883333	1	0.353000
24.900000	1	0.349125
24.916667	1	0.345500
24.933333	1	0.341375
24.950000	1	0.337500
24.966667	1	0.334250
24.983333	1	0.331125
25.000000	1	0.328750
25.016667	1	0.325875
25.033333	1	0.323875
25.050000	1	0.322500
25.066667	1	0.320750
25.083333	1	0.319125
25.100000	1	0.317125
25.116667	1	0.316000
25.133333	1	0.314875
25.150000	1	0.313500
25.166667	1	0.312750
25.183333	1	0.311250
25.200000	1	0.309875
25.216667	1	0.308875
25.233333	1	0.306750
25.250000	1	0.305125
25.266667	1	0.303500
25.283333	1	0.302125
25.300000	1	0.301375
25.316667	1	0.300000
25.333333	1	0.298000
25.350000	1	0.296125
25.366667	1	0.294875
25.383333	1	0.293250
25.400000	1	0.290875
25.416667	1	0.289000
25.433333	1	0.286625
25.450000	1	0.284875
25.466667	1	0.283250
25.483333	1	0.280875
25.500000	1	0.278500
25.516667	1	0.276250
25.533333	1	0.273875
25.550000	1	0.271750
25.566667	1	0.269250
25.583333	1	0.266750
25.600000	1	0.265125
25.616667	1	0.264250
25.633333	1	0.261375
25.650000	1	0.259500
25.666667	1	0.257750
25.683333	1	0.256375
25.700000	1	0.254000
25.716667	1	0.253000
25.733333	1	0.252000
25.750000	1	0.251375
25.766667	1	0.250500
25.783333	1	0.250375
25.800000	1	0.249750
25.816667	1	0.250125
25.833333	1	0.251000
25.850000	1	0.251750
25.866667	1	0.253125
25.883333	1	0.255875
25.900000	1	0.258750
25.916667	1	0.261000
25.933333	1	0.264000
25.950000	1	0.267250
25.966667	1	0.270500
25.983333	1	0.274375
26.000000	1	0.277750
26.016667	1	0.282125
26.033333	1	0.287375
26.050000	1	0.292750
26.066667	1	0.297500
26.083333	1	0.302250
26.100000	1	0.307125
26.116667	1	0.311500
26.133333	1	0.315750
26.150000	1	0.320125
26.166667	1	0.324250
26.183333	1	0.327750
26.200000	1	0.330375
26.216667	1	0.332750
26.233333	1	0.334875
26.250000	1	0.336500
26.266667	1	0.337625
26.283333	1	0.338625
26.300000	1	0.339000
26.316667	1	0.338500
26.333333	1	0.337500
26.350000	1	0.335000
26.366667	1	0.331625
26.383333	1	0.329000
26.400000	1	0.325750
26.416667	1	0.322125
26.433333	1	0.317500
26.450000	1	0.312625
26.466667	1	0.307375
26.483333	1	0.302500
26.500000	1	0.296750
26.516667	1	0.290750
26.533333	1	0.285625
26.550000	1	0.279250
26.566667	1	0.272750
26.583333	1	0.266875
26.600000	1	0.261750
26.616667	1	0.255750
26.633333	1	0.251375
26.650000	1	0.246625
26.666667	1	0.241750
26.683333	1	0.237125
26.700000	1	0.232250
26.716667	1	0.228000
26.733333	1	0.224375
26.750000	1	0.221000
26.766667	1	0.217875
26.783333	1	0.214625
26.800000	1	0.212750
26.816667	1	0.210625
26.833333	1	0.208125
26.850000	1	0.206500
26.866667	1	0.205625
26.883333	1	0.204875
26.900000	1	0.204875
26.916667	1	0.204625
26.933333	1	0.205375
26.950000	1	0.206375
26.966667	1	0.207500
26.983333	1	0.209125
27.000000	1	0.211125
27.016667	1	0.213000
27.033333	1	0.216125
27.050000	1	0.220375
27.066667	1	0.225125
27.083333	1	0.230625
27.100000	1	0.237000
27.116667	1	0.244625
27.133333	1	0.252875
27.150000	1	0.263000
27.166667	1	0.274875
27.183333	1	0.288250
27.200000	1	0.303250
27.216667	1	0.321125
27.233333	1	0.341875
27.250000	1	0.365125
27.266667	1	0.392750
27.283333	1	0.423125
27.300000	1	0.457250
27.316667	1	0.496250
27.333333	1	0.540125
27.350000	1	0.588875
27.366667	1	0.643750
27.383333	1	0.704875
27.400000	1	0.771125
27.416667	1	0.846125
27.433333	1	0.928500
27.450000	1	1.018250
27.466667	1	1.116500
27.483333	1	1.222750
27.500000	1	1.337500
27.516667	1	1.460625
27.533333	1	1.591500
27.550000	1	1.729500
27.566667	1	1.874750
27.583333	1	2.026750
27.600000	1	2.184000
27.616667	1	2.345625
27.633333	1	2.510125
27.650000	1	2.677250
27.666667	1	2.843125
27.683333	1	3.007875
27.700000	1	3.167375
27.716667	1	3.320625
27.733333	1	3.465125
27.750000	1	3.598750
27.766667	1	3.719625
27.783333	1	3.824750
27.800000	1	3.912000
27.816667	1	3.981500
27.833333	1	4.029500
27.850000	1	4.055625
27.866667	1	4.060000
27.883333	1	4.041500
27.900000	1	3.999750
27.916667	1	3.935875
27.933333	1	3.850375
27.950000	1	3.746125
27.966667	1	3.623625
27.983333	1	3.485250
28.000000	1	3.333750
28.016667	1	3.171625
28.033333	1	3.001000
28.050000	1	2.824625
28.066667	1	2.645250
28.083333	1	2.465125
28.100000	1	2.287375
28.116667	1	2.112125
28.133333	1	1.944000
28.150000	1	1.783000
28.166667	1	1.630625
28.183333	1	1.487250
28.200000	1	1.354750
28.216667	1	1.232625
28.233333	1	1.120625
28.250000	1	1.018375
28.266667	1	0.927000
28.283333	1	0.844875
28.300000	1	0.772625
28.316667	1	0.709000
28.333333	1	0.654125
28.350000	1	0.606125
28.366667	1	0.565250
28.383333	1	0.531000
28.400000	1	0.502750
28.416667	1	0.479625
28.433333	1	0.461375
28.450000	1	0.447125
28.466667	1	0.436500
28.483333	1	0.428500
28.500000	1	0.423875
28.516667	1	0.421625
28.533333	1	0.421375
28.550000	1	0.423250
28.566667	1	0.426125
28.583333	1	0.430875
28.600000	1	0.436500
28.616667	1	0.443500
28.633333	1	0.450375
28.650000	1	0.457250
28.666667	1	0.464500
28.683333	1	0.471625
28.700000	1	0.479125
28.716667	1	0.486500
28.733333	1	0.493875
28.750000	1	0.500250
28.766667	1	0.506000
28.783333	1	0.511625
28.800000	1	0.516500
28.816667	1	0.521125
28.833333	1	0.524750
28.850000	1	0.527000
28.866667	1	0.529500
28.883333	1	0.530500
28.900000	1	0.530375
28.916667	1	0.529875
28.933333	1	0.528125
28.950000	1	0.525750
28.966667	1	0.522750
28.983333	1	0.518500
29.000000	1	0.513875
29.016667	1	0.508250
29.033333	1	0.502375
29.050000	1	0.495250
29.066667	1	0.487500
29.083333	1	0.478625
29.100000	1	0.469375
29.116667	1	0.460000
29.133333	1	0.449375
29.150000	1	0.439625
29.166667	1	0.428250
29.183333	1	0.417000
29.200000	1	0.405250
29.216667	1	0.393375
29.233333	1	0.382250
29.250000	1	0.370125
29.266667	1	0.358125
29.283333	1	0.346500
29.300000	1	0.335625
29.316667	1	0.323500
29.333333	1	0.311875
29.350000	1	0.300500
29.366667	1	0.289625
29.383333	1	0.279250
29.400000	1	0.268500
29.416667	1	0.259000
29.433333	1	0.249375
29.450000	1	0.240625
29.466667	1	0.232000
29.483333	1	0.223500
29.500000	1	0.215500
29.516667	1	0.208000
29.533333	1	0.201750
29.550000	1	0.194750
29.566667	1	0.188625
29.583333	1	0.182875
29.600000	1	0.177375
29.616667	1	0.172625
29.633333	1	0.168750
29.650000	1	0.164000
29.666667	1	0.159375
29.683333	1	0.155875
29.700000	1	0.152875
29.716667	1	0.149750
29.733333	1	0.146375
29.750000	1	0.143750
29.766667	1	0.141375
29.783333	1	0.139750
29.800000	1	0.137375
29.816667	1	0.135375
29.833333	1	0.132625
29.850000	1	0.130750
29.866667	1	0.128375
29.883333	1	0.126500
29.900000	1	0.124000
29.916667	1	0.122250
29.933333	1	0.120125
29.950000	1	0.117750
29.966667	1	0.115250
29.983333	1	0.113125
30.000000	1	0.110750
30.016667	1	0.108250
30.033333	1	0.105875
30.050000	1	0.103875
30.066667	1	0.101625
30.083333	1	0.099750
30.100000	1	0.096375
30.116667	1	0.093625
30.133333	1	0.091125
30.150000	1	0.089000
30.166667	1	0.086625
30.183333	1	0.084875
30.200000	1	0.083000
30.216667	1	0.081500
30.233333	1	0.080125
30.250000	1	0.078625
30.266667	1	0.077500
30.283333	1	0.077125
30.300000	1	0.076750
30.316667	1	0.076375
30.333333	1	0.076750
30.350000	1	0.077250
30.366667	1	0.078500
30.383333	1	0.080000
30.400000	1	0.082125
30.416667	1	0.085000
30.433333	1	0.087875
30.450000	1	0.091750
30.466667	1	0.095125
30.483333	1	0.100125
30.500000	1	0.105125
30.516667	1	0.110625
30.533333	1	0.116625
30.550000	1	0.123750
30.566667	1	0.131250
30.583333	1	0.139500
30.600000	1	0.148625
30.616667	1	0.159250
30.633333	1	0.169750
30.650000	1	0.181500
30.666667	1	0.194625
30.683333	1	0.209625
30.700000	1	0.225000
30.716667	1	0.242250
30.733333	1	0.260750
30.750000	1	0.282000
30.766667	1	0.305250
30.783333	1	0.331500
30.800000	1	0.360500
30.816667	1	0.392250
30.833333	1	0.427500
30.850000	1	0.467375
30.866667	1	0.511500
30.883333	1	0.561250
30.900000	1	0.615875
30.916667	1	0.676750
30.933333	1	0.743750
30.950000	1	0.818625
30.966667	1	0.901375
30.983333	1	0.992500
31.000000	1	1.093375
31.016667	1	1.203250
31.033333	1	1.323625
31.050000	1	1.454750
31.066667	1	1.597000
31.083333	1	1.750625
31.100000	1	1.915125
31.116667	1	2.090375
31.133333	1	2.277125
31.150000	1	2.474125
31.166667	1	2.681500
31.183333	1	2.898500
31.200000	1	3.123875
31.216667	1	3.356375
31.233333	1	3.593625
31.250000	1	3.834125
31.266667	1	4.075625
31.283333	1	4.315875
31.300000	1	4.552625
31.316667	1	4.782500
31.333333	1	5.003750
31.350000	1	5.214000
31.366667	1	5.410625
31.383333	1	5.590125
31.400000	1	5.751250
31.416667	1	5.891250
31.433333	1	6.008500
31.450000	1	6.101000
31.466667	1	6.166875
31.483333	1	6.206000
31.500000	1	6.218625
31.516667	1	6.203000
31.533333	1	6.161125
31.550000	1	6.092125
31.566667	1	5.998500
31.583333	1	5.880750
31.600000	1	5.740500
31.616667	1	5.579875
31.633333	1	5.401125
31.650000	1	5.206250
31.666667	1	4.998875
31.683333	1	4.780750
31.700000	1	4.554250
31.716667	1	4.323375
31.733333	1	4.089125
31.750000	1	3.854375
31.766667	1	3.620125
31.783333	1	3.389000
31.800000	1	3.161875
31.816667	1	2.941000
31.833333	1	2.727750
31.850000	1	2.523625
31.866667	1	2.328750
31.883333	1	2.143000
31.900000	1	1.968000
31.916667	1	1.804500
31.933333	1	1.651000
31.950000	1	1.508875
31.966667	1	1.376625
31.983333	1	1.253375
32.000000	1	1.141250
32.016667	1	1.037625
32.033333	1	0.943625
32.050000	1	0.857875
32.066667	1	0.780125
32.083333	1	0.709750
32.100000	1	0.646625
32.116667	1	0.589375
32.133333	1	0.538375
32.150000	1	0.491875
32.166667	1	0.450875
32.183333	1	0.414375
32.200000	1	0.381625
32.216667	1	0.351875
32.233333	1	0.325875
32.250000	1	0.301625
32.266667	1	0.280125
32.283333	1	0.261625
32.300000	1	0.244750
32.316667	1	0.229625
32.333333	1	0.216250
32.350000	1	0.204250
32.366667	1	0.193250
32.383333	1	0.183625
32.400000	1	0.174125
32.416667	1	0.165750
32.433333	1	0.157375
32.450000	1	0.150125
32.466667	1	0.143000
32.483333	1	0.136500
32.500000	1	0.130875
32.516667	1	0.125125
32.533333	1	0.119250
32.550000	1	0.114750
32.566667	1	0.110125
32.583333	1	0.105875
32.600000	1	0.101625
32.616667	1	0.097750
32.633333	1	0.094125
32.650000	1	0.090000
32.666667	1	0.086875
32.683333	1	0.083625
32.700000	1	0.080750
32.716667	1	0.078375
32.733333	1	0.075875
32.750000	1	0.074250
32.766667	1	0.071875
32.783333	1	0.069625
32.800000	1	0.068125
32.816667	1	0.066375
32.833333	1	0.065375
32.850000	1	0.064000
32.866667	1	0.063375
32.883333	1	0.062625
32.900000	1	0.061875
32.916667	1	0.060625
32.933333	1	0.059875
32.950000	1	0.060125
32.966667	1	0.060250
32.983333	1	0.060625
33.000000	1	0.060500
33.016667	1	0.060625
33.033333	1	0.060750
33.050000	1	0.061500
33.066667	1	0.062250
33.083333	1	0.063500
33.100000	1	0.064875
33.116667	1	0.066875
33.133333	1	0.068625
33.150000	1	0.070875
33.166667	1	0.073000
33.183333	1	0.076625
33.200000	1	0.080125
33.216667	1	0.084125
33.233333	1	0.088625
33.250000	1	0.093250
33.266667	1	0.098625
33.283333	1	0.104375
33.300000	1	0.110625
33.316667	1	0.117625
33.333333	1	0.125875
33.350000	1	0.134625
33.366667	1	0.145250
33.383333	1	0.156250
33.400000	1	0.168000
33.416667	1	0.180625
33.433333	1	0.194875
33.450000	1	0.210625
33.466667	1	0.227625
33.483333	1	0.246750
33.500000	1	0.266875
33.516667	1	0.289375
33.533333	1	0.314125
33.550000	1	0.339875
33.566667	1	0.368125
33.583333	1	0.399000
33.600000	1	0.431875
33.616667	1	0.467625
33.633333	1	0.504625
33.650000	1	0.542875
33.666667	1	0.583500
33.683333	1	0.626625
33.700000	1	0.672625
33.716667	1	0.719125
33.733333	1	0.767875
33.750000	1	0.818125
33.766667	1	0.869875
33.783333	1	0.922500
33.800000	1	0.975375
33.816667	1	1.028375
33.833333	1	1.081250
33.850000	1	1.133250
33.866667	1	1.184625
33.883333	1	1.234375
33.900000	1	1.282750
33.916667	1	1.328500
33.933333	1	1.371125
33.950000	1	1.410875
33.966667	1	1.447875
33.983333	1	1.479625
34.000000	1	1.507250
34.016667	1	1.529250
34.033333	1	1.547125
34.050000	1	1.560250
34.066667	1	1.567750
34.083333	1	1.569875
34.100000	1	1.566500
34.116667	1	1.557125
34.133333	1	1.543625
34.150000	1	1.524875
34.166667	1	1.500875
34.183333	1	1.472125
34.200000	1	1.439625
34.216667	1	1.403750
34.233333	1	1.364750
34.250000	1	1.323000
34.266667	1	1.278625
34.283333	1	1.232250
34.300000	1	1.185125
34.316667	1	1.136250
34.333333	1	1.087250
34.350000	1	1.037125
34.366667	1	0.988125
34.383333	1	0.939500
34.400000	1	0.891625
34.416667	1	0.845000
34.433333	1	0.799500
34.450000	1	0.755750
34.466667	1	0.713625
34.483333	1	0.673375
34.500000	1	0.635125
34.516667	1	0.599000
34.533333	1	0.565125
34.550000	1	0.533250
34.566667	1	0.503625
34.583333	1	0.475750
34.600000	1	0.449875
34.616667	1	0.425500
34.633333	1	0.402375
34.650000	1	0.381625
34.666667	1	0.362375
34.683333	1	0.344750
34.700000	1	0.328375
34.716667	1	0.313750
34.733333	1	0.300000
34.750000	1	0.287500
34.766667	1	0.275750
34.783333	1	0.264750
34.800000	1	0.254500
34.816667	1	0.245750
34.833333	1	0.237500
34.850000	1	0.229750
34.866667	1	0.223125
34.883333	1	0.217000
34.900000	1	0.211625
34.916667	1	0.206125
34.933333	1	0.200625
34.950000	1	0.196250
34.966667	1	0.192250
34.983333	1	0.188250
35.000000	1	0.185250
35.016667	1	0.182500
35.033333	1	0.179625
35.050000	1	0.176875
35.066667	1	0.175625
35.083333	1	0.173875
35.100000	1	0.172500
35.116667	1	0.171250
35.133333	1	0.170375
35.150000	1	0.170250
35.166667	1	0.169250
35.183333	1	0.169250
35.200000	1	0.169250
35.216667	1	0.169375
35.233333	1	0.168625
35.250000	1	0.169000
35.266667	1	0.169625
35.283333	1	0.170125
35.300000	1	0.171125
35.316667	1	0.172000
35.333333	1	0.173250
35.350000	1	0.173500
35.366667	1	0.173875
35.383333	1	0.174375
35.400000	1	0.174625
35.416667	1	0.175375
35.433333	1	0.176375
35.450000	1	0.175875
35.466667	1	0.176125
35.483333	1	0.176125
35.500000	1	0.175875
35.516667	1	0.176625
35.533333	1	0.176500
35.550000	1	0.176625
35.566667	1	0.176250
35.583333	1	0.175000
35.600000	1	0.174125
35.616667	1	0.173375
35.633333	1	0.172125
35.650000	1	0.170125
35.666667	1	0.168500
35.683333	1	0.167250
35.700000	1	0.165500
35.716667	1	0.163875
35.733333	1	0.161750
35.750000	1	0.159625
35.766667	1	0.158125
35.783333	1	0.156375
35.800000	1	0.153875
35.816667	1	0.151500
35.833333	1	0.149375
35.850000	1	0.147500
35.866667	1	0.145875
35.883333	1	0.143500
35.900000	1	0.141625
35.916667	1	0.140000
35.933333	1	0.138000
35.950000	1	0.136625
35.966667	1	0.134500
35.983333	1	0.133125
36.000000	1	0.131625
36.016667	1	0.129750
36.033333	1	0.128000
36.050000	1	0.127125
36.066667	1	0.125375
36.083333	1	0.125000
36.100000	1	0.124375
36.116667	1	0.124500
36.133333	1	0.124375
36.150000	1	0.124125
36.166667	1	0.123750
36.183333	1	0.123625
36.200000	1	0.123750
36.216667	1	0.124250
36.233333	1	0.124625
36.250000	1	0.125500
36.266667	1	0.125625
36.283333	1	0.125375
36.300000	1	0.126250
36.316667	1	0.126500
36.333333	1	0.126625
36.350000	1	0.127125
36.366667	1	0.127125
36.383333	1	0.126500
36.400000	1	0.126250
36.416667	1	0.125750
36.433333	1	0.125000
36.450000	1	0.124250
36.466667	1	0.123750
36.483333	1	0.122500
36.500000	1	0.120500
36.516667	1	0.118875
36.533333	1	0.117625
36.550000	1	0.115250
36.566667	1	0.113250
36.583333	1	0.110875
36.600000	1	0.108375
36.616667	1	0.105875
36.633333	1	0.103625
36.650000	1	0.101250
36.666667	1	0.098625
36.683333	1	0.095375
36.700000	1	0.092625
36.716667	1	0.089500
36.733333	1	0.086375
36.750000	1	0.083000
36.766667	1	0.080250
36.783333	1	0.077500
36.800000	1	0.074250
36.816667	1	0.071250
36.833333	1	0.068125
36.850000	1	0.064875
36.866667	1	0.062250
36.883333	1	0.060000
36.900000	1	0.057875
36.916667	1	0.056000
36.933333	1	0.054125
36.950000	1	0.051875
36.966667	1	0.050250
36.983333	1	0.048375
37.000000	1	0.046875
37.016667	1	0.046000
37.033333	1	0.045125
37.050000	1	0.044375
37.066667	1	0.044125
37.083333	1	0.043750
37.100000	1	0.044000
37.116667	1	0.044375
37.133333	1	0.045125
37.150000	1	0.045875
37.166667	1	0.046750
37.183333	1	0.047625
37.200000	1	0.048250
37.216667	1	0.049625
37.233333	1	0.051250
37.250000	1	0.052625
37.266667	1	0.054875
37.283333	1	0.056875
37.300000	1	0.059250
37.316667	1	0.061375
37.333333	1	0.063875
37.350000	1	0.065875
37.366667	1	0.067375
37.383333	1	0.069500
37.400000	1	0.072000
37.416667	1	0.073625
37.433333	1	0.075375
37.450000	1	0.077500
37.466667	1	0.080250
37.483333	1	0.082375
37.500000	1	0.084250
37.516667	1	0.085750
37.533333	1	0.087875
37.550000	1	0.089500
37.566667	1	0.090500
37.583333	1	0.092250
37.600000	1	0.093000
37.616667	1	0.094375
37.633333	1	0.095000
37.650000	1	0.096250
37.666667	1	0.097500
37.683333	1	0.099000
37.700000	1	0.100750
37.716667	1	0.102000
37.733333	1	0.102500
37.750000	1	0.102750
37.766667	1	0.103250
37.783333	1	0.103750
37.800000	1	0.104625
37.816667	1	0.104500
37.833333	1	0.105125
37.850000	1	0.105625
37.866667	1	0.105625
37.883333	1	0.105750
37.900000	1	0.105750
37.916667	1	0.105625
37.933333	1	0.106500
37.950000	1	0.106250
37.966667	1	0.105625
37.983333	1	0.104625
38.000000	1	0.104375
38.016667	1	0.103750
38.033333	1	0.103625
38.050000	1	0.103250
38.066667	1	0.103000
38.083333	1	0.102375
38.100000	1	0.101750
38.116667	1	0.101625
38.133333	1	0.101625
38.150000	1	0.101250
38.166667	1	0.101125
38.183333	1	0.101125
38.200000	1	0.100875
38.216667	1	0.100500
38.233333	1	0.100625
38.250000	1	0.100250
38.266667	1	0.099750
38.283333	1	0.100000
38.300000	1	0.100250
38.316667	1	0.100750
38.333333	1	0.100750
38.350000	1	0.100500
38.366667	1	0.099625
38.383333	1	0.099750
38.400000	1	0.099750
38.416667	1	0.100750
38.433333	1	0.100125
38.450000	1	0.100125
38.466667	1	0.100500
38.483333	1	0.100250
38.500000	1	0.099500
38.516667	1	0.099500
38.533333	1	0.099625
38.550000	1	0.099625
38.566667	1	0.099750
38.583333	1	0.099500
38.600000	1	0.099250
38.616667	1	0.098250
38.633333	1	0.098250
38.650000	1	0.098000
38.666667	1	0.097625
38.683333	1	0.097375
38.700000	1	0.096875
38.716667	1	0.096500
38.733333	1	0.095750
38.750000	1	0.095000
38.766667	1	0.095000
38.783333	1	0.094500
38.800000	1	0.093125
38.816667	1	0.092875
38.833333	1	0.092250
38.850000	1	0.092000
38.866667	1	0.091375
38.883333	1	0.090625
38.900000	1	0.090000
38.916667	1	0.089625
38.933333	1	0.089000
38.950000	1	0.088250
38.966667	1	0.087500
38.983333	1	0.087000
39.000000	1	0.086375
39.016667	1	0.085375
39.033333	1	0.085250
39.050000	1	0.084875
39.066667	1	0.084500
39.083333	1	0.083375
39.100000	1	0.082750
39.116667	1	0.082250
39.133333	1	0.082125
39.150000	1	0.081125
39.166667	1	0.080250
39.183333	1	0.079875
39.200000	1	0.079625
39.216667	1	0.079000
39.233333	1	0.077750
39.250000	1	0.076750
39.266667	1	0.074875
39.283333	1	0.073375
39.300000	1	0.072500
39.316667	1	0.071750
39.333333	1	0.070875
39.350000	1	0.069625
39.366667	1	0.068125
39.383333	1	0.067375
39.400000	1	0.066000
39.416667	1	0.065000
39.433333	1	0.063500
39.450000	1	0.061625
39.466667	1	0.060625
39.483333	1	0.059500
39.500000	1	0.058625
39.516667	1	0.057750
39.533333	1	0.056625
39.550000	1	0.055250
39.566667	1	0.053875
39.583333	1	0.052750
39.600000	1	0.051875
39.616667	1	0.051500
39.633333	1	0.051375
39.650000	1	0.050500
39.666667	1	0.050250
39.683333	1	0.050000
39.700000	1	0.050000
39.716667	1	0.049625
39.733333	1	0.049750
39.750000	1	0.050375
39.766667	1	0.050250
39.783333	1	0.050375
39.800000	1	0.050750
39.816667	1	0.051625
39.833333	1	0.052125
39.850000	1	0.053000
39.866667	1	0.053625
39.883333	1	0.054375
39.900000	1	0.055000
39.916667	1	0.055250
39.933333	1	0.055750
39.950000	1	0.056125
39.966667	1	0.057125
39.983333	1	0.058125
40.000000	1	0.057875
