URL	chrom://bioreactor/micro_cm7/HPLC_Ultimate_3000/Users/markusar/20240708_MA_pHrange1.seq/944.smp/RI_1.channel/RI_1.chm
Channel	RI_1

Injection Information:
Data Vault	micro_cm7
Sequence	20240708_MA_pHrange1
Name	Fp3_5.7_4
Number	70
Position	BF12
Comment	
Processing Method	
Instrument Method	run_25B_method
Type	Unknown
Status	Finished
Inject Time	10.07.2024 14:41:35 +02:00
Volume (µl)	20.0000
Dilution Factor	1.0000
Weight	1.0000

Chromatogram Data Information:
Time Min. (min)	0.000000
Time Max. (min)	40.000000
Data Points	2401
Detector	RI
Generating Data System	Chromeleon 7.3.2.11814
Exporting Data System	Chromeleon 7.3.2.0
Operator	Instrument Controller
Signal Quantity	Refractive 
Signal Unit	µRIU
Signal Min.	-0.097625
Signal Max.	86.018250
Channel	RI_1
Driver Name	RID520Driver.dll
Channel Type	Evaluation
Min. Step (s)	1
Max. Step (s)	1
Average Step (s)	1

Signal Parameter Information:
Signal Info	

Chromatogram Data:
Time (min)	Step (s)	Value (µRIU)
0.000000	n.a.	0.035125
0.016667	1	0.035000
0.033333	1	0.034625
0.050000	1	0.035500
0.066667	1	0.035125
0.083333	1	0.035000
0.100000	1	0.035250
0.116667	1	0.035625
0.133333	1	0.036000
0.150000	1	0.036125
0.166667	1	0.036000
0.183333	1	0.035625
0.200000	1	0.035375
0.216667	1	0.035625
0.233333	1	0.035875
0.250000	1	0.036250
0.266667	1	0.036375
0.283333	1	0.037250
0.300000	1	0.037250
0.316667	1	0.037750
0.333333	1	0.037625
0.350000	1	0.037625
0.366667	1	0.036750
0.383333	1	0.036625
0.400000	1	0.036500
0.416667	1	0.036500
0.433333	1	0.037625
0.450000	1	0.038750
0.466667	1	0.040125
0.483333	1	0.042375
0.500000	1	0.044250
0.516667	1	0.045250
0.533333	1	0.045875
0.550000	1	0.045000
0.566667	1	0.044500
0.583333	1	0.042875
0.600000	1	0.040750
0.616667	1	0.038250
0.633333	1	0.036625
0.650000	1	0.035250
0.666667	1	0.034000
0.683333	1	0.032250
0.700000	1	0.031875
0.716667	1	0.031375
0.733333	1	0.030750
0.750000	1	0.029625
0.766667	1	0.028750
0.783333	1	0.027375
0.800000	1	0.026625
0.816667	1	0.025250
0.833333	1	0.025000
0.850000	1	0.024750
0.866667	1	0.023375
0.883333	1	0.023500
0.900000	1	0.022750
0.916667	1	0.022500
0.933333	1	0.021000
0.950000	1	0.020500
0.966667	1	0.020375
0.983333	1	0.019625
1.000000	1	0.018125
1.016667	1	0.017750
1.033333	1	0.017000
1.050000	1	0.017000
1.066667	1	0.016875
1.083333	1	0.017250
1.100000	1	0.017500
1.116667	1	0.017500
1.133333	1	0.018000
1.150000	1	0.018500
1.166667	1	0.018750
1.183333	1	0.019375
1.200000	1	0.020000
1.216667	1	0.020500
1.233333	1	0.021500
1.250000	1	0.022625
1.266667	1	0.024625
1.283333	1	0.025625
1.300000	1	0.026375
1.316667	1	0.027500
1.333333	1	0.028375
1.350000	1	0.029750
1.366667	1	0.031375
1.383333	1	0.033125
1.400000	1	0.034500
1.416667	1	0.035875
1.433333	1	0.037750
1.450000	1	0.039625
1.466667	1	0.040625
1.483333	1	0.041625
1.500000	1	0.042625
1.516667	1	0.043250
1.533333	1	0.044125
1.550000	1	0.044750
1.566667	1	0.045250
1.583333	1	0.045625
1.600000	1	0.045500
1.616667	1	0.045875
1.633333	1	0.045625
1.650000	1	0.045250
1.666667	1	0.045375
1.683333	1	0.045250
1.700000	1	0.044750
1.716667	1	0.044000
1.733333	1	0.043375
1.750000	1	0.042125
1.766667	1	0.040875
1.783333	1	0.040125
1.800000	1	0.039000
1.816667	1	0.037250
1.833333	1	0.035875
1.850000	1	0.034875
1.866667	1	0.033500
1.883333	1	0.032000
1.900000	1	0.030750
1.916667	1	0.028375
1.933333	1	0.026625
1.950000	1	0.024875
1.966667	1	0.023500
1.983333	1	0.020750
2.000000	1	0.018750
2.016667	1	0.017125
2.033333	1	0.015250
2.050000	1	0.013000
2.066667	1	0.011500
2.083333	1	0.008500
2.100000	1	0.005875
2.116667	1	0.003500
2.133333	1	0.001000
2.150000	1	-0.000875
2.166667	1	-0.003375
2.183333	1	-0.006000
2.200000	1	-0.007875
2.216667	1	-0.009750
2.233333	1	-0.011625
2.250000	1	-0.013500
2.266667	1	-0.015250
2.283333	1	-0.016875
2.300000	1	-0.018875
2.316667	1	-0.021000
2.333333	1	-0.023000
2.350000	1	-0.024125
2.366667	1	-0.025125
2.383333	1	-0.026375
2.400000	1	-0.027500
2.416667	1	-0.027750
2.433333	1	-0.028125
2.450000	1	-0.028625
2.466667	1	-0.029500
2.483333	1	-0.031125
2.500000	1	-0.031250
2.516667	1	-0.031750
2.533333	1	-0.033000
2.550000	1	-0.032875
2.566667	1	-0.032875
2.583333	1	-0.033500
2.600000	1	-0.034125
2.616667	1	-0.034750
2.633333	1	-0.035000
2.650000	1	-0.034750
2.666667	1	-0.034250
2.683333	1	-0.034250
2.700000	1	-0.033500
2.716667	1	-0.033625
2.733333	1	-0.033875
2.750000	1	-0.033625
2.766667	1	-0.033000
2.783333	1	-0.033375
2.800000	1	-0.032875
2.816667	1	-0.032250
2.833333	1	-0.031000
2.850000	1	-0.030250
2.866667	1	-0.028875
2.883333	1	-0.028125
2.900000	1	-0.027125
2.916667	1	-0.026125
2.933333	1	-0.024875
2.950000	1	-0.023500
2.966667	1	-0.022500
2.983333	1	-0.020500
3.000000	1	-0.018375
3.016667	1	-0.016250
3.033333	1	-0.014000
3.050000	1	-0.012125
3.066667	1	-0.010125
3.083333	1	-0.007500
3.100000	1	-0.005125
3.116667	1	-0.004750
3.133333	1	-0.002250
3.150000	1	0.000250
3.166667	1	0.002125
3.183333	1	0.003875
3.200000	1	0.006125
3.216667	1	0.009125
3.233333	1	0.011250
3.250000	1	0.013000
3.266667	1	0.015000
3.283333	1	0.016875
3.300000	1	0.019125
3.316667	1	0.021000
3.333333	1	0.022875
3.350000	1	0.025375
3.366667	1	0.027375
3.383333	1	0.029250
3.400000	1	0.031000
3.416667	1	0.032500
3.433333	1	0.034625
3.450000	1	0.035875
3.466667	1	0.037875
3.483333	1	0.038375
3.500000	1	0.040125
3.516667	1	0.041125
3.533333	1	0.042875
3.550000	1	0.044000
3.566667	1	0.045375
3.583333	1	0.046500
3.600000	1	0.047375
3.616667	1	0.048875
3.633333	1	0.049625
3.650000	1	0.050375
3.666667	1	0.051750
3.683333	1	0.052000
3.700000	1	0.052625
3.716667	1	0.054000
3.733333	1	0.054875
3.750000	1	0.055500
3.766667	1	0.056500
3.783333	1	0.057250
3.800000	1	0.058000
3.816667	1	0.058875
3.833333	1	0.059875
3.850000	1	0.060875
3.866667	1	0.061875
3.883333	1	0.063000
3.900000	1	0.064250
3.916667	1	0.065500
3.933333	1	0.067250
3.950000	1	0.068000
3.966667	1	0.069250
3.983333	1	0.070750
4.000000	1	0.072750
4.016667	1	0.073875
4.033333	1	0.075750
4.050000	1	0.077125
4.066667	1	0.078500
4.083333	1	0.079750
4.100000	1	0.081250
4.116667	1	0.082375
4.133333	1	0.083875
4.150000	1	0.085125
4.166667	1	0.086750
4.183333	1	0.088000
4.200000	1	0.089125
4.216667	1	0.090625
4.233333	1	0.091875
4.250000	1	0.093000
4.266667	1	0.093625
4.283333	1	0.093625
4.300000	1	0.094375
4.316667	1	0.094750
4.333333	1	0.095000
4.350000	1	0.095750
4.366667	1	0.097250
4.383333	1	0.098625
4.400000	1	0.099750
4.416667	1	0.101000
4.433333	1	0.101625
4.450000	1	0.101875
4.466667	1	0.102625
4.483333	1	0.103500
4.500000	1	0.104250
4.516667	1	0.104875
4.533333	1	0.105875
4.550000	1	0.107250
4.566667	1	0.108250
4.583333	1	0.109125
4.600000	1	0.110000
4.616667	1	0.110500
4.633333	1	0.111875
4.650000	1	0.113750
4.666667	1	0.114500
4.683333	1	0.115625
4.700000	1	0.117250
4.716667	1	0.119125
4.733333	1	0.121750
4.750000	1	0.124000
4.766667	1	0.125625
4.783333	1	0.127875
4.800000	1	0.129875
4.816667	1	0.131750
4.833333	1	0.133875
4.850000	1	0.137000
4.866667	1	0.140000
4.883333	1	0.142625
4.900000	1	0.145625
4.916667	1	0.148750
4.933333	1	0.151625
4.950000	1	0.155375
4.966667	1	0.159000
4.983333	1	0.162500
5.000000	1	0.166375
5.016667	1	0.170875
5.033333	1	0.174500
5.050000	1	0.178000
5.066667	1	0.182500
5.083333	1	0.186625
5.100000	1	0.190250
5.116667	1	0.194125
5.133333	1	0.197875
5.150000	1	0.201875
5.166667	1	0.205750
5.183333	1	0.210000
5.200000	1	0.213750
5.216667	1	0.217625
5.233333	1	0.220625
5.250000	1	0.224500
5.266667	1	0.228125
5.283333	1	0.231000
5.300000	1	0.233250
5.316667	1	0.236125
5.333333	1	0.238875
5.350000	1	0.240500
5.366667	1	0.242125
5.383333	1	0.242625
5.400000	1	0.243750
5.416667	1	0.244250
5.433333	1	0.245000
5.450000	1	0.245625
5.466667	1	0.245625
5.483333	1	0.244625
5.500000	1	0.243500
5.516667	1	0.241750
5.533333	1	0.240125
5.550000	1	0.237750
5.566667	1	0.235500
5.583333	1	0.232625
5.600000	1	0.229875
5.616667	1	0.226250
5.633333	1	0.222125
5.650000	1	0.217750
5.666667	1	0.213000
5.683333	1	0.208250
5.700000	1	0.203750
5.716667	1	0.198625
5.733333	1	0.193000
5.750000	1	0.186750
5.766667	1	0.180625
5.783333	1	0.174500
5.800000	1	0.168375
5.816667	1	0.162250
5.833333	1	0.156000
5.850000	1	0.149875
5.866667	1	0.143000
5.883333	1	0.136875
5.900000	1	0.131000
5.916667	1	0.125250
5.933333	1	0.119500
5.950000	1	0.114125
5.966667	1	0.108875
5.983333	1	0.103750
6.000000	1	0.098750
6.016667	1	0.094000
6.033333	1	0.090000
6.050000	1	0.086625
6.066667	1	0.083250
6.083333	1	0.079625
6.100000	1	0.075375
6.116667	1	0.071625
6.133333	1	0.068750
6.150000	1	0.066375
6.166667	1	0.063750
6.183333	1	0.061375
6.200000	1	0.059875
6.216667	1	0.057500
6.233333	1	0.055375
6.250000	1	0.053750
6.266667	1	0.052625
6.283333	1	0.051375
6.300000	1	0.050125
6.316667	1	0.049125
6.333333	1	0.048500
6.350000	1	0.047125
6.366667	1	0.046250
6.383333	1	0.045750
6.400000	1	0.044625
6.416667	1	0.043625
6.433333	1	0.042500
6.450000	1	0.041750
6.466667	1	0.040750
6.483333	1	0.040625
6.500000	1	0.039625
6.516667	1	0.038750
6.533333	1	0.038250
6.550000	1	0.037250
6.566667	1	0.036500
6.583333	1	0.036000
6.600000	1	0.035750
6.616667	1	0.035625
6.633333	1	0.035625
6.650000	1	0.035625
6.666667	1	0.035875
6.683333	1	0.035250
6.700000	1	0.034750
6.716667	1	0.035250
6.733333	1	0.035500
6.750000	1	0.035750
6.766667	1	0.035750
6.783333	1	0.036000
6.800000	1	0.036625
6.816667	1	0.037250
6.833333	1	0.038625
6.850000	1	0.039375
6.866667	1	0.040875
6.883333	1	0.042000
6.900000	1	0.043375
6.916667	1	0.045000
6.933333	1	0.047375
6.950000	1	0.049375
6.966667	1	0.051000
6.983333	1	0.053125
7.000000	1	0.055500
7.016667	1	0.058125
7.033333	1	0.060625
7.050000	1	0.062875
7.066667	1	0.065750
7.083333	1	0.068125
7.100000	1	0.070125
7.116667	1	0.073000
7.133333	1	0.075750
7.150000	1	0.078375
7.166667	1	0.079875
7.183333	1	0.081750
7.200000	1	0.083625
7.216667	1	0.085625
7.233333	1	0.087000
7.250000	1	0.088500
7.266667	1	0.090500
7.283333	1	0.091375
7.300000	1	0.092500
7.316667	1	0.093875
7.333333	1	0.094625
7.350000	1	0.094750
7.366667	1	0.095125
7.383333	1	0.094625
7.400000	1	0.093750
7.416667	1	0.092875
7.433333	1	0.091625
7.450000	1	0.090625
7.466667	1	0.089000
7.483333	1	0.086375
7.500000	1	0.084500
7.516667	1	0.082375
7.533333	1	0.079750
7.550000	1	0.076375
7.566667	1	0.073125
7.583333	1	0.069625
7.600000	1	0.065875
7.616667	1	0.061500
7.633333	1	0.056750
7.650000	1	0.052125
7.666667	1	0.047250
7.683333	1	0.042750
7.700000	1	0.038000
7.716667	1	0.033125
7.733333	1	0.029375
7.750000	1	0.024750
7.766667	1	0.020000
7.783333	1	0.015625
7.800000	1	0.010625
7.816667	1	0.005625
7.833333	1	0.001375
7.850000	1	-0.002250
7.866667	1	-0.006500
7.883333	1	-0.010375
7.900000	1	-0.013875
7.916667	1	-0.017250
7.933333	1	-0.020875
7.950000	1	-0.024375
7.966667	1	-0.026875
7.983333	1	-0.029250
8.000000	1	-0.031375
8.016667	1	-0.033000
8.033333	1	-0.034625
8.050000	1	-0.036000
8.066667	1	-0.037250
8.083333	1	-0.038000
8.100000	1	-0.037875
8.116667	1	-0.038125
8.133333	1	-0.037875
8.150000	1	-0.037125
8.166667	1	-0.036750
8.183333	1	-0.035375
8.200000	1	-0.034125
8.216667	1	-0.033125
8.233333	1	-0.032250
8.250000	1	-0.030750
8.266667	1	-0.028500
8.283333	1	-0.027375
8.300000	1	-0.026500
8.316667	1	-0.024625
8.333333	1	-0.023500
8.350000	1	-0.021625
8.366667	1	-0.020000
8.383333	1	-0.018375
8.400000	1	-0.017625
8.416667	1	-0.016125
8.433333	1	-0.014375
8.450000	1	-0.013625
8.466667	1	-0.013125
8.483333	1	-0.012000
8.500000	1	-0.010750
8.516667	1	-0.010375
8.533333	1	-0.010000
8.550000	1	-0.009125
8.566667	1	-0.009000
8.583333	1	-0.008875
8.600000	1	-0.008875
8.616667	1	-0.008375
8.633333	1	-0.008750
8.650000	1	-0.008750
8.666667	1	-0.009375
8.683333	1	-0.009750
8.700000	1	-0.010500
8.716667	1	-0.010875
8.733333	1	-0.012125
8.750000	1	-0.013000
8.766667	1	-0.014250
8.783333	1	-0.015625
8.800000	1	-0.017000
8.816667	1	-0.019125
8.833333	1	-0.020875
8.850000	1	-0.022625
8.866667	1	-0.024125
8.883333	1	-0.026500
8.900000	1	-0.028375
8.916667	1	-0.030875
8.933333	1	-0.033500
8.950000	1	-0.035750
8.966667	1	-0.037875
8.983333	1	-0.040625
9.000000	1	-0.043125
9.016667	1	-0.046000
9.033333	1	-0.048750
9.050000	1	-0.051000
9.066667	1	-0.053375
9.083333	1	-0.055750
9.100000	1	-0.057750
9.116667	1	-0.060250
9.133333	1	-0.062500
9.150000	1	-0.064375
9.166667	1	-0.066250
9.183333	1	-0.068500
9.200000	1	-0.070500
9.216667	1	-0.071750
9.233333	1	-0.073875
9.250000	1	-0.076125
9.266667	1	-0.077500
9.283333	1	-0.079875
9.300000	1	-0.081000
9.316667	1	-0.083125
9.333333	1	-0.083875
9.350000	1	-0.085250
9.366667	1	-0.087375
9.383333	1	-0.088375
9.400000	1	-0.089625
9.416667	1	-0.090000
9.433333	1	-0.091875
9.450000	1	-0.092375
9.466667	1	-0.092875
9.483333	1	-0.093500
9.500000	1	-0.094000
9.516667	1	-0.095000
9.533333	1	-0.095750
9.550000	1	-0.096250
9.566667	1	-0.096250
9.583333	1	-0.097000
9.600000	1	-0.097125
9.616667	1	-0.097250
9.633333	1	-0.097250
9.650000	1	-0.097625
9.666667	1	-0.096875
9.683333	1	-0.096875
9.700000	1	-0.096750
9.716667	1	-0.096625
9.733333	1	-0.096250
9.750000	1	-0.096500
9.766667	1	-0.096375
9.783333	1	-0.096750
9.800000	1	-0.096375
9.816667	1	-0.096250
9.833333	1	-0.095875
9.850000	1	-0.095125
9.866667	1	-0.095125
9.883333	1	-0.095000
9.900000	1	-0.094625
9.916667	1	-0.094125
9.933333	1	-0.094375
9.950000	1	-0.094375
9.966667	1	-0.094875
9.983333	1	-0.094625
10.000000	1	-0.093375
10.016667	1	-0.093500
10.033333	1	-0.093250
10.050000	1	-0.092500
10.066667	1	-0.092000
10.083333	1	-0.090000
10.100000	1	-0.087375
10.116667	1	-0.084625
10.133333	1	-0.081125
10.150000	1	-0.077375
10.166667	1	-0.071875
10.183333	1	-0.066000
10.200000	1	-0.057750
10.216667	1	-0.048250
10.233333	1	-0.037500
10.250000	1	-0.025375
10.266667	1	-0.011750
10.283333	1	0.005000
10.300000	1	0.025375
10.316667	1	0.047500
10.333333	1	0.072625
10.350000	1	0.098750
10.366667	1	0.126000
10.383333	1	0.152375
10.400000	1	0.175250
10.416667	1	0.193250
10.433333	1	0.204500
10.450000	1	0.209625
10.466667	1	0.212375
10.483333	1	0.220875
10.500000	1	0.247500
10.516667	1	0.313125
10.533333	1	0.447750
10.550000	1	0.688000
10.566667	1	1.080625
10.583333	1	1.677000
10.600000	1	2.533375
10.616667	1	3.702875
10.633333	1	5.231250
10.650000	1	7.153250
10.666667	1	9.491000
10.683333	1	12.255250
10.700000	1	15.440250
10.716667	1	19.025500
10.733333	1	22.969750
10.750000	1	27.215000
10.766667	1	31.672750
10.783333	1	36.228125
10.800000	1	40.723250
10.816667	1	44.945125
10.833333	1	48.613875
10.850000	1	51.402500
10.866667	1	52.975000
10.883333	1	53.047000
10.900000	1	51.481250
10.916667	1	48.360750
10.933333	1	43.991625
10.950000	1	38.832125
10.966667	1	33.377625
10.983333	1	28.051500
11.000000	1	23.151625
11.016667	1	18.843375
11.033333	1	15.189875
11.050000	1	12.178250
11.066667	1	9.750250
11.083333	1	7.828000
11.100000	1	6.328250
11.116667	1	5.170875
11.133333	1	4.283500
11.150000	1	3.606000
11.166667	1	3.088625
11.183333	1	2.693875
11.200000	1	2.392250
11.216667	1	2.161750
11.233333	1	1.985000
11.250000	1	1.848375
11.266667	1	1.741625
11.283333	1	1.655875
11.300000	1	1.585625
11.316667	1	1.525000
11.333333	1	1.470250
11.350000	1	1.420250
11.366667	1	1.372500
11.383333	1	1.326750
11.400000	1	1.281875
11.416667	1	1.238625
11.433333	1	1.197500
11.450000	1	1.159625
11.466667	1	1.125000
11.483333	1	1.094000
11.500000	1	1.067125
11.516667	1	1.044875
11.533333	1	1.027750
11.550000	1	1.015000
11.566667	1	1.007125
11.583333	1	1.004375
11.600000	1	1.006250
11.616667	1	1.012375
11.633333	1	1.023750
11.650000	1	1.039875
11.666667	1	1.060250
11.683333	1	1.084375
11.700000	1	1.111875
11.716667	1	1.140250
11.733333	1	1.169500
11.750000	1	1.196875
11.766667	1	1.222375
11.783333	1	1.244875
11.800000	1	1.261125
11.816667	1	1.271125
11.833333	1	1.275500
11.850000	1	1.274875
11.866667	1	1.269000
11.883333	1	1.259000
11.900000	1	1.244250
11.916667	1	1.227000
11.933333	1	1.209000
11.950000	1	1.190375
11.966667	1	1.171250
11.983333	1	1.153125
12.000000	1	1.137375
12.016667	1	1.122250
12.033333	1	1.109875
12.050000	1	1.099750
12.066667	1	1.091500
12.083333	1	1.085375
12.100000	1	1.081125
12.116667	1	1.078500
12.133333	1	1.077250
12.150000	1	1.077250
12.166667	1	1.078500
12.183333	1	1.082250
12.200000	1	1.088125
12.216667	1	1.096375
12.233333	1	1.107500
12.250000	1	1.123750
12.266667	1	1.146500
12.283333	1	1.176500
12.300000	1	1.218250
12.316667	1	1.274000
12.333333	1	1.349750
12.350000	1	1.451500
12.366667	1	1.588250
12.383333	1	1.771750
12.400000	1	2.016500
12.416667	1	2.342500
12.433333	1	2.775375
12.450000	1	3.346625
12.466667	1	4.098500
12.483333	1	5.082875
12.500000	1	6.361000
12.516667	1	8.002750
12.533333	1	10.086125
12.550000	1	12.688250
12.566667	1	15.883375
12.583333	1	19.730875
12.600000	1	24.262000
12.616667	1	29.461125
12.633333	1	35.268750
12.650000	1	41.574875
12.666667	1	48.205375
12.683333	1	54.927250
12.700000	1	61.462500
12.716667	1	67.510125
12.733333	1	72.766875
12.750000	1	76.967500
12.766667	1	79.907125
12.783333	1	81.460750
12.800000	1	81.595000
12.816667	1	80.377125
12.833333	1	77.952625
12.850000	1	74.532750
12.866667	1	70.370125
12.883333	1	65.736625
12.900000	1	60.900875
12.916667	1	56.102375
12.933333	1	51.538875
12.950000	1	47.356625
12.966667	1	43.651625
12.983333	1	40.471625
13.000000	1	37.828750
13.016667	1	35.705375
13.033333	1	34.065500
13.050000	1	32.859875
13.066667	1	32.037625
13.083333	1	31.546875
13.100000	1	31.337875
13.116667	1	31.366125
13.133333	1	31.592500
13.150000	1	31.982875
13.166667	1	32.508375
13.183333	1	33.146375
13.200000	1	33.875625
13.216667	1	34.681625
13.233333	1	35.551625
13.250000	1	36.477750
13.266667	1	37.451875
13.283333	1	38.469625
13.300000	1	39.526875
13.316667	1	40.619125
13.333333	1	41.744000
13.350000	1	42.899750
13.366667	1	44.085250
13.383333	1	45.300375
13.400000	1	46.543250
13.416667	1	47.815125
13.433333	1	49.115250
13.450000	1	50.446875
13.466667	1	51.810000
13.483333	1	53.204250
13.500000	1	54.630375
13.516667	1	56.087250
13.533333	1	57.573750
13.550000	1	59.091375
13.566667	1	60.641875
13.583333	1	62.224000
13.600000	1	63.838250
13.616667	1	65.485500
13.633333	1	67.167375
13.650000	1	68.885750
13.666667	1	70.643375
13.683333	1	72.438375
13.700000	1	74.272500
13.716667	1	76.143250
13.733333	1	78.047375
13.750000	1	79.963875
13.766667	1	81.836375
13.783333	1	83.549500
13.800000	1	84.934625
13.816667	1	85.808500
13.833333	1	86.018250
13.850000	1	85.455750
13.866667	1	84.051125
13.883333	1	81.738500
13.900000	1	78.419625
13.916667	1	73.958875
13.933333	1	68.233250
13.950000	1	61.278625
13.966667	1	53.422250
13.983333	1	45.263125
14.000000	1	37.465625
14.016667	1	30.517500
14.033333	1	24.651000
14.050000	1	19.877000
14.066667	1	16.081750
14.083333	1	13.113625
14.100000	1	10.820375
14.116667	1	9.071250
14.133333	1	7.754625
14.150000	1	6.772875
14.166667	1	6.043875
14.183333	1	5.501000
14.200000	1	5.091375
14.216667	1	4.778000
14.233333	1	4.533875
14.250000	1	4.337750
14.266667	1	4.177000
14.283333	1	4.041375
14.300000	1	3.926750
14.316667	1	3.825875
14.333333	1	3.737125
14.350000	1	3.656375
14.366667	1	3.583500
14.383333	1	3.517125
14.400000	1	3.456125
14.416667	1	3.400375
14.433333	1	3.348750
14.450000	1	3.301000
14.466667	1	3.258125
14.483333	1	3.217750
14.500000	1	3.179500
14.516667	1	3.143875
14.533333	1	3.110125
14.550000	1	3.078625
14.566667	1	3.049375
14.583333	1	3.021250
14.600000	1	2.994375
14.616667	1	2.969875
14.633333	1	2.945875
14.650000	1	2.923250
14.666667	1	2.902875
14.683333	1	2.884625
14.700000	1	2.868125
14.716667	1	2.854250
14.733333	1	2.843000
14.750000	1	2.835125
14.766667	1	2.830125
14.783333	1	2.827750
14.800000	1	2.827125
14.816667	1	2.826375
14.833333	1	2.825500
14.850000	1	2.823125
14.866667	1	2.818125
14.883333	1	2.807250
14.900000	1	2.791250
14.916667	1	2.769875
14.933333	1	2.740625
14.950000	1	2.705000
14.966667	1	2.663375
14.983333	1	2.615375
15.000000	1	2.563125
15.016667	1	2.508000
15.033333	1	2.450750
15.050000	1	2.393625
15.066667	1	2.337500
15.083333	1	2.282125
15.100000	1	2.229375
15.116667	1	2.180375
15.133333	1	2.135375
15.150000	1	2.093500
15.166667	1	2.056000
15.183333	1	2.021625
15.200000	1	1.991500
15.216667	1	1.964750
15.233333	1	1.941875
15.250000	1	1.922375
15.266667	1	1.905750
15.283333	1	1.892500
15.300000	1	1.882750
15.316667	1	1.876500
15.333333	1	1.875125
15.350000	1	1.878125
15.366667	1	1.886500
15.383333	1	1.900125
15.400000	1	1.919000
15.416667	1	1.943375
15.433333	1	1.972375
15.450000	1	2.004625
15.466667	1	2.039125
15.483333	1	2.074250
15.500000	1	2.107750
15.516667	1	2.138875
15.533333	1	2.164750
15.550000	1	2.183000
15.566667	1	2.192375
15.583333	1	2.192875
15.600000	1	2.183375
15.616667	1	2.164125
15.633333	1	2.137000
15.650000	1	2.102750
15.666667	1	2.062750
15.683333	1	2.019125
15.700000	1	1.972500
15.716667	1	1.925875
15.733333	1	1.879000
15.750000	1	1.833500
15.766667	1	1.789625
15.783333	1	1.747500
15.800000	1	1.707375
15.816667	1	1.669375
15.833333	1	1.633375
15.850000	1	1.599250
15.866667	1	1.566500
15.883333	1	1.535000
15.900000	1	1.504750
15.916667	1	1.476000
15.933333	1	1.449750
15.950000	1	1.424750
15.966667	1	1.402500
15.983333	1	1.382750
16.000000	1	1.365625
16.016667	1	1.350625
16.033333	1	1.338125
16.050000	1	1.328625
16.066667	1	1.320625
16.083333	1	1.314875
16.100000	1	1.311500
16.116667	1	1.309750
16.133333	1	1.309625
16.150000	1	1.309250
16.166667	1	1.309625
16.183333	1	1.310875
16.200000	1	1.311625
16.216667	1	1.313375
16.233333	1	1.312750
16.250000	1	1.313125
16.266667	1	1.312500
16.283333	1	1.311125
16.300000	1	1.308625
16.316667	1	1.305125
16.333333	1	1.300500
16.350000	1	1.295375
16.366667	1	1.289500
16.383333	1	1.284000
16.400000	1	1.278625
16.416667	1	1.271750
16.433333	1	1.266375
16.450000	1	1.261750
16.466667	1	1.258000
16.483333	1	1.255875
16.500000	1	1.255000
16.516667	1	1.256625
16.533333	1	1.260000
16.550000	1	1.265250
16.566667	1	1.272500
16.583333	1	1.281000
16.600000	1	1.289750
16.616667	1	1.298750
16.633333	1	1.309125
16.650000	1	1.319000
16.666667	1	1.328625
16.683333	1	1.336250
16.700000	1	1.342375
16.716667	1	1.347875
16.733333	1	1.352000
16.750000	1	1.354875
16.766667	1	1.356875
16.783333	1	1.359500
16.800000	1	1.361625
16.816667	1	1.364125
16.833333	1	1.366375
16.850000	1	1.369500
16.866667	1	1.372500
16.883333	1	1.375750
16.900000	1	1.379000
16.916667	1	1.381000
16.933333	1	1.383500
16.950000	1	1.384500
16.966667	1	1.385000
16.983333	1	1.384125
17.000000	1	1.382125
17.016667	1	1.377875
17.033333	1	1.373500
17.050000	1	1.368250
17.066667	1	1.362250
17.083333	1	1.355875
17.100000	1	1.350125
17.116667	1	1.344875
17.133333	1	1.340500
17.150000	1	1.336250
17.166667	1	1.333500
17.183333	1	1.332250
17.200000	1	1.332250
17.216667	1	1.333875
17.233333	1	1.337125
17.250000	1	1.341500
17.266667	1	1.348250
17.283333	1	1.355250
17.300000	1	1.363375
17.316667	1	1.371875
17.333333	1	1.381375
17.350000	1	1.391875
17.366667	1	1.401875
17.383333	1	1.412125
17.400000	1	1.421625
17.416667	1	1.430250
17.433333	1	1.438250
17.450000	1	1.443375
17.466667	1	1.447500
17.483333	1	1.448875
17.500000	1	1.448000
17.516667	1	1.445125
17.533333	1	1.439375
17.550000	1	1.431375
17.566667	1	1.421125
17.583333	1	1.408375
17.600000	1	1.393750
17.616667	1	1.378000
17.633333	1	1.361000
17.650000	1	1.342125
17.666667	1	1.323125
17.683333	1	1.303125
17.700000	1	1.282625
17.716667	1	1.262750
17.733333	1	1.243125
17.750000	1	1.224375
17.766667	1	1.205750
17.783333	1	1.188125
17.800000	1	1.170625
17.816667	1	1.154125
17.833333	1	1.138000
17.850000	1	1.122375
17.866667	1	1.106750
17.883333	1	1.091250
17.900000	1	1.076875
17.916667	1	1.063375
17.933333	1	1.049625
17.950000	1	1.036875
17.966667	1	1.024625
17.983333	1	1.012875
18.000000	1	1.001625
18.016667	1	0.989125
18.033333	1	0.978125
18.050000	1	0.967125
18.066667	1	0.956500
18.083333	1	0.946000
18.100000	1	0.935875
18.116667	1	0.925250
18.133333	1	0.916000
18.150000	1	0.907250
18.166667	1	0.898500
18.183333	1	0.890750
18.200000	1	0.884500
18.216667	1	0.878750
18.233333	1	0.872750
18.250000	1	0.868625
18.266667	1	0.865000
18.283333	1	0.862625
18.300000	1	0.861375
18.316667	1	0.860625
18.333333	1	0.860250
18.350000	1	0.861125
18.366667	1	0.861875
18.383333	1	0.863125
18.400000	1	0.865750
18.416667	1	0.868375
18.433333	1	0.872375
18.450000	1	0.877375
18.466667	1	0.883500
18.483333	1	0.890375
18.500000	1	0.898375
18.516667	1	0.908250
18.533333	1	0.920000
18.550000	1	0.933250
18.566667	1	0.949250
18.583333	1	0.967250
18.600000	1	0.987625
18.616667	1	1.011125
18.633333	1	1.035125
18.650000	1	1.062375
18.666667	1	1.092000
18.683333	1	1.122375
18.700000	1	1.155125
18.716667	1	1.190000
18.733333	1	1.226250
18.750000	1	1.264375
18.766667	1	1.302875
18.783333	1	1.341750
18.800000	1	1.380250
18.816667	1	1.418875
18.833333	1	1.456125
18.850000	1	1.491625
18.866667	1	1.524125
18.883333	1	1.553375
18.900000	1	1.577750
18.916667	1	1.597875
18.933333	1	1.612000
18.950000	1	1.619250
18.966667	1	1.620750
18.983333	1	1.613875
19.000000	1	1.600250
19.016667	1	1.579625
19.033333	1	1.550875
19.050000	1	1.514750
19.066667	1	1.473375
19.083333	1	1.426500
19.100000	1	1.374875
19.116667	1	1.320500
19.133333	1	1.264625
19.150000	1	1.208125
19.166667	1	1.151625
19.183333	1	1.096250
19.200000	1	1.043875
19.216667	1	0.994500
19.233333	1	0.949375
19.250000	1	0.907750
19.266667	1	0.871625
19.283333	1	0.841750
19.300000	1	0.817000
19.316667	1	0.798500
19.333333	1	0.786125
19.350000	1	0.779625
19.366667	1	0.779375
19.383333	1	0.784375
19.400000	1	0.795125
19.416667	1	0.811250
19.433333	1	0.830750
19.450000	1	0.855125
19.466667	1	0.882500
19.483333	1	0.912750
19.500000	1	0.944625
19.516667	1	0.977000
19.533333	1	1.009375
19.550000	1	1.040375
19.566667	1	1.068750
19.583333	1	1.093125
19.600000	1	1.113000
19.616667	1	1.127500
19.633333	1	1.136125
19.650000	1	1.138125
19.666667	1	1.133625
19.683333	1	1.123250
19.700000	1	1.106500
19.716667	1	1.084000
19.733333	1	1.057125
19.750000	1	1.026250
19.766667	1	0.991875
19.783333	1	0.955625
19.800000	1	0.918000
19.816667	1	0.879250
19.833333	1	0.841250
19.850000	1	0.803875
19.866667	1	0.769250
19.883333	1	0.735375
19.900000	1	0.704000
19.916667	1	0.675750
19.933333	1	0.649750
19.950000	1	0.626875
19.966667	1	0.605875
19.983333	1	0.588375
20.000000	1	0.573750
20.016667	1	0.561875
20.033333	1	0.552125
20.050000	1	0.545625
20.066667	1	0.542000
20.083333	1	0.540500
20.100000	1	0.541375
20.116667	1	0.545125
20.133333	1	0.551375
20.150000	1	0.560125
20.166667	1	0.570375
20.183333	1	0.583125
20.200000	1	0.597375
20.216667	1	0.614375
20.233333	1	0.631750
20.250000	1	0.650000
20.266667	1	0.668375
20.283333	1	0.686250
20.300000	1	0.703500
20.316667	1	0.719375
20.333333	1	0.732875
20.350000	1	0.745125
20.366667	1	0.753875
20.383333	1	0.759125
20.400000	1	0.762000
20.416667	1	0.761250
20.433333	1	0.757250
20.450000	1	0.751500
20.466667	1	0.743750
20.483333	1	0.734750
20.500000	1	0.725375
20.516667	1	0.717500
20.533333	1	0.712125
20.550000	1	0.709000
20.566667	1	0.710250
20.583333	1	0.715500
20.600000	1	0.727250
20.616667	1	0.745125
20.633333	1	0.770500
20.650000	1	0.803000
20.666667	1	0.844000
20.683333	1	0.892625
20.700000	1	0.948875
20.716667	1	1.012250
20.733333	1	1.082000
20.750000	1	1.156750
20.766667	1	1.235500
20.783333	1	1.315625
20.800000	1	1.394125
20.816667	1	1.469625
20.833333	1	1.540000
20.850000	1	1.601375
20.866667	1	1.654000
20.883333	1	1.694125
20.900000	1	1.720875
20.916667	1	1.733625
20.933333	1	1.730375
20.950000	1	1.712875
20.966667	1	1.681625
20.983333	1	1.636875
21.000000	1	1.581125
21.016667	1	1.516375
21.033333	1	1.443375
21.050000	1	1.366000
21.066667	1	1.285625
21.083333	1	1.204125
21.100000	1	1.123625
21.116667	1	1.046250
21.133333	1	0.972375
21.150000	1	0.903625
21.166667	1	0.839125
21.183333	1	0.779875
21.200000	1	0.726500
21.216667	1	0.678375
21.233333	1	0.636250
21.250000	1	0.599375
21.266667	1	0.567375
21.283333	1	0.539500
21.300000	1	0.515500
21.316667	1	0.494500
21.333333	1	0.477250
21.350000	1	0.462250
21.366667	1	0.450000
21.383333	1	0.440000
21.400000	1	0.432750
21.416667	1	0.425750
21.433333	1	0.420625
21.450000	1	0.417000
21.466667	1	0.414375
21.483333	1	0.413500
21.500000	1	0.413500
21.516667	1	0.415250
21.533333	1	0.417875
21.550000	1	0.423000
21.566667	1	0.429500
21.583333	1	0.437875
21.600000	1	0.448500
21.616667	1	0.462250
21.633333	1	0.477875
21.650000	1	0.496625
21.666667	1	0.519125
21.683333	1	0.545625
21.700000	1	0.575625
21.716667	1	0.609625
21.733333	1	0.648250
21.750000	1	0.691750
21.766667	1	0.739750
21.783333	1	0.792500
21.800000	1	0.848750
21.816667	1	0.909625
21.833333	1	0.973625
21.850000	1	1.040875
21.866667	1	1.109625
21.883333	1	1.180375
21.900000	1	1.251625
21.916667	1	1.320875
21.933333	1	1.388625
21.950000	1	1.452125
21.966667	1	1.511500
21.983333	1	1.563250
22.000000	1	1.608125
22.016667	1	1.643750
22.033333	1	1.669125
22.050000	1	1.684625
22.066667	1	1.689875
22.083333	1	1.684375
22.100000	1	1.668750
22.116667	1	1.643750
22.133333	1	1.608750
22.150000	1	1.566000
22.166667	1	1.515875
22.183333	1	1.461000
22.200000	1	1.401125
22.216667	1	1.338375
22.233333	1	1.273750
22.250000	1	1.207250
22.266667	1	1.140625
22.283333	1	1.076500
22.300000	1	1.013750
22.316667	1	0.952875
22.333333	1	0.894000
22.350000	1	0.838625
22.366667	1	0.785625
22.383333	1	0.736375
22.400000	1	0.689875
22.416667	1	0.647125
22.433333	1	0.608000
22.450000	1	0.572125
22.466667	1	0.539125
22.483333	1	0.508375
22.500000	1	0.480750
22.516667	1	0.455750
22.533333	1	0.433750
22.550000	1	0.414000
22.566667	1	0.395875
22.583333	1	0.379875
22.600000	1	0.365125
22.616667	1	0.351750
22.633333	1	0.339875
22.650000	1	0.329500
22.666667	1	0.320500
22.683333	1	0.312875
22.700000	1	0.305250
22.716667	1	0.299000
22.733333	1	0.294125
22.750000	1	0.288625
22.766667	1	0.283375
22.783333	1	0.278750
22.800000	1	0.275000
22.816667	1	0.271625
22.833333	1	0.268125
22.850000	1	0.265375
22.866667	1	0.263250
22.883333	1	0.261125
22.900000	1	0.260000
22.916667	1	0.259000
22.933333	1	0.257750
22.950000	1	0.256875
22.966667	1	0.257125
22.983333	1	0.257250
23.000000	1	0.258125
23.016667	1	0.258875
23.033333	1	0.260375
23.050000	1	0.261625
23.066667	1	0.264125
23.083333	1	0.266625
23.100000	1	0.268750
23.116667	1	0.271750
23.133333	1	0.274750
23.150000	1	0.277875
23.166667	1	0.282000
23.183333	1	0.285000
23.200000	1	0.288625
23.216667	1	0.292750
23.233333	1	0.296375
23.250000	1	0.300875
23.266667	1	0.306500
23.283333	1	0.312750
23.300000	1	0.319625
23.316667	1	0.328250
23.333333	1	0.340000
23.350000	1	0.353875
23.366667	1	0.371250
23.383333	1	0.392375
23.400000	1	0.418000
23.416667	1	0.448500
23.433333	1	0.485000
23.450000	1	0.529125
23.466667	1	0.582000
23.483333	1	0.644000
23.500000	1	0.716750
23.516667	1	0.801625
23.533333	1	0.899625
23.550000	1	1.012500
23.566667	1	1.139875
23.583333	1	1.283250
23.600000	1	1.443375
23.616667	1	1.620250
23.633333	1	1.813750
23.650000	1	2.023500
23.666667	1	2.248625
23.683333	1	2.486750
23.700000	1	2.735625
23.716667	1	2.994375
23.733333	1	3.256750
23.750000	1	3.519625
23.766667	1	3.778250
23.783333	1	4.027125
23.800000	1	4.261750
23.816667	1	4.476375
23.833333	1	4.666750
23.850000	1	4.827500
23.866667	1	4.956000
23.883333	1	5.048750
23.900000	1	5.103500
23.916667	1	5.119625
23.933333	1	5.097250
23.950000	1	5.036375
23.966667	1	4.940000
23.983333	1	4.810875
24.000000	1	4.651750
24.016667	1	4.467125
24.033333	1	4.262375
24.050000	1	4.042625
24.066667	1	3.810875
24.083333	1	3.573000
24.100000	1	3.332625
24.116667	1	3.094250
24.133333	1	2.859500
24.150000	1	2.632500
24.166667	1	2.414750
24.183333	1	2.208375
24.200000	1	2.015750
24.216667	1	1.837000
24.233333	1	1.670875
24.250000	1	1.519625
24.266667	1	1.381625
24.283333	1	1.257375
24.300000	1	1.145375
24.316667	1	1.044875
24.333333	1	0.955625
24.350000	1	0.877500
24.366667	1	0.808250
24.383333	1	0.747375
24.400000	1	0.695250
24.416667	1	0.650250
24.433333	1	0.612000
24.450000	1	0.579500
24.466667	1	0.551750
24.483333	1	0.529000
24.500000	1	0.509625
24.516667	1	0.493125
24.533333	1	0.479000
24.550000	1	0.467625
24.566667	1	0.457750
24.583333	1	0.448875
24.600000	1	0.441625
24.616667	1	0.434500
24.633333	1	0.427500
24.650000	1	0.422250
24.666667	1	0.416500
24.683333	1	0.410375
24.700000	1	0.405125
24.716667	1	0.399000
24.733333	1	0.392625
24.750000	1	0.386000
24.766667	1	0.380500
24.783333	1	0.374125
24.800000	1	0.367250
24.816667	1	0.361625
24.833333	1	0.355500
24.850000	1	0.349500
24.866667	1	0.343500
24.883333	1	0.337750
24.900000	1	0.331625
24.916667	1	0.326250
24.933333	1	0.320750
24.950000	1	0.315625
24.966667	1	0.311250
24.983333	1	0.306750
25.000000	1	0.302375
25.016667	1	0.298125
25.033333	1	0.294250
25.050000	1	0.289625
25.066667	1	0.285875
25.083333	1	0.282125
25.100000	1	0.278875
25.116667	1	0.276000
25.133333	1	0.272000
25.150000	1	0.268500
25.166667	1	0.265000
25.183333	1	0.261750
25.200000	1	0.258375
25.216667	1	0.255250
25.233333	1	0.252000
25.250000	1	0.249000
25.266667	1	0.246125
25.283333	1	0.243000
25.300000	1	0.240000
25.316667	1	0.237750
25.333333	1	0.235000
25.350000	1	0.232125
25.366667	1	0.229500
25.383333	1	0.227500
25.400000	1	0.225250
25.416667	1	0.223250
25.433333	1	0.222000
25.450000	1	0.221125
25.466667	1	0.219625
25.483333	1	0.218875
25.500000	1	0.218375
25.516667	1	0.216750
25.533333	1	0.216625
25.550000	1	0.215500
25.566667	1	0.215125
25.583333	1	0.214750
25.600000	1	0.214250
25.616667	1	0.213625
25.633333	1	0.212875
25.650000	1	0.212500
25.666667	1	0.211750
25.683333	1	0.211000
25.700000	1	0.210125
25.716667	1	0.209875
25.733333	1	0.209625
25.750000	1	0.209625
25.766667	1	0.209250
25.783333	1	0.208875
25.800000	1	0.209125
25.816667	1	0.209625
25.833333	1	0.210250
25.850000	1	0.211625
25.866667	1	0.213000
25.883333	1	0.214625
25.900000	1	0.217000
25.916667	1	0.219500
25.933333	1	0.222500
25.950000	1	0.226375
25.966667	1	0.230250
25.983333	1	0.234375
26.000000	1	0.239250
26.016667	1	0.245000
26.033333	1	0.251000
26.050000	1	0.256375
26.066667	1	0.262250
26.083333	1	0.268125
26.100000	1	0.274875
26.116667	1	0.280750
26.133333	1	0.286875
26.150000	1	0.292750
26.166667	1	0.298500
26.183333	1	0.304125
26.200000	1	0.309250
26.216667	1	0.313250
26.233333	1	0.317375
26.250000	1	0.320625
26.266667	1	0.323625
26.283333	1	0.325625
26.300000	1	0.326625
26.316667	1	0.327000
26.333333	1	0.326250
26.350000	1	0.325000
26.366667	1	0.322750
26.383333	1	0.320000
26.400000	1	0.315875
26.416667	1	0.310750
26.433333	1	0.305125
26.450000	1	0.299125
26.466667	1	0.292500
26.483333	1	0.285500
26.500000	1	0.278000
26.516667	1	0.270000
26.533333	1	0.261750
26.550000	1	0.252875
26.566667	1	0.244375
26.583333	1	0.236125
26.600000	1	0.227125
26.616667	1	0.218625
26.633333	1	0.210125
26.650000	1	0.201625
26.666667	1	0.194000
26.683333	1	0.186750
26.700000	1	0.180125
26.716667	1	0.173125
26.733333	1	0.167375
26.750000	1	0.161625
26.766667	1	0.156750
26.783333	1	0.152125
26.800000	1	0.148125
26.816667	1	0.144875
26.833333	1	0.142875
26.850000	1	0.140875
26.866667	1	0.139125
26.883333	1	0.138250
26.900000	1	0.137625
26.916667	1	0.137500
26.933333	1	0.138125
26.950000	1	0.139500
26.966667	1	0.140875
26.983333	1	0.143125
27.000000	1	0.145750
27.016667	1	0.149625
27.033333	1	0.153750
27.050000	1	0.158875
27.066667	1	0.164250
27.083333	1	0.171000
27.100000	1	0.178125
27.116667	1	0.186125
27.133333	1	0.195250
27.150000	1	0.206125
27.166667	1	0.217875
27.183333	1	0.231125
27.200000	1	0.247000
27.216667	1	0.264875
27.233333	1	0.284750
27.250000	1	0.308000
27.266667	1	0.334250
27.283333	1	0.364125
27.300000	1	0.398000
27.316667	1	0.436250
27.333333	1	0.479875
27.350000	1	0.528375
27.366667	1	0.582750
27.383333	1	0.644125
27.400000	1	0.712500
27.416667	1	0.788750
27.433333	1	0.873250
27.450000	1	0.967125
27.466667	1	1.070250
27.483333	1	1.184000
27.500000	1	1.308500
27.516667	1	1.441500
27.533333	1	1.584750
27.550000	1	1.737875
27.566667	1	1.900875
27.583333	1	2.072000
27.600000	1	2.250875
27.616667	1	2.436125
27.633333	1	2.627000
27.650000	1	2.821750
27.666667	1	3.017875
27.683333	1	3.212750
27.700000	1	3.404875
27.716667	1	3.591250
27.733333	1	3.767500
27.750000	1	3.933000
27.766667	1	4.083625
27.783333	1	4.217750
27.800000	1	4.332750
27.816667	1	4.426375
27.833333	1	4.496125
27.850000	1	4.541875
27.866667	1	4.561500
27.883333	1	4.554125
27.900000	1	4.519875
27.916667	1	4.458750
27.933333	1	4.372250
27.950000	1	4.262500
27.966667	1	4.131125
27.983333	1	3.980625
28.000000	1	3.813375
28.016667	1	3.632000
28.033333	1	3.440375
28.050000	1	3.240375
28.066667	1	3.036625
28.083333	1	2.830625
28.100000	1	2.626625
28.116667	1	2.425750
28.133333	1	2.231250
28.150000	1	2.044250
28.166667	1	1.866750
28.183333	1	1.699875
28.200000	1	1.543875
28.216667	1	1.400250
28.233333	1	1.267875
28.250000	1	1.146500
28.266667	1	1.036875
28.283333	1	0.938750
28.300000	1	0.851750
28.316667	1	0.774625
28.333333	1	0.706875
28.350000	1	0.648375
28.366667	1	0.598125
28.383333	1	0.556125
28.400000	1	0.520750
28.416667	1	0.492500
28.433333	1	0.469375
28.450000	1	0.451750
28.466667	1	0.438000
28.483333	1	0.428625
28.500000	1	0.422750
28.516667	1	0.421375
28.533333	1	0.421500
28.550000	1	0.424500
28.566667	1	0.429000
28.583333	1	0.435375
28.600000	1	0.443750
28.616667	1	0.453875
28.633333	1	0.464625
28.650000	1	0.475250
28.666667	1	0.486375
28.683333	1	0.498000
28.700000	1	0.509250
28.716667	1	0.520125
28.733333	1	0.530875
28.750000	1	0.540875
28.766667	1	0.550625
28.783333	1	0.558625
28.800000	1	0.566500
28.816667	1	0.572750
28.833333	1	0.578250
28.850000	1	0.583250
28.866667	1	0.585875
28.883333	1	0.587500
28.900000	1	0.587625
28.916667	1	0.586625
28.933333	1	0.583750
28.950000	1	0.579625
28.966667	1	0.574625
28.983333	1	0.568750
29.000000	1	0.561750
29.016667	1	0.553625
29.033333	1	0.544375
29.050000	1	0.533250
29.066667	1	0.522250
29.083333	1	0.510500
29.100000	1	0.497750
29.116667	1	0.484125
29.133333	1	0.470125
29.150000	1	0.455625
29.166667	1	0.440250
29.183333	1	0.425250
29.200000	1	0.410750
29.216667	1	0.395000
29.233333	1	0.379250
29.250000	1	0.364250
29.266667	1	0.348625
29.283333	1	0.333625
29.300000	1	0.319125
29.316667	1	0.305000
29.333333	1	0.291000
29.350000	1	0.277875
29.366667	1	0.265125
29.383333	1	0.252375
29.400000	1	0.240250
29.416667	1	0.229000
29.433333	1	0.218750
29.450000	1	0.208375
29.466667	1	0.198750
29.483333	1	0.189875
29.500000	1	0.181875
29.516667	1	0.173000
29.533333	1	0.165000
29.550000	1	0.158000
29.566667	1	0.151375
29.583333	1	0.145625
29.600000	1	0.139750
29.616667	1	0.134875
29.633333	1	0.130500
29.650000	1	0.125625
29.666667	1	0.122125
29.683333	1	0.118250
29.700000	1	0.114500
29.716667	1	0.111375
29.733333	1	0.108750
29.750000	1	0.105875
29.766667	1	0.103250
29.783333	1	0.100500
29.800000	1	0.099000
29.816667	1	0.096875
29.833333	1	0.095500
29.850000	1	0.094125
29.866667	1	0.092625
29.883333	1	0.091625
29.900000	1	0.089875
29.916667	1	0.087750
29.933333	1	0.086625
29.950000	1	0.085000
29.966667	1	0.083500
29.983333	1	0.082375
30.000000	1	0.080500
30.016667	1	0.079500
30.033333	1	0.078750
30.050000	1	0.077500
30.066667	1	0.075250
30.083333	1	0.073625
30.100000	1	0.072500
30.116667	1	0.070375
30.133333	1	0.068750
30.150000	1	0.066875
30.166667	1	0.065250
30.183333	1	0.063125
30.200000	1	0.061875
30.216667	1	0.059250
30.233333	1	0.057625
30.250000	1	0.056125
30.266667	1	0.054375
30.283333	1	0.052750
30.300000	1	0.051500
30.316667	1	0.050000
30.333333	1	0.049375
30.350000	1	0.048375
30.366667	1	0.048000
30.383333	1	0.047250
30.400000	1	0.047125
30.416667	1	0.046750
30.433333	1	0.047250
30.450000	1	0.048000
30.466667	1	0.049625
30.483333	1	0.050375
30.500000	1	0.051625
30.516667	1	0.054000
30.533333	1	0.056125
30.550000	1	0.059625
30.566667	1	0.063250
30.583333	1	0.068000
30.600000	1	0.072625
30.616667	1	0.077750
30.633333	1	0.083000
30.650000	1	0.088875
30.666667	1	0.096000
30.683333	1	0.103250
30.700000	1	0.110500
30.716667	1	0.118500
30.733333	1	0.126250
30.750000	1	0.134750
30.766667	1	0.143625
30.783333	1	0.153625
30.800000	1	0.163000
30.816667	1	0.173250
30.833333	1	0.183375
30.850000	1	0.194500
30.866667	1	0.205000
30.883333	1	0.215625
30.900000	1	0.225750
30.916667	1	0.237375
30.933333	1	0.248625
30.950000	1	0.260000
30.966667	1	0.272000
30.983333	1	0.283625
31.000000	1	0.295625
31.016667	1	0.308625
31.033333	1	0.321625
31.050000	1	0.334875
31.066667	1	0.347625
31.083333	1	0.361875
31.100000	1	0.376625
31.116667	1	0.391000
31.133333	1	0.406750
31.150000	1	0.423125
31.166667	1	0.439500
31.183333	1	0.456250
31.200000	1	0.473500
31.216667	1	0.491875
31.233333	1	0.510250
31.250000	1	0.529000
31.266667	1	0.547375
31.283333	1	0.566375
31.300000	1	0.585625
31.316667	1	0.604375
31.333333	1	0.622375
31.350000	1	0.639750
31.366667	1	0.656125
31.383333	1	0.672000
31.400000	1	0.686625
31.416667	1	0.699625
31.433333	1	0.711750
31.450000	1	0.721375
31.466667	1	0.728375
31.483333	1	0.733250
31.500000	1	0.735500
31.516667	1	0.736125
31.533333	1	0.734125
31.550000	1	0.729375
31.566667	1	0.722750
31.583333	1	0.712875
31.600000	1	0.701000
31.616667	1	0.686875
31.633333	1	0.670750
31.650000	1	0.652375
31.666667	1	0.632250
31.683333	1	0.611000
31.700000	1	0.588250
31.716667	1	0.564750
31.733333	1	0.540125
31.750000	1	0.515375
31.766667	1	0.490000
31.783333	1	0.464625
31.800000	1	0.440125
31.816667	1	0.416500
31.833333	1	0.393125
31.850000	1	0.370500
31.866667	1	0.348750
31.883333	1	0.328000
31.900000	1	0.308500
31.916667	1	0.290500
31.933333	1	0.273500
31.950000	1	0.258375
31.966667	1	0.243750
31.983333	1	0.230500
32.000000	1	0.218250
32.016667	1	0.207750
32.033333	1	0.197625
32.050000	1	0.188625
32.066667	1	0.180000
32.083333	1	0.172250
32.100000	1	0.164750
32.116667	1	0.157750
32.133333	1	0.151125
32.150000	1	0.145500
32.166667	1	0.140000
32.183333	1	0.133750
32.200000	1	0.128250
32.216667	1	0.121875
32.233333	1	0.115750
32.250000	1	0.110125
32.266667	1	0.104375
32.283333	1	0.098125
32.300000	1	0.092250
32.316667	1	0.086125
32.333333	1	0.080000
32.350000	1	0.073750
32.366667	1	0.068125
32.383333	1	0.061875
32.400000	1	0.056125
32.416667	1	0.049875
32.433333	1	0.044250
32.450000	1	0.038875
32.466667	1	0.033750
32.483333	1	0.029000
32.500000	1	0.024375
32.516667	1	0.020500
32.533333	1	0.016500
32.550000	1	0.013000
32.566667	1	0.010625
32.583333	1	0.007875
32.600000	1	0.004875
32.616667	1	0.003375
32.633333	1	0.001875
32.650000	1	0.000125
32.666667	1	-0.000500
32.683333	1	-0.001375
32.700000	1	-0.001500
32.716667	1	-0.000875
32.733333	1	-0.001375
32.750000	1	-0.001000
32.766667	1	-0.000125
32.783333	1	0.000875
32.800000	1	0.002500
32.816667	1	0.004250
32.833333	1	0.005375
32.850000	1	0.007625
32.866667	1	0.008250
32.883333	1	0.010000
32.900000	1	0.012000
32.916667	1	0.013375
32.933333	1	0.015250
32.950000	1	0.017625
32.966667	1	0.019750
32.983333	1	0.022250
33.000000	1	0.024125
33.016667	1	0.025000
33.033333	1	0.026750
33.050000	1	0.029125
33.066667	1	0.030875
33.083333	1	0.032750
33.100000	1	0.034125
33.116667	1	0.035250
33.133333	1	0.037250
33.150000	1	0.040000
33.166667	1	0.042500
33.183333	1	0.045750
33.200000	1	0.048750
33.216667	1	0.052875
33.233333	1	0.056875
33.250000	1	0.061750
33.266667	1	0.066750
33.283333	1	0.072625
33.300000	1	0.079625
33.316667	1	0.088000
33.333333	1	0.096750
33.350000	1	0.106500
33.366667	1	0.117750
33.383333	1	0.130125
33.400000	1	0.144125
33.416667	1	0.159750
33.433333	1	0.176750
33.450000	1	0.196250
33.466667	1	0.217125
33.483333	1	0.239750
33.500000	1	0.264750
33.516667	1	0.292625
33.533333	1	0.323875
33.550000	1	0.357500
33.566667	1	0.393875
33.583333	1	0.432750
33.600000	1	0.474750
33.616667	1	0.520375
33.633333	1	0.568250
33.650000	1	0.619125
33.666667	1	0.674250
33.683333	1	0.731500
33.700000	1	0.791500
33.716667	1	0.854375
33.733333	1	0.919000
33.750000	1	0.986625
33.766667	1	1.055500
33.783333	1	1.125375
33.800000	1	1.197625
33.816667	1	1.268500
33.833333	1	1.340125
33.850000	1	1.411125
33.866667	1	1.480375
33.883333	1	1.547125
33.900000	1	1.610250
33.916667	1	1.670625
33.933333	1	1.726750
33.950000	1	1.778750
33.966667	1	1.825250
33.983333	1	1.865500
34.000000	1	1.900125
34.016667	1	1.928125
34.033333	1	1.948250
34.050000	1	1.961875
34.066667	1	1.968500
34.083333	1	1.968125
34.100000	1	1.959500
34.116667	1	1.945000
34.133333	1	1.923125
34.150000	1	1.895125
34.166667	1	1.860250
34.183333	1	1.819625
34.200000	1	1.774250
34.216667	1	1.724625
34.233333	1	1.670375
34.250000	1	1.612875
34.266667	1	1.552750
34.283333	1	1.490375
34.300000	1	1.426375
34.316667	1	1.361500
34.333333	1	1.296500
34.350000	1	1.231625
34.366667	1	1.166875
34.383333	1	1.102875
34.400000	1	1.040375
34.416667	1	0.979375
34.433333	1	0.920500
34.450000	1	0.864000
34.466667	1	0.809750
34.483333	1	0.757875
34.500000	1	0.709500
34.516667	1	0.663000
34.533333	1	0.618875
34.550000	1	0.578250
34.566667	1	0.539625
34.583333	1	0.504125
34.600000	1	0.470625
34.616667	1	0.439375
34.633333	1	0.410250
34.650000	1	0.383375
34.666667	1	0.357875
34.683333	1	0.334875
34.700000	1	0.314000
34.716667	1	0.294875
34.733333	1	0.277500
34.750000	1	0.261625
34.766667	1	0.247000
34.783333	1	0.233000
34.800000	1	0.219875
34.816667	1	0.208250
34.833333	1	0.196875
34.850000	1	0.186750
34.866667	1	0.177125
34.883333	1	0.168500
34.900000	1	0.161000
34.916667	1	0.153250
34.933333	1	0.146375
34.950000	1	0.140125
34.966667	1	0.133375
34.983333	1	0.128000
35.000000	1	0.122375
35.016667	1	0.117000
35.033333	1	0.112375
35.050000	1	0.107125
35.066667	1	0.103125
35.083333	1	0.099375
35.100000	1	0.096375
35.116667	1	0.093375
35.133333	1	0.090000
35.150000	1	0.087375
35.166667	1	0.084500
35.183333	1	0.081750
35.200000	1	0.079250
35.216667	1	0.077875
35.233333	1	0.076125
35.250000	1	0.075375
35.266667	1	0.074250
35.283333	1	0.073125
35.300000	1	0.072625
35.316667	1	0.072500
35.333333	1	0.072875
35.350000	1	0.073250
35.366667	1	0.074250
35.383333	1	0.075125
35.400000	1	0.075625
35.416667	1	0.076750
35.433333	1	0.078000
35.450000	1	0.079250
35.466667	1	0.080750
35.483333	1	0.082750
35.500000	1	0.084000
35.516667	1	0.085000
35.533333	1	0.087000
35.550000	1	0.088625
35.566667	1	0.090500
35.583333	1	0.092500
35.600000	1	0.095375
35.616667	1	0.097375
35.633333	1	0.099250
35.650000	1	0.100875
35.666667	1	0.102750
35.683333	1	0.104125
35.700000	1	0.105500
35.716667	1	0.106750
35.733333	1	0.108375
35.750000	1	0.109500
35.766667	1	0.110375
35.783333	1	0.110750
35.800000	1	0.111375
35.816667	1	0.111750
35.833333	1	0.112375
35.850000	1	0.112500
35.866667	1	0.112375
35.883333	1	0.112500
35.900000	1	0.111625
35.916667	1	0.111875
35.933333	1	0.111125
35.950000	1	0.110500
35.966667	1	0.109875
35.983333	1	0.109125
36.000000	1	0.108250
36.016667	1	0.107000
36.033333	1	0.105750
36.050000	1	0.104250
36.066667	1	0.103750
36.083333	1	0.103375
36.100000	1	0.102125
36.116667	1	0.100625
36.133333	1	0.099500
36.150000	1	0.098375
36.166667	1	0.098000
36.183333	1	0.096750
36.200000	1	0.096250
36.216667	1	0.095750
36.233333	1	0.094625
36.250000	1	0.093750
36.266667	1	0.093125
36.283333	1	0.092375
36.300000	1	0.091875
36.316667	1	0.091500
36.333333	1	0.090750
36.350000	1	0.090000
36.366667	1	0.089750
36.383333	1	0.089500
36.400000	1	0.089500
36.416667	1	0.088750
36.433333	1	0.088000
36.450000	1	0.087375
36.466667	1	0.086875
36.483333	1	0.086500
36.500000	1	0.085625
36.516667	1	0.084875
36.533333	1	0.084000
36.550000	1	0.082750
36.566667	1	0.081750
36.583333	1	0.079750
36.600000	1	0.079125
36.616667	1	0.077750
36.633333	1	0.076125
36.650000	1	0.075250
36.666667	1	0.074625
36.683333	1	0.073500
36.700000	1	0.072500
36.716667	1	0.070875
36.733333	1	0.069625
36.750000	1	0.067875
36.766667	1	0.066250
36.783333	1	0.065125
36.800000	1	0.063500
36.816667	1	0.061875
36.833333	1	0.059875
36.850000	1	0.058375
36.866667	1	0.056750
36.883333	1	0.056000
36.900000	1	0.054750
36.916667	1	0.053750
36.933333	1	0.052250
36.950000	1	0.050500
36.966667	1	0.049250
36.983333	1	0.048250
37.000000	1	0.047125
37.016667	1	0.045750
37.033333	1	0.044750
37.050000	1	0.043250
37.066667	1	0.042000
37.083333	1	0.040875
37.100000	1	0.039500
37.116667	1	0.038625
37.133333	1	0.037375
37.150000	1	0.035875
37.166667	1	0.035625
37.183333	1	0.034500
37.200000	1	0.033875
37.216667	1	0.033500
37.233333	1	0.032625
37.250000	1	0.032750
37.266667	1	0.032750
37.283333	1	0.032000
37.300000	1	0.032125
37.316667	1	0.031750
37.333333	1	0.032000
37.350000	1	0.031875
37.366667	1	0.031625
37.383333	1	0.031125
37.400000	1	0.030875
37.416667	1	0.031000
37.433333	1	0.030750
37.450000	1	0.030750
37.466667	1	0.031000
37.483333	1	0.030750
37.500000	1	0.031000
37.516667	1	0.030875
37.533333	1	0.030625
37.550000	1	0.030500
37.566667	1	0.029750
37.583333	1	0.029250
37.600000	1	0.028750
37.616667	1	0.028500
37.633333	1	0.028375
37.650000	1	0.027875
37.666667	1	0.027750
37.683333	1	0.027125
37.700000	1	0.026750
37.716667	1	0.026750
37.733333	1	0.026625
37.750000	1	0.026000
37.766667	1	0.026500
37.783333	1	0.025875
37.800000	1	0.024750
37.816667	1	0.024000
37.833333	1	0.023750
37.850000	1	0.023125
37.866667	1	0.023500
37.883333	1	0.022875
37.900000	1	0.023250
37.916667	1	0.023000
37.933333	1	0.023375
37.950000	1	0.024250
37.966667	1	0.024125
37.983333	1	0.025500
38.000000	1	0.025750
38.016667	1	0.026625
38.033333	1	0.027500
38.050000	1	0.028000
38.066667	1	0.029250
38.083333	1	0.030375
38.100000	1	0.031125
38.116667	1	0.032000
38.133333	1	0.032250
38.150000	1	0.033000
38.166667	1	0.033375
38.183333	1	0.034750
38.200000	1	0.035875
38.216667	1	0.036750
38.233333	1	0.036625
38.250000	1	0.036625
38.266667	1	0.037000
38.283333	1	0.037875
38.300000	1	0.038250
38.316667	1	0.038125
38.333333	1	0.038375
38.350000	1	0.038000
38.366667	1	0.037375
38.383333	1	0.036375
38.400000	1	0.034875
38.416667	1	0.033750
38.433333	1	0.032500
38.450000	1	0.031500
38.466667	1	0.030250
38.483333	1	0.029250
38.500000	1	0.028250
38.516667	1	0.026125
38.533333	1	0.024375
38.550000	1	0.023125
38.566667	1	0.020875
38.583333	1	0.019375
38.600000	1	0.016875
38.616667	1	0.015000
38.633333	1	0.013125
38.650000	1	0.011375
38.666667	1	0.010000
38.683333	1	0.007750
38.700000	1	0.006000
38.716667	1	0.004125
38.733333	1	0.002500
38.750000	1	0.000750
38.766667	1	-0.000375
38.783333	1	-0.001875
38.800000	1	-0.003750
38.816667	1	-0.005000
38.833333	1	-0.006000
38.850000	1	-0.007375
38.866667	1	-0.008500
38.883333	1	-0.009250
38.900000	1	-0.009500
38.916667	1	-0.010875
38.933333	1	-0.011375
38.950000	1	-0.011750
38.966667	1	-0.012750
38.983333	1	-0.013000
39.000000	1	-0.013500
39.016667	1	-0.013750
39.033333	1	-0.013625
39.050000	1	-0.013750
39.066667	1	-0.014250
39.083333	1	-0.014625
39.100000	1	-0.015875
39.116667	1	-0.016375
39.133333	1	-0.015875
39.150000	1	-0.016250
39.166667	1	-0.016375
39.183333	1	-0.016625
39.200000	1	-0.017000
39.216667	1	-0.017250
39.233333	1	-0.017500
39.250000	1	-0.017250
39.266667	1	-0.017625
39.283333	1	-0.017625
39.300000	1	-0.017125
39.316667	1	-0.017250
39.333333	1	-0.017375
39.350000	1	-0.017000
39.366667	1	-0.016500
39.383333	1	-0.016000
39.400000	1	-0.016125
39.416667	1	-0.015625
39.433333	1	-0.014625
39.450000	1	-0.013625
39.466667	1	-0.012500
39.483333	1	-0.011750
39.500000	1	-0.009875
39.516667	1	-0.008875
39.533333	1	-0.007250
39.550000	1	-0.006500
39.566667	1	-0.004750
39.583333	1	-0.002625
39.600000	1	-0.001125
39.616667	1	0.001250
39.633333	1	0.003375
39.650000	1	0.005500
39.666667	1	0.007625
39.683333	1	0.009375
39.700000	1	0.011125
39.716667	1	0.013500
39.733333	1	0.015250
39.750000	1	0.017375
39.766667	1	0.018875
39.783333	1	0.020750
39.800000	1	0.021875
39.816667	1	0.024000
39.833333	1	0.025875
39.850000	1	0.026875
39.866667	1	0.028375
39.883333	1	0.029125
39.900000	1	0.029875
39.916667	1	0.030875
39.933333	1	0.031500
39.950000	1	0.031500
39.966667	1	0.032000
39.983333	1	0.031875
40.000000	1	0.031750
