URL	chrom://bioreactor/micro_cm7/HPLC_Ultimate_3000/Users/markusar/20240716_MA_pHrange2.seq/116.smp/RI_1.channel/RI_1.chm
Channel	RI_1

Injection Information:
Data Vault	micro_cm7
Sequence	20240716_MA_pHrange2
Name	Fp3_40H_1
Number	28
Position	BC4
Comment	
Processing Method	
Instrument Method	run_25B_method
Type	Unknown
Status	Finished
Inject Time	17.07.2024 12:32:41 +02:00
Volume (µl)	20.0000
Dilution Factor	1.0000
Weight	1.0000

Chromatogram Data Information:
Time Min. (min)	0.000000
Time Max. (min)	40.000000
Data Points	2401
Detector	RI
Generating Data System	Chromeleon 7.3.2.11814
Exporting Data System	Chromeleon 7.3.2.0
Operator	Instrument Controller
Signal Quantity	Refractive 
Signal Unit	µRIU
Signal Min.	-0.027375
Signal Max.	81.889625
Channel	RI_1
Driver Name	RID520Driver.dll
Channel Type	Evaluation
Min. Step (s)	1
Max. Step (s)	1
Average Step (s)	1

Signal Parameter Information:
Signal Info	

Chromatogram Data:
Time (min)	Step (s)	Value (µRIU)
0.000000	n.a.	0.051000
0.016667	1	0.052875
0.033333	1	0.055125
0.050000	1	0.057500
0.066667	1	0.060250
0.083333	1	0.063500
0.100000	1	0.066875
0.116667	1	0.069500
0.133333	1	0.072250
0.150000	1	0.075000
0.166667	1	0.078000
0.183333	1	0.080625
0.200000	1	0.083875
0.216667	1	0.086625
0.233333	1	0.089375
0.250000	1	0.091625
0.266667	1	0.093375
0.283333	1	0.095250
0.300000	1	0.097500
0.316667	1	0.099875
0.333333	1	0.101875
0.350000	1	0.104000
0.366667	1	0.105500
0.383333	1	0.106750
0.400000	1	0.107875
0.416667	1	0.109000
0.433333	1	0.111750
0.450000	1	0.114375
0.466667	1	0.117500
0.483333	1	0.120625
0.500000	1	0.123500
0.516667	1	0.125250
0.533333	1	0.126875
0.550000	1	0.127750
0.566667	1	0.128500
0.583333	1	0.127875
0.600000	1	0.127125
0.616667	1	0.127000
0.633333	1	0.127000
0.650000	1	0.128250
0.666667	1	0.128375
0.683333	1	0.129375
0.700000	1	0.130625
0.716667	1	0.131625
0.733333	1	0.132125
0.750000	1	0.132875
0.766667	1	0.133625
0.783333	1	0.134125
0.800000	1	0.134875
0.816667	1	0.135250
0.833333	1	0.135375
0.850000	1	0.135500
0.866667	1	0.135125
0.883333	1	0.135125
0.900000	1	0.134375
0.916667	1	0.133625
0.933333	1	0.133000
0.950000	1	0.132000
0.966667	1	0.131375
0.983333	1	0.129750
1.000000	1	0.128250
1.016667	1	0.126750
1.033333	1	0.125250
1.050000	1	0.123625
1.066667	1	0.121750
1.083333	1	0.120125
1.100000	1	0.117875
1.116667	1	0.116000
1.133333	1	0.113250
1.150000	1	0.110000
1.166667	1	0.107125
1.183333	1	0.104375
1.200000	1	0.101875
1.216667	1	0.098875
1.233333	1	0.095750
1.250000	1	0.091875
1.266667	1	0.088625
1.283333	1	0.085500
1.300000	1	0.082250
1.316667	1	0.078500
1.333333	1	0.074750
1.350000	1	0.071125
1.366667	1	0.067250
1.383333	1	0.063875
1.400000	1	0.059875
1.416667	1	0.055125
1.433333	1	0.051500
1.450000	1	0.047125
1.466667	1	0.043500
1.483333	1	0.039750
1.500000	1	0.035375
1.516667	1	0.031000
1.533333	1	0.026750
1.550000	1	0.022750
1.566667	1	0.018750
1.583333	1	0.014625
1.600000	1	0.010750
1.616667	1	0.007250
1.633333	1	0.003750
1.650000	1	0.000000
1.666667	1	-0.003125
1.683333	1	-0.006250
1.700000	1	-0.009375
1.716667	1	-0.012625
1.733333	1	-0.014750
1.750000	1	-0.017000
1.766667	1	-0.019125
1.783333	1	-0.021250
1.800000	1	-0.022875
1.816667	1	-0.024250
1.833333	1	-0.025125
1.850000	1	-0.026250
1.866667	1	-0.026625
1.883333	1	-0.027375
1.900000	1	-0.027375
1.916667	1	-0.027125
1.933333	1	-0.027250
1.950000	1	-0.026500
1.966667	1	-0.026125
1.983333	1	-0.025625
2.000000	1	-0.024625
2.016667	1	-0.024375
2.033333	1	-0.023750
2.050000	1	-0.022750
2.066667	1	-0.022500
2.083333	1	-0.021250
2.100000	1	-0.021000
2.116667	1	-0.020125
2.133333	1	-0.019875
2.150000	1	-0.019625
2.166667	1	-0.019875
2.183333	1	-0.019125
2.200000	1	-0.019000
2.216667	1	-0.018875
2.233333	1	-0.019125
2.250000	1	-0.019375
2.266667	1	-0.019875
2.283333	1	-0.020500
2.300000	1	-0.021125
2.316667	1	-0.021875
2.333333	1	-0.022375
2.350000	1	-0.022500
2.366667	1	-0.023250
2.383333	1	-0.023625
2.400000	1	-0.023625
2.416667	1	-0.024625
2.433333	1	-0.024750
2.450000	1	-0.024500
2.466667	1	-0.024625
2.483333	1	-0.024375
2.500000	1	-0.023375
2.516667	1	-0.022625
2.533333	1	-0.022375
2.550000	1	-0.021125
2.566667	1	-0.019250
2.583333	1	-0.017625
2.600000	1	-0.015500
2.616667	1	-0.012750
2.633333	1	-0.010625
2.650000	1	-0.007375
2.666667	1	-0.004375
2.683333	1	-0.000875
2.700000	1	0.002375
2.716667	1	0.006375
2.733333	1	0.010750
2.750000	1	0.014750
2.766667	1	0.019000
2.783333	1	0.024125
2.800000	1	0.028625
2.816667	1	0.033875
2.833333	1	0.038750
2.850000	1	0.044125
2.866667	1	0.048625
2.883333	1	0.053125
2.900000	1	0.057750
2.916667	1	0.062750
2.933333	1	0.067500
2.950000	1	0.072750
2.966667	1	0.077875
2.983333	1	0.083250
3.000000	1	0.087750
3.016667	1	0.092125
3.033333	1	0.096125
3.050000	1	0.099750
3.066667	1	0.103375
3.083333	1	0.107375
3.100000	1	0.111000
3.116667	1	0.114125
3.133333	1	0.115875
3.150000	1	0.117250
3.166667	1	0.120000
3.183333	1	0.122000
3.200000	1	0.124125
3.216667	1	0.126125
3.233333	1	0.126875
3.250000	1	0.127375
3.266667	1	0.127875
3.283333	1	0.127875
3.300000	1	0.127500
3.316667	1	0.127125
3.333333	1	0.126875
3.350000	1	0.126125
3.366667	1	0.125250
3.383333	1	0.123875
3.400000	1	0.123000
3.416667	1	0.121750
3.433333	1	0.119625
3.450000	1	0.117750
3.466667	1	0.115625
3.483333	1	0.114000
3.500000	1	0.112250
3.516667	1	0.110125
3.533333	1	0.107500
3.550000	1	0.105625
3.566667	1	0.103375
3.583333	1	0.100750
3.600000	1	0.097375
3.616667	1	0.094875
3.633333	1	0.092250
3.650000	1	0.090250
3.666667	1	0.086875
3.683333	1	0.083875
3.700000	1	0.081125
3.716667	1	0.078375
3.733333	1	0.075875
3.750000	1	0.073000
3.766667	1	0.070125
3.783333	1	0.067375
3.800000	1	0.065500
3.816667	1	0.063000
3.833333	1	0.061125
3.850000	1	0.058125
3.866667	1	0.056250
3.883333	1	0.054375
3.900000	1	0.052625
3.916667	1	0.050625
3.933333	1	0.049625
3.950000	1	0.047750
3.966667	1	0.046875
3.983333	1	0.046375
4.000000	1	0.045750
4.016667	1	0.045250
4.033333	1	0.045625
4.050000	1	0.045375
4.066667	1	0.046125
4.083333	1	0.046375
4.100000	1	0.046875
4.116667	1	0.047500
4.133333	1	0.048875
4.150000	1	0.050375
4.166667	1	0.051750
4.183333	1	0.053000
4.200000	1	0.054375
4.216667	1	0.056500
4.233333	1	0.058875
4.250000	1	0.061875
4.266667	1	0.064500
4.283333	1	0.067625
4.300000	1	0.070125
4.316667	1	0.073250
4.333333	1	0.075375
4.350000	1	0.078375
4.366667	1	0.081875
4.383333	1	0.085875
4.400000	1	0.089500
4.416667	1	0.093125
4.433333	1	0.097500
4.450000	1	0.101500
4.466667	1	0.105250
4.483333	1	0.109500
4.500000	1	0.113750
4.516667	1	0.118625
4.533333	1	0.123125
4.550000	1	0.127375
4.566667	1	0.131500
4.583333	1	0.136875
4.600000	1	0.142250
4.616667	1	0.147500
4.633333	1	0.152750
4.650000	1	0.158000
4.666667	1	0.164375
4.683333	1	0.170000
4.700000	1	0.175250
4.716667	1	0.181000
4.733333	1	0.187125
4.750000	1	0.193000
4.766667	1	0.198750
4.783333	1	0.204500
4.800000	1	0.210250
4.816667	1	0.215875
4.833333	1	0.221375
4.850000	1	0.227125
4.866667	1	0.233250
4.883333	1	0.238250
4.900000	1	0.243000
4.916667	1	0.248250
4.933333	1	0.253250
4.950000	1	0.258000
4.966667	1	0.262375
4.983333	1	0.267000
5.000000	1	0.270625
5.016667	1	0.274500
5.033333	1	0.278375
5.050000	1	0.282000
5.066667	1	0.285625
5.083333	1	0.289000
5.100000	1	0.292000
5.116667	1	0.294500
5.133333	1	0.297000
5.150000	1	0.299500
5.166667	1	0.301625
5.183333	1	0.304125
5.200000	1	0.306500
5.216667	1	0.309125
5.233333	1	0.310625
5.250000	1	0.312500
5.266667	1	0.314125
5.283333	1	0.315625
5.300000	1	0.317750
5.316667	1	0.318750
5.333333	1	0.319375
5.350000	1	0.320875
5.366667	1	0.322500
5.383333	1	0.323000
5.400000	1	0.323875
5.416667	1	0.324750
5.433333	1	0.325375
5.450000	1	0.325125
5.466667	1	0.324625
5.483333	1	0.324875
5.500000	1	0.324750
5.516667	1	0.324250
5.533333	1	0.323000
5.550000	1	0.322125
5.566667	1	0.320375
5.583333	1	0.318250
5.600000	1	0.315500
5.616667	1	0.313750
5.633333	1	0.310875
5.650000	1	0.308750
5.666667	1	0.304875
5.683333	1	0.301375
5.700000	1	0.297625
5.716667	1	0.293000
5.733333	1	0.288625
5.750000	1	0.284125
5.766667	1	0.278750
5.783333	1	0.273000
5.800000	1	0.267375
5.816667	1	0.261500
5.833333	1	0.255375
5.850000	1	0.248750
5.866667	1	0.242375
5.883333	1	0.235875
5.900000	1	0.229500
5.916667	1	0.223375
5.933333	1	0.217000
5.950000	1	0.210625
5.966667	1	0.203625
5.983333	1	0.198125
6.000000	1	0.192375
6.016667	1	0.186375
6.033333	1	0.180750
6.050000	1	0.175375
6.066667	1	0.170000
6.083333	1	0.165250
6.100000	1	0.159625
6.116667	1	0.155125
6.133333	1	0.151250
6.150000	1	0.147250
6.166667	1	0.143125
6.183333	1	0.139250
6.200000	1	0.136125
6.216667	1	0.132875
6.233333	1	0.129625
6.250000	1	0.126875
6.266667	1	0.123375
6.283333	1	0.120625
6.300000	1	0.118000
6.316667	1	0.114500
6.333333	1	0.111625
6.350000	1	0.108375
6.366667	1	0.105500
6.383333	1	0.102625
6.400000	1	0.099500
6.416667	1	0.096750
6.433333	1	0.093500
6.450000	1	0.090750
6.466667	1	0.087125
6.483333	1	0.082875
6.500000	1	0.079750
6.516667	1	0.076500
6.533333	1	0.073000
6.550000	1	0.069625
6.566667	1	0.067250
6.583333	1	0.063625
6.600000	1	0.060000
6.616667	1	0.057625
6.633333	1	0.055250
6.650000	1	0.052625
6.666667	1	0.050000
6.683333	1	0.047750
6.700000	1	0.046250
6.716667	1	0.044125
6.733333	1	0.043125
6.750000	1	0.042250
6.766667	1	0.041500
6.783333	1	0.041500
6.800000	1	0.041250
6.816667	1	0.041500
6.833333	1	0.042375
6.850000	1	0.042750
6.866667	1	0.044125
6.883333	1	0.045125
6.900000	1	0.046375
6.916667	1	0.047875
6.933333	1	0.049500
6.950000	1	0.051500
6.966667	1	0.053750
6.983333	1	0.056250
7.000000	1	0.058250
7.016667	1	0.060750
7.033333	1	0.063125
7.050000	1	0.065750
7.066667	1	0.068000
7.083333	1	0.070875
7.100000	1	0.073000
7.116667	1	0.075125
7.133333	1	0.077250
7.150000	1	0.079875
7.166667	1	0.082500
7.183333	1	0.084875
7.200000	1	0.087625
7.216667	1	0.090125
7.233333	1	0.092500
7.250000	1	0.094375
7.266667	1	0.096125
7.283333	1	0.097875
7.300000	1	0.099750
7.316667	1	0.101250
7.333333	1	0.102750
7.350000	1	0.104625
7.366667	1	0.106125
7.383333	1	0.106875
7.400000	1	0.108000
7.416667	1	0.108750
7.433333	1	0.109125
7.450000	1	0.110000
7.466667	1	0.111000
7.483333	1	0.112000
7.500000	1	0.112875
7.516667	1	0.112875
7.533333	1	0.113375
7.550000	1	0.113875
7.566667	1	0.114250
7.583333	1	0.114875
7.600000	1	0.115000
7.616667	1	0.115625
7.633333	1	0.116000
7.650000	1	0.115625
7.666667	1	0.116000
7.683333	1	0.116750
7.700000	1	0.117000
7.716667	1	0.117625
7.733333	1	0.117750
7.750000	1	0.117375
7.766667	1	0.117750
7.783333	1	0.118375
7.800000	1	0.118750
7.816667	1	0.118875
7.833333	1	0.118375
7.850000	1	0.117750
7.866667	1	0.117500
7.883333	1	0.117375
7.900000	1	0.117250
7.916667	1	0.116500
7.933333	1	0.116375
7.950000	1	0.115625
7.966667	1	0.115375
7.983333	1	0.114625
8.000000	1	0.113625
8.016667	1	0.112500
8.033333	1	0.111375
8.050000	1	0.110375
8.066667	1	0.108625
8.083333	1	0.107875
8.100000	1	0.106250
8.116667	1	0.105375
8.133333	1	0.104000
8.150000	1	0.103375
8.166667	1	0.101000
8.183333	1	0.099250
8.200000	1	0.097500
8.216667	1	0.095875
8.233333	1	0.094500
8.250000	1	0.092500
8.266667	1	0.091000
8.283333	1	0.088875
8.300000	1	0.087125
8.316667	1	0.085375
8.333333	1	0.083500
8.350000	1	0.081250
8.366667	1	0.080125
8.383333	1	0.078125
8.400000	1	0.075375
8.416667	1	0.073625
8.433333	1	0.071500
8.450000	1	0.068875
8.466667	1	0.066625
8.483333	1	0.063750
8.500000	1	0.061125
8.516667	1	0.059000
8.533333	1	0.056500
8.550000	1	0.054625
8.566667	1	0.051875
8.583333	1	0.049625
8.600000	1	0.046750
8.616667	1	0.043625
8.633333	1	0.041125
8.650000	1	0.038500
8.666667	1	0.035375
8.683333	1	0.032375
8.700000	1	0.029000
8.716667	1	0.026500
8.733333	1	0.024000
8.750000	1	0.021875
8.766667	1	0.018875
8.783333	1	0.016000
8.800000	1	0.013250
8.816667	1	0.010500
8.833333	1	0.008500
8.850000	1	0.006000
8.866667	1	0.004250
8.883333	1	0.002125
8.900000	1	0.000500
8.916667	1	-0.000875
8.933333	1	-0.002000
8.950000	1	-0.002500
8.966667	1	-0.003750
8.983333	1	-0.004250
9.000000	1	-0.004625
9.016667	1	-0.004625
9.033333	1	-0.004250
9.050000	1	-0.003750
9.066667	1	-0.002375
9.083333	1	-0.001375
9.100000	1	-0.000250
9.116667	1	0.001500
9.133333	1	0.004125
9.150000	1	0.006375
9.166667	1	0.008875
9.183333	1	0.012250
9.200000	1	0.015125
9.216667	1	0.018000
9.233333	1	0.021500
9.250000	1	0.025000
9.266667	1	0.028250
9.283333	1	0.032000
9.300000	1	0.035875
9.316667	1	0.039875
9.333333	1	0.043375
9.350000	1	0.047500
9.366667	1	0.051375
9.383333	1	0.054750
9.400000	1	0.057875
9.416667	1	0.061125
9.433333	1	0.064000
9.450000	1	0.067125
9.466667	1	0.070000
9.483333	1	0.073250
9.500000	1	0.075250
9.516667	1	0.077000
9.533333	1	0.079500
9.550000	1	0.081125
9.566667	1	0.082750
9.583333	1	0.083875
9.600000	1	0.085000
9.616667	1	0.085625
9.633333	1	0.085500
9.650000	1	0.085125
9.666667	1	0.084375
9.683333	1	0.083625
9.700000	1	0.083000
9.716667	1	0.081875
9.733333	1	0.080250
9.750000	1	0.078750
9.766667	1	0.077000
9.783333	1	0.075250
9.800000	1	0.073500
9.816667	1	0.072000
9.833333	1	0.069750
9.850000	1	0.067750
9.866667	1	0.065250
9.883333	1	0.062875
9.900000	1	0.061250
9.916667	1	0.059000
9.933333	1	0.057750
9.950000	1	0.055875
9.966667	1	0.055125
9.983333	1	0.053500
10.000000	1	0.051625
10.016667	1	0.050875
10.033333	1	0.049750
10.050000	1	0.049125
10.066667	1	0.048750
10.083333	1	0.048750
10.100000	1	0.048375
10.116667	1	0.047875
10.133333	1	0.047625
10.150000	1	0.048500
10.166667	1	0.049750
10.183333	1	0.050500
10.200000	1	0.052250
10.216667	1	0.055125
10.233333	1	0.059125
10.250000	1	0.064125
10.266667	1	0.071750
10.283333	1	0.081125
10.300000	1	0.092750
10.316667	1	0.106500
10.333333	1	0.121250
10.350000	1	0.137500
10.366667	1	0.153625
10.383333	1	0.167125
10.400000	1	0.173875
10.416667	1	0.170250
10.433333	1	0.151625
10.450000	1	0.118000
10.466667	1	0.070125
10.483333	1	0.015875
10.500000	1	-0.024875
10.516667	1	-0.025750
10.533333	1	0.052125
10.550000	1	0.258500
10.566667	1	0.649750
10.583333	1	1.286500
10.600000	1	2.229250
10.616667	1	3.533375
10.633333	1	5.244750
10.650000	1	7.395500
10.666667	1	10.011875
10.683333	1	13.105500
10.700000	1	16.678625
10.716667	1	20.721000
10.733333	1	25.211000
10.750000	1	30.115625
10.766667	1	35.388750
10.783333	1	40.967750
10.800000	1	46.767625
10.816667	1	52.667875
10.833333	1	58.492250
10.850000	1	63.981625
10.866667	1	68.783750
10.883333	1	72.424125
10.900000	1	74.364750
10.916667	1	74.110375
10.933333	1	71.391625
10.950000	1	66.312125
10.966667	1	59.388375
10.983333	1	51.396875
11.000000	1	43.164250
11.016667	1	35.371375
11.033333	1	28.450250
11.050000	1	22.587125
11.066667	1	17.787875
11.083333	1	13.961125
11.100000	1	10.970375
11.116667	1	8.668875
11.133333	1	6.918625
11.150000	1	5.598625
11.166667	1	4.605000
11.183333	1	3.858375
11.200000	1	3.296125
11.216667	1	2.869625
11.233333	1	2.543625
11.250000	1	2.292250
11.266667	1	2.095625
11.283333	1	1.939625
11.300000	1	1.813125
11.316667	1	1.708750
11.333333	1	1.621125
11.350000	1	1.545500
11.366667	1	1.479625
11.383333	1	1.420500
11.400000	1	1.368500
11.416667	1	1.321750
11.433333	1	1.280750
11.450000	1	1.244000
11.466667	1	1.212125
11.483333	1	1.184875
11.500000	1	1.161750
11.516667	1	1.143250
11.533333	1	1.129375
11.550000	1	1.119500
11.566667	1	1.114000
11.583333	1	1.112625
11.600000	1	1.116625
11.616667	1	1.124375
11.633333	1	1.137125
11.650000	1	1.153625
11.666667	1	1.175000
11.683333	1	1.200625
11.700000	1	1.230125
11.716667	1	1.261750
11.733333	1	1.294250
11.750000	1	1.326375
11.766667	1	1.356625
11.783333	1	1.383750
11.800000	1	1.405750
11.816667	1	1.422250
11.833333	1	1.432125
11.850000	1	1.436750
11.866667	1	1.434500
11.883333	1	1.426625
11.900000	1	1.414000
11.916667	1	1.397000
11.933333	1	1.378000
11.950000	1	1.357000
11.966667	1	1.335750
11.983333	1	1.314625
12.000000	1	1.294875
12.016667	1	1.276500
12.033333	1	1.259000
12.050000	1	1.243625
12.066667	1	1.230500
12.083333	1	1.218125
12.100000	1	1.207500
12.116667	1	1.198625
12.133333	1	1.190750
12.150000	1	1.184250
12.166667	1	1.179000
12.183333	1	1.175500
12.200000	1	1.172625
12.216667	1	1.171125
12.233333	1	1.171625
12.250000	1	1.174250
12.266667	1	1.179500
12.283333	1	1.189250
12.300000	1	1.204875
12.316667	1	1.229250
12.333333	1	1.266625
12.350000	1	1.321500
12.366667	1	1.400750
12.383333	1	1.513375
12.400000	1	1.672625
12.416667	1	1.896125
12.433333	1	2.206000
12.450000	1	2.631375
12.466667	1	3.209625
12.483333	1	3.987250
12.500000	1	5.020875
12.516667	1	6.377125
12.533333	1	8.130875
12.550000	1	10.358250
12.566667	1	13.138125
12.583333	1	16.541875
12.600000	1	20.616875
12.616667	1	25.377250
12.633333	1	30.799125
12.650000	1	36.809375
12.666667	1	43.277125
12.683333	1	50.008500
12.700000	1	56.752500
12.716667	1	63.220750
12.733333	1	69.106000
12.750000	1	74.113500
12.766667	1	77.988375
12.783333	1	80.540875
12.800000	1	81.668500
12.816667	1	81.368000
12.833333	1	79.728000
12.850000	1	76.915250
12.866667	1	73.157125
12.883333	1	68.720500
12.900000	1	63.889500
12.916667	1	58.932750
12.933333	1	54.086500
12.950000	1	49.537000
12.966667	1	45.419625
12.983333	1	41.814125
13.000000	1	38.759125
13.016667	1	36.255125
13.033333	1	34.272875
13.050000	1	32.769625
13.066667	1	31.692375
13.083333	1	30.985500
13.100000	1	30.596125
13.116667	1	30.474500
13.133333	1	30.576250
13.150000	1	30.862750
13.166667	1	31.301750
13.183333	1	31.865125
13.200000	1	32.530375
13.216667	1	33.281000
13.233333	1	34.102375
13.250000	1	34.985000
13.266667	1	35.919375
13.283333	1	36.900875
13.300000	1	37.922750
13.316667	1	38.983375
13.333333	1	40.077250
13.350000	1	41.202875
13.366667	1	42.359500
13.383333	1	43.547125
13.400000	1	44.763500
13.416667	1	46.007000
13.433333	1	47.279750
13.450000	1	48.581750
13.466667	1	49.915000
13.483333	1	51.279375
13.500000	1	52.674750
13.516667	1	54.100500
13.533333	1	55.557500
13.550000	1	57.044750
13.566667	1	58.563000
13.583333	1	60.112375
13.600000	1	61.692000
13.616667	1	63.302375
13.633333	1	64.946250
13.650000	1	66.625250
13.666667	1	68.340875
13.683333	1	70.092625
13.700000	1	71.880750
13.716667	1	73.705000
13.733333	1	75.557375
13.750000	1	77.406375
13.766667	1	79.162625
13.783333	1	80.651875
13.800000	1	81.638375
13.816667	1	81.889625
13.833333	1	81.212750
13.850000	1	79.445500
13.866667	1	76.404625
13.883333	1	71.884625
13.900000	1	65.756000
13.916667	1	58.161500
13.933333	1	49.630875
13.950000	1	40.969750
13.966667	1	32.969250
13.983333	1	26.136125
14.000000	1	20.622000
14.016667	1	16.321625
14.033333	1	13.031875
14.050000	1	10.543000
14.066667	1	8.677250
14.083333	1	7.290625
14.100000	1	6.267250
14.116667	1	5.513750
14.133333	1	4.956375
14.150000	1	4.539750
14.166667	1	4.223875
14.183333	1	3.980125
14.200000	1	3.786625
14.216667	1	3.630625
14.233333	1	3.500375
14.250000	1	3.390125
14.266667	1	3.294875
14.283333	1	3.211625
14.300000	1	3.136625
14.316667	1	3.068625
14.333333	1	3.007250
14.350000	1	2.950500
14.366667	1	2.898625
14.383333	1	2.850250
14.400000	1	2.806000
14.416667	1	2.765250
14.433333	1	2.727250
14.450000	1	2.692500
14.466667	1	2.660875
14.483333	1	2.630875
14.500000	1	2.602875
14.516667	1	2.577750
14.533333	1	2.553125
14.550000	1	2.530375
14.566667	1	2.508375
14.583333	1	2.485750
14.600000	1	2.463875
14.616667	1	2.442500
14.633333	1	2.420250
14.650000	1	2.396625
14.666667	1	2.373250
14.683333	1	2.348500
14.700000	1	2.322750
14.716667	1	2.295875
14.733333	1	2.268750
14.750000	1	2.241250
14.766667	1	2.213000
14.783333	1	2.184875
14.800000	1	2.157000
14.816667	1	2.129000
14.833333	1	2.100375
14.850000	1	2.072000
14.866667	1	2.044125
14.883333	1	2.017125
14.900000	1	1.989250
14.916667	1	1.962125
14.933333	1	1.935000
14.950000	1	1.908250
14.966667	1	1.882500
14.983333	1	1.855625
15.000000	1	1.829875
15.016667	1	1.804875
15.033333	1	1.780250
15.050000	1	1.755625
15.066667	1	1.730875
15.083333	1	1.707250
15.100000	1	1.684625
15.116667	1	1.663125
15.133333	1	1.641500
15.150000	1	1.621250
15.166667	1	1.601625
15.183333	1	1.582750
15.200000	1	1.565250
15.216667	1	1.549125
15.233333	1	1.534250
15.250000	1	1.521125
15.266667	1	1.509250
15.283333	1	1.499125
15.300000	1	1.491875
15.316667	1	1.487500
15.333333	1	1.486125
15.350000	1	1.488625
15.366667	1	1.494875
15.383333	1	1.505625
15.400000	1	1.521000
15.416667	1	1.540125
15.433333	1	1.563625
15.450000	1	1.591625
15.466667	1	1.622875
15.483333	1	1.656125
15.500000	1	1.689250
15.516667	1	1.720875
15.533333	1	1.750500
15.550000	1	1.774500
15.566667	1	1.792500
15.583333	1	1.803250
15.600000	1	1.806375
15.616667	1	1.800875
15.633333	1	1.788000
15.650000	1	1.766375
15.666667	1	1.740250
15.683333	1	1.709125
15.700000	1	1.674250
15.716667	1	1.637375
15.733333	1	1.599750
15.750000	1	1.562500
15.766667	1	1.526125
15.783333	1	1.491875
15.800000	1	1.458750
15.816667	1	1.426875
15.833333	1	1.395750
15.850000	1	1.366500
15.866667	1	1.337500
15.883333	1	1.310375
15.900000	1	1.282750
15.916667	1	1.257125
15.933333	1	1.232000
15.950000	1	1.208625
15.966667	1	1.186250
15.983333	1	1.165375
16.000000	1	1.146875
16.016667	1	1.130500
16.033333	1	1.115625
16.050000	1	1.103125
16.066667	1	1.092375
16.083333	1	1.084000
16.100000	1	1.077000
16.116667	1	1.071250
16.133333	1	1.066750
16.150000	1	1.063500
16.166667	1	1.060750
16.183333	1	1.058750
16.200000	1	1.057625
16.216667	1	1.056000
16.233333	1	1.054375
16.250000	1	1.053000
16.266667	1	1.050625
16.283333	1	1.046875
16.300000	1	1.042875
16.316667	1	1.038625
16.333333	1	1.033750
16.350000	1	1.029125
16.366667	1	1.023375
16.383333	1	1.017250
16.400000	1	1.010625
16.416667	1	1.004625
16.433333	1	0.998875
16.450000	1	0.994125
16.466667	1	0.990000
16.483333	1	0.987250
16.500000	1	0.985625
16.516667	1	0.985750
16.533333	1	0.988375
16.550000	1	0.991875
16.566667	1	0.997000
16.583333	1	1.003625
16.600000	1	1.011125
16.616667	1	1.020125
16.633333	1	1.028625
16.650000	1	1.037250
16.666667	1	1.045875
16.683333	1	1.054625
16.700000	1	1.061750
16.716667	1	1.068000
16.733333	1	1.073750
16.750000	1	1.078375
16.766667	1	1.081250
16.783333	1	1.085250
16.800000	1	1.088500
16.816667	1	1.091750
16.833333	1	1.096000
16.850000	1	1.100750
16.866667	1	1.105125
16.883333	1	1.109750
16.900000	1	1.114750
16.916667	1	1.119875
16.933333	1	1.125250
16.950000	1	1.130000
16.966667	1	1.134125
16.983333	1	1.136500
17.000000	1	1.138875
17.016667	1	1.139875
17.033333	1	1.140625
17.050000	1	1.140500
17.066667	1	1.140375
17.083333	1	1.139375
17.100000	1	1.138125
17.116667	1	1.136500
17.133333	1	1.135750
17.150000	1	1.135125
17.166667	1	1.135500
17.183333	1	1.136000
17.200000	1	1.137875
17.216667	1	1.140750
17.233333	1	1.144000
17.250000	1	1.148125
17.266667	1	1.153375
17.283333	1	1.159000
17.300000	1	1.165375
17.316667	1	1.172000
17.333333	1	1.178875
17.350000	1	1.186000
17.366667	1	1.193375
17.383333	1	1.200375
17.400000	1	1.207250
17.416667	1	1.213500
17.433333	1	1.219250
17.450000	1	1.224250
17.466667	1	1.227000
17.483333	1	1.228500
17.500000	1	1.228750
17.516667	1	1.227375
17.533333	1	1.223250
17.550000	1	1.218500
17.566667	1	1.212000
17.583333	1	1.203750
17.600000	1	1.193625
17.616667	1	1.181625
17.633333	1	1.168500
17.650000	1	1.153625
17.666667	1	1.138375
17.683333	1	1.122375
17.700000	1	1.106250
17.716667	1	1.089875
17.733333	1	1.073625
17.750000	1	1.057250
17.766667	1	1.041250
17.783333	1	1.026500
17.800000	1	1.012000
17.816667	1	0.997875
17.833333	1	0.985000
17.850000	1	0.972750
17.866667	1	0.961125
17.883333	1	0.950500
17.900000	1	0.940500
17.916667	1	0.931125
17.933333	1	0.922125
17.950000	1	0.913750
17.966667	1	0.906500
17.983333	1	0.899750
18.000000	1	0.893625
18.016667	1	0.887500
18.033333	1	0.882000
18.050000	1	0.876375
18.066667	1	0.870750
18.083333	1	0.864625
18.100000	1	0.859250
18.116667	1	0.853875
18.133333	1	0.847750
18.150000	1	0.842000
18.166667	1	0.836125
18.183333	1	0.830250
18.200000	1	0.824500
18.216667	1	0.819625
18.233333	1	0.814375
18.250000	1	0.809875
18.266667	1	0.805750
18.283333	1	0.801625
18.300000	1	0.798125
18.316667	1	0.795375
18.333333	1	0.792625
18.350000	1	0.790375
18.366667	1	0.788375
18.383333	1	0.787250
18.400000	1	0.786375
18.416667	1	0.786375
18.433333	1	0.785750
18.450000	1	0.786625
18.466667	1	0.787875
18.483333	1	0.790250
18.500000	1	0.795000
18.516667	1	0.800750
18.533333	1	0.808250
18.550000	1	0.818000
18.566667	1	0.829500
18.583333	1	0.843375
18.600000	1	0.859625
18.616667	1	0.878000
18.633333	1	0.898250
18.650000	1	0.921625
18.666667	1	0.946375
18.683333	1	0.973500
18.700000	1	1.002625
18.716667	1	1.033375
18.733333	1	1.067000
18.750000	1	1.100750
18.766667	1	1.135375
18.783333	1	1.171125
18.800000	1	1.207250
18.816667	1	1.243375
18.833333	1	1.278000
18.850000	1	1.311500
18.866667	1	1.342625
18.883333	1	1.370625
18.900000	1	1.395125
18.916667	1	1.415625
18.933333	1	1.430875
18.950000	1	1.440375
18.966667	1	1.444000
18.983333	1	1.441250
19.000000	1	1.431375
19.016667	1	1.415375
19.033333	1	1.393250
19.050000	1	1.365000
19.066667	1	1.331000
19.083333	1	1.292875
19.100000	1	1.250250
19.116667	1	1.204875
19.133333	1	1.157250
19.150000	1	1.109250
19.166667	1	1.060750
19.183333	1	1.014125
19.200000	1	0.969125
19.216667	1	0.926500
19.233333	1	0.886875
19.250000	1	0.851875
19.266667	1	0.820750
19.283333	1	0.794625
19.300000	1	0.773875
19.316667	1	0.757875
19.333333	1	0.746750
19.350000	1	0.740500
19.366667	1	0.739625
19.383333	1	0.743875
19.400000	1	0.753125
19.416667	1	0.767125
19.433333	1	0.785625
19.450000	1	0.808500
19.466667	1	0.834375
19.483333	1	0.864125
19.500000	1	0.896375
19.516667	1	0.931250
19.533333	1	0.966750
19.550000	1	1.003000
19.566667	1	1.038875
19.583333	1	1.073375
19.600000	1	1.104875
19.616667	1	1.133750
19.633333	1	1.157875
19.650000	1	1.177500
19.666667	1	1.191750
19.683333	1	1.200250
19.700000	1	1.203000
19.716667	1	1.199750
19.733333	1	1.190875
19.750000	1	1.176625
19.766667	1	1.157500
19.783333	1	1.134125
19.800000	1	1.107625
19.816667	1	1.077625
19.833333	1	1.045500
19.850000	1	1.011375
19.866667	1	0.976875
19.883333	1	0.941500
19.900000	1	0.905875
19.916667	1	0.871375
19.933333	1	0.838250
19.950000	1	0.806375
19.966667	1	0.775125
19.983333	1	0.745125
20.000000	1	0.718000
20.016667	1	0.693000
20.033333	1	0.671125
20.050000	1	0.652125
20.066667	1	0.635500
20.083333	1	0.622000
20.100000	1	0.610375
20.116667	1	0.602000
20.133333	1	0.596875
20.150000	1	0.594375
20.166667	1	0.593750
20.183333	1	0.596500
20.200000	1	0.601375
20.216667	1	0.608500
20.233333	1	0.616875
20.250000	1	0.626125
20.266667	1	0.637000
20.283333	1	0.648375
20.300000	1	0.658875
20.316667	1	0.669250
20.333333	1	0.678375
20.350000	1	0.686750
20.366667	1	0.692250
20.383333	1	0.695750
20.400000	1	0.696625
20.416667	1	0.695125
20.433333	1	0.691625
20.450000	1	0.685500
20.466667	1	0.678125
20.483333	1	0.669875
20.500000	1	0.661375
20.516667	1	0.653125
20.533333	1	0.646875
20.550000	1	0.642625
20.566667	1	0.643500
20.583333	1	0.648875
20.600000	1	0.659625
20.616667	1	0.676625
20.633333	1	0.701250
20.650000	1	0.731875
20.666667	1	0.770750
20.683333	1	0.817375
20.700000	1	0.871500
20.716667	1	0.932750
20.733333	1	0.999875
20.750000	1	1.072250
20.766667	1	1.148125
20.783333	1	1.225625
20.800000	1	1.302750
20.816667	1	1.376875
20.833333	1	1.446000
20.850000	1	1.507875
20.866667	1	1.560125
20.883333	1	1.601375
20.900000	1	1.629500
20.916667	1	1.645250
20.933333	1	1.645875
20.950000	1	1.632500
20.966667	1	1.605375
20.983333	1	1.566500
21.000000	1	1.516750
21.016667	1	1.457250
21.033333	1	1.390750
21.050000	1	1.318750
21.066667	1	1.244000
21.083333	1	1.168500
21.100000	1	1.094000
21.116667	1	1.021125
21.133333	1	0.951750
21.150000	1	0.886750
21.166667	1	0.827125
21.183333	1	0.772375
21.200000	1	0.722875
21.216667	1	0.678875
21.233333	1	0.639750
21.250000	1	0.605125
21.266667	1	0.575125
21.283333	1	0.549500
21.300000	1	0.527625
21.316667	1	0.509000
21.333333	1	0.493250
21.350000	1	0.480125
21.366667	1	0.468625
21.383333	1	0.459625
21.400000	1	0.452125
21.416667	1	0.446500
21.433333	1	0.442250
21.450000	1	0.439000
21.466667	1	0.436875
21.483333	1	0.435250
21.500000	1	0.434375
21.516667	1	0.434125
21.533333	1	0.435375
21.550000	1	0.437000
21.566667	1	0.439375
21.583333	1	0.442500
21.600000	1	0.446500
21.616667	1	0.452250
21.633333	1	0.457625
21.650000	1	0.464875
21.666667	1	0.473625
21.683333	1	0.483750
21.700000	1	0.494625
21.716667	1	0.506250
21.733333	1	0.519750
21.750000	1	0.534375
21.766667	1	0.550375
21.783333	1	0.567125
21.800000	1	0.585750
21.816667	1	0.604625
21.833333	1	0.625000
21.850000	1	0.646125
21.866667	1	0.668750
21.883333	1	0.691750
21.900000	1	0.714750
21.916667	1	0.737875
21.933333	1	0.760875
21.950000	1	0.783125
21.966667	1	0.804375
21.983333	1	0.824375
22.000000	1	0.842375
22.016667	1	0.857500
22.033333	1	0.871250
22.050000	1	0.881500
22.066667	1	0.889875
22.083333	1	0.894125
22.100000	1	0.896250
22.116667	1	0.894875
22.133333	1	0.890250
22.150000	1	0.883500
22.166667	1	0.874000
22.183333	1	0.861875
22.200000	1	0.847125
22.216667	1	0.830875
22.233333	1	0.812250
22.250000	1	0.792750
22.266667	1	0.771625
22.283333	1	0.749875
22.300000	1	0.727250
22.316667	1	0.704625
22.333333	1	0.680375
22.350000	1	0.656750
22.366667	1	0.633875
22.383333	1	0.611125
22.400000	1	0.588500
22.416667	1	0.565625
22.433333	1	0.543750
22.450000	1	0.522875
22.466667	1	0.502000
22.483333	1	0.483375
22.500000	1	0.466375
22.516667	1	0.449375
22.533333	1	0.433500
22.550000	1	0.419000
22.566667	1	0.405750
22.583333	1	0.393250
22.600000	1	0.381750
22.616667	1	0.370875
22.633333	1	0.361250
22.650000	1	0.353000
22.666667	1	0.345875
22.683333	1	0.339500
22.700000	1	0.333375
22.716667	1	0.328375
22.733333	1	0.324250
22.750000	1	0.319875
22.766667	1	0.316250
22.783333	1	0.313625
22.800000	1	0.310250
22.816667	1	0.308375
22.833333	1	0.305375
22.850000	1	0.303875
22.866667	1	0.302250
22.883333	1	0.301000
22.900000	1	0.300125
22.916667	1	0.299750
22.933333	1	0.299500
22.950000	1	0.298875
22.966667	1	0.298000
22.983333	1	0.297750
23.000000	1	0.298250
23.016667	1	0.298500
23.033333	1	0.298750
23.050000	1	0.298250
23.066667	1	0.298750
23.083333	1	0.299250
23.100000	1	0.299500
23.116667	1	0.300125
23.133333	1	0.300875
23.150000	1	0.301750
23.166667	1	0.302500
23.183333	1	0.303125
23.200000	1	0.304125
23.216667	1	0.306000
23.233333	1	0.308625
23.250000	1	0.311125
23.266667	1	0.314750
23.283333	1	0.319250
23.300000	1	0.324875
23.316667	1	0.332750
23.333333	1	0.342125
23.350000	1	0.353500
23.366667	1	0.369000
23.383333	1	0.387625
23.400000	1	0.409500
23.416667	1	0.437250
23.433333	1	0.470250
23.450000	1	0.509625
23.466667	1	0.557000
23.483333	1	0.613250
23.500000	1	0.678000
23.516667	1	0.753750
23.533333	1	0.840250
23.550000	1	0.939875
23.566667	1	1.052000
23.583333	1	1.178500
23.600000	1	1.318875
23.616667	1	1.473875
23.633333	1	1.644000
23.650000	1	1.827875
23.666667	1	2.026125
23.683333	1	2.235750
23.700000	1	2.456375
23.716667	1	2.685250
23.733333	1	2.919375
23.750000	1	3.155750
23.766667	1	3.390500
23.783333	1	3.619000
23.800000	1	3.837125
23.816667	1	4.039375
23.833333	1	4.222375
23.850000	1	4.382125
23.866667	1	4.514875
23.883333	1	4.616750
23.900000	1	4.685375
23.916667	1	4.719250
23.933333	1	4.718750
23.950000	1	4.683875
23.966667	1	4.616250
23.983333	1	4.516875
24.000000	1	4.389000
24.016667	1	4.236000
24.033333	1	4.061625
24.050000	1	3.871250
24.066667	1	3.668125
24.083333	1	3.457000
24.100000	1	3.240625
24.116667	1	3.023375
24.133333	1	2.808750
24.150000	1	2.599250
24.166667	1	2.396875
24.183333	1	2.205000
24.200000	1	2.024250
24.216667	1	1.855875
24.233333	1	1.699875
24.250000	1	1.557375
24.266667	1	1.426875
24.283333	1	1.309250
24.300000	1	1.202875
24.316667	1	1.108000
24.333333	1	1.024375
24.350000	1	0.950250
24.366667	1	0.885000
24.383333	1	0.827875
24.400000	1	0.778875
24.416667	1	0.736000
24.433333	1	0.698875
24.450000	1	0.667125
24.466667	1	0.640750
24.483333	1	0.618125
24.500000	1	0.598875
24.516667	1	0.582125
24.533333	1	0.568250
24.550000	1	0.555750
24.566667	1	0.544875
24.583333	1	0.535125
24.600000	1	0.526750
24.616667	1	0.518625
24.633333	1	0.511625
24.650000	1	0.504875
24.666667	1	0.497750
24.683333	1	0.490875
24.700000	1	0.484375
24.716667	1	0.477750
24.733333	1	0.471625
24.750000	1	0.465375
24.766667	1	0.458250
24.783333	1	0.451750
24.800000	1	0.445625
24.816667	1	0.439375
24.833333	1	0.433250
24.850000	1	0.427500
24.866667	1	0.421500
24.883333	1	0.416250
24.900000	1	0.410875
24.916667	1	0.405875
24.933333	1	0.400500
24.950000	1	0.396625
24.966667	1	0.392625
24.983333	1	0.388625
25.000000	1	0.384875
25.016667	1	0.381750
25.033333	1	0.378375
25.050000	1	0.375125
25.066667	1	0.372375
25.083333	1	0.369250
25.100000	1	0.366250
25.116667	1	0.362375
25.133333	1	0.359500
25.150000	1	0.355750
25.166667	1	0.352875
25.183333	1	0.349375
25.200000	1	0.345625
25.216667	1	0.342625
25.233333	1	0.339250
25.250000	1	0.334875
25.266667	1	0.331625
25.283333	1	0.327875
25.300000	1	0.324125
25.316667	1	0.320125
25.333333	1	0.316500
25.350000	1	0.313000
25.366667	1	0.309625
25.383333	1	0.307000
25.400000	1	0.303875
25.416667	1	0.300125
25.433333	1	0.297375
25.450000	1	0.294375
25.466667	1	0.291500
25.483333	1	0.289375
25.500000	1	0.287000
25.516667	1	0.285375
25.533333	1	0.283750
25.550000	1	0.282125
25.566667	1	0.280750
25.583333	1	0.279500
25.600000	1	0.278125
25.616667	1	0.277750
25.633333	1	0.277875
25.650000	1	0.277375
25.666667	1	0.276875
25.683333	1	0.277250
25.700000	1	0.277500
25.716667	1	0.277750
25.733333	1	0.278500
25.750000	1	0.279750
25.766667	1	0.280750
25.783333	1	0.282500
25.800000	1	0.283625
25.816667	1	0.285625
25.833333	1	0.287875
25.850000	1	0.290500
25.866667	1	0.293000
25.883333	1	0.296000
25.900000	1	0.299625
25.916667	1	0.303625
25.933333	1	0.307500
25.950000	1	0.311625
25.966667	1	0.315375
25.983333	1	0.320250
26.000000	1	0.325000
26.016667	1	0.329500
26.033333	1	0.334500
26.050000	1	0.340500
26.066667	1	0.345875
26.083333	1	0.350500
26.100000	1	0.355000
26.116667	1	0.359625
26.133333	1	0.364375
26.150000	1	0.369500
26.166667	1	0.373500
26.183333	1	0.377125
26.200000	1	0.380250
26.216667	1	0.383000
26.233333	1	0.384875
26.250000	1	0.387250
26.266667	1	0.388125
26.283333	1	0.389125
26.300000	1	0.389375
26.316667	1	0.388875
26.333333	1	0.387500
26.350000	1	0.385375
26.366667	1	0.383000
26.383333	1	0.380500
26.400000	1	0.376750
26.416667	1	0.373625
26.433333	1	0.369625
26.450000	1	0.365125
26.466667	1	0.360125
26.483333	1	0.355000
26.500000	1	0.349625
26.516667	1	0.343250
26.533333	1	0.337250
26.550000	1	0.331625
26.566667	1	0.325875
26.583333	1	0.319750
26.600000	1	0.313500
26.616667	1	0.307250
26.633333	1	0.301500
26.650000	1	0.295500
26.666667	1	0.290750
26.683333	1	0.285500
26.700000	1	0.280500
26.716667	1	0.275500
26.733333	1	0.271000
26.750000	1	0.266250
26.766667	1	0.262250
26.783333	1	0.258500
26.800000	1	0.254750
26.816667	1	0.251500
26.833333	1	0.247875
26.850000	1	0.245625
26.866667	1	0.243000
26.883333	1	0.241000
26.900000	1	0.238875
26.916667	1	0.236375
26.933333	1	0.235000
26.950000	1	0.233750
26.966667	1	0.233000
26.983333	1	0.232375
27.000000	1	0.232000
27.016667	1	0.231250
27.033333	1	0.231500
27.050000	1	0.233250
27.066667	1	0.234875
27.083333	1	0.237500
27.100000	1	0.240625
27.116667	1	0.245250
27.133333	1	0.250500
27.150000	1	0.257500
27.166667	1	0.265500
27.183333	1	0.275375
27.200000	1	0.287875
27.216667	1	0.301875
27.233333	1	0.318750
27.250000	1	0.338625
27.266667	1	0.362375
27.283333	1	0.389250
27.300000	1	0.420125
27.316667	1	0.455375
27.333333	1	0.496250
27.350000	1	0.541750
27.366667	1	0.593125
27.383333	1	0.651625
27.400000	1	0.717375
27.416667	1	0.789625
27.433333	1	0.870125
27.450000	1	0.959250
27.466667	1	1.056875
27.483333	1	1.163500
27.500000	1	1.278875
27.516667	1	1.403375
27.533333	1	1.535750
27.550000	1	1.677500
27.566667	1	1.827125
27.583333	1	1.983125
27.600000	1	2.145000
27.616667	1	2.312250
27.633333	1	2.482875
27.650000	1	2.655750
27.666667	1	2.829250
27.683333	1	3.001250
27.700000	1	3.169000
27.716667	1	3.330125
27.733333	1	3.482875
27.750000	1	3.624000
27.766667	1	3.751500
27.783333	1	3.863500
27.800000	1	3.957625
27.816667	1	4.032500
27.833333	1	4.085500
27.850000	1	4.116875
27.866667	1	4.124750
27.883333	1	4.109250
27.900000	1	4.070625
27.916667	1	4.008750
27.933333	1	3.925000
27.950000	1	3.821125
27.966667	1	3.698625
27.983333	1	3.560250
28.000000	1	3.408375
28.016667	1	3.245000
28.033333	1	3.072875
28.050000	1	2.895125
28.066667	1	2.713750
28.083333	1	2.531250
28.100000	1	2.350625
28.116667	1	2.173500
28.133333	1	2.002125
28.150000	1	1.837500
28.166667	1	1.681750
28.183333	1	1.535500
28.200000	1	1.399750
28.216667	1	1.274250
28.233333	1	1.158750
28.250000	1	1.053250
28.266667	1	0.957875
28.283333	1	0.871875
28.300000	1	0.795125
28.316667	1	0.728000
28.333333	1	0.668625
28.350000	1	0.617000
28.366667	1	0.572250
28.383333	1	0.535000
28.400000	1	0.503375
28.416667	1	0.476500
28.433333	1	0.454875
28.450000	1	0.437625
28.466667	1	0.424000
28.483333	1	0.414125
28.500000	1	0.407000
28.516667	1	0.403625
28.533333	1	0.402125
28.550000	1	0.401875
28.566667	1	0.404125
28.583333	1	0.407500
28.600000	1	0.412375
28.616667	1	0.418875
28.633333	1	0.425875
28.650000	1	0.433750
28.666667	1	0.442125
28.683333	1	0.450250
28.700000	1	0.459000
28.716667	1	0.467125
28.733333	1	0.474875
28.750000	1	0.483000
28.766667	1	0.489875
28.783333	1	0.496875
28.800000	1	0.503000
28.816667	1	0.508875
28.833333	1	0.514250
28.850000	1	0.519000
28.866667	1	0.523000
28.883333	1	0.526625
28.900000	1	0.529000
28.916667	1	0.530375
28.933333	1	0.530125
28.950000	1	0.528625
28.966667	1	0.527375
28.983333	1	0.525125
29.000000	1	0.522000
29.016667	1	0.518000
29.033333	1	0.514125
29.050000	1	0.509500
29.066667	1	0.503750
29.083333	1	0.497125
29.100000	1	0.490250
29.116667	1	0.482375
29.133333	1	0.475000
29.150000	1	0.466375
29.166667	1	0.458000
29.183333	1	0.449375
29.200000	1	0.440375
29.216667	1	0.432000
29.233333	1	0.423250
29.250000	1	0.414125
29.266667	1	0.405375
29.283333	1	0.396625
29.300000	1	0.387875
29.316667	1	0.379375
29.333333	1	0.371500
29.350000	1	0.363625
29.366667	1	0.356625
29.383333	1	0.350250
29.400000	1	0.344125
29.416667	1	0.337625
29.433333	1	0.331750
29.450000	1	0.326125
29.466667	1	0.320625
29.483333	1	0.315250
29.500000	1	0.310875
29.516667	1	0.306875
29.533333	1	0.303250
29.550000	1	0.299875
29.566667	1	0.297125
29.583333	1	0.294000
29.600000	1	0.291125
29.616667	1	0.288750
29.633333	1	0.286750
29.650000	1	0.284000
29.666667	1	0.282500
29.683333	1	0.280500
29.700000	1	0.278500
29.716667	1	0.276500
29.733333	1	0.274500
29.750000	1	0.272625
29.766667	1	0.271125
29.783333	1	0.269375
29.800000	1	0.268000
29.816667	1	0.266125
29.833333	1	0.264375
29.850000	1	0.261750
29.866667	1	0.259375
29.883333	1	0.257125
29.900000	1	0.254625
29.916667	1	0.252250
29.933333	1	0.249125
29.950000	1	0.246000
29.966667	1	0.243375
29.983333	1	0.240250
30.000000	1	0.237375
30.016667	1	0.234125
30.033333	1	0.230750
30.050000	1	0.227250
30.066667	1	0.223750
30.083333	1	0.220500
30.100000	1	0.216375
30.116667	1	0.212250
30.133333	1	0.209000
30.150000	1	0.205000
30.166667	1	0.201125
30.183333	1	0.197875
30.200000	1	0.194625
30.216667	1	0.190875
30.233333	1	0.187750
30.250000	1	0.184750
30.266667	1	0.181750
30.283333	1	0.179000
30.300000	1	0.176250
30.316667	1	0.172875
30.333333	1	0.171250
30.350000	1	0.169750
30.366667	1	0.168500
30.383333	1	0.166750
30.400000	1	0.166000
30.416667	1	0.165500
30.433333	1	0.166000
30.450000	1	0.166625
30.466667	1	0.167375
30.483333	1	0.168250
30.500000	1	0.170625
30.516667	1	0.172875
30.533333	1	0.175750
30.550000	1	0.179250
30.566667	1	0.183125
30.583333	1	0.189125
30.600000	1	0.195375
30.616667	1	0.202750
30.633333	1	0.211125
30.650000	1	0.220125
30.666667	1	0.230250
30.683333	1	0.242125
30.700000	1	0.255000
30.716667	1	0.270125
30.733333	1	0.286875
30.750000	1	0.305625
30.766667	1	0.327250
30.783333	1	0.351000
30.800000	1	0.377500
30.816667	1	0.408375
30.833333	1	0.443000
30.850000	1	0.482750
30.866667	1	0.526750
30.883333	1	0.575625
30.900000	1	0.632000
30.916667	1	0.695125
30.933333	1	0.765000
30.950000	1	0.842500
30.966667	1	0.930875
30.983333	1	1.028000
31.000000	1	1.137250
31.016667	1	1.258375
31.033333	1	1.391500
31.050000	1	1.538375
31.066667	1	1.698125
31.083333	1	1.872125
31.100000	1	2.061000
31.116667	1	2.265250
31.133333	1	2.483125
31.150000	1	2.715125
31.166667	1	2.960750
31.183333	1	3.219875
31.200000	1	3.490375
31.216667	1	3.772500
31.233333	1	4.062625
31.250000	1	4.358250
31.266667	1	4.657250
31.283333	1	4.957250
31.300000	1	5.255250
31.316667	1	5.548250
31.333333	1	5.832375
31.350000	1	6.104750
31.366667	1	6.361250
31.383333	1	6.600375
31.400000	1	6.817125
31.416667	1	7.009625
31.433333	1	7.174875
31.450000	1	7.310500
31.466667	1	7.414500
31.483333	1	7.485500
31.500000	1	7.522500
31.516667	1	7.524750
31.533333	1	7.494125
31.550000	1	7.430000
31.566667	1	7.333000
31.583333	1	7.206750
31.600000	1	7.050625
31.616667	1	6.868875
31.633333	1	6.662250
31.650000	1	6.435375
31.666667	1	6.190750
31.683333	1	5.931250
31.700000	1	5.660375
31.716667	1	5.380500
31.733333	1	5.096375
31.750000	1	4.809750
31.766667	1	4.523375
31.783333	1	4.239125
31.800000	1	3.958375
31.816667	1	3.684875
31.833333	1	3.419000
31.850000	1	3.164250
31.866667	1	2.919625
31.883333	1	2.686750
31.900000	1	2.466750
31.916667	1	2.259500
31.933333	1	2.065500
31.950000	1	1.885000
31.966667	1	1.717500
31.983333	1	1.562000
32.000000	1	1.419125
32.016667	1	1.288250
32.033333	1	1.168500
32.050000	1	1.059500
32.066667	1	0.960125
32.083333	1	0.870750
32.100000	1	0.790625
32.116667	1	0.718375
32.133333	1	0.653875
32.150000	1	0.595875
32.166667	1	0.544875
32.183333	1	0.499250
32.200000	1	0.458500
32.216667	1	0.422375
32.233333	1	0.390375
32.250000	1	0.362500
32.266667	1	0.337375
32.283333	1	0.314875
32.300000	1	0.295125
32.316667	1	0.277625
32.333333	1	0.262500
32.350000	1	0.249000
32.366667	1	0.237000
32.383333	1	0.226125
32.400000	1	0.215750
32.416667	1	0.206125
32.433333	1	0.197750
32.450000	1	0.190375
32.466667	1	0.183125
32.483333	1	0.175750
32.500000	1	0.169000
32.516667	1	0.162625
32.533333	1	0.155875
32.550000	1	0.150000
32.566667	1	0.144500
32.583333	1	0.138750
32.600000	1	0.133375
32.616667	1	0.128625
32.633333	1	0.123750
32.650000	1	0.118750
32.666667	1	0.113625
32.683333	1	0.109500
32.700000	1	0.105000
32.716667	1	0.100375
32.733333	1	0.096125
32.750000	1	0.092375
32.766667	1	0.088750
32.783333	1	0.085375
32.800000	1	0.081500
32.816667	1	0.078125
32.833333	1	0.075250
32.850000	1	0.073000
32.866667	1	0.071125
32.883333	1	0.068500
32.900000	1	0.066500
32.916667	1	0.065625
32.933333	1	0.064250
32.950000	1	0.064250
32.966667	1	0.064000
32.983333	1	0.065000
33.000000	1	0.065500
33.016667	1	0.065750
33.033333	1	0.067250
33.050000	1	0.068250
33.066667	1	0.070250
33.083333	1	0.072875
33.100000	1	0.075125
33.116667	1	0.078750
33.133333	1	0.081750
33.150000	1	0.085375
33.166667	1	0.089625
33.183333	1	0.094125
33.200000	1	0.098125
33.216667	1	0.102500
33.233333	1	0.107875
33.250000	1	0.112875
33.266667	1	0.117875
33.283333	1	0.123500
33.300000	1	0.129875
33.316667	1	0.135875
33.333333	1	0.142125
33.350000	1	0.149125
33.366667	1	0.156250
33.383333	1	0.163750
33.400000	1	0.171250
33.416667	1	0.179625
33.433333	1	0.188500
33.450000	1	0.197250
33.466667	1	0.206875
33.483333	1	0.216375
33.500000	1	0.227250
33.516667	1	0.238125
33.533333	1	0.249625
33.550000	1	0.261875
33.566667	1	0.275125
33.583333	1	0.288125
33.600000	1	0.302250
33.616667	1	0.317375
33.633333	1	0.333125
33.650000	1	0.349875
33.666667	1	0.367375
33.683333	1	0.386000
33.700000	1	0.404750
33.716667	1	0.424875
33.733333	1	0.445000
33.750000	1	0.466000
33.766667	1	0.488625
33.783333	1	0.510125
33.800000	1	0.532125
33.816667	1	0.554500
33.833333	1	0.576000
33.850000	1	0.596875
33.866667	1	0.618125
33.883333	1	0.639000
33.900000	1	0.659000
33.916667	1	0.677875
33.933333	1	0.695625
33.950000	1	0.712500
33.966667	1	0.727750
33.983333	1	0.741375
34.000000	1	0.752875
34.016667	1	0.762250
34.033333	1	0.768875
34.050000	1	0.773250
34.066667	1	0.776500
34.083333	1	0.777000
34.100000	1	0.776000
34.116667	1	0.772750
34.133333	1	0.767125
34.150000	1	0.758000
34.166667	1	0.748000
34.183333	1	0.736625
34.200000	1	0.723500
34.216667	1	0.709000
34.233333	1	0.692625
34.250000	1	0.675500
34.266667	1	0.657250
34.283333	1	0.638250
34.300000	1	0.619125
34.316667	1	0.599125
34.333333	1	0.579250
34.350000	1	0.559500
34.366667	1	0.539875
34.383333	1	0.519750
34.400000	1	0.499375
34.416667	1	0.480125
34.433333	1	0.461375
34.450000	1	0.443375
34.466667	1	0.426125
34.483333	1	0.410000
34.500000	1	0.393750
34.516667	1	0.379375
34.533333	1	0.364875
34.550000	1	0.351250
34.566667	1	0.338500
34.583333	1	0.326500
34.600000	1	0.315750
34.616667	1	0.305375
34.633333	1	0.295875
34.650000	1	0.286875
34.666667	1	0.278375
34.683333	1	0.271000
34.700000	1	0.264375
34.716667	1	0.257625
34.733333	1	0.251375
34.750000	1	0.246125
34.766667	1	0.241000
34.783333	1	0.236375
34.800000	1	0.232750
34.816667	1	0.228375
34.833333	1	0.225000
34.850000	1	0.222125
34.866667	1	0.219125
34.883333	1	0.216500
34.900000	1	0.214000
34.916667	1	0.212000
34.933333	1	0.209875
34.950000	1	0.208250
34.966667	1	0.206500
34.983333	1	0.204625
35.000000	1	0.202875
35.016667	1	0.201250
35.033333	1	0.199125
35.050000	1	0.196750
35.066667	1	0.195000
35.083333	1	0.193625
35.100000	1	0.191625
35.116667	1	0.189000
35.133333	1	0.186250
35.150000	1	0.183875
35.166667	1	0.181750
35.183333	1	0.180250
35.200000	1	0.178625
35.216667	1	0.176375
35.233333	1	0.174250
35.250000	1	0.172625
35.266667	1	0.170750
35.283333	1	0.168625
35.300000	1	0.167375
35.316667	1	0.165500
35.333333	1	0.163875
35.350000	1	0.162500
35.366667	1	0.161625
35.383333	1	0.160625
35.400000	1	0.160250
35.416667	1	0.159500
35.433333	1	0.158375
35.450000	1	0.158000
35.466667	1	0.156750
35.483333	1	0.156375
35.500000	1	0.156000
35.516667	1	0.155250
35.533333	1	0.154250
35.550000	1	0.153875
35.566667	1	0.153375
35.583333	1	0.153375
35.600000	1	0.152625
35.616667	1	0.152375
35.633333	1	0.152250
35.650000	1	0.152000
35.666667	1	0.151625
35.683333	1	0.151625
35.700000	1	0.151250
35.716667	1	0.151125
35.733333	1	0.151375
35.750000	1	0.151250
35.766667	1	0.151375
35.783333	1	0.152000
35.800000	1	0.152625
35.816667	1	0.153625
35.833333	1	0.154250
35.850000	1	0.155750
35.866667	1	0.158250
35.883333	1	0.160125
35.900000	1	0.162875
35.916667	1	0.165250
35.933333	1	0.168375
35.950000	1	0.172000
35.966667	1	0.174625
35.983333	1	0.177500
36.000000	1	0.181125
36.016667	1	0.185000
36.033333	1	0.189375
36.050000	1	0.194375
36.066667	1	0.198500
36.083333	1	0.202875
36.100000	1	0.206875
36.116667	1	0.210875
36.133333	1	0.215000
36.150000	1	0.219250
36.166667	1	0.222750
36.183333	1	0.226375
36.200000	1	0.229875
36.216667	1	0.232750
36.233333	1	0.235250
36.250000	1	0.237750
36.266667	1	0.240125
36.283333	1	0.241375
36.300000	1	0.242375
36.316667	1	0.242375
36.333333	1	0.242250
36.350000	1	0.241000
36.366667	1	0.240125
36.383333	1	0.238375
36.400000	1	0.236250
36.416667	1	0.232750
36.433333	1	0.229250
36.450000	1	0.225500
36.466667	1	0.221250
36.483333	1	0.216625
36.500000	1	0.211000
36.516667	1	0.205250
36.533333	1	0.199750
36.550000	1	0.193375
36.566667	1	0.187500
36.583333	1	0.180375
36.600000	1	0.173125
36.616667	1	0.166500
36.633333	1	0.159875
36.650000	1	0.152750
36.666667	1	0.146125
36.683333	1	0.140250
36.700000	1	0.133875
36.716667	1	0.127125
36.733333	1	0.121250
36.750000	1	0.114625
36.766667	1	0.108625
36.783333	1	0.103250
36.800000	1	0.098375
36.816667	1	0.093750
36.833333	1	0.089250
36.850000	1	0.085125
36.866667	1	0.081000
36.883333	1	0.077500
36.900000	1	0.074875
36.916667	1	0.072750
36.933333	1	0.071625
36.950000	1	0.070375
36.966667	1	0.069375
36.983333	1	0.068625
37.000000	1	0.068375
37.016667	1	0.068000
37.033333	1	0.068250
37.050000	1	0.069250
37.066667	1	0.070875
37.083333	1	0.072000
37.100000	1	0.074000
37.116667	1	0.076125
37.133333	1	0.078125
37.150000	1	0.080625
37.166667	1	0.083125
37.183333	1	0.085875
37.200000	1	0.088625
37.216667	1	0.090875
37.233333	1	0.093375
37.250000	1	0.096625
37.266667	1	0.100000
37.283333	1	0.102500
37.300000	1	0.105375
37.316667	1	0.108500
37.333333	1	0.111000
37.350000	1	0.113875
37.366667	1	0.115875
37.383333	1	0.118375
37.400000	1	0.120250
37.416667	1	0.121125
37.433333	1	0.122625
37.450000	1	0.123875
37.466667	1	0.124875
37.483333	1	0.125750
37.500000	1	0.126625
37.516667	1	0.128125
37.533333	1	0.129250
37.550000	1	0.129750
37.566667	1	0.130750
37.583333	1	0.131500
37.600000	1	0.131875
37.616667	1	0.131625
37.633333	1	0.131000
37.650000	1	0.131125
37.666667	1	0.130625
37.683333	1	0.129875
37.700000	1	0.129625
37.716667	1	0.129500
37.733333	1	0.129250
37.750000	1	0.128625
37.766667	1	0.128250
37.783333	1	0.127625
37.800000	1	0.127250
37.816667	1	0.126750
37.833333	1	0.125625
37.850000	1	0.125000
37.866667	1	0.124875
37.883333	1	0.124750
37.900000	1	0.124375
37.916667	1	0.124750
37.933333	1	0.124750
37.950000	1	0.124625
37.966667	1	0.124500
37.983333	1	0.124750
38.000000	1	0.125375
38.016667	1	0.125375
38.033333	1	0.125375
38.050000	1	0.125750
38.066667	1	0.126500
38.083333	1	0.127750
38.100000	1	0.128875
38.116667	1	0.129250
38.133333	1	0.129625
38.150000	1	0.130625
38.166667	1	0.131625
38.183333	1	0.133125
38.200000	1	0.134250
38.216667	1	0.136000
38.233333	1	0.137375
38.250000	1	0.138375
38.266667	1	0.139625
38.283333	1	0.141125
38.300000	1	0.142250
38.316667	1	0.143750
38.333333	1	0.145500
38.350000	1	0.146875
38.366667	1	0.148375
38.383333	1	0.149750
38.400000	1	0.150750
38.416667	1	0.152625
38.433333	1	0.154000
38.450000	1	0.154875
38.466667	1	0.155625
38.483333	1	0.156250
38.500000	1	0.157500
38.516667	1	0.158250
38.533333	1	0.158375
38.550000	1	0.158250
38.566667	1	0.158125
38.583333	1	0.157375
38.600000	1	0.156250
38.616667	1	0.155000
38.633333	1	0.153750
38.650000	1	0.152000
38.666667	1	0.150125
38.683333	1	0.147375
38.700000	1	0.144750
38.716667	1	0.142125
38.733333	1	0.138625
38.750000	1	0.135250
38.766667	1	0.131875
38.783333	1	0.127875
38.800000	1	0.123875
38.816667	1	0.120000
38.833333	1	0.115250
38.850000	1	0.112000
38.866667	1	0.108625
38.883333	1	0.104875
38.900000	1	0.100875
38.916667	1	0.097625
38.933333	1	0.094125
38.950000	1	0.090375
38.966667	1	0.087250
38.983333	1	0.083875
39.000000	1	0.081500
39.016667	1	0.079750
39.033333	1	0.077750
39.050000	1	0.075750
39.066667	1	0.073375
39.083333	1	0.071750
39.100000	1	0.070375
39.116667	1	0.069375
39.133333	1	0.068000
39.150000	1	0.066500
39.166667	1	0.065500
39.183333	1	0.064750
39.200000	1	0.063625
39.216667	1	0.063750
39.233333	1	0.063625
39.250000	1	0.063500
39.266667	1	0.063375
39.283333	1	0.063500
39.300000	1	0.063000
39.316667	1	0.063000
39.333333	1	0.063125
39.350000	1	0.063250
39.366667	1	0.064375
39.383333	1	0.064625
39.400000	1	0.064625
39.416667	1	0.065000
39.433333	1	0.065375
39.450000	1	0.065625
39.466667	1	0.065875
39.483333	1	0.066000
39.500000	1	0.065750
39.516667	1	0.065500
39.533333	1	0.065625
39.550000	1	0.066375
39.566667	1	0.066875
39.583333	1	0.067125
39.600000	1	0.067750
39.616667	1	0.067500
39.633333	1	0.068125
39.650000	1	0.068625
39.666667	1	0.069625
39.683333	1	0.070875
39.700000	1	0.071500
39.716667	1	0.072000
39.733333	1	0.073000
39.750000	1	0.073375
39.766667	1	0.074000
39.783333	1	0.075125
39.800000	1	0.076375
39.816667	1	0.077125
39.833333	1	0.078125
39.850000	1	0.079625
39.866667	1	0.080875
39.883333	1	0.082750
39.900000	1	0.084250
39.916667	1	0.086125
39.933333	1	0.087375
39.950000	1	0.089000
39.966667	1	0.090750
39.983333	1	0.092375
40.000000	1	0.094375
