URL	chrom://bioreactor/micro_cm7/HPLC_Ultimate_3000/Users/markusar/20240716_MA_pHrange2.seq/439.smp/RI_1.channel/RI_1.chm
Channel	RI_1

Injection Information:
Data Vault	micro_cm7
Sequence	20240716_MA_pHrange2
Name	Fp3_25H_2
Number	41
Position	BD5
Comment	
Processing Method	
Instrument Method	run_25B_method
Type	Unknown
Status	Finished
Inject Time	17.07.2024 21:25:16 +02:00
Volume (µl)	20.0000
Dilution Factor	1.0000
Weight	1.0000

Chromatogram Data Information:
Time Min. (min)	0.000000
Time Max. (min)	40.000000
Data Points	2401
Detector	RI
Generating Data System	Chromeleon 7.3.2.11814
Exporting Data System	Chromeleon 7.3.2.0
Operator	Instrument Controller
Signal Quantity	Refractive 
Signal Unit	µRIU
Signal Min.	-0.109375
Signal Max.	83.599000
Channel	RI_1
Driver Name	RID520Driver.dll
Channel Type	Evaluation
Min. Step (s)	1
Max. Step (s)	1
Average Step (s)	1

Signal Parameter Information:
Signal Info	

Chromatogram Data:
Time (min)	Step (s)	Value (µRIU)
0.000000	n.a.	-0.006000
0.016667	1	-0.006375
0.033333	1	-0.006375
0.050000	1	-0.005250
0.066667	1	-0.004375
0.083333	1	-0.003750
0.100000	1	-0.003000
0.116667	1	-0.002750
0.133333	1	-0.002000
0.150000	1	-0.001375
0.166667	1	-0.000875
0.183333	1	-0.000375
0.200000	1	0.000500
0.216667	1	0.001500
0.233333	1	0.002375
0.250000	1	0.001875
0.266667	1	0.001750
0.283333	1	0.002875
0.300000	1	0.003500
0.316667	1	0.003625
0.333333	1	0.004125
0.350000	1	0.004500
0.366667	1	0.004875
0.383333	1	0.004500
0.400000	1	0.003625
0.416667	1	0.004250
0.433333	1	0.005250
0.450000	1	0.007125
0.466667	1	0.008750
0.483333	1	0.011000
0.500000	1	0.012375
0.516667	1	0.013750
0.533333	1	0.014500
0.550000	1	0.014375
0.566667	1	0.013000
0.583333	1	0.011375
0.600000	1	0.010125
0.616667	1	0.008375
0.633333	1	0.007625
0.650000	1	0.006625
0.666667	1	0.005625
0.683333	1	0.005625
0.700000	1	0.005750
0.716667	1	0.004625
0.733333	1	0.004125
0.750000	1	0.003250
0.766667	1	0.003000
0.783333	1	0.002000
0.800000	1	0.001250
0.816667	1	0.000375
0.833333	1	0.000000
0.850000	1	-0.000250
0.866667	1	-0.001375
0.883333	1	-0.002375
0.900000	1	-0.002500
0.916667	1	-0.003375
0.933333	1	-0.003875
0.950000	1	-0.005250
0.966667	1	-0.006625
0.983333	1	-0.007125
1.000000	1	-0.008625
1.016667	1	-0.009625
1.033333	1	-0.010500
1.050000	1	-0.011000
1.066667	1	-0.011625
1.083333	1	-0.012250
1.100000	1	-0.013125
1.116667	1	-0.013250
1.133333	1	-0.013500
1.150000	1	-0.014125
1.166667	1	-0.014750
1.183333	1	-0.015000
1.200000	1	-0.015250
1.216667	1	-0.015500
1.233333	1	-0.015500
1.250000	1	-0.015250
1.266667	1	-0.015625
1.283333	1	-0.015625
1.300000	1	-0.015375
1.316667	1	-0.015250
1.333333	1	-0.015625
1.350000	1	-0.015500
1.366667	1	-0.015625
1.383333	1	-0.016125
1.400000	1	-0.016750
1.416667	1	-0.016375
1.433333	1	-0.016000
1.450000	1	-0.016625
1.466667	1	-0.016875
1.483333	1	-0.016875
1.500000	1	-0.017125
1.516667	1	-0.017375
1.533333	1	-0.017875
1.550000	1	-0.018750
1.566667	1	-0.019750
1.583333	1	-0.020625
1.600000	1	-0.021375
1.616667	1	-0.022000
1.633333	1	-0.022250
1.650000	1	-0.023125
1.666667	1	-0.024125
1.683333	1	-0.024875
1.700000	1	-0.025500
1.716667	1	-0.027125
1.733333	1	-0.028000
1.750000	1	-0.029375
1.766667	1	-0.031000
1.783333	1	-0.032125
1.800000	1	-0.033000
1.816667	1	-0.034625
1.833333	1	-0.035875
1.850000	1	-0.036750
1.866667	1	-0.037500
1.883333	1	-0.038000
1.900000	1	-0.038750
1.916667	1	-0.040000
1.933333	1	-0.040875
1.950000	1	-0.042375
1.966667	1	-0.042625
1.983333	1	-0.042625
2.000000	1	-0.043250
2.016667	1	-0.043250
2.033333	1	-0.043250
2.050000	1	-0.043625
2.066667	1	-0.044000
2.083333	1	-0.043875
2.100000	1	-0.043750
2.116667	1	-0.043500
2.133333	1	-0.042750
2.150000	1	-0.042500
2.166667	1	-0.042375
2.183333	1	-0.042000
2.200000	1	-0.041125
2.216667	1	-0.040375
2.233333	1	-0.039500
2.250000	1	-0.038250
2.266667	1	-0.037500
2.283333	1	-0.036625
2.300000	1	-0.036000
2.316667	1	-0.035250
2.333333	1	-0.034875
2.350000	1	-0.034625
2.366667	1	-0.034500
2.383333	1	-0.033500
2.400000	1	-0.033375
2.416667	1	-0.033250
2.433333	1	-0.032750
2.450000	1	-0.032875
2.466667	1	-0.032500
2.483333	1	-0.033000
2.500000	1	-0.033250
2.516667	1	-0.032875
2.533333	1	-0.033625
2.550000	1	-0.033625
2.566667	1	-0.034625
2.583333	1	-0.034500
2.600000	1	-0.034875
2.616667	1	-0.034750
2.633333	1	-0.035375
2.650000	1	-0.035375
2.666667	1	-0.035000
2.683333	1	-0.034750
2.700000	1	-0.035250
2.716667	1	-0.035250
2.733333	1	-0.035500
2.750000	1	-0.035875
2.766667	1	-0.035375
2.783333	1	-0.034625
2.800000	1	-0.034250
2.816667	1	-0.034000
2.833333	1	-0.032750
2.850000	1	-0.032125
2.866667	1	-0.030875
2.883333	1	-0.030125
2.900000	1	-0.028750
2.916667	1	-0.028375
2.933333	1	-0.027375
2.950000	1	-0.025875
2.966667	1	-0.024250
2.983333	1	-0.022625
3.000000	1	-0.021500
3.016667	1	-0.020000
3.033333	1	-0.018375
3.050000	1	-0.017000
3.066667	1	-0.015750
3.083333	1	-0.013625
3.100000	1	-0.011750
3.116667	1	-0.009875
3.133333	1	-0.008000
3.150000	1	-0.006125
3.166667	1	-0.004875
3.183333	1	-0.003375
3.200000	1	-0.001500
3.216667	1	0.000125
3.233333	1	0.001500
3.250000	1	0.003500
3.266667	1	0.004625
3.283333	1	0.005750
3.300000	1	0.007125
3.316667	1	0.008750
3.333333	1	0.010125
3.350000	1	0.011625
3.366667	1	0.013000
3.383333	1	0.013750
3.400000	1	0.014750
3.416667	1	0.015750
3.433333	1	0.016750
3.450000	1	0.017500
3.466667	1	0.018875
3.483333	1	0.019625
3.500000	1	0.019375
3.516667	1	0.019500
3.533333	1	0.020625
3.550000	1	0.022500
3.566667	1	0.023250
3.583333	1	0.024125
3.600000	1	0.024500
3.616667	1	0.025000
3.633333	1	0.025750
3.650000	1	0.026250
3.666667	1	0.026875
3.683333	1	0.027625
3.700000	1	0.028875
3.716667	1	0.030000
3.733333	1	0.030375
3.750000	1	0.031125
3.766667	1	0.032250
3.783333	1	0.032875
3.800000	1	0.033500
3.816667	1	0.034250
3.833333	1	0.034000
3.850000	1	0.033875
3.866667	1	0.034375
3.883333	1	0.034625
3.900000	1	0.034375
3.916667	1	0.034750
3.933333	1	0.034750
3.950000	1	0.033125
3.966667	1	0.032625
3.983333	1	0.031750
4.000000	1	0.030375
4.016667	1	0.028750
4.033333	1	0.027000
4.050000	1	0.025000
4.066667	1	0.023000
4.083333	1	0.020500
4.100000	1	0.018000
4.116667	1	0.015625
4.133333	1	0.013375
4.150000	1	0.010625
4.166667	1	0.007375
4.183333	1	0.004875
4.200000	1	0.002750
4.216667	1	-0.000375
4.233333	1	-0.002625
4.250000	1	-0.004875
4.266667	1	-0.006875
4.283333	1	-0.008750
4.300000	1	-0.010625
4.316667	1	-0.011750
4.333333	1	-0.012375
4.350000	1	-0.013375
4.366667	1	-0.013250
4.383333	1	-0.012750
4.400000	1	-0.011625
4.416667	1	-0.010000
4.433333	1	-0.008875
4.450000	1	-0.006250
4.466667	1	-0.004000
4.483333	1	-0.001125
4.500000	1	0.002000
4.516667	1	0.005625
4.533333	1	0.009750
4.550000	1	0.014125
4.566667	1	0.019000
4.583333	1	0.024375
4.600000	1	0.030375
4.616667	1	0.036125
4.633333	1	0.041750
4.650000	1	0.047125
4.666667	1	0.052750
4.683333	1	0.058875
4.700000	1	0.065125
4.716667	1	0.072000
4.733333	1	0.078125
4.750000	1	0.084000
4.766667	1	0.089875
4.783333	1	0.096500
4.800000	1	0.102250
4.816667	1	0.108000
4.833333	1	0.114000
4.850000	1	0.120250
4.866667	1	0.126125
4.883333	1	0.131625
4.900000	1	0.136750
4.916667	1	0.142625
4.933333	1	0.147500
4.950000	1	0.152500
4.966667	1	0.157750
4.983333	1	0.163125
5.000000	1	0.168000
5.016667	1	0.172875
5.033333	1	0.177750
5.050000	1	0.182250
5.066667	1	0.185750
5.083333	1	0.189375
5.100000	1	0.193750
5.116667	1	0.197500
5.133333	1	0.201000
5.150000	1	0.204125
5.166667	1	0.207375
5.183333	1	0.210250
5.200000	1	0.212875
5.216667	1	0.215750
5.233333	1	0.217750
5.250000	1	0.219375
5.266667	1	0.221375
5.283333	1	0.222875
5.300000	1	0.224250
5.316667	1	0.225250
5.333333	1	0.226500
5.350000	1	0.227125
5.366667	1	0.227125
5.383333	1	0.226875
5.400000	1	0.226625
5.416667	1	0.226000
5.433333	1	0.224750
5.450000	1	0.223750
5.466667	1	0.221625
5.483333	1	0.219750
5.500000	1	0.217125
5.516667	1	0.214750
5.533333	1	0.211250
5.550000	1	0.207875
5.566667	1	0.204625
5.583333	1	0.201375
5.600000	1	0.197625
5.616667	1	0.193375
5.633333	1	0.189500
5.650000	1	0.185250
5.666667	1	0.181125
5.683333	1	0.176750
5.700000	1	0.172125
5.716667	1	0.167250
5.733333	1	0.162125
5.750000	1	0.157500
5.766667	1	0.153250
5.783333	1	0.149000
5.800000	1	0.145125
5.816667	1	0.140000
5.833333	1	0.135375
5.850000	1	0.131375
5.866667	1	0.126375
5.883333	1	0.122000
5.900000	1	0.117750
5.916667	1	0.113625
5.933333	1	0.109875
5.950000	1	0.106375
5.966667	1	0.102750
5.983333	1	0.098875
6.000000	1	0.095500
6.016667	1	0.092125
6.033333	1	0.088625
6.050000	1	0.085250
6.066667	1	0.081875
6.083333	1	0.078625
6.100000	1	0.075375
6.116667	1	0.072125
6.133333	1	0.069125
6.150000	1	0.066375
6.166667	1	0.064125
6.183333	1	0.062000
6.200000	1	0.059250
6.216667	1	0.056250
6.233333	1	0.053625
6.250000	1	0.051500
6.266667	1	0.049750
6.283333	1	0.047500
6.300000	1	0.045500
6.316667	1	0.043750
6.333333	1	0.042000
6.350000	1	0.040250
6.366667	1	0.038625
6.383333	1	0.037250
6.400000	1	0.036375
6.416667	1	0.035250
6.433333	1	0.033625
6.450000	1	0.033000
6.466667	1	0.032375
6.483333	1	0.032500
6.500000	1	0.032250
6.516667	1	0.031750
6.533333	1	0.032500
6.550000	1	0.032625
6.566667	1	0.033375
6.583333	1	0.034500
6.600000	1	0.034875
6.616667	1	0.035750
6.633333	1	0.036500
6.650000	1	0.037875
6.666667	1	0.039250
6.683333	1	0.040625
6.700000	1	0.042625
6.716667	1	0.044625
6.733333	1	0.046750
6.750000	1	0.048875
6.766667	1	0.051125
6.783333	1	0.053625
6.800000	1	0.055875
6.816667	1	0.058250
6.833333	1	0.060250
6.850000	1	0.062375
6.866667	1	0.064875
6.883333	1	0.067375
6.900000	1	0.069875
6.916667	1	0.072500
6.933333	1	0.074875
6.950000	1	0.077750
6.966667	1	0.079875
6.983333	1	0.082000
7.000000	1	0.084125
7.016667	1	0.085625
7.033333	1	0.087500
7.050000	1	0.089875
7.066667	1	0.091375
7.083333	1	0.093125
7.100000	1	0.094375
7.116667	1	0.095625
7.133333	1	0.097375
7.150000	1	0.098000
7.166667	1	0.098500
7.183333	1	0.098875
7.200000	1	0.098750
7.216667	1	0.098125
7.233333	1	0.098250
7.250000	1	0.097750
7.266667	1	0.096875
7.283333	1	0.095750
7.300000	1	0.095000
7.316667	1	0.094625
7.333333	1	0.092750
7.350000	1	0.090750
7.366667	1	0.088625
7.383333	1	0.086625
7.400000	1	0.084125
7.416667	1	0.081750
7.433333	1	0.078625
7.450000	1	0.076125
7.466667	1	0.073250
7.483333	1	0.070000
7.500000	1	0.067750
7.516667	1	0.064250
7.533333	1	0.060625
7.550000	1	0.057750
7.566667	1	0.053875
7.583333	1	0.050875
7.600000	1	0.047875
7.616667	1	0.043375
7.633333	1	0.039375
7.650000	1	0.036375
7.666667	1	0.032750
7.683333	1	0.030375
7.700000	1	0.026875
7.716667	1	0.023500
7.733333	1	0.019750
7.750000	1	0.017000
7.766667	1	0.013875
7.783333	1	0.011250
7.800000	1	0.008625
7.816667	1	0.005625
7.833333	1	0.003500
7.850000	1	0.000875
7.866667	1	-0.001125
7.883333	1	-0.003500
7.900000	1	-0.005250
7.916667	1	-0.007750
7.933333	1	-0.010250
7.950000	1	-0.011500
7.966667	1	-0.013125
7.983333	1	-0.014750
8.000000	1	-0.016500
8.016667	1	-0.018375
8.033333	1	-0.020625
8.050000	1	-0.022000
8.066667	1	-0.023500
8.083333	1	-0.024500
8.100000	1	-0.026125
8.116667	1	-0.027375
8.133333	1	-0.028625
8.150000	1	-0.029625
8.166667	1	-0.031000
8.183333	1	-0.032000
8.200000	1	-0.033625
8.216667	1	-0.034625
8.233333	1	-0.036125
8.250000	1	-0.036625
8.266667	1	-0.038125
8.283333	1	-0.039375
8.300000	1	-0.040375
8.316667	1	-0.040625
8.333333	1	-0.041250
8.350000	1	-0.042250
8.366667	1	-0.042375
8.383333	1	-0.043125
8.400000	1	-0.043625
8.416667	1	-0.044000
8.433333	1	-0.043500
8.450000	1	-0.044250
8.466667	1	-0.043750
8.483333	1	-0.043500
8.500000	1	-0.042625
8.516667	1	-0.042875
8.533333	1	-0.042125
8.550000	1	-0.041625
8.566667	1	-0.041250
8.583333	1	-0.040375
8.600000	1	-0.039250
8.616667	1	-0.038750
8.633333	1	-0.037750
8.650000	1	-0.037000
8.666667	1	-0.035750
8.683333	1	-0.034375
8.700000	1	-0.033625
8.716667	1	-0.032625
8.733333	1	-0.031875
8.750000	1	-0.030500
8.766667	1	-0.029000
8.783333	1	-0.028125
8.800000	1	-0.027500
8.816667	1	-0.026500
8.833333	1	-0.025375
8.850000	1	-0.024750
8.866667	1	-0.024625
8.883333	1	-0.024250
8.900000	1	-0.023000
8.916667	1	-0.022250
8.933333	1	-0.022125
8.950000	1	-0.022000
8.966667	1	-0.022625
8.983333	1	-0.022375
9.000000	1	-0.022375
9.016667	1	-0.022625
9.033333	1	-0.023375
9.050000	1	-0.023500
9.066667	1	-0.024500
9.083333	1	-0.024750
9.100000	1	-0.025625
9.116667	1	-0.027000
9.133333	1	-0.028500
9.150000	1	-0.029625
9.166667	1	-0.030250
9.183333	1	-0.031125
9.200000	1	-0.032250
9.216667	1	-0.034000
9.233333	1	-0.035875
9.250000	1	-0.037500
9.266667	1	-0.038750
9.283333	1	-0.040500
9.300000	1	-0.041875
9.316667	1	-0.044125
9.333333	1	-0.046125
9.350000	1	-0.047625
9.366667	1	-0.049750
9.383333	1	-0.050625
9.400000	1	-0.052375
9.416667	1	-0.054625
9.433333	1	-0.056500
9.450000	1	-0.058500
9.466667	1	-0.059875
9.483333	1	-0.061125
9.500000	1	-0.063750
9.516667	1	-0.065625
9.533333	1	-0.067750
9.550000	1	-0.070000
9.566667	1	-0.071875
9.583333	1	-0.074125
9.600000	1	-0.075750
9.616667	1	-0.078000
9.633333	1	-0.079875
9.650000	1	-0.082250
9.666667	1	-0.084375
9.683333	1	-0.086375
9.700000	1	-0.088500
9.716667	1	-0.090500
9.733333	1	-0.092625
9.750000	1	-0.094500
9.766667	1	-0.096375
9.783333	1	-0.097875
9.800000	1	-0.099125
9.816667	1	-0.100000
9.833333	1	-0.101500
9.850000	1	-0.102250
9.866667	1	-0.102875
9.883333	1	-0.104500
9.900000	1	-0.105375
9.916667	1	-0.105750
9.933333	1	-0.106375
9.950000	1	-0.106000
9.966667	1	-0.106375
9.983333	1	-0.106125
10.000000	1	-0.105250
10.016667	1	-0.105000
10.033333	1	-0.103750
10.050000	1	-0.102250
10.066667	1	-0.100125
10.083333	1	-0.097625
10.100000	1	-0.094250
10.116667	1	-0.089875
10.133333	1	-0.085375
10.150000	1	-0.079750
10.166667	1	-0.073500
10.183333	1	-0.066625
10.200000	1	-0.058375
10.216667	1	-0.049625
10.233333	1	-0.039750
10.250000	1	-0.028125
10.266667	1	-0.015000
10.283333	1	-0.000375
10.300000	1	0.016375
10.316667	1	0.034000
10.333333	1	0.052375
10.350000	1	0.072000
10.366667	1	0.088875
10.383333	1	0.100250
10.400000	1	0.102375
10.416667	1	0.091375
10.433333	1	0.063625
10.450000	1	0.020000
10.466667	1	-0.033875
10.483333	1	-0.085500
10.500000	1	-0.109375
10.516667	1	-0.073500
10.533333	1	0.067125
10.550000	1	0.365500
10.566667	1	0.880750
10.583333	1	1.672375
10.600000	1	2.796125
10.616667	1	4.302750
10.633333	1	6.231125
10.650000	1	8.607250
10.666667	1	11.451625
10.683333	1	14.770875
10.700000	1	18.563125
10.716667	1	22.811625
10.733333	1	27.492750
10.750000	1	32.569500
10.766667	1	37.991625
10.783333	1	43.707875
10.800000	1	49.648625
10.816667	1	55.719000
10.833333	1	61.785750
10.850000	1	67.664000
10.866667	1	73.087000
10.883333	1	77.668875
10.900000	1	80.903000
10.916667	1	82.220875
10.933333	1	81.122375
10.950000	1	77.375625
10.966667	1	71.168625
10.983333	1	63.118500
11.000000	1	54.108000
11.016667	1	45.037250
11.033333	1	36.612125
11.050000	1	29.243000
11.066667	1	23.076875
11.083333	1	18.086375
11.100000	1	14.146375
11.116667	1	11.095000
11.133333	1	8.765125
11.150000	1	7.004000
11.166667	1	5.681000
11.183333	1	4.689750
11.200000	1	3.946375
11.216667	1	3.386000
11.233333	1	2.959500
11.250000	1	2.632375
11.266667	1	2.378000
11.283333	1	2.176875
11.300000	1	2.015625
11.316667	1	1.883500
11.333333	1	1.773000
11.350000	1	1.677875
11.366667	1	1.594875
11.383333	1	1.520875
11.400000	1	1.456250
11.416667	1	1.397625
11.433333	1	1.345500
11.450000	1	1.298375
11.466667	1	1.256375
11.483333	1	1.219375
11.500000	1	1.188000
11.516667	1	1.161125
11.533333	1	1.138750
11.550000	1	1.120625
11.566667	1	1.107500
11.583333	1	1.099000
11.600000	1	1.094500
11.616667	1	1.094625
11.633333	1	1.099500
11.650000	1	1.108625
11.666667	1	1.122375
11.683333	1	1.140625
11.700000	1	1.161750
11.716667	1	1.185750
11.733333	1	1.211375
11.750000	1	1.237375
11.766667	1	1.262125
11.783333	1	1.283125
11.800000	1	1.301000
11.816667	1	1.313750
11.833333	1	1.320125
11.850000	1	1.320625
11.866667	1	1.314750
11.883333	1	1.303875
11.900000	1	1.287500
11.916667	1	1.267750
11.933333	1	1.245375
11.950000	1	1.221125
11.966667	1	1.195375
11.983333	1	1.169875
12.000000	1	1.146125
12.016667	1	1.122375
12.033333	1	1.101375
12.050000	1	1.082500
12.066667	1	1.065500
12.083333	1	1.050750
12.100000	1	1.037625
12.116667	1	1.026625
12.133333	1	1.017375
12.150000	1	1.010250
12.166667	1	1.004500
12.183333	1	1.000750
12.200000	1	0.997625
12.216667	1	0.996875
12.233333	1	0.997875
12.250000	1	1.001625
12.266667	1	1.009250
12.283333	1	1.021500
12.300000	1	1.040375
12.316667	1	1.068625
12.333333	1	1.110625
12.350000	1	1.170625
12.366667	1	1.257500
12.383333	1	1.381500
12.400000	1	1.555750
12.416667	1	1.797750
12.433333	1	2.132875
12.450000	1	2.589875
12.466667	1	3.206375
12.483333	1	4.029875
12.500000	1	5.113625
12.516667	1	6.520875
12.533333	1	8.318250
12.550000	1	10.577500
12.566667	1	13.369500
12.583333	1	16.755250
12.600000	1	20.778000
12.616667	1	25.449625
12.633333	1	30.754750
12.650000	1	36.634250
12.666667	1	42.979125
12.683333	1	49.618750
12.700000	1	56.333875
12.716667	1	62.863625
12.733333	1	68.925750
12.750000	1	74.233375
12.766667	1	78.525625
12.783333	1	81.593000
12.800000	1	83.299625
12.816667	1	83.596125
12.833333	1	82.520750
12.850000	1	80.192625
12.866667	1	76.804375
12.883333	1	72.602000
12.900000	1	67.857625
12.916667	1	62.846375
12.933333	1	57.821000
12.950000	1	52.997125
12.966667	1	48.536500
12.983333	1	44.551875
13.000000	1	41.106625
13.016667	1	38.222625
13.033333	1	35.887375
13.050000	1	34.064250
13.066667	1	32.706500
13.083333	1	31.761250
13.100000	1	31.172875
13.116667	1	30.888750
13.133333	1	30.858625
13.150000	1	31.040000
13.166667	1	31.395000
13.183333	1	31.892625
13.200000	1	32.506625
13.216667	1	33.216250
13.233333	1	34.007000
13.250000	1	34.865375
13.266667	1	35.782125
13.283333	1	36.749000
13.300000	1	37.759625
13.316667	1	38.809875
13.333333	1	39.896750
13.350000	1	41.017000
13.366667	1	42.169500
13.383333	1	43.352750
13.400000	1	44.564500
13.416667	1	45.804875
13.433333	1	47.074375
13.450000	1	48.375250
13.466667	1	49.707125
13.483333	1	51.069625
13.500000	1	52.463625
13.516667	1	53.887375
13.533333	1	55.340000
13.550000	1	56.825000
13.566667	1	58.340125
13.583333	1	59.887125
13.600000	1	61.463125
13.616667	1	63.072875
13.633333	1	64.716375
13.650000	1	66.396875
13.666667	1	68.113125
13.683333	1	69.865625
13.700000	1	71.655875
13.716667	1	73.483125
13.733333	1	75.344875
13.750000	1	77.234875
13.766667	1	79.115375
13.783333	1	80.887750
13.800000	1	82.373750
13.816667	1	83.346250
13.833333	1	83.599000
13.850000	1	82.990875
13.866667	1	81.432625
13.883333	1	78.816125
13.900000	1	74.963750
13.916667	1	69.676125
13.933333	1	62.877000
13.950000	1	54.806250
13.966667	1	46.091750
13.983333	1	37.570875
14.000000	1	29.953500
14.016667	1	23.612375
14.033333	1	18.586750
14.050000	1	14.718875
14.066667	1	11.790625
14.083333	1	9.596500
14.100000	1	7.966750
14.116667	1	6.764000
14.133333	1	5.879500
14.150000	1	5.227875
14.166667	1	4.744500
14.183333	1	4.379250
14.200000	1	4.099875
14.216667	1	3.881250
14.233333	1	3.705375
14.250000	1	3.561250
14.266667	1	3.439125
14.283333	1	3.334375
14.300000	1	3.243250
14.316667	1	3.162000
14.333333	1	3.089125
14.350000	1	3.023125
14.366667	1	2.962500
14.383333	1	2.906750
14.400000	1	2.855500
14.416667	1	2.807875
14.433333	1	2.764000
14.450000	1	2.723000
14.466667	1	2.685125
14.483333	1	2.650625
14.500000	1	2.618375
14.516667	1	2.587875
14.533333	1	2.559125
14.550000	1	2.531750
14.566667	1	2.506125
14.583333	1	2.480625
14.600000	1	2.455750
14.616667	1	2.430750
14.633333	1	2.406125
14.650000	1	2.380500
14.666667	1	2.355500
14.683333	1	2.329375
14.700000	1	2.301625
14.716667	1	2.274625
14.733333	1	2.247000
14.750000	1	2.218875
14.766667	1	2.189750
14.783333	1	2.160500
14.800000	1	2.132000
14.816667	1	2.102750
14.833333	1	2.073375
14.850000	1	2.044750
14.866667	1	2.016125
14.883333	1	1.988125
14.900000	1	1.959625
14.916667	1	1.932000
14.933333	1	1.904750
14.950000	1	1.877750
14.966667	1	1.851250
14.983333	1	1.825500
15.000000	1	1.800250
15.016667	1	1.775125
15.033333	1	1.750125
15.050000	1	1.725625
15.066667	1	1.701875
15.083333	1	1.678875
15.100000	1	1.657375
15.116667	1	1.635625
15.133333	1	1.615250
15.150000	1	1.595500
15.166667	1	1.577500
15.183333	1	1.560625
15.200000	1	1.544750
15.216667	1	1.530250
15.233333	1	1.516875
15.250000	1	1.504750
15.266667	1	1.495125
15.283333	1	1.487125
15.300000	1	1.481125
15.316667	1	1.477000
15.333333	1	1.476125
15.350000	1	1.478125
15.366667	1	1.483750
15.383333	1	1.493375
15.400000	1	1.506750
15.416667	1	1.524250
15.433333	1	1.545000
15.450000	1	1.569375
15.466667	1	1.596625
15.483333	1	1.625375
15.500000	1	1.655750
15.516667	1	1.684875
15.533333	1	1.711875
15.550000	1	1.736000
15.566667	1	1.754500
15.583333	1	1.766500
15.600000	1	1.770125
15.616667	1	1.766875
15.633333	1	1.755250
15.650000	1	1.736375
15.666667	1	1.710375
15.683333	1	1.679500
15.700000	1	1.643750
15.716667	1	1.605375
15.733333	1	1.565625
15.750000	1	1.526250
15.766667	1	1.487750
15.783333	1	1.449500
15.800000	1	1.414500
15.816667	1	1.380375
15.833333	1	1.348250
15.850000	1	1.317500
15.866667	1	1.288250
15.883333	1	1.260500
15.900000	1	1.234000
15.916667	1	1.208500
15.933333	1	1.184000
15.950000	1	1.161625
15.966667	1	1.141375
15.983333	1	1.122625
16.000000	1	1.105375
16.016667	1	1.090375
16.033333	1	1.077000
16.050000	1	1.066875
16.066667	1	1.058250
16.083333	1	1.051375
16.100000	1	1.047375
16.116667	1	1.044000
16.133333	1	1.042750
16.150000	1	1.042750
16.166667	1	1.043125
16.183333	1	1.044750
16.200000	1	1.046625
16.216667	1	1.048625
16.233333	1	1.050750
16.250000	1	1.052000
16.266667	1	1.052375
16.283333	1	1.052875
16.300000	1	1.052500
16.316667	1	1.051000
16.333333	1	1.049250
16.350000	1	1.046500
16.366667	1	1.042875
16.383333	1	1.039250
16.400000	1	1.035500
16.416667	1	1.031375
16.433333	1	1.026500
16.450000	1	1.022750
16.466667	1	1.019625
16.483333	1	1.016750
16.500000	1	1.015375
16.516667	1	1.014625
16.533333	1	1.016125
16.550000	1	1.019000
16.566667	1	1.023250
16.583333	1	1.028750
16.600000	1	1.035750
16.616667	1	1.043875
16.633333	1	1.052750
16.650000	1	1.062625
16.666667	1	1.072125
16.683333	1	1.081125
16.700000	1	1.089500
16.716667	1	1.097125
16.733333	1	1.104625
16.750000	1	1.110500
16.766667	1	1.115500
16.783333	1	1.119375
16.800000	1	1.123500
16.816667	1	1.126625
16.833333	1	1.130125
16.850000	1	1.133500
16.866667	1	1.137125
16.883333	1	1.141625
16.900000	1	1.145125
16.916667	1	1.149375
16.933333	1	1.153125
16.950000	1	1.156625
16.966667	1	1.159875
16.983333	1	1.161625
17.000000	1	1.162375
17.016667	1	1.162750
17.033333	1	1.162125
17.050000	1	1.160875
17.066667	1	1.158875
17.083333	1	1.156000
17.100000	1	1.153000
17.116667	1	1.149500
17.133333	1	1.146500
17.150000	1	1.144500
17.166667	1	1.142375
17.183333	1	1.140500
17.200000	1	1.139875
17.216667	1	1.140000
17.233333	1	1.140375
17.250000	1	1.142000
17.266667	1	1.143875
17.283333	1	1.147125
17.300000	1	1.151250
17.316667	1	1.155125
17.333333	1	1.159625
17.350000	1	1.164125
17.366667	1	1.168875
17.383333	1	1.173000
17.400000	1	1.177625
17.416667	1	1.181375
17.433333	1	1.184875
17.450000	1	1.186875
17.466667	1	1.187875
17.483333	1	1.187875
17.500000	1	1.186750
17.516667	1	1.183625
17.533333	1	1.179000
17.550000	1	1.172500
17.566667	1	1.164750
17.583333	1	1.154750
17.600000	1	1.143250
17.616667	1	1.130750
17.633333	1	1.116625
17.650000	1	1.101000
17.666667	1	1.085625
17.683333	1	1.069000
17.700000	1	1.051125
17.716667	1	1.033625
17.733333	1	1.016250
17.750000	1	0.999750
17.766667	1	0.983250
17.783333	1	0.967500
17.800000	1	0.952500
17.816667	1	0.938000
17.833333	1	0.923875
17.850000	1	0.910625
17.866667	1	0.898750
17.883333	1	0.887500
17.900000	1	0.876500
17.916667	1	0.865625
17.933333	1	0.857125
17.950000	1	0.848875
17.966667	1	0.840625
17.983333	1	0.833375
18.000000	1	0.826625
18.016667	1	0.819625
18.033333	1	0.813250
18.050000	1	0.807000
18.066667	1	0.800750
18.083333	1	0.794375
18.100000	1	0.788625
18.116667	1	0.783125
18.133333	1	0.776750
18.150000	1	0.771250
18.166667	1	0.766500
18.183333	1	0.761625
18.200000	1	0.756625
18.216667	1	0.752375
18.233333	1	0.748500
18.250000	1	0.745125
18.266667	1	0.741750
18.283333	1	0.738875
18.300000	1	0.736875
18.316667	1	0.735750
18.333333	1	0.735000
18.350000	1	0.735375
18.366667	1	0.736000
18.383333	1	0.737000
18.400000	1	0.738500
18.416667	1	0.740625
18.433333	1	0.743125
18.450000	1	0.747375
18.466667	1	0.751125
18.483333	1	0.756250
18.500000	1	0.762750
18.516667	1	0.770375
18.533333	1	0.779500
18.550000	1	0.790625
18.566667	1	0.803875
18.583333	1	0.818625
18.600000	1	0.834750
18.616667	1	0.854125
18.633333	1	0.875000
18.650000	1	0.897875
18.666667	1	0.923000
18.683333	1	0.950125
18.700000	1	0.979125
18.716667	1	1.010500
18.733333	1	1.042875
18.750000	1	1.076625
18.766667	1	1.112000
18.783333	1	1.147625
18.800000	1	1.184250
18.816667	1	1.220000
18.833333	1	1.254750
18.850000	1	1.287875
18.866667	1	1.318875
18.883333	1	1.347625
18.900000	1	1.372750
18.916667	1	1.394125
18.933333	1	1.410750
18.950000	1	1.422000
18.966667	1	1.427250
18.983333	1	1.426250
19.000000	1	1.419375
19.016667	1	1.406000
19.033333	1	1.386250
19.050000	1	1.359250
19.066667	1	1.327375
19.083333	1	1.290000
19.100000	1	1.248250
19.116667	1	1.204000
19.133333	1	1.156250
19.150000	1	1.108250
19.166667	1	1.059625
19.183333	1	1.010875
19.200000	1	0.964125
19.216667	1	0.919125
19.233333	1	0.877500
19.250000	1	0.839875
19.266667	1	0.806125
19.283333	1	0.777375
19.300000	1	0.753500
19.316667	1	0.734000
19.333333	1	0.719875
19.350000	1	0.711125
19.366667	1	0.707375
19.383333	1	0.709125
19.400000	1	0.715375
19.416667	1	0.725750
19.433333	1	0.742000
19.450000	1	0.761625
19.466667	1	0.784750
19.483333	1	0.811750
19.500000	1	0.841750
19.516667	1	0.874000
19.533333	1	0.907875
19.550000	1	0.943375
19.566667	1	0.978625
19.583333	1	1.013375
19.600000	1	1.046250
19.616667	1	1.076875
19.633333	1	1.104375
19.650000	1	1.127500
19.666667	1	1.145875
19.683333	1	1.159500
19.700000	1	1.166750
19.716667	1	1.168125
19.733333	1	1.164250
19.750000	1	1.154875
19.766667	1	1.139750
19.783333	1	1.120250
19.800000	1	1.095875
19.816667	1	1.068875
19.833333	1	1.038125
19.850000	1	1.006375
19.866667	1	0.972875
19.883333	1	0.939000
19.900000	1	0.903875
19.916667	1	0.869250
19.933333	1	0.835500
19.950000	1	0.803375
19.966667	1	0.772125
19.983333	1	0.743125
20.000000	1	0.716375
20.016667	1	0.692000
20.033333	1	0.670000
20.050000	1	0.649125
20.066667	1	0.631500
20.083333	1	0.616750
20.100000	1	0.605000
20.116667	1	0.595625
20.133333	1	0.589500
20.150000	1	0.586000
20.166667	1	0.585500
20.183333	1	0.587750
20.200000	1	0.591625
20.216667	1	0.597750
20.233333	1	0.606875
20.250000	1	0.617125
20.266667	1	0.628875
20.283333	1	0.641125
20.300000	1	0.654250
20.316667	1	0.667250
20.333333	1	0.679375
20.350000	1	0.691250
20.366667	1	0.701750
20.383333	1	0.709625
20.400000	1	0.716250
20.416667	1	0.720875
20.433333	1	0.723000
20.450000	1	0.723500
20.466667	1	0.722500
20.483333	1	0.720375
20.500000	1	0.717250
20.516667	1	0.714875
20.533333	1	0.713000
20.550000	1	0.714125
20.566667	1	0.718500
20.583333	1	0.727000
20.600000	1	0.739875
20.616667	1	0.758750
20.633333	1	0.783750
20.650000	1	0.816000
20.666667	1	0.854375
20.683333	1	0.900250
20.700000	1	0.952750
20.716667	1	1.011375
20.733333	1	1.075625
20.750000	1	1.144000
20.766667	1	1.216125
20.783333	1	1.289750
20.800000	1	1.362625
20.816667	1	1.432625
20.833333	1	1.499000
20.850000	1	1.556875
20.866667	1	1.607000
20.883333	1	1.645875
20.900000	1	1.673375
20.916667	1	1.687375
20.933333	1	1.687750
20.950000	1	1.674875
20.966667	1	1.647750
20.983333	1	1.607875
21.000000	1	1.557500
21.016667	1	1.497625
21.033333	1	1.430625
21.050000	1	1.357875
21.066667	1	1.281750
21.083333	1	1.204500
21.100000	1	1.128000
21.116667	1	1.053250
21.133333	1	0.982000
21.150000	1	0.914125
21.166667	1	0.851500
21.183333	1	0.793875
21.200000	1	0.741500
21.216667	1	0.694875
21.233333	1	0.653500
21.250000	1	0.617000
21.266667	1	0.585000
21.283333	1	0.557750
21.300000	1	0.534125
21.316667	1	0.514625
21.333333	1	0.497375
21.350000	1	0.482375
21.366667	1	0.469500
21.383333	1	0.458000
21.400000	1	0.448250
21.416667	1	0.440625
21.433333	1	0.434125
21.450000	1	0.427875
21.466667	1	0.423125
21.483333	1	0.418500
21.500000	1	0.415375
21.516667	1	0.412625
21.533333	1	0.410750
21.550000	1	0.409875
21.566667	1	0.410000
21.583333	1	0.410500
21.600000	1	0.412125
21.616667	1	0.414750
21.633333	1	0.418000
21.650000	1	0.423000
21.666667	1	0.429250
21.683333	1	0.436000
21.700000	1	0.444500
21.716667	1	0.454500
21.733333	1	0.466250
21.750000	1	0.478875
21.766667	1	0.493000
21.783333	1	0.508375
21.800000	1	0.525375
21.816667	1	0.543125
21.833333	1	0.562125
21.850000	1	0.581625
21.866667	1	0.602000
21.883333	1	0.623250
21.900000	1	0.645500
21.916667	1	0.668500
21.933333	1	0.690000
21.950000	1	0.712000
21.966667	1	0.733250
21.983333	1	0.753125
22.000000	1	0.771625
22.016667	1	0.788375
22.033333	1	0.802875
22.050000	1	0.815250
22.066667	1	0.825125
22.083333	1	0.832500
22.100000	1	0.836875
22.116667	1	0.838125
22.133333	1	0.837250
22.150000	1	0.832250
22.166667	1	0.824375
22.183333	1	0.813500
22.200000	1	0.801375
22.216667	1	0.786750
22.233333	1	0.770000
22.250000	1	0.751500
22.266667	1	0.731500
22.283333	1	0.710750
22.300000	1	0.688500
22.316667	1	0.666000
22.333333	1	0.643625
22.350000	1	0.620125
22.366667	1	0.597250
22.383333	1	0.573250
22.400000	1	0.550000
22.416667	1	0.527500
22.433333	1	0.506125
22.450000	1	0.484500
22.466667	1	0.464000
22.483333	1	0.444625
22.500000	1	0.425875
22.516667	1	0.408000
22.533333	1	0.391750
22.550000	1	0.376000
22.566667	1	0.360375
22.583333	1	0.346125
22.600000	1	0.333250
22.616667	1	0.320750
22.633333	1	0.308750
22.650000	1	0.298375
22.666667	1	0.288625
22.683333	1	0.279750
22.700000	1	0.271125
22.716667	1	0.263375
22.733333	1	0.256375
22.750000	1	0.249125
22.766667	1	0.242250
22.783333	1	0.237125
22.800000	1	0.231875
22.816667	1	0.226625
22.833333	1	0.222125
22.850000	1	0.217750
22.866667	1	0.213625
22.883333	1	0.210625
22.900000	1	0.207875
22.916667	1	0.205750
22.933333	1	0.204375
22.950000	1	0.202125
22.966667	1	0.200375
22.983333	1	0.199250
23.000000	1	0.199375
23.016667	1	0.199125
23.033333	1	0.199000
23.050000	1	0.199500
23.066667	1	0.200750
23.083333	1	0.201625
23.100000	1	0.203125
23.116667	1	0.205000
23.133333	1	0.206625
23.150000	1	0.208875
23.166667	1	0.210875
23.183333	1	0.213000
23.200000	1	0.216000
23.216667	1	0.219125
23.233333	1	0.223000
23.250000	1	0.227000
23.266667	1	0.231500
23.283333	1	0.236375
23.300000	1	0.244000
23.316667	1	0.252375
23.333333	1	0.263500
23.350000	1	0.276250
23.366667	1	0.292625
23.383333	1	0.312875
23.400000	1	0.336500
23.416667	1	0.366125
23.433333	1	0.400875
23.450000	1	0.442625
23.466667	1	0.490750
23.483333	1	0.547500
23.500000	1	0.613750
23.516667	1	0.690375
23.533333	1	0.777125
23.550000	1	0.875250
23.566667	1	0.985625
23.583333	1	1.109125
23.600000	1	1.246250
23.616667	1	1.397000
23.633333	1	1.561125
23.650000	1	1.738250
23.666667	1	1.928125
23.683333	1	2.130125
23.700000	1	2.342625
23.716667	1	2.562500
23.733333	1	2.788875
23.750000	1	3.017500
23.766667	1	3.245875
23.783333	1	3.471000
23.800000	1	3.686625
23.816667	1	3.889750
23.833333	1	4.076375
23.850000	1	4.241625
23.866667	1	4.382750
23.883333	1	4.495875
23.900000	1	4.578250
23.916667	1	4.627750
23.933333	1	4.644000
23.950000	1	4.624625
23.966667	1	4.571875
23.983333	1	4.487125
24.000000	1	4.371875
24.016667	1	4.230250
24.033333	1	4.065500
24.050000	1	3.881500
24.066667	1	3.681625
24.083333	1	3.471375
24.100000	1	3.253625
24.116667	1	3.032625
24.133333	1	2.812625
24.150000	1	2.595250
24.166667	1	2.384750
24.183333	1	2.183500
24.200000	1	1.992875
24.216667	1	1.814750
24.233333	1	1.649625
24.250000	1	1.496375
24.266667	1	1.357500
24.283333	1	1.230500
24.300000	1	1.116750
24.316667	1	1.015500
24.333333	1	0.925000
24.350000	1	0.845125
24.366667	1	0.775250
24.383333	1	0.714125
24.400000	1	0.660625
24.416667	1	0.615000
24.433333	1	0.575625
24.450000	1	0.542625
24.466667	1	0.513625
24.483333	1	0.488500
24.500000	1	0.467250
24.516667	1	0.449625
24.533333	1	0.433375
24.550000	1	0.419125
24.566667	1	0.406625
24.583333	1	0.395750
24.600000	1	0.385375
24.616667	1	0.375500
24.633333	1	0.365875
24.650000	1	0.356875
24.666667	1	0.347500
24.683333	1	0.338750
24.700000	1	0.329750
24.716667	1	0.320375
24.733333	1	0.311125
24.750000	1	0.301250
24.766667	1	0.291000
24.783333	1	0.281500
24.800000	1	0.272000
24.816667	1	0.263000
24.833333	1	0.254750
24.850000	1	0.245125
24.866667	1	0.237000
24.883333	1	0.229250
24.900000	1	0.221375
24.916667	1	0.215250
24.933333	1	0.209375
24.950000	1	0.203375
24.966667	1	0.197375
24.983333	1	0.192625
25.000000	1	0.188500
25.016667	1	0.185000
25.033333	1	0.181625
25.050000	1	0.178500
25.066667	1	0.176875
25.083333	1	0.175125
25.100000	1	0.173500
25.116667	1	0.171750
25.133333	1	0.170625
25.150000	1	0.170000
25.166667	1	0.170125
25.183333	1	0.170125
25.200000	1	0.169750
25.216667	1	0.168875
25.233333	1	0.168500
25.250000	1	0.168375
25.266667	1	0.168250
25.283333	1	0.168125
25.300000	1	0.168125
25.316667	1	0.168125
25.333333	1	0.167375
25.350000	1	0.166875
25.366667	1	0.167000
25.383333	1	0.167875
25.400000	1	0.168000
25.416667	1	0.167500
25.433333	1	0.167750
25.450000	1	0.168250
25.466667	1	0.167875
25.483333	1	0.168500
25.500000	1	0.169000
25.516667	1	0.169250
25.533333	1	0.170000
25.550000	1	0.170750
25.566667	1	0.170875
25.583333	1	0.171500
25.600000	1	0.171875
25.616667	1	0.173000
25.633333	1	0.173875
25.650000	1	0.174750
25.666667	1	0.175375
25.683333	1	0.176750
25.700000	1	0.178000
25.716667	1	0.179375
25.733333	1	0.180375
25.750000	1	0.182125
25.766667	1	0.183750
25.783333	1	0.185375
25.800000	1	0.187125
25.816667	1	0.189125
25.833333	1	0.191625
25.850000	1	0.194250
25.866667	1	0.196625
25.883333	1	0.199250
25.900000	1	0.201750
25.916667	1	0.205125
25.933333	1	0.208625
25.950000	1	0.211625
25.966667	1	0.215375
25.983333	1	0.219500
26.000000	1	0.223000
26.016667	1	0.227000
26.033333	1	0.231500
26.050000	1	0.235000
26.066667	1	0.238625
26.083333	1	0.243000
26.100000	1	0.246500
26.116667	1	0.249875
26.133333	1	0.252625
26.150000	1	0.255250
26.166667	1	0.257625
26.183333	1	0.259250
26.200000	1	0.260750
26.216667	1	0.261750
26.233333	1	0.262625
26.250000	1	0.263000
26.266667	1	0.262875
26.283333	1	0.261625
26.300000	1	0.260000
26.316667	1	0.258125
26.333333	1	0.255625
26.350000	1	0.252375
26.366667	1	0.248375
26.383333	1	0.244000
26.400000	1	0.239125
26.416667	1	0.233875
26.433333	1	0.228125
26.450000	1	0.223250
26.466667	1	0.217375
26.483333	1	0.211500
26.500000	1	0.204750
26.516667	1	0.197750
26.533333	1	0.191500
26.550000	1	0.184250
26.566667	1	0.178000
26.583333	1	0.172000
26.600000	1	0.165125
26.616667	1	0.158875
26.633333	1	0.152625
26.650000	1	0.145750
26.666667	1	0.140125
26.683333	1	0.135000
26.700000	1	0.129500
26.716667	1	0.124125
26.733333	1	0.118625
26.750000	1	0.114875
26.766667	1	0.110000
26.783333	1	0.105750
26.800000	1	0.101750
26.816667	1	0.098250
26.833333	1	0.095000
26.850000	1	0.092500
26.866667	1	0.090125
26.883333	1	0.089000
26.900000	1	0.088000
26.916667	1	0.087125
26.933333	1	0.085750
26.950000	1	0.085375
26.966667	1	0.086375
26.983333	1	0.088000
27.000000	1	0.089625
27.016667	1	0.092500
27.033333	1	0.095500
27.050000	1	0.099000
27.066667	1	0.103375
27.083333	1	0.109875
27.100000	1	0.116375
27.116667	1	0.124375
27.133333	1	0.133875
27.150000	1	0.144375
27.166667	1	0.156250
27.183333	1	0.170375
27.200000	1	0.186750
27.216667	1	0.204875
27.233333	1	0.225625
27.250000	1	0.250000
27.266667	1	0.277250
27.283333	1	0.307875
27.300000	1	0.342500
27.316667	1	0.382125
27.333333	1	0.426125
27.350000	1	0.475000
27.366667	1	0.529375
27.383333	1	0.589625
27.400000	1	0.656500
27.416667	1	0.730125
27.433333	1	0.811125
27.450000	1	0.899375
27.466667	1	0.995125
27.483333	1	1.099375
27.500000	1	1.211375
27.516667	1	1.331250
27.533333	1	1.459500
27.550000	1	1.595500
27.566667	1	1.738125
27.583333	1	1.887250
27.600000	1	2.042125
27.616667	1	2.202125
27.633333	1	2.365875
27.650000	1	2.531625
27.666667	1	2.698125
27.683333	1	2.863625
27.700000	1	3.025750
27.716667	1	3.182875
27.733333	1	3.332875
27.750000	1	3.471625
27.766667	1	3.599500
27.783333	1	3.713125
27.800000	1	3.811125
27.816667	1	3.890125
27.833333	1	3.950125
27.850000	1	3.988875
27.866667	1	4.005500
27.883333	1	3.998875
27.900000	1	3.969625
27.916667	1	3.917875
27.933333	1	3.843250
27.950000	1	3.747125
27.966667	1	3.632250
27.983333	1	3.500500
28.000000	1	3.353500
28.016667	1	3.193625
28.033333	1	3.022875
28.050000	1	2.845125
28.066667	1	2.662625
28.083333	1	2.477750
28.100000	1	2.293125
28.116667	1	2.111500
28.133333	1	1.934125
28.150000	1	1.763375
28.166667	1	1.601500
28.183333	1	1.448875
28.200000	1	1.306000
28.216667	1	1.173750
28.233333	1	1.051500
28.250000	1	0.940750
28.266667	1	0.840500
28.283333	1	0.750625
28.300000	1	0.669625
28.316667	1	0.599250
28.333333	1	0.537875
28.350000	1	0.484875
28.366667	1	0.439625
28.383333	1	0.401750
28.400000	1	0.370125
28.416667	1	0.344375
28.433333	1	0.323875
28.450000	1	0.308375
28.466667	1	0.296875
28.483333	1	0.288875
28.500000	1	0.284375
28.516667	1	0.282125
28.533333	1	0.282875
28.550000	1	0.285625
28.566667	1	0.290375
28.583333	1	0.296625
28.600000	1	0.303625
28.616667	1	0.312625
28.633333	1	0.322125
28.650000	1	0.332250
28.666667	1	0.342750
28.683333	1	0.353250
28.700000	1	0.364000
28.716667	1	0.374625
28.733333	1	0.385375
28.750000	1	0.395125
28.766667	1	0.404250
28.783333	1	0.412875
28.800000	1	0.421250
28.816667	1	0.428250
28.833333	1	0.433750
28.850000	1	0.440125
28.866667	1	0.443875
28.883333	1	0.447625
28.900000	1	0.449500
28.916667	1	0.449875
28.933333	1	0.449625
28.950000	1	0.449000
28.966667	1	0.447000
28.983333	1	0.443625
29.000000	1	0.439375
29.016667	1	0.434125
29.033333	1	0.427750
29.050000	1	0.420500
29.066667	1	0.412625
29.083333	1	0.404000
29.100000	1	0.393875
29.116667	1	0.383750
29.133333	1	0.372750
29.150000	1	0.361625
29.166667	1	0.349500
29.183333	1	0.337625
29.200000	1	0.325375
29.216667	1	0.312750
29.233333	1	0.300875
29.250000	1	0.288500
29.266667	1	0.275875
29.283333	1	0.263875
29.300000	1	0.251500
29.316667	1	0.239250
29.333333	1	0.227500
29.350000	1	0.216250
29.366667	1	0.205250
29.383333	1	0.195625
29.400000	1	0.186250
29.416667	1	0.176625
29.433333	1	0.167000
29.450000	1	0.158625
29.466667	1	0.149500
29.483333	1	0.141625
29.500000	1	0.134250
29.516667	1	0.127000
29.533333	1	0.119750
29.550000	1	0.113375
29.566667	1	0.107000
29.583333	1	0.101875
29.600000	1	0.096625
29.616667	1	0.092250
29.633333	1	0.087250
29.650000	1	0.082625
29.666667	1	0.078500
29.683333	1	0.074000
29.700000	1	0.070250
29.716667	1	0.066625
29.733333	1	0.063000
29.750000	1	0.059125
29.766667	1	0.055625
29.783333	1	0.051625
29.800000	1	0.048125
29.816667	1	0.044750
29.833333	1	0.040875
29.850000	1	0.037250
29.866667	1	0.033500
29.883333	1	0.029000
29.900000	1	0.025750
29.916667	1	0.022375
29.933333	1	0.018875
29.950000	1	0.014375
29.966667	1	0.010625
29.983333	1	0.007500
30.000000	1	0.003875
30.016667	1	0.000000
30.033333	1	-0.002625
30.050000	1	-0.006375
30.066667	1	-0.009625
30.083333	1	-0.013125
30.100000	1	-0.016375
30.116667	1	-0.019125
30.133333	1	-0.021375
30.150000	1	-0.022875
30.166667	1	-0.024875
30.183333	1	-0.027000
30.200000	1	-0.029250
30.216667	1	-0.030125
30.233333	1	-0.031000
30.250000	1	-0.031250
30.266667	1	-0.031000
30.283333	1	-0.030750
30.300000	1	-0.030500
30.316667	1	-0.029875
30.333333	1	-0.028875
30.350000	1	-0.027625
30.366667	1	-0.025500
30.383333	1	-0.022875
30.400000	1	-0.020375
30.416667	1	-0.016875
30.433333	1	-0.013625
30.450000	1	-0.010250
30.466667	1	-0.005500
30.483333	1	-0.000500
30.500000	1	0.005000
30.516667	1	0.011125
30.533333	1	0.017750
30.550000	1	0.025000
30.566667	1	0.032500
30.583333	1	0.041000
30.600000	1	0.051125
30.616667	1	0.060625
30.633333	1	0.071500
30.650000	1	0.083750
30.666667	1	0.096625
30.683333	1	0.111000
30.700000	1	0.126375
30.716667	1	0.143125
30.733333	1	0.162000
30.750000	1	0.182125
30.766667	1	0.205250
30.783333	1	0.231000
30.800000	1	0.259000
30.816667	1	0.289750
30.833333	1	0.324625
30.850000	1	0.363000
30.866667	1	0.404000
30.883333	1	0.450375
30.900000	1	0.502500
30.916667	1	0.559375
30.933333	1	0.622625
30.950000	1	0.693125
30.966667	1	0.770250
30.983333	1	0.854375
31.000000	1	0.947375
31.016667	1	1.048875
31.033333	1	1.159125
31.050000	1	1.278750
31.066667	1	1.408000
31.083333	1	1.547875
31.100000	1	1.697250
31.116667	1	1.855875
31.133333	1	2.024000
31.150000	1	2.200750
31.166667	1	2.386875
31.183333	1	2.581000
31.200000	1	2.781750
31.216667	1	2.988750
31.233333	1	3.200250
31.250000	1	3.413750
31.266667	1	3.628375
31.283333	1	3.842500
31.300000	1	4.052500
31.316667	1	4.257250
31.333333	1	4.454250
31.350000	1	4.640125
31.366667	1	4.814250
31.383333	1	4.974250
31.400000	1	5.117500
31.416667	1	5.241875
31.433333	1	5.345750
31.450000	1	5.427750
31.466667	1	5.485625
31.483333	1	5.520125
31.500000	1	5.531000
31.516667	1	5.516750
31.533333	1	5.477750
31.550000	1	5.415875
31.566667	1	5.331000
31.583333	1	5.224000
31.600000	1	5.096625
31.616667	1	4.951750
31.633333	1	4.790500
31.650000	1	4.614000
31.666667	1	4.426250
31.683333	1	4.228500
31.700000	1	4.023500
31.716667	1	3.814250
31.733333	1	3.602125
31.750000	1	3.389625
31.766667	1	3.177750
31.783333	1	2.968000
31.800000	1	2.762625
31.816667	1	2.562750
31.833333	1	2.370625
31.850000	1	2.184875
31.866667	1	2.008250
31.883333	1	1.840250
31.900000	1	1.681875
31.916667	1	1.533250
31.933333	1	1.394375
31.950000	1	1.265125
31.966667	1	1.145375
31.983333	1	1.034750
32.000000	1	0.933500
32.016667	1	0.840625
32.033333	1	0.754750
32.050000	1	0.677250
32.066667	1	0.607500
32.083333	1	0.544125
32.100000	1	0.487000
32.116667	1	0.435625
32.133333	1	0.389125
32.150000	1	0.347125
32.166667	1	0.309250
32.183333	1	0.276000
32.200000	1	0.245625
32.216667	1	0.218625
32.233333	1	0.194500
32.250000	1	0.172875
32.266667	1	0.152750
32.283333	1	0.134875
32.300000	1	0.119500
32.316667	1	0.105250
32.333333	1	0.092125
32.350000	1	0.080125
32.366667	1	0.068875
32.383333	1	0.058500
32.400000	1	0.049375
32.416667	1	0.040750
32.433333	1	0.032625
32.450000	1	0.024875
32.466667	1	0.017750
32.483333	1	0.011125
32.500000	1	0.005500
32.516667	1	0.000000
32.533333	1	-0.005250
32.550000	1	-0.010500
32.566667	1	-0.014875
32.583333	1	-0.018875
32.600000	1	-0.022500
32.616667	1	-0.025625
32.633333	1	-0.028875
32.650000	1	-0.031875
32.666667	1	-0.034125
32.683333	1	-0.036750
32.700000	1	-0.039125
32.716667	1	-0.041375
32.733333	1	-0.043625
32.750000	1	-0.046000
32.766667	1	-0.047375
32.783333	1	-0.049250
32.800000	1	-0.050375
32.816667	1	-0.051625
32.833333	1	-0.052750
32.850000	1	-0.053875
32.866667	1	-0.054875
32.883333	1	-0.056500
32.900000	1	-0.058625
32.916667	1	-0.060375
32.933333	1	-0.062125
32.950000	1	-0.063500
32.966667	1	-0.064375
32.983333	1	-0.066125
33.000000	1	-0.067875
33.016667	1	-0.069250
33.033333	1	-0.070375
33.050000	1	-0.072000
33.066667	1	-0.074000
33.083333	1	-0.075375
33.100000	1	-0.076750
33.116667	1	-0.078125
33.133333	1	-0.078875
33.150000	1	-0.079500
33.166667	1	-0.080125
33.183333	1	-0.080375
33.200000	1	-0.080500
33.216667	1	-0.080625
33.233333	1	-0.079625
33.250000	1	-0.078625
33.266667	1	-0.077375
33.283333	1	-0.075375
33.300000	1	-0.073250
33.316667	1	-0.070750
33.333333	1	-0.067625
33.350000	1	-0.063375
33.366667	1	-0.058750
33.383333	1	-0.053500
33.400000	1	-0.047625
33.416667	1	-0.041375
33.433333	1	-0.033750
33.450000	1	-0.025375
33.466667	1	-0.016625
33.483333	1	-0.006750
33.500000	1	0.003625
33.516667	1	0.015375
33.533333	1	0.028000
33.550000	1	0.042125
33.566667	1	0.056500
33.583333	1	0.073000
33.600000	1	0.089250
33.616667	1	0.107375
33.633333	1	0.126125
33.650000	1	0.145875
33.666667	1	0.166250
33.683333	1	0.188375
33.700000	1	0.211000
33.716667	1	0.234250
33.733333	1	0.259125
33.750000	1	0.284375
33.766667	1	0.309875
33.783333	1	0.336375
33.800000	1	0.362750
33.816667	1	0.389125
33.833333	1	0.415625
33.850000	1	0.441750
33.866667	1	0.467375
33.883333	1	0.492250
33.900000	1	0.517000
33.916667	1	0.540375
33.933333	1	0.562250
33.950000	1	0.583125
33.966667	1	0.601500
33.983333	1	0.619500
34.000000	1	0.633875
34.016667	1	0.646750
34.033333	1	0.657500
34.050000	1	0.665750
34.066667	1	0.672250
34.083333	1	0.675875
34.100000	1	0.677125
34.116667	1	0.675750
34.133333	1	0.671875
34.150000	1	0.665625
34.166667	1	0.657375
34.183333	1	0.646875
34.200000	1	0.634000
34.216667	1	0.619250
34.233333	1	0.602625
34.250000	1	0.584625
34.266667	1	0.565875
34.283333	1	0.546250
34.300000	1	0.524750
34.316667	1	0.503875
34.333333	1	0.482375
34.350000	1	0.460625
34.366667	1	0.438875
34.383333	1	0.417250
34.400000	1	0.396000
34.416667	1	0.374875
34.433333	1	0.354375
34.450000	1	0.334500
34.466667	1	0.315125
34.483333	1	0.296750
34.500000	1	0.278750
34.516667	1	0.261250
34.533333	1	0.244750
34.550000	1	0.229750
34.566667	1	0.215375
34.583333	1	0.201375
34.600000	1	0.188625
34.616667	1	0.175625
34.633333	1	0.164000
34.650000	1	0.152500
34.666667	1	0.141000
34.683333	1	0.130500
34.700000	1	0.121500
34.716667	1	0.112375
34.733333	1	0.104500
34.750000	1	0.096750
34.766667	1	0.088875
34.783333	1	0.081500
34.800000	1	0.074125
34.816667	1	0.067250
34.833333	1	0.060625
34.850000	1	0.054750
34.866667	1	0.049500
34.883333	1	0.044500
34.900000	1	0.040125
34.916667	1	0.036125
34.933333	1	0.032500
34.950000	1	0.028500
34.966667	1	0.025875
34.983333	1	0.022750
35.000000	1	0.019500
35.016667	1	0.017250
35.033333	1	0.015250
35.050000	1	0.012625
35.066667	1	0.011750
35.083333	1	0.011500
35.100000	1	0.010625
35.116667	1	0.010125
35.133333	1	0.010000
35.150000	1	0.009750
35.166667	1	0.010000
35.183333	1	0.010625
35.200000	1	0.010875
35.216667	1	0.011250
35.233333	1	0.011750
35.250000	1	0.012250
35.266667	1	0.014125
35.283333	1	0.016000
35.300000	1	0.018000
35.316667	1	0.019000
35.333333	1	0.020375
35.350000	1	0.021625
35.366667	1	0.023375
35.383333	1	0.024500
35.400000	1	0.026875
35.416667	1	0.028750
35.433333	1	0.030875
35.450000	1	0.032250
35.466667	1	0.034375
35.483333	1	0.036375
35.500000	1	0.038500
35.516667	1	0.040500
35.533333	1	0.042875
35.550000	1	0.045000
35.566667	1	0.046500
35.583333	1	0.047750
35.600000	1	0.049375
35.616667	1	0.051250
35.633333	1	0.052750
35.650000	1	0.054250
35.666667	1	0.055125
35.683333	1	0.056250
35.700000	1	0.057000
35.716667	1	0.058250
35.733333	1	0.059500
35.750000	1	0.060875
35.766667	1	0.061250
35.783333	1	0.062000
35.800000	1	0.062000
35.816667	1	0.061500
35.833333	1	0.061375
35.850000	1	0.061125
35.866667	1	0.061000
35.883333	1	0.061000
35.900000	1	0.060250
35.916667	1	0.059625
35.933333	1	0.058875
35.950000	1	0.058000
35.966667	1	0.057250
35.983333	1	0.055875
36.000000	1	0.054500
36.016667	1	0.053250
36.033333	1	0.052375
36.050000	1	0.051500
36.066667	1	0.050500
36.083333	1	0.048750
36.100000	1	0.047500
36.116667	1	0.045875
36.133333	1	0.045250
36.150000	1	0.043625
36.166667	1	0.042750
36.183333	1	0.041875
36.200000	1	0.040625
36.216667	1	0.039500
36.233333	1	0.038500
36.250000	1	0.037125
36.266667	1	0.035875
36.283333	1	0.034500
36.300000	1	0.033625
36.316667	1	0.033000
36.333333	1	0.032000
36.350000	1	0.031750
36.366667	1	0.030375
36.383333	1	0.029000
36.400000	1	0.027875
36.416667	1	0.026750
36.433333	1	0.025250
36.450000	1	0.023500
36.466667	1	0.022125
36.483333	1	0.021125
36.500000	1	0.019750
36.516667	1	0.017750
36.533333	1	0.016000
36.550000	1	0.014250
36.566667	1	0.011750
36.583333	1	0.009750
36.600000	1	0.007625
36.616667	1	0.006250
36.633333	1	0.004375
36.650000	1	0.002125
36.666667	1	0.000625
36.683333	1	-0.001500
36.700000	1	-0.003875
36.716667	1	-0.005750
36.733333	1	-0.007375
36.750000	1	-0.008375
36.766667	1	-0.010250
36.783333	1	-0.012500
36.800000	1	-0.014375
36.816667	1	-0.015000
36.833333	1	-0.016375
36.850000	1	-0.017750
36.866667	1	-0.018625
36.883333	1	-0.019375
36.900000	1	-0.019875
36.916667	1	-0.020625
36.933333	1	-0.021375
36.950000	1	-0.022000
36.966667	1	-0.022250
36.983333	1	-0.022500
37.000000	1	-0.022750
37.016667	1	-0.023250
37.033333	1	-0.023875
37.050000	1	-0.023625
37.066667	1	-0.023500
37.083333	1	-0.023875
37.100000	1	-0.023750
37.116667	1	-0.024125
37.133333	1	-0.024000
37.150000	1	-0.024250
37.166667	1	-0.024500
37.183333	1	-0.025250
37.200000	1	-0.025875
37.216667	1	-0.025625
37.233333	1	-0.026375
37.250000	1	-0.027000
37.266667	1	-0.027625
37.283333	1	-0.029375
37.300000	1	-0.030500
37.316667	1	-0.031625
37.333333	1	-0.033000
37.350000	1	-0.034250
37.366667	1	-0.035875
37.383333	1	-0.036875
37.400000	1	-0.038125
37.416667	1	-0.039250
37.433333	1	-0.040125
37.450000	1	-0.041375
37.466667	1	-0.043000
37.483333	1	-0.043875
37.500000	1	-0.044875
37.516667	1	-0.045625
37.533333	1	-0.046375
37.550000	1	-0.046875
37.566667	1	-0.047250
37.583333	1	-0.047375
37.600000	1	-0.048250
37.616667	1	-0.048625
37.633333	1	-0.049000
37.650000	1	-0.048250
37.666667	1	-0.048375
37.683333	1	-0.048000
37.700000	1	-0.047625
37.716667	1	-0.046875
37.733333	1	-0.046875
37.750000	1	-0.046250
37.766667	1	-0.045625
37.783333	1	-0.044750
37.800000	1	-0.044000
37.816667	1	-0.043750
37.833333	1	-0.042500
37.850000	1	-0.041250
37.866667	1	-0.039750
37.883333	1	-0.038625
37.900000	1	-0.038125
37.916667	1	-0.037250
37.933333	1	-0.036125
37.950000	1	-0.035000
37.966667	1	-0.033750
37.983333	1	-0.032875
38.000000	1	-0.032000
38.016667	1	-0.030750
38.033333	1	-0.030250
38.050000	1	-0.028875
38.066667	1	-0.027750
38.083333	1	-0.026000
38.100000	1	-0.024750
38.116667	1	-0.023750
38.133333	1	-0.023250
38.150000	1	-0.022000
38.166667	1	-0.020875
38.183333	1	-0.020625
38.200000	1	-0.020375
38.216667	1	-0.019750
38.233333	1	-0.019375
38.250000	1	-0.019000
38.266667	1	-0.018000
38.283333	1	-0.017000
38.300000	1	-0.016500
38.316667	1	-0.016125
38.333333	1	-0.015375
38.350000	1	-0.014750
38.366667	1	-0.014375
38.383333	1	-0.014750
38.400000	1	-0.015250
38.416667	1	-0.015750
38.433333	1	-0.015500
38.450000	1	-0.015125
38.466667	1	-0.014750
38.483333	1	-0.014875
38.500000	1	-0.014750
38.516667	1	-0.014625
38.533333	1	-0.014625
38.550000	1	-0.014500
38.566667	1	-0.014375
38.583333	1	-0.014250
38.600000	1	-0.014375
38.616667	1	-0.014500
38.633333	1	-0.014250
38.650000	1	-0.014000
38.666667	1	-0.014000
38.683333	1	-0.012625
38.700000	1	-0.012125
38.716667	1	-0.012500
38.733333	1	-0.012125
38.750000	1	-0.011875
38.766667	1	-0.011250
38.783333	1	-0.011125
38.800000	1	-0.010750
38.816667	1	-0.010875
38.833333	1	-0.010875
38.850000	1	-0.010750
38.866667	1	-0.011125
38.883333	1	-0.010375
38.900000	1	-0.009500
38.916667	1	-0.009750
38.933333	1	-0.009125
38.950000	1	-0.009125
38.966667	1	-0.009000
38.983333	1	-0.009250
39.000000	1	-0.008750
39.016667	1	-0.007750
39.033333	1	-0.007250
39.050000	1	-0.007250
39.066667	1	-0.006875
39.083333	1	-0.006250
39.100000	1	-0.006000
39.116667	1	-0.006375
39.133333	1	-0.006375
39.150000	1	-0.006625
39.166667	1	-0.007500
39.183333	1	-0.007625
39.200000	1	-0.007875
39.216667	1	-0.008125
39.233333	1	-0.008000
39.250000	1	-0.008000
39.266667	1	-0.008375
39.283333	1	-0.008750
39.300000	1	-0.008500
39.316667	1	-0.008875
39.333333	1	-0.009250
39.350000	1	-0.009625
39.366667	1	-0.010250
39.383333	1	-0.010875
39.400000	1	-0.011750
39.416667	1	-0.012000
39.433333	1	-0.012375
39.450000	1	-0.013125
39.466667	1	-0.014500
39.483333	1	-0.015375
39.500000	1	-0.016250
39.516667	1	-0.017875
39.533333	1	-0.018750
39.550000	1	-0.019875
39.566667	1	-0.020250
39.583333	1	-0.021750
39.600000	1	-0.023625
39.616667	1	-0.024625
39.633333	1	-0.025375
39.650000	1	-0.026625
39.666667	1	-0.027375
39.683333	1	-0.028125
39.700000	1	-0.029000
39.716667	1	-0.030625
39.733333	1	-0.032125
39.750000	1	-0.032875
39.766667	1	-0.034500
39.783333	1	-0.035500
39.800000	1	-0.037000
39.816667	1	-0.037875
39.833333	1	-0.039000
39.850000	1	-0.040375
39.866667	1	-0.041250
39.883333	1	-0.042375
39.900000	1	-0.042875
39.916667	1	-0.043625
39.933333	1	-0.044625
39.950000	1	-0.046000
39.966667	1	-0.047000
39.983333	1	-0.047500
40.000000	1	-0.048500
