File Path	chrom://marshall/Chromeleon7/HPLC_Ultimate_3000/Users/markusar/20230616_CMO_FP13_14_15.seq/447.smp/RI_1.channel/RI_1.chm
Channel	RI_1

Injection Information:
Data Vault	Chromeleon7
Injection	FP14_4.2_s1
Injection Number	20
Position	BE1
Comment	
Processing Method	
Instrument Method	run_25B_method
Type	Unknown
Status	Finished
Injection Date	17.06.2023
Injection Time	05:27:10
Injection Volume (µl)	20.000
Dilution Factor	1.0000
Weight	1.0000

Chromatogram Data Information:
Time Min. (min)	0.000000
Time Max. (min)	40.000000
Data Points	2401
Detector	RI
Generating Data System	Chromeleon 7.2.5.9507
Exporting Data System	Chromeleon 7.2.5.0
Operator	Instrument Controller
Signal Quantity	Refractive 
Signal Unit	µRIU
Signal Min.	-0.583125
Signal Max.	54.335375
Channel	RI_1
Driver Name	RID520Driver.dll
Channel Type	Evaluation
Min. Step (s)	1
Max. Step (s)	1
Average Step (s)	1

Signal Parameter Information:
Signal Info	

Chromatogram Data:
Time (min)	Step (s)	Value (µRIU)
0.000000	n.a.	0.023500
0.016667	1	0.022125
0.033333	1	0.021500
0.050000	1	0.020500
0.066667	1	0.019625
0.083333	1	0.018875
0.100000	1	0.017750
0.116667	1	0.016000
0.133333	1	0.015625
0.150000	1	0.014875
0.166667	1	0.013750
0.183333	1	0.012750
0.200000	1	0.011625
0.216667	1	0.010750
0.233333	1	0.009875
0.250000	1	0.009375
0.266667	1	0.009000
0.283333	1	0.008375
0.300000	1	0.007750
0.316667	1	0.007125
0.333333	1	0.006625
0.350000	1	0.006375
0.366667	1	0.006000
0.383333	1	0.005250
0.400000	1	0.004625
0.416667	1	0.003750
0.433333	1	0.001875
0.450000	1	-0.000375
0.466667	1	-0.003375
0.483333	1	-0.003375
0.500000	1	-0.003375
0.516667	1	-0.000750
0.533333	1	0.001875
0.550000	1	0.005000
0.566667	1	0.007625
0.583333	1	0.010250
0.600000	1	0.012375
0.616667	1	0.014750
0.633333	1	0.016125
0.650000	1	0.016125
0.666667	1	0.015500
0.683333	1	0.014875
0.700000	1	0.013500
0.716667	1	0.012625
0.733333	1	0.011375
0.750000	1	0.010250
0.766667	1	0.009250
0.783333	1	0.008625
0.800000	1	0.008750
0.816667	1	0.008125
0.833333	1	0.008000
0.850000	1	0.007375
0.866667	1	0.007625
0.883333	1	0.008000
0.900000	1	0.008750
0.916667	1	0.008375
0.933333	1	0.008625
0.950000	1	0.008875
0.966667	1	0.009500
0.983333	1	0.010125
1.000000	1	0.010500
1.016667	1	0.010000
1.033333	1	0.009875
1.050000	1	0.009500
1.066667	1	0.009750
1.083333	1	0.009500
1.100000	1	0.009875
1.116667	1	0.010250
1.133333	1	0.010250
1.150000	1	0.009750
1.166667	1	0.009375
1.183333	1	0.009250
1.200000	1	0.008250
1.216667	1	0.008125
1.233333	1	0.008000
1.250000	1	0.007625
1.266667	1	0.006875
1.283333	1	0.006750
1.300000	1	0.005625
1.316667	1	0.004875
1.333333	1	0.004625
1.350000	1	0.003625
1.366667	1	0.002375
1.383333	1	0.002000
1.400000	1	0.001375
1.416667	1	0.001000
1.433333	1	0.000125
1.450000	1	-0.000750
1.466667	1	-0.001875
1.483333	1	-0.002875
1.500000	1	-0.003500
1.516667	1	-0.004750
1.533333	1	-0.006000
1.550000	1	-0.006750
1.566667	1	-0.007250
1.583333	1	-0.008250
1.600000	1	-0.008500
1.616667	1	-0.009500
1.633333	1	-0.010250
1.650000	1	-0.011250
1.666667	1	-0.012500
1.683333	1	-0.013125
1.700000	1	-0.013500
1.716667	1	-0.014375
1.733333	1	-0.014625
1.750000	1	-0.015250
1.766667	1	-0.016125
1.783333	1	-0.017125
1.800000	1	-0.018125
1.816667	1	-0.018000
1.833333	1	-0.018500
1.850000	1	-0.018750
1.866667	1	-0.019375
1.883333	1	-0.019500
1.900000	1	-0.019750
1.916667	1	-0.019750
1.933333	1	-0.020500
1.950000	1	-0.019875
1.966667	1	-0.020000
1.983333	1	-0.019875
2.000000	1	-0.020500
2.016667	1	-0.020500
2.033333	1	-0.020500
2.050000	1	-0.019875
2.066667	1	-0.019875
2.083333	1	-0.020625
2.100000	1	-0.020125
2.116667	1	-0.019875
2.133333	1	-0.019250
2.150000	1	-0.018750
2.166667	1	-0.018000
2.183333	1	-0.017750
2.200000	1	-0.018000
2.216667	1	-0.018000
2.233333	1	-0.018500
2.250000	1	-0.017500
2.266667	1	-0.016500
2.283333	1	-0.016250
2.300000	1	-0.016125
2.316667	1	-0.014875
2.333333	1	-0.014500
2.350000	1	-0.013750
2.366667	1	-0.012750
2.383333	1	-0.011750
2.400000	1	-0.011750
2.416667	1	-0.011750
2.433333	1	-0.011750
2.450000	1	-0.011500
2.466667	1	-0.010875
2.483333	1	-0.009875
2.500000	1	-0.008750
2.516667	1	-0.008000
2.533333	1	-0.007500
2.550000	1	-0.006625
2.566667	1	-0.006125
2.583333	1	-0.005875
2.600000	1	-0.005250
2.616667	1	-0.004500
2.633333	1	-0.003625
2.650000	1	-0.002750
2.666667	1	-0.002250
2.683333	1	-0.000375
2.700000	1	0.000500
2.716667	1	0.000750
2.733333	1	0.001500
2.750000	1	0.002750
2.766667	1	0.003250
2.783333	1	0.003875
2.800000	1	0.004375
2.816667	1	0.004625
2.833333	1	0.005625
2.850000	1	0.007000
2.866667	1	0.007375
2.883333	1	0.008375
2.900000	1	0.008875
2.916667	1	0.009875
2.933333	1	0.010125
2.950000	1	0.011000
2.966667	1	0.010750
2.983333	1	0.011750
3.000000	1	0.012000
3.016667	1	0.012125
3.033333	1	0.012375
3.050000	1	0.012625
3.066667	1	0.013000
3.083333	1	0.013500
3.100000	1	0.013375
3.116667	1	0.013375
3.133333	1	0.013250
3.150000	1	0.012875
3.166667	1	0.013375
3.183333	1	0.013000
3.200000	1	0.012750
3.216667	1	0.012500
3.233333	1	0.012500
3.250000	1	0.012625
3.266667	1	0.012000
3.283333	1	0.011750
3.300000	1	0.010750
3.316667	1	0.010250
3.333333	1	0.009500
3.350000	1	0.008875
3.366667	1	0.008250
3.383333	1	0.007875
3.400000	1	0.007000
3.416667	1	0.007000
3.433333	1	0.006125
3.450000	1	0.005500
3.466667	1	0.004625
3.483333	1	0.003875
3.500000	1	0.003250
3.516667	1	0.002750
3.533333	1	0.002125
3.550000	1	0.001250
3.566667	1	0.000750
3.583333	1	-0.000125
3.600000	1	-0.000750
3.616667	1	-0.001250
3.633333	1	-0.001625
3.650000	1	-0.002000
3.666667	1	-0.002750
3.683333	1	-0.003125
3.700000	1	-0.003000
3.716667	1	-0.003125
3.733333	1	-0.003750
3.750000	1	-0.004250
3.766667	1	-0.004625
3.783333	1	-0.005250
3.800000	1	-0.005500
3.816667	1	-0.006000
3.833333	1	-0.006375
3.850000	1	-0.006500
3.866667	1	-0.006125
3.883333	1	-0.005875
3.900000	1	-0.006125
3.916667	1	-0.005875
3.933333	1	-0.005625
3.950000	1	-0.005375
3.966667	1	-0.005500
3.983333	1	-0.005750
4.000000	1	-0.005375
4.016667	1	-0.005375
4.033333	1	-0.005375
4.050000	1	-0.004875
4.066667	1	-0.004750
4.083333	1	-0.005125
4.100000	1	-0.004750
4.116667	1	-0.005000
4.133333	1	-0.004750
4.150000	1	-0.005125
4.166667	1	-0.005625
4.183333	1	-0.006250
4.200000	1	-0.006000
4.216667	1	-0.006000
4.233333	1	-0.005625
4.250000	1	-0.005625
4.266667	1	-0.005750
4.283333	1	-0.005750
4.300000	1	-0.006375
4.316667	1	-0.006625
4.333333	1	-0.006750
4.350000	1	-0.006625
4.366667	1	-0.006625
4.383333	1	-0.006750
4.400000	1	-0.006000
4.416667	1	-0.006250
4.433333	1	-0.006000
4.450000	1	-0.006625
4.466667	1	-0.006500
4.483333	1	-0.005875
4.500000	1	-0.005625
4.516667	1	-0.005375
4.533333	1	-0.005250
4.550000	1	-0.005250
4.566667	1	-0.004875
4.583333	1	-0.005125
4.600000	1	-0.005250
4.616667	1	-0.004500
4.633333	1	-0.004125
4.650000	1	-0.003625
4.666667	1	-0.002375
4.683333	1	-0.002125
4.700000	1	-0.002250
4.716667	1	-0.002125
4.733333	1	-0.001875
4.750000	1	-0.001750
4.766667	1	-0.001375
4.783333	1	-0.001000
4.800000	1	0.000000
4.816667	1	0.000375
4.833333	1	0.000875
4.850000	1	0.001000
4.866667	1	0.001750
4.883333	1	0.002875
4.900000	1	0.004000
4.916667	1	0.004500
4.933333	1	0.005000
4.950000	1	0.005250
4.966667	1	0.006000
4.983333	1	0.006875
5.000000	1	0.008000
5.016667	1	0.009000
5.033333	1	0.010000
5.050000	1	0.010625
5.066667	1	0.012250
5.083333	1	0.013125
5.100000	1	0.014875
5.116667	1	0.016125
5.133333	1	0.017625
5.150000	1	0.019250
5.166667	1	0.020500
5.183333	1	0.021875
5.200000	1	0.023000
5.216667	1	0.024625
5.233333	1	0.026750
5.250000	1	0.028375
5.266667	1	0.030625
5.283333	1	0.032250
5.300000	1	0.034250
5.316667	1	0.036000
5.333333	1	0.037750
5.350000	1	0.039250
5.366667	1	0.041125
5.383333	1	0.043375
5.400000	1	0.045250
5.416667	1	0.047125
5.433333	1	0.049250
5.450000	1	0.051375
5.466667	1	0.053750
5.483333	1	0.055375
5.500000	1	0.057500
5.516667	1	0.059625
5.533333	1	0.061625
5.550000	1	0.063625
5.566667	1	0.065625
5.583333	1	0.066750
5.600000	1	0.068125
5.616667	1	0.069750
5.633333	1	0.071625
5.650000	1	0.072625
5.666667	1	0.074750
5.683333	1	0.075750
5.700000	1	0.076750
5.716667	1	0.078000
5.733333	1	0.078875
5.750000	1	0.079250
5.766667	1	0.081250
5.783333	1	0.081625
5.800000	1	0.082500
5.816667	1	0.083125
5.833333	1	0.084000
5.850000	1	0.084250
5.866667	1	0.084000
5.883333	1	0.084375
5.900000	1	0.084625
5.916667	1	0.084000
5.933333	1	0.084625
5.950000	1	0.085125
5.966667	1	0.085125
5.983333	1	0.085750
6.000000	1	0.086000
6.016667	1	0.085625
6.033333	1	0.085500
6.050000	1	0.085750
6.066667	1	0.085500
6.083333	1	0.085375
6.100000	1	0.086125
6.116667	1	0.086250
6.133333	1	0.086500
6.150000	1	0.087125
6.166667	1	0.087000
6.183333	1	0.086625
6.200000	1	0.086875
6.216667	1	0.087250
6.233333	1	0.087625
6.250000	1	0.087500
6.266667	1	0.087625
6.283333	1	0.087500
6.300000	1	0.087125
6.316667	1	0.087375
6.333333	1	0.087750
6.350000	1	0.087750
6.366667	1	0.087625
6.383333	1	0.087875
6.400000	1	0.087375
6.416667	1	0.087375
6.433333	1	0.087125
6.450000	1	0.086750
6.466667	1	0.086375
6.483333	1	0.086000
6.500000	1	0.086000
6.516667	1	0.086125
6.533333	1	0.085875
6.550000	1	0.085250
6.566667	1	0.084750
6.583333	1	0.084500
6.600000	1	0.084500
6.616667	1	0.084625
6.633333	1	0.084625
6.650000	1	0.084125
6.666667	1	0.084875
6.683333	1	0.084875
6.700000	1	0.085125
6.716667	1	0.085250
6.733333	1	0.085875
6.750000	1	0.086125
6.766667	1	0.086375
6.783333	1	0.086375
6.800000	1	0.086750
6.816667	1	0.087625
6.833333	1	0.088375
6.850000	1	0.089875
6.866667	1	0.090750
6.883333	1	0.091125
6.900000	1	0.092125
6.916667	1	0.093375
6.933333	1	0.093875
6.950000	1	0.094375
6.966667	1	0.095375
6.983333	1	0.096250
7.000000	1	0.096750
7.016667	1	0.097375
7.033333	1	0.098375
7.050000	1	0.099375
7.066667	1	0.100000
7.083333	1	0.100375
7.100000	1	0.100875
7.116667	1	0.101125
7.133333	1	0.101000
7.150000	1	0.101125
7.166667	1	0.101250
7.183333	1	0.101375
7.200000	1	0.101250
7.216667	1	0.100875
7.233333	1	0.100375
7.250000	1	0.099875
7.266667	1	0.099375
7.283333	1	0.098875
7.300000	1	0.098000
7.316667	1	0.097250
7.333333	1	0.096375
7.350000	1	0.095250
7.366667	1	0.094000
7.383333	1	0.092625
7.400000	1	0.091375
7.416667	1	0.090125
7.433333	1	0.088750
7.450000	1	0.087750
7.466667	1	0.085750
7.483333	1	0.083500
7.500000	1	0.081750
7.516667	1	0.080250
7.533333	1	0.078500
7.550000	1	0.076500
7.566667	1	0.075125
7.583333	1	0.073625
7.600000	1	0.071875
7.616667	1	0.069750
7.633333	1	0.067500
7.650000	1	0.065750
7.666667	1	0.064250
7.683333	1	0.063000
7.700000	1	0.061375
7.716667	1	0.059625
7.733333	1	0.058625
7.750000	1	0.057625
7.766667	1	0.056625
7.783333	1	0.054875
7.800000	1	0.053125
7.816667	1	0.051875
7.833333	1	0.051250
7.850000	1	0.050000
7.866667	1	0.048500
7.883333	1	0.048000
7.900000	1	0.047625
7.916667	1	0.046875
7.933333	1	0.045875
7.950000	1	0.045625
7.966667	1	0.045250
7.983333	1	0.044625
8.000000	1	0.044000
8.016667	1	0.043375
8.033333	1	0.042750
8.050000	1	0.043000
8.066667	1	0.043000
8.083333	1	0.043500
8.100000	1	0.042875
8.116667	1	0.043000
8.133333	1	0.042750
8.150000	1	0.042750
8.166667	1	0.042375
8.183333	1	0.042625
8.200000	1	0.042375
8.216667	1	0.042500
8.233333	1	0.043250
8.250000	1	0.043250
8.266667	1	0.043750
8.283333	1	0.043875
8.300000	1	0.044500
8.316667	1	0.043750
8.333333	1	0.044125
8.350000	1	0.044250
8.366667	1	0.044500
8.383333	1	0.044625
8.400000	1	0.044875
8.416667	1	0.045375
8.433333	1	0.045500
8.450000	1	0.045750
8.466667	1	0.045750
8.483333	1	0.045500
8.500000	1	0.045625
8.516667	1	0.045875
8.533333	1	0.045625
8.550000	1	0.046125
8.566667	1	0.046375
8.583333	1	0.046125
8.600000	1	0.046875
8.616667	1	0.046875
8.633333	1	0.046500
8.650000	1	0.047125
8.666667	1	0.047500
8.683333	1	0.047625
8.700000	1	0.047750
8.716667	1	0.047500
8.733333	1	0.048375
8.750000	1	0.048125
8.766667	1	0.048250
8.783333	1	0.048625
8.800000	1	0.048875
8.816667	1	0.049000
8.833333	1	0.048875
8.850000	1	0.049000
8.866667	1	0.049500
8.883333	1	0.049875
8.900000	1	0.050500
8.916667	1	0.051000
8.933333	1	0.051000
8.950000	1	0.051625
8.966667	1	0.051750
8.983333	1	0.052500
9.000000	1	0.052625
9.016667	1	0.053250
9.033333	1	0.053875
9.050000	1	0.054375
9.066667	1	0.054750
9.083333	1	0.055375
9.100000	1	0.055500
9.116667	1	0.056125
9.133333	1	0.057375
9.150000	1	0.058375
9.166667	1	0.059375
9.183333	1	0.060625
9.200000	1	0.061250
9.216667	1	0.061875
9.233333	1	0.063125
9.250000	1	0.064125
9.266667	1	0.065625
9.283333	1	0.066875
9.300000	1	0.068250
9.316667	1	0.069250
9.333333	1	0.070875
9.350000	1	0.071875
9.366667	1	0.073750
9.383333	1	0.076125
9.400000	1	0.077750
9.416667	1	0.079125
9.433333	1	0.080625
9.450000	1	0.082875
9.466667	1	0.086000
9.483333	1	0.089375
9.500000	1	0.094250
9.516667	1	0.098750
9.533333	1	0.104000
9.550000	1	0.110000
9.566667	1	0.116625
9.583333	1	0.124500
9.600000	1	0.133250
9.616667	1	0.142875
9.633333	1	0.153000
9.650000	1	0.163500
9.666667	1	0.174250
9.683333	1	0.184875
9.700000	1	0.194875
9.716667	1	0.204125
9.733333	1	0.211750
9.750000	1	0.217375
9.766667	1	0.221625
9.783333	1	0.225375
9.800000	1	0.229000
9.816667	1	0.234125
9.833333	1	0.245000
9.850000	1	0.265125
9.866667	1	0.300750
9.883333	1	0.357375
9.900000	1	0.443250
9.916667	1	0.566375
9.933333	1	0.738375
9.950000	1	0.972750
9.966667	1	1.286625
9.983333	1	1.701250
10.000000	1	2.240000
10.016667	1	2.925875
10.033333	1	3.784000
10.050000	1	4.831875
10.066667	1	6.084000
10.083333	1	7.545000
10.100000	1	9.214000
10.116667	1	11.076875
10.133333	1	13.109750
10.150000	1	15.277500
10.166667	1	17.533000
10.183333	1	19.817500
10.200000	1	22.064125
10.216667	1	24.199750
10.233333	1	26.148875
10.250000	1	27.838625
10.266667	1	29.203375
10.283333	1	30.192625
10.300000	1	30.776000
10.316667	1	30.946250
10.333333	1	30.722750
10.350000	1	30.150125
10.366667	1	29.289875
10.383333	1	28.215000
10.400000	1	26.996375
10.416667	1	25.700000
10.433333	1	24.378500
10.450000	1	23.071875
10.466667	1	21.803375
10.483333	1	20.586750
10.500000	1	19.426500
10.516667	1	18.322625
10.533333	1	17.270250
10.550000	1	16.265875
10.566667	1	15.304625
10.583333	1	14.382625
10.600000	1	13.496125
10.616667	1	12.642750
10.633333	1	11.821875
10.650000	1	11.033500
10.666667	1	10.276375
10.683333	1	9.551375
10.700000	1	8.860625
10.716667	1	8.205250
10.733333	1	7.587125
10.750000	1	7.007750
10.766667	1	6.469375
10.783333	1	5.972500
10.800000	1	5.516875
10.816667	1	5.101750
10.833333	1	4.727000
10.850000	1	4.390875
10.866667	1	4.089875
10.883333	1	3.821375
10.900000	1	3.583625
10.916667	1	3.372750
10.933333	1	3.186125
10.950000	1	3.019000
10.966667	1	2.871125
10.983333	1	2.738750
11.000000	1	2.620000
11.016667	1	2.514250
11.033333	1	2.417875
11.050000	1	2.331375
11.066667	1	2.252250
11.083333	1	2.180125
11.100000	1	2.113875
11.116667	1	2.053000
11.133333	1	1.996625
11.150000	1	1.944250
11.166667	1	1.895625
11.183333	1	1.850750
11.200000	1	1.808250
11.216667	1	1.769125
11.233333	1	1.733250
11.250000	1	1.699750
11.266667	1	1.668375
11.283333	1	1.639375
11.300000	1	1.612875
11.316667	1	1.588625
11.333333	1	1.566750
11.350000	1	1.548125
11.366667	1	1.531000
11.383333	1	1.516375
11.400000	1	1.503750
11.416667	1	1.492375
11.433333	1	1.482750
11.450000	1	1.474500
11.466667	1	1.465875
11.483333	1	1.457250
11.500000	1	1.449250
11.516667	1	1.440250
11.533333	1	1.431500
11.550000	1	1.421125
11.566667	1	1.410625
11.583333	1	1.398375
11.600000	1	1.385750
11.616667	1	1.372875
11.633333	1	1.359500
11.650000	1	1.345500
11.666667	1	1.331625
11.683333	1	1.317375
11.700000	1	1.303625
11.716667	1	1.290000
11.733333	1	1.277375
11.750000	1	1.265500
11.766667	1	1.254625
11.783333	1	1.244125
11.800000	1	1.235125
11.816667	1	1.227500
11.833333	1	1.221625
11.850000	1	1.218625
11.866667	1	1.218625
11.883333	1	1.221875
11.900000	1	1.228750
11.916667	1	1.240750
11.933333	1	1.257750
11.950000	1	1.281750
11.966667	1	1.312125
11.983333	1	1.350500
12.000000	1	1.398625
12.016667	1	1.456750
12.033333	1	1.527000
12.050000	1	1.610875
12.066667	1	1.709125
12.083333	1	1.823625
12.100000	1	1.957375
12.116667	1	2.112500
12.133333	1	2.290625
12.150000	1	2.494000
12.166667	1	2.726750
12.183333	1	2.990625
12.200000	1	3.289500
12.216667	1	3.626875
12.233333	1	4.006875
12.250000	1	4.433000
12.266667	1	4.912125
12.283333	1	5.451125
12.300000	1	6.057875
12.316667	1	6.745000
12.333333	1	7.526250
12.350000	1	8.418750
12.366667	1	9.443750
12.383333	1	10.627750
12.400000	1	11.997750
12.416667	1	13.581250
12.433333	1	15.399875
12.450000	1	17.475000
12.466667	1	19.814750
12.483333	1	22.414500
12.500000	1	25.252375
12.516667	1	28.289125
12.533333	1	31.466750
12.550000	1	34.712375
12.566667	1	37.943250
12.583333	1	41.074500
12.600000	1	44.017875
12.616667	1	46.689625
12.633333	1	49.022750
12.650000	1	50.963375
12.666667	1	52.475625
12.683333	1	53.539625
12.700000	1	54.155125
12.716667	1	54.335375
12.733333	1	54.107000
12.750000	1	53.508500
12.766667	1	52.584750
12.783333	1	51.382750
12.800000	1	49.954875
12.816667	1	48.350875
12.833333	1	46.615500
12.850000	1	44.787250
12.866667	1	42.901750
12.883333	1	40.989000
12.900000	1	39.076000
12.916667	1	37.183625
12.933333	1	35.329750
12.950000	1	33.527250
12.966667	1	31.784000
12.983333	1	30.107250
13.000000	1	28.500250
13.016667	1	26.965125
13.033333	1	25.500250
13.050000	1	24.103250
13.066667	1	22.771625
13.083333	1	21.501625
13.100000	1	20.289750
13.116667	1	19.134125
13.133333	1	18.030875
13.150000	1	16.976625
13.166667	1	15.968875
13.183333	1	15.005375
13.200000	1	14.082875
13.216667	1	13.197625
13.233333	1	12.347375
13.250000	1	11.528000
13.266667	1	10.736000
13.283333	1	9.967875
13.300000	1	9.219750
13.316667	1	8.490125
13.333333	1	7.780000
13.350000	1	7.096000
13.366667	1	6.449125
13.383333	1	5.852750
13.400000	1	5.318500
13.416667	1	4.852375
13.433333	1	4.452375
13.450000	1	4.112000
13.466667	1	3.823375
13.483333	1	3.577500
13.500000	1	3.367375
13.516667	1	3.186500
13.533333	1	3.029000
13.550000	1	2.891750
13.566667	1	2.770500
13.583333	1	2.662625
13.600000	1	2.566250
13.616667	1	2.479500
13.633333	1	2.401375
13.650000	1	2.330125
13.666667	1	2.264625
13.683333	1	2.203750
13.700000	1	2.147500
13.716667	1	2.096125
13.733333	1	2.047250
13.750000	1	2.001000
13.766667	1	1.956750
13.783333	1	1.914125
13.800000	1	1.873375
13.816667	1	1.833750
13.833333	1	1.795500
13.850000	1	1.758375
13.866667	1	1.722625
13.883333	1	1.687250
13.900000	1	1.652250
13.916667	1	1.618000
13.933333	1	1.584875
13.950000	1	1.552375
13.966667	1	1.520500
13.983333	1	1.489000
14.000000	1	1.457625
14.016667	1	1.427875
14.033333	1	1.398500
14.050000	1	1.370250
14.066667	1	1.342500
14.083333	1	1.316375
14.100000	1	1.291500
14.116667	1	1.267125
14.133333	1	1.243500
14.150000	1	1.221250
14.166667	1	1.200125
14.183333	1	1.179625
14.200000	1	1.159750
14.216667	1	1.141375
14.233333	1	1.124375
14.250000	1	1.108750
14.266667	1	1.093875
14.283333	1	1.080375
14.300000	1	1.067125
14.316667	1	1.055750
14.333333	1	1.044750
14.350000	1	1.036000
14.366667	1	1.028375
14.383333	1	1.020875
14.400000	1	1.014125
14.416667	1	1.008000
14.433333	1	1.002500
14.450000	1	0.997875
14.466667	1	0.993000
14.483333	1	0.989625
14.500000	1	0.986125
14.516667	1	0.982500
14.533333	1	0.979250
14.550000	1	0.975250
14.566667	1	0.972250
14.583333	1	0.968000
14.600000	1	0.963500
14.616667	1	0.959375
14.633333	1	0.955625
14.650000	1	0.952000
14.666667	1	0.948250
14.683333	1	0.944125
14.700000	1	0.940000
14.716667	1	0.936375
14.733333	1	0.932875
14.750000	1	0.929875
14.766667	1	0.927000
14.783333	1	0.924375
14.800000	1	0.922375
14.816667	1	0.920250
14.833333	1	0.918375
14.850000	1	0.916500
14.866667	1	0.915375
14.883333	1	0.914375
14.900000	1	0.913500
14.916667	1	0.912250
14.933333	1	0.911500
14.950000	1	0.910500
14.966667	1	0.908875
14.983333	1	0.907250
15.000000	1	0.904500
15.016667	1	0.901750
15.033333	1	0.899375
15.050000	1	0.896625
15.066667	1	0.893500
15.083333	1	0.890000
15.100000	1	0.886250
15.116667	1	0.882250
15.133333	1	0.878875
15.150000	1	0.875375
15.166667	1	0.872125
15.183333	1	0.869000
15.200000	1	0.865375
15.216667	1	0.862375
15.233333	1	0.859500
15.250000	1	0.856500
15.266667	1	0.854375
15.283333	1	0.852750
15.300000	1	0.850500
15.316667	1	0.849125
15.333333	1	0.848625
15.350000	1	0.848125
15.366667	1	0.848875
15.383333	1	0.850875
15.400000	1	0.852375
15.416667	1	0.854750
15.433333	1	0.859250
15.450000	1	0.865125
15.466667	1	0.872750
15.483333	1	0.881250
15.500000	1	0.891625
15.516667	1	0.904500
15.533333	1	0.918875
15.550000	1	0.934625
15.566667	1	0.950625
15.583333	1	0.968250
15.600000	1	0.985750
15.616667	1	1.003375
15.633333	1	1.019375
15.650000	1	1.034375
15.666667	1	1.047250
15.683333	1	1.058000
15.700000	1	1.066500
15.716667	1	1.072875
15.733333	1	1.076125
15.750000	1	1.077125
15.766667	1	1.075375
15.783333	1	1.071625
15.800000	1	1.066125
15.816667	1	1.059250
15.833333	1	1.051250
15.850000	1	1.042250
15.866667	1	1.032000
15.883333	1	1.021000
15.900000	1	1.010125
15.916667	1	0.999250
15.933333	1	0.988250
15.950000	1	0.977000
15.966667	1	0.965250
15.983333	1	0.954125
16.000000	1	0.943625
16.016667	1	0.934000
16.033333	1	0.924875
16.050000	1	0.916375
16.066667	1	0.908875
16.083333	1	0.901625
16.100000	1	0.895250
16.116667	1	0.889875
16.133333	1	0.884750
16.150000	1	0.879875
16.166667	1	0.876125
16.183333	1	0.872500
16.200000	1	0.869500
16.216667	1	0.866500
16.233333	1	0.864125
16.250000	1	0.862625
16.266667	1	0.860750
16.283333	1	0.859250
16.300000	1	0.857000
16.316667	1	0.855375
16.333333	1	0.853625
16.350000	1	0.851500
16.366667	1	0.850125
16.383333	1	0.849000
16.400000	1	0.847500
16.416667	1	0.845750
16.433333	1	0.844625
16.450000	1	0.844250
16.466667	1	0.843875
16.483333	1	0.843500
16.500000	1	0.842750
16.516667	1	0.843250
16.533333	1	0.843250
16.550000	1	0.843000
16.566667	1	0.843250
16.583333	1	0.844000
16.600000	1	0.844250
16.616667	1	0.844125
16.633333	1	0.845000
16.650000	1	0.845625
16.666667	1	0.846875
16.683333	1	0.848250
16.700000	1	0.849500
16.716667	1	0.850625
16.733333	1	0.853000
16.750000	1	0.854750
16.766667	1	0.857000
16.783333	1	0.859375
16.800000	1	0.862250
16.816667	1	0.864875
16.833333	1	0.867750
16.850000	1	0.870625
16.866667	1	0.873125
16.883333	1	0.875250
16.900000	1	0.877750
16.916667	1	0.879125
16.933333	1	0.880500
16.950000	1	0.882000
16.966667	1	0.883375
16.983333	1	0.884250
17.000000	1	0.885000
17.016667	1	0.885625
17.033333	1	0.886125
17.050000	1	0.887250
17.066667	1	0.887375
17.083333	1	0.887875
17.100000	1	0.888000
17.116667	1	0.888125
17.133333	1	0.887625
17.150000	1	0.886875
17.166667	1	0.885125
17.183333	1	0.882750
17.200000	1	0.879875
17.216667	1	0.876125
17.233333	1	0.872250
17.250000	1	0.867375
17.266667	1	0.861750
17.283333	1	0.855875
17.300000	1	0.849000
17.316667	1	0.842000
17.333333	1	0.834500
17.350000	1	0.827250
17.366667	1	0.819375
17.383333	1	0.811375
17.400000	1	0.803750
17.416667	1	0.796375
17.433333	1	0.789375
17.450000	1	0.781875
17.466667	1	0.776125
17.483333	1	0.770875
17.500000	1	0.766375
17.516667	1	0.762625
17.533333	1	0.759875
17.550000	1	0.757875
17.566667	1	0.757000
17.583333	1	0.756750
17.600000	1	0.757875
17.616667	1	0.760250
17.633333	1	0.763625
17.650000	1	0.767750
17.666667	1	0.772750
17.683333	1	0.778875
17.700000	1	0.785125
17.716667	1	0.792750
17.733333	1	0.800625
17.750000	1	0.809750
17.766667	1	0.818875
17.783333	1	0.828125
17.800000	1	0.837875
17.816667	1	0.847500
17.833333	1	0.857375
17.850000	1	0.866875
17.866667	1	0.875875
17.883333	1	0.884000
17.900000	1	0.891625
17.916667	1	0.898625
17.933333	1	0.904125
17.950000	1	0.909375
17.966667	1	0.912125
17.983333	1	0.913750
18.000000	1	0.914250
18.016667	1	0.913625
18.033333	1	0.912625
18.050000	1	0.910375
18.066667	1	0.906875
18.083333	1	0.901500
18.100000	1	0.896125
18.116667	1	0.890000
18.133333	1	0.882875
18.150000	1	0.874250
18.166667	1	0.866250
18.183333	1	0.856875
18.200000	1	0.847125
18.216667	1	0.837500
18.233333	1	0.827750
18.250000	1	0.817625
18.266667	1	0.807375
18.283333	1	0.797750
18.300000	1	0.787750
18.316667	1	0.778125
18.333333	1	0.769375
18.350000	1	0.761125
18.366667	1	0.753125
18.383333	1	0.745250
18.400000	1	0.737625
18.416667	1	0.731375
18.433333	1	0.725500
18.450000	1	0.720500
18.466667	1	0.715375
18.483333	1	0.710750
18.500000	1	0.706750
18.516667	1	0.703125
18.533333	1	0.700375
18.550000	1	0.697750
18.566667	1	0.695750
18.583333	1	0.694125
18.600000	1	0.692500
18.616667	1	0.692250
18.633333	1	0.692250
18.650000	1	0.692875
18.666667	1	0.694375
18.683333	1	0.695875
18.700000	1	0.698250
18.716667	1	0.701000
18.733333	1	0.704875
18.750000	1	0.708750
18.766667	1	0.713625
18.783333	1	0.719000
18.800000	1	0.724250
18.816667	1	0.730625
18.833333	1	0.738125
18.850000	1	0.745125
18.866667	1	0.753375
18.883333	1	0.761875
18.900000	1	0.771250
18.916667	1	0.781125
18.933333	1	0.790875
18.950000	1	0.802250
18.966667	1	0.814750
18.983333	1	0.828875
19.000000	1	0.844000
19.016667	1	0.860625
19.033333	1	0.878750
19.050000	1	0.898375
19.066667	1	0.920375
19.083333	1	0.943875
19.100000	1	0.969375
19.116667	1	0.996500
19.133333	1	1.025500
19.150000	1	1.055500
19.166667	1	1.087250
19.183333	1	1.120000
19.200000	1	1.153375
19.216667	1	1.186625
19.233333	1	1.220250
19.250000	1	1.251500
19.266667	1	1.281500
19.283333	1	1.309500
19.300000	1	1.334500
19.316667	1	1.356250
19.333333	1	1.375125
19.350000	1	1.389625
19.366667	1	1.400125
19.383333	1	1.407500
19.400000	1	1.410000
19.416667	1	1.408375
19.433333	1	1.402750
19.450000	1	1.393125
19.466667	1	1.381000
19.483333	1	1.365000
19.500000	1	1.345875
19.516667	1	1.323625
19.533333	1	1.300500
19.550000	1	1.275000
19.566667	1	1.248125
19.583333	1	1.220750
19.600000	1	1.192375
19.616667	1	1.164875
19.633333	1	1.137375
19.650000	1	1.110500
19.666667	1	1.084750
19.683333	1	1.060125
19.700000	1	1.037750
19.716667	1	1.016750
19.733333	1	0.998125
19.750000	1	0.981375
19.766667	1	0.967000
19.783333	1	0.954000
19.800000	1	0.943375
19.816667	1	0.935875
19.833333	1	0.930500
19.850000	1	0.927125
19.866667	1	0.925500
19.883333	1	0.926625
19.900000	1	0.928500
19.916667	1	0.931875
19.933333	1	0.936250
19.950000	1	0.941375
19.966667	1	0.946500
19.983333	1	0.952250
20.000000	1	0.958375
20.016667	1	0.964875
20.033333	1	0.971000
20.050000	1	0.977125
20.066667	1	0.982625
20.083333	1	0.987750
20.100000	1	0.992750
20.116667	1	0.997625
20.133333	1	1.002250
20.150000	1	1.006125
20.166667	1	1.010875
20.183333	1	1.015375
20.200000	1	1.019250
20.216667	1	1.024000
20.233333	1	1.029125
20.250000	1	1.035375
20.266667	1	1.042000
20.283333	1	1.048375
20.300000	1	1.056625
20.316667	1	1.065875
20.333333	1	1.076000
20.350000	1	1.086000
20.366667	1	1.095875
20.383333	1	1.107250
20.400000	1	1.118000
20.416667	1	1.128125
20.433333	1	1.138750
20.450000	1	1.148625
20.466667	1	1.156750
20.483333	1	1.164625
20.500000	1	1.171250
20.516667	1	1.175625
20.533333	1	1.179000
20.550000	1	1.181125
20.566667	1	1.181625
20.583333	1	1.180625
20.600000	1	1.178125
20.616667	1	1.174875
20.633333	1	1.169625
20.650000	1	1.164500
20.666667	1	1.160000
20.683333	1	1.155125
20.700000	1	1.151000
20.716667	1	1.148000
20.733333	1	1.145125
20.750000	1	1.144750
20.766667	1	1.147250
20.783333	1	1.151125
20.800000	1	1.158000
20.816667	1	1.166875
20.833333	1	1.177625
20.850000	1	1.190375
20.866667	1	1.205000
20.883333	1	1.220750
20.900000	1	1.237500
20.916667	1	1.254375
20.933333	1	1.270875
20.950000	1	1.286000
20.966667	1	1.299250
20.983333	1	1.309875
21.000000	1	1.317750
21.016667	1	1.322000
21.033333	1	1.322625
21.050000	1	1.319500
21.066667	1	1.312375
21.083333	1	1.300250
21.100000	1	1.285375
21.116667	1	1.265625
21.133333	1	1.243125
21.150000	1	1.217750
21.166667	1	1.189250
21.183333	1	1.159000
21.200000	1	1.127125
21.216667	1	1.093875
21.233333	1	1.060000
21.250000	1	1.026000
21.266667	1	0.990875
21.283333	1	0.956625
21.300000	1	0.923250
21.316667	1	0.889875
21.333333	1	0.857000
21.350000	1	0.826125
21.366667	1	0.796250
21.383333	1	0.767375
21.400000	1	0.740375
21.416667	1	0.714250
21.433333	1	0.689875
21.450000	1	0.667625
21.466667	1	0.646375
21.483333	1	0.626375
21.500000	1	0.608625
21.516667	1	0.592000
21.533333	1	0.576750
21.550000	1	0.562875
21.566667	1	0.550750
21.583333	1	0.539750
21.600000	1	0.529375
21.616667	1	0.520375
21.633333	1	0.512750
21.650000	1	0.506625
21.666667	1	0.501375
21.683333	1	0.496625
21.700000	1	0.493000
21.716667	1	0.490250
21.733333	1	0.488375
21.750000	1	0.487375
21.766667	1	0.487625
21.783333	1	0.489500
21.800000	1	0.491250
21.816667	1	0.494500
21.833333	1	0.498250
21.850000	1	0.502250
21.866667	1	0.506625
21.883333	1	0.511250
21.900000	1	0.516875
21.916667	1	0.523375
21.933333	1	0.529625
21.950000	1	0.536500
21.966667	1	0.543750
21.983333	1	0.549875
22.000000	1	0.555625
22.016667	1	0.561875
22.033333	1	0.567250
22.050000	1	0.572250
22.066667	1	0.576625
22.083333	1	0.580000
22.100000	1	0.582500
22.116667	1	0.584000
22.133333	1	0.585125
22.150000	1	0.584625
22.166667	1	0.583250
22.183333	1	0.581500
22.200000	1	0.578375
22.216667	1	0.575125
22.233333	1	0.571125
22.250000	1	0.566875
22.266667	1	0.562625
22.283333	1	0.557625
22.300000	1	0.552750
22.316667	1	0.548250
22.333333	1	0.543750
22.350000	1	0.538875
22.366667	1	0.534625
22.383333	1	0.530500
22.400000	1	0.527000
22.416667	1	0.523375
22.433333	1	0.521125
22.450000	1	0.518625
22.466667	1	0.517125
22.483333	1	0.515000
22.500000	1	0.514000
22.516667	1	0.513750
22.533333	1	0.514125
22.550000	1	0.514750
22.566667	1	0.515750
22.583333	1	0.516625
22.600000	1	0.518125
22.616667	1	0.519875
22.633333	1	0.521375
22.650000	1	0.523000
22.666667	1	0.524000
22.683333	1	0.526375
22.700000	1	0.528250
22.716667	1	0.529375
22.733333	1	0.530750
22.750000	1	0.532625
22.766667	1	0.533500
22.783333	1	0.534250
22.800000	1	0.534750
22.816667	1	0.534625
22.833333	1	0.534000
22.850000	1	0.533375
22.866667	1	0.532250
22.883333	1	0.531875
22.900000	1	0.530125
22.916667	1	0.527875
22.933333	1	0.525250
22.950000	1	0.523250
22.966667	1	0.521375
22.983333	1	0.518875
23.000000	1	0.516750
23.016667	1	0.515000
23.033333	1	0.514000
23.050000	1	0.513000
23.066667	1	0.511375
23.083333	1	0.510750
23.100000	1	0.511000
23.116667	1	0.511750
23.133333	1	0.513125
23.150000	1	0.515625
23.166667	1	0.519750
23.183333	1	0.524375
23.200000	1	0.530250
23.216667	1	0.537625
23.233333	1	0.546750
23.250000	1	0.556250
23.266667	1	0.567250
23.283333	1	0.580500
23.300000	1	0.595250
23.316667	1	0.612250
23.333333	1	0.631125
23.350000	1	0.652000
23.366667	1	0.674625
23.383333	1	0.699750
23.400000	1	0.727500
23.416667	1	0.757625
23.433333	1	0.789750
23.450000	1	0.825000
23.466667	1	0.863250
23.483333	1	0.905375
23.500000	1	0.950250
23.516667	1	0.998125
23.533333	1	1.050875
23.550000	1	1.108250
23.566667	1	1.170125
23.583333	1	1.237375
23.600000	1	1.310625
23.616667	1	1.390000
23.633333	1	1.475375
23.650000	1	1.568125
23.666667	1	1.667000
23.683333	1	1.773875
23.700000	1	1.888000
23.716667	1	2.008250
23.733333	1	2.135250
23.750000	1	2.267375
23.766667	1	2.404375
23.783333	1	2.544125
23.800000	1	2.685875
23.816667	1	2.828375
23.833333	1	2.969250
23.850000	1	3.106625
23.866667	1	3.237875
23.883333	1	3.361375
23.900000	1	3.475500
23.916667	1	3.578500
23.933333	1	3.668250
23.950000	1	3.744375
23.966667	1	3.804875
23.983333	1	3.848375
24.000000	1	3.876000
24.016667	1	3.886375
24.033333	1	3.880750
24.050000	1	3.858375
24.066667	1	3.821500
24.083333	1	3.769625
24.100000	1	3.703625
24.116667	1	3.626625
24.133333	1	3.539750
24.150000	1	3.442625
24.166667	1	3.338500
24.183333	1	3.228500
24.200000	1	3.113750
24.216667	1	2.995625
24.233333	1	2.875500
24.250000	1	2.755125
24.266667	1	2.634875
24.283333	1	2.515000
24.300000	1	2.397375
24.316667	1	2.282875
24.333333	1	2.172000
24.350000	1	2.065250
24.366667	1	1.962250
24.383333	1	1.864500
24.400000	1	1.771250
24.416667	1	1.682875
24.433333	1	1.600000
24.450000	1	1.521625
24.466667	1	1.448625
24.483333	1	1.380500
24.500000	1	1.316750
24.516667	1	1.257625
24.533333	1	1.202625
24.550000	1	1.152250
24.566667	1	1.105375
24.583333	1	1.061625
24.600000	1	1.021125
24.616667	1	0.983250
24.633333	1	0.948500
24.650000	1	0.916500
24.666667	1	0.887125
24.683333	1	0.859000
24.700000	1	0.833000
24.716667	1	0.808375
24.733333	1	0.785625
24.750000	1	0.763500
24.766667	1	0.741875
24.783333	1	0.720750
24.800000	1	0.701000
24.816667	1	0.682125
24.833333	1	0.663875
24.850000	1	0.645875
24.866667	1	0.628375
24.883333	1	0.611250
24.900000	1	0.594125
24.916667	1	0.577375
24.933333	1	0.561000
24.950000	1	0.545875
24.966667	1	0.531125
24.983333	1	0.515750
25.000000	1	0.500875
25.016667	1	0.487000
25.033333	1	0.473625
25.050000	1	0.460000
25.066667	1	0.447125
25.083333	1	0.435500
25.100000	1	0.423500
25.116667	1	0.412375
25.133333	1	0.402375
25.150000	1	0.392500
25.166667	1	0.383625
25.183333	1	0.375125
25.200000	1	0.367125
25.216667	1	0.359625
25.233333	1	0.352125
25.250000	1	0.346125
25.266667	1	0.341250
25.283333	1	0.336000
25.300000	1	0.331375
25.316667	1	0.327250
25.333333	1	0.323625
25.350000	1	0.321500
25.366667	1	0.319125
25.383333	1	0.317250
25.400000	1	0.314875
25.416667	1	0.313375
25.433333	1	0.311875
25.450000	1	0.310875
25.466667	1	0.310875
25.483333	1	0.310625
25.500000	1	0.310750
25.516667	1	0.310125
25.533333	1	0.310125
25.550000	1	0.311000
25.566667	1	0.311500
25.583333	1	0.312000
25.600000	1	0.312500
25.616667	1	0.312250
25.633333	1	0.312500
25.650000	1	0.312500
25.666667	1	0.313375
25.683333	1	0.314250
25.700000	1	0.315000
25.716667	1	0.315500
25.733333	1	0.316000
25.750000	1	0.316500
25.766667	1	0.317250
25.783333	1	0.317875
25.800000	1	0.318500
25.816667	1	0.318875
25.833333	1	0.319500
25.850000	1	0.320000
25.866667	1	0.320500
25.883333	1	0.321500
25.900000	1	0.323125
25.916667	1	0.323875
25.933333	1	0.324250
25.950000	1	0.324750
25.966667	1	0.326375
25.983333	1	0.326750
26.000000	1	0.327500
26.016667	1	0.329000
26.033333	1	0.329875
26.050000	1	0.331125
26.066667	1	0.331625
26.083333	1	0.331875
26.100000	1	0.332375
26.116667	1	0.333500
26.133333	1	0.333875
26.150000	1	0.334875
26.166667	1	0.335500
26.183333	1	0.336750
26.200000	1	0.337625
26.216667	1	0.338500
26.233333	1	0.340125
26.250000	1	0.341250
26.266667	1	0.342875
26.283333	1	0.344250
26.300000	1	0.345625
26.316667	1	0.347375
26.333333	1	0.348750
26.350000	1	0.351625
26.366667	1	0.353875
26.383333	1	0.356000
26.400000	1	0.358500
26.416667	1	0.360875
26.433333	1	0.362750
26.450000	1	0.365375
26.466667	1	0.367250
26.483333	1	0.369125
26.500000	1	0.371625
26.516667	1	0.373250
26.533333	1	0.374875
26.550000	1	0.376250
26.566667	1	0.377750
26.583333	1	0.378375
26.600000	1	0.379250
26.616667	1	0.379625
26.633333	1	0.379750
26.650000	1	0.379875
26.666667	1	0.379375
26.683333	1	0.379125
26.700000	1	0.377750
26.716667	1	0.376125
26.733333	1	0.374875
26.750000	1	0.372750
26.766667	1	0.371250
26.783333	1	0.368375
26.800000	1	0.366125
26.816667	1	0.363500
26.833333	1	0.361000
26.850000	1	0.358750
26.866667	1	0.355625
26.883333	1	0.353125
26.900000	1	0.351000
26.916667	1	0.349000
26.933333	1	0.346875
26.950000	1	0.345500
26.966667	1	0.344250
26.983333	1	0.344125
27.000000	1	0.343125
27.016667	1	0.342875
27.033333	1	0.342875
27.050000	1	0.344250
27.066667	1	0.345375
27.083333	1	0.347625
27.100000	1	0.350250
27.116667	1	0.353625
27.133333	1	0.358000
27.150000	1	0.362875
27.166667	1	0.368375
27.183333	1	0.374500
27.200000	1	0.381625
27.216667	1	0.390750
27.233333	1	0.399750
27.250000	1	0.409375
27.266667	1	0.420125
27.283333	1	0.432125
27.300000	1	0.445125
27.316667	1	0.459250
27.333333	1	0.474125
27.350000	1	0.490625
27.366667	1	0.508250
27.383333	1	0.526625
27.400000	1	0.546125
27.416667	1	0.566625
27.433333	1	0.589125
27.450000	1	0.612750
27.466667	1	0.638375
27.483333	1	0.665625
27.500000	1	0.694500
27.516667	1	0.724750
27.533333	1	0.757000
27.550000	1	0.791750
27.566667	1	0.828375
27.583333	1	0.868000
27.600000	1	0.910875
27.616667	1	0.956500
27.633333	1	1.005125
27.650000	1	1.057125
27.666667	1	1.113875
27.683333	1	1.174250
27.700000	1	1.239250
27.716667	1	1.309125
27.733333	1	1.383375
27.750000	1	1.462500
27.766667	1	1.546500
27.783333	1	1.635750
27.800000	1	1.729500
27.816667	1	1.827375
27.833333	1	1.930625
27.850000	1	2.038125
27.866667	1	2.148375
27.883333	1	2.261625
27.900000	1	2.377250
27.916667	1	2.493625
27.933333	1	2.610500
27.950000	1	2.726000
27.966667	1	2.840125
27.983333	1	2.950125
28.000000	1	3.056375
28.016667	1	3.156625
28.033333	1	3.250375
28.050000	1	3.336125
28.066667	1	3.412250
28.083333	1	3.478625
28.100000	1	3.534750
28.116667	1	3.578125
28.133333	1	3.608875
28.150000	1	3.626750
28.166667	1	3.631750
28.183333	1	3.623250
28.200000	1	3.601250
28.216667	1	3.566375
28.233333	1	3.518250
28.250000	1	3.459250
28.266667	1	3.388250
28.283333	1	3.306875
28.300000	1	3.215750
28.316667	1	3.115625
28.333333	1	3.007750
28.350000	1	2.893250
28.366667	1	2.773375
28.383333	1	2.649750
28.400000	1	2.521875
28.416667	1	2.392000
28.433333	1	2.260500
28.450000	1	2.128375
28.466667	1	1.996625
28.483333	1	1.865875
28.500000	1	1.736625
28.516667	1	1.609500
28.533333	1	1.485125
28.550000	1	1.364000
28.566667	1	1.247000
28.583333	1	1.133125
28.600000	1	1.023250
28.616667	1	0.917375
28.633333	1	0.814875
28.650000	1	0.716375
28.666667	1	0.622000
28.683333	1	0.531750
28.700000	1	0.445000
28.716667	1	0.362000
28.733333	1	0.283125
28.750000	1	0.207500
28.766667	1	0.135500
28.783333	1	0.068000
28.800000	1	0.003375
28.816667	1	-0.057750
28.833333	1	-0.114500
28.850000	1	-0.168875
28.866667	1	-0.219625
28.883333	1	-0.267000
28.900000	1	-0.311625
28.916667	1	-0.352625
28.933333	1	-0.390875
28.950000	1	-0.425125
28.966667	1	-0.456750
28.983333	1	-0.484375
29.000000	1	-0.508375
29.016667	1	-0.528750
29.033333	1	-0.546625
29.050000	1	-0.560250
29.066667	1	-0.571125
29.083333	1	-0.578375
29.100000	1	-0.582500
29.116667	1	-0.583125
29.133333	1	-0.581500
29.150000	1	-0.576250
29.166667	1	-0.568250
29.183333	1	-0.557500
29.200000	1	-0.544500
29.216667	1	-0.528125
29.233333	1	-0.510125
29.250000	1	-0.489500
29.266667	1	-0.467250
29.283333	1	-0.443250
29.300000	1	-0.416750
29.316667	1	-0.389875
29.333333	1	-0.361500
29.350000	1	-0.332000
29.366667	1	-0.301875
29.383333	1	-0.271000
29.400000	1	-0.239500
29.416667	1	-0.207750
29.433333	1	-0.176125
29.450000	1	-0.144625
29.466667	1	-0.113125
29.483333	1	-0.081125
29.500000	1	-0.049250
29.516667	1	-0.018000
29.533333	1	0.012125
29.550000	1	0.041500
29.566667	1	0.070750
29.583333	1	0.098750
29.600000	1	0.125875
29.616667	1	0.152500
29.633333	1	0.177625
29.650000	1	0.201625
29.666667	1	0.225375
29.683333	1	0.246625
29.700000	1	0.267375
29.716667	1	0.287625
29.733333	1	0.306500
29.750000	1	0.324125
29.766667	1	0.340625
29.783333	1	0.355375
29.800000	1	0.369875
29.816667	1	0.383125
29.833333	1	0.395125
29.850000	1	0.406625
29.866667	1	0.416875
29.883333	1	0.426625
29.900000	1	0.435250
29.916667	1	0.443500
29.933333	1	0.450125
29.950000	1	0.456125
29.966667	1	0.462500
29.983333	1	0.468125
30.000000	1	0.473375
30.016667	1	0.477250
30.033333	1	0.481875
30.050000	1	0.486250
30.066667	1	0.490375
30.083333	1	0.494250
30.100000	1	0.498000
30.116667	1	0.501750
30.133333	1	0.506000
30.150000	1	0.509750
30.166667	1	0.513875
30.183333	1	0.518250
30.200000	1	0.522625
30.216667	1	0.527875
30.233333	1	0.533500
30.250000	1	0.538875
30.266667	1	0.545125
30.283333	1	0.551625
30.300000	1	0.557875
30.316667	1	0.565000
30.333333	1	0.573000
30.350000	1	0.581375
30.366667	1	0.590250
30.383333	1	0.600250
30.400000	1	0.610750
30.416667	1	0.622000
30.433333	1	0.633875
30.450000	1	0.646375
30.466667	1	0.660000
30.483333	1	0.674125
30.500000	1	0.690125
30.516667	1	0.708000
30.533333	1	0.725250
30.550000	1	0.744375
30.566667	1	0.765500
30.583333	1	0.787500
30.600000	1	0.810875
30.616667	1	0.835000
30.633333	1	0.861250
30.650000	1	0.888750
30.666667	1	0.917625
30.683333	1	0.947250
30.700000	1	0.978375
30.716667	1	1.010250
30.733333	1	1.042375
30.750000	1	1.074875
30.766667	1	1.108000
30.783333	1	1.141125
30.800000	1	1.174000
30.816667	1	1.206250
30.833333	1	1.237375
30.850000	1	1.267625
30.866667	1	1.296625
30.883333	1	1.323750
30.900000	1	1.348625
30.916667	1	1.371000
30.933333	1	1.390750
30.950000	1	1.407500
30.966667	1	1.421875
30.983333	1	1.432500
31.000000	1	1.440000
31.016667	1	1.444000
31.033333	1	1.444000
31.050000	1	1.441375
31.066667	1	1.434375
31.083333	1	1.423750
31.100000	1	1.409750
31.116667	1	1.393125
31.133333	1	1.373375
31.150000	1	1.350625
31.166667	1	1.325250
31.183333	1	1.298500
31.200000	1	1.269250
31.216667	1	1.237375
31.233333	1	1.204125
31.250000	1	1.169750
31.266667	1	1.134625
31.283333	1	1.098625
31.300000	1	1.061500
31.316667	1	1.024625
31.333333	1	0.987750
31.350000	1	0.951625
31.366667	1	0.916500
31.383333	1	0.881250
31.400000	1	0.846000
31.416667	1	0.812500
31.433333	1	0.780250
31.450000	1	0.748750
31.466667	1	0.718375
31.483333	1	0.688625
31.500000	1	0.660500
31.516667	1	0.633750
31.533333	1	0.608375
31.550000	1	0.584750
31.566667	1	0.561875
31.583333	1	0.540375
31.600000	1	0.521125
31.616667	1	0.502000
31.633333	1	0.484750
31.650000	1	0.468125
31.666667	1	0.453000
31.683333	1	0.439625
31.700000	1	0.426250
31.716667	1	0.414500
31.733333	1	0.403375
31.750000	1	0.393500
31.766667	1	0.384375
31.783333	1	0.376500
31.800000	1	0.369500
31.816667	1	0.362875
31.833333	1	0.357375
31.850000	1	0.351750
31.866667	1	0.347000
31.883333	1	0.343625
31.900000	1	0.340875
31.916667	1	0.337375
31.933333	1	0.335000
31.950000	1	0.333000
31.966667	1	0.331000
31.983333	1	0.330000
32.000000	1	0.329125
32.016667	1	0.328875
32.033333	1	0.328375
32.050000	1	0.328000
32.066667	1	0.327875
32.083333	1	0.328000
32.100000	1	0.327500
32.116667	1	0.327000
32.133333	1	0.326000
32.150000	1	0.325500
32.166667	1	0.325125
32.183333	1	0.323875
32.200000	1	0.322375
32.216667	1	0.320375
32.233333	1	0.318000
32.250000	1	0.315500
32.266667	1	0.314000
32.283333	1	0.311500
32.300000	1	0.308750
32.316667	1	0.304500
32.333333	1	0.301375
32.350000	1	0.297375
32.366667	1	0.293250
32.383333	1	0.289500
32.400000	1	0.284250
32.416667	1	0.279625
32.433333	1	0.274875
32.450000	1	0.270500
32.466667	1	0.265750
32.483333	1	0.260750
32.500000	1	0.255125
32.516667	1	0.250375
32.533333	1	0.244375
32.550000	1	0.238500
32.566667	1	0.233125
32.583333	1	0.228000
32.600000	1	0.222625
32.616667	1	0.217750
32.633333	1	0.212250
32.650000	1	0.206250
32.666667	1	0.200500
32.683333	1	0.195000
32.700000	1	0.189250
32.716667	1	0.183250
32.733333	1	0.177750
32.750000	1	0.171125
32.766667	1	0.166000
32.783333	1	0.160750
32.800000	1	0.155750
32.816667	1	0.150250
32.833333	1	0.145000
32.850000	1	0.140125
32.866667	1	0.135375
32.883333	1	0.130375
32.900000	1	0.125375
32.916667	1	0.120875
32.933333	1	0.115250
32.950000	1	0.110625
32.966667	1	0.106500
32.983333	1	0.102875
33.000000	1	0.099125
33.016667	1	0.095125
33.033333	1	0.091375
33.050000	1	0.087750
33.066667	1	0.084000
33.083333	1	0.080875
33.100000	1	0.077625
33.116667	1	0.074250
33.133333	1	0.071250
33.150000	1	0.068750
33.166667	1	0.066125
33.183333	1	0.063625
33.200000	1	0.061000
33.216667	1	0.059000
33.233333	1	0.056500
33.250000	1	0.054625
33.266667	1	0.052375
33.283333	1	0.050500
33.300000	1	0.049250
33.316667	1	0.047000
33.333333	1	0.045375
33.350000	1	0.043750
33.366667	1	0.042875
33.383333	1	0.041625
33.400000	1	0.040750
33.416667	1	0.040250
33.433333	1	0.038625
33.450000	1	0.038000
33.466667	1	0.037750
33.483333	1	0.036750
33.500000	1	0.036375
33.516667	1	0.036000
33.533333	1	0.035250
33.550000	1	0.035125
33.566667	1	0.034750
33.583333	1	0.034750
33.600000	1	0.035125
33.616667	1	0.035875
33.633333	1	0.037000
33.650000	1	0.037250
33.666667	1	0.038625
33.683333	1	0.039125
33.700000	1	0.039875
33.716667	1	0.041000
33.733333	1	0.042500
33.750000	1	0.044125
33.766667	1	0.045375
33.783333	1	0.046875
33.800000	1	0.048875
33.816667	1	0.050750
33.833333	1	0.052875
33.850000	1	0.056125
33.866667	1	0.059000
33.883333	1	0.061375
33.900000	1	0.065000
33.916667	1	0.068500
33.933333	1	0.071375
33.950000	1	0.076000
33.966667	1	0.080250
33.983333	1	0.084250
34.000000	1	0.088875
34.016667	1	0.093625
34.033333	1	0.097750
34.050000	1	0.103875
34.066667	1	0.109250
34.083333	1	0.114250
34.100000	1	0.120375
34.116667	1	0.126250
34.133333	1	0.132250
34.150000	1	0.138375
34.166667	1	0.144375
34.183333	1	0.151750
34.200000	1	0.159125
34.216667	1	0.165625
34.233333	1	0.172500
34.250000	1	0.178625
34.266667	1	0.184375
34.283333	1	0.190375
34.300000	1	0.196500
34.316667	1	0.202500
34.333333	1	0.207875
34.350000	1	0.212750
34.366667	1	0.217750
34.383333	1	0.222000
34.400000	1	0.225250
34.416667	1	0.228000
34.433333	1	0.230500
34.450000	1	0.232000
34.466667	1	0.233625
34.483333	1	0.234625
34.500000	1	0.235250
34.516667	1	0.234875
34.533333	1	0.234250
34.550000	1	0.232875
34.566667	1	0.231750
34.583333	1	0.229500
34.600000	1	0.227250
34.616667	1	0.224500
34.633333	1	0.220750
34.650000	1	0.217750
34.666667	1	0.213875
34.683333	1	0.209375
34.700000	1	0.205500
34.716667	1	0.202000
34.733333	1	0.196750
34.750000	1	0.192250
34.766667	1	0.187125
34.783333	1	0.182000
34.800000	1	0.177750
34.816667	1	0.173250
34.833333	1	0.168125
34.850000	1	0.163375
34.866667	1	0.159000
34.883333	1	0.154875
34.900000	1	0.151250
34.916667	1	0.147000
34.933333	1	0.142500
34.950000	1	0.139250
34.966667	1	0.135750
34.983333	1	0.132250
35.000000	1	0.129500
35.016667	1	0.126750
35.033333	1	0.124125
35.050000	1	0.122250
35.066667	1	0.120500
35.083333	1	0.118375
35.100000	1	0.117000
35.116667	1	0.115375
35.133333	1	0.114000
35.150000	1	0.112750
35.166667	1	0.112375
35.183333	1	0.111875
35.200000	1	0.111750
35.216667	1	0.111875
35.233333	1	0.112125
35.250000	1	0.112250
35.266667	1	0.112625
35.283333	1	0.113500
35.300000	1	0.114125
35.316667	1	0.115125
35.333333	1	0.115625
35.350000	1	0.116750
35.366667	1	0.118250
35.383333	1	0.119625
35.400000	1	0.121250
35.416667	1	0.122500
35.433333	1	0.123750
35.450000	1	0.125500
35.466667	1	0.127125
35.483333	1	0.128625
35.500000	1	0.129125
35.516667	1	0.129875
35.533333	1	0.130875
35.550000	1	0.132125
35.566667	1	0.134250
35.583333	1	0.135000
35.600000	1	0.135875
35.616667	1	0.136625
35.633333	1	0.137750
35.650000	1	0.138625
35.666667	1	0.139625
35.683333	1	0.139875
35.700000	1	0.140250
35.716667	1	0.140750
35.733333	1	0.141250
35.750000	1	0.142250
35.766667	1	0.143000
35.783333	1	0.143375
35.800000	1	0.144125
35.816667	1	0.144250
35.833333	1	0.145000
35.850000	1	0.145000
35.866667	1	0.144750
35.883333	1	0.144375
35.900000	1	0.144375
35.916667	1	0.143875
35.933333	1	0.144250
35.950000	1	0.144000
35.966667	1	0.143500
35.983333	1	0.143500
36.000000	1	0.143500
36.016667	1	0.143500
36.033333	1	0.144000
36.050000	1	0.143500
36.066667	1	0.142500
36.083333	1	0.141750
36.100000	1	0.141625
36.116667	1	0.141750
36.133333	1	0.140875
36.150000	1	0.140250
36.166667	1	0.140250
36.183333	1	0.139625
36.200000	1	0.139625
36.216667	1	0.139375
36.233333	1	0.138500
36.250000	1	0.137875
36.266667	1	0.137625
36.283333	1	0.136375
36.300000	1	0.136125
36.316667	1	0.135000
36.333333	1	0.134250
36.350000	1	0.133875
36.366667	1	0.133375
36.383333	1	0.131750
36.400000	1	0.130250
36.416667	1	0.128500
36.433333	1	0.127625
36.450000	1	0.126125
36.466667	1	0.125250
36.483333	1	0.123000
36.500000	1	0.121125
36.516667	1	0.120000
36.533333	1	0.118000
36.550000	1	0.116750
36.566667	1	0.115625
36.583333	1	0.114125
36.600000	1	0.112500
36.616667	1	0.110250
36.633333	1	0.108125
36.650000	1	0.106875
36.666667	1	0.104750
36.683333	1	0.103750
36.700000	1	0.102000
36.716667	1	0.100375
36.733333	1	0.098500
36.750000	1	0.096500
36.766667	1	0.094875
36.783333	1	0.093375
36.800000	1	0.092000
36.816667	1	0.090750
36.833333	1	0.088625
36.850000	1	0.086500
36.866667	1	0.084750
36.883333	1	0.083125
36.900000	1	0.081750
36.916667	1	0.080000
36.933333	1	0.078000
36.950000	1	0.075625
36.966667	1	0.074000
36.983333	1	0.072125
37.000000	1	0.069500
37.016667	1	0.067750
37.033333	1	0.065500
37.050000	1	0.063625
37.066667	1	0.061375
37.083333	1	0.059125
37.100000	1	0.057875
37.116667	1	0.055875
37.133333	1	0.053875
37.150000	1	0.051625
37.166667	1	0.049375
37.183333	1	0.047000
37.200000	1	0.045375
37.216667	1	0.042500
37.233333	1	0.040000
37.250000	1	0.037500
37.266667	1	0.035750
37.283333	1	0.034125
37.300000	1	0.032250
37.316667	1	0.030125
37.333333	1	0.027750
37.350000	1	0.026375
37.366667	1	0.024250
37.383333	1	0.022125
37.400000	1	0.019875
37.416667	1	0.017500
37.433333	1	0.015875
37.450000	1	0.014375
37.466667	1	0.012875
37.483333	1	0.011625
37.500000	1	0.009750
37.516667	1	0.008750
37.533333	1	0.007125
37.550000	1	0.005125
37.566667	1	0.004250
37.583333	1	0.003500
37.600000	1	0.002625
37.616667	1	0.002125
37.633333	1	0.001250
37.650000	1	0.001000
37.666667	1	0.000625
37.683333	1	0.000250
37.700000	1	0.000125
37.716667	1	-0.000250
37.733333	1	-0.000125
37.750000	1	-0.000125
37.766667	1	0.000125
37.783333	1	0.000375
37.800000	1	0.000750
37.816667	1	0.001000
37.833333	1	0.001500
37.850000	1	0.001500
37.866667	1	0.002125
37.883333	1	0.002625
37.900000	1	0.003125
37.916667	1	0.003500
37.933333	1	0.004625
37.950000	1	0.005375
37.966667	1	0.006125
37.983333	1	0.006875
38.000000	1	0.008000
38.016667	1	0.009250
38.033333	1	0.010250
38.050000	1	0.011000
38.066667	1	0.011875
38.083333	1	0.012750
38.100000	1	0.013625
38.116667	1	0.015625
38.133333	1	0.017000
38.150000	1	0.018750
38.166667	1	0.020125
38.183333	1	0.021250
38.200000	1	0.022000
38.216667	1	0.022375
38.233333	1	0.024125
38.250000	1	0.026000
38.266667	1	0.026875
38.283333	1	0.028375
38.300000	1	0.029375
38.316667	1	0.030375
38.333333	1	0.031375
38.350000	1	0.032875
38.366667	1	0.033750
38.383333	1	0.034500
38.400000	1	0.035250
38.416667	1	0.035750
38.433333	1	0.036000
38.450000	1	0.037125
38.466667	1	0.038125
38.483333	1	0.038375
38.500000	1	0.039125
38.516667	1	0.039250
38.533333	1	0.039250
38.550000	1	0.039375
38.566667	1	0.039125
38.583333	1	0.039750
38.600000	1	0.040125
38.616667	1	0.039375
38.633333	1	0.039000
38.650000	1	0.038375
38.666667	1	0.037500
38.683333	1	0.037125
38.700000	1	0.036625
38.716667	1	0.035500
38.733333	1	0.034250
38.750000	1	0.033875
38.766667	1	0.033125
38.783333	1	0.032375
38.800000	1	0.031625
38.816667	1	0.031250
38.833333	1	0.030125
38.850000	1	0.029000
38.866667	1	0.027625
38.883333	1	0.026000
38.900000	1	0.025250
38.916667	1	0.024750
38.933333	1	0.023625
38.950000	1	0.022500
38.966667	1	0.021750
38.983333	1	0.021250
39.000000	1	0.021125
39.016667	1	0.020250
39.033333	1	0.019000
39.050000	1	0.018125
39.066667	1	0.017750
39.083333	1	0.017375
39.100000	1	0.017000
39.116667	1	0.016500
39.133333	1	0.016125
39.150000	1	0.016000
39.166667	1	0.015250
39.183333	1	0.015375
39.200000	1	0.014625
39.216667	1	0.014125
39.233333	1	0.013500
39.250000	1	0.013125
39.266667	1	0.013125
39.283333	1	0.013000
39.300000	1	0.012375
39.316667	1	0.012750
39.333333	1	0.012750
39.350000	1	0.013250
39.366667	1	0.012875
39.383333	1	0.012000
39.400000	1	0.011875
39.416667	1	0.011875
39.433333	1	0.012250
39.450000	1	0.012375
39.466667	1	0.012500
39.483333	1	0.013000
39.500000	1	0.013000
39.516667	1	0.012750
39.533333	1	0.014125
39.550000	1	0.014250
39.566667	1	0.014625
39.583333	1	0.015375
39.600000	1	0.015500
39.616667	1	0.016125
39.633333	1	0.016750
39.650000	1	0.017375
39.666667	1	0.017500
39.683333	1	0.018250
39.700000	1	0.018875
39.716667	1	0.019375
39.733333	1	0.020125
39.750000	1	0.020875
39.766667	1	0.021750
39.783333	1	0.022500
39.800000	1	0.023250
39.816667	1	0.023750
39.833333	1	0.024750
39.850000	1	0.026000
39.866667	1	0.026500
39.883333	1	0.027750
39.900000	1	0.028500
39.916667	1	0.029125
39.933333	1	0.030000
39.950000	1	0.031125
39.966667	1	0.031250
39.983333	1	0.031750
40.000000	1	0.032750
