File Path	chrom://marshall/Chromeleon7/HPLC_Ultimate_3000/Users/markusar/20230616_CMO_FP13_14_15.seq/365.smp/RI_1.channel/RI_1.chm
Channel	RI_1

Injection Information:
Data Vault	Chromeleon7
Injection	FP14_4.2_s4
Injection Number	23
Position	BE4
Comment	
Processing Method	
Instrument Method	run_25B_method
Type	Unknown
Status	Finished
Injection Date	17.06.2023
Injection Time	07:30:03
Injection Volume (µl)	20.000
Dilution Factor	1.0000
Weight	1.0000

Chromatogram Data Information:
Time Min. (min)	0.000000
Time Max. (min)	40.000000
Data Points	2401
Detector	RI
Generating Data System	Chromeleon 7.2.5.9507
Exporting Data System	Chromeleon 7.2.5.0
Operator	Instrument Controller
Signal Quantity	Refractive 
Signal Unit	µRIU
Signal Min.	-0.500125
Signal Max.	51.407000
Channel	RI_1
Driver Name	RID520Driver.dll
Channel Type	Evaluation
Min. Step (s)	1
Max. Step (s)	1
Average Step (s)	1

Signal Parameter Information:
Signal Info	

Chromatogram Data:
Time (min)	Step (s)	Value (µRIU)
0.000000	n.a.	-0.000625
0.016667	1	-0.001500
0.033333	1	-0.001625
0.050000	1	-0.002125
0.066667	1	-0.003125
0.083333	1	-0.002875
0.100000	1	-0.003250
0.116667	1	-0.003625
0.133333	1	-0.004500
0.150000	1	-0.005625
0.166667	1	-0.006625
0.183333	1	-0.007375
0.200000	1	-0.007750
0.216667	1	-0.009000
0.233333	1	-0.010000
0.250000	1	-0.010625
0.266667	1	-0.011625
0.283333	1	-0.012625
0.300000	1	-0.013250
0.316667	1	-0.014500
0.333333	1	-0.015875
0.350000	1	-0.016875
0.366667	1	-0.018625
0.383333	1	-0.019625
0.400000	1	-0.020500
0.416667	1	-0.022125
0.433333	1	-0.024750
0.450000	1	-0.028000
0.466667	1	-0.031750
0.483333	1	-0.034000
0.500000	1	-0.034000
0.516667	1	-0.032875
0.533333	1	-0.031125
0.550000	1	-0.029500
0.566667	1	-0.028500
0.583333	1	-0.026750
0.600000	1	-0.025500
0.616667	1	-0.024000
0.633333	1	-0.023875
0.650000	1	-0.024125
0.666667	1	-0.026500
0.683333	1	-0.029000
0.700000	1	-0.031250
0.716667	1	-0.034000
0.733333	1	-0.036000
0.750000	1	-0.038375
0.766667	1	-0.039875
0.783333	1	-0.040000
0.800000	1	-0.041625
0.816667	1	-0.042875
0.833333	1	-0.043750
0.850000	1	-0.044625
0.866667	1	-0.045500
0.883333	1	-0.046125
0.900000	1	-0.045875
0.916667	1	-0.046250
0.933333	1	-0.045750
0.950000	1	-0.045875
0.966667	1	-0.045750
0.983333	1	-0.045625
1.000000	1	-0.045125
1.016667	1	-0.044625
1.033333	1	-0.044500
1.050000	1	-0.043875
1.066667	1	-0.042875
1.083333	1	-0.042375
1.100000	1	-0.041875
1.116667	1	-0.040750
1.133333	1	-0.040125
1.150000	1	-0.039625
1.166667	1	-0.038625
1.183333	1	-0.037500
1.200000	1	-0.037000
1.216667	1	-0.036625
1.233333	1	-0.035125
1.250000	1	-0.034000
1.266667	1	-0.033625
1.283333	1	-0.032500
1.300000	1	-0.032250
1.316667	1	-0.031625
1.333333	1	-0.030625
1.350000	1	-0.029625
1.366667	1	-0.028500
1.383333	1	-0.027750
1.400000	1	-0.026875
1.416667	1	-0.025875
1.433333	1	-0.024875
1.450000	1	-0.023500
1.466667	1	-0.022250
1.483333	1	-0.021375
1.500000	1	-0.020375
1.516667	1	-0.018750
1.533333	1	-0.018375
1.550000	1	-0.017875
1.566667	1	-0.016375
1.583333	1	-0.014750
1.600000	1	-0.013750
1.616667	1	-0.013375
1.633333	1	-0.012375
1.650000	1	-0.010875
1.666667	1	-0.009500
1.683333	1	-0.008125
1.700000	1	-0.007875
1.716667	1	-0.007125
1.733333	1	-0.006125
1.750000	1	-0.005250
1.766667	1	-0.004500
1.783333	1	-0.003250
1.800000	1	-0.002375
1.816667	1	-0.001375
1.833333	1	-0.000875
1.850000	1	-0.000250
1.866667	1	0.000875
1.883333	1	0.001625
1.900000	1	0.002125
1.916667	1	0.002625
1.933333	1	0.003000
1.950000	1	0.003875
1.966667	1	0.004250
1.983333	1	0.004750
2.000000	1	0.005000
2.016667	1	0.005500
2.033333	1	0.005750
2.050000	1	0.006375
2.066667	1	0.005625
2.083333	1	0.006000
2.100000	1	0.005750
2.116667	1	0.005875
2.133333	1	0.006125
2.150000	1	0.006000
2.166667	1	0.006125
2.183333	1	0.005500
2.200000	1	0.005500
2.216667	1	0.006125
2.233333	1	0.005625
2.250000	1	0.005000
2.266667	1	0.004125
2.283333	1	0.004125
2.300000	1	0.003625
2.316667	1	0.003125
2.333333	1	0.002750
2.350000	1	0.002375
2.366667	1	0.002000
2.383333	1	0.001000
2.400000	1	0.000625
2.416667	1	0.000000
2.433333	1	-0.000125
2.450000	1	-0.001000
2.466667	1	-0.001375
2.483333	1	-0.001875
2.500000	1	-0.002375
2.516667	1	-0.002875
2.533333	1	-0.003625
2.550000	1	-0.004625
2.566667	1	-0.005000
2.583333	1	-0.005750
2.600000	1	-0.005750
2.616667	1	-0.006625
2.633333	1	-0.006500
2.650000	1	-0.007375
2.666667	1	-0.007000
2.683333	1	-0.007500
2.700000	1	-0.007125
2.716667	1	-0.007125
2.733333	1	-0.006875
2.750000	1	-0.007125
2.766667	1	-0.006500
2.783333	1	-0.005875
2.800000	1	-0.005500
2.816667	1	-0.004875
2.833333	1	-0.004500
2.850000	1	-0.003875
2.866667	1	-0.004000
2.883333	1	-0.003500
2.900000	1	-0.002500
2.916667	1	-0.002000
2.933333	1	-0.000875
2.950000	1	-0.000500
2.966667	1	0.000125
2.983333	1	0.000500
3.000000	1	0.001000
3.016667	1	0.001875
3.033333	1	0.002375
3.050000	1	0.003500
3.066667	1	0.003625
3.083333	1	0.004750
3.100000	1	0.006250
3.116667	1	0.006875
3.133333	1	0.007875
3.150000	1	0.008625
3.166667	1	0.009125
3.183333	1	0.009500
3.200000	1	0.009750
3.216667	1	0.010000
3.233333	1	0.010375
3.250000	1	0.011000
3.266667	1	0.011500
3.283333	1	0.012000
3.300000	1	0.012375
3.316667	1	0.012500
3.333333	1	0.012875
3.350000	1	0.012875
3.366667	1	0.012125
3.383333	1	0.012250
3.400000	1	0.012500
3.416667	1	0.011750
3.433333	1	0.011500
3.450000	1	0.011125
3.466667	1	0.010875
3.483333	1	0.010375
3.500000	1	0.009250
3.516667	1	0.008625
3.533333	1	0.008500
3.550000	1	0.007875
3.566667	1	0.006875
3.583333	1	0.006000
3.600000	1	0.004750
3.616667	1	0.004250
3.633333	1	0.004125
3.650000	1	0.003625
3.666667	1	0.003000
3.683333	1	0.002125
3.700000	1	0.001375
3.716667	1	0.000625
3.733333	1	0.000000
3.750000	1	-0.000875
3.766667	1	-0.002000
3.783333	1	-0.002750
3.800000	1	-0.003375
3.816667	1	-0.004000
3.833333	1	-0.004500
3.850000	1	-0.004625
3.866667	1	-0.005125
3.883333	1	-0.005750
3.900000	1	-0.006250
3.916667	1	-0.007250
3.933333	1	-0.007875
3.950000	1	-0.008250
3.966667	1	-0.009125
3.983333	1	-0.009375
4.000000	1	-0.010375
4.016667	1	-0.010250
4.033333	1	-0.011250
4.050000	1	-0.012125
4.066667	1	-0.013000
4.083333	1	-0.013875
4.100000	1	-0.015000
4.116667	1	-0.015875
4.133333	1	-0.017500
4.150000	1	-0.018625
4.166667	1	-0.019625
4.183333	1	-0.020375
4.200000	1	-0.021375
4.216667	1	-0.022375
4.233333	1	-0.023250
4.250000	1	-0.023750
4.266667	1	-0.024125
4.283333	1	-0.025125
4.300000	1	-0.026375
4.316667	1	-0.027250
4.333333	1	-0.028000
4.350000	1	-0.029625
4.366667	1	-0.029875
4.383333	1	-0.030750
4.400000	1	-0.031750
4.416667	1	-0.032750
4.433333	1	-0.033250
4.450000	1	-0.033875
4.466667	1	-0.034625
4.483333	1	-0.035875
4.500000	1	-0.036000
4.516667	1	-0.036625
4.533333	1	-0.036875
4.550000	1	-0.037250
4.566667	1	-0.037625
4.583333	1	-0.037750
4.600000	1	-0.038500
4.616667	1	-0.039000
4.633333	1	-0.038500
4.650000	1	-0.038125
4.666667	1	-0.037625
4.683333	1	-0.037500
4.700000	1	-0.037000
4.716667	1	-0.035875
4.733333	1	-0.035000
4.750000	1	-0.034000
4.766667	1	-0.033000
4.783333	1	-0.032250
4.800000	1	-0.030250
4.816667	1	-0.028875
4.833333	1	-0.028125
4.850000	1	-0.026000
4.866667	1	-0.024250
4.883333	1	-0.022125
4.900000	1	-0.020125
4.916667	1	-0.018125
4.933333	1	-0.016250
4.950000	1	-0.013750
4.966667	1	-0.010750
4.983333	1	-0.007375
5.000000	1	-0.004375
5.016667	1	-0.001500
5.033333	1	0.001750
5.050000	1	0.005500
5.066667	1	0.008875
5.083333	1	0.012250
5.100000	1	0.015875
5.116667	1	0.018750
5.133333	1	0.022625
5.150000	1	0.026375
5.166667	1	0.029625
5.183333	1	0.033875
5.200000	1	0.037500
5.216667	1	0.041125
5.233333	1	0.045500
5.250000	1	0.049250
5.266667	1	0.053250
5.283333	1	0.057000
5.300000	1	0.060750
5.316667	1	0.064250
5.333333	1	0.067625
5.350000	1	0.071750
5.366667	1	0.074750
5.383333	1	0.078375
5.400000	1	0.081625
5.416667	1	0.084875
5.433333	1	0.088500
5.450000	1	0.091375
5.466667	1	0.094500
5.483333	1	0.097125
5.500000	1	0.099625
5.516667	1	0.101375
5.533333	1	0.103000
5.550000	1	0.105125
5.566667	1	0.106625
5.583333	1	0.107750
5.600000	1	0.109000
5.616667	1	0.109500
5.633333	1	0.110250
5.650000	1	0.110750
5.666667	1	0.111000
5.683333	1	0.111125
5.700000	1	0.111625
5.716667	1	0.111375
5.733333	1	0.110250
5.750000	1	0.109750
5.766667	1	0.109375
5.783333	1	0.108625
5.800000	1	0.107250
5.816667	1	0.105375
5.833333	1	0.103625
5.850000	1	0.102625
5.866667	1	0.100625
5.883333	1	0.098250
5.900000	1	0.096500
5.916667	1	0.094000
5.933333	1	0.092000
5.950000	1	0.089625
5.966667	1	0.087125
5.983333	1	0.085375
6.000000	1	0.083000
6.016667	1	0.080500
6.033333	1	0.078375
6.050000	1	0.075625
6.066667	1	0.073625
6.083333	1	0.072250
6.100000	1	0.069750
6.116667	1	0.068125
6.133333	1	0.065875
6.150000	1	0.064125
6.166667	1	0.062250
6.183333	1	0.060250
6.200000	1	0.059125
6.216667	1	0.057250
6.233333	1	0.056000
6.250000	1	0.055375
6.266667	1	0.054750
6.283333	1	0.053375
6.300000	1	0.052750
6.316667	1	0.051500
6.333333	1	0.051250
6.350000	1	0.050500
6.366667	1	0.049875
6.383333	1	0.049750
6.400000	1	0.049375
6.416667	1	0.049875
6.433333	1	0.049750
6.450000	1	0.050625
6.466667	1	0.051250
6.483333	1	0.051875
6.500000	1	0.052375
6.516667	1	0.053000
6.533333	1	0.053000
6.550000	1	0.053875
6.566667	1	0.055000
6.583333	1	0.056250
6.600000	1	0.058125
6.616667	1	0.059375
6.633333	1	0.061000
6.650000	1	0.062625
6.666667	1	0.064625
6.683333	1	0.066125
6.700000	1	0.067875
6.716667	1	0.070250
6.733333	1	0.072000
6.750000	1	0.074375
6.766667	1	0.076250
6.783333	1	0.079000
6.800000	1	0.081250
6.816667	1	0.083000
6.833333	1	0.085375
6.850000	1	0.088375
6.866667	1	0.090625
6.883333	1	0.093125
6.900000	1	0.095375
6.916667	1	0.097875
6.933333	1	0.100000
6.950000	1	0.102375
6.966667	1	0.104625
6.983333	1	0.106625
7.000000	1	0.107750
7.016667	1	0.109000
7.033333	1	0.111000
7.050000	1	0.112500
7.066667	1	0.114000
7.083333	1	0.115125
7.100000	1	0.116125
7.116667	1	0.117750
7.133333	1	0.118500
7.150000	1	0.119000
7.166667	1	0.119250
7.183333	1	0.118625
7.200000	1	0.119625
7.216667	1	0.118750
7.233333	1	0.117750
7.250000	1	0.117000
7.266667	1	0.116000
7.283333	1	0.114625
7.300000	1	0.113500
7.316667	1	0.111875
7.333333	1	0.110500
7.350000	1	0.109125
7.366667	1	0.107000
7.383333	1	0.104250
7.400000	1	0.102125
7.416667	1	0.099500
7.433333	1	0.096875
7.450000	1	0.093375
7.466667	1	0.090750
7.483333	1	0.087250
7.500000	1	0.084125
7.516667	1	0.080750
7.533333	1	0.077250
7.550000	1	0.073875
7.566667	1	0.070375
7.583333	1	0.066500
7.600000	1	0.062875
7.616667	1	0.060375
7.633333	1	0.057000
7.650000	1	0.053625
7.666667	1	0.050375
7.683333	1	0.046750
7.700000	1	0.043875
7.716667	1	0.041000
7.733333	1	0.037750
7.750000	1	0.034750
7.766667	1	0.032125
7.783333	1	0.029375
7.800000	1	0.026875
7.816667	1	0.024500
7.833333	1	0.022250
7.850000	1	0.019500
7.866667	1	0.017750
7.883333	1	0.016000
7.900000	1	0.014125
7.916667	1	0.012625
7.933333	1	0.011125
7.950000	1	0.009375
7.966667	1	0.008000
7.983333	1	0.006750
8.000000	1	0.005625
8.016667	1	0.004750
8.033333	1	0.003750
8.050000	1	0.002875
8.066667	1	0.001500
8.083333	1	0.000625
8.100000	1	0.000625
8.116667	1	0.000000
8.133333	1	0.000125
8.150000	1	-0.000375
8.166667	1	-0.000500
8.183333	1	-0.000625
8.200000	1	-0.000625
8.216667	1	0.000000
8.233333	1	0.000375
8.250000	1	0.000500
8.266667	1	0.001625
8.283333	1	0.002250
8.300000	1	0.002375
8.316667	1	0.002875
8.333333	1	0.003750
8.350000	1	0.005125
8.366667	1	0.005500
8.383333	1	0.006500
8.400000	1	0.007000
8.416667	1	0.007750
8.433333	1	0.008875
8.450000	1	0.010000
8.466667	1	0.011375
8.483333	1	0.012625
8.500000	1	0.013875
8.516667	1	0.015375
8.533333	1	0.016250
8.550000	1	0.017750
8.566667	1	0.019000
8.583333	1	0.020000
8.600000	1	0.021750
8.616667	1	0.023625
8.633333	1	0.026125
8.650000	1	0.028000
8.666667	1	0.029750
8.683333	1	0.031500
8.700000	1	0.033250
8.716667	1	0.035000
8.733333	1	0.037125
8.750000	1	0.039125
8.766667	1	0.040875
8.783333	1	0.042875
8.800000	1	0.045000
8.816667	1	0.047250
8.833333	1	0.050000
8.850000	1	0.052250
8.866667	1	0.054625
8.883333	1	0.057000
8.900000	1	0.059250
8.916667	1	0.061250
8.933333	1	0.063125
8.950000	1	0.065375
8.966667	1	0.067500
8.983333	1	0.070000
9.000000	1	0.071375
9.016667	1	0.073250
9.033333	1	0.075500
9.050000	1	0.076750
9.066667	1	0.078625
9.083333	1	0.079875
9.100000	1	0.081250
9.116667	1	0.083125
9.133333	1	0.084625
9.150000	1	0.085750
9.166667	1	0.086375
9.183333	1	0.086875
9.200000	1	0.088250
9.216667	1	0.089125
9.233333	1	0.089750
9.250000	1	0.090750
9.266667	1	0.092250
9.283333	1	0.092375
9.300000	1	0.092500
9.316667	1	0.093500
9.333333	1	0.094500
9.350000	1	0.095500
9.366667	1	0.096375
9.383333	1	0.096750
9.400000	1	0.098125
9.416667	1	0.099875
9.433333	1	0.101000
9.450000	1	0.102750
9.466667	1	0.104750
9.483333	1	0.107375
9.500000	1	0.110250
9.516667	1	0.114500
9.533333	1	0.119375
9.550000	1	0.125000
9.566667	1	0.131000
9.583333	1	0.138875
9.600000	1	0.147000
9.616667	1	0.156000
9.633333	1	0.165750
9.650000	1	0.176000
9.666667	1	0.186500
9.683333	1	0.197500
9.700000	1	0.208000
9.716667	1	0.217625
9.733333	1	0.226375
9.750000	1	0.233250
9.766667	1	0.238375
9.783333	1	0.242750
9.800000	1	0.247000
9.816667	1	0.254375
9.833333	1	0.267750
9.850000	1	0.291375
9.866667	1	0.330125
9.883333	1	0.390750
9.900000	1	0.481750
9.916667	1	0.612625
9.933333	1	0.794125
9.950000	1	1.041625
9.966667	1	1.371375
9.983333	1	1.805750
10.000000	1	2.369125
10.016667	1	3.085500
10.033333	1	3.977500
10.050000	1	5.061750
10.066667	1	6.351875
10.083333	1	7.852000
10.100000	1	9.557125
10.116667	1	11.452750
10.133333	1	13.510875
10.150000	1	15.693000
10.166667	1	17.949000
10.183333	1	20.219250
10.200000	1	22.435875
10.216667	1	24.524625
10.233333	1	26.410625
10.250000	1	28.023125
10.266667	1	29.300250
10.283333	1	30.197000
10.300000	1	30.687875
10.316667	1	30.772625
10.333333	1	30.474125
10.350000	1	29.841375
10.366667	1	28.937125
10.383333	1	27.833625
10.400000	1	26.600375
10.416667	1	25.300000
10.433333	1	23.982125
10.450000	1	22.684500
10.466667	1	21.429000
10.483333	1	20.225500
10.500000	1	19.079875
10.516667	1	17.990500
10.533333	1	16.952875
10.550000	1	15.963250
10.566667	1	15.015750
10.583333	1	14.107750
10.600000	1	13.235625
10.616667	1	12.396625
10.633333	1	11.590250
10.650000	1	10.816500
10.666667	1	10.074875
10.683333	1	9.365250
10.700000	1	8.688875
10.716667	1	8.048250
10.733333	1	7.445250
10.750000	1	6.879125
10.766667	1	6.353750
10.783333	1	5.869750
10.800000	1	5.426750
10.816667	1	5.023625
10.833333	1	4.660625
10.850000	1	4.334500
10.866667	1	4.043875
10.883333	1	3.784000
10.900000	1	3.553250
10.916667	1	3.348250
10.933333	1	3.165500
10.950000	1	3.003000
10.966667	1	2.857875
10.983333	1	2.727750
11.000000	1	2.611500
11.016667	1	2.506250
11.033333	1	2.410750
11.050000	1	2.323875
11.066667	1	2.245000
11.083333	1	2.172375
11.100000	1	2.105750
11.116667	1	2.043625
11.133333	1	1.986500
11.150000	1	1.933125
11.166667	1	1.883375
11.183333	1	1.836875
11.200000	1	1.794000
11.216667	1	1.753875
11.233333	1	1.716625
11.250000	1	1.681750
11.266667	1	1.649375
11.283333	1	1.619000
11.300000	1	1.591750
11.316667	1	1.567125
11.333333	1	1.544500
11.350000	1	1.524500
11.366667	1	1.506875
11.383333	1	1.491500
11.400000	1	1.477625
11.416667	1	1.465125
11.433333	1	1.455000
11.450000	1	1.445125
11.466667	1	1.436250
11.483333	1	1.427000
11.500000	1	1.418250
11.516667	1	1.409250
11.533333	1	1.399500
11.550000	1	1.389125
11.566667	1	1.378625
11.583333	1	1.367625
11.600000	1	1.355875
11.616667	1	1.342625
11.633333	1	1.329625
11.650000	1	1.316875
11.666667	1	1.304000
11.683333	1	1.291125
11.700000	1	1.279125
11.716667	1	1.267625
11.733333	1	1.256125
11.750000	1	1.245500
11.766667	1	1.235000
11.783333	1	1.226375
11.800000	1	1.218500
11.816667	1	1.212750
11.833333	1	1.209000
11.850000	1	1.207125
11.866667	1	1.208500
11.883333	1	1.213000
11.900000	1	1.221125
11.916667	1	1.234125
11.933333	1	1.252750
11.950000	1	1.276750
11.966667	1	1.308000
11.983333	1	1.347125
12.000000	1	1.394500
12.016667	1	1.452750
12.033333	1	1.522000
12.050000	1	1.604500
12.066667	1	1.701000
12.083333	1	1.813375
12.100000	1	1.944875
12.116667	1	2.096125
12.133333	1	2.270000
12.150000	1	2.469000
12.166667	1	2.695500
12.183333	1	2.953250
12.200000	1	3.245125
12.216667	1	3.574875
12.233333	1	3.945625
12.250000	1	4.362500
12.266667	1	4.832250
12.283333	1	5.361500
12.300000	1	5.957875
12.316667	1	6.635250
12.333333	1	7.406250
12.350000	1	8.289250
12.366667	1	9.306500
12.383333	1	10.483000
12.400000	1	11.844625
12.416667	1	13.414875
12.433333	1	15.215625
12.450000	1	17.262500
12.466667	1	19.559875
12.483333	1	22.098250
12.500000	1	24.851125
12.516667	1	27.775375
12.533333	1	30.811125
12.550000	1	33.885875
12.566667	1	36.921125
12.583333	1	39.833125
12.600000	1	42.538875
12.616667	1	44.964625
12.633333	1	47.051750
12.650000	1	48.755625
12.666667	1	50.046875
12.683333	1	50.914750
12.700000	1	51.362125
12.716667	1	51.407000
12.733333	1	51.079750
12.750000	1	50.418000
12.766667	1	49.464625
12.783333	1	48.266500
12.800000	1	46.869625
12.816667	1	45.319375
12.833333	1	43.657000
12.850000	1	41.918500
12.866667	1	40.135000
12.883333	1	38.335250
12.900000	1	36.541500
12.916667	1	34.773375
12.933333	1	33.043625
12.950000	1	31.365375
12.966667	1	29.745125
12.983333	1	28.188375
13.000000	1	26.697125
13.016667	1	25.273625
13.033333	1	23.914625
13.050000	1	22.618375
13.066667	1	21.381625
13.083333	1	20.201000
13.100000	1	19.073500
13.116667	1	17.997000
13.133333	1	16.968375
13.150000	1	15.984375
13.166667	1	15.042000
13.183333	1	14.138000
13.200000	1	13.269875
13.216667	1	12.435375
13.233333	1	11.630875
13.250000	1	10.852250
13.266667	1	10.097000
13.283333	1	9.361000
13.300000	1	8.642250
13.316667	1	7.940250
13.333333	1	7.257875
13.350000	1	6.604375
13.366667	1	5.992000
13.383333	1	5.434375
13.400000	1	4.940750
13.416667	1	4.513250
13.433333	1	4.148000
13.450000	1	3.838875
13.466667	1	3.576750
13.483333	1	3.353875
13.500000	1	3.162875
13.516667	1	2.998125
13.533333	1	2.854375
13.550000	1	2.729500
13.566667	1	2.618875
13.583333	1	2.521125
13.600000	1	2.433500
13.616667	1	2.354500
13.633333	1	2.283000
13.650000	1	2.218250
13.666667	1	2.158000
13.683333	1	2.102875
13.700000	1	2.051750
13.716667	1	2.003875
13.733333	1	1.959125
13.750000	1	1.916000
13.766667	1	1.875625
13.783333	1	1.836000
13.800000	1	1.798875
13.816667	1	1.762375
13.833333	1	1.726500
13.850000	1	1.691125
13.866667	1	1.657125
13.883333	1	1.623875
13.900000	1	1.591250
13.916667	1	1.559250
13.933333	1	1.527500
13.950000	1	1.496250
13.966667	1	1.465875
13.983333	1	1.436125
14.000000	1	1.407000
14.016667	1	1.378625
14.033333	1	1.351000
14.050000	1	1.324375
14.066667	1	1.297875
14.083333	1	1.272875
14.100000	1	1.248500
14.116667	1	1.224875
14.133333	1	1.202125
14.150000	1	1.180625
14.166667	1	1.160125
14.183333	1	1.140625
14.200000	1	1.121250
14.216667	1	1.103250
14.233333	1	1.086875
14.250000	1	1.071250
14.266667	1	1.056375
14.283333	1	1.042250
14.300000	1	1.029250
14.316667	1	1.017875
14.333333	1	1.007375
14.350000	1	0.997500
14.366667	1	0.988500
14.383333	1	0.980875
14.400000	1	0.973500
14.416667	1	0.967125
14.433333	1	0.960375
14.450000	1	0.955000
14.466667	1	0.949875
14.483333	1	0.944750
14.500000	1	0.940000
14.516667	1	0.935125
14.533333	1	0.930375
14.550000	1	0.925375
14.566667	1	0.920000
14.583333	1	0.914000
14.600000	1	0.908750
14.616667	1	0.903625
14.633333	1	0.898125
14.650000	1	0.892625
14.666667	1	0.887875
14.683333	1	0.882000
14.700000	1	0.876875
14.716667	1	0.872375
14.733333	1	0.867500
14.750000	1	0.863875
14.766667	1	0.860250
14.783333	1	0.856750
14.800000	1	0.853125
14.816667	1	0.850375
14.833333	1	0.848250
14.850000	1	0.845500
14.866667	1	0.843250
14.883333	1	0.840500
14.900000	1	0.838500
14.916667	1	0.836000
14.933333	1	0.834000
14.950000	1	0.832000
14.966667	1	0.829125
14.983333	1	0.826125
15.000000	1	0.823125
15.016667	1	0.819750
15.033333	1	0.816875
15.050000	1	0.813500
15.066667	1	0.810375
15.083333	1	0.806875
15.100000	1	0.803000
15.116667	1	0.799375
15.133333	1	0.795250
15.150000	1	0.791750
15.166667	1	0.788750
15.183333	1	0.785375
15.200000	1	0.781875
15.216667	1	0.778750
15.233333	1	0.776500
15.250000	1	0.774375
15.266667	1	0.772250
15.283333	1	0.771375
15.300000	1	0.770375
15.316667	1	0.770250
15.333333	1	0.770875
15.350000	1	0.771625
15.366667	1	0.773500
15.383333	1	0.776375
15.400000	1	0.779875
15.416667	1	0.784750
15.433333	1	0.790625
15.450000	1	0.798125
15.466667	1	0.807375
15.483333	1	0.818375
15.500000	1	0.831125
15.516667	1	0.845375
15.533333	1	0.862250
15.550000	1	0.879125
15.566667	1	0.897250
15.583333	1	0.915875
15.600000	1	0.934500
15.616667	1	0.951875
15.633333	1	0.969250
15.650000	1	0.984500
15.666667	1	0.998375
15.683333	1	1.009625
15.700000	1	1.018375
15.716667	1	1.024750
15.733333	1	1.028500
15.750000	1	1.029625
15.766667	1	1.028625
15.783333	1	1.025125
15.800000	1	1.020125
15.816667	1	1.014625
15.833333	1	1.006750
15.850000	1	0.998000
15.866667	1	0.988875
15.883333	1	0.979000
15.900000	1	0.968250
15.916667	1	0.958500
15.933333	1	0.947750
15.950000	1	0.937250
15.966667	1	0.927250
15.983333	1	0.917125
16.000000	1	0.907500
16.016667	1	0.898875
16.033333	1	0.890625
16.050000	1	0.882875
16.066667	1	0.876375
16.083333	1	0.869875
16.100000	1	0.863750
16.116667	1	0.858750
16.133333	1	0.854375
16.150000	1	0.850125
16.166667	1	0.846625
16.183333	1	0.843250
16.200000	1	0.841000
16.216667	1	0.837750
16.233333	1	0.836250
16.250000	1	0.835500
16.266667	1	0.833875
16.283333	1	0.832750
16.300000	1	0.830500
16.316667	1	0.828875
16.333333	1	0.827500
16.350000	1	0.826125
16.366667	1	0.825625
16.383333	1	0.824375
16.400000	1	0.823375
16.416667	1	0.822125
16.433333	1	0.821125
16.450000	1	0.820500
16.466667	1	0.820125
16.483333	1	0.819625
16.500000	1	0.820500
16.516667	1	0.820625
16.533333	1	0.821000
16.550000	1	0.821250
16.566667	1	0.821625
16.583333	1	0.822625
16.600000	1	0.824125
16.616667	1	0.825375
16.633333	1	0.826875
16.650000	1	0.829375
16.666667	1	0.830875
16.683333	1	0.832750
16.700000	1	0.834750
16.716667	1	0.837000
16.733333	1	0.839500
16.750000	1	0.842750
16.766667	1	0.845750
16.783333	1	0.849000
16.800000	1	0.851625
16.816667	1	0.855375
16.833333	1	0.858875
16.850000	1	0.862500
16.866667	1	0.866000
16.883333	1	0.868250
16.900000	1	0.871000
16.916667	1	0.873750
16.933333	1	0.875500
16.950000	1	0.877375
16.966667	1	0.878750
16.983333	1	0.879875
17.000000	1	0.881625
17.016667	1	0.882125
17.033333	1	0.883125
17.050000	1	0.883375
17.066667	1	0.883625
17.083333	1	0.884125
17.100000	1	0.883875
17.116667	1	0.883250
17.133333	1	0.882875
17.150000	1	0.881500
17.166667	1	0.879125
17.183333	1	0.876500
17.200000	1	0.873375
17.216667	1	0.869375
17.233333	1	0.864250
17.250000	1	0.859000
17.266667	1	0.853000
17.283333	1	0.846750
17.300000	1	0.839500
17.316667	1	0.832250
17.333333	1	0.824250
17.350000	1	0.816625
17.366667	1	0.809000
17.383333	1	0.800875
17.400000	1	0.793750
17.416667	1	0.785875
17.433333	1	0.778625
17.450000	1	0.772125
17.466667	1	0.766125
17.483333	1	0.760750
17.500000	1	0.756000
17.516667	1	0.752000
17.533333	1	0.748500
17.550000	1	0.746250
17.566667	1	0.744625
17.583333	1	0.744125
17.600000	1	0.744250
17.616667	1	0.745375
17.633333	1	0.747875
17.650000	1	0.751250
17.666667	1	0.755750
17.683333	1	0.761000
17.700000	1	0.766750
17.716667	1	0.772750
17.733333	1	0.779750
17.750000	1	0.787125
17.766667	1	0.794875
17.783333	1	0.802625
17.800000	1	0.810875
17.816667	1	0.819750
17.833333	1	0.828000
17.850000	1	0.835875
17.866667	1	0.842875
17.883333	1	0.849750
17.900000	1	0.855375
17.916667	1	0.861500
17.933333	1	0.865500
17.950000	1	0.868750
17.966667	1	0.870750
17.983333	1	0.871875
18.000000	1	0.871500
18.016667	1	0.870625
18.033333	1	0.868500
18.050000	1	0.864875
18.066667	1	0.860250
18.083333	1	0.855500
18.100000	1	0.849125
18.116667	1	0.842375
18.133333	1	0.834625
18.150000	1	0.826375
18.166667	1	0.817375
18.183333	1	0.808750
18.200000	1	0.800125
18.216667	1	0.790625
18.233333	1	0.781375
18.250000	1	0.772000
18.266667	1	0.762750
18.283333	1	0.753000
18.300000	1	0.744750
18.316667	1	0.735875
18.333333	1	0.727375
18.350000	1	0.720125
18.366667	1	0.712625
18.383333	1	0.705875
18.400000	1	0.699750
18.416667	1	0.694500
18.433333	1	0.689000
18.450000	1	0.684000
18.466667	1	0.680750
18.483333	1	0.677250
18.500000	1	0.674125
18.516667	1	0.671375
18.533333	1	0.669375
18.550000	1	0.668000
18.566667	1	0.666625
18.583333	1	0.666500
18.600000	1	0.666750
18.616667	1	0.668000
18.633333	1	0.668625
18.650000	1	0.670375
18.666667	1	0.673125
18.683333	1	0.675875
18.700000	1	0.679500
18.716667	1	0.683500
18.733333	1	0.688000
18.750000	1	0.692625
18.766667	1	0.698250
18.783333	1	0.704500
18.800000	1	0.711625
18.816667	1	0.718750
18.833333	1	0.726500
18.850000	1	0.733625
18.866667	1	0.742125
18.883333	1	0.751125
18.900000	1	0.760625
18.916667	1	0.771375
18.933333	1	0.782000
18.950000	1	0.793875
18.966667	1	0.807375
18.983333	1	0.821250
19.000000	1	0.836625
19.016667	1	0.853250
19.033333	1	0.871375
19.050000	1	0.891375
19.066667	1	0.913500
19.083333	1	0.936625
19.100000	1	0.961750
19.116667	1	0.988375
19.133333	1	1.016875
19.150000	1	1.046750
19.166667	1	1.077000
19.183333	1	1.108875
19.200000	1	1.140625
19.216667	1	1.172500
19.233333	1	1.203875
19.250000	1	1.233125
19.266667	1	1.261125
19.283333	1	1.287125
19.300000	1	1.309875
19.316667	1	1.329500
19.333333	1	1.344750
19.350000	1	1.356625
19.366667	1	1.363875
19.383333	1	1.368125
19.400000	1	1.367500
19.416667	1	1.364000
19.433333	1	1.356000
19.450000	1	1.343750
19.466667	1	1.328625
19.483333	1	1.310250
19.500000	1	1.288250
19.516667	1	1.265250
19.533333	1	1.239000
19.550000	1	1.211875
19.566667	1	1.183875
19.583333	1	1.155250
19.600000	1	1.126250
19.616667	1	1.097750
19.633333	1	1.069625
19.650000	1	1.042500
19.666667	1	1.016750
19.683333	1	0.992000
19.700000	1	0.969375
19.716667	1	0.948625
19.733333	1	0.929500
19.750000	1	0.913375
19.766667	1	0.899625
19.783333	1	0.887750
19.800000	1	0.877750
19.816667	1	0.870500
19.833333	1	0.865250
19.850000	1	0.862250
19.866667	1	0.860875
19.883333	1	0.861500
19.900000	1	0.862875
19.916667	1	0.866125
19.933333	1	0.870125
19.950000	1	0.875000
19.966667	1	0.880625
19.983333	1	0.886125
20.000000	1	0.891875
20.016667	1	0.897000
20.033333	1	0.902000
20.050000	1	0.906125
20.066667	1	0.909375
20.083333	1	0.912875
20.100000	1	0.916250
20.116667	1	0.918500
20.133333	1	0.920000
20.150000	1	0.920875
20.166667	1	0.921750
20.183333	1	0.922625
20.200000	1	0.922750
20.216667	1	0.922750
20.233333	1	0.923375
20.250000	1	0.924000
20.266667	1	0.926000
20.283333	1	0.927375
20.300000	1	0.930000
20.316667	1	0.933125
20.333333	1	0.936500
20.350000	1	0.940625
20.366667	1	0.945875
20.383333	1	0.951625
20.400000	1	0.958625
20.416667	1	0.965625
20.433333	1	0.972750
20.450000	1	0.980125
20.466667	1	0.987250
20.483333	1	0.994000
20.500000	1	1.000625
20.516667	1	1.006500
20.533333	1	1.011250
20.550000	1	1.015000
20.566667	1	1.018625
20.583333	1	1.021375
20.600000	1	1.024125
20.616667	1	1.025875
20.633333	1	1.027000
20.650000	1	1.028875
20.666667	1	1.030250
20.683333	1	1.032000
20.700000	1	1.035000
20.716667	1	1.039750
20.733333	1	1.045375
20.750000	1	1.052375
20.766667	1	1.061625
20.783333	1	1.073125
20.800000	1	1.086125
20.816667	1	1.101500
20.833333	1	1.118875
20.850000	1	1.137500
20.866667	1	1.158125
20.883333	1	1.179625
20.900000	1	1.200500
20.916667	1	1.221625
20.933333	1	1.241625
20.950000	1	1.260000
20.966667	1	1.275750
20.983333	1	1.288125
21.000000	1	1.297875
21.016667	1	1.303875
21.033333	1	1.305750
21.050000	1	1.303125
21.066667	1	1.295375
21.083333	1	1.284125
21.100000	1	1.268375
21.116667	1	1.249625
21.133333	1	1.226875
21.150000	1	1.201250
21.166667	1	1.173125
21.183333	1	1.142875
21.200000	1	1.111125
21.216667	1	1.078500
21.233333	1	1.044750
21.250000	1	1.010750
21.266667	1	0.976125
21.283333	1	0.941750
21.300000	1	0.907875
21.316667	1	0.875125
21.333333	1	0.843750
21.350000	1	0.813750
21.366667	1	0.783750
21.383333	1	0.756375
21.400000	1	0.731000
21.416667	1	0.706500
21.433333	1	0.683625
21.450000	1	0.662500
21.466667	1	0.643125
21.483333	1	0.625750
21.500000	1	0.610125
21.516667	1	0.596125
21.533333	1	0.583500
21.550000	1	0.572625
21.566667	1	0.563500
21.583333	1	0.555625
21.600000	1	0.549750
21.616667	1	0.546125
21.633333	1	0.543375
21.650000	1	0.542875
21.666667	1	0.543875
21.683333	1	0.546125
21.700000	1	0.550125
21.716667	1	0.555250
21.733333	1	0.562500
21.750000	1	0.571125
21.766667	1	0.581875
21.783333	1	0.594125
21.800000	1	0.607875
21.816667	1	0.622875
21.833333	1	0.639625
21.850000	1	0.658125
21.866667	1	0.677625
21.883333	1	0.697500
21.900000	1	0.718125
21.916667	1	0.739500
21.933333	1	0.761375
21.950000	1	0.783000
21.966667	1	0.803250
21.983333	1	0.823750
22.000000	1	0.842375
22.016667	1	0.860000
22.033333	1	0.875375
22.050000	1	0.888375
22.066667	1	0.899750
22.083333	1	0.908500
22.100000	1	0.914500
22.116667	1	0.917125
22.133333	1	0.917875
22.150000	1	0.915625
22.166667	1	0.910375
22.183333	1	0.903625
22.200000	1	0.894375
22.216667	1	0.883625
22.233333	1	0.870875
22.250000	1	0.856625
22.266667	1	0.841750
22.283333	1	0.826125
22.300000	1	0.808750
22.316667	1	0.791125
22.333333	1	0.773875
22.350000	1	0.756500
22.366667	1	0.740375
22.383333	1	0.724250
22.400000	1	0.708625
22.416667	1	0.694000
22.433333	1	0.680000
22.450000	1	0.665875
22.466667	1	0.653875
22.483333	1	0.642000
22.500000	1	0.631000
22.516667	1	0.621250
22.533333	1	0.612500
22.550000	1	0.604500
22.566667	1	0.597500
22.583333	1	0.591000
22.600000	1	0.585125
22.616667	1	0.579750
22.633333	1	0.575250
22.650000	1	0.571125
22.666667	1	0.566750
22.683333	1	0.563125
22.700000	1	0.560125
22.716667	1	0.556750
22.733333	1	0.553875
22.750000	1	0.551875
22.766667	1	0.549500
22.783333	1	0.546375
22.800000	1	0.544125
22.816667	1	0.541500
22.833333	1	0.538500
22.850000	1	0.535375
22.866667	1	0.531875
22.883333	1	0.528750
22.900000	1	0.524750
22.916667	1	0.521000
22.933333	1	0.517250
22.950000	1	0.513625
22.966667	1	0.510125
22.983333	1	0.506750
23.000000	1	0.504125
23.016667	1	0.501000
23.033333	1	0.498500
23.050000	1	0.496500
23.066667	1	0.494625
23.083333	1	0.494000
23.100000	1	0.493250
23.116667	1	0.494000
23.133333	1	0.495875
23.150000	1	0.498375
23.166667	1	0.501875
23.183333	1	0.506750
23.200000	1	0.512625
23.216667	1	0.520375
23.233333	1	0.530125
23.250000	1	0.540500
23.266667	1	0.552500
23.283333	1	0.565875
23.300000	1	0.581750
23.316667	1	0.599875
23.333333	1	0.619000
23.350000	1	0.640250
23.366667	1	0.664625
23.383333	1	0.690875
23.400000	1	0.719250
23.416667	1	0.750750
23.433333	1	0.784500
23.450000	1	0.821000
23.466667	1	0.860250
23.483333	1	0.902750
23.500000	1	0.948375
23.516667	1	0.998750
23.533333	1	1.053375
23.550000	1	1.113375
23.566667	1	1.177250
23.583333	1	1.247750
23.600000	1	1.323125
23.616667	1	1.404375
23.633333	1	1.492875
23.650000	1	1.587875
23.666667	1	1.690000
23.683333	1	1.799250
23.700000	1	1.914750
23.716667	1	2.037875
23.733333	1	2.166125
23.750000	1	2.300625
23.766667	1	2.438500
23.783333	1	2.579375
23.800000	1	2.721625
23.816667	1	2.863625
23.833333	1	3.003250
23.850000	1	3.137375
23.866667	1	3.266250
23.883333	1	3.386250
23.900000	1	3.496375
23.916667	1	3.595750
23.933333	1	3.681625
23.950000	1	3.751500
23.966667	1	3.806000
23.983333	1	3.844250
24.000000	1	3.866250
24.016667	1	3.871500
24.033333	1	3.858750
24.050000	1	3.831125
24.066667	1	3.788625
24.083333	1	3.732500
24.100000	1	3.662750
24.116667	1	3.581625
24.133333	1	3.490000
24.150000	1	3.390875
24.166667	1	3.283875
24.183333	1	3.171500
24.200000	1	3.054750
24.216667	1	2.935750
24.233333	1	2.815500
24.250000	1	2.694875
24.266667	1	2.574750
24.283333	1	2.456375
24.300000	1	2.340250
24.316667	1	2.227500
24.333333	1	2.117625
24.350000	1	2.012125
24.366667	1	1.911000
24.383333	1	1.815250
24.400000	1	1.723250
24.416667	1	1.636000
24.433333	1	1.554500
24.450000	1	1.478375
24.466667	1	1.406750
24.483333	1	1.340000
24.500000	1	1.277750
24.516667	1	1.218625
24.533333	1	1.165125
24.550000	1	1.115750
24.566667	1	1.069750
24.583333	1	1.026500
24.600000	1	0.986625
24.616667	1	0.949875
24.633333	1	0.916000
24.650000	1	0.884375
24.666667	1	0.854500
24.683333	1	0.826375
24.700000	1	0.799000
24.716667	1	0.773500
24.733333	1	0.750000
24.750000	1	0.727750
24.766667	1	0.706375
24.783333	1	0.685500
24.800000	1	0.665375
24.816667	1	0.645875
24.833333	1	0.626875
24.850000	1	0.608250
24.866667	1	0.590500
24.883333	1	0.573125
24.900000	1	0.555500
24.916667	1	0.539250
24.933333	1	0.522625
24.950000	1	0.507500
24.966667	1	0.492250
24.983333	1	0.477750
25.000000	1	0.463875
25.016667	1	0.450500
25.033333	1	0.437375
25.050000	1	0.424875
25.066667	1	0.413625
25.083333	1	0.402750
25.100000	1	0.391750
25.116667	1	0.382250
25.133333	1	0.373125
25.150000	1	0.364250
25.166667	1	0.356625
25.183333	1	0.350125
25.200000	1	0.344000
25.216667	1	0.337750
25.233333	1	0.333000
25.250000	1	0.328125
25.266667	1	0.324250
25.283333	1	0.320500
25.300000	1	0.318000
25.316667	1	0.315250
25.333333	1	0.313000
25.350000	1	0.312125
25.366667	1	0.311375
25.383333	1	0.310500
25.400000	1	0.310750
25.416667	1	0.310625
25.433333	1	0.309375
25.450000	1	0.310375
25.466667	1	0.310875
25.483333	1	0.311250
25.500000	1	0.311875
25.516667	1	0.313125
25.533333	1	0.313875
25.550000	1	0.315125
25.566667	1	0.316125
25.583333	1	0.316875
25.600000	1	0.317625
25.616667	1	0.318500
25.633333	1	0.319500
25.650000	1	0.320625
25.666667	1	0.321125
25.683333	1	0.322125
25.700000	1	0.323375
25.716667	1	0.323625
25.733333	1	0.324750
25.750000	1	0.325750
25.766667	1	0.326250
25.783333	1	0.326500
25.800000	1	0.326000
25.816667	1	0.326750
25.833333	1	0.327000
25.850000	1	0.327875
25.866667	1	0.328000
25.883333	1	0.328250
25.900000	1	0.328625
25.916667	1	0.329625
25.933333	1	0.330125
25.950000	1	0.330500
25.966667	1	0.330875
25.983333	1	0.331000
26.000000	1	0.331500
26.016667	1	0.331750
26.033333	1	0.331750
26.050000	1	0.332125
26.066667	1	0.332125
26.083333	1	0.332125
26.100000	1	0.332750
26.116667	1	0.333500
26.133333	1	0.334500
26.150000	1	0.334750
26.166667	1	0.334750
26.183333	1	0.335625
26.200000	1	0.335250
26.216667	1	0.336250
26.233333	1	0.337125
26.250000	1	0.338625
26.266667	1	0.339500
26.283333	1	0.340625
26.300000	1	0.342375
26.316667	1	0.344125
26.333333	1	0.346125
26.350000	1	0.347750
26.366667	1	0.349250
26.383333	1	0.351750
26.400000	1	0.353125
26.416667	1	0.354500
26.433333	1	0.357000
26.450000	1	0.358750
26.466667	1	0.360250
26.483333	1	0.362125
26.500000	1	0.363375
26.516667	1	0.364000
26.533333	1	0.365000
26.550000	1	0.365750
26.566667	1	0.366375
26.583333	1	0.367250
26.600000	1	0.367000
26.616667	1	0.366375
26.633333	1	0.365250
26.650000	1	0.364625
26.666667	1	0.364000
26.683333	1	0.362125
26.700000	1	0.360375
26.716667	1	0.358375
26.733333	1	0.356875
26.750000	1	0.353625
26.766667	1	0.351375
26.783333	1	0.348375
26.800000	1	0.345500
26.816667	1	0.342125
26.833333	1	0.339125
26.850000	1	0.336875
26.866667	1	0.334750
26.883333	1	0.332375
26.900000	1	0.330125
26.916667	1	0.328250
26.933333	1	0.326625
26.950000	1	0.324875
26.966667	1	0.323500
26.983333	1	0.323000
27.000000	1	0.323125
27.016667	1	0.323000
27.033333	1	0.324250
27.050000	1	0.325750
27.066667	1	0.327000
27.083333	1	0.329750
27.100000	1	0.333500
27.116667	1	0.338000
27.133333	1	0.343000
27.150000	1	0.349000
27.166667	1	0.355875
27.183333	1	0.363250
27.200000	1	0.371500
27.216667	1	0.380625
27.233333	1	0.390750
27.250000	1	0.402250
27.266667	1	0.414125
27.283333	1	0.426875
27.300000	1	0.441250
27.316667	1	0.455750
27.333333	1	0.472375
27.350000	1	0.489125
27.366667	1	0.507875
27.383333	1	0.527375
27.400000	1	0.548875
27.416667	1	0.570750
27.433333	1	0.594500
27.450000	1	0.619250
27.466667	1	0.645125
27.483333	1	0.673000
27.500000	1	0.702125
27.516667	1	0.733625
27.533333	1	0.767000
27.550000	1	0.802250
27.566667	1	0.840500
27.583333	1	0.880500
27.600000	1	0.923750
27.616667	1	0.969625
27.633333	1	1.019125
27.650000	1	1.073375
27.666667	1	1.130250
27.683333	1	1.192000
27.700000	1	1.258625
27.716667	1	1.329750
27.733333	1	1.405500
27.750000	1	1.486125
27.766667	1	1.571500
27.783333	1	1.661875
27.800000	1	1.756250
27.816667	1	1.855500
27.833333	1	1.958625
27.850000	1	2.064875
27.866667	1	2.175750
27.883333	1	2.289250
27.900000	1	2.403875
27.916667	1	2.519125
27.933333	1	2.634375
27.950000	1	2.747875
27.966667	1	2.859500
27.983333	1	2.966875
28.000000	1	3.069125
28.016667	1	3.164375
28.033333	1	3.253500
28.050000	1	3.334125
28.066667	1	3.405000
28.083333	1	3.466000
28.100000	1	3.515000
28.116667	1	3.551625
28.133333	1	3.576500
28.150000	1	3.588000
28.166667	1	3.586750
28.183333	1	3.572125
28.200000	1	3.544375
28.216667	1	3.504125
28.233333	1	3.451625
28.250000	1	3.387750
28.266667	1	3.312625
28.283333	1	3.227375
28.300000	1	3.132625
28.316667	1	3.029750
28.333333	1	2.919875
28.350000	1	2.804625
28.366667	1	2.684500
28.383333	1	2.561125
28.400000	1	2.435000
28.416667	1	2.306500
28.433333	1	2.177000
28.450000	1	2.047875
28.466667	1	1.919500
28.483333	1	1.793625
28.500000	1	1.668875
28.516667	1	1.546875
28.533333	1	1.428125
28.550000	1	1.312125
28.566667	1	1.199625
28.583333	1	1.091500
28.600000	1	0.987250
28.616667	1	0.886750
28.633333	1	0.789750
28.650000	1	0.697875
28.666667	1	0.609375
28.683333	1	0.525125
28.700000	1	0.444250
28.716667	1	0.368500
28.733333	1	0.295125
28.750000	1	0.225125
28.766667	1	0.159125
28.783333	1	0.096500
28.800000	1	0.037375
28.816667	1	-0.018000
28.833333	1	-0.070750
28.850000	1	-0.120625
28.866667	1	-0.167000
28.883333	1	-0.210375
28.900000	1	-0.250375
28.916667	1	-0.288000
28.933333	1	-0.322875
28.950000	1	-0.353875
28.966667	1	-0.382250
28.983333	1	-0.407625
29.000000	1	-0.430000
29.016667	1	-0.449000
29.033333	1	-0.464750
29.050000	1	-0.477625
29.066667	1	-0.487250
29.083333	1	-0.494625
29.100000	1	-0.498625
29.116667	1	-0.500125
29.133333	1	-0.498125
29.150000	1	-0.494250
29.166667	1	-0.487750
29.183333	1	-0.477750
29.200000	1	-0.466375
29.216667	1	-0.452750
29.233333	1	-0.437000
29.250000	1	-0.419250
29.266667	1	-0.399375
29.283333	1	-0.377750
29.300000	1	-0.354875
29.316667	1	-0.331000
29.333333	1	-0.305500
29.350000	1	-0.279125
29.366667	1	-0.252875
29.383333	1	-0.224500
29.400000	1	-0.196125
29.416667	1	-0.167750
29.433333	1	-0.138625
29.450000	1	-0.109500
29.466667	1	-0.080125
29.483333	1	-0.051000
29.500000	1	-0.022375
29.516667	1	0.005500
29.533333	1	0.033250
29.550000	1	0.060000
29.566667	1	0.086250
29.583333	1	0.111500
29.600000	1	0.136875
29.616667	1	0.160500
29.633333	1	0.183750
29.650000	1	0.205875
29.666667	1	0.227500
29.683333	1	0.247875
29.700000	1	0.266750
29.716667	1	0.284375
29.733333	1	0.301375
29.750000	1	0.317500
29.766667	1	0.332000
29.783333	1	0.345750
29.800000	1	0.357750
29.816667	1	0.370125
29.833333	1	0.380625
29.850000	1	0.390875
29.866667	1	0.400125
29.883333	1	0.408375
29.900000	1	0.415875
29.916667	1	0.422875
29.933333	1	0.428750
29.950000	1	0.434250
29.966667	1	0.439875
29.983333	1	0.444000
30.000000	1	0.447500
30.016667	1	0.451375
30.033333	1	0.456250
30.050000	1	0.458625
30.066667	1	0.461875
30.083333	1	0.464625
30.100000	1	0.467500
30.116667	1	0.470375
30.133333	1	0.473375
30.150000	1	0.476375
30.166667	1	0.479875
30.183333	1	0.483625
30.200000	1	0.487875
30.216667	1	0.492000
30.233333	1	0.496000
30.250000	1	0.500500
30.266667	1	0.505125
30.283333	1	0.510875
30.300000	1	0.516250
30.316667	1	0.522500
30.333333	1	0.529625
30.350000	1	0.536750
30.366667	1	0.545250
30.383333	1	0.553375
30.400000	1	0.562500
30.416667	1	0.573000
30.433333	1	0.583875
30.450000	1	0.595375
30.466667	1	0.607625
30.483333	1	0.621625
30.500000	1	0.636375
30.516667	1	0.651875
30.533333	1	0.668750
30.550000	1	0.686750
30.566667	1	0.705500
30.583333	1	0.726250
30.600000	1	0.747000
30.616667	1	0.769750
30.633333	1	0.794125
30.650000	1	0.819875
30.666667	1	0.845875
30.683333	1	0.872750
30.700000	1	0.901250
30.716667	1	0.930250
30.733333	1	0.959375
30.750000	1	0.989500
30.766667	1	1.019125
30.783333	1	1.048375
30.800000	1	1.078625
30.816667	1	1.107875
30.833333	1	1.135875
30.850000	1	1.162250
30.866667	1	1.188375
30.883333	1	1.213375
30.900000	1	1.235250
30.916667	1	1.255250
30.933333	1	1.273125
30.950000	1	1.288250
30.966667	1	1.299750
30.983333	1	1.307750
31.000000	1	1.313750
31.016667	1	1.315750
31.033333	1	1.315000
31.050000	1	1.310875
31.066667	1	1.303875
31.083333	1	1.293875
31.100000	1	1.280625
31.116667	1	1.264500
31.133333	1	1.245000
31.150000	1	1.223625
31.166667	1	1.199250
31.183333	1	1.174000
31.200000	1	1.146625
31.216667	1	1.117250
31.233333	1	1.086250
31.250000	1	1.055000
31.266667	1	1.022500
31.283333	1	0.990000
31.300000	1	0.956750
31.316667	1	0.923375
31.333333	1	0.889125
31.350000	1	0.856250
31.366667	1	0.823750
31.383333	1	0.791375
31.400000	1	0.760125
31.416667	1	0.729250
31.433333	1	0.699000
31.450000	1	0.670125
31.466667	1	0.642500
31.483333	1	0.615750
31.500000	1	0.590875
31.516667	1	0.566250
31.533333	1	0.543125
31.550000	1	0.521000
31.566667	1	0.500500
31.583333	1	0.481750
31.600000	1	0.463375
31.616667	1	0.445750
31.633333	1	0.430125
31.650000	1	0.416125
31.666667	1	0.403125
31.683333	1	0.391125
31.700000	1	0.379875
31.716667	1	0.369375
31.733333	1	0.360125
31.750000	1	0.352500
31.766667	1	0.345500
31.783333	1	0.339000
31.800000	1	0.333875
31.816667	1	0.329250
31.833333	1	0.325000
31.850000	1	0.322125
31.866667	1	0.319375
31.883333	1	0.317500
31.900000	1	0.317125
31.916667	1	0.316750
31.933333	1	0.316750
31.950000	1	0.317750
31.966667	1	0.317750
31.983333	1	0.318750
32.000000	1	0.320125
32.016667	1	0.321375
32.033333	1	0.322625
32.050000	1	0.325000
32.066667	1	0.327250
32.083333	1	0.328750
32.100000	1	0.330625
32.116667	1	0.332000
32.133333	1	0.334125
32.150000	1	0.336375
32.166667	1	0.338375
32.183333	1	0.339125
32.200000	1	0.340375
32.216667	1	0.341250
32.233333	1	0.342375
32.250000	1	0.343125
32.266667	1	0.343750
32.283333	1	0.342750
32.300000	1	0.342750
32.316667	1	0.341750
32.333333	1	0.340250
32.350000	1	0.339125
32.366667	1	0.337125
32.383333	1	0.335500
32.400000	1	0.332250
32.416667	1	0.328875
32.433333	1	0.326000
32.450000	1	0.323125
32.466667	1	0.320125
32.483333	1	0.316125
32.500000	1	0.312125
32.516667	1	0.307750
32.533333	1	0.303625
32.550000	1	0.299500
32.566667	1	0.294000
32.583333	1	0.288750
32.600000	1	0.283250
32.616667	1	0.277625
32.633333	1	0.271625
32.650000	1	0.265375
32.666667	1	0.258750
32.683333	1	0.253000
32.700000	1	0.246625
32.716667	1	0.240000
32.733333	1	0.233000
32.750000	1	0.226000
32.766667	1	0.218625
32.783333	1	0.211625
32.800000	1	0.204250
32.816667	1	0.196750
32.833333	1	0.190250
32.850000	1	0.183375
32.866667	1	0.175875
32.883333	1	0.168625
32.900000	1	0.161500
32.916667	1	0.154375
32.933333	1	0.148000
32.950000	1	0.141500
32.966667	1	0.134750
32.983333	1	0.128500
33.000000	1	0.122500
33.016667	1	0.117125
33.033333	1	0.111625
33.050000	1	0.106125
33.066667	1	0.101250
33.083333	1	0.097000
33.100000	1	0.092000
33.116667	1	0.087000
33.133333	1	0.082750
33.150000	1	0.079875
33.166667	1	0.077000
33.183333	1	0.074250
33.200000	1	0.070875
33.216667	1	0.068375
33.233333	1	0.066375
33.250000	1	0.064500
33.266667	1	0.062875
33.283333	1	0.062000
33.300000	1	0.060875
33.316667	1	0.060000
33.333333	1	0.060000
33.350000	1	0.059750
33.366667	1	0.059625
33.383333	1	0.059750
33.400000	1	0.060250
33.416667	1	0.061500
33.433333	1	0.063125
33.450000	1	0.064875
33.466667	1	0.067125
33.483333	1	0.069250
33.500000	1	0.072000
33.516667	1	0.074750
33.533333	1	0.076875
33.550000	1	0.080250
33.566667	1	0.083625
33.583333	1	0.087250
33.600000	1	0.091625
33.616667	1	0.096750
33.633333	1	0.100875
33.650000	1	0.105375
33.666667	1	0.110375
33.683333	1	0.115500
33.700000	1	0.121250
33.716667	1	0.126875
33.733333	1	0.133000
33.750000	1	0.139000
33.766667	1	0.146000
33.783333	1	0.153250
33.800000	1	0.160500
33.816667	1	0.169250
33.833333	1	0.178000
33.850000	1	0.187500
33.866667	1	0.196750
33.883333	1	0.206250
33.900000	1	0.216500
33.916667	1	0.227500
33.933333	1	0.238875
33.950000	1	0.251875
33.966667	1	0.264625
33.983333	1	0.278375
34.000000	1	0.292750
34.016667	1	0.307500
34.033333	1	0.322875
34.050000	1	0.339125
34.066667	1	0.355500
34.083333	1	0.372500
34.100000	1	0.389875
34.116667	1	0.408625
34.133333	1	0.427250
34.150000	1	0.446625
34.166667	1	0.465250
34.183333	1	0.484250
34.200000	1	0.502375
34.216667	1	0.521125
34.233333	1	0.539125
34.250000	1	0.556875
34.266667	1	0.573250
34.283333	1	0.589125
34.300000	1	0.604500
34.316667	1	0.618250
34.333333	1	0.630750
34.350000	1	0.641750
34.366667	1	0.651875
34.383333	1	0.660625
34.400000	1	0.667500
34.416667	1	0.672125
34.433333	1	0.675625
34.450000	1	0.677500
34.466667	1	0.677625
34.483333	1	0.675750
34.500000	1	0.672375
34.516667	1	0.667375
34.533333	1	0.661125
34.550000	1	0.653125
34.566667	1	0.644125
34.583333	1	0.633250
34.600000	1	0.621625
34.616667	1	0.608125
34.633333	1	0.593750
34.650000	1	0.579250
34.666667	1	0.563875
34.683333	1	0.548250
34.700000	1	0.532000
34.716667	1	0.515125
34.733333	1	0.497750
34.750000	1	0.480750
34.766667	1	0.463250
34.783333	1	0.445375
34.800000	1	0.428125
34.816667	1	0.410875
34.833333	1	0.394375
34.850000	1	0.377875
34.866667	1	0.361875
34.883333	1	0.346625
34.900000	1	0.332000
34.916667	1	0.316750
34.933333	1	0.302875
34.950000	1	0.289500
34.966667	1	0.277000
34.983333	1	0.265500
35.000000	1	0.254500
35.016667	1	0.243750
35.033333	1	0.234500
35.050000	1	0.225375
35.066667	1	0.217000
35.083333	1	0.209250
35.100000	1	0.202125
35.116667	1	0.195250
35.133333	1	0.189375
35.150000	1	0.183875
35.166667	1	0.178750
35.183333	1	0.174625
35.200000	1	0.171750
35.216667	1	0.168250
35.233333	1	0.165375
35.250000	1	0.163250
35.266667	1	0.161375
35.283333	1	0.160000
35.300000	1	0.158000
35.316667	1	0.157250
35.333333	1	0.156000
35.350000	1	0.155750
35.366667	1	0.155250
35.383333	1	0.155375
35.400000	1	0.155750
35.416667	1	0.156750
35.433333	1	0.156375
35.450000	1	0.157250
35.466667	1	0.157875
35.483333	1	0.158375
35.500000	1	0.158250
35.516667	1	0.159500
35.533333	1	0.160125
35.550000	1	0.161000
35.566667	1	0.161750
35.583333	1	0.162875
35.600000	1	0.163500
35.616667	1	0.164000
35.633333	1	0.164750
35.650000	1	0.164875
35.666667	1	0.165500
35.683333	1	0.165750
35.700000	1	0.166000
35.716667	1	0.166375
35.733333	1	0.166625
35.750000	1	0.166750
35.766667	1	0.167125
35.783333	1	0.167000
35.800000	1	0.167375
35.816667	1	0.167000
35.833333	1	0.167250
35.850000	1	0.167500
35.866667	1	0.166875
35.883333	1	0.166250
35.900000	1	0.165875
35.916667	1	0.166000
35.933333	1	0.165875
35.950000	1	0.165375
35.966667	1	0.165625
35.983333	1	0.165500
36.000000	1	0.165000
36.016667	1	0.164500
36.033333	1	0.164125
36.050000	1	0.164000
36.066667	1	0.163375
36.083333	1	0.162500
36.100000	1	0.161875
36.116667	1	0.162000
36.133333	1	0.162250
36.150000	1	0.162125
36.166667	1	0.161375
36.183333	1	0.160500
36.200000	1	0.160000
36.216667	1	0.159125
36.233333	1	0.158375
36.250000	1	0.158125
36.266667	1	0.157250
36.283333	1	0.156125
36.300000	1	0.155000
36.316667	1	0.154125
36.333333	1	0.153375
36.350000	1	0.151875
36.366667	1	0.150500
36.383333	1	0.149250
36.400000	1	0.148625
36.416667	1	0.147250
36.433333	1	0.145500
36.450000	1	0.144000
36.466667	1	0.142250
36.483333	1	0.139875
36.500000	1	0.138375
36.516667	1	0.136000
36.533333	1	0.133625
36.550000	1	0.131875
36.566667	1	0.130125
36.583333	1	0.128375
36.600000	1	0.126750
36.616667	1	0.124375
36.633333	1	0.121750
36.650000	1	0.119000
36.666667	1	0.116000
36.683333	1	0.113250
36.700000	1	0.111250
36.716667	1	0.108625
36.733333	1	0.106250
36.750000	1	0.104000
36.766667	1	0.101125
36.783333	1	0.098750
36.800000	1	0.095750
36.816667	1	0.093375
36.833333	1	0.091250
36.850000	1	0.089125
36.866667	1	0.086625
36.883333	1	0.083625
36.900000	1	0.081000
36.916667	1	0.078625
36.933333	1	0.075750
36.950000	1	0.073500
36.966667	1	0.070500
36.983333	1	0.068000
37.000000	1	0.065375
37.016667	1	0.063000
37.033333	1	0.060500
37.050000	1	0.057250
37.066667	1	0.055000
37.083333	1	0.052125
37.100000	1	0.049875
37.116667	1	0.047000
37.133333	1	0.044125
37.150000	1	0.041625
37.166667	1	0.039250
37.183333	1	0.037000
37.200000	1	0.035000
37.216667	1	0.033250
37.233333	1	0.031125
37.250000	1	0.028875
37.266667	1	0.026750
37.283333	1	0.024625
37.300000	1	0.023125
37.316667	1	0.022125
37.333333	1	0.020375
37.350000	1	0.019375
37.366667	1	0.018375
37.383333	1	0.017250
37.400000	1	0.016875
37.416667	1	0.016250
37.433333	1	0.014625
37.450000	1	0.013500
37.466667	1	0.012500
37.483333	1	0.011375
37.500000	1	0.011250
37.516667	1	0.010875
37.533333	1	0.010375
37.550000	1	0.010000
37.566667	1	0.009750
37.583333	1	0.009250
37.600000	1	0.008625
37.616667	1	0.008000
37.633333	1	0.007375
37.650000	1	0.006375
37.666667	1	0.006125
37.683333	1	0.006250
37.700000	1	0.006500
37.716667	1	0.005875
37.733333	1	0.006000
37.750000	1	0.005625
37.766667	1	0.005750
37.783333	1	0.005875
37.800000	1	0.005625
37.816667	1	0.005125
37.833333	1	0.005125
37.850000	1	0.004875
37.866667	1	0.004500
37.883333	1	0.004125
37.900000	1	0.004125
37.916667	1	0.003750
37.933333	1	0.003625
37.950000	1	0.003375
37.966667	1	0.003625
37.983333	1	0.003750
38.000000	1	0.003375
38.016667	1	0.003125
38.033333	1	0.002875
38.050000	1	0.003250
38.066667	1	0.003375
38.083333	1	0.003750
38.100000	1	0.003500
38.116667	1	0.003625
38.133333	1	0.003875
38.150000	1	0.003625
38.166667	1	0.003500
38.183333	1	0.003250
38.200000	1	0.003000
38.216667	1	0.002875
38.233333	1	0.002750
38.250000	1	0.002500
38.266667	1	0.003000
38.283333	1	0.003250
38.300000	1	0.003750
38.316667	1	0.003750
38.333333	1	0.004250
38.350000	1	0.004500
38.366667	1	0.004500
38.383333	1	0.004750
38.400000	1	0.005375
38.416667	1	0.005625
38.433333	1	0.005500
38.450000	1	0.005625
38.466667	1	0.005500
38.483333	1	0.005875
38.500000	1	0.006375
38.516667	1	0.006750
38.533333	1	0.007000
38.550000	1	0.007125
38.566667	1	0.007500
38.583333	1	0.007750
38.600000	1	0.007500
38.616667	1	0.007500
38.633333	1	0.007375
38.650000	1	0.007000
38.666667	1	0.006625
38.683333	1	0.006750
38.700000	1	0.007250
38.716667	1	0.007375
38.733333	1	0.007500
38.750000	1	0.007375
38.766667	1	0.007000
38.783333	1	0.007375
38.800000	1	0.007500
38.816667	1	0.007875
38.833333	1	0.007125
38.850000	1	0.006625
38.866667	1	0.006375
38.883333	1	0.006000
38.900000	1	0.005750
38.916667	1	0.005500
38.933333	1	0.005125
38.950000	1	0.005250
38.966667	1	0.004375
38.983333	1	0.004000
39.000000	1	0.004125
39.016667	1	0.003625
39.033333	1	0.003250
39.050000	1	0.002500
39.066667	1	0.002000
39.083333	1	0.001375
39.100000	1	0.001125
39.116667	1	0.001000
39.133333	1	0.000625
39.150000	1	0.000875
39.166667	1	0.000500
39.183333	1	0.000125
39.200000	1	0.000375
39.216667	1	0.000375
39.233333	1	-0.000250
39.250000	1	-0.000750
39.266667	1	-0.000750
39.283333	1	-0.000625
39.300000	1	-0.000750
39.316667	1	-0.000875
39.333333	1	-0.001125
39.350000	1	-0.001500
39.366667	1	-0.001875
39.383333	1	-0.001125
39.400000	1	-0.001375
39.416667	1	-0.001250
39.433333	1	-0.001500
39.450000	1	-0.001625
39.466667	1	-0.001875
39.483333	1	-0.002125
39.500000	1	-0.002500
39.516667	1	-0.002750
39.533333	1	-0.002625
39.550000	1	-0.002750
39.566667	1	-0.002750
39.583333	1	-0.003250
39.600000	1	-0.003125
39.616667	1	-0.003000
39.633333	1	-0.003125
39.650000	1	-0.003250
39.666667	1	-0.003750
39.683333	1	-0.004000
39.700000	1	-0.004500
39.716667	1	-0.004000
39.733333	1	-0.004250
39.750000	1	-0.003875
39.766667	1	-0.003000
39.783333	1	-0.002750
39.800000	1	-0.002375
39.816667	1	-0.002375
39.833333	1	-0.002375
39.850000	1	-0.002125
39.866667	1	-0.001875
39.883333	1	-0.000875
39.900000	1	-0.001250
39.916667	1	-0.000250
39.933333	1	0.000500
39.950000	1	0.001250
39.966667	1	0.002625
39.983333	1	0.004125
40.000000	1	0.005500
