URL	chrom://bioreactor/micro_cm7/HPLC_Ultimate_3000/Users/markusar/20240708_MA_pHrange1.seq/239.smp/RI_1.channel/RI_1.chm
Channel	RI_1

Injection Information:
Data Vault	micro_cm7
Sequence	20240708_MA_pHrange1
Name	Pv1_6.5_4
Number	5
Position	BA5
Comment	
Processing Method	
Instrument Method	run_25B_method
Type	Unknown
Status	Finished
Inject Time	08.07.2024 18:18:19 +02:00
Volume (µl)	20.0000
Dilution Factor	1.0000
Weight	1.0000

Chromatogram Data Information:
Time Min. (min)	0.000000
Time Max. (min)	40.000000
Data Points	2401
Detector	RI
Generating Data System	Chromeleon 7.3.2.11814
Exporting Data System	Chromeleon 7.3.2.0
Operator	Instrument Controller
Signal Quantity	Refractive 
Signal Unit	µRIU
Signal Min.	-0.066500
Signal Max.	82.932250
Channel	RI_1
Driver Name	RID520Driver.dll
Channel Type	Evaluation
Min. Step (s)	1
Max. Step (s)	1
Average Step (s)	1

Signal Parameter Information:
Signal Info	

Chromatogram Data:
Time (min)	Step (s)	Value (µRIU)
0.000000	n.a.	0.052750
0.016667	1	0.052000
0.033333	1	0.050500
0.050000	1	0.048750
0.066667	1	0.047500
0.083333	1	0.046250
0.100000	1	0.044750
0.116667	1	0.043375
0.133333	1	0.042250
0.150000	1	0.041000
0.166667	1	0.039500
0.183333	1	0.037625
0.200000	1	0.036250
0.216667	1	0.034750
0.233333	1	0.033375
0.250000	1	0.032375
0.266667	1	0.031500
0.283333	1	0.029625
0.300000	1	0.028375
0.316667	1	0.027375
0.333333	1	0.025875
0.350000	1	0.024625
0.366667	1	0.023375
0.383333	1	0.021375
0.400000	1	0.021000
0.416667	1	0.020375
0.433333	1	0.021000
0.450000	1	0.022250
0.466667	1	0.023375
0.483333	1	0.023875
0.500000	1	0.024250
0.516667	1	0.024750
0.533333	1	0.023750
0.550000	1	0.022375
0.566667	1	0.021000
0.583333	1	0.019000
0.600000	1	0.016375
0.616667	1	0.014625
0.633333	1	0.012625
0.650000	1	0.012000
0.666667	1	0.011125
0.683333	1	0.010500
0.700000	1	0.009750
0.716667	1	0.009000
0.733333	1	0.008250
0.750000	1	0.008000
0.766667	1	0.007625
0.783333	1	0.007125
0.800000	1	0.007125
0.816667	1	0.007625
0.833333	1	0.007500
0.850000	1	0.007500
0.866667	1	0.007750
0.883333	1	0.007875
0.900000	1	0.008125
0.916667	1	0.008375
0.933333	1	0.008500
0.950000	1	0.007875
0.966667	1	0.007000
0.983333	1	0.007250
1.000000	1	0.007250
1.016667	1	0.006375
1.033333	1	0.006375
1.050000	1	0.006750
1.066667	1	0.006750
1.083333	1	0.005625
1.100000	1	0.004625
1.116667	1	0.003875
1.133333	1	0.003125
1.150000	1	0.002750
1.166667	1	0.001750
1.183333	1	0.000625
1.200000	1	-0.000250
1.216667	1	-0.001125
1.233333	1	-0.002250
1.250000	1	-0.003125
1.266667	1	-0.003375
1.283333	1	-0.004000
1.300000	1	-0.004625
1.316667	1	-0.005375
1.333333	1	-0.006250
1.350000	1	-0.006500
1.366667	1	-0.006500
1.383333	1	-0.006625
1.400000	1	-0.007125
1.416667	1	-0.007750
1.433333	1	-0.007625
1.450000	1	-0.008000
1.466667	1	-0.007875
1.483333	1	-0.007625
1.500000	1	-0.007500
1.516667	1	-0.007125
1.533333	1	-0.007000
1.550000	1	-0.007375
1.566667	1	-0.007375
1.583333	1	-0.007000
1.600000	1	-0.006500
1.616667	1	-0.007375
1.633333	1	-0.007000
1.650000	1	-0.007125
1.666667	1	-0.007375
1.683333	1	-0.007000
1.700000	1	-0.007250
1.716667	1	-0.007625
1.733333	1	-0.007250
1.750000	1	-0.007000
1.766667	1	-0.007125
1.783333	1	-0.006875
1.800000	1	-0.007000
1.816667	1	-0.007000
1.833333	1	-0.007125
1.850000	1	-0.006375
1.866667	1	-0.006750
1.883333	1	-0.007000
1.900000	1	-0.006875
1.916667	1	-0.006750
1.933333	1	-0.006625
1.950000	1	-0.006750
1.966667	1	-0.006625
1.983333	1	-0.006000
2.000000	1	-0.004875
2.016667	1	-0.004500
2.033333	1	-0.003750
2.050000	1	-0.002875
2.066667	1	-0.002750
2.083333	1	-0.002625
2.100000	1	-0.002500
2.116667	1	-0.002375
2.133333	1	-0.002500
2.150000	1	-0.002000
2.166667	1	-0.001500
2.183333	1	-0.001000
2.200000	1	-0.000750
2.216667	1	-0.001000
2.233333	1	0.000375
2.250000	1	0.001125
2.266667	1	0.001500
2.283333	1	0.001750
2.300000	1	0.001750
2.316667	1	0.001625
2.333333	1	0.001875
2.350000	1	0.001875
2.366667	1	0.001875
2.383333	1	0.002750
2.400000	1	0.002625
2.416667	1	0.002750
2.433333	1	0.002750
2.450000	1	0.002250
2.466667	1	0.001625
2.483333	1	0.001125
2.500000	1	0.000875
2.516667	1	0.000750
2.533333	1	0.000500
2.550000	1	0.000125
2.566667	1	-0.001375
2.583333	1	-0.001875
2.600000	1	-0.002625
2.616667	1	-0.003625
2.633333	1	-0.004625
2.650000	1	-0.005875
2.666667	1	-0.006875
2.683333	1	-0.008250
2.700000	1	-0.009000
2.716667	1	-0.010125
2.733333	1	-0.011250
2.750000	1	-0.012875
2.766667	1	-0.013875
2.783333	1	-0.014750
2.800000	1	-0.015875
2.816667	1	-0.017125
2.833333	1	-0.017375
2.850000	1	-0.018000
2.866667	1	-0.018000
2.883333	1	-0.018250
2.900000	1	-0.017750
2.916667	1	-0.017750
2.933333	1	-0.017500
2.950000	1	-0.016875
2.966667	1	-0.016375
2.983333	1	-0.015125
3.000000	1	-0.014375
3.016667	1	-0.013125
3.033333	1	-0.011625
3.050000	1	-0.010500
3.066667	1	-0.009500
3.083333	1	-0.007625
3.100000	1	-0.005875
3.116667	1	-0.004125
3.133333	1	-0.002875
3.150000	1	-0.001125
3.166667	1	0.000500
3.183333	1	0.002250
3.200000	1	0.004250
3.216667	1	0.007000
3.233333	1	0.008750
3.250000	1	0.010500
3.266667	1	0.012625
3.283333	1	0.014250
3.300000	1	0.015625
3.316667	1	0.017625
3.333333	1	0.018875
3.350000	1	0.020500
3.366667	1	0.021750
3.383333	1	0.023500
3.400000	1	0.024750
3.416667	1	0.025875
3.433333	1	0.027625
3.450000	1	0.028875
3.466667	1	0.029750
3.483333	1	0.030125
3.500000	1	0.030875
3.516667	1	0.031250
3.533333	1	0.032250
3.550000	1	0.032875
3.566667	1	0.033625
3.583333	1	0.034125
3.600000	1	0.034500
3.616667	1	0.035000
3.633333	1	0.035750
3.650000	1	0.036125
3.666667	1	0.035375
3.683333	1	0.035500
3.700000	1	0.035625
3.716667	1	0.035875
3.733333	1	0.035625
3.750000	1	0.035750
3.766667	1	0.036375
3.783333	1	0.036750
3.800000	1	0.037125
3.816667	1	0.038125
3.833333	1	0.038625
3.850000	1	0.039000
3.866667	1	0.040250
3.883333	1	0.040500
3.900000	1	0.041000
3.916667	1	0.041625
3.933333	1	0.042250
3.950000	1	0.043375
3.966667	1	0.044250
3.983333	1	0.045500
4.000000	1	0.047375
4.016667	1	0.048750
4.033333	1	0.049875
4.050000	1	0.051375
4.066667	1	0.053250
4.083333	1	0.054500
4.100000	1	0.055500
4.116667	1	0.056125
4.133333	1	0.057250
4.150000	1	0.058750
4.166667	1	0.060250
4.183333	1	0.060875
4.200000	1	0.061375
4.216667	1	0.062000
4.233333	1	0.062500
4.250000	1	0.063125
4.266667	1	0.064000
4.283333	1	0.064875
4.300000	1	0.064625
4.316667	1	0.065000
4.333333	1	0.065500
4.350000	1	0.066000
4.366667	1	0.066375
4.383333	1	0.066750
4.400000	1	0.067250
4.416667	1	0.067500
4.433333	1	0.068250
4.450000	1	0.069125
4.466667	1	0.069375
4.483333	1	0.070250
4.500000	1	0.071000
4.516667	1	0.072375
4.533333	1	0.073500
4.550000	1	0.075375
4.566667	1	0.077625
4.583333	1	0.079500
4.600000	1	0.081375
4.616667	1	0.083875
4.633333	1	0.086500
4.650000	1	0.089125
4.666667	1	0.092250
4.683333	1	0.095250
4.700000	1	0.098625
4.716667	1	0.102375
4.733333	1	0.105625
4.750000	1	0.109250
4.766667	1	0.112000
4.783333	1	0.116125
4.800000	1	0.119875
4.816667	1	0.123875
4.833333	1	0.127125
4.850000	1	0.130875
4.866667	1	0.134750
4.883333	1	0.138125
4.900000	1	0.141250
4.916667	1	0.144625
4.933333	1	0.147250
4.950000	1	0.150250
4.966667	1	0.152375
4.983333	1	0.155500
5.000000	1	0.158000
5.016667	1	0.160250
5.033333	1	0.162750
5.050000	1	0.165500
5.066667	1	0.168375
5.083333	1	0.169875
5.100000	1	0.172000
5.116667	1	0.174625
5.133333	1	0.177750
5.150000	1	0.181250
5.166667	1	0.184125
5.183333	1	0.186875
5.200000	1	0.190000
5.216667	1	0.193625
5.233333	1	0.197000
5.250000	1	0.200375
5.266667	1	0.203125
5.283333	1	0.206250
5.300000	1	0.209250
5.316667	1	0.212750
5.333333	1	0.216375
5.350000	1	0.220250
5.366667	1	0.222750
5.383333	1	0.225875
5.400000	1	0.229500
5.416667	1	0.232875
5.433333	1	0.235500
5.450000	1	0.238000
5.466667	1	0.240375
5.483333	1	0.242125
5.500000	1	0.243250
5.516667	1	0.245000
5.533333	1	0.246250
5.550000	1	0.247375
5.566667	1	0.247875
5.583333	1	0.248000
5.600000	1	0.247625
5.616667	1	0.246875
5.633333	1	0.246125
5.650000	1	0.245625
5.666667	1	0.243750
5.683333	1	0.241625
5.700000	1	0.238000
5.716667	1	0.234875
5.733333	1	0.231875
5.750000	1	0.228750
5.766667	1	0.225125
5.783333	1	0.220750
5.800000	1	0.216875
5.816667	1	0.212250
5.833333	1	0.207250
5.850000	1	0.201875
5.866667	1	0.196625
5.883333	1	0.191750
5.900000	1	0.186625
5.916667	1	0.181125
5.933333	1	0.176125
5.950000	1	0.170375
5.966667	1	0.165000
5.983333	1	0.159625
6.000000	1	0.154125
6.016667	1	0.149250
6.033333	1	0.144375
6.050000	1	0.139500
6.066667	1	0.134375
6.083333	1	0.129375
6.100000	1	0.124500
6.116667	1	0.119750
6.133333	1	0.115500
6.150000	1	0.112125
6.166667	1	0.107500
6.183333	1	0.103625
6.200000	1	0.099625
6.216667	1	0.096125
6.233333	1	0.092125
6.250000	1	0.088625
6.266667	1	0.084875
6.283333	1	0.082000
6.300000	1	0.079000
6.316667	1	0.076125
6.333333	1	0.073250
6.350000	1	0.070125
6.366667	1	0.067625
6.383333	1	0.065250
6.400000	1	0.063000
6.416667	1	0.061000
6.433333	1	0.058625
6.450000	1	0.056125
6.466667	1	0.054500
6.483333	1	0.052500
6.500000	1	0.050625
6.516667	1	0.048500
6.533333	1	0.047500
6.550000	1	0.046500
6.566667	1	0.045000
6.583333	1	0.043750
6.600000	1	0.042125
6.616667	1	0.041125
6.633333	1	0.040750
6.650000	1	0.039375
6.666667	1	0.037500
6.683333	1	0.036375
6.700000	1	0.035000
6.716667	1	0.033500
6.733333	1	0.033000
6.750000	1	0.032125
6.766667	1	0.031000
6.783333	1	0.031250
6.800000	1	0.030625
6.816667	1	0.030125
6.833333	1	0.029500
6.850000	1	0.029625
6.866667	1	0.030125
6.883333	1	0.029500
6.900000	1	0.029625
6.916667	1	0.030125
6.933333	1	0.030875
6.950000	1	0.031375
6.966667	1	0.032875
6.983333	1	0.034375
7.000000	1	0.036250
7.016667	1	0.037750
7.033333	1	0.039875
7.050000	1	0.042375
7.066667	1	0.044750
7.083333	1	0.046750
7.100000	1	0.049750
7.116667	1	0.052625
7.133333	1	0.056750
7.150000	1	0.059875
7.166667	1	0.063750
7.183333	1	0.067500
7.200000	1	0.071125
7.216667	1	0.075250
7.233333	1	0.079375
7.250000	1	0.083750
7.266667	1	0.087875
7.283333	1	0.092250
7.300000	1	0.096500
7.316667	1	0.100250
7.333333	1	0.104250
7.350000	1	0.108125
7.366667	1	0.112250
7.383333	1	0.116625
7.400000	1	0.120375
7.416667	1	0.123500
7.433333	1	0.126250
7.450000	1	0.129125
7.466667	1	0.131125
7.483333	1	0.133875
7.500000	1	0.136625
7.516667	1	0.139000
7.533333	1	0.140375
7.550000	1	0.142750
7.566667	1	0.144250
7.583333	1	0.144750
7.600000	1	0.144625
7.616667	1	0.144875
7.633333	1	0.144000
7.650000	1	0.143375
7.666667	1	0.142250
7.683333	1	0.141250
7.700000	1	0.139625
7.716667	1	0.137625
7.733333	1	0.136250
7.750000	1	0.134625
7.766667	1	0.132125
7.783333	1	0.129125
7.800000	1	0.125750
7.816667	1	0.122875
7.833333	1	0.119750
7.850000	1	0.116500
7.866667	1	0.112875
7.883333	1	0.109125
7.900000	1	0.105750
7.916667	1	0.102000
7.933333	1	0.097750
7.950000	1	0.093750
7.966667	1	0.089500
7.983333	1	0.085125
8.000000	1	0.082125
8.016667	1	0.078125
8.033333	1	0.074250
8.050000	1	0.070500
8.066667	1	0.066000
8.083333	1	0.061375
8.100000	1	0.056125
8.116667	1	0.051250
8.133333	1	0.047000
8.150000	1	0.042000
8.166667	1	0.037250
8.183333	1	0.032875
8.200000	1	0.028875
8.216667	1	0.024750
8.233333	1	0.019375
8.250000	1	0.014250
8.266667	1	0.009125
8.283333	1	0.004875
8.300000	1	-0.000250
8.316667	1	-0.005375
8.333333	1	-0.009875
8.350000	1	-0.014375
8.366667	1	-0.019125
8.383333	1	-0.023875
8.400000	1	-0.028500
8.416667	1	-0.032500
8.433333	1	-0.036375
8.450000	1	-0.040500
8.466667	1	-0.044625
8.483333	1	-0.048000
8.500000	1	-0.051250
8.516667	1	-0.054250
8.533333	1	-0.056500
8.550000	1	-0.058750
8.566667	1	-0.061250
8.583333	1	-0.063125
8.600000	1	-0.064250
8.616667	1	-0.065500
8.633333	1	-0.066500
8.650000	1	-0.066125
8.666667	1	-0.066250
8.683333	1	-0.065875
8.700000	1	-0.065500
8.716667	1	-0.064375
8.733333	1	-0.063250
8.750000	1	-0.062000
8.766667	1	-0.059500
8.783333	1	-0.057500
8.800000	1	-0.055500
8.816667	1	-0.053000
8.833333	1	-0.050375
8.850000	1	-0.047750
8.866667	1	-0.044375
8.883333	1	-0.041125
8.900000	1	-0.038500
8.916667	1	-0.036000
8.933333	1	-0.032750
8.950000	1	-0.030375
8.966667	1	-0.028000
8.983333	1	-0.025875
9.000000	1	-0.022625
9.016667	1	-0.019750
9.033333	1	-0.016750
9.050000	1	-0.014125
9.066667	1	-0.011750
9.083333	1	-0.009625
9.100000	1	-0.007250
9.116667	1	-0.005375
9.133333	1	-0.003625
9.150000	1	-0.002625
9.166667	1	-0.001625
9.183333	1	-0.000625
9.200000	1	0.000000
9.216667	1	0.000125
9.233333	1	0.000500
9.250000	1	0.000125
9.266667	1	0.000000
9.283333	1	0.000625
9.300000	1	0.000250
9.316667	1	0.000250
9.333333	1	0.000125
9.350000	1	-0.000125
9.366667	1	0.000000
9.383333	1	-0.000375
9.400000	1	-0.001000
9.416667	1	-0.001625
9.433333	1	-0.001750
9.450000	1	-0.002125
9.466667	1	-0.002500
9.483333	1	-0.003125
9.500000	1	-0.003125
9.516667	1	-0.003000
9.533333	1	-0.003125
9.550000	1	-0.003250
9.566667	1	-0.003000
9.583333	1	-0.003000
9.600000	1	-0.002500
9.616667	1	-0.001750
9.633333	1	-0.001375
9.650000	1	-0.000625
9.666667	1	-0.000750
9.683333	1	-0.000750
9.700000	1	-0.000625
9.716667	1	0.000125
9.733333	1	0.001375
9.750000	1	0.002750
9.766667	1	0.003625
9.783333	1	0.004750
9.800000	1	0.006500
9.816667	1	0.008250
9.833333	1	0.009500
9.850000	1	0.010625
9.866667	1	0.011500
9.883333	1	0.013125
9.900000	1	0.014625
9.916667	1	0.015500
9.933333	1	0.016750
9.950000	1	0.018250
9.966667	1	0.020625
9.983333	1	0.022125
10.000000	1	0.023750
10.016667	1	0.025875
10.033333	1	0.027750
10.050000	1	0.030000
10.066667	1	0.032500
10.083333	1	0.034750
10.100000	1	0.038125
10.116667	1	0.043000
10.133333	1	0.047750
10.150000	1	0.053625
10.166667	1	0.060000
10.183333	1	0.067750
10.200000	1	0.076625
10.216667	1	0.086250
10.233333	1	0.098000
10.250000	1	0.111250
10.266667	1	0.126500
10.283333	1	0.144000
10.300000	1	0.164250
10.316667	1	0.187875
10.333333	1	0.214125
10.350000	1	0.242125
10.366667	1	0.271125
10.383333	1	0.299625
10.400000	1	0.325250
10.416667	1	0.344375
10.433333	1	0.351250
10.450000	1	0.342250
10.466667	1	0.311000
10.483333	1	0.256750
10.500000	1	0.184375
10.516667	1	0.117625
10.533333	1	0.096000
10.550000	1	0.179375
10.566667	1	0.444875
10.583333	1	0.980250
10.600000	1	1.869000
10.616667	1	3.187625
10.633333	1	4.992250
10.650000	1	7.318500
10.666667	1	10.187750
10.683333	1	13.598250
10.700000	1	17.531750
10.716667	1	21.937750
10.733333	1	26.732875
10.750000	1	31.783125
10.766667	1	36.882875
10.783333	1	41.743750
10.800000	1	45.981125
10.816667	1	49.140000
10.833333	1	50.782750
10.850000	1	50.609125
10.866667	1	48.571375
10.883333	1	44.917750
10.900000	1	40.126750
10.916667	1	34.772750
10.933333	1	29.375000
10.950000	1	24.310500
10.966667	1	19.803000
10.983333	1	15.947125
11.000000	1	12.746625
11.016667	1	10.154500
11.033333	1	8.096000
11.050000	1	6.486750
11.066667	1	5.240750
11.083333	1	4.284375
11.100000	1	3.552250
11.116667	1	2.992000
11.133333	1	2.561750
11.150000	1	2.230375
11.166667	1	1.972125
11.183333	1	1.769625
11.200000	1	1.608500
11.216667	1	1.479000
11.233333	1	1.373875
11.250000	1	1.286125
11.266667	1	1.212875
11.283333	1	1.151250
11.300000	1	1.098750
11.316667	1	1.053500
11.333333	1	1.014375
11.350000	1	0.981250
11.366667	1	0.952250
11.383333	1	0.925750
11.400000	1	0.902500
11.416667	1	0.882500
11.433333	1	0.864125
11.450000	1	0.848000
11.466667	1	0.834125
11.483333	1	0.821500
11.500000	1	0.811250
11.516667	1	0.801000
11.533333	1	0.792750
11.550000	1	0.785625
11.566667	1	0.779250
11.583333	1	0.775375
11.600000	1	0.772000
11.616667	1	0.769750
11.633333	1	0.768750
11.650000	1	0.769000
11.666667	1	0.770500
11.683333	1	0.773625
11.700000	1	0.777750
11.716667	1	0.784000
11.733333	1	0.790375
11.750000	1	0.797250
11.766667	1	0.805750
11.783333	1	0.814000
11.800000	1	0.823000
11.816667	1	0.832125
11.833333	1	0.840250
11.850000	1	0.848000
11.866667	1	0.855750
11.883333	1	0.862625
11.900000	1	0.867250
11.916667	1	0.872250
11.933333	1	0.877125
11.950000	1	0.881250
11.966667	1	0.885375
11.983333	1	0.889250
12.000000	1	0.893375
12.016667	1	0.897000
12.033333	1	0.901250
12.050000	1	0.905250
12.066667	1	0.910750
12.083333	1	0.916125
12.100000	1	0.922000
12.116667	1	0.928625
12.133333	1	0.936250
12.150000	1	0.943000
12.166667	1	0.951625
12.183333	1	0.961625
12.200000	1	0.973000
12.216667	1	0.986000
12.233333	1	1.001750
12.250000	1	1.020750
12.266667	1	1.044250
12.283333	1	1.074875
12.300000	1	1.112750
12.316667	1	1.160875
12.333333	1	1.222750
12.350000	1	1.302500
12.366667	1	1.402875
12.383333	1	1.529375
12.400000	1	1.686875
12.416667	1	1.879500
12.433333	1	2.111875
12.450000	1	2.390500
12.466667	1	2.719375
12.483333	1	3.103000
12.500000	1	3.546250
12.516667	1	4.049125
12.533333	1	4.611500
12.550000	1	5.231375
12.566667	1	5.901125
12.583333	1	6.612000
12.600000	1	7.349250
12.616667	1	8.097500
12.633333	1	8.842000
12.650000	1	9.567000
12.666667	1	10.261625
12.683333	1	10.917500
12.700000	1	11.528625
12.716667	1	12.097125
12.733333	1	12.627875
12.750000	1	13.128625
12.766667	1	13.611375
12.783333	1	14.086250
12.800000	1	14.564500
12.816667	1	15.056500
12.833333	1	15.570125
12.850000	1	16.110000
12.866667	1	16.681000
12.883333	1	17.284250
12.900000	1	17.921125
12.916667	1	18.591000
12.933333	1	19.291375
12.950000	1	20.021000
12.966667	1	20.776750
12.983333	1	21.558000
13.000000	1	22.363375
13.016667	1	23.190250
13.033333	1	24.039625
13.050000	1	24.909250
13.066667	1	25.800375
13.083333	1	26.713000
13.100000	1	27.645750
13.116667	1	28.598750
13.133333	1	29.570000
13.150000	1	30.560125
13.166667	1	31.569750
13.183333	1	32.597500
13.200000	1	33.644250
13.216667	1	34.709375
13.233333	1	35.794250
13.250000	1	36.899625
13.266667	1	38.026625
13.283333	1	39.176500
13.300000	1	40.349000
13.316667	1	41.545000
13.333333	1	42.764250
13.350000	1	44.006875
13.366667	1	45.273500
13.383333	1	46.565000
13.400000	1	47.880750
13.416667	1	49.221000
13.433333	1	50.588250
13.450000	1	51.984375
13.466667	1	53.410250
13.483333	1	54.865750
13.500000	1	56.352375
13.516667	1	57.870375
13.533333	1	59.419250
13.550000	1	60.999500
13.566667	1	62.612000
13.583333	1	64.257375
13.600000	1	65.933750
13.616667	1	67.644750
13.633333	1	69.391500
13.650000	1	71.176250
13.666667	1	73.000625
13.683333	1	74.866000
13.700000	1	76.764875
13.716667	1	78.668875
13.733333	1	80.484750
13.750000	1	82.013125
13.766667	1	82.932250
13.783333	1	82.843750
13.800000	1	81.356000
13.816667	1	78.139500
13.833333	1	73.009625
13.850000	1	66.056875
13.866667	1	57.743125
13.883333	1	48.838125
13.900000	1	40.173250
13.916667	1	32.389500
13.933333	1	25.804875
13.950000	1	20.458750
13.966667	1	16.229500
13.983333	1	12.940125
14.000000	1	10.414000
14.016667	1	8.494875
14.033333	1	7.055375
14.050000	1	5.985750
14.066667	1	5.197250
14.083333	1	4.616375
14.100000	1	4.186250
14.116667	1	3.863000
14.133333	1	3.616875
14.150000	1	3.424875
14.166667	1	3.272125
14.183333	1	3.148000
14.200000	1	3.045000
14.216667	1	2.957375
14.233333	1	2.881500
14.250000	1	2.815375
14.266667	1	2.756750
14.283333	1	2.705125
14.300000	1	2.658250
14.316667	1	2.616750
14.333333	1	2.579625
14.350000	1	2.547625
14.366667	1	2.520625
14.383333	1	2.499500
14.400000	1	2.485250
14.416667	1	2.478500
14.433333	1	2.482250
14.450000	1	2.499250
14.466667	1	2.534375
14.483333	1	2.594625
14.500000	1	2.691500
14.516667	1	2.842000
14.533333	1	3.068125
14.550000	1	3.402125
14.566667	1	3.884875
14.583333	1	4.568250
14.600000	1	5.517000
14.616667	1	6.806375
14.633333	1	8.520750
14.650000	1	10.743500
14.666667	1	13.550250
14.683333	1	16.996375
14.700000	1	21.104750
14.716667	1	25.852250
14.733333	1	31.168500
14.750000	1	36.921375
14.766667	1	42.921625
14.783333	1	48.923625
14.800000	1	54.661500
14.816667	1	59.855125
14.833333	1	64.234500
14.850000	1	67.563500
14.866667	1	69.667000
14.883333	1	70.445625
14.900000	1	69.888375
14.916667	1	68.070125
14.933333	1	65.141375
14.950000	1	61.308500
14.966667	1	56.805000
14.983333	1	51.881750
15.000000	1	46.765375
15.016667	1	41.654875
15.033333	1	36.713375
15.050000	1	32.065250
15.066667	1	27.795250
15.083333	1	23.949625
15.100000	1	20.546125
15.116667	1	17.575875
15.133333	1	15.013500
15.150000	1	12.824000
15.166667	1	10.967250
15.183333	1	9.403000
15.200000	1	8.091000
15.216667	1	6.995375
15.233333	1	6.083500
15.250000	1	5.327000
15.266667	1	4.702625
15.283333	1	4.190000
15.300000	1	3.771250
15.316667	1	3.432000
15.333333	1	3.159750
15.350000	1	2.944375
15.366667	1	2.776375
15.383333	1	2.647375
15.400000	1	2.550625
15.416667	1	2.478875
15.433333	1	2.426625
15.450000	1	2.387000
15.466667	1	2.357875
15.483333	1	2.333125
15.500000	1	2.308375
15.516667	1	2.281750
15.533333	1	2.252000
15.550000	1	2.219375
15.566667	1	2.182375
15.583333	1	2.143125
15.600000	1	2.100875
15.616667	1	2.059625
15.633333	1	2.018500
15.650000	1	1.978875
15.666667	1	1.941875
15.683333	1	1.907750
15.700000	1	1.875875
15.716667	1	1.846500
15.733333	1	1.818625
15.750000	1	1.791500
15.766667	1	1.765500
15.783333	1	1.738500
15.800000	1	1.711000
15.816667	1	1.682750
15.833333	1	1.654625
15.850000	1	1.627250
15.866667	1	1.600000
15.883333	1	1.575000
15.900000	1	1.552625
15.916667	1	1.533250
15.933333	1	1.517375
15.950000	1	1.505625
15.966667	1	1.497625
15.983333	1	1.492625
16.000000	1	1.489125
16.016667	1	1.487375
16.033333	1	1.486500
16.050000	1	1.485875
16.066667	1	1.484875
16.083333	1	1.482125
16.100000	1	1.478500
16.116667	1	1.472375
16.133333	1	1.463375
16.150000	1	1.453125
16.166667	1	1.440750
16.183333	1	1.427125
16.200000	1	1.411375
16.216667	1	1.395125
16.233333	1	1.378875
16.250000	1	1.361125
16.266667	1	1.344500
16.283333	1	1.327250
16.300000	1	1.309000
16.316667	1	1.291500
16.333333	1	1.275250
16.350000	1	1.260375
16.366667	1	1.246125
16.383333	1	1.234625
16.400000	1	1.224375
16.416667	1	1.216875
16.433333	1	1.211750
16.450000	1	1.209750
16.466667	1	1.209625
16.483333	1	1.211500
16.500000	1	1.215750
16.516667	1	1.221000
16.533333	1	1.226875
16.550000	1	1.233250
16.566667	1	1.238875
16.583333	1	1.242875
16.600000	1	1.245625
16.616667	1	1.246375
16.633333	1	1.245250
16.650000	1	1.241375
16.666667	1	1.236375
16.683333	1	1.230000
16.700000	1	1.223750
16.716667	1	1.217250
16.733333	1	1.211875
16.750000	1	1.207750
16.766667	1	1.204250
16.783333	1	1.202625
16.800000	1	1.202250
16.816667	1	1.203250
16.833333	1	1.204750
16.850000	1	1.207500
16.866667	1	1.209500
16.883333	1	1.210875
16.900000	1	1.211375
16.916667	1	1.210500
16.933333	1	1.207625
16.950000	1	1.203375
16.966667	1	1.197875
16.983333	1	1.191125
17.000000	1	1.183250
17.016667	1	1.174625
17.033333	1	1.165625
17.050000	1	1.155750
17.066667	1	1.146250
17.083333	1	1.137750
17.100000	1	1.130375
17.116667	1	1.124375
17.133333	1	1.119000
17.150000	1	1.115375
17.166667	1	1.112625
17.183333	1	1.110875
17.200000	1	1.110375
17.216667	1	1.111125
17.233333	1	1.113500
17.250000	1	1.116500
17.266667	1	1.121000
17.283333	1	1.125750
17.300000	1	1.131750
17.316667	1	1.138500
17.333333	1	1.145000
17.350000	1	1.152125
17.366667	1	1.159500
17.383333	1	1.166375
17.400000	1	1.173375
17.416667	1	1.179875
17.433333	1	1.185500
17.450000	1	1.190375
17.466667	1	1.193875
17.483333	1	1.195875
17.500000	1	1.195500
17.516667	1	1.193375
17.533333	1	1.189500
17.550000	1	1.184750
17.566667	1	1.178000
17.583333	1	1.169250
17.600000	1	1.159000
17.616667	1	1.148250
17.633333	1	1.136625
17.650000	1	1.124250
17.666667	1	1.110625
17.683333	1	1.097125
17.700000	1	1.083125
17.716667	1	1.068625
17.733333	1	1.054500
17.750000	1	1.040000
17.766667	1	1.025375
17.783333	1	1.011625
17.800000	1	0.998250
17.816667	1	0.985500
17.833333	1	0.973000
17.850000	1	0.961375
17.866667	1	0.950250
17.883333	1	0.938625
17.900000	1	0.928000
17.916667	1	0.917250
17.933333	1	0.906875
17.950000	1	0.896750
17.966667	1	0.886250
17.983333	1	0.875500
18.000000	1	0.864750
18.016667	1	0.854500
18.033333	1	0.844375
18.050000	1	0.834125
18.066667	1	0.824000
18.083333	1	0.814375
18.100000	1	0.805375
18.116667	1	0.797375
18.133333	1	0.789875
18.150000	1	0.783875
18.166667	1	0.779125
18.183333	1	0.775750
18.200000	1	0.773375
18.216667	1	0.770750
18.233333	1	0.769500
18.250000	1	0.770125
18.266667	1	0.770625
18.283333	1	0.771250
18.300000	1	0.772250
18.316667	1	0.774625
18.333333	1	0.776875
18.350000	1	0.779625
18.366667	1	0.782375
18.383333	1	0.786125
18.400000	1	0.791000
18.416667	1	0.797875
18.433333	1	0.805375
18.450000	1	0.813750
18.466667	1	0.823875
18.483333	1	0.835750
18.500000	1	0.849375
18.516667	1	0.864625
18.533333	1	0.882750
18.550000	1	0.902750
18.566667	1	0.924250
18.583333	1	0.948000
18.600000	1	0.973125
18.616667	1	0.999875
18.633333	1	1.027375
18.650000	1	1.057500
18.666667	1	1.088875
18.683333	1	1.121125
18.700000	1	1.154250
18.716667	1	1.188250
18.733333	1	1.223625
18.750000	1	1.259125
18.766667	1	1.295375
18.783333	1	1.331625
18.800000	1	1.365750
18.816667	1	1.398375
18.833333	1	1.428875
18.850000	1	1.455500
18.866667	1	1.479000
18.883333	1	1.497125
18.900000	1	1.510125
18.916667	1	1.516625
18.933333	1	1.516000
18.950000	1	1.509000
18.966667	1	1.494875
18.983333	1	1.473875
19.000000	1	1.446000
19.016667	1	1.413375
19.033333	1	1.375500
19.050000	1	1.334625
19.066667	1	1.291375
19.083333	1	1.246750
19.100000	1	1.204125
19.116667	1	1.165000
19.133333	1	1.129625
19.150000	1	1.102000
19.166667	1	1.082750
19.183333	1	1.075875
19.200000	1	1.082500
19.216667	1	1.105375
19.233333	1	1.146750
19.250000	1	1.209250
19.266667	1	1.293625
19.283333	1	1.402750
19.300000	1	1.537500
19.316667	1	1.697125
19.333333	1	1.879500
19.350000	1	2.085375
19.366667	1	2.309000
19.383333	1	2.546750
19.400000	1	2.791250
19.416667	1	3.037000
19.433333	1	3.274375
19.450000	1	3.496250
19.466667	1	3.695375
19.483333	1	3.863875
19.500000	1	3.996125
19.516667	1	4.087000
19.533333	1	4.135000
19.550000	1	4.139000
19.566667	1	4.099125
19.583333	1	4.019125
19.600000	1	3.902125
19.616667	1	3.754500
19.633333	1	3.581375
19.650000	1	3.389250
19.666667	1	3.185375
19.683333	1	2.974375
19.700000	1	2.762375
19.716667	1	2.553875
19.733333	1	2.353125
19.750000	1	2.161875
19.766667	1	1.981750
19.783333	1	1.813000
19.800000	1	1.658250
19.816667	1	1.517125
19.833333	1	1.388750
19.850000	1	1.273625
19.866667	1	1.169375
19.883333	1	1.076625
19.900000	1	0.994000
19.916667	1	0.921500
19.933333	1	0.857500
19.950000	1	0.800875
19.966667	1	0.752375
19.983333	1	0.710250
20.000000	1	0.674875
20.016667	1	0.645125
20.033333	1	0.621750
20.050000	1	0.603375
20.066667	1	0.589250
20.083333	1	0.580500
20.100000	1	0.576250
20.116667	1	0.576375
20.133333	1	0.580125
20.150000	1	0.587000
20.166667	1	0.596625
20.183333	1	0.608250
20.200000	1	0.621000
20.216667	1	0.634875
20.233333	1	0.647500
20.250000	1	0.660125
20.266667	1	0.670250
20.283333	1	0.679000
20.300000	1	0.684750
20.316667	1	0.687375
20.333333	1	0.686625
20.350000	1	0.682250
20.366667	1	0.675500
20.383333	1	0.665375
20.400000	1	0.652250
20.416667	1	0.637750
20.433333	1	0.621250
20.450000	1	0.604500
20.466667	1	0.588375
20.483333	1	0.573500
20.500000	1	0.561500
20.516667	1	0.551625
20.533333	1	0.546000
20.550000	1	0.544625
20.566667	1	0.548625
20.583333	1	0.558625
20.600000	1	0.576250
20.616667	1	0.601750
20.633333	1	0.635375
20.650000	1	0.677500
20.666667	1	0.728875
20.683333	1	0.788500
20.700000	1	0.856625
20.716667	1	0.932250
20.733333	1	1.013625
20.750000	1	1.099250
20.766667	1	1.187750
20.783333	1	1.275750
20.800000	1	1.361000
20.816667	1	1.440625
20.833333	1	1.511375
20.850000	1	1.570500
20.866667	1	1.617000
20.883333	1	1.649500
20.900000	1	1.666500
20.916667	1	1.669000
20.933333	1	1.655375
20.950000	1	1.627000
20.966667	1	1.585875
20.983333	1	1.533875
21.000000	1	1.473000
21.016667	1	1.405500
21.033333	1	1.333500
21.050000	1	1.258875
21.066667	1	1.184000
21.083333	1	1.110375
21.100000	1	1.040500
21.116667	1	0.973250
21.133333	1	0.911000
21.150000	1	0.853125
21.166667	1	0.800250
21.183333	1	0.752750
21.200000	1	0.710250
21.216667	1	0.672500
21.233333	1	0.639125
21.250000	1	0.609750
21.266667	1	0.584500
21.283333	1	0.562375
21.300000	1	0.543375
21.316667	1	0.527000
21.333333	1	0.512875
21.350000	1	0.500875
21.366667	1	0.491000
21.383333	1	0.482375
21.400000	1	0.474250
21.416667	1	0.467125
21.433333	1	0.460625
21.450000	1	0.455250
21.466667	1	0.450250
21.483333	1	0.446000
21.500000	1	0.442000
21.516667	1	0.438625
21.533333	1	0.436500
21.550000	1	0.434750
21.566667	1	0.433125
21.583333	1	0.433000
21.600000	1	0.434625
21.616667	1	0.436500
21.633333	1	0.439625
21.650000	1	0.444250
21.666667	1	0.450875
21.683333	1	0.459250
21.700000	1	0.469375
21.716667	1	0.481375
21.733333	1	0.494875
21.750000	1	0.510125
21.766667	1	0.528000
21.783333	1	0.546875
21.800000	1	0.567000
21.816667	1	0.588000
21.833333	1	0.608875
21.850000	1	0.630375
21.866667	1	0.651125
21.883333	1	0.671250
21.900000	1	0.689500
21.916667	1	0.706125
21.933333	1	0.720750
21.950000	1	0.733875
21.966667	1	0.744000
21.983333	1	0.752250
22.000000	1	0.758125
22.016667	1	0.761125
22.033333	1	0.761250
22.050000	1	0.760125
22.066667	1	0.756250
22.083333	1	0.750875
22.100000	1	0.745000
22.116667	1	0.738250
22.133333	1	0.729500
22.150000	1	0.719875
22.166667	1	0.708000
22.183333	1	0.696000
22.200000	1	0.683375
22.216667	1	0.670250
22.233333	1	0.656000
22.250000	1	0.641125
22.266667	1	0.626000
22.283333	1	0.611125
22.300000	1	0.595500
22.316667	1	0.579625
22.333333	1	0.563500
22.350000	1	0.547125
22.366667	1	0.531625
22.383333	1	0.515750
22.400000	1	0.500125
22.416667	1	0.484250
22.433333	1	0.469875
22.450000	1	0.456125
22.466667	1	0.442750
22.483333	1	0.430375
22.500000	1	0.417500
22.516667	1	0.406750
22.533333	1	0.396375
22.550000	1	0.387375
22.566667	1	0.378625
22.583333	1	0.370625
22.600000	1	0.362375
22.616667	1	0.354625
22.633333	1	0.347625
22.650000	1	0.341750
22.666667	1	0.335250
22.683333	1	0.329500
22.700000	1	0.323875
22.716667	1	0.319250
22.733333	1	0.314000
22.750000	1	0.309500
22.766667	1	0.305875
22.783333	1	0.301750
22.800000	1	0.297750
22.816667	1	0.294750
22.833333	1	0.291500
22.850000	1	0.289125
22.866667	1	0.286750
22.883333	1	0.284500
22.900000	1	0.283125
22.916667	1	0.282750
22.933333	1	0.282625
22.950000	1	0.282875
22.966667	1	0.283375
22.983333	1	0.284000
23.000000	1	0.285250
23.016667	1	0.286375
23.033333	1	0.288750
23.050000	1	0.290250
23.066667	1	0.292625
23.083333	1	0.296000
23.100000	1	0.299250
23.116667	1	0.302125
23.133333	1	0.305875
23.150000	1	0.308250
23.166667	1	0.310875
23.183333	1	0.313750
23.200000	1	0.316125
23.216667	1	0.318875
23.233333	1	0.321750
23.250000	1	0.325125
23.266667	1	0.329375
23.283333	1	0.334875
23.300000	1	0.341625
23.316667	1	0.350250
23.333333	1	0.360625
23.350000	1	0.375250
23.366667	1	0.393375
23.383333	1	0.417625
23.400000	1	0.447875
23.416667	1	0.486625
23.433333	1	0.535250
23.450000	1	0.595375
23.466667	1	0.669875
23.483333	1	0.760750
23.500000	1	0.870500
23.516667	1	1.000000
23.533333	1	1.152375
23.550000	1	1.329125
23.566667	1	1.531500
23.583333	1	1.760125
23.600000	1	2.013875
23.616667	1	2.291750
23.633333	1	2.592750
23.650000	1	2.911625
23.666667	1	3.244875
23.683333	1	3.587500
23.700000	1	3.932125
23.716667	1	4.272750
23.733333	1	4.601625
23.750000	1	4.912375
23.766667	1	5.194875
23.783333	1	5.443375
23.800000	1	5.650875
23.816667	1	5.813375
23.833333	1	5.926500
23.850000	1	5.989625
23.866667	1	6.001875
23.883333	1	5.964250
23.900000	1	5.878375
23.916667	1	5.747250
23.933333	1	5.575000
23.950000	1	5.369250
23.966667	1	5.134625
23.983333	1	4.878000
24.000000	1	4.605875
24.016667	1	4.323375
24.033333	1	4.036625
24.050000	1	3.750375
24.066667	1	3.469500
24.083333	1	3.196625
24.100000	1	2.934000
24.116667	1	2.684750
24.133333	1	2.449375
24.150000	1	2.230625
24.166667	1	2.026875
24.183333	1	1.838875
24.200000	1	1.667625
24.216667	1	1.512125
24.233333	1	1.370125
24.250000	1	1.242375
24.266667	1	1.128500
24.283333	1	1.026250
24.300000	1	0.935750
24.316667	1	0.855750
24.333333	1	0.785750
24.350000	1	0.723875
24.366667	1	0.670500
24.383333	1	0.624500
24.400000	1	0.585375
24.416667	1	0.552125
24.433333	1	0.525250
24.450000	1	0.502875
24.466667	1	0.484375
24.483333	1	0.470125
24.500000	1	0.458250
24.516667	1	0.449000
24.533333	1	0.441875
24.550000	1	0.436750
24.566667	1	0.432750
24.583333	1	0.430000
24.600000	1	0.428125
24.616667	1	0.425625
24.633333	1	0.423500
24.650000	1	0.422625
24.666667	1	0.421000
24.683333	1	0.419000
24.700000	1	0.416750
24.716667	1	0.414625
24.733333	1	0.410750
24.750000	1	0.407625
24.766667	1	0.403875
24.783333	1	0.398875
24.800000	1	0.394375
24.816667	1	0.390750
24.833333	1	0.386625
24.850000	1	0.382375
24.866667	1	0.378250
24.883333	1	0.373625
24.900000	1	0.368625
24.916667	1	0.364500
24.933333	1	0.360500
24.950000	1	0.356750
24.966667	1	0.352875
24.983333	1	0.349125
25.000000	1	0.345875
25.016667	1	0.342125
25.033333	1	0.338500
25.050000	1	0.334375
25.066667	1	0.331625
25.083333	1	0.328875
25.100000	1	0.325250
25.116667	1	0.321625
25.133333	1	0.318000
25.150000	1	0.314875
25.166667	1	0.311875
25.183333	1	0.308500
25.200000	1	0.305750
25.216667	1	0.302500
25.233333	1	0.299875
25.250000	1	0.298000
25.266667	1	0.295000
25.283333	1	0.293500
25.300000	1	0.290500
25.316667	1	0.289500
25.333333	1	0.287625
25.350000	1	0.286125
25.366667	1	0.285250
25.383333	1	0.284500
25.400000	1	0.284250
25.416667	1	0.284000
25.433333	1	0.284375
25.450000	1	0.284625
25.466667	1	0.285750
25.483333	1	0.286250
25.500000	1	0.287375
25.516667	1	0.289125
25.533333	1	0.291000
25.550000	1	0.293125
25.566667	1	0.294750
25.583333	1	0.296750
25.600000	1	0.298375
25.616667	1	0.299250
25.633333	1	0.300750
25.650000	1	0.303375
25.666667	1	0.305500
25.683333	1	0.307250
25.700000	1	0.309125
25.716667	1	0.311000
25.733333	1	0.312750
25.750000	1	0.314375
25.766667	1	0.314375
25.783333	1	0.315000
25.800000	1	0.315375
25.816667	1	0.316250
25.833333	1	0.317250
25.850000	1	0.317125
25.866667	1	0.318125
25.883333	1	0.319250
25.900000	1	0.320375
25.916667	1	0.320875
25.933333	1	0.322125
25.950000	1	0.323500
25.966667	1	0.325500
25.983333	1	0.328125
26.000000	1	0.330625
26.016667	1	0.333500
26.033333	1	0.336000
26.050000	1	0.339000
26.066667	1	0.343000
26.083333	1	0.346500
26.100000	1	0.350750
26.116667	1	0.354250
26.133333	1	0.357875
26.150000	1	0.361250
26.166667	1	0.364500
26.183333	1	0.367250
26.200000	1	0.370375
26.216667	1	0.372500
26.233333	1	0.374875
26.250000	1	0.376250
26.266667	1	0.377875
26.283333	1	0.378500
26.300000	1	0.378750
26.316667	1	0.378000
26.333333	1	0.376500
26.350000	1	0.374750
26.366667	1	0.371875
26.383333	1	0.368375
26.400000	1	0.364250
26.416667	1	0.358875
26.433333	1	0.353750
26.450000	1	0.348125
26.466667	1	0.341875
26.483333	1	0.335375
26.500000	1	0.329125
26.516667	1	0.321875
26.533333	1	0.314500
26.550000	1	0.307000
26.566667	1	0.299125
26.583333	1	0.292125
26.600000	1	0.284625
26.616667	1	0.277375
26.633333	1	0.270000
26.650000	1	0.263250
26.666667	1	0.256375
26.683333	1	0.250375
26.700000	1	0.244500
26.716667	1	0.239250
26.733333	1	0.234625
26.750000	1	0.230500
26.766667	1	0.226375
26.783333	1	0.223125
26.800000	1	0.220250
26.816667	1	0.217750
26.833333	1	0.215625
26.850000	1	0.214750
26.866667	1	0.213875
26.883333	1	0.213000
26.900000	1	0.213250
26.916667	1	0.213125
26.933333	1	0.214625
26.950000	1	0.216375
26.966667	1	0.218125
26.983333	1	0.220500
27.000000	1	0.222875
27.016667	1	0.225875
27.033333	1	0.229625
27.050000	1	0.232750
27.066667	1	0.237250
27.083333	1	0.242375
27.100000	1	0.248375
27.116667	1	0.255125
27.133333	1	0.262125
27.150000	1	0.270250
27.166667	1	0.280375
27.183333	1	0.291750
27.200000	1	0.304750
27.216667	1	0.320125
27.233333	1	0.337500
27.250000	1	0.358125
27.266667	1	0.381375
27.283333	1	0.408750
27.300000	1	0.441000
27.316667	1	0.478375
27.333333	1	0.522375
27.350000	1	0.573250
27.366667	1	0.631750
27.383333	1	0.699000
27.400000	1	0.777125
27.416667	1	0.864750
27.433333	1	0.964000
27.450000	1	1.076375
27.466667	1	1.200750
27.483333	1	1.339000
27.500000	1	1.491375
27.516667	1	1.657250
27.533333	1	1.836375
27.550000	1	2.026375
27.566667	1	2.228000
27.583333	1	2.438875
27.600000	1	2.657250
27.616667	1	2.880750
27.633333	1	3.108000
27.650000	1	3.334500
27.666667	1	3.557125
27.683333	1	3.773500
27.700000	1	3.979000
27.716667	1	4.170000
27.733333	1	4.343375
27.750000	1	4.495125
27.766667	1	4.623375
27.783333	1	4.724250
27.800000	1	4.797125
27.816667	1	4.840000
27.833333	1	4.852125
27.850000	1	4.833125
27.866667	1	4.783875
27.883333	1	4.705250
27.900000	1	4.599125
27.916667	1	4.467625
27.933333	1	4.313875
27.950000	1	4.141250
27.966667	1	3.953125
27.983333	1	3.753250
28.000000	1	3.544875
28.016667	1	3.331375
28.033333	1	3.116375
28.050000	1	2.901625
28.066667	1	2.690375
28.083333	1	2.485000
28.100000	1	2.286875
28.116667	1	2.097750
28.133333	1	1.919375
28.150000	1	1.752000
28.166667	1	1.596000
28.183333	1	1.452250
28.200000	1	1.320250
28.216667	1	1.199375
28.233333	1	1.090000
28.250000	1	0.990625
28.266667	1	0.901375
28.283333	1	0.821750
28.300000	1	0.751375
28.316667	1	0.688875
28.333333	1	0.633625
28.350000	1	0.586500
28.366667	1	0.546000
28.383333	1	0.511750
28.400000	1	0.482750
28.416667	1	0.459000
28.433333	1	0.440625
28.450000	1	0.426000
28.466667	1	0.415000
28.483333	1	0.408125
28.500000	1	0.404500
28.516667	1	0.403000
28.533333	1	0.404875
28.550000	1	0.408375
28.566667	1	0.413875
28.583333	1	0.421250
28.600000	1	0.430000
28.616667	1	0.440125
28.633333	1	0.451125
28.650000	1	0.462625
28.666667	1	0.474750
28.683333	1	0.487750
28.700000	1	0.499625
28.716667	1	0.512125
28.733333	1	0.524000
28.750000	1	0.535500
28.766667	1	0.546125
28.783333	1	0.556250
28.800000	1	0.565250
28.816667	1	0.573500
28.833333	1	0.580750
28.850000	1	0.586750
28.866667	1	0.591250
28.883333	1	0.594875
28.900000	1	0.597000
28.916667	1	0.598125
28.933333	1	0.598000
28.950000	1	0.596125
28.966667	1	0.593250
28.983333	1	0.589375
29.000000	1	0.584375
29.016667	1	0.578375
29.033333	1	0.571250
29.050000	1	0.562875
29.066667	1	0.553500
29.083333	1	0.542875
29.100000	1	0.532375
29.116667	1	0.520500
29.133333	1	0.508000
29.150000	1	0.494375
29.166667	1	0.480125
29.183333	1	0.466500
29.200000	1	0.452750
29.216667	1	0.439375
29.233333	1	0.425250
29.250000	1	0.410625
29.266667	1	0.397125
29.283333	1	0.383500
29.300000	1	0.369250
29.316667	1	0.355625
29.333333	1	0.342375
29.350000	1	0.328875
29.366667	1	0.315750
29.383333	1	0.303625
29.400000	1	0.291500
29.416667	1	0.279875
29.433333	1	0.268125
29.450000	1	0.257375
29.466667	1	0.247750
29.483333	1	0.237375
29.500000	1	0.227750
29.516667	1	0.218625
29.533333	1	0.209625
29.550000	1	0.202000
29.566667	1	0.194250
29.583333	1	0.187625
29.600000	1	0.181500
29.616667	1	0.175875
29.633333	1	0.170750
29.650000	1	0.165875
29.666667	1	0.161250
29.683333	1	0.156500
29.700000	1	0.152125
29.716667	1	0.148250
29.733333	1	0.144375
29.750000	1	0.141250
29.766667	1	0.138750
29.783333	1	0.136125
29.800000	1	0.133875
29.816667	1	0.131625
29.833333	1	0.129875
29.850000	1	0.127500
29.866667	1	0.125750
29.883333	1	0.123125
29.900000	1	0.119750
29.916667	1	0.117250
29.933333	1	0.115125
29.950000	1	0.113625
29.966667	1	0.111750
29.983333	1	0.110000
30.000000	1	0.107500
30.016667	1	0.105250
30.033333	1	0.103250
30.050000	1	0.101000
30.066667	1	0.098500
30.083333	1	0.096250
30.100000	1	0.094250
30.116667	1	0.091625
30.133333	1	0.088875
30.150000	1	0.086750
30.166667	1	0.084250
30.183333	1	0.082250
30.200000	1	0.080875
30.216667	1	0.079125
30.233333	1	0.077000
30.250000	1	0.076000
30.266667	1	0.074875
30.283333	1	0.073875
30.300000	1	0.072500
30.316667	1	0.072125
30.333333	1	0.072125
30.350000	1	0.072250
30.366667	1	0.072875
30.383333	1	0.073500
30.400000	1	0.075000
30.416667	1	0.076875
30.433333	1	0.079125
30.450000	1	0.081000
30.466667	1	0.084500
30.483333	1	0.087250
30.500000	1	0.090375
30.516667	1	0.094250
30.533333	1	0.099000
30.550000	1	0.104375
30.566667	1	0.109750
30.583333	1	0.116375
30.600000	1	0.123125
30.616667	1	0.130125
30.633333	1	0.138000
30.650000	1	0.145875
30.666667	1	0.154625
30.683333	1	0.163625
30.700000	1	0.173375
30.716667	1	0.183375
30.733333	1	0.193875
30.750000	1	0.205500
30.766667	1	0.217125
30.783333	1	0.229500
30.800000	1	0.242000
30.816667	1	0.256000
30.833333	1	0.270750
30.850000	1	0.286875
30.866667	1	0.304250
30.883333	1	0.322875
30.900000	1	0.342500
30.916667	1	0.364625
30.933333	1	0.389875
30.950000	1	0.418375
30.966667	1	0.450875
30.983333	1	0.487750
31.000000	1	0.529750
31.016667	1	0.577625
31.033333	1	0.632500
31.050000	1	0.695500
31.066667	1	0.768125
31.083333	1	0.850750
31.100000	1	0.944625
31.116667	1	1.051000
31.133333	1	1.171125
31.150000	1	1.306000
31.166667	1	1.456125
31.183333	1	1.623000
31.200000	1	1.807250
31.216667	1	2.009125
31.233333	1	2.228750
31.250000	1	2.464375
31.266667	1	2.717000
31.283333	1	2.984875
31.300000	1	3.267000
31.316667	1	3.560750
31.333333	1	3.864375
31.350000	1	4.174875
31.366667	1	4.488125
31.383333	1	4.803500
31.400000	1	5.115125
31.416667	1	5.421000
31.433333	1	5.716875
31.450000	1	5.996000
31.466667	1	6.257125
31.483333	1	6.496875
31.500000	1	6.711250
31.516667	1	6.896125
31.533333	1	7.050500
31.550000	1	7.171750
31.566667	1	7.258875
31.583333	1	7.311625
31.600000	1	7.327875
31.616667	1	7.310625
31.633333	1	7.258875
31.650000	1	7.174000
31.666667	1	7.058625
31.683333	1	6.914500
31.700000	1	6.744375
31.716667	1	6.551500
31.733333	1	6.339125
31.750000	1	6.109250
31.766667	1	5.865500
31.783333	1	5.611625
31.800000	1	5.348500
31.816667	1	5.081375
31.833333	1	4.811000
31.850000	1	4.541375
31.866667	1	4.275000
31.883333	1	4.013125
31.900000	1	3.757750
31.916667	1	3.510125
31.933333	1	3.271125
31.950000	1	3.042125
31.966667	1	2.823250
31.983333	1	2.614625
32.000000	1	2.417250
32.016667	1	2.231125
32.033333	1	2.055625
32.050000	1	1.892000
32.066667	1	1.738250
32.083333	1	1.595250
32.100000	1	1.462875
32.116667	1	1.340375
32.133333	1	1.226500
32.150000	1	1.121500
32.166667	1	1.024250
32.183333	1	0.934250
32.200000	1	0.852375
32.216667	1	0.775875
32.233333	1	0.705625
32.250000	1	0.641625
32.266667	1	0.582875
32.283333	1	0.529250
32.300000	1	0.480625
32.316667	1	0.436875
32.333333	1	0.396250
32.350000	1	0.359750
32.366667	1	0.326375
32.383333	1	0.296875
32.400000	1	0.270625
32.416667	1	0.246750
32.433333	1	0.225750
32.450000	1	0.206750
32.466667	1	0.189625
32.483333	1	0.175000
32.500000	1	0.162625
32.516667	1	0.151500
32.533333	1	0.142875
32.550000	1	0.135250
32.566667	1	0.127250
32.583333	1	0.121125
32.600000	1	0.116375
32.616667	1	0.112500
32.633333	1	0.108750
32.650000	1	0.107375
32.666667	1	0.105000
32.683333	1	0.103125
32.700000	1	0.102250
32.716667	1	0.100750
32.733333	1	0.100625
32.750000	1	0.100125
32.766667	1	0.099875
32.783333	1	0.099875
32.800000	1	0.100000
32.816667	1	0.100250
32.833333	1	0.100625
32.850000	1	0.099750
32.866667	1	0.099125
32.883333	1	0.098750
32.900000	1	0.098500
32.916667	1	0.097750
32.933333	1	0.096625
32.950000	1	0.096125
32.966667	1	0.095875
32.983333	1	0.095500
33.000000	1	0.095000
33.016667	1	0.094500
33.033333	1	0.093125
33.050000	1	0.092375
33.066667	1	0.091375
33.083333	1	0.090625
33.100000	1	0.089375
33.116667	1	0.088750
33.133333	1	0.088500
33.150000	1	0.087500
33.166667	1	0.087375
33.183333	1	0.087625
33.200000	1	0.087625
33.216667	1	0.087250
33.233333	1	0.088000
33.250000	1	0.088250
33.266667	1	0.088875
33.283333	1	0.089250
33.300000	1	0.090250
33.316667	1	0.091250
33.333333	1	0.092125
33.350000	1	0.093375
33.366667	1	0.095000
33.383333	1	0.096250
33.400000	1	0.097625
33.416667	1	0.099375
33.433333	1	0.101625
33.450000	1	0.103375
33.466667	1	0.104750
33.483333	1	0.106125
33.500000	1	0.107625
33.516667	1	0.109000
33.533333	1	0.110625
33.550000	1	0.112625
33.566667	1	0.114000
33.583333	1	0.114875
33.600000	1	0.116125
33.616667	1	0.117250
33.633333	1	0.118250
33.650000	1	0.119375
33.666667	1	0.120750
33.683333	1	0.121500
33.700000	1	0.122500
33.716667	1	0.122625
33.733333	1	0.123375
33.750000	1	0.124375
33.766667	1	0.124250
33.783333	1	0.124500
33.800000	1	0.124375
33.816667	1	0.124000
33.833333	1	0.124875
33.850000	1	0.124875
33.866667	1	0.124750
33.883333	1	0.124625
33.900000	1	0.124125
33.916667	1	0.124000
33.933333	1	0.123875
33.950000	1	0.123000
33.966667	1	0.122125
33.983333	1	0.121750
34.000000	1	0.120375
34.016667	1	0.119125
34.033333	1	0.118125
34.050000	1	0.116375
34.066667	1	0.115625
34.083333	1	0.114500
34.100000	1	0.113500
34.116667	1	0.112625
34.133333	1	0.111125
34.150000	1	0.110500
34.166667	1	0.109875
34.183333	1	0.109375
34.200000	1	0.109250
34.216667	1	0.107625
34.233333	1	0.107250
34.250000	1	0.106625
34.266667	1	0.106500
34.283333	1	0.106750
34.300000	1	0.107125
34.316667	1	0.107250
34.333333	1	0.107500
34.350000	1	0.108500
34.366667	1	0.110250
34.383333	1	0.111875
34.400000	1	0.113000
34.416667	1	0.115250
34.433333	1	0.117125
34.450000	1	0.119250
34.466667	1	0.122000
34.483333	1	0.124250
34.500000	1	0.126375
34.516667	1	0.127875
34.533333	1	0.130250
34.550000	1	0.133375
34.566667	1	0.135500
34.583333	1	0.138375
34.600000	1	0.141000
34.616667	1	0.144125
34.633333	1	0.146375
34.650000	1	0.148250
34.666667	1	0.150250
34.683333	1	0.152250
34.700000	1	0.153875
34.716667	1	0.155375
34.733333	1	0.156250
34.750000	1	0.157625
34.766667	1	0.158875
34.783333	1	0.159750
34.800000	1	0.159750
34.816667	1	0.159875
34.833333	1	0.159500
34.850000	1	0.159250
34.866667	1	0.159000
34.883333	1	0.157750
34.900000	1	0.156625
34.916667	1	0.155625
34.933333	1	0.154750
34.950000	1	0.153000
34.966667	1	0.150750
34.983333	1	0.149500
35.000000	1	0.147750
35.016667	1	0.145500
35.033333	1	0.142625
35.050000	1	0.140250
35.066667	1	0.137875
35.083333	1	0.135500
35.100000	1	0.134125
35.116667	1	0.131750
35.133333	1	0.130250
35.150000	1	0.129375
35.166667	1	0.127125
35.183333	1	0.125625
35.200000	1	0.124000
35.216667	1	0.123250
35.233333	1	0.121125
35.250000	1	0.120375
35.266667	1	0.119875
35.283333	1	0.119625
35.300000	1	0.118625
35.316667	1	0.118500
35.333333	1	0.118500
35.350000	1	0.118375
35.366667	1	0.118500
35.383333	1	0.118625
35.400000	1	0.118500
35.416667	1	0.118250
35.433333	1	0.119250
35.450000	1	0.119125
35.466667	1	0.118875
35.483333	1	0.119125
35.500000	1	0.119375
35.516667	1	0.119750
35.533333	1	0.120125
35.550000	1	0.119625
35.566667	1	0.119125
35.583333	1	0.118750
35.600000	1	0.119375
35.616667	1	0.119625
35.633333	1	0.120000
35.650000	1	0.120250
35.666667	1	0.119625
35.683333	1	0.119500
35.700000	1	0.119375
35.716667	1	0.120000
35.733333	1	0.120250
35.750000	1	0.120000
35.766667	1	0.119375
35.783333	1	0.119000
35.800000	1	0.119250
35.816667	1	0.119000
35.833333	1	0.119000
35.850000	1	0.118750
35.866667	1	0.118875
35.883333	1	0.118500
35.900000	1	0.118625
35.916667	1	0.118500
35.933333	1	0.118750
35.950000	1	0.118750
35.966667	1	0.118375
35.983333	1	0.118500
36.000000	1	0.118750
36.016667	1	0.119250
36.033333	1	0.119500
36.050000	1	0.119500
36.066667	1	0.120000
36.083333	1	0.120125
36.100000	1	0.120875
36.116667	1	0.121625
36.133333	1	0.121375
36.150000	1	0.121750
36.166667	1	0.122125
36.183333	1	0.122750
36.200000	1	0.123250
36.216667	1	0.124000
36.233333	1	0.124500
36.250000	1	0.125375
36.266667	1	0.125375
36.283333	1	0.126000
36.300000	1	0.127125
36.316667	1	0.128375
36.333333	1	0.129125
36.350000	1	0.130125
36.366667	1	0.131750
36.383333	1	0.133000
36.400000	1	0.133375
36.416667	1	0.134375
36.433333	1	0.135625
36.450000	1	0.136500
36.466667	1	0.136750
36.483333	1	0.137125
36.500000	1	0.137625
36.516667	1	0.138125
36.533333	1	0.137125
36.550000	1	0.136750
36.566667	1	0.135500
36.583333	1	0.134250
36.600000	1	0.132000
36.616667	1	0.129750
36.633333	1	0.127625
36.650000	1	0.124500
36.666667	1	0.121875
36.683333	1	0.119000
36.700000	1	0.115250
36.716667	1	0.111875
36.733333	1	0.108375
36.750000	1	0.104250
36.766667	1	0.100250
36.783333	1	0.095500
36.800000	1	0.091000
36.816667	1	0.086375
36.833333	1	0.082375
36.850000	1	0.078625
36.866667	1	0.074750
36.883333	1	0.070875
36.900000	1	0.067375
36.916667	1	0.063250
36.933333	1	0.060125
36.950000	1	0.057500
36.966667	1	0.055000
36.983333	1	0.052625
37.000000	1	0.051250
37.016667	1	0.049500
37.033333	1	0.049375
37.050000	1	0.049000
37.066667	1	0.048250
37.083333	1	0.048375
37.100000	1	0.049250
37.116667	1	0.049500
37.133333	1	0.050875
37.150000	1	0.053250
37.166667	1	0.055000
37.183333	1	0.057000
37.200000	1	0.059750
37.216667	1	0.062750
37.233333	1	0.064875
37.250000	1	0.067375
37.266667	1	0.069375
37.283333	1	0.072500
37.300000	1	0.075750
37.316667	1	0.079125
37.333333	1	0.081750
37.350000	1	0.084250
37.366667	1	0.086250
37.383333	1	0.089000
37.400000	1	0.091750
37.416667	1	0.094375
37.433333	1	0.096250
37.450000	1	0.097750
37.466667	1	0.099875
37.483333	1	0.100875
37.500000	1	0.102750
37.516667	1	0.103625
37.533333	1	0.104750
37.550000	1	0.104750
37.566667	1	0.103250
37.583333	1	0.102500
37.600000	1	0.102000
37.616667	1	0.101125
37.633333	1	0.100250
37.650000	1	0.098625
37.666667	1	0.097250
37.683333	1	0.095625
37.700000	1	0.093375
37.716667	1	0.090875
37.733333	1	0.087750
37.750000	1	0.085125
37.766667	1	0.082125
37.783333	1	0.077875
37.800000	1	0.074375
37.816667	1	0.070875
37.833333	1	0.067500
37.850000	1	0.063625
37.866667	1	0.059875
37.883333	1	0.056625
37.900000	1	0.053250
37.916667	1	0.050500
37.933333	1	0.046500
37.950000	1	0.042375
37.966667	1	0.038625
37.983333	1	0.035375
38.000000	1	0.032125
38.016667	1	0.028750
38.033333	1	0.025750
38.050000	1	0.023000
38.066667	1	0.020875
38.083333	1	0.019250
38.100000	1	0.017375
38.116667	1	0.015625
38.133333	1	0.014250
38.150000	1	0.013375
38.166667	1	0.012375
38.183333	1	0.012000
38.200000	1	0.011750
38.216667	1	0.011375
38.233333	1	0.011125
38.250000	1	0.011750
38.266667	1	0.013000
38.283333	1	0.013750
38.300000	1	0.014625
38.316667	1	0.015250
38.333333	1	0.016250
38.350000	1	0.018000
38.366667	1	0.019625
38.383333	1	0.021125
38.400000	1	0.022625
38.416667	1	0.024625
38.433333	1	0.026875
38.450000	1	0.028875
38.466667	1	0.030125
38.483333	1	0.031875
38.500000	1	0.033625
38.516667	1	0.034750
38.533333	1	0.036500
38.550000	1	0.038000
38.566667	1	0.039125
38.583333	1	0.040750
38.600000	1	0.041875
38.616667	1	0.043875
38.633333	1	0.044500
38.650000	1	0.044750
38.666667	1	0.045875
38.683333	1	0.047625
38.700000	1	0.049375
38.716667	1	0.050750
38.733333	1	0.052125
38.750000	1	0.053375
38.766667	1	0.054250
38.783333	1	0.055625
38.800000	1	0.057125
38.816667	1	0.058250
38.833333	1	0.059500
38.850000	1	0.061125
38.866667	1	0.063125
38.883333	1	0.065250
38.900000	1	0.066625
38.916667	1	0.067750
38.933333	1	0.068250
38.950000	1	0.069625
38.966667	1	0.071125
38.983333	1	0.072250
39.000000	1	0.073125
39.016667	1	0.075000
39.033333	1	0.075500
39.050000	1	0.075250
39.066667	1	0.075375
39.083333	1	0.075875
39.100000	1	0.076500
39.116667	1	0.076750
39.133333	1	0.077375
39.150000	1	0.076875
39.166667	1	0.077000
39.183333	1	0.076500
39.200000	1	0.075750
39.216667	1	0.075250
39.233333	1	0.074625
39.250000	1	0.073750
39.266667	1	0.072750
39.283333	1	0.071625
39.300000	1	0.070000
39.316667	1	0.068875
39.333333	1	0.067250
39.350000	1	0.066500
39.366667	1	0.064750
39.383333	1	0.063750
39.400000	1	0.062125
39.416667	1	0.060750
39.433333	1	0.058875
39.450000	1	0.057625
39.466667	1	0.055875
39.483333	1	0.053875
39.500000	1	0.052125
39.516667	1	0.050875
39.533333	1	0.048750
39.550000	1	0.047000
39.566667	1	0.044500
39.583333	1	0.042375
39.600000	1	0.040625
39.616667	1	0.038375
39.633333	1	0.036625
39.650000	1	0.034500
39.666667	1	0.031875
39.683333	1	0.030375
39.700000	1	0.028500
39.716667	1	0.026500
39.733333	1	0.023750
39.750000	1	0.021125
39.766667	1	0.019000
39.783333	1	0.016375
39.800000	1	0.014375
39.816667	1	0.012125
39.833333	1	0.010125
39.850000	1	0.007625
39.866667	1	0.004875
39.883333	1	0.003375
39.900000	1	0.001250
39.916667	1	-0.000625
39.933333	1	-0.002750
39.950000	1	-0.005000
39.966667	1	-0.007000
39.983333	1	-0.008625
40.000000	1	-0.010750
