URL	chrom://bioreactor/micro_cm7/HPLC_Ultimate_3000/Users/markusar/20240708_MA_pHrange1.seq/809.smp/RI_1.channel/RI_1.chm
Channel	RI_1

Injection Information:
Data Vault	micro_cm7
Sequence	20240708_MA_pHrange1
Name	Pv1_6.5_1
Number	2
Position	BA2
Comment	
Processing Method	
Instrument Method	run_25B_method
Type	Unknown
Status	Finished
Inject Time	08.07.2024 16:15:23 +02:00
Volume (µl)	20.0000
Dilution Factor	1.0000
Weight	1.0000

Chromatogram Data Information:
Time Min. (min)	0.000000
Time Max. (min)	40.000000
Data Points	2401
Detector	RI
Generating Data System	Chromeleon 7.3.2.11814
Exporting Data System	Chromeleon 7.3.2.0
Operator	Instrument Controller
Signal Quantity	Refractive 
Signal Unit	µRIU
Signal Min.	-0.088875
Signal Max.	85.926125
Channel	RI_1
Driver Name	RID520Driver.dll
Channel Type	Evaluation
Min. Step (s)	1
Max. Step (s)	1
Average Step (s)	1

Signal Parameter Information:
Signal Info	

Chromatogram Data:
Time (min)	Step (s)	Value (µRIU)
0.000000	n.a.	-0.051875
0.016667	1	-0.052125
0.033333	1	-0.052375
0.050000	1	-0.052375
0.066667	1	-0.051000
0.083333	1	-0.050875
0.100000	1	-0.050750
0.116667	1	-0.050000
0.133333	1	-0.049250
0.150000	1	-0.047750
0.166667	1	-0.046875
0.183333	1	-0.046000
0.200000	1	-0.045125
0.216667	1	-0.044500
0.233333	1	-0.043625
0.250000	1	-0.041750
0.266667	1	-0.040625
0.283333	1	-0.039375
0.300000	1	-0.038500
0.316667	1	-0.037625
0.333333	1	-0.036500
0.350000	1	-0.036125
0.366667	1	-0.036625
0.383333	1	-0.036750
0.400000	1	-0.036250
0.416667	1	-0.035250
0.433333	1	-0.033125
0.450000	1	-0.030875
0.466667	1	-0.028375
0.483333	1	-0.026375
0.500000	1	-0.025125
0.516667	1	-0.024500
0.533333	1	-0.024500
0.550000	1	-0.024625
0.566667	1	-0.025250
0.583333	1	-0.027375
0.600000	1	-0.029500
0.616667	1	-0.031375
0.633333	1	-0.032625
0.650000	1	-0.033375
0.666667	1	-0.034375
0.683333	1	-0.035000
0.700000	1	-0.035500
0.716667	1	-0.035500
0.733333	1	-0.035875
0.750000	1	-0.036750
0.766667	1	-0.036250
0.783333	1	-0.036500
0.800000	1	-0.037000
0.816667	1	-0.037250
0.833333	1	-0.037500
0.850000	1	-0.038250
0.866667	1	-0.039000
0.883333	1	-0.039500
0.900000	1	-0.039500
0.916667	1	-0.039625
0.933333	1	-0.039750
0.950000	1	-0.039750
0.966667	1	-0.039625
0.983333	1	-0.039750
1.000000	1	-0.039875
1.016667	1	-0.040125
1.033333	1	-0.039500
1.050000	1	-0.039500
1.066667	1	-0.040000
1.083333	1	-0.039500
1.100000	1	-0.040250
1.116667	1	-0.040375
1.133333	1	-0.040500
1.150000	1	-0.041000
1.166667	1	-0.041000
1.183333	1	-0.041625
1.200000	1	-0.041750
1.216667	1	-0.042375
1.233333	1	-0.042625
1.250000	1	-0.042750
1.266667	1	-0.042750
1.283333	1	-0.043000
1.300000	1	-0.043125
1.316667	1	-0.043000
1.333333	1	-0.042750
1.350000	1	-0.043000
1.366667	1	-0.042750
1.383333	1	-0.043125
1.400000	1	-0.042625
1.416667	1	-0.041875
1.433333	1	-0.041625
1.450000	1	-0.041000
1.466667	1	-0.040000
1.483333	1	-0.039125
1.500000	1	-0.038250
1.516667	1	-0.037500
1.533333	1	-0.037375
1.550000	1	-0.036000
1.566667	1	-0.035000
1.583333	1	-0.034375
1.600000	1	-0.033250
1.616667	1	-0.032250
1.633333	1	-0.031875
1.650000	1	-0.030750
1.666667	1	-0.029750
1.683333	1	-0.029125
1.700000	1	-0.029750
1.716667	1	-0.029500
1.733333	1	-0.028875
1.750000	1	-0.029000
1.766667	1	-0.028875
1.783333	1	-0.029250
1.800000	1	-0.030000
1.816667	1	-0.030875
1.833333	1	-0.031375
1.850000	1	-0.031500
1.866667	1	-0.032125
1.883333	1	-0.033125
1.900000	1	-0.034125
1.916667	1	-0.035375
1.933333	1	-0.037125
1.950000	1	-0.038875
1.966667	1	-0.040375
1.983333	1	-0.042250
2.000000	1	-0.043625
2.016667	1	-0.044750
2.033333	1	-0.046875
2.050000	1	-0.049125
2.066667	1	-0.050875
2.083333	1	-0.053000
2.100000	1	-0.055000
2.116667	1	-0.056875
2.133333	1	-0.059000
2.150000	1	-0.060750
2.166667	1	-0.062125
2.183333	1	-0.064125
2.200000	1	-0.065625
2.216667	1	-0.067250
2.233333	1	-0.068375
2.250000	1	-0.069250
2.266667	1	-0.069500
2.283333	1	-0.071000
2.300000	1	-0.071750
2.316667	1	-0.072250
2.333333	1	-0.072375
2.350000	1	-0.072500
2.366667	1	-0.072375
2.383333	1	-0.072000
2.400000	1	-0.071375
2.416667	1	-0.071125
2.433333	1	-0.070500
2.450000	1	-0.070000
2.466667	1	-0.069500
2.483333	1	-0.069000
2.500000	1	-0.067875
2.516667	1	-0.066125
2.533333	1	-0.065000
2.550000	1	-0.062625
2.566667	1	-0.060750
2.583333	1	-0.059125
2.600000	1	-0.057500
2.616667	1	-0.055250
2.633333	1	-0.053375
2.650000	1	-0.051000
2.666667	1	-0.049750
2.683333	1	-0.048125
2.700000	1	-0.046750
2.716667	1	-0.045875
2.733333	1	-0.044500
2.750000	1	-0.043125
2.766667	1	-0.041875
2.783333	1	-0.040625
2.800000	1	-0.039500
2.816667	1	-0.038750
2.833333	1	-0.037750
2.850000	1	-0.036500
2.866667	1	-0.035500
2.883333	1	-0.035125
2.900000	1	-0.034500
2.916667	1	-0.033875
2.933333	1	-0.033250
2.950000	1	-0.033375
2.966667	1	-0.033375
2.983333	1	-0.032875
3.000000	1	-0.032625
3.016667	1	-0.033375
3.033333	1	-0.033500
3.050000	1	-0.033500
3.066667	1	-0.034125
3.083333	1	-0.034000
3.100000	1	-0.034375
3.116667	1	-0.034875
3.133333	1	-0.034875
3.150000	1	-0.035625
3.166667	1	-0.036375
3.183333	1	-0.037000
3.200000	1	-0.037125
3.216667	1	-0.037250
3.233333	1	-0.037250
3.250000	1	-0.037750
3.266667	1	-0.038500
3.283333	1	-0.038500
3.300000	1	-0.039750
3.316667	1	-0.040375
3.333333	1	-0.041875
3.350000	1	-0.042750
3.366667	1	-0.042625
3.383333	1	-0.042500
3.400000	1	-0.042875
3.416667	1	-0.042250
3.433333	1	-0.041875
3.450000	1	-0.042125
3.466667	1	-0.042625
3.483333	1	-0.043125
3.500000	1	-0.043000
3.516667	1	-0.043875
3.533333	1	-0.043750
3.550000	1	-0.044250
3.566667	1	-0.044000
3.583333	1	-0.044625
3.600000	1	-0.045000
3.616667	1	-0.045375
3.633333	1	-0.046500
3.650000	1	-0.047750
3.666667	1	-0.048500
3.683333	1	-0.049500
3.700000	1	-0.051250
3.716667	1	-0.052500
3.733333	1	-0.054750
3.750000	1	-0.056375
3.766667	1	-0.058625
3.783333	1	-0.061000
3.800000	1	-0.063125
3.816667	1	-0.065125
3.833333	1	-0.068125
3.850000	1	-0.069375
3.866667	1	-0.071000
3.883333	1	-0.072500
3.900000	1	-0.074625
3.916667	1	-0.076625
3.933333	1	-0.078375
3.950000	1	-0.080000
3.966667	1	-0.081125
3.983333	1	-0.081125
4.000000	1	-0.081500
4.016667	1	-0.081750
4.033333	1	-0.081750
4.050000	1	-0.081375
4.066667	1	-0.081000
4.083333	1	-0.081125
4.100000	1	-0.082125
4.116667	1	-0.081750
4.133333	1	-0.080875
4.150000	1	-0.080000
4.166667	1	-0.078625
4.183333	1	-0.077125
4.200000	1	-0.075375
4.216667	1	-0.073875
4.233333	1	-0.072625
4.250000	1	-0.070375
4.266667	1	-0.069500
4.283333	1	-0.069625
4.300000	1	-0.068250
4.316667	1	-0.067625
4.333333	1	-0.067375
4.350000	1	-0.066500
4.366667	1	-0.066625
4.383333	1	-0.066250
4.400000	1	-0.067000
4.416667	1	-0.066500
4.433333	1	-0.066500
4.450000	1	-0.066750
4.466667	1	-0.066750
4.483333	1	-0.067000
4.500000	1	-0.067625
4.516667	1	-0.068000
4.533333	1	-0.068625
4.550000	1	-0.068875
4.566667	1	-0.069375
4.583333	1	-0.069500
4.600000	1	-0.070250
4.616667	1	-0.070375
4.633333	1	-0.069750
4.650000	1	-0.069375
4.666667	1	-0.069625
4.683333	1	-0.069500
4.700000	1	-0.068625
4.716667	1	-0.066500
4.733333	1	-0.065250
4.750000	1	-0.064500
4.766667	1	-0.063000
4.783333	1	-0.061500
4.800000	1	-0.059625
4.816667	1	-0.057000
4.833333	1	-0.054625
4.850000	1	-0.052500
4.866667	1	-0.050125
4.883333	1	-0.047000
4.900000	1	-0.043375
4.916667	1	-0.040625
4.933333	1	-0.038000
4.950000	1	-0.035000
4.966667	1	-0.032250
4.983333	1	-0.030000
5.000000	1	-0.027625
5.016667	1	-0.024750
5.033333	1	-0.021875
5.050000	1	-0.019125
5.066667	1	-0.017125
5.083333	1	-0.015625
5.100000	1	-0.013750
5.116667	1	-0.012000
5.133333	1	-0.010750
5.150000	1	-0.009375
5.166667	1	-0.008000
5.183333	1	-0.007250
5.200000	1	-0.006250
5.216667	1	-0.005625
5.233333	1	-0.005875
5.250000	1	-0.006375
5.266667	1	-0.007125
5.283333	1	-0.007875
5.300000	1	-0.009125
5.316667	1	-0.010500
5.333333	1	-0.012375
5.350000	1	-0.013875
5.366667	1	-0.015750
5.383333	1	-0.018125
5.400000	1	-0.020125
5.416667	1	-0.022625
5.433333	1	-0.024875
5.450000	1	-0.027875
5.466667	1	-0.031125
5.483333	1	-0.034625
5.500000	1	-0.036750
5.516667	1	-0.039375
5.533333	1	-0.041625
5.550000	1	-0.043875
5.566667	1	-0.045875
5.583333	1	-0.048125
5.600000	1	-0.050500
5.616667	1	-0.052375
5.633333	1	-0.054250
5.650000	1	-0.055750
5.666667	1	-0.056750
5.683333	1	-0.058750
5.700000	1	-0.060125
5.716667	1	-0.060625
5.733333	1	-0.061125
5.750000	1	-0.061000
5.766667	1	-0.061125
5.783333	1	-0.061250
5.800000	1	-0.060750
5.816667	1	-0.060500
5.833333	1	-0.060500
5.850000	1	-0.060250
5.866667	1	-0.059375
5.883333	1	-0.058250
5.900000	1	-0.057625
5.916667	1	-0.056625
5.933333	1	-0.055875
5.950000	1	-0.054625
5.966667	1	-0.053125
5.983333	1	-0.051375
6.000000	1	-0.050000
6.016667	1	-0.047875
6.033333	1	-0.046250
6.050000	1	-0.045750
6.066667	1	-0.044375
6.083333	1	-0.043500
6.100000	1	-0.042750
6.116667	1	-0.040875
6.133333	1	-0.039375
6.150000	1	-0.038875
6.166667	1	-0.037750
6.183333	1	-0.036125
6.200000	1	-0.035125
6.216667	1	-0.033250
6.233333	1	-0.032875
6.250000	1	-0.030875
6.266667	1	-0.029375
6.283333	1	-0.027625
6.300000	1	-0.026750
6.316667	1	-0.026375
6.333333	1	-0.025500
6.350000	1	-0.024500
6.366667	1	-0.023000
6.383333	1	-0.022250
6.400000	1	-0.021500
6.416667	1	-0.021125
6.433333	1	-0.021500
6.450000	1	-0.022375
6.466667	1	-0.022875
6.483333	1	-0.022250
6.500000	1	-0.023125
6.516667	1	-0.023625
6.533333	1	-0.023625
6.550000	1	-0.023750
6.566667	1	-0.024750
6.583333	1	-0.025875
6.600000	1	-0.028125
6.616667	1	-0.030125
6.633333	1	-0.031750
6.650000	1	-0.033125
6.666667	1	-0.035125
6.683333	1	-0.036625
6.700000	1	-0.037625
6.716667	1	-0.039375
6.733333	1	-0.041750
6.750000	1	-0.043625
6.766667	1	-0.045375
6.783333	1	-0.048125
6.800000	1	-0.049750
6.816667	1	-0.051250
6.833333	1	-0.053750
6.850000	1	-0.056000
6.866667	1	-0.057875
6.883333	1	-0.059375
6.900000	1	-0.061125
6.916667	1	-0.062625
6.933333	1	-0.064250
6.950000	1	-0.065375
6.966667	1	-0.067500
6.983333	1	-0.068500
7.000000	1	-0.069375
7.016667	1	-0.071125
7.033333	1	-0.072625
7.050000	1	-0.073625
7.066667	1	-0.074875
7.083333	1	-0.075750
7.100000	1	-0.075750
7.116667	1	-0.076375
7.133333	1	-0.077875
7.150000	1	-0.078500
7.166667	1	-0.079375
7.183333	1	-0.080125
7.200000	1	-0.081000
7.216667	1	-0.081625
7.233333	1	-0.083250
7.250000	1	-0.083625
7.266667	1	-0.084375
7.283333	1	-0.085500
7.300000	1	-0.086875
7.316667	1	-0.088250
7.333333	1	-0.088000
7.350000	1	-0.088250
7.366667	1	-0.088750
7.383333	1	-0.088875
7.400000	1	-0.088875
7.416667	1	-0.088750
7.433333	1	-0.088625
7.450000	1	-0.088375
7.466667	1	-0.088125
7.483333	1	-0.088625
7.500000	1	-0.088500
7.516667	1	-0.087750
7.533333	1	-0.087625
7.550000	1	-0.087250
7.566667	1	-0.086000
7.583333	1	-0.085375
7.600000	1	-0.084750
7.616667	1	-0.084625
7.633333	1	-0.084375
7.650000	1	-0.084375
7.666667	1	-0.083625
7.683333	1	-0.083875
7.700000	1	-0.083750
7.716667	1	-0.083625
7.733333	1	-0.083625
7.750000	1	-0.084000
7.766667	1	-0.083500
7.783333	1	-0.083000
7.800000	1	-0.082250
7.816667	1	-0.082250
7.833333	1	-0.082500
7.850000	1	-0.082500
7.866667	1	-0.082000
7.883333	1	-0.081375
7.900000	1	-0.080875
7.916667	1	-0.080500
7.933333	1	-0.079625
7.950000	1	-0.078875
7.966667	1	-0.078250
7.983333	1	-0.077000
8.000000	1	-0.075375
8.016667	1	-0.074375
8.033333	1	-0.074000
8.050000	1	-0.072750
8.066667	1	-0.070875
8.083333	1	-0.069000
8.100000	1	-0.067250
8.116667	1	-0.065875
8.133333	1	-0.064000
8.150000	1	-0.062125
8.166667	1	-0.060500
8.183333	1	-0.058500
8.200000	1	-0.056000
8.216667	1	-0.053875
8.233333	1	-0.052250
8.250000	1	-0.050125
8.266667	1	-0.047750
8.283333	1	-0.046250
8.300000	1	-0.044250
8.316667	1	-0.042500
8.333333	1	-0.041125
8.350000	1	-0.039375
8.366667	1	-0.037625
8.383333	1	-0.036500
8.400000	1	-0.034750
8.416667	1	-0.033000
8.433333	1	-0.031500
8.450000	1	-0.030000
8.466667	1	-0.029250
8.483333	1	-0.028125
8.500000	1	-0.026875
8.516667	1	-0.026125
8.533333	1	-0.024875
8.550000	1	-0.024625
8.566667	1	-0.023875
8.583333	1	-0.023750
8.600000	1	-0.023875
8.616667	1	-0.024500
8.633333	1	-0.024000
8.650000	1	-0.024625
8.666667	1	-0.024625
8.683333	1	-0.025500
8.700000	1	-0.025875
8.716667	1	-0.026375
8.733333	1	-0.027250
8.750000	1	-0.027375
8.766667	1	-0.027750
8.783333	1	-0.028625
8.800000	1	-0.028750
8.816667	1	-0.030250
8.833333	1	-0.031000
8.850000	1	-0.031625
8.866667	1	-0.033125
8.883333	1	-0.034625
8.900000	1	-0.035875
8.916667	1	-0.037750
8.933333	1	-0.038375
8.950000	1	-0.038375
8.966667	1	-0.038500
8.983333	1	-0.039375
9.000000	1	-0.040500
9.016667	1	-0.041375
9.033333	1	-0.042875
9.050000	1	-0.044625
9.066667	1	-0.045875
9.083333	1	-0.047000
9.100000	1	-0.049000
9.116667	1	-0.050250
9.133333	1	-0.051750
9.150000	1	-0.053125
9.166667	1	-0.054875
9.183333	1	-0.057000
9.200000	1	-0.059000
9.216667	1	-0.060500
9.233333	1	-0.063250
9.250000	1	-0.065375
9.266667	1	-0.067500
9.283333	1	-0.069125
9.300000	1	-0.070750
9.316667	1	-0.072875
9.333333	1	-0.074875
9.350000	1	-0.076500
9.366667	1	-0.078250
9.383333	1	-0.080250
9.400000	1	-0.081875
9.416667	1	-0.083125
9.433333	1	-0.084375
9.450000	1	-0.085750
9.466667	1	-0.086250
9.483333	1	-0.086625
9.500000	1	-0.086875
9.516667	1	-0.087250
9.533333	1	-0.087625
9.550000	1	-0.088000
9.566667	1	-0.087750
9.583333	1	-0.087000
9.600000	1	-0.086250
9.616667	1	-0.085875
9.633333	1	-0.085000
9.650000	1	-0.083625
9.666667	1	-0.082500
9.683333	1	-0.081375
9.700000	1	-0.079875
9.716667	1	-0.078250
9.733333	1	-0.076375
9.750000	1	-0.075125
9.766667	1	-0.073750
9.783333	1	-0.072000
9.800000	1	-0.070125
9.816667	1	-0.068500
9.833333	1	-0.066375
9.850000	1	-0.064125
9.866667	1	-0.062750
9.883333	1	-0.060875
9.900000	1	-0.059000
9.916667	1	-0.056875
9.933333	1	-0.054500
9.950000	1	-0.051125
9.966667	1	-0.047875
9.983333	1	-0.044125
10.000000	1	-0.039750
10.016667	1	-0.034250
10.033333	1	-0.027625
10.050000	1	-0.020125
10.066667	1	-0.011500
10.083333	1	-0.001625
10.100000	1	0.009250
10.116667	1	0.021375
10.133333	1	0.034750
10.150000	1	0.048500
10.166667	1	0.063875
10.183333	1	0.079625
10.200000	1	0.096250
10.216667	1	0.113625
10.233333	1	0.132125
10.250000	1	0.152500
10.266667	1	0.174875
10.283333	1	0.199500
10.300000	1	0.226875
10.316667	1	0.257375
10.333333	1	0.291375
10.350000	1	0.328375
10.366667	1	0.368625
10.383333	1	0.412375
10.400000	1	0.456500
10.416667	1	0.500000
10.433333	1	0.540375
10.450000	1	0.571125
10.466667	1	0.587375
10.483333	1	0.586250
10.500000	1	0.570125
10.516667	1	0.556125
10.533333	1	0.581250
10.550000	1	0.704750
10.566667	1	1.007375
10.583333	1	1.577250
10.600000	1	2.501875
10.616667	1	3.858125
10.633333	1	5.706500
10.650000	1	8.083375
10.666667	1	11.010500
10.683333	1	14.488875
10.700000	1	18.497000
10.716667	1	22.986375
10.733333	1	27.867875
10.750000	1	32.995875
10.766667	1	38.149875
10.783333	1	43.012875
10.800000	1	47.174750
10.816667	1	50.155625
10.833333	1	51.514750
10.850000	1	50.983125
10.866667	1	48.571750
10.883333	1	44.592875
10.900000	1	39.576625
10.916667	1	34.109125
10.933333	1	28.696625
10.950000	1	23.689875
10.966667	1	19.278500
10.983333	1	15.534875
11.000000	1	12.446250
11.016667	1	9.954750
11.033333	1	7.980625
11.050000	1	6.438625
11.066667	1	5.245625
11.083333	1	4.328000
11.100000	1	3.623000
11.116667	1	3.082250
11.133333	1	2.664875
11.150000	1	2.341500
11.166667	1	2.087500
11.183333	1	1.886250
11.200000	1	1.723250
11.216667	1	1.589625
11.233333	1	1.478375
11.250000	1	1.384500
11.266667	1	1.304875
11.283333	1	1.236500
11.300000	1	1.175750
11.316667	1	1.123250
11.333333	1	1.077000
11.350000	1	1.035750
11.366667	1	0.998750
11.383333	1	0.966500
11.400000	1	0.936500
11.416667	1	0.910000
11.433333	1	0.886000
11.450000	1	0.864125
11.466667	1	0.844625
11.483333	1	0.827500
11.500000	1	0.811125
11.516667	1	0.796500
11.533333	1	0.783625
11.550000	1	0.771500
11.566667	1	0.761500
11.583333	1	0.752500
11.600000	1	0.744750
11.616667	1	0.738625
11.633333	1	0.733125
11.650000	1	0.729375
11.666667	1	0.726875
11.683333	1	0.725500
11.700000	1	0.725750
11.716667	1	0.727375
11.733333	1	0.730000
11.750000	1	0.732875
11.766667	1	0.736750
11.783333	1	0.741125
11.800000	1	0.745875
11.816667	1	0.750625
11.833333	1	0.754375
11.850000	1	0.758375
11.866667	1	0.761250
11.883333	1	0.764250
11.900000	1	0.765875
11.916667	1	0.767125
11.933333	1	0.768875
11.950000	1	0.770000
11.966667	1	0.771625
11.983333	1	0.772750
12.000000	1	0.774375
12.016667	1	0.777000
12.033333	1	0.779625
12.050000	1	0.783625
12.066667	1	0.787875
12.083333	1	0.792375
12.100000	1	0.798000
12.116667	1	0.805125
12.133333	1	0.812875
12.150000	1	0.821625
12.166667	1	0.831125
12.183333	1	0.841500
12.200000	1	0.854250
12.216667	1	0.869000
12.233333	1	0.886250
12.250000	1	0.906500
12.266667	1	0.931875
12.283333	1	0.962875
12.300000	1	1.001750
12.316667	1	1.051875
12.333333	1	1.115875
12.350000	1	1.196875
12.366667	1	1.299875
12.383333	1	1.429875
12.400000	1	1.591500
12.416667	1	1.789500
12.433333	1	2.028875
12.450000	1	2.314875
12.466667	1	2.652000
12.483333	1	3.045250
12.500000	1	3.497375
12.516667	1	4.011250
12.533333	1	4.585125
12.550000	1	5.215625
12.566667	1	5.895000
12.583333	1	6.612375
12.600000	1	7.353250
12.616667	1	8.101625
12.633333	1	8.842875
12.650000	1	9.561375
12.666667	1	10.247625
12.683333	1	10.892125
12.700000	1	11.493750
12.716667	1	12.054125
12.733333	1	12.578875
12.750000	1	13.076500
12.766667	1	13.559500
12.783333	1	14.039375
12.800000	1	14.525375
12.816667	1	15.026750
12.833333	1	15.550250
12.850000	1	16.102125
12.866667	1	16.684500
12.883333	1	17.299875
12.900000	1	17.947125
12.916667	1	18.626625
12.933333	1	19.335250
12.950000	1	20.071125
12.966667	1	20.834250
12.983333	1	21.621625
13.000000	1	22.432500
13.016667	1	23.265250
13.033333	1	24.120125
13.050000	1	24.996375
13.066667	1	25.893375
13.083333	1	26.811750
13.100000	1	27.750875
13.116667	1	28.709750
13.133333	1	29.687875
13.150000	1	30.684500
13.166667	1	31.700625
13.183333	1	32.735875
13.200000	1	33.789250
13.216667	1	34.861500
13.233333	1	35.953500
13.250000	1	37.065000
13.266667	1	38.198125
13.283333	1	39.353125
13.300000	1	40.530250
13.316667	1	41.731500
13.333333	1	42.955875
13.350000	1	44.204625
13.366667	1	45.477625
13.383333	1	46.775125
13.400000	1	48.096375
13.416667	1	49.443375
13.433333	1	50.816875
13.450000	1	52.218625
13.466667	1	53.650875
13.483333	1	55.114250
13.500000	1	56.607500
13.516667	1	58.132625
13.533333	1	59.688875
13.550000	1	61.278000
13.566667	1	62.899250
13.583333	1	64.554250
13.600000	1	66.241500
13.616667	1	67.963375
13.633333	1	69.722500
13.650000	1	71.519250
13.666667	1	73.357250
13.683333	1	75.236250
13.700000	1	77.158500
13.716667	1	79.121750
13.733333	1	81.119625
13.750000	1	83.100125
13.766667	1	84.862625
13.783333	1	85.926125
13.800000	1	85.538875
13.816667	1	82.921250
13.833333	1	77.650250
13.850000	1	69.917750
13.866667	1	60.508625
13.883333	1	50.514000
13.900000	1	40.957375
13.916667	1	32.531375
13.933333	1	25.530125
13.950000	1	19.937250
13.966667	1	15.578625
13.983333	1	12.234500
14.000000	1	9.701125
14.016667	1	7.803250
14.033333	1	6.396875
14.050000	1	5.364125
14.066667	1	4.608875
14.083333	1	4.056125
14.100000	1	3.648750
14.116667	1	3.344375
14.133333	1	3.112500
14.150000	1	2.933000
14.166667	1	2.790875
14.183333	1	2.675625
14.200000	1	2.579875
14.216667	1	2.499875
14.233333	1	2.430500
14.250000	1	2.370000
14.266667	1	2.316625
14.283333	1	2.268500
14.300000	1	2.226625
14.316667	1	2.189375
14.333333	1	2.157375
14.350000	1	2.129625
14.366667	1	2.107875
14.383333	1	2.091250
14.400000	1	2.082000
14.416667	1	2.081250
14.433333	1	2.091500
14.450000	1	2.115250
14.466667	1	2.158750
14.483333	1	2.229625
14.500000	1	2.341500
14.516667	1	2.513250
14.533333	1	2.770250
14.550000	1	3.148875
14.566667	1	3.698750
14.583333	1	4.479500
14.600000	1	5.565375
14.616667	1	7.044625
14.633333	1	9.010625
14.650000	1	11.559375
14.666667	1	14.771875
14.683333	1	18.706250
14.700000	1	23.378750
14.716667	1	28.750875
14.733333	1	34.726125
14.750000	1	41.148500
14.766667	1	47.788250
14.783333	1	54.361125
14.800000	1	60.559875
14.816667	1	66.071500
14.833333	1	70.603125
14.850000	1	73.910500
14.866667	1	75.823000
14.883333	1	76.261000
14.900000	1	75.245750
14.916667	1	72.888125
14.933333	1	69.378625
14.950000	1	64.959125
14.966667	1	59.899250
14.983333	1	54.469875
15.000000	1	48.909500
15.016667	1	43.425000
15.033333	1	38.176375
15.050000	1	33.279125
15.066667	1	28.808375
15.083333	1	24.800625
15.100000	1	21.264125
15.116667	1	18.183375
15.133333	1	15.527500
15.150000	1	13.256750
15.166667	1	11.328875
15.183333	1	9.700125
15.200000	1	8.330875
15.216667	1	7.182375
15.233333	1	6.222375
15.250000	1	5.422375
15.266667	1	4.759000
15.283333	1	4.211750
15.300000	1	3.762500
15.316667	1	3.396875
15.333333	1	3.101875
15.350000	1	2.867125
15.366667	1	2.682875
15.383333	1	2.540500
15.400000	1	2.432750
15.416667	1	2.351500
15.433333	1	2.289875
15.450000	1	2.243750
15.466667	1	2.206500
15.483333	1	2.173500
15.500000	1	2.143000
15.516667	1	2.111000
15.533333	1	2.076750
15.550000	1	2.038875
15.566667	1	1.998750
15.583333	1	1.956375
15.600000	1	1.913625
15.616667	1	1.870750
15.633333	1	1.829625
15.650000	1	1.791250
15.666667	1	1.755500
15.683333	1	1.721625
15.700000	1	1.690875
15.716667	1	1.661750
15.733333	1	1.634500
15.750000	1	1.605750
15.766667	1	1.578625
15.783333	1	1.550250
15.800000	1	1.521000
15.816667	1	1.490625
15.833333	1	1.461500
15.850000	1	1.432500
15.866667	1	1.403875
15.883333	1	1.378375
15.900000	1	1.355500
15.916667	1	1.335250
15.933333	1	1.318625
15.950000	1	1.306125
15.966667	1	1.296875
15.983333	1	1.290875
16.000000	1	1.288000
16.016667	1	1.286250
16.033333	1	1.286000
16.050000	1	1.286500
16.066667	1	1.286500
16.083333	1	1.285375
16.100000	1	1.284375
16.116667	1	1.280750
16.133333	1	1.275625
16.150000	1	1.268750
16.166667	1	1.260250
16.183333	1	1.250125
16.200000	1	1.238750
16.216667	1	1.225875
16.233333	1	1.211625
16.250000	1	1.196500
16.266667	1	1.180500
16.283333	1	1.164875
16.300000	1	1.148875
16.316667	1	1.133250
16.333333	1	1.118500
16.350000	1	1.104500
16.366667	1	1.091250
16.383333	1	1.080875
16.400000	1	1.072750
16.416667	1	1.066875
16.433333	1	1.063125
16.450000	1	1.063000
16.466667	1	1.065750
16.483333	1	1.070125
16.500000	1	1.075875
16.516667	1	1.082625
16.533333	1	1.090125
16.550000	1	1.097500
16.566667	1	1.104250
16.583333	1	1.109625
16.600000	1	1.113625
16.616667	1	1.115625
16.633333	1	1.116000
16.650000	1	1.114250
16.666667	1	1.111375
16.683333	1	1.108250
16.700000	1	1.104875
16.716667	1	1.102500
16.733333	1	1.101000
16.750000	1	1.101625
16.766667	1	1.102875
16.783333	1	1.106375
16.800000	1	1.111125
16.816667	1	1.116750
16.833333	1	1.123625
16.850000	1	1.130375
16.866667	1	1.136125
16.883333	1	1.140625
16.900000	1	1.144375
16.916667	1	1.147000
16.933333	1	1.147250
16.950000	1	1.145500
16.966667	1	1.142875
16.983333	1	1.138000
17.000000	1	1.132125
17.016667	1	1.124875
17.033333	1	1.117875
17.050000	1	1.110625
17.066667	1	1.103250
17.083333	1	1.096500
17.100000	1	1.090500
17.116667	1	1.084750
17.133333	1	1.081000
17.150000	1	1.078750
17.166667	1	1.077375
17.183333	1	1.075500
17.200000	1	1.075750
17.216667	1	1.076375
17.233333	1	1.077625
17.250000	1	1.080250
17.266667	1	1.082875
17.283333	1	1.086000
17.300000	1	1.089500
17.316667	1	1.093875
17.333333	1	1.098125
17.350000	1	1.102875
17.366667	1	1.107625
17.383333	1	1.112000
17.400000	1	1.116125
17.416667	1	1.119875
17.433333	1	1.122250
17.450000	1	1.123250
17.466667	1	1.122500
17.483333	1	1.120875
17.500000	1	1.116875
17.516667	1	1.112125
17.533333	1	1.105375
17.550000	1	1.096750
17.566667	1	1.086875
17.583333	1	1.076125
17.600000	1	1.064750
17.616667	1	1.052375
17.633333	1	1.039250
17.650000	1	1.026125
17.666667	1	1.012625
17.683333	1	0.998375
17.700000	1	0.985000
17.716667	1	0.971125
17.733333	1	0.957625
17.750000	1	0.944750
17.766667	1	0.932250
17.783333	1	0.920625
17.800000	1	0.909250
17.816667	1	0.898000
17.833333	1	0.888250
17.850000	1	0.878500
17.866667	1	0.869750
17.883333	1	0.861750
17.900000	1	0.853125
17.916667	1	0.844625
17.933333	1	0.835875
17.950000	1	0.827500
17.966667	1	0.818000
17.983333	1	0.808625
18.000000	1	0.798750
18.016667	1	0.788375
18.033333	1	0.778500
18.050000	1	0.768125
18.066667	1	0.758000
18.083333	1	0.747750
18.100000	1	0.737250
18.116667	1	0.727750
18.133333	1	0.718500
18.150000	1	0.710875
18.166667	1	0.703750
18.183333	1	0.698375
18.200000	1	0.693625
18.216667	1	0.689750
18.233333	1	0.686250
18.250000	1	0.683375
18.266667	1	0.681500
18.283333	1	0.679875
18.300000	1	0.679375
18.316667	1	0.679000
18.333333	1	0.679375
18.350000	1	0.680375
18.366667	1	0.682000
18.383333	1	0.685375
18.400000	1	0.690500
18.416667	1	0.697000
18.433333	1	0.705250
18.450000	1	0.715250
18.466667	1	0.727250
18.483333	1	0.741750
18.500000	1	0.757125
18.516667	1	0.775500
18.533333	1	0.796000
18.550000	1	0.817750
18.566667	1	0.842125
18.583333	1	0.868125
18.600000	1	0.896625
18.616667	1	0.926125
18.633333	1	0.956875
18.650000	1	0.989250
18.666667	1	1.022625
18.683333	1	1.056875
18.700000	1	1.092250
18.716667	1	1.127125
18.733333	1	1.163000
18.750000	1	1.199000
18.766667	1	1.234375
18.783333	1	1.268375
18.800000	1	1.301125
18.816667	1	1.331500
18.833333	1	1.358375
18.850000	1	1.381125
18.866667	1	1.399125
18.883333	1	1.412250
18.900000	1	1.418375
18.916667	1	1.417250
18.933333	1	1.409625
18.950000	1	1.394125
18.966667	1	1.371750
18.983333	1	1.343125
19.000000	1	1.309000
19.016667	1	1.268250
19.033333	1	1.223125
19.050000	1	1.174250
19.066667	1	1.123750
19.083333	1	1.072750
19.100000	1	1.023000
19.116667	1	0.975125
19.133333	1	0.931750
19.150000	1	0.893875
19.166667	1	0.863500
19.183333	1	0.841250
19.200000	1	0.828750
19.216667	1	0.828250
19.233333	1	0.840875
19.250000	1	0.867250
19.266667	1	0.908750
19.283333	1	0.966000
19.300000	1	1.039125
19.316667	1	1.127750
19.333333	1	1.231750
19.350000	1	1.348500
19.366667	1	1.476625
19.383333	1	1.611625
19.400000	1	1.750625
19.416667	1	1.888625
19.433333	1	2.021375
19.450000	1	2.144625
19.466667	1	2.254375
19.483333	1	2.345750
19.500000	1	2.416875
19.516667	1	2.465000
19.533333	1	2.488500
19.550000	1	2.488500
19.566667	1	2.466375
19.583333	1	2.422250
19.600000	1	2.359125
19.616667	1	2.279875
19.633333	1	2.188250
19.650000	1	2.087375
19.666667	1	1.980500
19.683333	1	1.870000
19.700000	1	1.758375
19.716667	1	1.649375
19.733333	1	1.543250
19.750000	1	1.441500
19.766667	1	1.345125
19.783333	1	1.254250
19.800000	1	1.169125
19.816667	1	1.089875
19.833333	1	1.017000
19.850000	1	0.950875
19.866667	1	0.890250
19.883333	1	0.835000
19.900000	1	0.786125
19.916667	1	0.741375
19.933333	1	0.702000
19.950000	1	0.668125
19.966667	1	0.637500
19.983333	1	0.611875
20.000000	1	0.590125
20.016667	1	0.573125
20.033333	1	0.559500
20.050000	1	0.549875
20.066667	1	0.544125
20.083333	1	0.542500
20.100000	1	0.544000
20.116667	1	0.549250
20.133333	1	0.557125
20.150000	1	0.567875
20.166667	1	0.580125
20.183333	1	0.594000
20.200000	1	0.608000
20.216667	1	0.621750
20.233333	1	0.633750
20.250000	1	0.644875
20.266667	1	0.653375
20.283333	1	0.658750
20.300000	1	0.660500
20.316667	1	0.658250
20.333333	1	0.652875
20.350000	1	0.643875
20.366667	1	0.631750
20.383333	1	0.615750
20.400000	1	0.598375
20.416667	1	0.579500
20.433333	1	0.559750
20.450000	1	0.539750
20.466667	1	0.520125
20.483333	1	0.502875
20.500000	1	0.487750
20.516667	1	0.476000
20.533333	1	0.468125
20.550000	1	0.466375
20.566667	1	0.469750
20.583333	1	0.480125
20.600000	1	0.498125
20.616667	1	0.523875
20.633333	1	0.558875
20.650000	1	0.603125
20.666667	1	0.656000
20.683333	1	0.718500
20.700000	1	0.789250
20.716667	1	0.867000
20.733333	1	0.950250
20.750000	1	1.037500
20.766667	1	1.126125
20.783333	1	1.213625
20.800000	1	1.297875
20.816667	1	1.375000
20.833333	1	1.442125
20.850000	1	1.497875
20.866667	1	1.540125
20.883333	1	1.567125
20.900000	1	1.578375
20.916667	1	1.574250
20.933333	1	1.555125
20.950000	1	1.521750
20.966667	1	1.476375
20.983333	1	1.421000
21.000000	1	1.357750
21.016667	1	1.288500
21.033333	1	1.215875
21.050000	1	1.142250
21.066667	1	1.069375
21.083333	1	0.997875
21.100000	1	0.930000
21.116667	1	0.865000
21.133333	1	0.806000
21.150000	1	0.751375
21.166667	1	0.703125
21.183333	1	0.659375
21.200000	1	0.621125
21.216667	1	0.588000
21.233333	1	0.559000
21.250000	1	0.533750
21.266667	1	0.512000
21.283333	1	0.494375
21.300000	1	0.479375
21.316667	1	0.466500
21.333333	1	0.456000
21.350000	1	0.447250
21.366667	1	0.440125
21.383333	1	0.435500
21.400000	1	0.430625
21.416667	1	0.427500
21.433333	1	0.424375
21.450000	1	0.421875
21.466667	1	0.419000
21.483333	1	0.417250
21.500000	1	0.415375
21.516667	1	0.414375
21.533333	1	0.413375
21.550000	1	0.413000
21.566667	1	0.413000
21.583333	1	0.414000
21.600000	1	0.415250
21.616667	1	0.417125
21.633333	1	0.419375
21.650000	1	0.422375
21.666667	1	0.426750
21.683333	1	0.431375
21.700000	1	0.437125
21.716667	1	0.443250
21.733333	1	0.450375
21.750000	1	0.458125
21.766667	1	0.466625
21.783333	1	0.475750
21.800000	1	0.485500
21.816667	1	0.494375
21.833333	1	0.503000
21.850000	1	0.511625
21.866667	1	0.519625
21.883333	1	0.527250
21.900000	1	0.534625
21.916667	1	0.541375
21.933333	1	0.546875
21.950000	1	0.551125
21.966667	1	0.554500
21.983333	1	0.556375
22.000000	1	0.558125
22.016667	1	0.558125
22.033333	1	0.557375
22.050000	1	0.556250
22.066667	1	0.553875
22.083333	1	0.551000
22.100000	1	0.547250
22.116667	1	0.543750
22.133333	1	0.538625
22.150000	1	0.532750
22.166667	1	0.525875
22.183333	1	0.518125
22.200000	1	0.510250
22.216667	1	0.501500
22.233333	1	0.491625
22.250000	1	0.480125
22.266667	1	0.469250
22.283333	1	0.457500
22.300000	1	0.445375
22.316667	1	0.433250
22.333333	1	0.420875
22.350000	1	0.408625
22.366667	1	0.396625
22.383333	1	0.384500
22.400000	1	0.373125
22.416667	1	0.361750
22.433333	1	0.351750
22.450000	1	0.341625
22.466667	1	0.332375
22.483333	1	0.324500
22.500000	1	0.317750
22.516667	1	0.311375
22.533333	1	0.304750
22.550000	1	0.299375
22.566667	1	0.294375
22.583333	1	0.290375
22.600000	1	0.285625
22.616667	1	0.281375
22.633333	1	0.276625
22.650000	1	0.273250
22.666667	1	0.269250
22.683333	1	0.265125
22.700000	1	0.260250
22.716667	1	0.256875
22.733333	1	0.254000
22.750000	1	0.250875
22.766667	1	0.247625
22.783333	1	0.244250
22.800000	1	0.241125
22.816667	1	0.237500
22.833333	1	0.234375
22.850000	1	0.231500
22.866667	1	0.228625
22.883333	1	0.226000
22.900000	1	0.223500
22.916667	1	0.222000
22.933333	1	0.220500
22.950000	1	0.219875
22.966667	1	0.219250
22.983333	1	0.219500
23.000000	1	0.220250
23.016667	1	0.220875
23.033333	1	0.222125
23.050000	1	0.223625
23.066667	1	0.225125
23.083333	1	0.227625
23.100000	1	0.230500
23.116667	1	0.233625
23.133333	1	0.235750
23.150000	1	0.238750
23.166667	1	0.241250
23.183333	1	0.244250
23.200000	1	0.246375
23.216667	1	0.249500
23.233333	1	0.252625
23.250000	1	0.256500
23.266667	1	0.261125
23.283333	1	0.265875
23.300000	1	0.272500
23.316667	1	0.281000
23.333333	1	0.291625
23.350000	1	0.305500
23.366667	1	0.322500
23.383333	1	0.345000
23.400000	1	0.373875
23.416667	1	0.410500
23.433333	1	0.456750
23.450000	1	0.514750
23.466667	1	0.586125
23.483333	1	0.673250
23.500000	1	0.777750
23.516667	1	0.902250
23.533333	1	1.047875
23.550000	1	1.216875
23.566667	1	1.408875
23.583333	1	1.625875
23.600000	1	1.866125
23.616667	1	2.128375
23.633333	1	2.409250
23.650000	1	2.705500
23.666667	1	3.013250
23.683333	1	3.327000
23.700000	1	3.639625
23.716667	1	3.946000
23.733333	1	4.238250
23.750000	1	4.510375
23.766667	1	4.754000
23.783333	1	4.963375
23.800000	1	5.134375
23.816667	1	5.261750
23.833333	1	5.344250
23.850000	1	5.380625
23.866667	1	5.370500
23.883333	1	5.316250
23.900000	1	5.219500
23.916667	1	5.084500
23.933333	1	4.917125
23.950000	1	4.721625
23.966667	1	4.503750
23.983333	1	4.269000
24.000000	1	4.023375
24.016667	1	3.771625
24.033333	1	3.518250
24.050000	1	3.268000
24.066667	1	3.024250
24.083333	1	2.788750
24.100000	1	2.564125
24.116667	1	2.351375
24.133333	1	2.151250
24.150000	1	1.964500
24.166667	1	1.792500
24.183333	1	1.633875
24.200000	1	1.488125
24.216667	1	1.355750
24.233333	1	1.234875
24.250000	1	1.126375
24.266667	1	1.028000
24.283333	1	0.939500
24.300000	1	0.860250
24.316667	1	0.790125
24.333333	1	0.727875
24.350000	1	0.672625
24.366667	1	0.624000
24.383333	1	0.581750
24.400000	1	0.544875
24.416667	1	0.513375
24.433333	1	0.486375
24.450000	1	0.463250
24.466667	1	0.443500
24.483333	1	0.426625
24.500000	1	0.412750
24.516667	1	0.400875
24.533333	1	0.390500
24.550000	1	0.381500
24.566667	1	0.374000
24.583333	1	0.367250
24.600000	1	0.361125
24.616667	1	0.355500
24.633333	1	0.349375
24.650000	1	0.343250
24.666667	1	0.338125
24.683333	1	0.332750
24.700000	1	0.327125
24.716667	1	0.320875
24.733333	1	0.314875
24.750000	1	0.308750
24.766667	1	0.302625
24.783333	1	0.296250
24.800000	1	0.289875
24.816667	1	0.284000
24.833333	1	0.278000
24.850000	1	0.271875
24.866667	1	0.266000
24.883333	1	0.261000
24.900000	1	0.255625
24.916667	1	0.250375
24.933333	1	0.245125
24.950000	1	0.241000
24.966667	1	0.236625
24.983333	1	0.232625
25.000000	1	0.228375
25.016667	1	0.224625
25.033333	1	0.220625
25.050000	1	0.216250
25.066667	1	0.212000
25.083333	1	0.209125
25.100000	1	0.206125
25.116667	1	0.202625
25.133333	1	0.198750
25.150000	1	0.194875
25.166667	1	0.191125
25.183333	1	0.187500
25.200000	1	0.183875
25.216667	1	0.180750
25.233333	1	0.177625
25.250000	1	0.173750
25.266667	1	0.170500
25.283333	1	0.167750
25.300000	1	0.164875
25.316667	1	0.161500
25.333333	1	0.159375
25.350000	1	0.157000
25.366667	1	0.156000
25.383333	1	0.154750
25.400000	1	0.154625
25.416667	1	0.153250
25.433333	1	0.152625
25.450000	1	0.152125
25.466667	1	0.152125
25.483333	1	0.152750
25.500000	1	0.154125
25.516667	1	0.154875
25.533333	1	0.156250
25.550000	1	0.157500
25.566667	1	0.158375
25.583333	1	0.159875
25.600000	1	0.161125
25.616667	1	0.162250
25.633333	1	0.162500
25.650000	1	0.163375
25.666667	1	0.164875
25.683333	1	0.165875
25.700000	1	0.166375
25.716667	1	0.166625
25.733333	1	0.166125
25.750000	1	0.166250
25.766667	1	0.165750
25.783333	1	0.165375
25.800000	1	0.164750
25.816667	1	0.164375
25.833333	1	0.163500
25.850000	1	0.163125
25.866667	1	0.163375
25.883333	1	0.163625
25.900000	1	0.164625
25.916667	1	0.165500
25.933333	1	0.166750
25.950000	1	0.169000
25.966667	1	0.171000
25.983333	1	0.173875
26.000000	1	0.176875
26.016667	1	0.181125
26.033333	1	0.185375
26.050000	1	0.189375
26.066667	1	0.193875
26.083333	1	0.198875
26.100000	1	0.204250
26.116667	1	0.210000
26.133333	1	0.215500
26.150000	1	0.221250
26.166667	1	0.226625
26.183333	1	0.231500
26.200000	1	0.236875
26.216667	1	0.241125
26.233333	1	0.244750
26.250000	1	0.247875
26.266667	1	0.250375
26.283333	1	0.252250
26.300000	1	0.253625
26.316667	1	0.254000
26.333333	1	0.253250
26.350000	1	0.252125
26.366667	1	0.250375
26.383333	1	0.247625
26.400000	1	0.244000
26.416667	1	0.239375
26.433333	1	0.234750
26.450000	1	0.229750
26.466667	1	0.223875
26.483333	1	0.217500
26.500000	1	0.211125
26.516667	1	0.203750
26.533333	1	0.196500
26.550000	1	0.189375
26.566667	1	0.181375
26.583333	1	0.173125
26.600000	1	0.165125
26.616667	1	0.157500
26.633333	1	0.149625
26.650000	1	0.142125
26.666667	1	0.135250
26.683333	1	0.128250
26.700000	1	0.121500
26.716667	1	0.114750
26.733333	1	0.108750
26.750000	1	0.102375
26.766667	1	0.096375
26.783333	1	0.091250
26.800000	1	0.086500
26.816667	1	0.081625
26.833333	1	0.077750
26.850000	1	0.074500
26.866667	1	0.070625
26.883333	1	0.067500
26.900000	1	0.064875
26.916667	1	0.062750
26.933333	1	0.060875
26.950000	1	0.059875
26.966667	1	0.060000
26.983333	1	0.058625
27.000000	1	0.059000
27.016667	1	0.059625
27.033333	1	0.060500
27.050000	1	0.061625
27.066667	1	0.064000
27.083333	1	0.067250
27.100000	1	0.070375
27.116667	1	0.075250
27.133333	1	0.080500
27.150000	1	0.087000
27.166667	1	0.095375
27.183333	1	0.105500
27.200000	1	0.117000
27.216667	1	0.130750
27.233333	1	0.147750
27.250000	1	0.168125
27.266667	1	0.192000
27.283333	1	0.220250
27.300000	1	0.253750
27.316667	1	0.293000
27.333333	1	0.338875
27.350000	1	0.392000
27.366667	1	0.453875
27.383333	1	0.525750
27.400000	1	0.607500
27.416667	1	0.700375
27.433333	1	0.805875
27.450000	1	0.923375
27.466667	1	1.055375
27.483333	1	1.200750
27.500000	1	1.359375
27.516667	1	1.531625
27.533333	1	1.717250
27.550000	1	1.913250
27.566667	1	2.119750
27.583333	1	2.334250
27.600000	1	2.555000
27.616667	1	2.778750
27.633333	1	3.003375
27.650000	1	3.225625
27.666667	1	3.441625
27.683333	1	3.648000
27.700000	1	3.842125
27.716667	1	4.019125
27.733333	1	4.175750
27.750000	1	4.309250
27.766667	1	4.416375
27.783333	1	4.496250
27.800000	1	4.546500
27.816667	1	4.566625
27.833333	1	4.556125
27.850000	1	4.515500
27.866667	1	4.445125
27.883333	1	4.347500
27.900000	1	4.225000
27.916667	1	4.079750
27.933333	1	3.915000
27.950000	1	3.733625
27.966667	1	3.539625
27.983333	1	3.337125
28.000000	1	3.129875
28.016667	1	2.919750
28.033333	1	2.710250
28.050000	1	2.502875
28.066667	1	2.301250
28.083333	1	2.106750
28.100000	1	1.921000
28.116667	1	1.745625
28.133333	1	1.580125
28.150000	1	1.426625
28.166667	1	1.283750
28.183333	1	1.153000
28.200000	1	1.033750
28.216667	1	0.925000
28.233333	1	0.827250
28.250000	1	0.738500
28.266667	1	0.659250
28.283333	1	0.589250
28.300000	1	0.527375
28.316667	1	0.473500
28.333333	1	0.427250
28.350000	1	0.387250
28.366667	1	0.353250
28.383333	1	0.325750
28.400000	1	0.303875
28.416667	1	0.286750
28.433333	1	0.274000
28.450000	1	0.265625
28.466667	1	0.261125
28.483333	1	0.259375
28.500000	1	0.261125
28.516667	1	0.265750
28.533333	1	0.272250
28.550000	1	0.281125
28.566667	1	0.291250
28.583333	1	0.303500
28.600000	1	0.316125
28.616667	1	0.329875
28.633333	1	0.345000
28.650000	1	0.360000
28.666667	1	0.376000
28.683333	1	0.392250
28.700000	1	0.407500
28.716667	1	0.421375
28.733333	1	0.435000
28.750000	1	0.448000
28.766667	1	0.460625
28.783333	1	0.472625
28.800000	1	0.483125
28.816667	1	0.492375
28.833333	1	0.500500
28.850000	1	0.507125
28.866667	1	0.512375
28.883333	1	0.516250
28.900000	1	0.519250
28.916667	1	0.520000
28.933333	1	0.519625
28.950000	1	0.517625
28.966667	1	0.514625
28.983333	1	0.509875
29.000000	1	0.503500
29.016667	1	0.495375
29.033333	1	0.485750
29.050000	1	0.475000
29.066667	1	0.463375
29.083333	1	0.450750
29.100000	1	0.437250
29.116667	1	0.422625
29.133333	1	0.407375
29.150000	1	0.391500
29.166667	1	0.375000
29.183333	1	0.358125
29.200000	1	0.340625
29.216667	1	0.323375
29.233333	1	0.305000
29.250000	1	0.287125
29.266667	1	0.269125
29.283333	1	0.251875
29.300000	1	0.234750
29.316667	1	0.217375
29.333333	1	0.200250
29.350000	1	0.183750
29.366667	1	0.168375
29.383333	1	0.153750
29.400000	1	0.139000
29.416667	1	0.124875
29.433333	1	0.111125
29.450000	1	0.098875
29.466667	1	0.086250
29.483333	1	0.074500
29.500000	1	0.063125
29.516667	1	0.052500
29.533333	1	0.043125
29.550000	1	0.034250
29.566667	1	0.026625
29.583333	1	0.019125
29.600000	1	0.012000
29.616667	1	0.005625
29.633333	1	-0.000250
29.650000	1	-0.005875
29.666667	1	-0.010500
29.683333	1	-0.014875
29.700000	1	-0.017750
29.716667	1	-0.020750
29.733333	1	-0.022750
29.750000	1	-0.024875
29.766667	1	-0.026125
29.783333	1	-0.027125
29.800000	1	-0.028000
29.816667	1	-0.028500
29.833333	1	-0.027625
29.850000	1	-0.027000
29.866667	1	-0.026875
29.883333	1	-0.026625
29.900000	1	-0.025375
29.916667	1	-0.024750
29.933333	1	-0.022875
29.950000	1	-0.022125
29.966667	1	-0.020500
29.983333	1	-0.018875
30.000000	1	-0.017875
30.016667	1	-0.016375
30.033333	1	-0.014875
30.050000	1	-0.013250
30.066667	1	-0.011500
30.083333	1	-0.009625
30.100000	1	-0.008375
30.116667	1	-0.007250
30.133333	1	-0.006000
30.150000	1	-0.004750
30.166667	1	-0.003875
30.183333	1	-0.002250
30.200000	1	-0.000500
30.216667	1	0.001125
30.233333	1	0.002000
30.250000	1	0.003625
30.266667	1	0.004875
30.283333	1	0.006875
30.300000	1	0.007750
30.316667	1	0.009125
30.333333	1	0.010125
30.350000	1	0.011250
30.366667	1	0.012625
30.383333	1	0.014125
30.400000	1	0.016875
30.416667	1	0.018875
30.433333	1	0.020375
30.450000	1	0.023000
30.466667	1	0.024750
30.483333	1	0.026750
30.500000	1	0.028875
30.516667	1	0.031750
30.533333	1	0.034375
30.550000	1	0.037750
30.566667	1	0.041250
30.583333	1	0.045375
30.600000	1	0.049625
30.616667	1	0.053875
30.633333	1	0.058000
30.650000	1	0.063875
30.666667	1	0.069750
30.683333	1	0.075250
30.700000	1	0.082000
30.716667	1	0.089375
30.733333	1	0.096625
30.750000	1	0.105000
30.766667	1	0.114250
30.783333	1	0.124125
30.800000	1	0.135375
30.816667	1	0.147375
30.833333	1	0.160625
30.850000	1	0.174750
30.866667	1	0.190500
30.883333	1	0.208000
30.900000	1	0.228125
30.916667	1	0.250875
30.933333	1	0.276875
30.950000	1	0.306250
30.966667	1	0.340625
30.983333	1	0.380500
31.000000	1	0.426375
31.016667	1	0.479125
31.033333	1	0.540500
31.050000	1	0.611625
31.066667	1	0.692375
31.083333	1	0.785875
31.100000	1	0.892625
31.116667	1	1.012875
31.133333	1	1.148500
31.150000	1	1.300875
31.166667	1	1.470750
31.183333	1	1.659500
31.200000	1	1.867875
31.216667	1	2.094875
31.233333	1	2.341875
31.250000	1	2.608125
31.266667	1	2.892000
31.283333	1	3.192875
31.300000	1	3.508375
31.316667	1	3.835375
31.333333	1	4.171750
31.350000	1	4.514625
31.366667	1	4.860500
31.383333	1	5.205000
31.400000	1	5.545125
31.416667	1	5.875875
31.433333	1	6.193125
31.450000	1	6.492500
31.466667	1	6.768375
31.483333	1	7.018375
31.500000	1	7.238500
31.516667	1	7.425375
31.533333	1	7.577500
31.550000	1	7.692250
31.566667	1	7.768875
31.583333	1	7.807500
31.600000	1	7.807625
31.616667	1	7.769625
31.633333	1	7.694875
31.650000	1	7.585125
31.666667	1	7.442750
31.683333	1	7.270375
31.700000	1	7.071125
31.716667	1	6.848750
31.733333	1	6.606625
31.750000	1	6.348375
31.766667	1	6.076375
31.783333	1	5.794500
31.800000	1	5.505625
31.816667	1	5.212625
31.833333	1	4.918250
31.850000	1	4.625375
31.866667	1	4.337000
31.883333	1	4.055375
31.900000	1	3.781125
31.916667	1	3.516500
31.933333	1	3.261750
31.950000	1	3.019000
31.966667	1	2.788750
31.983333	1	2.570000
32.000000	1	2.363125
32.016667	1	2.168375
32.033333	1	1.985750
32.050000	1	1.815625
32.066667	1	1.657250
32.083333	1	1.509250
32.100000	1	1.372750
32.116667	1	1.246500
32.133333	1	1.130625
32.150000	1	1.023250
32.166667	1	0.924500
32.183333	1	0.834125
32.200000	1	0.751500
32.216667	1	0.675250
32.233333	1	0.606250
32.250000	1	0.543375
32.266667	1	0.486000
32.283333	1	0.434000
32.300000	1	0.386875
32.316667	1	0.342500
32.333333	1	0.303875
32.350000	1	0.268875
32.366667	1	0.237750
32.383333	1	0.209875
32.400000	1	0.185000
32.416667	1	0.162375
32.433333	1	0.141625
32.450000	1	0.123625
32.466667	1	0.107500
32.483333	1	0.092625
32.500000	1	0.078125
32.516667	1	0.065875
32.533333	1	0.055125
32.550000	1	0.045000
32.566667	1	0.036875
32.583333	1	0.028625
32.600000	1	0.020875
32.616667	1	0.014375
32.633333	1	0.008500
32.650000	1	0.003000
32.666667	1	-0.002125
32.683333	1	-0.008000
32.700000	1	-0.012250
32.716667	1	-0.016625
32.733333	1	-0.020125
32.750000	1	-0.023875
32.766667	1	-0.027625
32.783333	1	-0.031125
32.800000	1	-0.034250
32.816667	1	-0.037500
32.833333	1	-0.041000
32.850000	1	-0.043250
32.866667	1	-0.045625
32.883333	1	-0.047875
32.900000	1	-0.049125
32.916667	1	-0.050875
32.933333	1	-0.052000
32.950000	1	-0.052625
32.966667	1	-0.053250
32.983333	1	-0.053875
33.000000	1	-0.054000
33.016667	1	-0.053750
33.033333	1	-0.053625
33.050000	1	-0.052625
33.066667	1	-0.051125
33.083333	1	-0.050125
33.100000	1	-0.048375
33.116667	1	-0.045875
33.133333	1	-0.044125
33.150000	1	-0.041375
33.166667	1	-0.038375
33.183333	1	-0.034875
33.200000	1	-0.031125
33.216667	1	-0.027625
33.233333	1	-0.024000
33.250000	1	-0.019875
33.266667	1	-0.016125
33.283333	1	-0.012375
33.300000	1	-0.008000
33.316667	1	-0.003750
33.333333	1	0.000250
33.350000	1	0.004625
33.366667	1	0.009125
33.383333	1	0.013375
33.400000	1	0.018125
33.416667	1	0.021750
33.433333	1	0.025875
33.450000	1	0.029625
33.466667	1	0.033125
33.483333	1	0.036750
33.500000	1	0.040125
33.516667	1	0.043000
33.533333	1	0.045375
33.550000	1	0.047375
33.566667	1	0.050125
33.583333	1	0.052875
33.600000	1	0.055250
33.616667	1	0.056500
33.633333	1	0.058125
33.650000	1	0.060375
33.666667	1	0.061625
33.683333	1	0.062500
33.700000	1	0.063250
33.716667	1	0.064125
33.733333	1	0.064875
33.750000	1	0.065875
33.766667	1	0.067125
33.783333	1	0.068125
33.800000	1	0.068625
33.816667	1	0.068875
33.833333	1	0.068625
33.850000	1	0.069125
33.866667	1	0.069125
33.883333	1	0.069625
33.900000	1	0.070250
33.916667	1	0.070125
33.933333	1	0.070375
33.950000	1	0.070750
33.966667	1	0.071375
33.983333	1	0.070625
34.000000	1	0.070750
34.016667	1	0.070875
34.033333	1	0.070750
34.050000	1	0.070875
34.066667	1	0.070625
34.083333	1	0.070125
34.100000	1	0.068875
34.116667	1	0.068000
34.133333	1	0.067125
34.150000	1	0.067000
34.166667	1	0.065750
34.183333	1	0.064625
34.200000	1	0.062875
34.216667	1	0.061750
34.233333	1	0.060125
34.250000	1	0.058250
34.266667	1	0.056875
34.283333	1	0.055500
34.300000	1	0.054125
34.316667	1	0.052625
34.333333	1	0.051250
34.350000	1	0.050000
34.366667	1	0.048625
34.383333	1	0.046875
34.400000	1	0.045375
34.416667	1	0.043750
34.433333	1	0.042625
34.450000	1	0.040625
34.466667	1	0.039125
34.483333	1	0.038250
34.500000	1	0.037375
34.516667	1	0.036375
34.533333	1	0.036000
34.550000	1	0.035625
34.566667	1	0.035250
34.583333	1	0.035375
34.600000	1	0.035250
34.616667	1	0.035375
34.633333	1	0.036000
34.650000	1	0.036125
34.666667	1	0.036500
34.683333	1	0.036875
34.700000	1	0.037125
34.716667	1	0.038000
34.733333	1	0.038625
34.750000	1	0.039625
34.766667	1	0.041000
34.783333	1	0.042750
34.800000	1	0.044375
34.816667	1	0.044625
34.833333	1	0.046125
34.850000	1	0.047375
34.866667	1	0.049000
34.883333	1	0.050125
34.900000	1	0.051875
34.916667	1	0.052750
34.933333	1	0.053125
34.950000	1	0.053500
34.966667	1	0.054750
34.983333	1	0.054875
35.000000	1	0.055125
35.016667	1	0.055500
35.033333	1	0.055250
35.050000	1	0.054750
35.066667	1	0.054750
35.083333	1	0.053875
35.100000	1	0.052875
35.116667	1	0.052625
35.133333	1	0.050875
35.150000	1	0.050125
35.166667	1	0.048500
35.183333	1	0.046875
35.200000	1	0.046000
35.216667	1	0.044750
35.233333	1	0.043125
35.250000	1	0.041875
35.266667	1	0.040750
35.283333	1	0.039625
35.300000	1	0.038125
35.316667	1	0.036875
35.333333	1	0.035375
35.350000	1	0.034750
35.366667	1	0.034125
35.383333	1	0.034250
35.400000	1	0.034000
35.416667	1	0.033375
35.433333	1	0.033125
35.450000	1	0.032750
35.466667	1	0.033125
35.483333	1	0.033875
35.500000	1	0.035000
35.516667	1	0.035250
35.533333	1	0.036250
35.550000	1	0.037375
35.566667	1	0.038500
35.583333	1	0.039750
35.600000	1	0.040625
35.616667	1	0.042000
35.633333	1	0.043250
35.650000	1	0.044000
35.666667	1	0.044500
35.683333	1	0.044750
35.700000	1	0.046125
35.716667	1	0.046750
35.733333	1	0.047000
35.750000	1	0.046750
35.766667	1	0.046375
35.783333	1	0.046375
35.800000	1	0.045250
35.816667	1	0.043875
35.833333	1	0.042125
35.850000	1	0.040500
35.866667	1	0.038875
35.883333	1	0.036625
35.900000	1	0.034375
35.916667	1	0.031875
35.933333	1	0.029250
35.950000	1	0.026375
35.966667	1	0.022625
35.983333	1	0.019375
36.000000	1	0.015750
36.016667	1	0.012000
36.033333	1	0.008250
36.050000	1	0.004375
36.066667	1	0.000625
36.083333	1	-0.002625
36.100000	1	-0.006125
36.116667	1	-0.009250
36.133333	1	-0.012625
36.150000	1	-0.016000
36.166667	1	-0.019125
36.183333	1	-0.022125
36.200000	1	-0.024375
36.216667	1	-0.026875
36.233333	1	-0.029000
36.250000	1	-0.031500
36.266667	1	-0.033500
36.283333	1	-0.034125
36.300000	1	-0.034875
36.316667	1	-0.036000
36.333333	1	-0.036750
36.350000	1	-0.037250
36.366667	1	-0.037500
36.383333	1	-0.037500
36.400000	1	-0.037375
36.416667	1	-0.036750
36.433333	1	-0.036375
36.450000	1	-0.036500
36.466667	1	-0.036000
36.483333	1	-0.035250
36.500000	1	-0.034375
36.516667	1	-0.033125
36.533333	1	-0.032125
36.550000	1	-0.031375
36.566667	1	-0.030625
36.583333	1	-0.028750
36.600000	1	-0.027625
36.616667	1	-0.026875
36.633333	1	-0.025875
36.650000	1	-0.025250
36.666667	1	-0.024875
36.683333	1	-0.023875
36.700000	1	-0.023875
36.716667	1	-0.023625
36.733333	1	-0.023375
36.750000	1	-0.022875
36.766667	1	-0.022750
36.783333	1	-0.022625
36.800000	1	-0.023000
36.816667	1	-0.023375
36.833333	1	-0.023625
36.850000	1	-0.024625
36.866667	1	-0.024625
36.883333	1	-0.025500
36.900000	1	-0.026250
36.916667	1	-0.027250
36.933333	1	-0.028000
36.950000	1	-0.029250
36.966667	1	-0.030250
36.983333	1	-0.030500
37.000000	1	-0.031250
37.016667	1	-0.032000
37.033333	1	-0.033000
37.050000	1	-0.034125
37.066667	1	-0.034125
37.083333	1	-0.034125
37.100000	1	-0.034000
37.116667	1	-0.033625
37.133333	1	-0.033500
37.150000	1	-0.033125
37.166667	1	-0.032250
37.183333	1	-0.031250
37.200000	1	-0.029875
37.216667	1	-0.028500
37.233333	1	-0.027500
37.250000	1	-0.025750
37.266667	1	-0.023750
37.283333	1	-0.021625
37.300000	1	-0.019250
37.316667	1	-0.017125
37.333333	1	-0.014125
37.350000	1	-0.011625
37.366667	1	-0.008875
37.383333	1	-0.007000
37.400000	1	-0.004625
37.416667	1	-0.002250
37.433333	1	0.000000
37.450000	1	0.001625
37.466667	1	0.004125
37.483333	1	0.006125
37.500000	1	0.007875
37.516667	1	0.009250
37.533333	1	0.011000
37.550000	1	0.012375
37.566667	1	0.012625
37.583333	1	0.013250
37.600000	1	0.013250
37.616667	1	0.013250
37.633333	1	0.013625
37.650000	1	0.013625
37.666667	1	0.013000
37.683333	1	0.012375
37.700000	1	0.011125
37.716667	1	0.010750
37.733333	1	0.009875
37.750000	1	0.008125
37.766667	1	0.006250
37.783333	1	0.004125
37.800000	1	0.002000
37.816667	1	-0.000625
37.833333	1	-0.002875
37.850000	1	-0.005500
37.866667	1	-0.007250
37.883333	1	-0.009500
37.900000	1	-0.010750
37.916667	1	-0.012625
37.933333	1	-0.014500
37.950000	1	-0.016500
37.966667	1	-0.017375
37.983333	1	-0.018625
38.000000	1	-0.019375
38.016667	1	-0.020250
38.033333	1	-0.020500
38.050000	1	-0.021125
38.066667	1	-0.021500
38.083333	1	-0.021750
38.100000	1	-0.021250
38.116667	1	-0.020000
38.133333	1	-0.019500
38.150000	1	-0.018875
38.166667	1	-0.019000
38.183333	1	-0.018375
38.200000	1	-0.017750
38.216667	1	-0.016750
38.233333	1	-0.016000
38.250000	1	-0.014875
38.266667	1	-0.014875
38.283333	1	-0.013500
38.300000	1	-0.012375
38.316667	1	-0.011500
38.333333	1	-0.011750
38.350000	1	-0.010750
38.366667	1	-0.009625
38.383333	1	-0.009250
38.400000	1	-0.009250
38.416667	1	-0.009000
38.433333	1	-0.008625
38.450000	1	-0.009250
38.466667	1	-0.009000
38.483333	1	-0.009375
38.500000	1	-0.009125
38.516667	1	-0.009250
38.533333	1	-0.009750
38.550000	1	-0.011000
38.566667	1	-0.010750
38.583333	1	-0.010875
38.600000	1	-0.011125
38.616667	1	-0.011000
38.633333	1	-0.010875
38.650000	1	-0.010500
38.666667	1	-0.010625
38.683333	1	-0.010500
38.700000	1	-0.010750
38.716667	1	-0.010375
38.733333	1	-0.010000
38.750000	1	-0.009375
38.766667	1	-0.009500
38.783333	1	-0.008750
38.800000	1	-0.007250
38.816667	1	-0.006750
38.833333	1	-0.006375
38.850000	1	-0.005375
38.866667	1	-0.004625
38.883333	1	-0.003375
38.900000	1	-0.002375
38.916667	1	-0.001750
38.933333	1	-0.001250
38.950000	1	-0.000625
38.966667	1	-0.000875
38.983333	1	-0.000375
39.000000	1	-0.000500
39.016667	1	-0.000250
39.033333	1	-0.000250
39.050000	1	-0.000125
39.066667	1	-0.000750
39.083333	1	-0.001750
39.100000	1	-0.002500
39.116667	1	-0.003125
39.133333	1	-0.004375
39.150000	1	-0.006000
39.166667	1	-0.007125
39.183333	1	-0.009250
39.200000	1	-0.011875
39.216667	1	-0.014625
39.233333	1	-0.016500
39.250000	1	-0.018875
39.266667	1	-0.021500
39.283333	1	-0.024125
39.300000	1	-0.026375
39.316667	1	-0.029125
39.333333	1	-0.032250
39.350000	1	-0.035250
39.366667	1	-0.037875
39.383333	1	-0.041250
39.400000	1	-0.044375
39.416667	1	-0.048125
39.433333	1	-0.051875
39.450000	1	-0.054000
39.466667	1	-0.057250
39.483333	1	-0.060000
39.500000	1	-0.062500
39.516667	1	-0.065375
39.533333	1	-0.068000
39.550000	1	-0.069875
39.566667	1	-0.072250
39.583333	1	-0.074375
39.600000	1	-0.076000
39.616667	1	-0.077125
39.633333	1	-0.078625
39.650000	1	-0.080625
39.666667	1	-0.082125
39.683333	1	-0.082500
39.700000	1	-0.082750
39.716667	1	-0.083750
39.733333	1	-0.084500
39.750000	1	-0.084375
39.766667	1	-0.085250
39.783333	1	-0.084750
39.800000	1	-0.084625
39.816667	1	-0.084000
39.833333	1	-0.083625
39.850000	1	-0.083500
39.866667	1	-0.082625
39.883333	1	-0.082750
39.900000	1	-0.082125
39.916667	1	-0.081750
39.933333	1	-0.081250
39.950000	1	-0.080500
39.966667	1	-0.080625
39.983333	1	-0.079875
40.000000	1	-0.079000
