URL	chrom://bioreactor/micro_cm7/HPLC_Ultimate_3000/Users/markusar/20240708_MA_pHrange1.seq/872.smp/RI_1.channel/RI_1.chm
Channel	RI_1

Injection Information:
Data Vault	micro_cm7
Sequence	20240708_MA_pHrange1
Name	Pv1_5.7_2
Number	18
Position	BB6
Comment	
Processing Method	
Instrument Method	run_25B_method
Type	Unknown
Status	Finished
Inject Time	09.07.2024 03:11:00 +02:00
Volume (µl)	20.0000
Dilution Factor	1.0000
Weight	1.0000

Chromatogram Data Information:
Time Min. (min)	0.000000
Time Max. (min)	40.000000
Data Points	2401
Detector	RI
Generating Data System	Chromeleon 7.3.2.11814
Exporting Data System	Chromeleon 7.3.2.0
Operator	Instrument Controller
Signal Quantity	Refractive 
Signal Unit	µRIU
Signal Min.	-0.041250
Signal Max.	83.501000
Channel	RI_1
Driver Name	RID520Driver.dll
Channel Type	Evaluation
Min. Step (s)	1
Max. Step (s)	1
Average Step (s)	1

Signal Parameter Information:
Signal Info	

Chromatogram Data:
Time (min)	Step (s)	Value (µRIU)
0.000000	n.a.	-0.037250
0.016667	1	-0.038375
0.033333	1	-0.039500
0.050000	1	-0.039875
0.066667	1	-0.040500
0.083333	1	-0.041250
0.100000	1	-0.041125
0.116667	1	-0.041250
0.133333	1	-0.040875
0.150000	1	-0.040500
0.166667	1	-0.040375
0.183333	1	-0.040000
0.200000	1	-0.039750
0.216667	1	-0.039875
0.233333	1	-0.038750
0.250000	1	-0.037250
0.266667	1	-0.036375
0.283333	1	-0.035000
0.300000	1	-0.033375
0.316667	1	-0.032000
0.333333	1	-0.030125
0.350000	1	-0.028750
0.366667	1	-0.027625
0.383333	1	-0.027000
0.400000	1	-0.026375
0.416667	1	-0.024875
0.433333	1	-0.022500
0.450000	1	-0.019500
0.466667	1	-0.016375
0.483333	1	-0.013125
0.500000	1	-0.010125
0.516667	1	-0.008625
0.533333	1	-0.006875
0.550000	1	-0.005750
0.566667	1	-0.005750
0.583333	1	-0.005875
0.600000	1	-0.007250
0.616667	1	-0.008375
0.633333	1	-0.008125
0.650000	1	-0.007750
0.666667	1	-0.007500
0.683333	1	-0.006875
0.700000	1	-0.006500
0.716667	1	-0.005375
0.733333	1	-0.005000
0.750000	1	-0.004250
0.766667	1	-0.004250
0.783333	1	-0.003500
0.800000	1	-0.002500
0.816667	1	-0.002000
0.833333	1	-0.001750
0.850000	1	-0.001125
0.866667	1	-0.000750
0.883333	1	-0.000375
0.900000	1	0.000500
0.916667	1	0.000625
0.933333	1	0.001250
0.950000	1	0.001500
0.966667	1	0.001375
0.983333	1	0.001625
1.000000	1	0.001625
1.016667	1	0.001625
1.033333	1	0.002500
1.050000	1	0.002625
1.066667	1	0.002500
1.083333	1	0.002500
1.100000	1	0.003125
1.116667	1	0.003750
1.133333	1	0.004250
1.150000	1	0.004250
1.166667	1	0.004500
1.183333	1	0.005125
1.200000	1	0.005125
1.216667	1	0.005250
1.233333	1	0.004750
1.250000	1	0.004500
1.266667	1	0.004875
1.283333	1	0.005125
1.300000	1	0.005500
1.316667	1	0.006000
1.333333	1	0.005750
1.350000	1	0.005750
1.366667	1	0.006500
1.383333	1	0.007000
1.400000	1	0.007000
1.416667	1	0.007375
1.433333	1	0.008250
1.450000	1	0.009125
1.466667	1	0.009000
1.483333	1	0.008875
1.500000	1	0.009250
1.516667	1	0.009625
1.533333	1	0.009500
1.550000	1	0.010125
1.566667	1	0.010625
1.583333	1	0.010875
1.600000	1	0.011125
1.616667	1	0.011375
1.633333	1	0.012250
1.650000	1	0.012375
1.666667	1	0.012000
1.683333	1	0.011875
1.700000	1	0.011875
1.716667	1	0.012000
1.733333	1	0.012250
1.750000	1	0.011750
1.766667	1	0.010875
1.783333	1	0.011000
1.800000	1	0.009625
1.816667	1	0.010000
1.833333	1	0.009625
1.850000	1	0.009500
1.866667	1	0.008250
1.883333	1	0.007875
1.900000	1	0.007125
1.916667	1	0.007000
1.933333	1	0.006375
1.950000	1	0.005125
1.966667	1	0.004250
1.983333	1	0.003250
2.000000	1	0.002750
2.016667	1	0.002000
2.033333	1	0.001500
2.050000	1	0.000750
2.066667	1	0.000250
2.083333	1	-0.001000
2.100000	1	-0.002250
2.116667	1	-0.003250
2.133333	1	-0.004125
2.150000	1	-0.004625
2.166667	1	-0.006750
2.183333	1	-0.007625
2.200000	1	-0.008125
2.216667	1	-0.008750
2.233333	1	-0.009250
2.250000	1	-0.009500
2.266667	1	-0.010625
2.283333	1	-0.010875
2.300000	1	-0.011250
2.316667	1	-0.011500
2.333333	1	-0.012375
2.350000	1	-0.013000
2.366667	1	-0.013000
2.383333	1	-0.013125
2.400000	1	-0.013500
2.416667	1	-0.013125
2.433333	1	-0.013250
2.450000	1	-0.012750
2.466667	1	-0.013250
2.483333	1	-0.014125
2.500000	1	-0.014250
2.516667	1	-0.014125
2.533333	1	-0.014250
2.550000	1	-0.013875
2.566667	1	-0.013875
2.583333	1	-0.013750
2.600000	1	-0.013625
2.616667	1	-0.013875
2.633333	1	-0.014250
2.650000	1	-0.014500
2.666667	1	-0.014375
2.683333	1	-0.014500
2.700000	1	-0.014750
2.716667	1	-0.014375
2.733333	1	-0.014375
2.750000	1	-0.014250
2.766667	1	-0.014375
2.783333	1	-0.014875
2.800000	1	-0.015000
2.816667	1	-0.015750
2.833333	1	-0.015750
2.850000	1	-0.015750
2.866667	1	-0.015500
2.883333	1	-0.015625
2.900000	1	-0.016250
2.916667	1	-0.016250
2.933333	1	-0.016000
2.950000	1	-0.016500
2.966667	1	-0.016375
2.983333	1	-0.016250
3.000000	1	-0.016875
3.016667	1	-0.016625
3.033333	1	-0.016125
3.050000	1	-0.015875
3.066667	1	-0.016250
3.083333	1	-0.016375
3.100000	1	-0.016500
3.116667	1	-0.016125
3.133333	1	-0.016125
3.150000	1	-0.015750
3.166667	1	-0.014625
3.183333	1	-0.014500
3.200000	1	-0.013875
3.216667	1	-0.013250
3.233333	1	-0.012750
3.250000	1	-0.012375
3.266667	1	-0.011750
3.283333	1	-0.010500
3.300000	1	-0.010000
3.316667	1	-0.008500
3.333333	1	-0.006750
3.350000	1	-0.005500
3.366667	1	-0.004000
3.383333	1	-0.002625
3.400000	1	-0.001125
3.416667	1	-0.000250
3.433333	1	0.000875
3.450000	1	0.003000
3.466667	1	0.005250
3.483333	1	0.007000
3.500000	1	0.007750
3.516667	1	0.009750
3.533333	1	0.011875
3.550000	1	0.014625
3.566667	1	0.016750
3.583333	1	0.018500
3.600000	1	0.019625
3.616667	1	0.021500
3.633333	1	0.022875
3.650000	1	0.024000
3.666667	1	0.025000
3.683333	1	0.026500
3.700000	1	0.028250
3.716667	1	0.029500
3.733333	1	0.030750
3.750000	1	0.031250
3.766667	1	0.032250
3.783333	1	0.032625
3.800000	1	0.033250
3.816667	1	0.034250
3.833333	1	0.035000
3.850000	1	0.036125
3.866667	1	0.036750
3.883333	1	0.036750
3.900000	1	0.036750
3.916667	1	0.037250
3.933333	1	0.038000
3.950000	1	0.038250
3.966667	1	0.038250
3.983333	1	0.038375
4.000000	1	0.038500
4.016667	1	0.038250
4.033333	1	0.038875
4.050000	1	0.039500
4.066667	1	0.040125
4.083333	1	0.040875
4.100000	1	0.041375
4.116667	1	0.042125
4.133333	1	0.042375
4.150000	1	0.042625
4.166667	1	0.043125
4.183333	1	0.044250
4.200000	1	0.045375
4.216667	1	0.046500
4.233333	1	0.047625
4.250000	1	0.049000
4.266667	1	0.049625
4.283333	1	0.051000
4.300000	1	0.051875
4.316667	1	0.053250
4.333333	1	0.054125
4.350000	1	0.054875
4.366667	1	0.056000
4.383333	1	0.057500
4.400000	1	0.058125
4.416667	1	0.058500
4.433333	1	0.059875
4.450000	1	0.061125
4.466667	1	0.061500
4.483333	1	0.062375
4.500000	1	0.063250
4.516667	1	0.064000
4.533333	1	0.065625
4.550000	1	0.065500
4.566667	1	0.066375
4.583333	1	0.067125
4.600000	1	0.067875
4.616667	1	0.068250
4.633333	1	0.068500
4.650000	1	0.069000
4.666667	1	0.069250
4.683333	1	0.069750
4.700000	1	0.069875
4.716667	1	0.070500
4.733333	1	0.071375
4.750000	1	0.071875
4.766667	1	0.071750
4.783333	1	0.072375
4.800000	1	0.073375
4.816667	1	0.075000
4.833333	1	0.075875
4.850000	1	0.076875
4.866667	1	0.078250
4.883333	1	0.079250
4.900000	1	0.081250
4.916667	1	0.083250
4.933333	1	0.085125
4.950000	1	0.087125
4.966667	1	0.089375
4.983333	1	0.091625
5.000000	1	0.094500
5.016667	1	0.097500
5.033333	1	0.099500
5.050000	1	0.102875
5.066667	1	0.106250
5.083333	1	0.110125
5.100000	1	0.113625
5.116667	1	0.118125
5.133333	1	0.122000
5.150000	1	0.125375
5.166667	1	0.129125
5.183333	1	0.133375
5.200000	1	0.138000
5.216667	1	0.142250
5.233333	1	0.146375
5.250000	1	0.150875
5.266667	1	0.155625
5.283333	1	0.160125
5.300000	1	0.164250
5.316667	1	0.168250
5.333333	1	0.172625
5.350000	1	0.176750
5.366667	1	0.181125
5.383333	1	0.185000
5.400000	1	0.188750
5.416667	1	0.192500
5.433333	1	0.195750
5.450000	1	0.199625
5.466667	1	0.203000
5.483333	1	0.205500
5.500000	1	0.207250
5.516667	1	0.209375
5.533333	1	0.210875
5.550000	1	0.212250
5.566667	1	0.213625
5.583333	1	0.214875
5.600000	1	0.215750
5.616667	1	0.215875
5.633333	1	0.215375
5.650000	1	0.213625
5.666667	1	0.213125
5.683333	1	0.211750
5.700000	1	0.210500
5.716667	1	0.209125
5.733333	1	0.207500
5.750000	1	0.205750
5.766667	1	0.203000
5.783333	1	0.199625
5.800000	1	0.197000
5.816667	1	0.194000
5.833333	1	0.191750
5.850000	1	0.188250
5.866667	1	0.185125
5.883333	1	0.182125
5.900000	1	0.178750
5.916667	1	0.176125
5.933333	1	0.172750
5.950000	1	0.169500
5.966667	1	0.166375
5.983333	1	0.163875
6.000000	1	0.161375
6.016667	1	0.158500
6.033333	1	0.155500
6.050000	1	0.152625
6.066667	1	0.150875
6.083333	1	0.148000
6.100000	1	0.145750
6.116667	1	0.143125
6.133333	1	0.140750
6.150000	1	0.137875
6.166667	1	0.135625
6.183333	1	0.134000
6.200000	1	0.131875
6.216667	1	0.130375
6.233333	1	0.128250
6.250000	1	0.127125
6.266667	1	0.125500
6.283333	1	0.123750
6.300000	1	0.122000
6.316667	1	0.119875
6.333333	1	0.117750
6.350000	1	0.115875
6.366667	1	0.114250
6.383333	1	0.112750
6.400000	1	0.110875
6.416667	1	0.108125
6.433333	1	0.106375
6.450000	1	0.104250
6.466667	1	0.102250
6.483333	1	0.099625
6.500000	1	0.097125
6.516667	1	0.095625
6.533333	1	0.093000
6.550000	1	0.090125
6.566667	1	0.087750
6.583333	1	0.085375
6.600000	1	0.083250
6.616667	1	0.080875
6.633333	1	0.078250
6.650000	1	0.075875
6.666667	1	0.073250
6.683333	1	0.070625
6.700000	1	0.068625
6.716667	1	0.067250
6.733333	1	0.064750
6.750000	1	0.063125
6.766667	1	0.061250
6.783333	1	0.060250
6.800000	1	0.058625
6.816667	1	0.057500
6.833333	1	0.056500
6.850000	1	0.055875
6.866667	1	0.055375
6.883333	1	0.054875
6.900000	1	0.054750
6.916667	1	0.055250
6.933333	1	0.055625
6.950000	1	0.056375
6.966667	1	0.057625
6.983333	1	0.058875
7.000000	1	0.060125
7.016667	1	0.061250
7.033333	1	0.063125
7.050000	1	0.065000
7.066667	1	0.067500
7.083333	1	0.069875
7.100000	1	0.072125
7.116667	1	0.075625
7.133333	1	0.078875
7.150000	1	0.081750
7.166667	1	0.084500
7.183333	1	0.087625
7.200000	1	0.091125
7.216667	1	0.094375
7.233333	1	0.097625
7.250000	1	0.101750
7.266667	1	0.104125
7.283333	1	0.106875
7.300000	1	0.109750
7.316667	1	0.113375
7.333333	1	0.116625
7.350000	1	0.119125
7.366667	1	0.121625
7.383333	1	0.124500
7.400000	1	0.127625
7.416667	1	0.130125
7.433333	1	0.132500
7.450000	1	0.134250
7.466667	1	0.136375
7.483333	1	0.138000
7.500000	1	0.139250
7.516667	1	0.140250
7.533333	1	0.141500
7.550000	1	0.141750
7.566667	1	0.142250
7.583333	1	0.142000
7.600000	1	0.141125
7.616667	1	0.140125
7.633333	1	0.138500
7.650000	1	0.136375
7.666667	1	0.134000
7.683333	1	0.131500
7.700000	1	0.128250
7.716667	1	0.124875
7.733333	1	0.122125
7.750000	1	0.118875
7.766667	1	0.115500
7.783333	1	0.111125
7.800000	1	0.106250
7.816667	1	0.101375
7.833333	1	0.096625
7.850000	1	0.092000
7.866667	1	0.087500
7.883333	1	0.081875
7.900000	1	0.076625
7.916667	1	0.071625
7.933333	1	0.066625
7.950000	1	0.061375
7.966667	1	0.056500
7.983333	1	0.052000
8.000000	1	0.047000
8.016667	1	0.042000
8.033333	1	0.037375
8.050000	1	0.033000
8.066667	1	0.028125
8.083333	1	0.023625
8.100000	1	0.020000
8.116667	1	0.015875
8.133333	1	0.012375
8.150000	1	0.008250
8.166667	1	0.004250
8.183333	1	0.001625
8.200000	1	-0.001250
8.216667	1	-0.003875
8.233333	1	-0.006875
8.250000	1	-0.009500
8.266667	1	-0.011000
8.283333	1	-0.013625
8.300000	1	-0.015500
8.316667	1	-0.017125
8.333333	1	-0.018750
8.350000	1	-0.020375
8.366667	1	-0.021375
8.383333	1	-0.022250
8.400000	1	-0.023250
8.416667	1	-0.024250
8.433333	1	-0.024625
8.450000	1	-0.025625
8.466667	1	-0.027000
8.483333	1	-0.026625
8.500000	1	-0.026375
8.516667	1	-0.026250
8.533333	1	-0.026250
8.550000	1	-0.026000
8.566667	1	-0.025500
8.583333	1	-0.025375
8.600000	1	-0.025000
8.616667	1	-0.024000
8.633333	1	-0.022500
8.650000	1	-0.021125
8.666667	1	-0.019875
8.683333	1	-0.018750
8.700000	1	-0.016875
8.716667	1	-0.015000
8.733333	1	-0.012750
8.750000	1	-0.011250
8.766667	1	-0.008750
8.783333	1	-0.006375
8.800000	1	-0.003750
8.816667	1	-0.001375
8.833333	1	0.000625
8.850000	1	0.002500
8.866667	1	0.005000
8.883333	1	0.006625
8.900000	1	0.008750
8.916667	1	0.010500
8.933333	1	0.013625
8.950000	1	0.015625
8.966667	1	0.017500
8.983333	1	0.019625
9.000000	1	0.021750
9.016667	1	0.023500
9.033333	1	0.025000
9.050000	1	0.025750
9.066667	1	0.026000
9.083333	1	0.026625
9.100000	1	0.026875
9.116667	1	0.027125
9.133333	1	0.026875
9.150000	1	0.027000
9.166667	1	0.026250
9.183333	1	0.025500
9.200000	1	0.025000
9.216667	1	0.024125
9.233333	1	0.023125
9.250000	1	0.022375
9.266667	1	0.020875
9.283333	1	0.019500
9.300000	1	0.017875
9.316667	1	0.016000
9.333333	1	0.014125
9.350000	1	0.012125
9.366667	1	0.010375
9.383333	1	0.008875
9.400000	1	0.007375
9.416667	1	0.006250
9.433333	1	0.004125
9.450000	1	0.002375
9.466667	1	0.001125
9.483333	1	-0.000375
9.500000	1	-0.002250
9.516667	1	-0.003750
9.533333	1	-0.004875
9.550000	1	-0.006375
9.566667	1	-0.008375
9.583333	1	-0.010000
9.600000	1	-0.010875
9.616667	1	-0.012625
9.633333	1	-0.014250
9.650000	1	-0.015625
9.666667	1	-0.017000
9.683333	1	-0.017875
9.700000	1	-0.018375
9.716667	1	-0.019625
9.733333	1	-0.020750
9.750000	1	-0.022000
9.766667	1	-0.022375
9.783333	1	-0.023125
9.800000	1	-0.023500
9.816667	1	-0.024375
9.833333	1	-0.025750
9.850000	1	-0.026500
9.866667	1	-0.027625
9.883333	1	-0.028125
9.900000	1	-0.029375
9.916667	1	-0.029625
9.933333	1	-0.030000
9.950000	1	-0.030750
9.966667	1	-0.030875
9.983333	1	-0.030875
10.000000	1	-0.031125
10.016667	1	-0.030875
10.033333	1	-0.030000
10.050000	1	-0.028750
10.066667	1	-0.026750
10.083333	1	-0.024375
10.100000	1	-0.020875
10.116667	1	-0.016625
10.133333	1	-0.012000
10.150000	1	-0.005750
10.166667	1	0.001250
10.183333	1	0.009500
10.200000	1	0.019750
10.216667	1	0.030625
10.233333	1	0.043625
10.250000	1	0.058500
10.266667	1	0.074500
10.283333	1	0.093125
10.300000	1	0.114375
10.316667	1	0.138125
10.333333	1	0.164500
10.350000	1	0.192750
10.366667	1	0.222250
10.383333	1	0.250375
10.400000	1	0.275750
10.416667	1	0.294875
10.433333	1	0.303625
10.450000	1	0.299250
10.466667	1	0.280375
10.483333	1	0.248625
10.500000	1	0.212500
10.516667	1	0.192000
10.533333	1	0.222625
10.550000	1	0.352875
10.566667	1	0.648250
10.583333	1	1.181750
10.600000	1	2.029750
10.616667	1	3.259875
10.633333	1	4.927625
10.650000	1	7.069000
10.666667	1	9.704500
10.683333	1	12.837000
10.700000	1	16.451375
10.716667	1	20.508375
10.733333	1	24.941000
10.750000	1	29.645875
10.766667	1	34.463750
10.783333	1	39.171000
10.800000	1	43.465250
10.816667	1	46.965625
10.833333	1	49.259750
10.850000	1	49.994250
10.866667	1	48.980500
10.883333	1	46.277625
10.900000	1	42.201375
10.916667	1	37.246125
10.933333	1	31.944250
10.950000	1	26.750750
10.966667	1	21.979125
10.983333	1	17.799750
11.000000	1	14.271125
11.016667	1	11.375250
11.033333	1	9.051375
11.050000	1	7.221250
11.066667	1	5.797625
11.083333	1	4.701375
11.100000	1	3.862000
11.116667	1	3.221250
11.133333	1	2.731250
11.150000	1	2.355750
11.166667	1	2.066000
11.183333	1	1.840750
11.200000	1	1.663250
11.216667	1	1.522375
11.233333	1	1.408000
11.250000	1	1.315500
11.266667	1	1.238375
11.283333	1	1.174000
11.300000	1	1.119625
11.316667	1	1.073750
11.333333	1	1.033500
11.350000	1	0.999500
11.366667	1	0.970875
11.383333	1	0.945375
11.400000	1	0.923000
11.416667	1	0.903750
11.433333	1	0.886750
11.450000	1	0.872000
11.466667	1	0.860000
11.483333	1	0.849375
11.500000	1	0.840750
11.516667	1	0.832750
11.533333	1	0.825750
11.550000	1	0.820375
11.566667	1	0.817125
11.583333	1	0.814625
11.600000	1	0.813750
11.616667	1	0.813125
11.633333	1	0.813500
11.650000	1	0.815625
11.666667	1	0.818625
11.683333	1	0.822250
11.700000	1	0.827500
11.716667	1	0.834750
11.733333	1	0.841875
11.750000	1	0.850375
11.766667	1	0.860000
11.783333	1	0.870250
11.800000	1	0.879625
11.816667	1	0.889250
11.833333	1	0.899375
11.850000	1	0.909125
11.866667	1	0.917625
11.883333	1	0.925125
11.900000	1	0.931375
11.916667	1	0.938250
11.933333	1	0.942875
11.950000	1	0.948375
11.966667	1	0.952500
11.983333	1	0.956750
12.000000	1	0.960125
12.016667	1	0.963625
12.033333	1	0.967000
12.050000	1	0.970500
12.066667	1	0.974750
12.083333	1	0.979250
12.100000	1	0.984500
12.116667	1	0.990125
12.133333	1	0.995750
12.150000	1	1.001875
12.166667	1	1.009000
12.183333	1	1.017250
12.200000	1	1.026375
12.216667	1	1.036625
12.233333	1	1.050125
12.250000	1	1.066250
12.266667	1	1.086750
12.283333	1	1.112625
12.300000	1	1.145625
12.316667	1	1.188375
12.333333	1	1.243625
12.350000	1	1.314875
12.366667	1	1.404875
12.383333	1	1.519625
12.400000	1	1.662000
12.416667	1	1.837375
12.433333	1	2.050125
12.450000	1	2.305500
12.466667	1	2.607750
12.483333	1	2.962125
12.500000	1	3.371750
12.516667	1	3.838750
12.533333	1	4.363500
12.550000	1	4.945875
12.566667	1	5.579375
12.583333	1	6.257750
12.600000	1	6.971000
12.616667	1	7.704000
12.633333	1	8.443875
12.650000	1	9.176000
12.666667	1	9.888000
12.683333	1	10.568625
12.700000	1	11.210875
12.716667	1	11.812125
12.733333	1	12.373625
12.750000	1	12.900625
12.766667	1	13.402000
12.783333	1	13.888000
12.800000	1	14.370625
12.816667	1	14.858625
12.833333	1	15.362000
12.850000	1	15.888000
12.866667	1	16.442500
12.883333	1	17.027500
12.900000	1	17.645500
12.916667	1	18.296125
12.933333	1	18.978500
12.950000	1	19.690750
12.966667	1	20.432250
12.983333	1	21.201375
13.000000	1	21.995125
13.016667	1	22.811750
13.033333	1	23.651000
13.050000	1	24.512750
13.066667	1	25.395500
13.083333	1	26.299875
13.100000	1	27.224500
13.116667	1	28.169000
13.133333	1	29.132875
13.150000	1	30.116250
13.166667	1	31.118125
13.183333	1	32.139125
13.200000	1	33.178625
13.216667	1	34.236500
13.233333	1	35.313500
13.250000	1	36.410875
13.266667	1	37.530500
13.283333	1	38.670875
13.300000	1	39.833750
13.316667	1	41.019625
13.333333	1	42.228250
13.350000	1	43.460125
13.366667	1	44.715125
13.383333	1	45.994500
13.400000	1	47.296750
13.416667	1	48.624125
13.433333	1	49.977250
13.450000	1	51.356250
13.466667	1	52.765500
13.483333	1	54.205125
13.500000	1	55.674625
13.516667	1	57.173500
13.533333	1	58.704125
13.550000	1	60.265625
13.566667	1	61.858375
13.583333	1	63.483250
13.600000	1	65.139875
13.616667	1	66.828875
13.633333	1	68.552125
13.650000	1	70.312375
13.666667	1	72.110875
13.683333	1	73.948500
13.700000	1	75.824500
13.716667	1	77.726750
13.733333	1	79.610125
13.750000	1	81.361500
13.766667	1	82.762875
13.783333	1	83.501000
13.800000	1	83.226750
13.816667	1	81.601125
13.833333	1	78.329500
13.850000	1	73.235625
13.866667	1	66.393500
13.883333	1	58.230125
13.900000	1	49.464750
13.916667	1	40.896750
13.933333	1	33.148875
13.950000	1	26.547875
13.966667	1	21.155875
13.983333	1	16.872625
14.000000	1	13.531000
14.016667	1	10.954500
14.033333	1	8.992625
14.050000	1	7.516500
14.066667	1	6.417625
14.083333	1	5.603750
14.100000	1	5.003250
14.116667	1	4.557625
14.133333	1	4.222375
14.150000	1	3.965000
14.166667	1	3.763875
14.183333	1	3.603250
14.200000	1	3.471000
14.216667	1	3.360500
14.233333	1	3.266625
14.250000	1	3.184125
14.266667	1	3.111125
14.283333	1	3.045375
14.300000	1	2.987625
14.316667	1	2.934500
14.333333	1	2.886500
14.350000	1	2.844625
14.366667	1	2.807375
14.383333	1	2.776875
14.400000	1	2.753875
14.416667	1	2.739375
14.433333	1	2.736875
14.450000	1	2.749375
14.466667	1	2.782250
14.483333	1	2.843750
14.500000	1	2.943375
14.516667	1	3.098250
14.533333	1	3.327250
14.550000	1	3.661250
14.566667	1	4.138125
14.583333	1	4.804750
14.600000	1	5.719375
14.616667	1	6.953250
14.633333	1	8.586500
14.650000	1	10.701250
14.666667	1	13.378375
14.683333	1	16.683500
14.700000	1	20.658250
14.716667	1	25.304750
14.733333	1	30.583625
14.750000	1	36.400250
14.766667	1	42.603625
14.783333	1	48.977750
14.800000	1	55.277375
14.816667	1	61.224250
14.833333	1	66.535750
14.850000	1	70.937500
14.866667	1	74.196750
14.883333	1	76.143750
14.900000	1	76.688000
14.916667	1	75.830500
14.933333	1	73.657125
14.950000	1	70.328375
14.966667	1	66.060875
14.983333	1	61.108125
15.000000	1	55.722625
15.016667	1	50.141625
15.033333	1	44.575750
15.050000	1	39.203000
15.066667	1	34.154125
15.083333	1	29.521375
15.100000	1	25.355375
15.116667	1	21.673875
15.133333	1	18.467000
15.150000	1	15.706625
15.166667	1	13.356625
15.183333	1	11.373250
15.200000	1	9.709250
15.216667	1	8.322625
15.233333	1	7.171250
15.250000	1	6.220250
15.266667	1	5.439125
15.283333	1	4.799250
15.300000	1	4.280250
15.316667	1	3.860125
15.333333	1	3.523500
15.350000	1	3.255500
15.366667	1	3.045750
15.383333	1	2.884125
15.400000	1	2.761000
15.416667	1	2.668375
15.433333	1	2.601875
15.450000	1	2.553750
15.466667	1	2.518750
15.483333	1	2.492000
15.500000	1	2.468500
15.516667	1	2.446125
15.533333	1	2.421750
15.550000	1	2.394875
15.566667	1	2.363000
15.583333	1	2.328125
15.600000	1	2.288500
15.616667	1	2.248125
15.633333	1	2.206250
15.650000	1	2.164000
15.666667	1	2.123250
15.683333	1	2.083750
15.700000	1	2.047250
15.716667	1	2.012375
15.733333	1	1.978125
15.750000	1	1.945750
15.766667	1	1.913875
15.783333	1	1.881750
15.800000	1	1.849875
15.816667	1	1.817625
15.833333	1	1.785125
15.850000	1	1.753000
15.866667	1	1.721125
15.883333	1	1.690875
15.900000	1	1.661125
15.916667	1	1.634000
15.933333	1	1.609625
15.950000	1	1.588375
15.966667	1	1.570500
15.983333	1	1.556000
16.000000	1	1.544375
16.016667	1	1.535750
16.033333	1	1.529625
16.050000	1	1.524875
16.066667	1	1.521875
16.083333	1	1.518125
16.100000	1	1.514750
16.116667	1	1.509625
16.133333	1	1.502875
16.150000	1	1.494750
16.166667	1	1.485500
16.183333	1	1.475375
16.200000	1	1.463000
16.216667	1	1.449250
16.233333	1	1.433375
16.250000	1	1.416875
16.266667	1	1.399875
16.283333	1	1.382750
16.300000	1	1.364875
16.316667	1	1.346875
16.333333	1	1.328750
16.350000	1	1.311250
16.366667	1	1.295375
16.383333	1	1.280000
16.400000	1	1.265875
16.416667	1	1.253625
16.433333	1	1.243375
16.450000	1	1.236250
16.466667	1	1.231250
16.483333	1	1.228125
16.500000	1	1.228000
16.516667	1	1.230000
16.533333	1	1.233625
16.550000	1	1.238000
16.566667	1	1.243125
16.583333	1	1.248250
16.600000	1	1.252750
16.616667	1	1.256125
16.633333	1	1.258625
16.650000	1	1.259250
16.666667	1	1.258625
16.683333	1	1.257000
16.700000	1	1.254500
16.716667	1	1.251625
16.733333	1	1.248500
16.750000	1	1.245500
16.766667	1	1.243875
16.783333	1	1.243000
16.800000	1	1.243375
16.816667	1	1.244500
16.833333	1	1.247000
16.850000	1	1.250125
16.866667	1	1.253500
16.883333	1	1.256500
16.900000	1	1.258750
16.916667	1	1.260625
16.933333	1	1.261125
16.950000	1	1.260250
16.966667	1	1.257750
16.983333	1	1.253625
17.000000	1	1.248500
17.016667	1	1.242000
17.033333	1	1.234625
17.050000	1	1.227000
17.066667	1	1.219000
17.083333	1	1.211125
17.100000	1	1.203750
17.116667	1	1.196750
17.133333	1	1.190250
17.150000	1	1.185125
17.166667	1	1.181250
17.183333	1	1.177875
17.200000	1	1.175625
17.216667	1	1.174125
17.233333	1	1.174000
17.250000	1	1.174500
17.266667	1	1.175750
17.283333	1	1.177750
17.300000	1	1.180375
17.316667	1	1.183875
17.333333	1	1.187875
17.350000	1	1.191375
17.366667	1	1.194750
17.383333	1	1.198500
17.400000	1	1.202500
17.416667	1	1.206250
17.433333	1	1.209000
17.450000	1	1.211375
17.466667	1	1.212375
17.483333	1	1.211625
17.500000	1	1.209750
17.516667	1	1.205375
17.533333	1	1.199500
17.550000	1	1.192125
17.566667	1	1.182750
17.583333	1	1.172500
17.600000	1	1.160875
17.616667	1	1.148000
17.633333	1	1.134875
17.650000	1	1.119875
17.666667	1	1.104500
17.683333	1	1.089000
17.700000	1	1.073375
17.716667	1	1.057875
17.733333	1	1.042500
17.750000	1	1.027125
17.766667	1	1.012750
17.783333	1	0.999375
17.800000	1	0.986125
17.816667	1	0.973875
17.833333	1	0.962500
17.850000	1	0.952375
17.866667	1	0.942500
17.883333	1	0.933375
17.900000	1	0.925375
17.916667	1	0.917875
17.933333	1	0.910875
17.950000	1	0.904750
17.966667	1	0.898250
17.983333	1	0.891125
18.000000	1	0.885125
18.016667	1	0.877875
18.033333	1	0.870875
18.050000	1	0.864250
18.066667	1	0.858000
18.083333	1	0.851375
18.100000	1	0.844750
18.116667	1	0.838250
18.133333	1	0.832375
18.150000	1	0.826875
18.166667	1	0.822500
18.183333	1	0.818875
18.200000	1	0.816125
18.216667	1	0.813500
18.233333	1	0.812375
18.250000	1	0.811000
18.266667	1	0.811125
18.283333	1	0.811375
18.300000	1	0.812500
18.316667	1	0.813000
18.333333	1	0.814125
18.350000	1	0.815875
18.366667	1	0.817750
18.383333	1	0.820250
18.400000	1	0.823500
18.416667	1	0.827625
18.433333	1	0.832125
18.450000	1	0.837750
18.466667	1	0.845375
18.483333	1	0.854750
18.500000	1	0.866750
18.516667	1	0.879500
18.533333	1	0.894125
18.550000	1	0.910500
18.566667	1	0.928000
18.583333	1	0.948125
18.600000	1	0.970000
18.616667	1	0.993375
18.633333	1	1.019375
18.650000	1	1.046750
18.666667	1	1.075875
18.683333	1	1.105375
18.700000	1	1.136750
18.716667	1	1.169250
18.733333	1	1.202375
18.750000	1	1.236125
18.766667	1	1.270375
18.783333	1	1.304625
18.800000	1	1.338625
18.816667	1	1.371125
18.833333	1	1.401625
18.850000	1	1.430250
18.866667	1	1.454875
18.883333	1	1.475125
18.900000	1	1.490875
18.916667	1	1.501250
18.933333	1	1.505500
18.950000	1	1.503000
18.966667	1	1.493125
18.983333	1	1.476375
19.000000	1	1.453500
19.016667	1	1.423750
19.033333	1	1.388375
19.050000	1	1.348750
19.066667	1	1.305500
19.083333	1	1.259625
19.100000	1	1.213000
19.116667	1	1.167500
19.133333	1	1.123625
19.150000	1	1.082625
19.166667	1	1.047125
19.183333	1	1.019500
19.200000	1	0.999375
19.216667	1	0.989625
19.233333	1	0.992125
19.250000	1	1.006875
19.266667	1	1.036125
19.283333	1	1.081500
19.300000	1	1.142750
19.316667	1	1.221750
19.333333	1	1.318750
19.350000	1	1.431625
19.366667	1	1.561375
19.383333	1	1.705250
19.400000	1	1.859875
19.416667	1	2.021500
19.433333	1	2.186500
19.450000	1	2.350375
19.466667	1	2.508250
19.483333	1	2.653875
19.500000	1	2.782875
19.516667	1	2.890875
19.533333	1	2.974375
19.550000	1	3.031250
19.566667	1	3.058875
19.583333	1	3.058125
19.600000	1	3.029750
19.616667	1	2.974125
19.633333	1	2.895125
19.650000	1	2.796125
19.666667	1	2.680625
19.683333	1	2.553125
19.700000	1	2.417125
19.716667	1	2.277125
19.733333	1	2.135375
19.750000	1	1.996250
19.766667	1	1.860000
19.783333	1	1.730250
19.800000	1	1.607250
19.816667	1	1.492125
19.833333	1	1.384375
19.850000	1	1.286875
19.866667	1	1.197250
19.883333	1	1.116375
19.900000	1	1.043000
19.916667	1	0.976875
19.933333	1	0.918625
19.950000	1	0.867375
19.966667	1	0.822875
19.983333	1	0.783750
20.000000	1	0.750000
20.016667	1	0.721875
20.033333	1	0.698875
20.050000	1	0.680750
20.066667	1	0.667375
20.083333	1	0.658125
20.100000	1	0.653375
20.116667	1	0.651625
20.133333	1	0.654500
20.150000	1	0.659375
20.166667	1	0.667375
20.183333	1	0.678375
20.200000	1	0.691000
20.216667	1	0.705375
20.233333	1	0.719250
20.250000	1	0.732875
20.266667	1	0.745000
20.283333	1	0.755125
20.300000	1	0.764125
20.316667	1	0.769875
20.333333	1	0.771125
20.350000	1	0.769125
20.366667	1	0.763750
20.383333	1	0.755125
20.400000	1	0.743625
20.416667	1	0.729375
20.433333	1	0.713125
20.450000	1	0.696000
20.466667	1	0.677625
20.483333	1	0.660500
20.500000	1	0.645000
20.516667	1	0.632625
20.533333	1	0.622250
20.550000	1	0.616125
20.566667	1	0.616000
20.583333	1	0.621625
20.600000	1	0.634125
20.616667	1	0.653750
20.633333	1	0.681875
20.650000	1	0.718500
20.666667	1	0.763250
20.683333	1	0.816750
20.700000	1	0.877875
20.716667	1	0.947375
20.733333	1	1.022375
20.750000	1	1.102500
20.766667	1	1.184875
20.783333	1	1.268375
20.800000	1	1.350000
20.816667	1	1.427625
20.833333	1	1.497625
20.850000	1	1.557625
20.866667	1	1.606750
20.883333	1	1.642500
20.900000	1	1.663875
20.916667	1	1.670625
20.933333	1	1.662625
20.950000	1	1.639500
20.966667	1	1.603250
20.983333	1	1.555750
21.000000	1	1.499000
21.016667	1	1.434125
21.033333	1	1.363875
21.050000	1	1.290125
21.066667	1	1.215500
21.083333	1	1.140750
21.100000	1	1.068125
21.116667	1	0.998625
21.133333	1	0.932875
21.150000	1	0.872000
21.166667	1	0.815750
21.183333	1	0.764500
21.200000	1	0.718125
21.216667	1	0.677000
21.233333	1	0.640000
21.250000	1	0.607625
21.266667	1	0.579000
21.283333	1	0.553875
21.300000	1	0.532500
21.316667	1	0.513875
21.333333	1	0.497875
21.350000	1	0.484000
21.366667	1	0.472250
21.383333	1	0.461375
21.400000	1	0.452000
21.416667	1	0.444125
21.433333	1	0.437000
21.450000	1	0.431000
21.466667	1	0.425625
21.483333	1	0.420375
21.500000	1	0.416125
21.516667	1	0.412500
21.533333	1	0.409500
21.550000	1	0.407500
21.566667	1	0.405750
21.583333	1	0.405125
21.600000	1	0.405250
21.616667	1	0.406125
21.633333	1	0.408250
21.650000	1	0.410875
21.666667	1	0.414875
21.683333	1	0.419875
21.700000	1	0.426875
21.716667	1	0.434000
21.733333	1	0.442875
21.750000	1	0.452250
21.766667	1	0.463625
21.783333	1	0.475875
21.800000	1	0.488000
21.816667	1	0.500250
21.833333	1	0.514000
21.850000	1	0.528250
21.866667	1	0.542500
21.883333	1	0.555750
21.900000	1	0.569500
21.916667	1	0.581750
21.933333	1	0.593750
21.950000	1	0.605500
21.966667	1	0.615750
21.983333	1	0.624750
22.000000	1	0.632125
22.016667	1	0.638125
22.033333	1	0.643375
22.050000	1	0.647625
22.066667	1	0.650750
22.083333	1	0.652500
22.100000	1	0.652875
22.116667	1	0.652500
22.133333	1	0.651000
22.150000	1	0.647625
22.166667	1	0.643625
22.183333	1	0.638875
22.200000	1	0.632125
22.216667	1	0.624875
22.233333	1	0.617125
22.250000	1	0.607750
22.266667	1	0.596750
22.283333	1	0.585375
22.300000	1	0.573375
22.316667	1	0.560750
22.333333	1	0.547625
22.350000	1	0.533625
22.366667	1	0.519500
22.383333	1	0.505500
22.400000	1	0.491375
22.416667	1	0.476750
22.433333	1	0.463000
22.450000	1	0.450000
22.466667	1	0.437000
22.483333	1	0.424500
22.500000	1	0.412500
22.516667	1	0.400875
22.533333	1	0.390625
22.550000	1	0.380875
22.566667	1	0.371625
22.583333	1	0.362625
22.600000	1	0.353750
22.616667	1	0.345375
22.633333	1	0.337250
22.650000	1	0.329250
22.666667	1	0.321250
22.683333	1	0.314500
22.700000	1	0.307875
22.716667	1	0.302500
22.733333	1	0.296625
22.750000	1	0.290750
22.766667	1	0.285125
22.783333	1	0.279875
22.800000	1	0.274375
22.816667	1	0.268375
22.833333	1	0.263750
22.850000	1	0.259375
22.866667	1	0.254875
22.883333	1	0.250875
22.900000	1	0.247000
22.916667	1	0.243500
22.933333	1	0.241375
22.950000	1	0.238875
22.966667	1	0.237375
22.983333	1	0.236125
23.000000	1	0.234875
23.016667	1	0.234250
23.033333	1	0.234500
23.050000	1	0.235000
23.066667	1	0.236000
23.083333	1	0.237625
23.100000	1	0.239500
23.116667	1	0.241625
23.133333	1	0.244625
23.150000	1	0.248000
23.166667	1	0.251625
23.183333	1	0.255000
23.200000	1	0.258500
23.216667	1	0.262250
23.233333	1	0.266625
23.250000	1	0.270500
23.266667	1	0.275875
23.283333	1	0.282625
23.300000	1	0.290500
23.316667	1	0.301000
23.333333	1	0.313750
23.350000	1	0.329000
23.366667	1	0.348000
23.383333	1	0.371875
23.400000	1	0.401750
23.416667	1	0.438875
23.433333	1	0.483875
23.450000	1	0.539125
23.466667	1	0.606000
23.483333	1	0.686375
23.500000	1	0.781625
23.516667	1	0.895375
23.533333	1	1.028000
23.550000	1	1.181125
23.566667	1	1.355500
23.583333	1	1.552375
23.600000	1	1.771875
23.616667	1	2.013500
23.633333	1	2.276875
23.650000	1	2.558000
23.666667	1	2.855375
23.683333	1	3.163125
23.700000	1	3.477875
23.716667	1	3.793000
23.733333	1	4.104375
23.750000	1	4.404000
23.766667	1	4.685375
23.783333	1	4.940875
23.800000	1	5.164500
23.816667	1	5.352250
23.833333	1	5.498750
23.850000	1	5.601000
23.866667	1	5.657500
23.883333	1	5.667750
23.900000	1	5.631625
23.916667	1	5.552000
23.933333	1	5.431000
23.950000	1	5.272750
23.966667	1	5.082875
23.983333	1	4.866625
24.000000	1	4.629125
24.016667	1	4.376000
24.033333	1	4.113500
24.050000	1	3.846250
24.066667	1	3.579625
24.083333	1	3.316625
24.100000	1	3.060875
24.116667	1	2.814625
24.133333	1	2.580375
24.150000	1	2.359125
24.166667	1	2.152000
24.183333	1	1.960750
24.200000	1	1.784375
24.216667	1	1.622500
24.233333	1	1.475125
24.250000	1	1.342375
24.266667	1	1.222750
24.283333	1	1.115250
24.300000	1	1.018875
24.316667	1	0.933625
24.333333	1	0.857625
24.350000	1	0.791125
24.366667	1	0.733000
24.383333	1	0.682000
24.400000	1	0.638875
24.416667	1	0.601375
24.433333	1	0.570125
24.450000	1	0.543625
24.466667	1	0.521000
24.483333	1	0.502375
24.500000	1	0.487250
24.516667	1	0.474250
24.533333	1	0.463875
24.550000	1	0.455750
24.566667	1	0.448625
24.583333	1	0.442875
24.600000	1	0.437375
24.616667	1	0.433125
24.633333	1	0.428750
24.650000	1	0.425125
24.666667	1	0.420875
24.683333	1	0.416500
24.700000	1	0.412000
24.716667	1	0.408000
24.733333	1	0.404125
24.750000	1	0.399500
24.766667	1	0.395250
24.783333	1	0.390875
24.800000	1	0.386250
24.816667	1	0.382000
24.833333	1	0.377500
24.850000	1	0.373625
24.866667	1	0.369375
24.883333	1	0.365375
24.900000	1	0.360750
24.916667	1	0.357125
24.933333	1	0.353500
24.950000	1	0.350125
24.966667	1	0.347250
24.983333	1	0.345125
25.000000	1	0.341875
25.016667	1	0.339750
25.033333	1	0.337375
25.050000	1	0.335625
25.066667	1	0.333875
25.083333	1	0.332125
25.100000	1	0.330500
25.116667	1	0.328500
25.133333	1	0.326375
25.150000	1	0.324750
25.166667	1	0.322750
25.183333	1	0.320125
25.200000	1	0.318125
25.216667	1	0.316250
25.233333	1	0.313875
25.250000	1	0.312000
25.266667	1	0.309625
25.283333	1	0.307625
25.300000	1	0.305875
25.316667	1	0.304500
25.333333	1	0.302250
25.350000	1	0.300625
25.366667	1	0.299250
25.383333	1	0.297875
25.400000	1	0.296875
25.416667	1	0.295500
25.433333	1	0.294750
25.450000	1	0.294375
25.466667	1	0.294125
25.483333	1	0.293750
25.500000	1	0.294625
25.516667	1	0.294500
25.533333	1	0.294500
25.550000	1	0.295500
25.566667	1	0.296625
25.583333	1	0.297750
25.600000	1	0.298750
25.616667	1	0.300000
25.633333	1	0.301625
25.650000	1	0.302500
25.666667	1	0.304375
25.683333	1	0.306250
25.700000	1	0.307500
25.716667	1	0.309125
25.733333	1	0.309625
25.750000	1	0.310500
25.766667	1	0.311750
25.783333	1	0.312500
25.800000	1	0.313500
25.816667	1	0.314750
25.833333	1	0.316000
25.850000	1	0.317375
25.866667	1	0.318125
25.883333	1	0.320125
25.900000	1	0.322125
25.916667	1	0.324375
25.933333	1	0.327125
25.950000	1	0.330250
25.966667	1	0.333250
25.983333	1	0.337000
26.000000	1	0.340375
26.016667	1	0.343750
26.033333	1	0.348125
26.050000	1	0.352875
26.066667	1	0.357625
26.083333	1	0.362500
26.100000	1	0.367375
26.116667	1	0.372625
26.133333	1	0.377625
26.150000	1	0.382000
26.166667	1	0.387500
26.183333	1	0.391375
26.200000	1	0.395125
26.216667	1	0.398250
26.233333	1	0.401375
26.250000	1	0.404000
26.266667	1	0.405750
26.283333	1	0.406875
26.300000	1	0.407625
26.316667	1	0.407875
26.333333	1	0.407000
26.350000	1	0.405000
26.366667	1	0.402250
26.383333	1	0.399125
26.400000	1	0.394750
26.416667	1	0.390125
26.433333	1	0.385000
26.450000	1	0.378500
26.466667	1	0.372000
26.483333	1	0.365125
26.500000	1	0.357500
26.516667	1	0.350375
26.533333	1	0.342875
26.550000	1	0.335750
26.566667	1	0.328000
26.583333	1	0.320500
26.600000	1	0.312875
26.616667	1	0.305625
26.633333	1	0.298250
26.650000	1	0.291875
26.666667	1	0.285125
26.683333	1	0.279250
26.700000	1	0.274500
26.716667	1	0.269500
26.733333	1	0.265500
26.750000	1	0.261250
26.766667	1	0.257375
26.783333	1	0.254750
26.800000	1	0.252250
26.816667	1	0.250125
26.833333	1	0.249125
26.850000	1	0.248625
26.866667	1	0.247750
26.883333	1	0.248125
26.900000	1	0.248250
26.916667	1	0.249500
26.933333	1	0.250625
26.950000	1	0.252250
26.966667	1	0.254375
26.983333	1	0.256875
27.000000	1	0.260000
27.016667	1	0.263375
27.033333	1	0.268000
27.050000	1	0.272125
27.066667	1	0.277125
27.083333	1	0.283250
27.100000	1	0.290125
27.116667	1	0.297250
27.133333	1	0.305125
27.150000	1	0.314250
27.166667	1	0.324500
27.183333	1	0.337000
27.200000	1	0.350875
27.216667	1	0.366250
27.233333	1	0.384500
27.250000	1	0.405500
27.266667	1	0.429500
27.283333	1	0.457750
27.300000	1	0.489250
27.316667	1	0.525000
27.333333	1	0.566875
27.350000	1	0.615250
27.366667	1	0.669750
27.383333	1	0.732625
27.400000	1	0.804000
27.416667	1	0.883875
27.433333	1	0.974625
27.450000	1	1.076250
27.466667	1	1.188375
27.483333	1	1.313000
27.500000	1	1.449250
27.516667	1	1.598500
27.533333	1	1.759875
27.550000	1	1.932625
27.566667	1	2.115625
27.583333	1	2.308375
27.600000	1	2.508875
27.616667	1	2.716625
27.633333	1	2.928125
27.650000	1	3.141125
27.666667	1	3.354125
27.683333	1	3.563125
27.700000	1	3.764625
27.716667	1	3.956500
27.733333	1	4.134000
27.750000	1	4.295250
27.766667	1	4.436375
27.783333	1	4.554125
27.800000	1	4.648375
27.816667	1	4.715625
27.833333	1	4.754875
27.850000	1	4.764375
27.866667	1	4.744750
27.883333	1	4.695750
27.900000	1	4.618875
27.916667	1	4.516000
27.933333	1	4.388500
27.950000	1	4.240125
27.966667	1	4.072125
27.983333	1	3.889500
28.000000	1	3.694875
28.016667	1	3.492750
28.033333	1	3.283750
28.050000	1	3.072125
28.066667	1	2.860625
28.083333	1	2.652875
28.100000	1	2.449375
28.116667	1	2.254500
28.133333	1	2.067875
28.150000	1	1.891375
28.166667	1	1.725750
28.183333	1	1.572375
28.200000	1	1.430250
28.216667	1	1.299750
28.233333	1	1.180875
28.250000	1	1.072500
28.266667	1	0.975625
28.283333	1	0.888875
28.300000	1	0.812125
28.316667	1	0.744500
28.333333	1	0.685250
28.350000	1	0.633625
28.366667	1	0.589625
28.383333	1	0.552750
28.400000	1	0.521625
28.416667	1	0.496375
28.433333	1	0.475875
28.450000	1	0.460375
28.466667	1	0.449875
28.483333	1	0.441500
28.500000	1	0.437375
28.516667	1	0.436000
28.533333	1	0.437375
28.550000	1	0.441250
28.566667	1	0.446875
28.583333	1	0.454500
28.600000	1	0.463000
28.616667	1	0.473500
28.633333	1	0.484750
28.650000	1	0.497000
28.666667	1	0.510250
28.683333	1	0.523625
28.700000	1	0.535750
28.716667	1	0.548250
28.733333	1	0.561250
28.750000	1	0.574000
28.766667	1	0.585750
28.783333	1	0.597250
28.800000	1	0.606875
28.816667	1	0.615875
28.833333	1	0.624125
28.850000	1	0.631375
28.866667	1	0.637875
28.883333	1	0.643750
28.900000	1	0.647375
28.916667	1	0.650250
28.933333	1	0.651625
28.950000	1	0.651625
28.966667	1	0.650125
28.983333	1	0.649000
29.000000	1	0.645375
29.016667	1	0.640750
29.033333	1	0.634875
29.050000	1	0.627750
29.066667	1	0.620000
29.083333	1	0.612000
29.100000	1	0.602625
29.116667	1	0.592250
29.133333	1	0.581125
29.150000	1	0.569625
29.166667	1	0.557500
29.183333	1	0.545250
29.200000	1	0.532250
29.216667	1	0.518875
29.233333	1	0.505250
29.250000	1	0.492125
29.266667	1	0.478875
29.283333	1	0.465000
29.300000	1	0.451250
29.316667	1	0.438000
29.333333	1	0.424625
29.350000	1	0.412125
29.366667	1	0.399750
29.383333	1	0.388250
29.400000	1	0.376875
29.416667	1	0.365125
29.433333	1	0.353875
29.450000	1	0.342500
29.466667	1	0.333000
29.483333	1	0.322875
29.500000	1	0.313375
29.516667	1	0.304750
29.533333	1	0.295750
29.550000	1	0.287500
29.566667	1	0.279500
29.583333	1	0.272750
29.600000	1	0.265500
29.616667	1	0.258750
29.633333	1	0.252250
29.650000	1	0.246250
29.666667	1	0.239750
29.683333	1	0.234375
29.700000	1	0.229500
29.716667	1	0.225000
29.733333	1	0.221000
29.750000	1	0.216000
29.766667	1	0.212125
29.783333	1	0.208750
29.800000	1	0.204875
29.816667	1	0.201625
29.833333	1	0.199375
29.850000	1	0.196625
29.866667	1	0.194750
29.883333	1	0.192625
29.900000	1	0.190125
29.916667	1	0.188000
29.933333	1	0.186375
29.950000	1	0.184125
29.966667	1	0.182625
29.983333	1	0.180875
30.000000	1	0.179875
30.016667	1	0.178500
30.033333	1	0.177375
30.050000	1	0.176625
30.066667	1	0.175500
30.083333	1	0.174250
30.100000	1	0.172875
30.116667	1	0.171625
30.133333	1	0.170625
30.150000	1	0.170000
30.166667	1	0.169625
30.183333	1	0.168750
30.200000	1	0.168625
30.216667	1	0.168000
30.233333	1	0.167750
30.250000	1	0.167250
30.266667	1	0.166875
30.283333	1	0.166875
30.300000	1	0.166750
30.316667	1	0.167000
30.333333	1	0.167250
30.350000	1	0.167875
30.366667	1	0.168375
30.383333	1	0.169000
30.400000	1	0.169750
30.416667	1	0.170500
30.433333	1	0.171875
30.450000	1	0.173125
30.466667	1	0.175250
30.483333	1	0.177250
30.500000	1	0.179625
30.516667	1	0.183500
30.533333	1	0.187500
30.550000	1	0.192000
30.566667	1	0.196000
30.583333	1	0.200500
30.600000	1	0.205875
30.616667	1	0.211500
30.633333	1	0.218375
30.650000	1	0.224750
30.666667	1	0.232375
30.683333	1	0.240250
30.700000	1	0.248750
30.716667	1	0.258125
30.733333	1	0.267750
30.750000	1	0.277375
30.766667	1	0.287875
30.783333	1	0.298875
30.800000	1	0.311500
30.816667	1	0.324375
30.833333	1	0.338250
30.850000	1	0.352500
30.866667	1	0.368125
30.883333	1	0.384625
30.900000	1	0.403000
30.916667	1	0.422000
30.933333	1	0.443625
30.950000	1	0.467250
30.966667	1	0.492500
30.983333	1	0.521250
31.000000	1	0.554000
31.016667	1	0.590250
31.033333	1	0.630250
31.050000	1	0.675250
31.066667	1	0.725625
31.083333	1	0.781875
31.100000	1	0.845875
31.116667	1	0.916875
31.133333	1	0.995250
31.150000	1	1.082500
31.166667	1	1.177875
31.183333	1	1.282875
31.200000	1	1.396875
31.216667	1	1.521000
31.233333	1	1.654125
31.250000	1	1.796500
31.266667	1	1.947000
31.283333	1	2.105250
31.300000	1	2.270500
31.316667	1	2.441500
31.333333	1	2.616250
31.350000	1	2.794250
31.366667	1	2.973250
31.383333	1	3.152000
31.400000	1	3.328125
31.416667	1	3.498875
31.433333	1	3.662000
31.450000	1	3.816625
31.466667	1	3.959875
31.483333	1	4.088750
31.500000	1	4.202750
31.516667	1	4.299000
31.533333	1	4.377625
31.550000	1	4.437625
31.566667	1	4.477875
31.583333	1	4.497375
31.600000	1	4.496375
31.616667	1	4.475000
31.633333	1	4.434250
31.650000	1	4.374625
31.666667	1	4.297375
31.683333	1	4.203875
31.700000	1	4.095625
31.716667	1	3.974500
31.733333	1	3.841000
31.750000	1	3.698500
31.766667	1	3.548500
31.783333	1	3.393500
31.800000	1	3.233375
31.816667	1	3.070375
31.833333	1	2.906625
31.850000	1	2.743875
31.866667	1	2.583125
31.883333	1	2.425250
31.900000	1	2.271625
31.916667	1	2.123250
31.933333	1	1.980375
31.950000	1	1.844250
31.966667	1	1.714750
31.983333	1	1.591250
32.000000	1	1.475375
32.016667	1	1.366125
32.033333	1	1.263500
32.050000	1	1.167750
32.066667	1	1.078625
32.083333	1	0.995875
32.100000	1	0.919500
32.116667	1	0.848375
32.133333	1	0.784000
32.150000	1	0.723250
32.166667	1	0.667750
32.183333	1	0.616875
32.200000	1	0.569750
32.216667	1	0.526250
32.233333	1	0.487000
32.250000	1	0.450750
32.266667	1	0.417875
32.283333	1	0.388250
32.300000	1	0.361625
32.316667	1	0.336000
32.333333	1	0.312875
32.350000	1	0.292250
32.366667	1	0.273000
32.383333	1	0.256125
32.400000	1	0.240750
32.416667	1	0.226375
32.433333	1	0.213000
32.450000	1	0.201000
32.466667	1	0.189750
32.483333	1	0.180375
32.500000	1	0.172375
32.516667	1	0.163375
32.533333	1	0.155625
32.550000	1	0.148500
32.566667	1	0.142500
32.583333	1	0.137125
32.600000	1	0.132250
32.616667	1	0.127125
32.633333	1	0.122750
32.650000	1	0.117875
32.666667	1	0.114000
32.683333	1	0.110375
32.700000	1	0.106625
32.716667	1	0.103125
32.733333	1	0.099625
32.750000	1	0.096375
32.766667	1	0.093750
32.783333	1	0.090750
32.800000	1	0.088500
32.816667	1	0.086125
32.833333	1	0.084000
32.850000	1	0.082250
32.866667	1	0.080750
32.883333	1	0.079375
32.900000	1	0.078125
32.916667	1	0.077000
32.933333	1	0.075625
32.950000	1	0.074750
32.966667	1	0.074125
32.983333	1	0.073750
33.000000	1	0.073500
33.016667	1	0.073500
33.033333	1	0.073375
33.050000	1	0.073875
33.066667	1	0.073625
33.083333	1	0.073000
33.100000	1	0.073500
33.116667	1	0.074750
33.133333	1	0.075375
33.150000	1	0.076375
33.166667	1	0.077375
33.183333	1	0.078875
33.200000	1	0.080125
33.216667	1	0.081250
33.233333	1	0.082250
33.250000	1	0.084000
33.266667	1	0.085875
33.283333	1	0.086875
33.300000	1	0.088625
33.316667	1	0.090000
33.333333	1	0.091375
33.350000	1	0.093375
33.366667	1	0.094750
33.383333	1	0.096875
33.400000	1	0.097875
33.416667	1	0.099875
33.433333	1	0.102000
33.450000	1	0.104000
33.466667	1	0.105750
33.483333	1	0.107250
33.500000	1	0.109125
33.516667	1	0.111000
33.533333	1	0.113125
33.550000	1	0.115625
33.566667	1	0.117750
33.583333	1	0.119375
33.600000	1	0.121750
33.616667	1	0.124000
33.633333	1	0.126375
33.650000	1	0.128375
33.666667	1	0.130375
33.683333	1	0.132625
33.700000	1	0.134875
33.716667	1	0.136750
33.733333	1	0.139125
33.750000	1	0.141625
33.766667	1	0.144375
33.783333	1	0.146625
33.800000	1	0.149250
33.816667	1	0.150875
33.833333	1	0.153125
33.850000	1	0.154875
33.866667	1	0.156750
33.883333	1	0.158500
33.900000	1	0.159750
33.916667	1	0.161375
33.933333	1	0.163625
33.950000	1	0.165875
33.966667	1	0.167500
33.983333	1	0.168000
34.000000	1	0.169250
34.016667	1	0.169875
34.033333	1	0.170625
34.050000	1	0.170500
34.066667	1	0.171125
34.083333	1	0.171625
34.100000	1	0.171875
34.116667	1	0.171500
34.133333	1	0.171500
34.150000	1	0.170250
34.166667	1	0.170125
34.183333	1	0.169250
34.200000	1	0.169000
34.216667	1	0.167750
34.233333	1	0.166875
34.250000	1	0.166125
34.266667	1	0.165250
34.283333	1	0.164250
34.300000	1	0.164250
34.316667	1	0.163750
34.333333	1	0.162875
34.350000	1	0.162875
34.366667	1	0.162500
34.383333	1	0.161625
34.400000	1	0.161500
34.416667	1	0.161375
34.433333	1	0.161625
34.450000	1	0.161625
34.466667	1	0.161875
34.483333	1	0.161000
34.500000	1	0.161375
34.516667	1	0.162000
34.533333	1	0.162125
34.550000	1	0.161750
34.566667	1	0.162125
34.583333	1	0.162875
34.600000	1	0.163625
34.616667	1	0.164500
34.633333	1	0.164375
34.650000	1	0.164500
34.666667	1	0.164125
34.683333	1	0.164000
34.700000	1	0.164125
34.716667	1	0.164125
34.733333	1	0.164125
34.750000	1	0.164000
34.766667	1	0.164500
34.783333	1	0.164250
34.800000	1	0.164250
34.816667	1	0.163500
34.833333	1	0.163000
34.850000	1	0.162125
34.866667	1	0.160875
34.883333	1	0.160375
34.900000	1	0.159375
34.916667	1	0.158875
34.933333	1	0.158125
34.950000	1	0.157250
34.966667	1	0.156625
34.983333	1	0.155875
35.000000	1	0.155000
35.016667	1	0.154000
35.033333	1	0.152875
35.050000	1	0.152250
35.066667	1	0.151375
35.083333	1	0.151000
35.100000	1	0.150750
35.116667	1	0.150375
35.133333	1	0.149750
35.150000	1	0.149000
35.166667	1	0.148875
35.183333	1	0.149000
35.200000	1	0.149750
35.216667	1	0.150250
35.233333	1	0.150750
35.250000	1	0.151875
35.266667	1	0.153000
35.283333	1	0.154250
35.300000	1	0.155625
35.316667	1	0.157250
35.333333	1	0.158875
35.350000	1	0.160750
35.366667	1	0.163000
35.383333	1	0.165625
35.400000	1	0.168000
35.416667	1	0.170875
35.433333	1	0.173625
35.450000	1	0.176500
35.466667	1	0.179125
35.483333	1	0.182500
35.500000	1	0.184875
35.516667	1	0.187625
35.533333	1	0.191250
35.550000	1	0.194500
35.566667	1	0.197250
35.583333	1	0.199500
35.600000	1	0.201625
35.616667	1	0.204000
35.633333	1	0.206375
35.650000	1	0.208250
35.666667	1	0.209375
35.683333	1	0.211000
35.700000	1	0.212250
35.716667	1	0.213500
35.733333	1	0.214125
35.750000	1	0.214500
35.766667	1	0.214625
35.783333	1	0.214500
35.800000	1	0.214000
35.816667	1	0.213500
35.833333	1	0.212375
35.850000	1	0.211375
35.866667	1	0.208875
35.883333	1	0.207375
35.900000	1	0.206125
35.916667	1	0.204750
35.933333	1	0.202375
35.950000	1	0.200250
35.966667	1	0.198125
35.983333	1	0.194625
36.000000	1	0.192500
36.016667	1	0.189250
36.033333	1	0.186625
36.050000	1	0.183750
36.066667	1	0.180875
36.083333	1	0.178250
36.100000	1	0.176000
36.116667	1	0.172750
36.133333	1	0.170000
36.150000	1	0.167250
36.166667	1	0.164875
36.183333	1	0.162750
36.200000	1	0.160250
36.216667	1	0.158375
36.233333	1	0.156000
36.250000	1	0.153750
36.266667	1	0.152500
36.283333	1	0.151000
36.300000	1	0.149500
36.316667	1	0.148125
36.333333	1	0.146125
36.350000	1	0.145250
36.366667	1	0.144250
36.383333	1	0.143625
36.400000	1	0.142000
36.416667	1	0.140500
36.433333	1	0.140125
36.450000	1	0.138625
36.466667	1	0.137375
36.483333	1	0.136750
36.500000	1	0.136500
36.516667	1	0.135500
36.533333	1	0.133375
36.550000	1	0.132500
36.566667	1	0.131000
36.583333	1	0.129625
36.600000	1	0.128500
36.616667	1	0.127375
36.633333	1	0.125875
36.650000	1	0.124375
36.666667	1	0.123250
36.683333	1	0.121875
36.700000	1	0.121000
36.716667	1	0.119125
36.733333	1	0.117250
36.750000	1	0.116000
36.766667	1	0.113750
36.783333	1	0.111875
36.800000	1	0.110000
36.816667	1	0.108625
36.833333	1	0.107250
36.850000	1	0.105750
36.866667	1	0.104625
36.883333	1	0.103875
36.900000	1	0.102750
36.916667	1	0.101625
36.933333	1	0.100500
36.950000	1	0.099500
36.966667	1	0.098750
36.983333	1	0.098250
37.000000	1	0.097875
37.016667	1	0.096750
37.033333	1	0.097250
37.050000	1	0.097125
37.066667	1	0.097625
37.083333	1	0.098250
37.100000	1	0.098375
37.116667	1	0.098875
37.133333	1	0.099750
37.150000	1	0.100125
37.166667	1	0.101250
37.183333	1	0.102375
37.200000	1	0.103750
37.216667	1	0.104750
37.233333	1	0.106000
37.250000	1	0.108125
37.266667	1	0.110000
37.283333	1	0.111875
37.300000	1	0.113000
37.316667	1	0.114625
37.333333	1	0.116625
37.350000	1	0.118125
37.366667	1	0.119875
37.383333	1	0.120500
37.400000	1	0.121625
37.416667	1	0.123000
37.433333	1	0.123375
37.450000	1	0.124375
37.466667	1	0.125250
37.483333	1	0.125750
37.500000	1	0.126250
37.516667	1	0.126250
37.533333	1	0.126875
37.550000	1	0.126375
37.566667	1	0.126000
37.583333	1	0.125250
37.600000	1	0.125000
37.616667	1	0.123500
37.633333	1	0.121500
37.650000	1	0.119750
37.666667	1	0.118125
37.683333	1	0.116750
37.700000	1	0.114625
37.716667	1	0.113000
37.733333	1	0.111250
37.750000	1	0.108875
37.766667	1	0.106750
37.783333	1	0.104000
37.800000	1	0.101250
37.816667	1	0.099375
37.833333	1	0.097000
37.850000	1	0.094375
37.866667	1	0.092375
37.883333	1	0.090000
37.900000	1	0.089250
37.916667	1	0.087500
37.933333	1	0.084500
37.950000	1	0.082750
37.966667	1	0.080875
37.983333	1	0.079000
38.000000	1	0.077750
38.016667	1	0.076375
38.033333	1	0.074750
38.050000	1	0.073500
38.066667	1	0.072875
38.083333	1	0.071875
38.100000	1	0.071000
38.116667	1	0.069750
38.133333	1	0.069250
38.150000	1	0.068875
38.166667	1	0.068500
38.183333	1	0.068500
38.200000	1	0.068125
38.216667	1	0.067750
38.233333	1	0.067375
38.250000	1	0.067875
38.266667	1	0.068500
38.283333	1	0.069500
38.300000	1	0.070250
38.316667	1	0.071375
38.333333	1	0.071625
38.350000	1	0.071625
38.366667	1	0.072250
38.383333	1	0.073375
38.400000	1	0.074750
38.416667	1	0.075250
38.433333	1	0.076500
38.450000	1	0.077125
38.466667	1	0.078250
38.483333	1	0.079625
38.500000	1	0.081000
38.516667	1	0.082375
38.533333	1	0.083250
38.550000	1	0.084375
38.566667	1	0.085250
38.583333	1	0.086000
38.600000	1	0.086625
38.616667	1	0.087625
38.633333	1	0.088875
38.650000	1	0.089625
38.666667	1	0.091000
38.683333	1	0.091875
38.700000	1	0.092500
38.716667	1	0.093750
38.733333	1	0.094500
38.750000	1	0.095750
38.766667	1	0.096750
38.783333	1	0.097375
38.800000	1	0.098625
38.816667	1	0.099625
38.833333	1	0.100375
38.850000	1	0.101875
38.866667	1	0.103000
38.883333	1	0.103500
38.900000	1	0.104875
38.916667	1	0.106125
38.933333	1	0.107500
38.950000	1	0.107750
38.966667	1	0.108250
38.983333	1	0.108375
39.000000	1	0.108500
39.016667	1	0.108125
39.033333	1	0.107625
39.050000	1	0.107875
39.066667	1	0.108000
39.083333	1	0.107875
39.100000	1	0.107250
39.116667	1	0.107125
39.133333	1	0.105750
39.150000	1	0.104500
39.166667	1	0.103125
39.183333	1	0.101625
39.200000	1	0.100625
39.216667	1	0.098500
39.233333	1	0.096250
39.250000	1	0.094250
39.266667	1	0.092500
39.283333	1	0.090375
39.300000	1	0.088625
39.316667	1	0.085875
39.333333	1	0.083375
39.350000	1	0.080625
39.366667	1	0.077750
39.383333	1	0.074250
39.400000	1	0.071500
39.416667	1	0.068750
39.433333	1	0.066000
39.450000	1	0.062750
39.466667	1	0.059875
39.483333	1	0.057625
39.500000	1	0.054375
39.516667	1	0.051375
39.533333	1	0.048000
39.550000	1	0.044750
39.566667	1	0.041125
39.583333	1	0.038250
39.600000	1	0.035375
39.616667	1	0.032375
39.633333	1	0.029000
39.650000	1	0.026375
39.666667	1	0.024125
39.683333	1	0.021875
39.700000	1	0.019375
39.716667	1	0.017000
39.733333	1	0.014750
39.750000	1	0.012500
39.766667	1	0.010500
39.783333	1	0.008750
39.800000	1	0.007125
39.816667	1	0.006375
39.833333	1	0.004875
39.850000	1	0.003500
39.866667	1	0.003000
39.883333	1	0.003000
39.900000	1	0.002875
39.916667	1	0.002875
39.933333	1	0.001750
39.950000	1	0.001875
39.966667	1	0.002125
39.983333	1	0.002875
40.000000	1	0.003250
