URL	chrom://bioreactor/micro_cm7/HPLC_Ultimate_3000/Users/markusar/20240716_MA_pHrange2.seq/239.smp/RI_1.channel/RI_1.chm
Channel	RI_1

Injection Information:
Data Vault	micro_cm7
Sequence	20240716_MA_pHrange2
Name	Pv1_25H_4
Number	5
Position	BA5
Comment	
Processing Method	
Instrument Method	run_25B_method
Type	Unknown
Status	Finished
Inject Time	16.07.2024 20:50:21 +02:00
Volume (µl)	20.0000
Dilution Factor	1.0000
Weight	1.0000

Chromatogram Data Information:
Time Min. (min)	0.000000
Time Max. (min)	40.000000
Data Points	2401
Detector	RI
Generating Data System	Chromeleon 7.3.2.11814
Exporting Data System	Chromeleon 7.3.2.0
Operator	Instrument Controller
Signal Quantity	Refractive 
Signal Unit	µRIU
Signal Min.	-0.120375
Signal Max.	84.284000
Channel	RI_1
Driver Name	RID520Driver.dll
Channel Type	Evaluation
Min. Step (s)	1
Max. Step (s)	1
Average Step (s)	1

Signal Parameter Information:
Signal Info	

Chromatogram Data:
Time (min)	Step (s)	Value (µRIU)
0.000000	n.a.	-0.014750
0.016667	1	-0.015000
0.033333	1	-0.015250
0.050000	1	-0.014500
0.066667	1	-0.014750
0.083333	1	-0.014250
0.100000	1	-0.014000
0.116667	1	-0.014000
0.133333	1	-0.014125
0.150000	1	-0.013750
0.166667	1	-0.013125
0.183333	1	-0.013250
0.200000	1	-0.012875
0.216667	1	-0.012250
0.233333	1	-0.012000
0.250000	1	-0.011750
0.266667	1	-0.011125
0.283333	1	-0.010250
0.300000	1	-0.009500
0.316667	1	-0.008625
0.333333	1	-0.007875
0.350000	1	-0.007375
0.366667	1	-0.007000
0.383333	1	-0.007625
0.400000	1	-0.007625
0.416667	1	-0.007125
0.433333	1	-0.005750
0.450000	1	-0.003375
0.466667	1	-0.000500
0.483333	1	0.001625
0.500000	1	0.004250
0.516667	1	0.005625
0.533333	1	0.006125
0.550000	1	0.006500
0.566667	1	0.005625
0.583333	1	0.003875
0.600000	1	0.002875
0.616667	1	0.002250
0.633333	1	0.001250
0.650000	1	0.001000
0.666667	1	0.001125
0.683333	1	0.000500
0.700000	1	0.000125
0.716667	1	0.000375
0.733333	1	0.000000
0.750000	1	-0.000375
0.766667	1	-0.001000
0.783333	1	-0.002375
0.800000	1	-0.003500
0.816667	1	-0.004625
0.833333	1	-0.005125
0.850000	1	-0.005625
0.866667	1	-0.006500
0.883333	1	-0.007250
0.900000	1	-0.008875
0.916667	1	-0.009875
0.933333	1	-0.011000
0.950000	1	-0.012125
0.966667	1	-0.012250
0.983333	1	-0.013875
1.000000	1	-0.015250
1.016667	1	-0.016375
1.033333	1	-0.017750
1.050000	1	-0.018750
1.066667	1	-0.019625
1.083333	1	-0.021250
1.100000	1	-0.021750
1.116667	1	-0.022375
1.133333	1	-0.023500
1.150000	1	-0.024375
1.166667	1	-0.025250
1.183333	1	-0.026000
1.200000	1	-0.026250
1.216667	1	-0.026875
1.233333	1	-0.027500
1.250000	1	-0.027125
1.266667	1	-0.028000
1.283333	1	-0.028000
1.300000	1	-0.028625
1.316667	1	-0.029500
1.333333	1	-0.029625
1.350000	1	-0.030125
1.366667	1	-0.030375
1.383333	1	-0.030625
1.400000	1	-0.030125
1.416667	1	-0.030500
1.433333	1	-0.030500
1.450000	1	-0.031000
1.466667	1	-0.030750
1.483333	1	-0.031000
1.500000	1	-0.030875
1.516667	1	-0.030500
1.533333	1	-0.030750
1.550000	1	-0.030875
1.566667	1	-0.031125
1.583333	1	-0.031250
1.600000	1	-0.031500
1.616667	1	-0.031375
1.633333	1	-0.031250
1.650000	1	-0.031000
1.666667	1	-0.030000
1.683333	1	-0.029875
1.700000	1	-0.029500
1.716667	1	-0.029000
1.733333	1	-0.029250
1.750000	1	-0.029500
1.766667	1	-0.029000
1.783333	1	-0.028125
1.800000	1	-0.028000
1.816667	1	-0.027625
1.833333	1	-0.027000
1.850000	1	-0.026875
1.866667	1	-0.027375
1.883333	1	-0.026875
1.900000	1	-0.026500
1.916667	1	-0.026250
1.933333	1	-0.026625
1.950000	1	-0.026625
1.966667	1	-0.026500
1.983333	1	-0.026875
2.000000	1	-0.027375
2.016667	1	-0.027375
2.033333	1	-0.027375
2.050000	1	-0.027625
2.066667	1	-0.027375
2.083333	1	-0.027875
2.100000	1	-0.027875
2.116667	1	-0.027875
2.133333	1	-0.028250
2.150000	1	-0.028500
2.166667	1	-0.029500
2.183333	1	-0.029500
2.200000	1	-0.029750
2.216667	1	-0.030250
2.233333	1	-0.030750
2.250000	1	-0.030750
2.266667	1	-0.031375
2.283333	1	-0.031625
2.300000	1	-0.030750
2.316667	1	-0.030625
2.333333	1	-0.030750
2.350000	1	-0.030125
2.366667	1	-0.030250
2.383333	1	-0.029750
2.400000	1	-0.029125
2.416667	1	-0.028375
2.433333	1	-0.028375
2.450000	1	-0.027125
2.466667	1	-0.026250
2.483333	1	-0.025500
2.500000	1	-0.025250
2.516667	1	-0.024750
2.533333	1	-0.024125
2.550000	1	-0.023125
2.566667	1	-0.021750
2.583333	1	-0.020375
2.600000	1	-0.019250
2.616667	1	-0.018125
2.633333	1	-0.016750
2.650000	1	-0.015250
2.666667	1	-0.014125
2.683333	1	-0.012875
2.700000	1	-0.011875
2.716667	1	-0.011000
2.733333	1	-0.009750
2.750000	1	-0.008625
2.766667	1	-0.007375
2.783333	1	-0.005625
2.800000	1	-0.004125
2.816667	1	-0.002875
2.833333	1	-0.001000
2.850000	1	0.000500
2.866667	1	0.002625
2.883333	1	0.003875
2.900000	1	0.005375
2.916667	1	0.007000
2.933333	1	0.008875
2.950000	1	0.010375
2.966667	1	0.012125
2.983333	1	0.013375
3.000000	1	0.014750
3.016667	1	0.016125
3.033333	1	0.017750
3.050000	1	0.018250
3.066667	1	0.019625
3.083333	1	0.021125
3.100000	1	0.022250
3.116667	1	0.023000
3.133333	1	0.023500
3.150000	1	0.024125
3.166667	1	0.025125
3.183333	1	0.025625
3.200000	1	0.027000
3.216667	1	0.027750
3.233333	1	0.028625
3.250000	1	0.029250
3.266667	1	0.030750
3.283333	1	0.031875
3.300000	1	0.032875
3.316667	1	0.033875
3.333333	1	0.034750
3.350000	1	0.036250
3.366667	1	0.037375
3.383333	1	0.038625
3.400000	1	0.040000
3.416667	1	0.041875
3.433333	1	0.043750
3.450000	1	0.045125
3.466667	1	0.047375
3.483333	1	0.049125
3.500000	1	0.050625
3.516667	1	0.052500
3.533333	1	0.054125
3.550000	1	0.054625
3.566667	1	0.056125
3.583333	1	0.057125
3.600000	1	0.058750
3.616667	1	0.060000
3.633333	1	0.061250
3.650000	1	0.062125
3.666667	1	0.062500
3.683333	1	0.063000
3.700000	1	0.063125
3.716667	1	0.063375
3.733333	1	0.062875
3.750000	1	0.062375
3.766667	1	0.062250
3.783333	1	0.061875
3.800000	1	0.062000
3.816667	1	0.061125
3.833333	1	0.059750
3.850000	1	0.058750
3.866667	1	0.057500
3.883333	1	0.056875
3.900000	1	0.055250
3.916667	1	0.054500
3.933333	1	0.053250
3.950000	1	0.051750
3.966667	1	0.050625
3.983333	1	0.050000
4.000000	1	0.048875
4.016667	1	0.048500
4.033333	1	0.048250
4.050000	1	0.047625
4.066667	1	0.046625
4.083333	1	0.046750
4.100000	1	0.046500
4.116667	1	0.046375
4.133333	1	0.046750
4.150000	1	0.047750
4.166667	1	0.048750
4.183333	1	0.049625
4.200000	1	0.050750
4.216667	1	0.052250
4.233333	1	0.053625
4.250000	1	0.054875
4.266667	1	0.056500
4.283333	1	0.058250
4.300000	1	0.060250
4.316667	1	0.062625
4.333333	1	0.065125
4.350000	1	0.067500
4.366667	1	0.069875
4.383333	1	0.072500
4.400000	1	0.075000
4.416667	1	0.076875
4.433333	1	0.079125
4.450000	1	0.082000
4.466667	1	0.084375
4.483333	1	0.087125
4.500000	1	0.089375
4.516667	1	0.091000
4.533333	1	0.093125
4.550000	1	0.095500
4.566667	1	0.096875
4.583333	1	0.098250
4.600000	1	0.099250
4.616667	1	0.100375
4.633333	1	0.101750
4.650000	1	0.103500
4.666667	1	0.104625
4.683333	1	0.105750
4.700000	1	0.107250
4.716667	1	0.108000
4.733333	1	0.108750
4.750000	1	0.110125
4.766667	1	0.110750
4.783333	1	0.111875
4.800000	1	0.112625
4.816667	1	0.113625
4.833333	1	0.115000
4.850000	1	0.116750
4.866667	1	0.118625
4.883333	1	0.119750
4.900000	1	0.121375
4.916667	1	0.123625
4.933333	1	0.125500
4.950000	1	0.127625
4.966667	1	0.131125
4.983333	1	0.134000
5.000000	1	0.137000
5.016667	1	0.140000
5.033333	1	0.143500
5.050000	1	0.147000
5.066667	1	0.150500
5.083333	1	0.153875
5.100000	1	0.158000
5.116667	1	0.162250
5.133333	1	0.166125
5.150000	1	0.170375
5.166667	1	0.174500
5.183333	1	0.178875
5.200000	1	0.184000
5.216667	1	0.188500
5.233333	1	0.193125
5.250000	1	0.197125
5.266667	1	0.202000
5.283333	1	0.206250
5.300000	1	0.209250
5.316667	1	0.213000
5.333333	1	0.216750
5.350000	1	0.220000
5.366667	1	0.223375
5.383333	1	0.226750
5.400000	1	0.229750
5.416667	1	0.232750
5.433333	1	0.235000
5.450000	1	0.236750
5.466667	1	0.237875
5.483333	1	0.239625
5.500000	1	0.239625
5.516667	1	0.240125
5.533333	1	0.239750
5.550000	1	0.240375
5.566667	1	0.239375
5.583333	1	0.238250
5.600000	1	0.236875
5.616667	1	0.235125
5.633333	1	0.233000
5.650000	1	0.230750
5.666667	1	0.227875
5.683333	1	0.225000
5.700000	1	0.221625
5.716667	1	0.217875
5.733333	1	0.213750
5.750000	1	0.209125
5.766667	1	0.205250
5.783333	1	0.201000
5.800000	1	0.196125
5.816667	1	0.191375
5.833333	1	0.186750
5.850000	1	0.181000
5.866667	1	0.176625
5.883333	1	0.171375
5.900000	1	0.165500
5.916667	1	0.160125
5.933333	1	0.154375
5.950000	1	0.148750
5.966667	1	0.142875
5.983333	1	0.137625
6.000000	1	0.132250
6.016667	1	0.126000
6.033333	1	0.120750
6.050000	1	0.115250
6.066667	1	0.109375
6.083333	1	0.103375
6.100000	1	0.097750
6.116667	1	0.092500
6.133333	1	0.087500
6.150000	1	0.082125
6.166667	1	0.077000
6.183333	1	0.072875
6.200000	1	0.068375
6.216667	1	0.063750
6.233333	1	0.059125
6.250000	1	0.054875
6.266667	1	0.050625
6.283333	1	0.046500
6.300000	1	0.041875
6.316667	1	0.038375
6.333333	1	0.034500
6.350000	1	0.031000
6.366667	1	0.028125
6.383333	1	0.024875
6.400000	1	0.022000
6.416667	1	0.018500
6.433333	1	0.015875
6.450000	1	0.013250
6.466667	1	0.010375
6.483333	1	0.008125
6.500000	1	0.005750
6.516667	1	0.003375
6.533333	1	0.001625
6.550000	1	-0.000125
6.566667	1	-0.001375
6.583333	1	-0.002750
6.600000	1	-0.004000
6.616667	1	-0.005125
6.633333	1	-0.005875
6.650000	1	-0.006625
6.666667	1	-0.006750
6.683333	1	-0.006625
6.700000	1	-0.006875
6.716667	1	-0.005375
6.733333	1	-0.004500
6.750000	1	-0.002625
6.766667	1	-0.001125
6.783333	1	0.000625
6.800000	1	0.002625
6.816667	1	0.004625
6.833333	1	0.007250
6.850000	1	0.010375
6.866667	1	0.013250
6.883333	1	0.016750
6.900000	1	0.020125
6.916667	1	0.024000
6.933333	1	0.028125
6.950000	1	0.031500
6.966667	1	0.035625
6.983333	1	0.039250
7.000000	1	0.043375
7.016667	1	0.047250
7.033333	1	0.050750
7.050000	1	0.055250
7.066667	1	0.059000
7.083333	1	0.063000
7.100000	1	0.066625
7.116667	1	0.070625
7.133333	1	0.074500
7.150000	1	0.077875
7.166667	1	0.081375
7.183333	1	0.084125
7.200000	1	0.087125
7.216667	1	0.089875
7.233333	1	0.092250
7.250000	1	0.094875
7.266667	1	0.096375
7.283333	1	0.098375
7.300000	1	0.100000
7.316667	1	0.101750
7.333333	1	0.102875
7.350000	1	0.103875
7.366667	1	0.103750
7.383333	1	0.103875
7.400000	1	0.104250
7.416667	1	0.104000
7.433333	1	0.103750
7.450000	1	0.103250
7.466667	1	0.102750
7.483333	1	0.101250
7.500000	1	0.099250
7.516667	1	0.098000
7.533333	1	0.096375
7.550000	1	0.093750
7.566667	1	0.091500
7.583333	1	0.089750
7.600000	1	0.086750
7.616667	1	0.084500
7.633333	1	0.082125
7.650000	1	0.078625
7.666667	1	0.075250
7.683333	1	0.072000
7.700000	1	0.069125
7.716667	1	0.065375
7.733333	1	0.062125
7.750000	1	0.059250
7.766667	1	0.056250
7.783333	1	0.053125
7.800000	1	0.049750
7.816667	1	0.046625
7.833333	1	0.043250
7.850000	1	0.040000
7.866667	1	0.037500
7.883333	1	0.034875
7.900000	1	0.032500
7.916667	1	0.029875
7.933333	1	0.027500
7.950000	1	0.025250
7.966667	1	0.023000
7.983333	1	0.020875
8.000000	1	0.019000
8.016667	1	0.017000
8.033333	1	0.015250
8.050000	1	0.014250
8.066667	1	0.012625
8.083333	1	0.011125
8.100000	1	0.009750
8.116667	1	0.008500
8.133333	1	0.007750
8.150000	1	0.007000
8.166667	1	0.006125
8.183333	1	0.005125
8.200000	1	0.004250
8.216667	1	0.003625
8.233333	1	0.003250
8.250000	1	0.002375
8.266667	1	0.002250
8.283333	1	0.001500
8.300000	1	0.001000
8.316667	1	0.000875
8.333333	1	0.000375
8.350000	1	0.000375
8.366667	1	0.000500
8.383333	1	-0.000250
8.400000	1	-0.000500
8.416667	1	-0.001000
8.433333	1	-0.001375
8.450000	1	-0.001625
8.466667	1	-0.001875
8.483333	1	-0.002125
8.500000	1	-0.001625
8.516667	1	-0.001625
8.533333	1	-0.001125
8.550000	1	-0.001500
8.566667	1	-0.001125
8.583333	1	-0.001125
8.600000	1	-0.001000
8.616667	1	-0.000625
8.633333	1	-0.000125
8.650000	1	-0.000250
8.666667	1	-0.000375
8.683333	1	-0.000625
8.700000	1	-0.000750
8.716667	1	-0.000750
8.733333	1	-0.000750
8.750000	1	-0.000250
8.766667	1	-0.000125
8.783333	1	-0.000250
8.800000	1	0.000000
8.816667	1	-0.000250
8.833333	1	0.000000
8.850000	1	0.000000
8.866667	1	0.000500
8.883333	1	0.001125
8.900000	1	0.001750
8.916667	1	0.001875
8.933333	1	0.002125
8.950000	1	0.002375
8.966667	1	0.002250
8.983333	1	0.002625
9.000000	1	0.002125
9.016667	1	0.002000
9.033333	1	0.002875
9.050000	1	0.003500
9.066667	1	0.003875
9.083333	1	0.003500
9.100000	1	0.003875
9.116667	1	0.004750
9.133333	1	0.004875
9.150000	1	0.004375
9.166667	1	0.004125
9.183333	1	0.004000
9.200000	1	0.004125
9.216667	1	0.003625
9.233333	1	0.002625
9.250000	1	0.002375
9.266667	1	0.001875
9.283333	1	0.000750
9.300000	1	0.000000
9.316667	1	-0.000875
9.333333	1	-0.001250
9.350000	1	-0.003375
9.366667	1	-0.004500
9.383333	1	-0.006625
9.400000	1	-0.008500
9.416667	1	-0.010125
9.433333	1	-0.012125
9.450000	1	-0.014000
9.466667	1	-0.016375
9.483333	1	-0.018500
9.500000	1	-0.021000
9.516667	1	-0.023625
9.533333	1	-0.025500
9.550000	1	-0.028375
9.566667	1	-0.031250
9.583333	1	-0.033875
9.600000	1	-0.036375
9.616667	1	-0.039125
9.633333	1	-0.041875
9.650000	1	-0.044625
9.666667	1	-0.046875
9.683333	1	-0.049000
9.700000	1	-0.051375
9.716667	1	-0.054375
9.733333	1	-0.056250
9.750000	1	-0.057875
9.766667	1	-0.059625
9.783333	1	-0.061375
9.800000	1	-0.062750
9.816667	1	-0.063500
9.833333	1	-0.064625
9.850000	1	-0.065750
9.866667	1	-0.066750
9.883333	1	-0.066625
9.900000	1	-0.067000
9.916667	1	-0.067000
9.933333	1	-0.066625
9.950000	1	-0.066000
9.966667	1	-0.064750
9.983333	1	-0.063250
10.000000	1	-0.062000
10.016667	1	-0.060625
10.033333	1	-0.058000
10.050000	1	-0.055625
10.066667	1	-0.052750
10.083333	1	-0.048625
10.100000	1	-0.044000
10.116667	1	-0.039125
10.133333	1	-0.032875
10.150000	1	-0.026125
10.166667	1	-0.019500
10.183333	1	-0.011250
10.200000	1	-0.002625
10.216667	1	0.006750
10.233333	1	0.017375
10.250000	1	0.029500
10.266667	1	0.043250
10.283333	1	0.057875
10.300000	1	0.073750
10.316667	1	0.091875
10.333333	1	0.111750
10.350000	1	0.131250
10.366667	1	0.148500
10.383333	1	0.160750
10.400000	1	0.164125
10.416667	1	0.154500
10.433333	1	0.126375
10.450000	1	0.078250
10.466667	1	0.013125
10.483333	1	-0.058625
10.500000	1	-0.114500
10.516667	1	-0.120375
10.533333	1	-0.029625
10.550000	1	0.216250
10.566667	1	0.683375
10.583333	1	1.436875
10.600000	1	2.542625
10.616667	1	4.056250
10.633333	1	6.022750
10.650000	1	8.471625
10.666667	1	11.430250
10.683333	1	14.907250
10.700000	1	18.906375
10.716667	1	23.415375
10.733333	1	28.413875
10.750000	1	33.870625
10.766667	1	39.742875
10.783333	1	45.969375
10.800000	1	52.467500
10.816667	1	59.117625
10.833333	1	65.734625
10.850000	1	72.037625
10.866667	1	77.623375
10.883333	1	81.929000
10.900000	1	84.284000
10.916667	1	84.052375
10.933333	1	80.876875
10.950000	1	74.886250
10.966667	1	66.735625
10.983333	1	57.398500
11.000000	1	47.876625
11.016667	1	38.960625
11.033333	1	31.127375
11.050000	1	24.555625
11.066667	1	19.221625
11.083333	1	14.999250
11.100000	1	11.718625
11.116667	1	9.207625
11.133333	1	7.304500
11.150000	1	5.872625
11.166667	1	4.797375
11.183333	1	3.988250
11.200000	1	3.377500
11.216667	1	2.912125
11.233333	1	2.554375
11.250000	1	2.276125
11.266667	1	2.056500
11.283333	1	1.879875
11.300000	1	1.736875
11.316667	1	1.619250
11.333333	1	1.521125
11.350000	1	1.437750
11.366667	1	1.368000
11.383333	1	1.307500
11.400000	1	1.255500
11.416667	1	1.210750
11.433333	1	1.171875
11.450000	1	1.138500
11.466667	1	1.109500
11.483333	1	1.085250
11.500000	1	1.063125
11.516667	1	1.044750
11.533333	1	1.028875
11.550000	1	1.015125
11.566667	1	1.003375
11.583333	1	0.993750
11.600000	1	0.984250
11.616667	1	0.976500
11.633333	1	0.970500
11.650000	1	0.966000
11.666667	1	0.962625
11.683333	1	0.960750
11.700000	1	0.960250
11.716667	1	0.960500
11.733333	1	0.962125
11.750000	1	0.964625
11.766667	1	0.967750
11.783333	1	0.972625
11.800000	1	0.977500
11.816667	1	0.983625
11.833333	1	0.989875
11.850000	1	0.996000
11.866667	1	1.002000
11.883333	1	1.007500
11.900000	1	1.012500
11.916667	1	1.017375
11.933333	1	1.021000
11.950000	1	1.023750
11.966667	1	1.024750
11.983333	1	1.025500
12.000000	1	1.025750
12.016667	1	1.025500
12.033333	1	1.024500
12.050000	1	1.023000
12.066667	1	1.022500
12.083333	1	1.021875
12.100000	1	1.021750
12.116667	1	1.021125
12.133333	1	1.021625
12.150000	1	1.022250
12.166667	1	1.023250
12.183333	1	1.025625
12.200000	1	1.027875
12.216667	1	1.032000
12.233333	1	1.037375
12.250000	1	1.044125
12.266667	1	1.053000
12.283333	1	1.064375
12.300000	1	1.080125
12.316667	1	1.102125
12.333333	1	1.130500
12.350000	1	1.168250
12.366667	1	1.217250
12.383333	1	1.282750
12.400000	1	1.367000
12.416667	1	1.474250
12.433333	1	1.609250
12.450000	1	1.777750
12.466667	1	1.983875
12.483333	1	2.233375
12.500000	1	2.529750
12.516667	1	2.877375
12.533333	1	3.278750
12.550000	1	3.735500
12.566667	1	4.248000
12.583333	1	4.813625
12.600000	1	5.427250
12.616667	1	6.081000
12.633333	1	6.765875
12.650000	1	7.469875
12.666667	1	8.180500
12.683333	1	8.885000
12.700000	1	9.571250
12.716667	1	10.229125
12.733333	1	10.851750
12.750000	1	11.438375
12.766667	1	11.988625
12.783333	1	12.509625
12.800000	1	13.009500
12.816667	1	13.496375
12.833333	1	13.982125
12.850000	1	14.476750
12.866667	1	14.989125
12.883333	1	15.525250
12.900000	1	16.090375
12.916667	1	16.687000
12.933333	1	17.316750
12.950000	1	17.979875
12.966667	1	18.674500
12.983333	1	19.399750
13.000000	1	20.152875
13.016667	1	20.931750
13.033333	1	21.735625
13.050000	1	22.564000
13.066667	1	23.415500
13.083333	1	24.290000
13.100000	1	25.185875
13.116667	1	26.102000
13.133333	1	27.037500
13.150000	1	27.991875
13.166667	1	28.965375
13.183333	1	29.957000
13.200000	1	30.967125
13.216667	1	31.995000
13.233333	1	33.042875
13.250000	1	34.111875
13.266667	1	35.200500
13.283333	1	36.310375
13.300000	1	37.441750
13.316667	1	38.594625
13.333333	1	39.768750
13.350000	1	40.963375
13.366667	1	42.181125
13.383333	1	43.422625
13.400000	1	44.687000
13.416667	1	45.974750
13.433333	1	47.287500
13.450000	1	48.625875
13.466667	1	49.993125
13.483333	1	51.389125
13.500000	1	52.813625
13.516667	1	54.267875
13.533333	1	55.751250
13.550000	1	57.264875
13.566667	1	58.808375
13.583333	1	60.382500
13.600000	1	61.986000
13.616667	1	63.620625
13.633333	1	65.287875
13.650000	1	66.991250
13.666667	1	68.730500
13.683333	1	70.506625
13.700000	1	72.320625
13.716667	1	74.171875
13.733333	1	76.057875
13.750000	1	77.967000
13.766667	1	79.849750
13.783333	1	81.583875
13.800000	1	82.957625
13.816667	1	83.705250
13.833333	1	83.550875
13.850000	1	82.230375
13.866667	1	79.473125
13.883333	1	75.020625
13.900000	1	68.732750
13.916667	1	60.785125
13.933333	1	51.772500
13.950000	1	42.583000
13.966667	1	34.087500
13.983333	1	26.844125
14.000000	1	21.019500
14.016667	1	16.499875
14.033333	1	13.062125
14.050000	1	10.476250
14.066667	1	8.548875
14.083333	1	7.124375
14.100000	1	6.078875
14.116667	1	5.312625
14.133333	1	4.749250
14.150000	1	4.331000
14.166667	1	4.016625
14.183333	1	3.775875
14.200000	1	3.587750
14.216667	1	3.436625
14.233333	1	3.312500
14.250000	1	3.208250
14.266667	1	3.118375
14.283333	1	3.039500
14.300000	1	2.969125
14.316667	1	2.907125
14.333333	1	2.851625
14.350000	1	2.801375
14.366667	1	2.756750
14.383333	1	2.718125
14.400000	1	2.685750
14.416667	1	2.661375
14.433333	1	2.645625
14.450000	1	2.641875
14.466667	1	2.654375
14.483333	1	2.687625
14.500000	1	2.748375
14.516667	1	2.848500
14.533333	1	2.999875
14.550000	1	3.219875
14.566667	1	3.533125
14.583333	1	3.969000
14.600000	1	4.562750
14.616667	1	5.360625
14.633333	1	6.416375
14.650000	1	7.789750
14.666667	1	9.544125
14.683333	1	11.744000
14.700000	1	14.448125
14.716667	1	17.701625
14.733333	1	21.527750
14.750000	1	25.920500
14.766667	1	30.838000
14.783333	1	36.188500
14.800000	1	41.847250
14.816667	1	47.645375
14.833333	1	53.379000
14.850000	1	58.811375
14.866667	1	63.697250
14.883333	1	67.795125
14.900000	1	70.893125
14.916667	1	72.829625
14.933333	1	73.507375
14.950000	1	72.897500
14.966667	1	71.050125
14.983333	1	68.088750
15.000000	1	64.184750
15.016667	1	59.548375
15.033333	1	54.408750
15.050000	1	49.001000
15.066667	1	43.542625
15.083333	1	38.221875
15.100000	1	33.187500
15.116667	1	28.547125
15.133333	1	24.364875
15.150000	1	20.669625
15.166667	1	17.460625
15.183333	1	14.716375
15.200000	1	12.397500
15.216667	1	10.458000
15.233333	1	8.850375
15.250000	1	7.527875
15.266667	1	6.446875
15.283333	1	5.567625
15.300000	1	4.856500
15.316667	1	4.282625
15.333333	1	3.822750
15.350000	1	3.455250
15.366667	1	3.163125
15.383333	1	2.933375
15.400000	1	2.754375
15.416667	1	2.615750
15.433333	1	2.511125
15.450000	1	2.432625
15.466667	1	2.375375
15.483333	1	2.334750
15.500000	1	2.305375
15.516667	1	2.283250
15.533333	1	2.266375
15.550000	1	2.248875
15.566667	1	2.230625
15.583333	1	2.208375
15.600000	1	2.181625
15.616667	1	2.150125
15.633333	1	2.114500
15.650000	1	2.075500
15.666667	1	2.033375
15.683333	1	1.990000
15.700000	1	1.946375
15.716667	1	1.903250
15.733333	1	1.861875
15.750000	1	1.822750
15.766667	1	1.785375
15.783333	1	1.750875
15.800000	1	1.717375
15.816667	1	1.686500
15.833333	1	1.656250
15.850000	1	1.627500
15.866667	1	1.598875
15.883333	1	1.572000
15.900000	1	1.546000
15.916667	1	1.521125
15.933333	1	1.497375
15.950000	1	1.476750
15.966667	1	1.457125
15.983333	1	1.441375
16.000000	1	1.428375
16.016667	1	1.418500
16.033333	1	1.411750
16.050000	1	1.406875
16.066667	1	1.404375
16.083333	1	1.402625
16.100000	1	1.402000
16.116667	1	1.401875
16.133333	1	1.401625
16.150000	1	1.400250
16.166667	1	1.397875
16.183333	1	1.394000
16.200000	1	1.387750
16.216667	1	1.379875
16.233333	1	1.370125
16.250000	1	1.358125
16.266667	1	1.343500
16.283333	1	1.328250
16.300000	1	1.313000
16.316667	1	1.296625
16.333333	1	1.280250
16.350000	1	1.263750
16.366667	1	1.246625
16.383333	1	1.230250
16.400000	1	1.214750
16.416667	1	1.200750
16.433333	1	1.187250
16.450000	1	1.175500
16.466667	1	1.166125
16.483333	1	1.158125
16.500000	1	1.152125
16.516667	1	1.148500
16.533333	1	1.146250
16.550000	1	1.146625
16.566667	1	1.148375
16.583333	1	1.152250
16.600000	1	1.156375
16.616667	1	1.160625
16.633333	1	1.165750
16.650000	1	1.169875
16.666667	1	1.173500
16.683333	1	1.176125
16.700000	1	1.177750
16.716667	1	1.178125
16.733333	1	1.177500
16.750000	1	1.176500
16.766667	1	1.175000
16.783333	1	1.173375
16.800000	1	1.171375
16.816667	1	1.169875
16.833333	1	1.168750
16.850000	1	1.168375
16.866667	1	1.169125
16.883333	1	1.169750
16.900000	1	1.170750
16.916667	1	1.171750
16.933333	1	1.172125
16.950000	1	1.172250
16.966667	1	1.171250
16.983333	1	1.169000
17.000000	1	1.165750
17.016667	1	1.161875
17.033333	1	1.156375
17.050000	1	1.150000
17.066667	1	1.143375
17.083333	1	1.137125
17.100000	1	1.129375
17.116667	1	1.123000
17.133333	1	1.116750
17.150000	1	1.111125
17.166667	1	1.106375
17.183333	1	1.101875
17.200000	1	1.098750
17.216667	1	1.096500
17.233333	1	1.094750
17.250000	1	1.093250
17.266667	1	1.092375
17.283333	1	1.093125
17.300000	1	1.093875
17.316667	1	1.095375
17.333333	1	1.098125
17.350000	1	1.099875
17.366667	1	1.103125
17.383333	1	1.105625
17.400000	1	1.108500
17.416667	1	1.111250
17.433333	1	1.113625
17.450000	1	1.115750
17.466667	1	1.116750
17.483333	1	1.116500
17.500000	1	1.115750
17.516667	1	1.114000
17.533333	1	1.110625
17.550000	1	1.106375
17.566667	1	1.100000
17.583333	1	1.092125
17.600000	1	1.083500
17.616667	1	1.073250
17.633333	1	1.062125
17.650000	1	1.049250
17.666667	1	1.036000
17.683333	1	1.022375
17.700000	1	1.007875
17.716667	1	0.993250
17.733333	1	0.979000
17.750000	1	0.964875
17.766667	1	0.951375
17.783333	1	0.938250
17.800000	1	0.926000
17.816667	1	0.914500
17.833333	1	0.903375
17.850000	1	0.893000
17.866667	1	0.882750
17.883333	1	0.874000
17.900000	1	0.865500
17.916667	1	0.857750
17.933333	1	0.850875
17.950000	1	0.844500
17.966667	1	0.839000
17.983333	1	0.833250
18.000000	1	0.828125
18.016667	1	0.823125
18.033333	1	0.817750
18.050000	1	0.812250
18.066667	1	0.807250
18.083333	1	0.801750
18.100000	1	0.796000
18.116667	1	0.790625
18.133333	1	0.785625
18.150000	1	0.780750
18.166667	1	0.775125
18.183333	1	0.770500
18.200000	1	0.766750
18.216667	1	0.763000
18.233333	1	0.760000
18.250000	1	0.758000
18.266667	1	0.756125
18.283333	1	0.754625
18.300000	1	0.753875
18.316667	1	0.753750
18.333333	1	0.754000
18.350000	1	0.753875
18.366667	1	0.754375
18.383333	1	0.755875
18.400000	1	0.757250
18.416667	1	0.759125
18.433333	1	0.761750
18.450000	1	0.765875
18.466667	1	0.770500
18.483333	1	0.775750
18.500000	1	0.782375
18.516667	1	0.789750
18.533333	1	0.799125
18.550000	1	0.810875
18.566667	1	0.823500
18.583333	1	0.838625
18.600000	1	0.855125
18.616667	1	0.873750
18.633333	1	0.894875
18.650000	1	0.917000
18.666667	1	0.942000
18.683333	1	0.968750
18.700000	1	0.997000
18.716667	1	1.026500
18.733333	1	1.057250
18.750000	1	1.089500
18.766667	1	1.123125
18.783333	1	1.156625
18.800000	1	1.190500
18.816667	1	1.224000
18.833333	1	1.256500
18.850000	1	1.286875
18.866667	1	1.315250
18.883333	1	1.340250
18.900000	1	1.362250
18.916667	1	1.379625
18.933333	1	1.391625
18.950000	1	1.397375
18.966667	1	1.397500
18.983333	1	1.391250
19.000000	1	1.379000
19.016667	1	1.360375
19.033333	1	1.335875
19.050000	1	1.305750
19.066667	1	1.270500
19.083333	1	1.231625
19.100000	1	1.189625
19.116667	1	1.147125
19.133333	1	1.104375
19.150000	1	1.063250
19.166667	1	1.024375
19.183333	1	0.990375
19.200000	1	0.961375
19.216667	1	0.939125
19.233333	1	0.925125
19.250000	1	0.920375
19.266667	1	0.926125
19.283333	1	0.943875
19.300000	1	0.975000
19.316667	1	1.020375
19.333333	1	1.080375
19.350000	1	1.156625
19.366667	1	1.248750
19.383333	1	1.357625
19.400000	1	1.483500
19.416667	1	1.624125
19.433333	1	1.778250
19.450000	1	1.944625
19.466667	1	2.120250
19.483333	1	2.301250
19.500000	1	2.483875
19.516667	1	2.662875
19.533333	1	2.833750
19.550000	1	2.991875
19.566667	1	3.131750
19.583333	1	3.248750
19.600000	1	3.339750
19.616667	1	3.400375
19.633333	1	3.429875
19.650000	1	3.427625
19.666667	1	3.393625
19.683333	1	3.329625
19.700000	1	3.238500
19.716667	1	3.124250
19.733333	1	2.990500
19.750000	1	2.840750
19.766667	1	2.680125
19.783333	1	2.513625
19.800000	1	2.344625
19.816667	1	2.176625
19.833333	1	2.012875
19.850000	1	1.856250
19.866667	1	1.707625
19.883333	1	1.568750
19.900000	1	1.441250
19.916667	1	1.325125
19.933333	1	1.219375
19.950000	1	1.123625
19.966667	1	1.038125
19.983333	1	0.962625
20.000000	1	0.895625
20.016667	1	0.837375
20.033333	1	0.787125
20.050000	1	0.744125
20.066667	1	0.707000
20.083333	1	0.677000
20.100000	1	0.652875
20.116667	1	0.634250
20.133333	1	0.620125
20.150000	1	0.610250
20.166667	1	0.605500
20.183333	1	0.605000
20.200000	1	0.607125
20.216667	1	0.611125
20.233333	1	0.618875
20.250000	1	0.628125
20.266667	1	0.639250
20.283333	1	0.650750
20.300000	1	0.661750
20.316667	1	0.672125
20.333333	1	0.681000
20.350000	1	0.687875
20.366667	1	0.692750
20.383333	1	0.694750
20.400000	1	0.694625
20.416667	1	0.691875
20.433333	1	0.686625
20.450000	1	0.680500
20.466667	1	0.672375
20.483333	1	0.663125
20.500000	1	0.654000
20.516667	1	0.645375
20.533333	1	0.638625
20.550000	1	0.634750
20.566667	1	0.634875
20.583333	1	0.639250
20.600000	1	0.649125
20.616667	1	0.665375
20.633333	1	0.688500
20.650000	1	0.718250
20.666667	1	0.755750
20.683333	1	0.801375
20.700000	1	0.853000
20.716667	1	0.912000
20.733333	1	0.976875
20.750000	1	1.047375
20.766667	1	1.120875
20.783333	1	1.196625
20.800000	1	1.271750
20.816667	1	1.343750
20.833333	1	1.410625
20.850000	1	1.470500
20.866667	1	1.520750
20.883333	1	1.560125
20.900000	1	1.587250
20.916667	1	1.601500
20.933333	1	1.601500
20.950000	1	1.587500
20.966667	1	1.560250
20.983333	1	1.520625
21.000000	1	1.470375
21.016667	1	1.411000
21.033333	1	1.344625
21.050000	1	1.273625
21.066667	1	1.200500
21.083333	1	1.126250
21.100000	1	1.053250
21.116667	1	0.982625
21.133333	1	0.915000
21.150000	1	0.851000
21.166667	1	0.793125
21.183333	1	0.740125
21.200000	1	0.692750
21.216667	1	0.650125
21.233333	1	0.612125
21.250000	1	0.578750
21.266667	1	0.551000
21.283333	1	0.526625
21.300000	1	0.506125
21.316667	1	0.488250
21.333333	1	0.473375
21.350000	1	0.460750
21.366667	1	0.449625
21.383333	1	0.441000
21.400000	1	0.433250
21.416667	1	0.427000
21.433333	1	0.420750
21.450000	1	0.415375
21.466667	1	0.410750
21.483333	1	0.407000
21.500000	1	0.404250
21.516667	1	0.402000
21.533333	1	0.399500
21.550000	1	0.397750
21.566667	1	0.397250
21.583333	1	0.396875
21.600000	1	0.396500
21.616667	1	0.397125
21.633333	1	0.398625
21.650000	1	0.400750
21.666667	1	0.403750
21.683333	1	0.407750
21.700000	1	0.412125
21.716667	1	0.417875
21.733333	1	0.424375
21.750000	1	0.431875
21.766667	1	0.440500
21.783333	1	0.449500
21.800000	1	0.459500
21.816667	1	0.470375
21.833333	1	0.481875
21.850000	1	0.493500
21.866667	1	0.505375
21.883333	1	0.518750
21.900000	1	0.531625
21.916667	1	0.544250
21.933333	1	0.557250
21.950000	1	0.569500
21.966667	1	0.581375
21.983333	1	0.593375
22.000000	1	0.603250
22.016667	1	0.613250
22.033333	1	0.621625
22.050000	1	0.629250
22.066667	1	0.635375
22.083333	1	0.640750
22.100000	1	0.644875
22.116667	1	0.647125
22.133333	1	0.648000
22.150000	1	0.647875
22.166667	1	0.646250
22.183333	1	0.643125
22.200000	1	0.638500
22.216667	1	0.632500
22.233333	1	0.625500
22.250000	1	0.617250
22.266667	1	0.607500
22.283333	1	0.596375
22.300000	1	0.584125
22.316667	1	0.571875
22.333333	1	0.558250
22.350000	1	0.544000
22.366667	1	0.529000
22.383333	1	0.514250
22.400000	1	0.499250
22.416667	1	0.484625
22.433333	1	0.469750
22.450000	1	0.455000
22.466667	1	0.440375
22.483333	1	0.426125
22.500000	1	0.412375
22.516667	1	0.399500
22.533333	1	0.387250
22.550000	1	0.375500
22.566667	1	0.365000
22.583333	1	0.354875
22.600000	1	0.345500
22.616667	1	0.336625
22.633333	1	0.328125
22.650000	1	0.320875
22.666667	1	0.313500
22.683333	1	0.307375
22.700000	1	0.301125
22.716667	1	0.295625
22.733333	1	0.290250
22.750000	1	0.285625
22.766667	1	0.280750
22.783333	1	0.276125
22.800000	1	0.272000
22.816667	1	0.267625
22.833333	1	0.263625
22.850000	1	0.259625
22.866667	1	0.256000
22.883333	1	0.252875
22.900000	1	0.250375
22.916667	1	0.247750
22.933333	1	0.245250
22.950000	1	0.243625
22.966667	1	0.242500
22.983333	1	0.241625
23.000000	1	0.241500
23.016667	1	0.241375
23.033333	1	0.241375
23.050000	1	0.241750
23.066667	1	0.242375
23.083333	1	0.243875
23.100000	1	0.245250
23.116667	1	0.247000
23.133333	1	0.249375
23.150000	1	0.252250
23.166667	1	0.254875
23.183333	1	0.258000
23.200000	1	0.261500
23.216667	1	0.264875
23.233333	1	0.269000
23.250000	1	0.273500
23.266667	1	0.279500
23.283333	1	0.286125
23.300000	1	0.293625
23.316667	1	0.304000
23.333333	1	0.316000
23.350000	1	0.330500
23.366667	1	0.349500
23.383333	1	0.372375
23.400000	1	0.399500
23.416667	1	0.432500
23.433333	1	0.472875
23.450000	1	0.521125
23.466667	1	0.577875
23.483333	1	0.646000
23.500000	1	0.725750
23.516667	1	0.819125
23.533333	1	0.927500
23.550000	1	1.051625
23.566667	1	1.192625
23.583333	1	1.351750
23.600000	1	1.529875
23.616667	1	1.727125
23.633333	1	1.943125
23.650000	1	2.177500
23.666667	1	2.428875
23.683333	1	2.695250
23.700000	1	2.973750
23.716667	1	3.261125
23.733333	1	3.553875
23.750000	1	3.847500
23.766667	1	4.136125
23.783333	1	4.414000
23.800000	1	4.675125
23.816667	1	4.914250
23.833333	1	5.125625
23.850000	1	5.303750
23.866667	1	5.446000
23.883333	1	5.547500
23.900000	1	5.607250
23.916667	1	5.623375
23.933333	1	5.595250
23.950000	1	5.524750
23.966667	1	5.413000
23.983333	1	5.265625
24.000000	1	5.084750
24.016667	1	4.876375
24.033333	1	4.644375
24.050000	1	4.396500
24.066667	1	4.136000
24.083333	1	3.868625
24.100000	1	3.598250
24.116667	1	3.330500
24.133333	1	3.068000
24.150000	1	2.815000
24.166667	1	2.573750
24.183333	1	2.345250
24.200000	1	2.131875
24.216667	1	1.934750
24.233333	1	1.753500
24.250000	1	1.588500
24.266667	1	1.438875
24.283333	1	1.305250
24.300000	1	1.185250
24.316667	1	1.078500
24.333333	1	0.983875
24.350000	1	0.901000
24.366667	1	0.828375
24.383333	1	0.765375
24.400000	1	0.711250
24.416667	1	0.663875
24.433333	1	0.624000
24.450000	1	0.589875
24.466667	1	0.560625
24.483333	1	0.536875
24.500000	1	0.516250
24.516667	1	0.498375
24.533333	1	0.483625
24.550000	1	0.471375
24.566667	1	0.460375
24.583333	1	0.450500
24.600000	1	0.441875
24.616667	1	0.434500
24.633333	1	0.427250
24.650000	1	0.420875
24.666667	1	0.414625
24.683333	1	0.407875
24.700000	1	0.401500
24.716667	1	0.395250
24.733333	1	0.388250
24.750000	1	0.381250
24.766667	1	0.374875
24.783333	1	0.368250
24.800000	1	0.361875
24.816667	1	0.355000
24.833333	1	0.348375
24.850000	1	0.342500
24.866667	1	0.336375
24.883333	1	0.330500
24.900000	1	0.324875
24.916667	1	0.321000
24.933333	1	0.315750
24.950000	1	0.310750
24.966667	1	0.306375
24.983333	1	0.302375
25.000000	1	0.298000
25.016667	1	0.293500
25.033333	1	0.290125
25.050000	1	0.286500
25.066667	1	0.283375
25.083333	1	0.280125
25.100000	1	0.276625
25.116667	1	0.273375
25.133333	1	0.270750
25.150000	1	0.267250
25.166667	1	0.263625
25.183333	1	0.260250
25.200000	1	0.257625
25.216667	1	0.254500
25.233333	1	0.251250
25.250000	1	0.248500
25.266667	1	0.246250
25.283333	1	0.243500
25.300000	1	0.241250
25.316667	1	0.239250
25.333333	1	0.237250
25.350000	1	0.235125
25.366667	1	0.233375
25.383333	1	0.232500
25.400000	1	0.231625
25.416667	1	0.230500
25.433333	1	0.229875
25.450000	1	0.230125
25.466667	1	0.230500
25.483333	1	0.231625
25.500000	1	0.233000
25.516667	1	0.234125
25.533333	1	0.235625
25.550000	1	0.237125
25.566667	1	0.239375
25.583333	1	0.241250
25.600000	1	0.243375
25.616667	1	0.245000
25.633333	1	0.247125
25.650000	1	0.249500
25.666667	1	0.251250
25.683333	1	0.253250
25.700000	1	0.255625
25.716667	1	0.257750
25.733333	1	0.260625
25.750000	1	0.262375
25.766667	1	0.264625
25.783333	1	0.266750
25.800000	1	0.269000
25.816667	1	0.271250
25.833333	1	0.273375
25.850000	1	0.275375
25.866667	1	0.277250
25.883333	1	0.278875
25.900000	1	0.281375
25.916667	1	0.284000
25.933333	1	0.286625
25.950000	1	0.289125
25.966667	1	0.292750
25.983333	1	0.295500
26.000000	1	0.299375
26.016667	1	0.303250
26.033333	1	0.307000
26.050000	1	0.310875
26.066667	1	0.314625
26.083333	1	0.318750
26.100000	1	0.323125
26.116667	1	0.326625
26.133333	1	0.330500
26.150000	1	0.334750
26.166667	1	0.337625
26.183333	1	0.341000
26.200000	1	0.343875
26.216667	1	0.346250
26.233333	1	0.347875
26.250000	1	0.350000
26.266667	1	0.350750
26.283333	1	0.350375
26.300000	1	0.350625
26.316667	1	0.349500
26.333333	1	0.348250
26.350000	1	0.346375
26.366667	1	0.343500
26.383333	1	0.340125
26.400000	1	0.336250
26.416667	1	0.331750
26.433333	1	0.327125
26.450000	1	0.321500
26.466667	1	0.316125
26.483333	1	0.310375
26.500000	1	0.304375
26.516667	1	0.298375
26.533333	1	0.291625
26.550000	1	0.284500
26.566667	1	0.278250
26.583333	1	0.271375
26.600000	1	0.265000
26.616667	1	0.259000
26.633333	1	0.253375
26.650000	1	0.247500
26.666667	1	0.241250
26.683333	1	0.236000
26.700000	1	0.231125
26.716667	1	0.225875
26.733333	1	0.221125
26.750000	1	0.216125
26.766667	1	0.211750
26.783333	1	0.207625
26.800000	1	0.203625
26.816667	1	0.200000
26.833333	1	0.196250
26.850000	1	0.193375
26.866667	1	0.190375
26.883333	1	0.187750
26.900000	1	0.185500
26.916667	1	0.183375
26.933333	1	0.181750
26.950000	1	0.179875
26.966667	1	0.178875
26.983333	1	0.178000
27.000000	1	0.177875
27.016667	1	0.177875
27.033333	1	0.178750
27.050000	1	0.180750
27.066667	1	0.182875
27.083333	1	0.186375
27.100000	1	0.190375
27.116667	1	0.195375
27.133333	1	0.201875
27.150000	1	0.209875
27.166667	1	0.218875
27.183333	1	0.229750
27.200000	1	0.242375
27.216667	1	0.257750
27.233333	1	0.276125
27.250000	1	0.296750
27.266667	1	0.320750
27.283333	1	0.348375
27.300000	1	0.379750
27.316667	1	0.415750
27.333333	1	0.457375
27.350000	1	0.504125
27.366667	1	0.556375
27.383333	1	0.615375
27.400000	1	0.682500
27.416667	1	0.756500
27.433333	1	0.838000
27.450000	1	0.929125
27.466667	1	1.029000
27.483333	1	1.138625
27.500000	1	1.258125
27.516667	1	1.387250
27.533333	1	1.525750
27.550000	1	1.672625
27.566667	1	1.829375
27.583333	1	1.993125
27.600000	1	2.164125
27.616667	1	2.341625
27.633333	1	2.523250
27.650000	1	2.707625
27.666667	1	2.892500
27.683333	1	3.076125
27.700000	1	3.255500
27.716667	1	3.428625
27.733333	1	3.592250
27.750000	1	3.743875
27.766667	1	3.881125
27.783333	1	4.001125
27.800000	1	4.103125
27.816667	1	4.183250
27.833333	1	4.240750
27.850000	1	4.274750
27.866667	1	4.283500
27.883333	1	4.266500
27.900000	1	4.224750
27.916667	1	4.157750
27.933333	1	4.068125
27.950000	1	3.956375
27.966667	1	3.824625
27.983333	1	3.675625
28.000000	1	3.512625
28.016667	1	3.337500
28.033333	1	3.153375
28.050000	1	2.962875
28.066667	1	2.769375
28.083333	1	2.575000
28.100000	1	2.382125
28.116667	1	2.193750
28.133333	1	2.011375
28.150000	1	1.837500
28.166667	1	1.672000
28.183333	1	1.516875
28.200000	1	1.372750
28.216667	1	1.239500
28.233333	1	1.118000
28.250000	1	1.006875
28.266667	1	0.907000
28.283333	1	0.817625
28.300000	1	0.737750
28.316667	1	0.667000
28.333333	1	0.605000
28.350000	1	0.551250
28.366667	1	0.505250
28.383333	1	0.466125
28.400000	1	0.434750
28.416667	1	0.408375
28.433333	1	0.387500
28.450000	1	0.371375
28.466667	1	0.358875
28.483333	1	0.351750
28.500000	1	0.347000
28.516667	1	0.345000
28.533333	1	0.345875
28.550000	1	0.349375
28.566667	1	0.354750
28.583333	1	0.361250
28.600000	1	0.369625
28.616667	1	0.380125
28.633333	1	0.390750
28.650000	1	0.402125
28.666667	1	0.413625
28.683333	1	0.426125
28.700000	1	0.438250
28.716667	1	0.450500
28.733333	1	0.462250
28.750000	1	0.473875
28.766667	1	0.484000
28.783333	1	0.494375
28.800000	1	0.503500
28.816667	1	0.512375
28.833333	1	0.519750
28.850000	1	0.526750
28.866667	1	0.532750
28.883333	1	0.537125
28.900000	1	0.541000
28.916667	1	0.543625
28.933333	1	0.544000
28.950000	1	0.543125
28.966667	1	0.541875
28.983333	1	0.539500
29.000000	1	0.535625
29.016667	1	0.530500
29.033333	1	0.525250
29.050000	1	0.518875
29.066667	1	0.511250
29.083333	1	0.503375
29.100000	1	0.494750
29.116667	1	0.484875
29.133333	1	0.474750
29.150000	1	0.463875
29.166667	1	0.453375
29.183333	1	0.441875
29.200000	1	0.430375
29.216667	1	0.419125
29.233333	1	0.407375
29.250000	1	0.394875
29.266667	1	0.382875
29.283333	1	0.370375
29.300000	1	0.359375
29.316667	1	0.348500
29.333333	1	0.337125
29.350000	1	0.326250
29.366667	1	0.315625
29.383333	1	0.305750
29.400000	1	0.296000
29.416667	1	0.286250
29.433333	1	0.276125
29.450000	1	0.267125
29.466667	1	0.258000
29.483333	1	0.249750
29.500000	1	0.241625
29.516667	1	0.234250
29.533333	1	0.226875
29.550000	1	0.220250
29.566667	1	0.213375
29.583333	1	0.206750
29.600000	1	0.200625
29.616667	1	0.195375
29.633333	1	0.189250
29.650000	1	0.184000
29.666667	1	0.178750
29.683333	1	0.174250
29.700000	1	0.170500
29.716667	1	0.166750
29.733333	1	0.163500
29.750000	1	0.159625
29.766667	1	0.156375
29.783333	1	0.153250
29.800000	1	0.150875
29.816667	1	0.148750
29.833333	1	0.147000
29.850000	1	0.145250
29.866667	1	0.143625
29.883333	1	0.142125
29.900000	1	0.140250
29.916667	1	0.137750
29.933333	1	0.136875
29.950000	1	0.136125
29.966667	1	0.135375
29.983333	1	0.134750
30.000000	1	0.134000
30.016667	1	0.132750
30.033333	1	0.131625
30.050000	1	0.130375
30.066667	1	0.129375
30.083333	1	0.128125
30.100000	1	0.128000
30.116667	1	0.127625
30.133333	1	0.126750
30.150000	1	0.125500
30.166667	1	0.125625
30.183333	1	0.125250
30.200000	1	0.125375
30.216667	1	0.126125
30.233333	1	0.127000
30.250000	1	0.128000
30.266667	1	0.128000
30.283333	1	0.128625
30.300000	1	0.129500
30.316667	1	0.130625
30.333333	1	0.132500
30.350000	1	0.134250
30.366667	1	0.136375
30.383333	1	0.139125
30.400000	1	0.141750
30.416667	1	0.144875
30.433333	1	0.148750
30.450000	1	0.152250
30.466667	1	0.156500
30.483333	1	0.161375
30.500000	1	0.166250
30.516667	1	0.171375
30.533333	1	0.176500
30.550000	1	0.182750
30.566667	1	0.189375
30.583333	1	0.196500
30.600000	1	0.203750
30.616667	1	0.212000
30.633333	1	0.221125
30.650000	1	0.230625
30.666667	1	0.240500
30.683333	1	0.251750
30.700000	1	0.263500
30.716667	1	0.276375
30.733333	1	0.290000
30.750000	1	0.305375
30.766667	1	0.322375
30.783333	1	0.340500
30.800000	1	0.361125
30.816667	1	0.384125
30.833333	1	0.410000
30.850000	1	0.439250
30.866667	1	0.471000
30.883333	1	0.507000
30.900000	1	0.547750
30.916667	1	0.594125
30.933333	1	0.645625
30.950000	1	0.703500
30.966667	1	0.769000
30.983333	1	0.843375
31.000000	1	0.927250
31.016667	1	1.020250
31.033333	1	1.124000
31.050000	1	1.239125
31.066667	1	1.366750
31.083333	1	1.507500
31.100000	1	1.662000
31.116667	1	1.830625
31.133333	1	2.014000
31.150000	1	2.212000
31.166667	1	2.425000
31.183333	1	2.651625
31.200000	1	2.892375
31.216667	1	3.147625
31.233333	1	3.414500
31.250000	1	3.690750
31.266667	1	3.975625
31.283333	1	4.266750
31.300000	1	4.560625
31.316667	1	4.854875
31.333333	1	5.146250
31.350000	1	5.431625
31.366667	1	5.708375
31.383333	1	5.973250
31.400000	1	6.222500
31.416667	1	6.453250
31.433333	1	6.662125
31.450000	1	6.845250
31.466667	1	7.000875
31.483333	1	7.127125
31.500000	1	7.222125
31.516667	1	7.284500
31.533333	1	7.314250
31.550000	1	7.310625
31.566667	1	7.274000
31.583333	1	7.205125
31.600000	1	7.105250
31.616667	1	6.976375
31.633333	1	6.820125
31.650000	1	6.638625
31.666667	1	6.435000
31.683333	1	6.212875
31.700000	1	5.974000
31.716667	1	5.722250
31.733333	1	5.460375
31.750000	1	5.191750
31.766667	1	4.918625
31.783333	1	4.643625
31.800000	1	4.369875
31.816667	1	4.098750
31.833333	1	3.833125
31.850000	1	3.574125
31.866667	1	3.324500
31.883333	1	3.084500
31.900000	1	2.854875
31.916667	1	2.637000
31.933333	1	2.431250
31.950000	1	2.238250
31.966667	1	2.056625
31.983333	1	1.887625
32.000000	1	1.730750
32.016667	1	1.585250
32.033333	1	1.451250
32.050000	1	1.328750
32.066667	1	1.215750
32.083333	1	1.113000
32.100000	1	1.018500
32.116667	1	0.933750
32.133333	1	0.856750
32.150000	1	0.787000
32.166667	1	0.723875
32.183333	1	0.666750
32.200000	1	0.615125
32.216667	1	0.568500
32.233333	1	0.526250
32.250000	1	0.487875
32.266667	1	0.453875
32.283333	1	0.423875
32.300000	1	0.396250
32.316667	1	0.371500
32.333333	1	0.349500
32.350000	1	0.329375
32.366667	1	0.311125
32.383333	1	0.295000
32.400000	1	0.280625
32.416667	1	0.267250
32.433333	1	0.254875
32.450000	1	0.243500
32.466667	1	0.233125
32.483333	1	0.223875
32.500000	1	0.215500
32.516667	1	0.207750
32.533333	1	0.201375
32.550000	1	0.194375
32.566667	1	0.187500
32.583333	1	0.181875
32.600000	1	0.176875
32.616667	1	0.172125
32.633333	1	0.167750
32.650000	1	0.164250
32.666667	1	0.160625
32.683333	1	0.157000
32.700000	1	0.154625
32.716667	1	0.151500
32.733333	1	0.148375
32.750000	1	0.145500
32.766667	1	0.143250
32.783333	1	0.141500
32.800000	1	0.139625
32.816667	1	0.137625
32.833333	1	0.135875
32.850000	1	0.134125
32.866667	1	0.132625
32.883333	1	0.130875
32.900000	1	0.129125
32.916667	1	0.128125
32.933333	1	0.127000
32.950000	1	0.125750
32.966667	1	0.123750
32.983333	1	0.122750
33.000000	1	0.120625
33.016667	1	0.119500
33.033333	1	0.118375
33.050000	1	0.117125
33.066667	1	0.114875
33.083333	1	0.113625
33.100000	1	0.112625
33.116667	1	0.111000
33.133333	1	0.109625
33.150000	1	0.107750
33.166667	1	0.106375
33.183333	1	0.105250
33.200000	1	0.104500
33.216667	1	0.103000
33.233333	1	0.101625
33.250000	1	0.100125
33.266667	1	0.099000
33.283333	1	0.097250
33.300000	1	0.096250
33.316667	1	0.095250
33.333333	1	0.094500
33.350000	1	0.093125
33.366667	1	0.093125
33.383333	1	0.092125
33.400000	1	0.092000
33.416667	1	0.092625
33.433333	1	0.092875
33.450000	1	0.093000
33.466667	1	0.094000
33.483333	1	0.095125
33.500000	1	0.096125
33.516667	1	0.097875
33.533333	1	0.099000
33.550000	1	0.101125
33.566667	1	0.103875
33.583333	1	0.105625
33.600000	1	0.108125
33.616667	1	0.111250
33.633333	1	0.114375
33.650000	1	0.117000
33.666667	1	0.120250
33.683333	1	0.123500
33.700000	1	0.127000
33.716667	1	0.130750
33.733333	1	0.134875
33.750000	1	0.138375
33.766667	1	0.142250
33.783333	1	0.146000
33.800000	1	0.149625
33.816667	1	0.153750
33.833333	1	0.158000
33.850000	1	0.161750
33.866667	1	0.165625
33.883333	1	0.168500
33.900000	1	0.171500
33.916667	1	0.175250
33.933333	1	0.178125
33.950000	1	0.180625
33.966667	1	0.182875
33.983333	1	0.185125
34.000000	1	0.187750
34.016667	1	0.189500
34.033333	1	0.191000
34.050000	1	0.192250
34.066667	1	0.193500
34.083333	1	0.194625
34.100000	1	0.195125
34.116667	1	0.195125
34.133333	1	0.195625
34.150000	1	0.195625
34.166667	1	0.195750
34.183333	1	0.195250
34.200000	1	0.195500
34.216667	1	0.194625
34.233333	1	0.193750
34.250000	1	0.192875
34.266667	1	0.191625
34.283333	1	0.190250
34.300000	1	0.188875
34.316667	1	0.188125
34.333333	1	0.187375
34.350000	1	0.186375
34.366667	1	0.185750
34.383333	1	0.185250
34.400000	1	0.184250
34.416667	1	0.183500
34.433333	1	0.182875
34.450000	1	0.182375
34.466667	1	0.181750
34.483333	1	0.181375
34.500000	1	0.180875
34.516667	1	0.180375
34.533333	1	0.180750
34.550000	1	0.181125
34.566667	1	0.181125
34.583333	1	0.180875
34.600000	1	0.181375
34.616667	1	0.180875
34.633333	1	0.180875
34.650000	1	0.180750
34.666667	1	0.180875
34.683333	1	0.181250
34.700000	1	0.181500
34.716667	1	0.181250
34.733333	1	0.181000
34.750000	1	0.181000
34.766667	1	0.180500
34.783333	1	0.180625
34.800000	1	0.180000
34.816667	1	0.179125
34.833333	1	0.178500
34.850000	1	0.177625
34.866667	1	0.176750
34.883333	1	0.175125
34.900000	1	0.174625
34.916667	1	0.173625
34.933333	1	0.172125
34.950000	1	0.170375
34.966667	1	0.168875
34.983333	1	0.167000
35.000000	1	0.165000
35.016667	1	0.163375
35.033333	1	0.161250
35.050000	1	0.158625
35.066667	1	0.156875
35.083333	1	0.154750
35.100000	1	0.152625
35.116667	1	0.151125
35.133333	1	0.149125
35.150000	1	0.147250
35.166667	1	0.145750
35.183333	1	0.144125
35.200000	1	0.142625
35.216667	1	0.140500
35.233333	1	0.140000
35.250000	1	0.138875
35.266667	1	0.138125
35.283333	1	0.137250
35.300000	1	0.137375
35.316667	1	0.136750
35.333333	1	0.137000
35.350000	1	0.137250
35.366667	1	0.137875
35.383333	1	0.138625
35.400000	1	0.139250
35.416667	1	0.139875
35.433333	1	0.141000
35.450000	1	0.142875
35.466667	1	0.144125
35.483333	1	0.145875
35.500000	1	0.147875
35.516667	1	0.150000
35.533333	1	0.151000
35.550000	1	0.153125
35.566667	1	0.155375
35.583333	1	0.157625
35.600000	1	0.159500
35.616667	1	0.161375
35.633333	1	0.163500
35.650000	1	0.165500
35.666667	1	0.166250
35.683333	1	0.168500
35.700000	1	0.170125
35.716667	1	0.172000
35.733333	1	0.173375
35.750000	1	0.174500
35.766667	1	0.175250
35.783333	1	0.175625
35.800000	1	0.175875
35.816667	1	0.176750
35.833333	1	0.177375
35.850000	1	0.178000
35.866667	1	0.178750
35.883333	1	0.179250
35.900000	1	0.179625
35.916667	1	0.180250
35.933333	1	0.181000
35.950000	1	0.181000
35.966667	1	0.181000
35.983333	1	0.181250
36.000000	1	0.181625
36.016667	1	0.181625
36.033333	1	0.181875
36.050000	1	0.182000
36.066667	1	0.182125
36.083333	1	0.182000
36.100000	1	0.182250
36.116667	1	0.182375
36.133333	1	0.182500
36.150000	1	0.182125
36.166667	1	0.182625
36.183333	1	0.182625
36.200000	1	0.182875
36.216667	1	0.182875
36.233333	1	0.183125
36.250000	1	0.182875
36.266667	1	0.182500
36.283333	1	0.182250
36.300000	1	0.182250
36.316667	1	0.181375
36.333333	1	0.180250
36.350000	1	0.179625
36.366667	1	0.178500
36.383333	1	0.177750
36.400000	1	0.176125
36.416667	1	0.175125
36.433333	1	0.172875
36.450000	1	0.171000
36.466667	1	0.168750
36.483333	1	0.167625
36.500000	1	0.166125
36.516667	1	0.164125
36.533333	1	0.161875
36.550000	1	0.159000
36.566667	1	0.156375
36.583333	1	0.153750
36.600000	1	0.150750
36.616667	1	0.148250
36.633333	1	0.145750
36.650000	1	0.142875
36.666667	1	0.140125
36.683333	1	0.137750
36.700000	1	0.135500
36.716667	1	0.132625
36.733333	1	0.130125
36.750000	1	0.127125
36.766667	1	0.124750
36.783333	1	0.121875
36.800000	1	0.118625
36.816667	1	0.116000
36.833333	1	0.113500
36.850000	1	0.111125
36.866667	1	0.109000
36.883333	1	0.106375
36.900000	1	0.104750
36.916667	1	0.103125
36.933333	1	0.100875
36.950000	1	0.099375
36.966667	1	0.097750
36.983333	1	0.096125
37.000000	1	0.094750
37.016667	1	0.094375
37.033333	1	0.093625
37.050000	1	0.092625
37.066667	1	0.091750
37.083333	1	0.090750
37.100000	1	0.090125
37.116667	1	0.089875
37.133333	1	0.089375
37.150000	1	0.089375
37.166667	1	0.089250
37.183333	1	0.089250
37.200000	1	0.089000
37.216667	1	0.088625
37.233333	1	0.087750
37.250000	1	0.088500
37.266667	1	0.088750
37.283333	1	0.089250
37.300000	1	0.089125
37.316667	1	0.089375
37.333333	1	0.089125
37.350000	1	0.089375
37.366667	1	0.089250
37.383333	1	0.089375
37.400000	1	0.089125
37.416667	1	0.088625
37.433333	1	0.088500
37.450000	1	0.089000
37.466667	1	0.089000
37.483333	1	0.088750
37.500000	1	0.088250
37.516667	1	0.088000
37.533333	1	0.087875
37.550000	1	0.087125
37.566667	1	0.086500
37.583333	1	0.085250
37.600000	1	0.084375
37.616667	1	0.083375
37.633333	1	0.082250
37.650000	1	0.080625
37.666667	1	0.079375
37.683333	1	0.078375
37.700000	1	0.076125
37.716667	1	0.075000
37.733333	1	0.073000
37.750000	1	0.070500
37.766667	1	0.068125
37.783333	1	0.065375
37.800000	1	0.063125
37.816667	1	0.060875
37.833333	1	0.058875
37.850000	1	0.056375
37.866667	1	0.054000
37.883333	1	0.052000
37.900000	1	0.050500
37.916667	1	0.048375
37.933333	1	0.045625
37.950000	1	0.043500
37.966667	1	0.041875
37.983333	1	0.040125
38.000000	1	0.038250
38.016667	1	0.036500
38.033333	1	0.034750
38.050000	1	0.033375
38.066667	1	0.032250
38.083333	1	0.031250
38.100000	1	0.030125
38.116667	1	0.029625
38.133333	1	0.028625
38.150000	1	0.028375
38.166667	1	0.028500
38.183333	1	0.028125
38.200000	1	0.028000
38.216667	1	0.028125
38.233333	1	0.028500
38.250000	1	0.028875
38.266667	1	0.029125
38.283333	1	0.030375
38.300000	1	0.031250
38.316667	1	0.032125
38.333333	1	0.032875
38.350000	1	0.033500
38.366667	1	0.034750
38.383333	1	0.035125
38.400000	1	0.036000
38.416667	1	0.037000
38.433333	1	0.038125
38.450000	1	0.039125
38.466667	1	0.040750
38.483333	1	0.040750
38.500000	1	0.042125
38.516667	1	0.042625
38.533333	1	0.042750
38.550000	1	0.042875
38.566667	1	0.043000
38.583333	1	0.043500
38.600000	1	0.044125
38.616667	1	0.044500
38.633333	1	0.044875
38.650000	1	0.045375
38.666667	1	0.045125
38.683333	1	0.044875
38.700000	1	0.045000
38.716667	1	0.045125
38.733333	1	0.044625
38.750000	1	0.044875
38.766667	1	0.045125
38.783333	1	0.045000
38.800000	1	0.044375
38.816667	1	0.043875
38.833333	1	0.043500
38.850000	1	0.044000
38.866667	1	0.044125
38.883333	1	0.043500
38.900000	1	0.043250
38.916667	1	0.043000
38.933333	1	0.043125
38.950000	1	0.043375
38.966667	1	0.043125
38.983333	1	0.042875
39.000000	1	0.042500
39.016667	1	0.041875
39.033333	1	0.042000
39.050000	1	0.041875
39.066667	1	0.042500
39.083333	1	0.042750
39.100000	1	0.043000
39.116667	1	0.042500
39.133333	1	0.042500
39.150000	1	0.042500
39.166667	1	0.043000
39.183333	1	0.043000
39.200000	1	0.043000
39.216667	1	0.042375
39.233333	1	0.042250
39.250000	1	0.041875
39.266667	1	0.041875
39.283333	1	0.042375
39.300000	1	0.042125
39.316667	1	0.042375
39.333333	1	0.041750
39.350000	1	0.041375
39.366667	1	0.040625
39.383333	1	0.040500
39.400000	1	0.040250
39.416667	1	0.039625
39.433333	1	0.039500
39.450000	1	0.038875
39.466667	1	0.038125
39.483333	1	0.037250
39.500000	1	0.037375
39.516667	1	0.036625
39.533333	1	0.036000
39.550000	1	0.034750
39.566667	1	0.034000
39.583333	1	0.032625
39.600000	1	0.031625
39.616667	1	0.030750
39.633333	1	0.030375
39.650000	1	0.029000
39.666667	1	0.027750
39.683333	1	0.026625
39.700000	1	0.025500
39.716667	1	0.024500
39.733333	1	0.023875
39.750000	1	0.023875
39.766667	1	0.023125
39.783333	1	0.021625
39.800000	1	0.020375
39.816667	1	0.019500
39.833333	1	0.019000
39.850000	1	0.019000
39.866667	1	0.018500
39.883333	1	0.018000
39.900000	1	0.017750
39.916667	1	0.017500
39.933333	1	0.017625
39.950000	1	0.017750
39.966667	1	0.017500
39.983333	1	0.017250
40.000000	1	0.016750
