URL	chrom://bioreactor/micro_cm7/HPLC_Ultimate_3000/Users/markusar/20240716_MA_pHrange2.seq/118.smp/RI_1.channel/RI_1.chm
Channel	RI_1

Injection Information:
Data Vault	micro_cm7
Sequence	20240716_MA_pHrange2
Name	Pv1_25H_3
Number	4
Position	BA4
Comment	
Processing Method	
Instrument Method	run_25B_method
Type	Unknown
Status	Finished
Inject Time	16.07.2024 20:09:23 +02:00
Volume (µl)	20.0000
Dilution Factor	1.0000
Weight	1.0000

Chromatogram Data Information:
Time Min. (min)	0.000000
Time Max. (min)	40.000000
Data Points	2401
Detector	RI
Generating Data System	Chromeleon 7.3.2.11814
Exporting Data System	Chromeleon 7.3.2.0
Operator	Instrument Controller
Signal Quantity	Refractive 
Signal Unit	µRIU
Signal Min.	-0.140000
Signal Max.	84.797875
Channel	RI_1
Driver Name	RID520Driver.dll
Channel Type	Evaluation
Min. Step (s)	1
Max. Step (s)	1
Average Step (s)	1

Signal Parameter Information:
Signal Info	

Chromatogram Data:
Time (min)	Step (s)	Value (µRIU)
0.000000	n.a.	0.033625
0.016667	1	0.033250
0.033333	1	0.032375
0.050000	1	0.033125
0.066667	1	0.032375
0.083333	1	0.032125
0.100000	1	0.031500
0.116667	1	0.030375
0.133333	1	0.029625
0.150000	1	0.028500
0.166667	1	0.027875
0.183333	1	0.026375
0.200000	1	0.025000
0.216667	1	0.024250
0.233333	1	0.022625
0.250000	1	0.021000
0.266667	1	0.019000
0.283333	1	0.017250
0.300000	1	0.015375
0.316667	1	0.014000
0.333333	1	0.011375
0.350000	1	0.009375
0.366667	1	0.007375
0.383333	1	0.005125
0.400000	1	0.001875
0.416667	1	0.000000
0.433333	1	-0.001125
0.450000	1	-0.001750
0.466667	1	-0.002125
0.483333	1	-0.002500
0.500000	1	-0.003125
0.516667	1	-0.004500
0.533333	1	-0.007625
0.550000	1	-0.011500
0.566667	1	-0.014750
0.583333	1	-0.018500
0.600000	1	-0.022375
0.616667	1	-0.026250
0.633333	1	-0.029125
0.650000	1	-0.031625
0.666667	1	-0.033500
0.683333	1	-0.035375
0.700000	1	-0.036750
0.716667	1	-0.038250
0.733333	1	-0.039875
0.750000	1	-0.041250
0.766667	1	-0.043125
0.783333	1	-0.044375
0.800000	1	-0.045750
0.816667	1	-0.046500
0.833333	1	-0.047875
0.850000	1	-0.048500
0.866667	1	-0.048750
0.883333	1	-0.049375
0.900000	1	-0.050000
0.916667	1	-0.050250
0.933333	1	-0.050750
0.950000	1	-0.051000
0.966667	1	-0.050875
0.983333	1	-0.050750
1.000000	1	-0.050500
1.016667	1	-0.050000
1.033333	1	-0.049375
1.050000	1	-0.048500
1.066667	1	-0.048500
1.083333	1	-0.047500
1.100000	1	-0.046250
1.116667	1	-0.045000
1.133333	1	-0.043500
1.150000	1	-0.041750
1.166667	1	-0.040125
1.183333	1	-0.038000
1.200000	1	-0.036250
1.216667	1	-0.033875
1.233333	1	-0.032000
1.250000	1	-0.029375
1.266667	1	-0.026500
1.283333	1	-0.024000
1.300000	1	-0.021875
1.316667	1	-0.019375
1.333333	1	-0.016625
1.350000	1	-0.013750
1.366667	1	-0.011250
1.383333	1	-0.008750
1.400000	1	-0.006250
1.416667	1	-0.003625
1.433333	1	-0.000625
1.450000	1	0.001625
1.466667	1	0.004625
1.483333	1	0.007125
1.500000	1	0.009750
1.516667	1	0.011750
1.533333	1	0.014000
1.550000	1	0.015500
1.566667	1	0.017375
1.583333	1	0.018875
1.600000	1	0.019875
1.616667	1	0.021250
1.633333	1	0.022000
1.650000	1	0.022375
1.666667	1	0.022875
1.683333	1	0.022375
1.700000	1	0.022250
1.716667	1	0.021875
1.733333	1	0.021250
1.750000	1	0.020125
1.766667	1	0.019875
1.783333	1	0.018500
1.800000	1	0.017500
1.816667	1	0.017000
1.833333	1	0.015500
1.850000	1	0.014000
1.866667	1	0.012875
1.883333	1	0.011750
1.900000	1	0.010500
1.916667	1	0.009125
1.933333	1	0.007750
1.950000	1	0.006500
1.966667	1	0.005375
1.983333	1	0.004375
2.000000	1	0.003250
2.016667	1	0.002125
2.033333	1	0.001000
2.050000	1	0.000125
2.066667	1	-0.000125
2.083333	1	-0.000625
2.100000	1	-0.001750
2.116667	1	-0.002750
2.133333	1	-0.003375
2.150000	1	-0.005000
2.166667	1	-0.005500
2.183333	1	-0.006500
2.200000	1	-0.007500
2.216667	1	-0.008125
2.233333	1	-0.008625
2.250000	1	-0.009000
2.266667	1	-0.010250
2.283333	1	-0.011500
2.300000	1	-0.013500
2.316667	1	-0.014125
2.333333	1	-0.015375
2.350000	1	-0.015625
2.366667	1	-0.016625
2.383333	1	-0.017500
2.400000	1	-0.018375
2.416667	1	-0.019250
2.433333	1	-0.021125
2.450000	1	-0.021875
2.466667	1	-0.023250
2.483333	1	-0.024125
2.500000	1	-0.024875
2.516667	1	-0.025750
2.533333	1	-0.026375
2.550000	1	-0.027000
2.566667	1	-0.027750
2.583333	1	-0.028250
2.600000	1	-0.028500
2.616667	1	-0.028250
2.633333	1	-0.028125
2.650000	1	-0.027625
2.666667	1	-0.027625
2.683333	1	-0.027750
2.700000	1	-0.027500
2.716667	1	-0.027125
2.733333	1	-0.026625
2.750000	1	-0.026375
2.766667	1	-0.025000
2.783333	1	-0.024625
2.800000	1	-0.023375
2.816667	1	-0.022625
2.833333	1	-0.021125
2.850000	1	-0.019500
2.866667	1	-0.018375
2.883333	1	-0.016875
2.900000	1	-0.015875
2.916667	1	-0.014375
2.933333	1	-0.013250
2.950000	1	-0.012000
2.966667	1	-0.010375
2.983333	1	-0.008875
3.000000	1	-0.007125
3.016667	1	-0.005875
3.033333	1	-0.004250
3.050000	1	-0.002875
3.066667	1	-0.001625
3.083333	1	-0.000625
3.100000	1	0.000000
3.116667	1	0.001500
3.133333	1	0.002500
3.150000	1	0.003625
3.166667	1	0.005125
3.183333	1	0.006500
3.200000	1	0.007500
3.216667	1	0.008000
3.233333	1	0.008625
3.250000	1	0.009625
3.266667	1	0.010000
3.283333	1	0.011000
3.300000	1	0.012500
3.316667	1	0.013750
3.333333	1	0.014500
3.350000	1	0.014875
3.366667	1	0.015500
3.383333	1	0.015750
3.400000	1	0.016000
3.416667	1	0.016375
3.433333	1	0.017250
3.450000	1	0.018250
3.466667	1	0.018375
3.483333	1	0.019000
3.500000	1	0.019125
3.516667	1	0.019625
3.533333	1	0.020500
3.550000	1	0.021250
3.566667	1	0.022250
3.583333	1	0.023375
3.600000	1	0.023875
3.616667	1	0.025125
3.633333	1	0.026500
3.650000	1	0.027500
3.666667	1	0.027875
3.683333	1	0.029125
3.700000	1	0.030500
3.716667	1	0.032375
3.733333	1	0.034000
3.750000	1	0.035500
3.766667	1	0.036625
3.783333	1	0.038250
3.800000	1	0.039875
3.816667	1	0.042250
3.833333	1	0.043750
3.850000	1	0.045000
3.866667	1	0.045875
3.883333	1	0.046750
3.900000	1	0.048000
3.916667	1	0.049750
3.933333	1	0.050875
3.950000	1	0.052375
3.966667	1	0.053750
3.983333	1	0.055125
4.000000	1	0.055875
4.016667	1	0.056875
4.033333	1	0.057250
4.050000	1	0.058375
4.066667	1	0.060000
4.083333	1	0.060750
4.100000	1	0.061125
4.116667	1	0.062250
4.133333	1	0.063500
4.150000	1	0.064500
4.166667	1	0.065500
4.183333	1	0.066125
4.200000	1	0.067500
4.216667	1	0.068750
4.233333	1	0.070000
4.250000	1	0.071750
4.266667	1	0.072625
4.283333	1	0.074000
4.300000	1	0.076000
4.316667	1	0.077000
4.333333	1	0.078500
4.350000	1	0.079625
4.366667	1	0.081375
4.383333	1	0.083250
4.400000	1	0.085125
4.416667	1	0.086875
4.433333	1	0.088250
4.450000	1	0.090625
4.466667	1	0.092125
4.483333	1	0.094375
4.500000	1	0.096250
4.516667	1	0.098500
4.533333	1	0.101000
4.550000	1	0.103250
4.566667	1	0.105000
4.583333	1	0.107625
4.600000	1	0.109125
4.616667	1	0.110750
4.633333	1	0.112750
4.650000	1	0.114875
4.666667	1	0.116875
4.683333	1	0.119375
4.700000	1	0.121625
4.716667	1	0.123875
4.733333	1	0.125625
4.750000	1	0.127250
4.766667	1	0.129750
4.783333	1	0.131250
4.800000	1	0.133625
4.816667	1	0.135875
4.833333	1	0.138875
4.850000	1	0.141125
4.866667	1	0.143625
4.883333	1	0.146625
4.900000	1	0.149125
4.916667	1	0.152000
4.933333	1	0.154375
4.950000	1	0.157375
4.966667	1	0.160375
4.983333	1	0.163000
5.000000	1	0.166250
5.016667	1	0.169250
5.033333	1	0.172125
5.050000	1	0.175375
5.066667	1	0.177875
5.083333	1	0.181500
5.100000	1	0.184000
5.116667	1	0.186375
5.133333	1	0.189500
5.150000	1	0.191625
5.166667	1	0.193750
5.183333	1	0.195750
5.200000	1	0.198000
5.216667	1	0.200250
5.233333	1	0.201625
5.250000	1	0.203375
5.266667	1	0.204750
5.283333	1	0.205875
5.300000	1	0.206750
5.316667	1	0.207625
5.333333	1	0.208250
5.350000	1	0.209125
5.366667	1	0.209000
5.383333	1	0.209125
5.400000	1	0.208750
5.416667	1	0.207750
5.433333	1	0.206750
5.450000	1	0.205875
5.466667	1	0.204875
5.483333	1	0.203250
5.500000	1	0.201375
5.516667	1	0.199375
5.533333	1	0.197250
5.550000	1	0.195125
5.566667	1	0.193875
5.583333	1	0.191750
5.600000	1	0.189875
5.616667	1	0.187000
5.633333	1	0.183875
5.650000	1	0.180500
5.666667	1	0.177500
5.683333	1	0.174625
5.700000	1	0.171250
5.716667	1	0.168750
5.733333	1	0.165750
5.750000	1	0.162625
5.766667	1	0.160000
5.783333	1	0.157500
5.800000	1	0.154125
5.816667	1	0.151000
5.833333	1	0.148000
5.850000	1	0.144875
5.866667	1	0.142625
5.883333	1	0.140125
5.900000	1	0.136625
5.916667	1	0.133375
5.933333	1	0.130500
5.950000	1	0.127500
5.966667	1	0.124375
5.983333	1	0.121750
6.000000	1	0.118750
6.016667	1	0.115875
6.033333	1	0.113375
6.050000	1	0.110125
6.066667	1	0.106625
6.083333	1	0.103625
6.100000	1	0.100250
6.116667	1	0.096875
6.133333	1	0.094125
6.150000	1	0.091500
6.166667	1	0.088750
6.183333	1	0.085750
6.200000	1	0.083250
6.216667	1	0.080250
6.233333	1	0.077625
6.250000	1	0.074750
6.266667	1	0.072250
6.283333	1	0.069750
6.300000	1	0.068250
6.316667	1	0.066250
6.333333	1	0.064000
6.350000	1	0.062000
6.366667	1	0.060500
6.383333	1	0.059125
6.400000	1	0.057625
6.416667	1	0.056250
6.433333	1	0.056125
6.450000	1	0.055375
6.466667	1	0.054500
6.483333	1	0.054750
6.500000	1	0.054750
6.516667	1	0.054375
6.533333	1	0.054750
6.550000	1	0.055375
6.566667	1	0.055875
6.583333	1	0.057250
6.600000	1	0.058625
6.616667	1	0.060250
6.633333	1	0.061875
6.650000	1	0.063000
6.666667	1	0.064500
6.683333	1	0.065875
6.700000	1	0.067500
6.716667	1	0.069000
6.733333	1	0.070750
6.750000	1	0.073250
6.766667	1	0.075125
6.783333	1	0.077625
6.800000	1	0.080125
6.816667	1	0.082875
6.833333	1	0.084875
6.850000	1	0.087625
6.866667	1	0.089875
6.883333	1	0.091625
6.900000	1	0.094875
6.916667	1	0.097250
6.933333	1	0.100625
6.950000	1	0.103500
6.966667	1	0.105875
6.983333	1	0.108250
7.000000	1	0.111125
7.016667	1	0.114000
7.033333	1	0.116750
7.050000	1	0.119125
7.066667	1	0.121125
7.083333	1	0.124250
7.100000	1	0.127250
7.116667	1	0.129750
7.133333	1	0.132375
7.150000	1	0.134875
7.166667	1	0.137375
7.183333	1	0.139375
7.200000	1	0.141375
7.216667	1	0.143750
7.233333	1	0.145625
7.250000	1	0.147000
7.266667	1	0.148875
7.283333	1	0.150000
7.300000	1	0.151250
7.316667	1	0.152250
7.333333	1	0.153125
7.350000	1	0.154125
7.366667	1	0.154250
7.383333	1	0.154875
7.400000	1	0.154750
7.416667	1	0.154500
7.433333	1	0.153625
7.450000	1	0.153250
7.466667	1	0.151875
7.483333	1	0.150750
7.500000	1	0.149125
7.516667	1	0.146875
7.533333	1	0.144750
7.550000	1	0.142625
7.566667	1	0.140000
7.583333	1	0.137125
7.600000	1	0.134375
7.616667	1	0.131500
7.633333	1	0.127500
7.650000	1	0.123250
7.666667	1	0.119375
7.683333	1	0.114750
7.700000	1	0.109875
7.716667	1	0.105125
7.733333	1	0.100000
7.750000	1	0.095250
7.766667	1	0.089375
7.783333	1	0.083625
7.800000	1	0.077875
7.816667	1	0.072375
7.833333	1	0.067125
7.850000	1	0.061625
7.866667	1	0.056750
7.883333	1	0.051375
7.900000	1	0.045875
7.916667	1	0.040875
7.933333	1	0.036500
7.950000	1	0.032000
7.966667	1	0.027875
7.983333	1	0.024375
8.000000	1	0.020375
8.016667	1	0.016750
8.033333	1	0.013625
8.050000	1	0.010625
8.066667	1	0.007250
8.083333	1	0.005125
8.100000	1	0.003250
8.116667	1	0.001875
8.133333	1	0.000000
8.150000	1	-0.000750
8.166667	1	-0.001875
8.183333	1	-0.002375
8.200000	1	-0.002500
8.216667	1	-0.002375
8.233333	1	-0.002375
8.250000	1	-0.002125
8.266667	1	-0.001500
8.283333	1	-0.000625
8.300000	1	-0.000250
8.316667	1	0.000750
8.333333	1	0.001625
8.350000	1	0.002500
8.366667	1	0.003625
8.383333	1	0.005000
8.400000	1	0.006000
8.416667	1	0.007125
8.433333	1	0.007125
8.450000	1	0.008125
8.466667	1	0.008875
8.483333	1	0.009000
8.500000	1	0.009500
8.516667	1	0.010375
8.533333	1	0.011250
8.550000	1	0.010875
8.566667	1	0.010875
8.583333	1	0.010500
8.600000	1	0.010000
8.616667	1	0.009000
8.633333	1	0.008500
8.650000	1	0.007750
8.666667	1	0.005500
8.683333	1	0.004875
8.700000	1	0.003125
8.716667	1	0.002125
8.733333	1	0.000375
8.750000	1	-0.001250
8.766667	1	-0.002500
8.783333	1	-0.004250
8.800000	1	-0.006250
8.816667	1	-0.008750
8.833333	1	-0.011500
8.850000	1	-0.013750
8.866667	1	-0.016375
8.883333	1	-0.018875
8.900000	1	-0.021625
8.916667	1	-0.023500
8.933333	1	-0.026125
8.950000	1	-0.028500
8.966667	1	-0.030000
8.983333	1	-0.032250
9.000000	1	-0.034500
9.016667	1	-0.036875
9.033333	1	-0.039000
9.050000	1	-0.040750
9.066667	1	-0.043000
9.083333	1	-0.044375
9.100000	1	-0.045875
9.116667	1	-0.048125
9.133333	1	-0.050250
9.150000	1	-0.051125
9.166667	1	-0.052375
9.183333	1	-0.053250
9.200000	1	-0.054875
9.216667	1	-0.055875
9.233333	1	-0.057125
9.250000	1	-0.058125
9.266667	1	-0.058125
9.283333	1	-0.058750
9.300000	1	-0.059750
9.316667	1	-0.059625
9.333333	1	-0.060125
9.350000	1	-0.060125
9.366667	1	-0.059375
9.383333	1	-0.059000
9.400000	1	-0.058625
9.416667	1	-0.058375
9.433333	1	-0.057375
9.450000	1	-0.056875
9.466667	1	-0.055875
9.483333	1	-0.054750
9.500000	1	-0.054125
9.516667	1	-0.053500
9.533333	1	-0.052875
9.550000	1	-0.051250
9.566667	1	-0.050000
9.583333	1	-0.048875
9.600000	1	-0.047500
9.616667	1	-0.046500
9.633333	1	-0.045625
9.650000	1	-0.044250
9.666667	1	-0.042625
9.683333	1	-0.040875
9.700000	1	-0.039750
9.716667	1	-0.037625
9.733333	1	-0.036250
9.750000	1	-0.034250
9.766667	1	-0.032500
9.783333	1	-0.031000
9.800000	1	-0.029250
9.816667	1	-0.027625
9.833333	1	-0.026250
9.850000	1	-0.024750
9.866667	1	-0.022625
9.883333	1	-0.020875
9.900000	1	-0.019000
9.916667	1	-0.017250
9.933333	1	-0.015875
9.950000	1	-0.014250
9.966667	1	-0.012875
9.983333	1	-0.011500
10.000000	1	-0.009750
10.016667	1	-0.008000
10.033333	1	-0.006875
10.050000	1	-0.005750
10.066667	1	-0.004750
10.083333	1	-0.002750
10.100000	1	-0.001250
10.116667	1	0.001875
10.133333	1	0.004375
10.150000	1	0.007625
10.166667	1	0.011125
10.183333	1	0.015500
10.200000	1	0.020375
10.216667	1	0.026625
10.233333	1	0.034125
10.250000	1	0.043125
10.266667	1	0.053375
10.283333	1	0.065750
10.300000	1	0.079750
10.316667	1	0.095250
10.333333	1	0.111875
10.350000	1	0.128875
10.366667	1	0.144000
10.383333	1	0.153500
10.400000	1	0.154000
10.416667	1	0.138500
10.433333	1	0.103375
10.450000	1	0.049250
10.466667	1	-0.019625
10.483333	1	-0.091125
10.500000	1	-0.140000
10.516667	1	-0.128750
10.533333	1	-0.007750
10.550000	1	0.283375
10.566667	1	0.812125
10.583333	1	1.644375
10.600000	1	2.843000
10.616667	1	4.462375
10.633333	1	6.543875
10.650000	1	9.115750
10.666667	1	12.200250
10.683333	1	15.804750
10.700000	1	19.929750
10.716667	1	24.561375
10.733333	1	29.677125
10.750000	1	35.242750
10.766667	1	41.202750
10.783333	1	47.498000
10.800000	1	54.042750
10.816667	1	60.710500
10.833333	1	67.300500
10.850000	1	73.511000
10.866667	1	78.909125
10.883333	1	82.899875
10.900000	1	84.797875
10.916667	1	83.995125
10.933333	1	80.212750
10.950000	1	73.686000
10.966667	1	65.162250
10.983333	1	55.652375
11.000000	1	46.142000
11.016667	1	37.370625
11.033333	1	29.752625
11.050000	1	23.414375
11.066667	1	18.302125
11.083333	1	14.274500
11.100000	1	11.156875
11.116667	1	8.776250
11.133333	1	6.975500
11.150000	1	5.620500
11.166667	1	4.602875
11.183333	1	3.836750
11.200000	1	3.257125
11.216667	1	2.815875
11.233333	1	2.475625
11.250000	1	2.210000
11.266667	1	1.999625
11.283333	1	1.831000
11.300000	1	1.693875
11.316667	1	1.579500
11.333333	1	1.484125
11.350000	1	1.403750
11.366667	1	1.335375
11.383333	1	1.276500
11.400000	1	1.226750
11.416667	1	1.183625
11.433333	1	1.146500
11.450000	1	1.114625
11.466667	1	1.086500
11.483333	1	1.062500
11.500000	1	1.041625
11.516667	1	1.023625
11.533333	1	1.008250
11.550000	1	0.994750
11.566667	1	0.983125
11.583333	1	0.972750
11.600000	1	0.963500
11.616667	1	0.956250
11.633333	1	0.950875
11.650000	1	0.946250
11.666667	1	0.942875
11.683333	1	0.941000
11.700000	1	0.940375
11.716667	1	0.940625
11.733333	1	0.941250
11.750000	1	0.942875
11.766667	1	0.946000
11.783333	1	0.950000
11.800000	1	0.955000
11.816667	1	0.960750
11.833333	1	0.966250
11.850000	1	0.971625
11.866667	1	0.977500
11.883333	1	0.982125
11.900000	1	0.986500
11.916667	1	0.990875
11.933333	1	0.993375
11.950000	1	0.994875
11.966667	1	0.995750
11.983333	1	0.995625
12.000000	1	0.995625
12.016667	1	0.994625
12.033333	1	0.994500
12.050000	1	0.994250
12.066667	1	0.993375
12.083333	1	0.993250
12.100000	1	0.993375
12.116667	1	0.993875
12.133333	1	0.995250
12.150000	1	0.998000
12.166667	1	1.001250
12.183333	1	1.004750
12.200000	1	1.009500
12.216667	1	1.015500
12.233333	1	1.022875
12.250000	1	1.032250
12.266667	1	1.043500
12.283333	1	1.057875
12.300000	1	1.077500
12.316667	1	1.101875
12.333333	1	1.133500
12.350000	1	1.175500
12.366667	1	1.230125
12.383333	1	1.301500
12.400000	1	1.392125
12.416667	1	1.506875
12.433333	1	1.650000
12.450000	1	1.827625
12.466667	1	2.043875
12.483333	1	2.304375
12.500000	1	2.613250
12.516667	1	2.973375
12.533333	1	3.388125
12.550000	1	3.858375
12.566667	1	4.383375
12.583333	1	4.961125
12.600000	1	5.586500
12.616667	1	6.248875
12.633333	1	6.939875
12.650000	1	7.647625
12.666667	1	8.359000
12.683333	1	9.060875
12.700000	1	9.741875
12.716667	1	10.392750
12.733333	1	11.008375
12.750000	1	11.585750
12.766667	1	12.128625
12.783333	1	12.643625
12.800000	1	13.138000
12.816667	1	13.622500
12.833333	1	14.107750
12.850000	1	14.604125
12.866667	1	15.120250
12.883333	1	15.661625
12.900000	1	16.232500
12.916667	1	16.836625
12.933333	1	17.473625
12.950000	1	18.143500
12.966667	1	18.845125
12.983333	1	19.576750
13.000000	1	20.336125
13.016667	1	21.121375
13.033333	1	21.931875
13.050000	1	22.765875
13.066667	1	23.623125
13.083333	1	24.503125
13.100000	1	25.404625
13.116667	1	26.326625
13.133333	1	27.267375
13.150000	1	28.226875
13.166667	1	29.205750
13.183333	1	30.203750
13.200000	1	31.220250
13.216667	1	32.254375
13.233333	1	33.308250
13.250000	1	34.382875
13.266667	1	35.478250
13.283333	1	36.594250
13.300000	1	37.732250
13.316667	1	38.890625
13.333333	1	40.070250
13.350000	1	41.271875
13.366667	1	42.497750
13.383333	1	43.746125
13.400000	1	45.016875
13.416667	1	46.312250
13.433333	1	47.631500
13.450000	1	48.979250
13.466667	1	50.354250
13.483333	1	51.757750
13.500000	1	53.189375
13.516667	1	54.651125
13.533333	1	56.142625
13.550000	1	57.664375
13.566667	1	59.215625
13.583333	1	60.798500
13.600000	1	62.411250
13.616667	1	64.055750
13.633333	1	65.733500
13.650000	1	67.446750
13.666667	1	69.197250
13.683333	1	70.984375
13.700000	1	72.809250
13.716667	1	74.671500
13.733333	1	76.570125
13.750000	1	78.488375
13.766667	1	80.373625
13.783333	1	82.096250
13.800000	1	83.437000
13.816667	1	84.128500
13.833333	1	83.894250
13.850000	1	82.468750
13.866667	1	79.587000
13.883333	1	74.999500
13.900000	1	68.588875
13.916667	1	60.544500
13.933333	1	51.475625
13.950000	1	42.273500
13.966667	1	33.795000
13.983333	1	26.583625
14.000000	1	20.796500
14.016667	1	16.309125
14.033333	1	12.896375
14.050000	1	10.330000
14.066667	1	8.417750
14.083333	1	7.005000
14.100000	1	5.966750
14.116667	1	5.207375
14.133333	1	4.648625
14.150000	1	4.234750
14.166667	1	3.923250
14.183333	1	3.684375
14.200000	1	3.496625
14.216667	1	3.346125
14.233333	1	3.222625
14.250000	1	3.119250
14.266667	1	3.030625
14.283333	1	2.952500
14.300000	1	2.884875
14.316667	1	2.824875
14.333333	1	2.770250
14.350000	1	2.722625
14.366667	1	2.680750
14.383333	1	2.644375
14.400000	1	2.616125
14.416667	1	2.595375
14.433333	1	2.585250
14.450000	1	2.588375
14.466667	1	2.608875
14.483333	1	2.652750
14.500000	1	2.727500
14.516667	1	2.844750
14.533333	1	3.019750
14.550000	1	3.271875
14.566667	1	3.627875
14.583333	1	4.117500
14.600000	1	4.781125
14.616667	1	5.668500
14.633333	1	6.836500
14.650000	1	8.349000
14.666667	1	10.273125
14.683333	1	12.675000
14.700000	1	15.612750
14.716667	1	19.127875
14.733333	1	23.241500
14.750000	1	27.939250
14.766667	1	33.164875
14.783333	1	38.816625
14.800000	1	44.753750
14.816667	1	50.793500
14.833333	1	56.714000
14.850000	1	62.269375
14.866667	1	67.200375
14.883333	1	71.261125
14.900000	1	74.240625
14.916667	1	75.983375
14.933333	1	76.399625
14.950000	1	75.479375
14.966667	1	73.289500
14.983333	1	69.972125
15.000000	1	65.716375
15.016667	1	60.747000
15.033333	1	55.305125
15.050000	1	49.633875
15.066667	1	43.957750
15.083333	1	38.464625
15.100000	1	33.300875
15.116667	1	28.566375
15.133333	1	24.322250
15.150000	1	20.588625
15.166667	1	17.360500
15.183333	1	14.609500
15.200000	1	12.292875
15.216667	1	10.359375
15.233333	1	8.759500
15.250000	1	7.445750
15.266667	1	6.373875
15.283333	1	5.502875
15.300000	1	4.798250
15.316667	1	4.231125
15.333333	1	3.775375
15.350000	1	3.412000
15.366667	1	3.123250
15.383333	1	2.895625
15.400000	1	2.717500
15.416667	1	2.580250
15.433333	1	2.475875
15.450000	1	2.398250
15.466667	1	2.340750
15.483333	1	2.300000
15.500000	1	2.270125
15.516667	1	2.246750
15.533333	1	2.226750
15.550000	1	2.208125
15.566667	1	2.186750
15.583333	1	2.161750
15.600000	1	2.132750
15.616667	1	2.098875
15.633333	1	2.061375
15.650000	1	2.020000
15.666667	1	1.976625
15.683333	1	1.932125
15.700000	1	1.887125
15.716667	1	1.843125
15.733333	1	1.801125
15.750000	1	1.761875
15.766667	1	1.724500
15.783333	1	1.689875
15.800000	1	1.657000
15.816667	1	1.625625
15.833333	1	1.595125
15.850000	1	1.565250
15.866667	1	1.536500
15.883333	1	1.508625
15.900000	1	1.482250
15.916667	1	1.456625
15.933333	1	1.433000
15.950000	1	1.411875
15.966667	1	1.392750
15.983333	1	1.376250
16.000000	1	1.363000
16.016667	1	1.352375
16.033333	1	1.344750
16.050000	1	1.339625
16.066667	1	1.337000
16.083333	1	1.335750
16.100000	1	1.335125
16.116667	1	1.334375
16.133333	1	1.334500
16.150000	1	1.333500
16.166667	1	1.331125
16.183333	1	1.327250
16.200000	1	1.322625
16.216667	1	1.316000
16.233333	1	1.306875
16.250000	1	1.296625
16.266667	1	1.284125
16.283333	1	1.271125
16.300000	1	1.257125
16.316667	1	1.242875
16.333333	1	1.227750
16.350000	1	1.212375
16.366667	1	1.198125
16.383333	1	1.183375
16.400000	1	1.169375
16.416667	1	1.156375
16.433333	1	1.145125
16.450000	1	1.135250
16.466667	1	1.126625
16.483333	1	1.120250
16.500000	1	1.116250
16.516667	1	1.113750
16.533333	1	1.113250
16.550000	1	1.114500
16.566667	1	1.117875
16.583333	1	1.122125
16.600000	1	1.127750
16.616667	1	1.133500
16.633333	1	1.139875
16.650000	1	1.145375
16.666667	1	1.149000
16.683333	1	1.152375
16.700000	1	1.154250
16.716667	1	1.155625
16.733333	1	1.155125
16.750000	1	1.155250
16.766667	1	1.154625
16.783333	1	1.154000
16.800000	1	1.153000
16.816667	1	1.153125
16.833333	1	1.153750
16.850000	1	1.154625
16.866667	1	1.155750
16.883333	1	1.157500
16.900000	1	1.159125
16.916667	1	1.161125
16.933333	1	1.162875
16.950000	1	1.163625
16.966667	1	1.163250
16.983333	1	1.161375
17.000000	1	1.158500
17.016667	1	1.154625
17.033333	1	1.150500
17.050000	1	1.145000
17.066667	1	1.138750
17.083333	1	1.132375
17.100000	1	1.125625
17.116667	1	1.118875
17.133333	1	1.112750
17.150000	1	1.107500
17.166667	1	1.102625
17.183333	1	1.098125
17.200000	1	1.094750
17.216667	1	1.092500
17.233333	1	1.091500
17.250000	1	1.090750
17.266667	1	1.091500
17.283333	1	1.091875
17.300000	1	1.094000
17.316667	1	1.096125
17.333333	1	1.098000
17.350000	1	1.100625
17.366667	1	1.104000
17.383333	1	1.107125
17.400000	1	1.110500
17.416667	1	1.113625
17.433333	1	1.116625
17.450000	1	1.118750
17.466667	1	1.120000
17.483333	1	1.120625
17.500000	1	1.120375
17.516667	1	1.119125
17.533333	1	1.115500
17.550000	1	1.111625
17.566667	1	1.105875
17.583333	1	1.098500
17.600000	1	1.090125
17.616667	1	1.080500
17.633333	1	1.069125
17.650000	1	1.056875
17.666667	1	1.044125
17.683333	1	1.030750
17.700000	1	1.018000
17.716667	1	1.004500
17.733333	1	0.990625
17.750000	1	0.976625
17.766667	1	0.964125
17.783333	1	0.952125
17.800000	1	0.940125
17.816667	1	0.928250
17.833333	1	0.917750
17.850000	1	0.908000
17.866667	1	0.899000
17.883333	1	0.890625
17.900000	1	0.882875
17.916667	1	0.876000
17.933333	1	0.869500
17.950000	1	0.863250
17.966667	1	0.858125
17.983333	1	0.852500
18.000000	1	0.847875
18.016667	1	0.843250
18.033333	1	0.837875
18.050000	1	0.832375
18.066667	1	0.827000
18.083333	1	0.821500
18.100000	1	0.816250
18.116667	1	0.810500
18.133333	1	0.805000
18.150000	1	0.799625
18.166667	1	0.794375
18.183333	1	0.789625
18.200000	1	0.785000
18.216667	1	0.781375
18.233333	1	0.777125
18.250000	1	0.773625
18.266667	1	0.771125
18.283333	1	0.769250
18.300000	1	0.767625
18.316667	1	0.766625
18.333333	1	0.765875
18.350000	1	0.765625
18.366667	1	0.765875
18.383333	1	0.766375
18.400000	1	0.768000
18.416667	1	0.769125
18.433333	1	0.771000
18.450000	1	0.773125
18.466667	1	0.776250
18.483333	1	0.781375
18.500000	1	0.787875
18.516667	1	0.795375
18.533333	1	0.804000
18.550000	1	0.814250
18.566667	1	0.826750
18.583333	1	0.841125
18.600000	1	0.858500
18.616667	1	0.876500
18.633333	1	0.896625
18.650000	1	0.918875
18.666667	1	0.943250
18.683333	1	0.969125
18.700000	1	0.997375
18.716667	1	1.026500
18.733333	1	1.057375
18.750000	1	1.089875
18.766667	1	1.123000
18.783333	1	1.155875
18.800000	1	1.188500
18.816667	1	1.221125
18.833333	1	1.252625
18.850000	1	1.282000
18.866667	1	1.309125
18.883333	1	1.332875
18.900000	1	1.352500
18.916667	1	1.367625
18.933333	1	1.377625
18.950000	1	1.381625
18.966667	1	1.379625
18.983333	1	1.371125
19.000000	1	1.356000
19.016667	1	1.334000
19.033333	1	1.306750
19.050000	1	1.274500
19.066667	1	1.237000
19.083333	1	1.195500
19.100000	1	1.151125
19.116667	1	1.106250
19.133333	1	1.061000
19.150000	1	1.016750
19.166667	1	0.974750
19.183333	1	0.936625
19.200000	1	0.903375
19.216667	1	0.875875
19.233333	1	0.855250
19.250000	1	0.843000
19.266667	1	0.840000
19.283333	1	0.847125
19.300000	1	0.865000
19.316667	1	0.894125
19.333333	1	0.936125
19.350000	1	0.990250
19.366667	1	1.057875
19.383333	1	1.138125
19.400000	1	1.231500
19.416667	1	1.336500
19.433333	1	1.452250
19.450000	1	1.577375
19.466667	1	1.708875
19.483333	1	1.844625
19.500000	1	1.980875
19.516667	1	2.113875
19.533333	1	2.240375
19.550000	1	2.358125
19.566667	1	2.461500
19.583333	1	2.548000
19.600000	1	2.615125
19.616667	1	2.659625
19.633333	1	2.681250
19.650000	1	2.679250
19.666667	1	2.653000
19.683333	1	2.606125
19.700000	1	2.539250
19.716667	1	2.455250
19.733333	1	2.356375
19.750000	1	2.246625
19.766667	1	2.130500
19.783333	1	2.008500
19.800000	1	1.884250
19.816667	1	1.761500
19.833333	1	1.641125
19.850000	1	1.526375
19.866667	1	1.416625
19.883333	1	1.314000
19.900000	1	1.218625
19.916667	1	1.131375
19.933333	1	1.051625
19.950000	1	0.979375
19.966667	1	0.914125
19.983333	1	0.856250
20.000000	1	0.804125
20.016667	1	0.758250
20.033333	1	0.719125
20.050000	1	0.685375
20.066667	1	0.657375
20.083333	1	0.634500
20.100000	1	0.616500
20.116667	1	0.603250
20.133333	1	0.594125
20.150000	1	0.589125
20.166667	1	0.586875
20.183333	1	0.588375
20.200000	1	0.592625
20.216667	1	0.600125
20.233333	1	0.608250
20.250000	1	0.618625
20.266667	1	0.629625
20.283333	1	0.640875
20.300000	1	0.652125
20.316667	1	0.662750
20.333333	1	0.671125
20.350000	1	0.678000
20.366667	1	0.682625
20.383333	1	0.685000
20.400000	1	0.684625
20.416667	1	0.681500
20.433333	1	0.676500
20.450000	1	0.669500
20.466667	1	0.662250
20.483333	1	0.654125
20.500000	1	0.645875
20.516667	1	0.638625
20.533333	1	0.633625
20.550000	1	0.631250
20.566667	1	0.632875
20.583333	1	0.639500
20.600000	1	0.651500
20.616667	1	0.670250
20.633333	1	0.695000
20.650000	1	0.727750
20.666667	1	0.768000
20.683333	1	0.814875
20.700000	1	0.869750
20.716667	1	0.930625
20.733333	1	0.997250
20.750000	1	1.069250
20.766667	1	1.143375
20.783333	1	1.218250
20.800000	1	1.292375
20.816667	1	1.363500
20.833333	1	1.429375
20.850000	1	1.487750
20.866667	1	1.536000
20.883333	1	1.572500
20.900000	1	1.597000
20.916667	1	1.608125
20.933333	1	1.605375
20.950000	1	1.588625
20.966667	1	1.559375
20.983333	1	1.517625
21.000000	1	1.465375
21.016667	1	1.405125
21.033333	1	1.338125
21.050000	1	1.265875
21.066667	1	1.192250
21.083333	1	1.118500
21.100000	1	1.045125
21.116667	1	0.974250
21.133333	1	0.906875
21.150000	1	0.843875
21.166667	1	0.785250
21.183333	1	0.732500
21.200000	1	0.684500
21.216667	1	0.641750
21.233333	1	0.603500
21.250000	1	0.570375
21.266667	1	0.541375
21.283333	1	0.516875
21.300000	1	0.494750
21.316667	1	0.476000
21.333333	1	0.459375
21.350000	1	0.445500
21.366667	1	0.433375
21.383333	1	0.422500
21.400000	1	0.413500
21.416667	1	0.406250
21.433333	1	0.399375
21.450000	1	0.393375
21.466667	1	0.388000
21.483333	1	0.383500
21.500000	1	0.379250
21.516667	1	0.375125
21.533333	1	0.372500
21.550000	1	0.370250
21.566667	1	0.368625
21.583333	1	0.367125
21.600000	1	0.366250
21.616667	1	0.366750
21.633333	1	0.367375
21.650000	1	0.368125
21.666667	1	0.369750
21.683333	1	0.372125
21.700000	1	0.375625
21.716667	1	0.379375
21.733333	1	0.384500
21.750000	1	0.390125
21.766667	1	0.396750
21.783333	1	0.403625
21.800000	1	0.411125
21.816667	1	0.419000
21.833333	1	0.427875
21.850000	1	0.436625
21.866667	1	0.446000
21.883333	1	0.455375
21.900000	1	0.464875
21.916667	1	0.474500
21.933333	1	0.484250
21.950000	1	0.493000
21.966667	1	0.501500
21.983333	1	0.509875
22.000000	1	0.518125
22.016667	1	0.525000
22.033333	1	0.532125
22.050000	1	0.537625
22.066667	1	0.543125
22.083333	1	0.546625
22.100000	1	0.550250
22.116667	1	0.552500
22.133333	1	0.553750
22.150000	1	0.553500
22.166667	1	0.551750
22.183333	1	0.548875
22.200000	1	0.544875
22.216667	1	0.539625
22.233333	1	0.533250
22.250000	1	0.526000
22.266667	1	0.517750
22.283333	1	0.508375
22.300000	1	0.497125
22.316667	1	0.485500
22.333333	1	0.473250
22.350000	1	0.460625
22.366667	1	0.447125
22.383333	1	0.432750
22.400000	1	0.419250
22.416667	1	0.405625
22.433333	1	0.392250
22.450000	1	0.378500
22.466667	1	0.365750
22.483333	1	0.353625
22.500000	1	0.341500
22.516667	1	0.330250
22.533333	1	0.320125
22.550000	1	0.310625
22.566667	1	0.302125
22.583333	1	0.293500
22.600000	1	0.286125
22.616667	1	0.279000
22.633333	1	0.272750
22.650000	1	0.267000
22.666667	1	0.261375
22.683333	1	0.255750
22.700000	1	0.251625
22.716667	1	0.247500
22.733333	1	0.244000
22.750000	1	0.240250
22.766667	1	0.237250
22.783333	1	0.234250
22.800000	1	0.230875
22.816667	1	0.227625
22.833333	1	0.225000
22.850000	1	0.222000
22.866667	1	0.220125
22.883333	1	0.218875
22.900000	1	0.216875
22.916667	1	0.215875
22.933333	1	0.214625
22.950000	1	0.214000
22.966667	1	0.214000
22.983333	1	0.214125
23.000000	1	0.214750
23.016667	1	0.215000
23.033333	1	0.216125
23.050000	1	0.217750
23.066667	1	0.219625
23.083333	1	0.221500
23.100000	1	0.223750
23.116667	1	0.225875
23.133333	1	0.228375
23.150000	1	0.231875
23.166667	1	0.234875
23.183333	1	0.238500
23.200000	1	0.241875
23.216667	1	0.246125
23.233333	1	0.250750
23.250000	1	0.255375
23.266667	1	0.260875
23.283333	1	0.268000
23.300000	1	0.276000
23.316667	1	0.285875
23.333333	1	0.297250
23.350000	1	0.312000
23.366667	1	0.330125
23.383333	1	0.351625
23.400000	1	0.378375
23.416667	1	0.410875
23.433333	1	0.450250
23.450000	1	0.497500
23.466667	1	0.553875
23.483333	1	0.620875
23.500000	1	0.700125
23.516667	1	0.792250
23.533333	1	0.898250
23.550000	1	1.020500
23.566667	1	1.159125
23.583333	1	1.315250
23.600000	1	1.489625
23.616667	1	1.682875
23.633333	1	1.893500
23.650000	1	2.121375
23.666667	1	2.365250
23.683333	1	2.622750
23.700000	1	2.892500
23.716667	1	3.170000
23.733333	1	3.450875
23.750000	1	3.732500
23.766667	1	4.008750
23.783333	1	4.272375
23.800000	1	4.519875
23.816667	1	4.744375
23.833333	1	4.941500
23.850000	1	5.105625
23.866667	1	5.234000
23.883333	1	5.323500
23.900000	1	5.372000
23.916667	1	5.379000
23.933333	1	5.343625
23.950000	1	5.268500
23.966667	1	5.154875
23.983333	1	5.006625
24.000000	1	4.827125
24.016667	1	4.622000
24.033333	1	4.397000
24.050000	1	4.156000
24.066667	1	3.904875
24.083333	1	3.647750
24.100000	1	3.388625
24.116667	1	3.131875
24.133333	1	2.881625
24.150000	1	2.640750
24.166667	1	2.411875
24.183333	1	2.195625
24.200000	1	1.993250
24.216667	1	1.806125
24.233333	1	1.635000
24.250000	1	1.478750
24.266667	1	1.336750
24.283333	1	1.209625
24.300000	1	1.095875
24.316667	1	0.993750
24.333333	1	0.903250
24.350000	1	0.823625
24.366667	1	0.753875
24.383333	1	0.693500
24.400000	1	0.641125
24.416667	1	0.595750
24.433333	1	0.556750
24.450000	1	0.524125
24.466667	1	0.496000
24.483333	1	0.472625
24.500000	1	0.452875
24.516667	1	0.436625
24.533333	1	0.422750
24.550000	1	0.410500
24.566667	1	0.399625
24.583333	1	0.390250
24.600000	1	0.382125
24.616667	1	0.375125
24.633333	1	0.368375
24.650000	1	0.361875
24.666667	1	0.355625
24.683333	1	0.349500
24.700000	1	0.344000
24.716667	1	0.337375
24.733333	1	0.331500
24.750000	1	0.325875
24.766667	1	0.319750
24.783333	1	0.313750
24.800000	1	0.306875
24.816667	1	0.301125
24.833333	1	0.294875
24.850000	1	0.288875
24.866667	1	0.283625
24.883333	1	0.278500
24.900000	1	0.274250
24.916667	1	0.269875
24.933333	1	0.265625
24.950000	1	0.262125
24.966667	1	0.257625
24.983333	1	0.253875
25.000000	1	0.251000
25.016667	1	0.248875
25.033333	1	0.246375
25.050000	1	0.244625
25.066667	1	0.242375
25.083333	1	0.240875
25.100000	1	0.239375
25.116667	1	0.238000
25.133333	1	0.236250
25.150000	1	0.235375
25.166667	1	0.233500
25.183333	1	0.232750
25.200000	1	0.231625
25.216667	1	0.230125
25.233333	1	0.229000
25.250000	1	0.228125
25.266667	1	0.228000
25.283333	1	0.227500
25.300000	1	0.226375
25.316667	1	0.225625
25.333333	1	0.224625
25.350000	1	0.223750
25.366667	1	0.222875
25.383333	1	0.222125
25.400000	1	0.221375
25.416667	1	0.220875
25.433333	1	0.220375
25.450000	1	0.219625
25.466667	1	0.219750
25.483333	1	0.219625
25.500000	1	0.219750
25.516667	1	0.219750
25.533333	1	0.219625
25.550000	1	0.219250
25.566667	1	0.218750
25.583333	1	0.218875
25.600000	1	0.218750
25.616667	1	0.219125
25.633333	1	0.219750
25.650000	1	0.220125
25.666667	1	0.219500
25.683333	1	0.219375
25.700000	1	0.219750
25.716667	1	0.219500
25.733333	1	0.218875
25.750000	1	0.218875
25.766667	1	0.218875
25.783333	1	0.219500
25.800000	1	0.219250
25.816667	1	0.218875
25.833333	1	0.218875
25.850000	1	0.220000
25.866667	1	0.221750
25.883333	1	0.223750
25.900000	1	0.224625
25.916667	1	0.226375
25.933333	1	0.228375
25.950000	1	0.231125
25.966667	1	0.234000
25.983333	1	0.237500
26.000000	1	0.240500
26.016667	1	0.244375
26.033333	1	0.248125
26.050000	1	0.252375
26.066667	1	0.256125
26.083333	1	0.260750
26.100000	1	0.265500
26.116667	1	0.270500
26.133333	1	0.275000
26.150000	1	0.279375
26.166667	1	0.283875
26.183333	1	0.288000
26.200000	1	0.291875
26.216667	1	0.295625
26.233333	1	0.298750
26.250000	1	0.301625
26.266667	1	0.303625
26.283333	1	0.305750
26.300000	1	0.306875
26.316667	1	0.307875
26.333333	1	0.307750
26.350000	1	0.307250
26.366667	1	0.306375
26.383333	1	0.305125
26.400000	1	0.302500
26.416667	1	0.299625
26.433333	1	0.296375
26.450000	1	0.292750
26.466667	1	0.288500
26.483333	1	0.283625
26.500000	1	0.279500
26.516667	1	0.274125
26.533333	1	0.268375
26.550000	1	0.262500
26.566667	1	0.256625
26.583333	1	0.250250
26.600000	1	0.244625
26.616667	1	0.239125
26.633333	1	0.233250
26.650000	1	0.227750
26.666667	1	0.221750
26.683333	1	0.216250
26.700000	1	0.210625
26.716667	1	0.205000
26.733333	1	0.199625
26.750000	1	0.194875
26.766667	1	0.190875
26.783333	1	0.186500
26.800000	1	0.182375
26.816667	1	0.178625
26.833333	1	0.175875
26.850000	1	0.173125
26.866667	1	0.170875
26.883333	1	0.168375
26.900000	1	0.166250
26.916667	1	0.164250
26.933333	1	0.163250
26.950000	1	0.163000
26.966667	1	0.163000
26.983333	1	0.163500
27.000000	1	0.165125
27.016667	1	0.166375
27.033333	1	0.168250
27.050000	1	0.171125
27.066667	1	0.174750
27.083333	1	0.178875
27.100000	1	0.184625
27.116667	1	0.191000
27.133333	1	0.198375
27.150000	1	0.208125
27.166667	1	0.218875
27.183333	1	0.231375
27.200000	1	0.245625
27.216667	1	0.262250
27.233333	1	0.281875
27.250000	1	0.303875
27.266667	1	0.328750
27.283333	1	0.357750
27.300000	1	0.390500
27.316667	1	0.428375
27.333333	1	0.470500
27.350000	1	0.518125
27.366667	1	0.571750
27.383333	1	0.632125
27.400000	1	0.699375
27.416667	1	0.774375
27.433333	1	0.858250
27.450000	1	0.950625
27.466667	1	1.051750
27.483333	1	1.162750
27.500000	1	1.283125
27.516667	1	1.413625
27.533333	1	1.553125
27.550000	1	1.702375
27.566667	1	1.859875
27.583333	1	2.023875
27.600000	1	2.194000
27.616667	1	2.370000
27.633333	1	2.550625
27.650000	1	2.732625
27.666667	1	2.914500
27.683333	1	3.094750
27.700000	1	3.269875
27.716667	1	3.437625
27.733333	1	3.595625
27.750000	1	3.741625
27.766667	1	3.871875
27.783333	1	3.985000
27.800000	1	4.078125
27.816667	1	4.149875
27.833333	1	4.198500
27.850000	1	4.223750
27.866667	1	4.224000
27.883333	1	4.198750
27.900000	1	4.148500
27.916667	1	4.074625
27.933333	1	3.978625
27.950000	1	3.861375
27.966667	1	3.725750
27.983333	1	3.573750
28.000000	1	3.407875
28.016667	1	3.231750
28.033333	1	3.047625
28.050000	1	2.858000
28.066667	1	2.666750
28.083333	1	2.476125
28.100000	1	2.288625
28.116667	1	2.105250
28.133333	1	1.928625
28.150000	1	1.760875
28.166667	1	1.602875
28.183333	1	1.455250
28.200000	1	1.318500
28.216667	1	1.192750
28.233333	1	1.078000
28.250000	1	0.974375
28.266667	1	0.880250
28.283333	1	0.796750
28.300000	1	0.723625
28.316667	1	0.659625
28.333333	1	0.603250
28.350000	1	0.554750
28.366667	1	0.513875
28.383333	1	0.479250
28.400000	1	0.451375
28.416667	1	0.429125
28.433333	1	0.410875
28.450000	1	0.396875
28.466667	1	0.387500
28.483333	1	0.381000
28.500000	1	0.378000
28.516667	1	0.376875
28.533333	1	0.378625
28.550000	1	0.382625
28.566667	1	0.387250
28.583333	1	0.394250
28.600000	1	0.402750
28.616667	1	0.411875
28.633333	1	0.421000
28.650000	1	0.431250
28.666667	1	0.441000
28.683333	1	0.451625
28.700000	1	0.462250
28.716667	1	0.472375
28.733333	1	0.482000
28.750000	1	0.491250
28.766667	1	0.499750
28.783333	1	0.507375
28.800000	1	0.513750
28.816667	1	0.519625
28.833333	1	0.524375
28.850000	1	0.528250
28.866667	1	0.530875
28.883333	1	0.532500
28.900000	1	0.533250
28.916667	1	0.531500
28.933333	1	0.529375
28.950000	1	0.526125
28.966667	1	0.521750
28.983333	1	0.516250
29.000000	1	0.510250
29.016667	1	0.502750
29.033333	1	0.494500
29.050000	1	0.485250
29.066667	1	0.475500
29.083333	1	0.464750
29.100000	1	0.453500
29.116667	1	0.441125
29.133333	1	0.428125
29.150000	1	0.415000
29.166667	1	0.401875
29.183333	1	0.388375
29.200000	1	0.374250
29.216667	1	0.360875
29.233333	1	0.346875
29.250000	1	0.333625
29.266667	1	0.320250
29.283333	1	0.306750
29.300000	1	0.293750
29.316667	1	0.282000
29.333333	1	0.269875
29.350000	1	0.258000
29.366667	1	0.247000
29.383333	1	0.236750
29.400000	1	0.226750
29.416667	1	0.218125
29.433333	1	0.208125
29.450000	1	0.199625
29.466667	1	0.191875
29.483333	1	0.184375
29.500000	1	0.177125
29.516667	1	0.171250
29.533333	1	0.165375
29.550000	1	0.160250
29.566667	1	0.154625
29.583333	1	0.150000
29.600000	1	0.145875
29.616667	1	0.142125
29.633333	1	0.138625
29.650000	1	0.135250
29.666667	1	0.132750
29.683333	1	0.130000
29.700000	1	0.127500
29.716667	1	0.124750
29.733333	1	0.122875
29.750000	1	0.121500
29.766667	1	0.119625
29.783333	1	0.118750
29.800000	1	0.117750
29.816667	1	0.116000
29.833333	1	0.114375
29.850000	1	0.113375
29.866667	1	0.112375
29.883333	1	0.111250
29.900000	1	0.110250
29.916667	1	0.109000
29.933333	1	0.108250
29.950000	1	0.107500
29.966667	1	0.106375
29.983333	1	0.105750
30.000000	1	0.104625
30.016667	1	0.104125
30.033333	1	0.104000
30.050000	1	0.103125
30.066667	1	0.102500
30.083333	1	0.102000
30.100000	1	0.101375
30.116667	1	0.100625
30.133333	1	0.099875
30.150000	1	0.099750
30.166667	1	0.099000
30.183333	1	0.098500
30.200000	1	0.098250
30.216667	1	0.098125
30.233333	1	0.098625
30.250000	1	0.099125
30.266667	1	0.099500
30.283333	1	0.100000
30.300000	1	0.101000
30.316667	1	0.101750
30.333333	1	0.102625
30.350000	1	0.103750
30.366667	1	0.104750
30.383333	1	0.106375
30.400000	1	0.107875
30.416667	1	0.110125
30.433333	1	0.112500
30.450000	1	0.114625
30.466667	1	0.117125
30.483333	1	0.120250
30.500000	1	0.123125
30.516667	1	0.126250
30.533333	1	0.128750
30.550000	1	0.132625
30.566667	1	0.136750
30.583333	1	0.141750
30.600000	1	0.146625
30.616667	1	0.152250
30.633333	1	0.158000
30.650000	1	0.165250
30.666667	1	0.172625
30.683333	1	0.181625
30.700000	1	0.190750
30.716667	1	0.200625
30.733333	1	0.212500
30.750000	1	0.225750
30.766667	1	0.240875
30.783333	1	0.257500
30.800000	1	0.276125
30.816667	1	0.297125
30.833333	1	0.321625
30.850000	1	0.349125
30.866667	1	0.379625
30.883333	1	0.414750
30.900000	1	0.454250
30.916667	1	0.499375
30.933333	1	0.551125
30.950000	1	0.609000
30.966667	1	0.674250
30.983333	1	0.748750
31.000000	1	0.831875
31.016667	1	0.924500
31.033333	1	1.028125
31.050000	1	1.143375
31.066667	1	1.271000
31.083333	1	1.410500
31.100000	1	1.564625
31.116667	1	1.732750
31.133333	1	1.914250
31.150000	1	2.110875
31.166667	1	2.321875
31.183333	1	2.546375
31.200000	1	2.784375
31.216667	1	3.035125
31.233333	1	3.297250
31.250000	1	3.569125
31.266667	1	3.848625
31.283333	1	4.133250
31.300000	1	4.420250
31.316667	1	4.707500
31.333333	1	4.990750
31.350000	1	5.269125
31.366667	1	5.537125
31.383333	1	5.793375
31.400000	1	6.034000
31.416667	1	6.255250
31.433333	1	6.455000
31.450000	1	6.628750
31.466667	1	6.776375
31.483333	1	6.895250
31.500000	1	6.983125
31.516667	1	7.038750
31.533333	1	7.062000
31.550000	1	7.053875
31.566667	1	7.013000
31.583333	1	6.940500
31.600000	1	6.838125
31.616667	1	6.707625
31.633333	1	6.550375
31.650000	1	6.369375
31.666667	1	6.167250
31.683333	1	5.947000
31.700000	1	5.711250
31.716667	1	5.463250
31.733333	1	5.206250
31.750000	1	4.942250
31.766667	1	4.674750
31.783333	1	4.405375
31.800000	1	4.137000
31.816667	1	3.871750
31.833333	1	3.612375
31.850000	1	3.359500
31.866667	1	3.116125
31.883333	1	2.881625
31.900000	1	2.657625
31.916667	1	2.445875
31.933333	1	2.246250
31.950000	1	2.058250
31.966667	1	1.882125
31.983333	1	1.717875
32.000000	1	1.565875
32.016667	1	1.426000
32.033333	1	1.296000
32.050000	1	1.176875
32.066667	1	1.068625
32.083333	1	0.969375
32.100000	1	0.879125
32.116667	1	0.798125
32.133333	1	0.723750
32.150000	1	0.657125
32.166667	1	0.596375
32.183333	1	0.542000
32.200000	1	0.493250
32.216667	1	0.449375
32.233333	1	0.409375
32.250000	1	0.373375
32.266667	1	0.340500
32.283333	1	0.311375
32.300000	1	0.285375
32.316667	1	0.261375
32.333333	1	0.240750
32.350000	1	0.222000
32.366667	1	0.205750
32.383333	1	0.190250
32.400000	1	0.176625
32.416667	1	0.164375
32.433333	1	0.153250
32.450000	1	0.142875
32.466667	1	0.134250
32.483333	1	0.126500
32.500000	1	0.119500
32.516667	1	0.112875
32.533333	1	0.107250
32.550000	1	0.102500
32.566667	1	0.098125
32.583333	1	0.093750
32.600000	1	0.090375
32.616667	1	0.087125
32.633333	1	0.084500
32.650000	1	0.082000
32.666667	1	0.079375
32.683333	1	0.077125
32.700000	1	0.075125
32.716667	1	0.074500
32.733333	1	0.073125
32.750000	1	0.071750
32.766667	1	0.070875
32.783333	1	0.070625
32.800000	1	0.069750
32.816667	1	0.069000
32.833333	1	0.068125
32.850000	1	0.067625
32.866667	1	0.067000
32.883333	1	0.065750
32.900000	1	0.065500
32.916667	1	0.064375
32.933333	1	0.063250
32.950000	1	0.062500
32.966667	1	0.062125
32.983333	1	0.061250
33.000000	1	0.060250
33.016667	1	0.059625
33.033333	1	0.058375
33.050000	1	0.056750
33.066667	1	0.056375
33.083333	1	0.054875
33.100000	1	0.053125
33.116667	1	0.051500
33.133333	1	0.050875
33.150000	1	0.049500
33.166667	1	0.047875
33.183333	1	0.046750
33.200000	1	0.046500
33.216667	1	0.045875
33.233333	1	0.045000
33.250000	1	0.044000
33.266667	1	0.043125
33.283333	1	0.042750
33.300000	1	0.042125
33.316667	1	0.041875
33.333333	1	0.041500
33.350000	1	0.042000
33.366667	1	0.042125
33.383333	1	0.042250
33.400000	1	0.042875
33.416667	1	0.043500
33.433333	1	0.044875
33.450000	1	0.046000
33.466667	1	0.047375
33.483333	1	0.049000
33.500000	1	0.050875
33.516667	1	0.053125
33.533333	1	0.055625
33.550000	1	0.058500
33.566667	1	0.060500
33.583333	1	0.062750
33.600000	1	0.065375
33.616667	1	0.067500
33.633333	1	0.069875
33.650000	1	0.072375
33.666667	1	0.075125
33.683333	1	0.077625
33.700000	1	0.080625
33.716667	1	0.082750
33.733333	1	0.085500
33.750000	1	0.088125
33.766667	1	0.090250
33.783333	1	0.093000
33.800000	1	0.094750
33.816667	1	0.096500
33.833333	1	0.098750
33.850000	1	0.099750
33.866667	1	0.101625
33.883333	1	0.103125
33.900000	1	0.104625
33.916667	1	0.105875
33.933333	1	0.106875
33.950000	1	0.107500
33.966667	1	0.107875
33.983333	1	0.107500
34.000000	1	0.107250
34.016667	1	0.107500
34.033333	1	0.107375
34.050000	1	0.107000
34.066667	1	0.106750
34.083333	1	0.106250
34.100000	1	0.104750
34.116667	1	0.103625
34.133333	1	0.102500
34.150000	1	0.101875
34.166667	1	0.100500
34.183333	1	0.099375
34.200000	1	0.098500
34.216667	1	0.097625
34.233333	1	0.095875
34.250000	1	0.094750
34.266667	1	0.093750
34.283333	1	0.093000
34.300000	1	0.092250
34.316667	1	0.091750
34.333333	1	0.091000
34.350000	1	0.090750
34.366667	1	0.090750
34.383333	1	0.090500
34.400000	1	0.091250
34.416667	1	0.091375
34.433333	1	0.092000
34.450000	1	0.092500
34.466667	1	0.093500
34.483333	1	0.094500
34.500000	1	0.095250
34.516667	1	0.096500
34.533333	1	0.098125
34.550000	1	0.099875
34.566667	1	0.101750
34.583333	1	0.103000
34.600000	1	0.104875
34.616667	1	0.107125
34.633333	1	0.108125
34.650000	1	0.110375
34.666667	1	0.112375
34.683333	1	0.114375
34.700000	1	0.115875
34.716667	1	0.117750
34.733333	1	0.119375
34.750000	1	0.120625
34.766667	1	0.122750
34.783333	1	0.123875
34.800000	1	0.124750
34.816667	1	0.125625
34.833333	1	0.126375
34.850000	1	0.127375
34.866667	1	0.127750
34.883333	1	0.128125
34.900000	1	0.128250
34.916667	1	0.128250
34.933333	1	0.128375
34.950000	1	0.129000
34.966667	1	0.128625
34.983333	1	0.127750
35.000000	1	0.127125
35.016667	1	0.127375
35.033333	1	0.127000
35.050000	1	0.127000
35.066667	1	0.126250
35.083333	1	0.126750
35.100000	1	0.126625
35.116667	1	0.127000
35.133333	1	0.127000
35.150000	1	0.128125
35.166667	1	0.129125
35.183333	1	0.129375
35.200000	1	0.130000
35.216667	1	0.131125
35.233333	1	0.132375
35.250000	1	0.133250
35.266667	1	0.135125
35.283333	1	0.136750
35.300000	1	0.138625
35.316667	1	0.140250
35.333333	1	0.142375
35.350000	1	0.144375
35.366667	1	0.146250
35.383333	1	0.148000
35.400000	1	0.149875
35.416667	1	0.151625
35.433333	1	0.153250
35.450000	1	0.154750
35.466667	1	0.156125
35.483333	1	0.158000
35.500000	1	0.159625
35.516667	1	0.161250
35.533333	1	0.162500
35.550000	1	0.162625
35.566667	1	0.163125
35.583333	1	0.164125
35.600000	1	0.164375
35.616667	1	0.164500
35.633333	1	0.164500
35.650000	1	0.164750
35.666667	1	0.164375
35.683333	1	0.164125
35.700000	1	0.163875
35.716667	1	0.163375
35.733333	1	0.162750
35.750000	1	0.162375
35.766667	1	0.161875
35.783333	1	0.160625
35.800000	1	0.159625
35.816667	1	0.159000
35.833333	1	0.158375
35.850000	1	0.157500
35.866667	1	0.156625
35.883333	1	0.156375
35.900000	1	0.155875
35.916667	1	0.155125
35.933333	1	0.154125
35.950000	1	0.153125
35.966667	1	0.152875
35.983333	1	0.151375
36.000000	1	0.150625
36.016667	1	0.150000
36.033333	1	0.149750
36.050000	1	0.149000
36.066667	1	0.148000
36.083333	1	0.146500
36.100000	1	0.146125
36.116667	1	0.145875
36.133333	1	0.145750
36.150000	1	0.145125
36.166667	1	0.144625
36.183333	1	0.144750
36.200000	1	0.144375
36.216667	1	0.144250
36.233333	1	0.143625
36.250000	1	0.143125
36.266667	1	0.143000
36.283333	1	0.143375
36.300000	1	0.143750
36.316667	1	0.143250
36.333333	1	0.143000
36.350000	1	0.142875
36.366667	1	0.143125
36.383333	1	0.143500
36.400000	1	0.143000
36.416667	1	0.142625
36.433333	1	0.142500
36.450000	1	0.142500
36.466667	1	0.142250
36.483333	1	0.142000
36.500000	1	0.141500
36.516667	1	0.141250
36.533333	1	0.141250
36.550000	1	0.140250
36.566667	1	0.139500
36.583333	1	0.138500
36.600000	1	0.137250
36.616667	1	0.136125
36.633333	1	0.134750
36.650000	1	0.133375
36.666667	1	0.132125
36.683333	1	0.131000
36.700000	1	0.129125
36.716667	1	0.127750
36.733333	1	0.125875
36.750000	1	0.123875
36.766667	1	0.122625
36.783333	1	0.120375
36.800000	1	0.118375
36.816667	1	0.116250
36.833333	1	0.114250
36.850000	1	0.112375
36.866667	1	0.110375
36.883333	1	0.109250
36.900000	1	0.107375
36.916667	1	0.106000
36.933333	1	0.104750
36.950000	1	0.103375
36.966667	1	0.102375
36.983333	1	0.101000
37.000000	1	0.099875
37.016667	1	0.099125
37.033333	1	0.098250
37.050000	1	0.097625
37.066667	1	0.096625
37.083333	1	0.096125
37.100000	1	0.095125
37.116667	1	0.094125
37.133333	1	0.092625
37.150000	1	0.092375
37.166667	1	0.092000
37.183333	1	0.091500
37.200000	1	0.091125
37.216667	1	0.090500
37.233333	1	0.089875
37.250000	1	0.088750
37.266667	1	0.088375
37.283333	1	0.088125
37.300000	1	0.087875
37.316667	1	0.087000
37.333333	1	0.086000
37.350000	1	0.085000
37.366667	1	0.084000
37.383333	1	0.083250
37.400000	1	0.082750
37.416667	1	0.081500
37.433333	1	0.080875
37.450000	1	0.079875
37.466667	1	0.078625
37.483333	1	0.076625
37.500000	1	0.074750
37.516667	1	0.073750
37.533333	1	0.072125
37.550000	1	0.070250
37.566667	1	0.068500
37.583333	1	0.066750
37.600000	1	0.064750
37.616667	1	0.064000
37.633333	1	0.062000
37.650000	1	0.061500
37.666667	1	0.060500
37.683333	1	0.059375
37.700000	1	0.058250
37.716667	1	0.057000
37.733333	1	0.055375
37.750000	1	0.054250
37.766667	1	0.053500
37.783333	1	0.052375
37.800000	1	0.050875
37.816667	1	0.050750
37.833333	1	0.050250
37.850000	1	0.049625
37.866667	1	0.049000
37.883333	1	0.049250
37.900000	1	0.049125
37.916667	1	0.049250
37.933333	1	0.048875
37.950000	1	0.049375
37.966667	1	0.049125
37.983333	1	0.050000
38.000000	1	0.051125
38.016667	1	0.051750
38.033333	1	0.052375
38.050000	1	0.053125
38.066667	1	0.054500
38.083333	1	0.055875
38.100000	1	0.056625
38.116667	1	0.057500
38.133333	1	0.058875
38.150000	1	0.059750
38.166667	1	0.060500
38.183333	1	0.060750
38.200000	1	0.062375
38.216667	1	0.063250
38.233333	1	0.064000
38.250000	1	0.064500
38.266667	1	0.065875
38.283333	1	0.066375
38.300000	1	0.066500
38.316667	1	0.067125
38.333333	1	0.067750
38.350000	1	0.068250
38.366667	1	0.068125
38.383333	1	0.068875
38.400000	1	0.069375
38.416667	1	0.069625
38.433333	1	0.069375
38.450000	1	0.069125
38.466667	1	0.069000
38.483333	1	0.068750
38.500000	1	0.068375
38.516667	1	0.068250
38.533333	1	0.068000
38.550000	1	0.067625
38.566667	1	0.066625
38.583333	1	0.066000
38.600000	1	0.065250
38.616667	1	0.064250
38.633333	1	0.063625
38.650000	1	0.063125
38.666667	1	0.063250
38.683333	1	0.061875
38.700000	1	0.060875
38.716667	1	0.059750
38.733333	1	0.058875
38.750000	1	0.057750
38.766667	1	0.057250
38.783333	1	0.056250
38.800000	1	0.055750
38.816667	1	0.054500
38.833333	1	0.053625
38.850000	1	0.052625
38.866667	1	0.051375
38.883333	1	0.049750
38.900000	1	0.048250
38.916667	1	0.046500
38.933333	1	0.045500
38.950000	1	0.044125
38.966667	1	0.042750
38.983333	1	0.041000
39.000000	1	0.039500
39.016667	1	0.038000
39.033333	1	0.035875
39.050000	1	0.033750
39.066667	1	0.032250
39.083333	1	0.030375
39.100000	1	0.028250
39.116667	1	0.026750
39.133333	1	0.024750
39.150000	1	0.024000
39.166667	1	0.022000
39.183333	1	0.020250
39.200000	1	0.018375
39.216667	1	0.016750
39.233333	1	0.015125
39.250000	1	0.014625
39.266667	1	0.013875
39.283333	1	0.013000
39.300000	1	0.011125
39.316667	1	0.009875
39.333333	1	0.008750
39.350000	1	0.008000
39.366667	1	0.007500
39.383333	1	0.007375
39.400000	1	0.007125
39.416667	1	0.007000
39.433333	1	0.006750
39.450000	1	0.007250
39.466667	1	0.007000
39.483333	1	0.006875
39.500000	1	0.007500
39.516667	1	0.008250
39.533333	1	0.008625
39.550000	1	0.009000
39.566667	1	0.010250
39.583333	1	0.011000
39.600000	1	0.012000
39.616667	1	0.013125
39.633333	1	0.014250
39.650000	1	0.015750
39.666667	1	0.016875
39.683333	1	0.018125
39.700000	1	0.019500
39.716667	1	0.020500
39.733333	1	0.021500
39.750000	1	0.023125
39.766667	1	0.024000
39.783333	1	0.025375
39.800000	1	0.026250
39.816667	1	0.028000
39.833333	1	0.028875
39.850000	1	0.030375
39.866667	1	0.032000
39.883333	1	0.033375
39.900000	1	0.034250
39.916667	1	0.036125
39.933333	1	0.037250
39.950000	1	0.038500
39.966667	1	0.038750
39.983333	1	0.039750
40.000000	1	0.039875
