URL	chrom://bioreactor/micro_cm7/HPLC_Ultimate_3000/Users/markusar/20240708_MA_pHrange1.seq/429.smp/RI_1.channel/RI_1.chm
Channel	RI_1

Injection Information:
Data Vault	micro_cm7
Sequence	20240708_MA_pHrange1
Name	Pv1_20H_3
Number	34
Position	BC10
Comment	
Processing Method	
Instrument Method	run_25B_method
Type	Unknown
Status	Finished
Inject Time	09.07.2024 14:06:35 +02:00
Volume (µl)	20.0000
Dilution Factor	1.0000
Weight	1.0000

Chromatogram Data Information:
Time Min. (min)	0.000000
Time Max. (min)	40.000000
Data Points	2401
Detector	RI
Generating Data System	Chromeleon 7.3.2.11814
Exporting Data System	Chromeleon 7.3.2.0
Operator	Instrument Controller
Signal Quantity	Refractive 
Signal Unit	µRIU
Signal Min.	-0.093375
Signal Max.	84.149250
Channel	RI_1
Driver Name	RID520Driver.dll
Channel Type	Evaluation
Min. Step (s)	1
Max. Step (s)	1
Average Step (s)	1

Signal Parameter Information:
Signal Info	

Chromatogram Data:
Time (min)	Step (s)	Value (µRIU)
0.000000	n.a.	0.044750
0.016667	1	0.043875
0.033333	1	0.042875
0.050000	1	0.042500
0.066667	1	0.041875
0.083333	1	0.041125
0.100000	1	0.039750
0.116667	1	0.038250
0.133333	1	0.037000
0.150000	1	0.036000
0.166667	1	0.034875
0.183333	1	0.034375
0.200000	1	0.033875
0.216667	1	0.033250
0.233333	1	0.032000
0.250000	1	0.032000
0.266667	1	0.030750
0.283333	1	0.029750
0.300000	1	0.029125
0.316667	1	0.028500
0.333333	1	0.027750
0.350000	1	0.026875
0.366667	1	0.025125
0.383333	1	0.023750
0.400000	1	0.022250
0.416667	1	0.021750
0.433333	1	0.022500
0.450000	1	0.023375
0.466667	1	0.024375
0.483333	1	0.024125
0.500000	1	0.024125
0.516667	1	0.024500
0.533333	1	0.023750
0.550000	1	0.022750
0.566667	1	0.020625
0.583333	1	0.018000
0.600000	1	0.015250
0.616667	1	0.013000
0.633333	1	0.011000
0.650000	1	0.009000
0.666667	1	0.007750
0.683333	1	0.006875
0.700000	1	0.006250
0.716667	1	0.005375
0.733333	1	0.005000
0.750000	1	0.004000
0.766667	1	0.003250
0.783333	1	0.002625
0.800000	1	0.001625
0.816667	1	0.001125
0.833333	1	0.000500
0.850000	1	0.000000
0.866667	1	0.000000
0.883333	1	0.000375
0.900000	1	0.000750
0.916667	1	0.000375
0.933333	1	0.000750
0.950000	1	0.000500
0.966667	1	0.000875
0.983333	1	0.002125
1.000000	1	0.003500
1.016667	1	0.004500
1.033333	1	0.006125
1.050000	1	0.007875
1.066667	1	0.009500
1.083333	1	0.011250
1.100000	1	0.012375
1.116667	1	0.014125
1.133333	1	0.016000
1.150000	1	0.017000
1.166667	1	0.018875
1.183333	1	0.020125
1.200000	1	0.021125
1.216667	1	0.022625
1.233333	1	0.025125
1.250000	1	0.026875
1.266667	1	0.028625
1.283333	1	0.029750
1.300000	1	0.030750
1.316667	1	0.031250
1.333333	1	0.032000
1.350000	1	0.032750
1.366667	1	0.033750
1.383333	1	0.033875
1.400000	1	0.034500
1.416667	1	0.034250
1.433333	1	0.035000
1.450000	1	0.035625
1.466667	1	0.034750
1.483333	1	0.034875
1.500000	1	0.034625
1.516667	1	0.034875
1.533333	1	0.034500
1.550000	1	0.034750
1.566667	1	0.034375
1.583333	1	0.034500
1.600000	1	0.035000
1.616667	1	0.034500
1.633333	1	0.033750
1.650000	1	0.033250
1.666667	1	0.032750
1.683333	1	0.032250
1.700000	1	0.031625
1.716667	1	0.030875
1.733333	1	0.029625
1.750000	1	0.029250
1.766667	1	0.028500
1.783333	1	0.028000
1.800000	1	0.027625
1.816667	1	0.026875
1.833333	1	0.026625
1.850000	1	0.026000
1.866667	1	0.024750
1.883333	1	0.024375
1.900000	1	0.023625
1.916667	1	0.023500
1.933333	1	0.022625
1.950000	1	0.021875
1.966667	1	0.021625
1.983333	1	0.021500
2.000000	1	0.021375
2.016667	1	0.021125
2.033333	1	0.020750
2.050000	1	0.020500
2.066667	1	0.020375
2.083333	1	0.020500
2.100000	1	0.020125
2.116667	1	0.020000
2.133333	1	0.020125
2.150000	1	0.020375
2.166667	1	0.020125
2.183333	1	0.020125
2.200000	1	0.019625
2.216667	1	0.019750
2.233333	1	0.020250
2.250000	1	0.020750
2.266667	1	0.021125
2.283333	1	0.021750
2.300000	1	0.022250
2.316667	1	0.022625
2.333333	1	0.023000
2.350000	1	0.023625
2.366667	1	0.024250
2.383333	1	0.025000
2.400000	1	0.025875
2.416667	1	0.026625
2.433333	1	0.027500
2.450000	1	0.028125
2.466667	1	0.028875
2.483333	1	0.030250
2.500000	1	0.031375
2.516667	1	0.032750
2.533333	1	0.033250
2.550000	1	0.034125
2.566667	1	0.035500
2.583333	1	0.036625
2.600000	1	0.036875
2.616667	1	0.037750
2.633333	1	0.039000
2.650000	1	0.039750
2.666667	1	0.041250
2.683333	1	0.041875
2.700000	1	0.042875
2.716667	1	0.043750
2.733333	1	0.045000
2.750000	1	0.045375
2.766667	1	0.046375
2.783333	1	0.047375
2.800000	1	0.047750
2.816667	1	0.047875
2.833333	1	0.048500
2.850000	1	0.048750
2.866667	1	0.049000
2.883333	1	0.049500
2.900000	1	0.050125
2.916667	1	0.050250
2.933333	1	0.050000
2.950000	1	0.049875
2.966667	1	0.050000
2.983333	1	0.050000
3.000000	1	0.049500
3.016667	1	0.049625
3.033333	1	0.049500
3.050000	1	0.050000
3.066667	1	0.049625
3.083333	1	0.048875
3.100000	1	0.048750
3.116667	1	0.047875
3.133333	1	0.047250
3.150000	1	0.047000
3.166667	1	0.046750
3.183333	1	0.046625
3.200000	1	0.046125
3.216667	1	0.045750
3.233333	1	0.045875
3.250000	1	0.045375
3.266667	1	0.045125
3.283333	1	0.044875
3.300000	1	0.044750
3.316667	1	0.044750
3.333333	1	0.044875
3.350000	1	0.045000
3.366667	1	0.045125
3.383333	1	0.045250
3.400000	1	0.044875
3.416667	1	0.044750
3.433333	1	0.045375
3.450000	1	0.044750
3.466667	1	0.044500
3.483333	1	0.044125
3.500000	1	0.044625
3.516667	1	0.044625
3.533333	1	0.044625
3.550000	1	0.044500
3.566667	1	0.045250
3.583333	1	0.044750
3.600000	1	0.044375
3.616667	1	0.044750
3.633333	1	0.045125
3.650000	1	0.045625
3.666667	1	0.045750
3.683333	1	0.046000
3.700000	1	0.046375
3.716667	1	0.047125
3.733333	1	0.047125
3.750000	1	0.047875
3.766667	1	0.048375
3.783333	1	0.049750
3.800000	1	0.050875
3.816667	1	0.051375
3.833333	1	0.052250
3.850000	1	0.053250
3.866667	1	0.055500
3.883333	1	0.056500
3.900000	1	0.057750
3.916667	1	0.058625
3.933333	1	0.059625
3.950000	1	0.062125
3.966667	1	0.064250
3.983333	1	0.066000
4.000000	1	0.067625
4.016667	1	0.070250
4.033333	1	0.072125
4.050000	1	0.073250
4.066667	1	0.075250
4.083333	1	0.077125
4.100000	1	0.079875
4.116667	1	0.081875
4.133333	1	0.083500
4.150000	1	0.084875
4.166667	1	0.087500
4.183333	1	0.089125
4.200000	1	0.091250
4.216667	1	0.094000
4.233333	1	0.096000
4.250000	1	0.098125
4.266667	1	0.100250
4.283333	1	0.102000
4.300000	1	0.104000
4.316667	1	0.105500
4.333333	1	0.107750
4.350000	1	0.109500
4.366667	1	0.111375
4.383333	1	0.113625
4.400000	1	0.115875
4.416667	1	0.118500
4.433333	1	0.120250
4.450000	1	0.122375
4.466667	1	0.124000
4.483333	1	0.126125
4.500000	1	0.127750
4.516667	1	0.129250
4.533333	1	0.129250
4.550000	1	0.131375
4.566667	1	0.134000
4.583333	1	0.136500
4.600000	1	0.138750
4.616667	1	0.140625
4.633333	1	0.143000
4.650000	1	0.144625
4.666667	1	0.147500
4.683333	1	0.149625
4.700000	1	0.151375
4.716667	1	0.154000
4.733333	1	0.156875
4.750000	1	0.158875
4.766667	1	0.162125
4.783333	1	0.164875
4.800000	1	0.167500
4.816667	1	0.170500
4.833333	1	0.173625
4.850000	1	0.177250
4.866667	1	0.181750
4.883333	1	0.184375
4.900000	1	0.188625
4.916667	1	0.193125
4.933333	1	0.196625
4.950000	1	0.200125
4.966667	1	0.204250
4.983333	1	0.208250
5.000000	1	0.212500
5.016667	1	0.216625
5.033333	1	0.220125
5.050000	1	0.224125
5.066667	1	0.228000
5.083333	1	0.232125
5.100000	1	0.235750
5.116667	1	0.239500
5.133333	1	0.243375
5.150000	1	0.247250
5.166667	1	0.251250
5.183333	1	0.255125
5.200000	1	0.258750
5.216667	1	0.261875
5.233333	1	0.265125
5.250000	1	0.268250
5.266667	1	0.270875
5.283333	1	0.274125
5.300000	1	0.276875
5.316667	1	0.280125
5.333333	1	0.283375
5.350000	1	0.286125
5.366667	1	0.288625
5.383333	1	0.291500
5.400000	1	0.294375
5.416667	1	0.296250
5.433333	1	0.298125
5.450000	1	0.300000
5.466667	1	0.301500
5.483333	1	0.303375
5.500000	1	0.304125
5.516667	1	0.304625
5.533333	1	0.305000
5.550000	1	0.305625
5.566667	1	0.307250
5.583333	1	0.307625
5.600000	1	0.307750
5.616667	1	0.307375
5.633333	1	0.306750
5.650000	1	0.305375
5.666667	1	0.304500
5.683333	1	0.303500
5.700000	1	0.302000
5.716667	1	0.300375
5.733333	1	0.298125
5.750000	1	0.295625
5.766667	1	0.293500
5.783333	1	0.290875
5.800000	1	0.288500
5.816667	1	0.285375
5.833333	1	0.282875
5.850000	1	0.279625
5.866667	1	0.276000
5.883333	1	0.272500
5.900000	1	0.269000
5.916667	1	0.264750
5.933333	1	0.260500
5.950000	1	0.256000
5.966667	1	0.252125
5.983333	1	0.248250
6.000000	1	0.244125
6.016667	1	0.239125
6.033333	1	0.235000
6.050000	1	0.230875
6.066667	1	0.225875
6.083333	1	0.221250
6.100000	1	0.216750
6.116667	1	0.212250
6.133333	1	0.207000
6.150000	1	0.202000
6.166667	1	0.197625
6.183333	1	0.193750
6.200000	1	0.189250
6.216667	1	0.185125
6.233333	1	0.180250
6.250000	1	0.176000
6.266667	1	0.172625
6.283333	1	0.168500
6.300000	1	0.164875
6.316667	1	0.161625
6.333333	1	0.158000
6.350000	1	0.155125
6.366667	1	0.152875
6.383333	1	0.149875
6.400000	1	0.147750
6.416667	1	0.145125
6.433333	1	0.143375
6.450000	1	0.141125
6.466667	1	0.139500
6.483333	1	0.138000
6.500000	1	0.136250
6.516667	1	0.134500
6.533333	1	0.132750
6.550000	1	0.131000
6.566667	1	0.130375
6.583333	1	0.128750
6.600000	1	0.127500
6.616667	1	0.126875
6.633333	1	0.125500
6.650000	1	0.123750
6.666667	1	0.122375
6.683333	1	0.121250
6.700000	1	0.119875
6.716667	1	0.118375
6.733333	1	0.117250
6.750000	1	0.116250
6.766667	1	0.114625
6.783333	1	0.113000
6.800000	1	0.111625
6.816667	1	0.110250
6.833333	1	0.108625
6.850000	1	0.106625
6.866667	1	0.104750
6.883333	1	0.102875
6.900000	1	0.101500
6.916667	1	0.099500
6.933333	1	0.098375
6.950000	1	0.097625
6.966667	1	0.097000
6.983333	1	0.095875
7.000000	1	0.095000
7.016667	1	0.095000
7.033333	1	0.094625
7.050000	1	0.095250
7.066667	1	0.096625
7.083333	1	0.096750
7.100000	1	0.097625
7.116667	1	0.098875
7.133333	1	0.099875
7.150000	1	0.101125
7.166667	1	0.103250
7.183333	1	0.105000
7.200000	1	0.106250
7.216667	1	0.108250
7.233333	1	0.110375
7.250000	1	0.113375
7.266667	1	0.115500
7.283333	1	0.117875
7.300000	1	0.120250
7.316667	1	0.122625
7.333333	1	0.125375
7.350000	1	0.128000
7.366667	1	0.130500
7.383333	1	0.132750
7.400000	1	0.135250
7.416667	1	0.138125
7.433333	1	0.139875
7.450000	1	0.142250
7.466667	1	0.144500
7.483333	1	0.146000
7.500000	1	0.147125
7.516667	1	0.147375
7.533333	1	0.147750
7.550000	1	0.148250
7.566667	1	0.148625
7.583333	1	0.148250
7.600000	1	0.146875
7.616667	1	0.145625
7.633333	1	0.144375
7.650000	1	0.142625
7.666667	1	0.140250
7.683333	1	0.137750
7.700000	1	0.135125
7.716667	1	0.133000
7.733333	1	0.130250
7.750000	1	0.127000
7.766667	1	0.124000
7.783333	1	0.120625
7.800000	1	0.116500
7.816667	1	0.112500
7.833333	1	0.108750
7.850000	1	0.104875
7.866667	1	0.100750
7.883333	1	0.096250
7.900000	1	0.091875
7.916667	1	0.088250
7.933333	1	0.084125
7.950000	1	0.080000
7.966667	1	0.077000
7.983333	1	0.073625
8.000000	1	0.070125
8.016667	1	0.067125
8.033333	1	0.064375
8.050000	1	0.061125
8.066667	1	0.057500
8.083333	1	0.054875
8.100000	1	0.052000
8.116667	1	0.049375
8.133333	1	0.047500
8.150000	1	0.045125
8.166667	1	0.043125
8.183333	1	0.040625
8.200000	1	0.039000
8.216667	1	0.037625
8.233333	1	0.036000
8.250000	1	0.033875
8.266667	1	0.032250
8.283333	1	0.030875
8.300000	1	0.028625
8.316667	1	0.027000
8.333333	1	0.025500
8.350000	1	0.024250
8.366667	1	0.023375
8.383333	1	0.022125
8.400000	1	0.019625
8.416667	1	0.018750
8.433333	1	0.017875
8.450000	1	0.016875
8.466667	1	0.016375
8.483333	1	0.015625
8.500000	1	0.015125
8.516667	1	0.014875
8.533333	1	0.015125
8.550000	1	0.014500
8.566667	1	0.014625
8.583333	1	0.014375
8.600000	1	0.014125
8.616667	1	0.014125
8.633333	1	0.015125
8.650000	1	0.016125
8.666667	1	0.017000
8.683333	1	0.018125
8.700000	1	0.018500
8.716667	1	0.019250
8.733333	1	0.020625
8.750000	1	0.022750
8.766667	1	0.023750
8.783333	1	0.024750
8.800000	1	0.026500
8.816667	1	0.028125
8.833333	1	0.029125
8.850000	1	0.031000
8.866667	1	0.032375
8.883333	1	0.034375
8.900000	1	0.036250
8.916667	1	0.037750
8.933333	1	0.039625
8.950000	1	0.041750
8.966667	1	0.043750
8.983333	1	0.045250
9.000000	1	0.047625
9.016667	1	0.049500
9.033333	1	0.051750
9.050000	1	0.053500
9.066667	1	0.055250
9.083333	1	0.057250
9.100000	1	0.058875
9.116667	1	0.060750
9.133333	1	0.062625
9.150000	1	0.064250
9.166667	1	0.066125
9.183333	1	0.068125
9.200000	1	0.069625
9.216667	1	0.070875
9.233333	1	0.071750
9.250000	1	0.073000
9.266667	1	0.073875
9.283333	1	0.075250
9.300000	1	0.076625
9.316667	1	0.077750
9.333333	1	0.078000
9.350000	1	0.078625
9.366667	1	0.079000
9.383333	1	0.079000
9.400000	1	0.079250
9.416667	1	0.079250
9.433333	1	0.079500
9.450000	1	0.079125
9.466667	1	0.078625
9.483333	1	0.078250
9.500000	1	0.077625
9.516667	1	0.077375
9.533333	1	0.076750
9.550000	1	0.076000
9.566667	1	0.075000
9.583333	1	0.074375
9.600000	1	0.073625
9.616667	1	0.072125
9.633333	1	0.071125
9.650000	1	0.070750
9.666667	1	0.070000
9.683333	1	0.069500
9.700000	1	0.069375
9.716667	1	0.068875
9.733333	1	0.068000
9.750000	1	0.068000
9.766667	1	0.067375
9.783333	1	0.066500
9.800000	1	0.066500
9.816667	1	0.066250
9.833333	1	0.066375
9.850000	1	0.066000
9.866667	1	0.065750
9.883333	1	0.065500
9.900000	1	0.065625
9.916667	1	0.065875
9.933333	1	0.065625
9.950000	1	0.065625
9.966667	1	0.066125
9.983333	1	0.066625
10.000000	1	0.066750
10.016667	1	0.067000
10.033333	1	0.067500
10.050000	1	0.067875
10.066667	1	0.068750
10.083333	1	0.070625
10.100000	1	0.072375
10.116667	1	0.074875
10.133333	1	0.077750
10.150000	1	0.081750
10.166667	1	0.086125
10.183333	1	0.091375
10.200000	1	0.097375
10.216667	1	0.105250
10.233333	1	0.114250
10.250000	1	0.124875
10.266667	1	0.137750
10.283333	1	0.152250
10.300000	1	0.168875
10.316667	1	0.187625
10.333333	1	0.207750
10.350000	1	0.228000
10.366667	1	0.246125
10.383333	1	0.260125
10.400000	1	0.263000
10.416667	1	0.252000
10.433333	1	0.220875
10.450000	1	0.168125
10.466667	1	0.094375
10.483333	1	0.009125
10.500000	1	-0.064875
10.516667	1	-0.093375
10.533333	1	-0.020375
10.550000	1	0.223125
10.566667	1	0.716250
10.583333	1	1.540375
10.600000	1	2.775625
10.616667	1	4.488625
10.633333	1	6.729000
10.650000	1	9.531625
10.666667	1	12.919750
10.683333	1	16.904750
10.700000	1	21.484500
10.716667	1	26.642500
10.733333	1	32.350125
10.750000	1	38.561750
10.766667	1	45.200625
10.783333	1	52.162000
10.800000	1	59.278625
10.816667	1	66.288500
10.833333	1	72.785375
10.850000	1	78.209250
10.866667	1	81.862750
10.883333	1	83.036250
10.900000	1	81.237125
10.916667	1	76.436125
10.933333	1	69.149500
10.950000	1	60.297500
10.966667	1	50.914000
10.983333	1	41.868750
11.000000	1	33.730500
11.016667	1	26.773625
11.033333	1	21.049500
11.050000	1	16.467000
11.066667	1	12.875750
11.083333	1	10.105250
11.100000	1	7.993875
11.116667	1	6.398250
11.133333	1	5.196000
11.150000	1	4.291625
11.166667	1	3.608625
11.183333	1	3.088625
11.200000	1	2.689750
11.216667	1	2.381000
11.233333	1	2.138125
11.250000	1	1.944000
11.266667	1	1.787250
11.283333	1	1.658125
11.300000	1	1.550250
11.316667	1	1.459750
11.333333	1	1.383500
11.350000	1	1.319000
11.366667	1	1.263375
11.383333	1	1.215875
11.400000	1	1.175125
11.416667	1	1.140000
11.433333	1	1.110375
11.450000	1	1.084875
11.466667	1	1.063875
11.483333	1	1.046000
11.500000	1	1.030250
11.516667	1	1.017125
11.533333	1	1.006750
11.550000	1	0.999125
11.566667	1	0.992125
11.583333	1	0.986750
11.600000	1	0.983000
11.616667	1	0.981125
11.633333	1	0.980000
11.650000	1	0.980500
11.666667	1	0.982750
11.683333	1	0.985875
11.700000	1	0.991000
11.716667	1	0.997125
11.733333	1	1.004625
11.750000	1	1.013375
11.766667	1	1.022375
11.783333	1	1.032000
11.800000	1	1.041875
11.816667	1	1.052750
11.833333	1	1.063000
11.850000	1	1.072625
11.866667	1	1.081125
11.883333	1	1.089000
11.900000	1	1.096250
11.916667	1	1.102250
11.933333	1	1.107250
11.950000	1	1.111375
11.966667	1	1.114500
11.983333	1	1.117500
12.000000	1	1.119875
12.016667	1	1.122250
12.033333	1	1.125000
12.050000	1	1.127375
12.066667	1	1.129375
12.083333	1	1.132375
12.100000	1	1.135625
12.116667	1	1.139125
12.133333	1	1.143250
12.150000	1	1.147375
12.166667	1	1.152750
12.183333	1	1.158375
12.200000	1	1.164250
12.216667	1	1.172250
12.233333	1	1.181625
12.250000	1	1.193750
12.266667	1	1.208250
12.283333	1	1.226500
12.300000	1	1.249500
12.316667	1	1.279125
12.333333	1	1.317750
12.350000	1	1.368125
12.366667	1	1.433500
12.383333	1	1.518250
12.400000	1	1.626875
12.416667	1	1.764375
12.433333	1	1.937250
12.450000	1	2.150625
12.466667	1	2.410125
12.483333	1	2.721500
12.500000	1	3.090125
12.516667	1	3.518875
12.533333	1	4.008750
12.550000	1	4.559375
12.566667	1	5.165875
12.583333	1	5.821000
12.600000	1	6.515375
12.616667	1	7.233000
12.633333	1	7.961375
12.650000	1	8.684750
12.666667	1	9.389375
12.683333	1	10.062250
12.700000	1	10.696875
12.716667	1	11.290000
12.733333	1	11.841875
12.750000	1	12.359000
12.766667	1	12.849250
12.783333	1	13.323125
12.800000	1	13.791500
12.816667	1	14.265750
12.833333	1	14.753875
12.850000	1	15.266250
12.866667	1	15.806250
12.883333	1	16.378625
12.900000	1	16.984625
12.916667	1	17.623875
12.933333	1	18.295375
12.950000	1	18.998500
12.966667	1	19.730875
12.983333	1	20.491000
13.000000	1	21.276250
13.016667	1	22.086250
13.033333	1	22.918875
13.050000	1	23.775125
13.066667	1	24.653625
13.083333	1	25.552625
13.100000	1	26.473500
13.116667	1	27.413375
13.133333	1	28.373000
13.150000	1	29.351500
13.166667	1	30.349375
13.183333	1	31.366125
13.200000	1	32.401125
13.216667	1	33.454625
13.233333	1	34.527375
13.250000	1	35.620750
13.266667	1	36.735750
13.283333	1	37.872000
13.300000	1	39.029750
13.316667	1	40.209500
13.333333	1	41.412625
13.350000	1	42.639250
13.366667	1	43.888375
13.383333	1	45.161375
13.400000	1	46.457375
13.416667	1	47.779750
13.433333	1	49.127375
13.450000	1	50.503375
13.466667	1	51.907875
13.483333	1	53.342125
13.500000	1	54.806375
13.516667	1	56.301250
13.533333	1	57.825250
13.550000	1	59.380500
13.566667	1	60.966500
13.583333	1	62.584375
13.600000	1	64.232500
13.616667	1	65.914375
13.633333	1	67.631625
13.650000	1	69.386000
13.666667	1	71.179500
13.683333	1	73.011750
13.700000	1	74.883375
13.716667	1	76.791250
13.733333	1	78.719125
13.750000	1	80.606875
13.766667	1	82.316125
13.783333	1	83.602625
13.800000	1	84.149250
13.816667	1	83.611625
13.833333	1	81.665625
13.850000	1	78.037875
13.866667	1	72.589250
13.883333	1	65.446750
13.900000	1	57.087000
13.916667	1	48.262500
13.933333	1	39.752375
13.950000	1	32.136000
13.966667	1	25.699625
13.983333	1	20.475750
14.000000	1	16.347000
14.016667	1	13.136375
14.033333	1	10.672250
14.050000	1	8.804750
14.066667	1	7.406000
14.083333	1	6.369125
14.100000	1	5.603875
14.116667	1	5.037875
14.133333	1	4.617500
14.150000	1	4.300500
14.166667	1	4.056500
14.183333	1	3.864375
14.200000	1	3.710500
14.216667	1	3.584250
14.233333	1	3.477000
14.250000	1	3.385000
14.266667	1	3.304750
14.283333	1	3.234250
14.300000	1	3.170875
14.316667	1	3.113875
14.333333	1	3.062625
14.350000	1	3.017875
14.366667	1	2.979250
14.383333	1	2.947500
14.400000	1	2.922500
14.416667	1	2.906250
14.433333	1	2.901375
14.450000	1	2.911000
14.466667	1	2.940500
14.483333	1	2.997000
14.500000	1	3.091375
14.516667	1	3.237500
14.533333	1	3.454625
14.550000	1	3.770750
14.566667	1	4.219375
14.583333	1	4.844500
14.600000	1	5.701250
14.616667	1	6.854000
14.633333	1	8.375375
14.650000	1	10.344750
14.666667	1	12.834625
14.683333	1	15.909500
14.700000	1	19.608125
14.716667	1	23.937875
14.733333	1	28.871250
14.750000	1	34.326625
14.766667	1	40.163625
14.783333	1	46.192375
14.800000	1	52.189500
14.816667	1	57.896625
14.833333	1	63.046000
14.850000	1	67.374625
14.866667	1	70.653250
14.883333	1	72.710625
14.900000	1	73.449750
14.916667	1	72.857000
14.933333	1	70.994375
14.950000	1	67.998125
14.966667	1	64.063125
14.983333	1	59.421875
15.000000	1	54.313500
15.016667	1	48.969625
15.033333	1	43.600250
15.050000	1	38.382875
15.066667	1	33.458250
15.083333	1	28.921125
15.100000	1	24.832125
15.116667	1	21.213000
15.133333	1	18.060125
15.150000	1	15.348875
15.166667	1	13.043500
15.183333	1	11.102000
15.200000	1	9.478500
15.216667	1	8.130125
15.233333	1	7.015125
15.250000	1	6.098000
15.266667	1	5.347250
15.283333	1	4.737000
15.300000	1	4.242750
15.316667	1	3.845500
15.333333	1	3.528875
15.350000	1	3.278875
15.366667	1	3.084375
15.383333	1	2.934375
15.400000	1	2.822000
15.416667	1	2.739750
15.433333	1	2.680625
15.450000	1	2.640000
15.466667	1	2.610625
15.483333	1	2.588250
15.500000	1	2.569875
15.516667	1	2.552375
15.533333	1	2.532125
15.550000	1	2.508000
15.566667	1	2.479000
15.583333	1	2.445375
15.600000	1	2.407125
15.616667	1	2.365500
15.633333	1	2.322125
15.650000	1	2.277375
15.666667	1	2.233750
15.683333	1	2.191250
15.700000	1	2.150875
15.716667	1	2.112250
15.733333	1	2.075250
15.750000	1	2.040125
15.766667	1	2.006125
15.783333	1	1.973250
15.800000	1	1.940000
15.816667	1	1.906625
15.833333	1	1.873500
15.850000	1	1.840125
15.866667	1	1.807250
15.883333	1	1.775750
15.900000	1	1.746000
15.916667	1	1.718500
15.933333	1	1.693875
15.950000	1	1.672625
15.966667	1	1.655125
15.983333	1	1.641375
16.000000	1	1.631125
16.016667	1	1.623625
16.033333	1	1.618125
16.050000	1	1.614875
16.066667	1	1.612375
16.083333	1	1.610125
16.100000	1	1.607250
16.116667	1	1.603250
16.133333	1	1.597500
16.150000	1	1.590375
16.166667	1	1.581125
16.183333	1	1.571250
16.200000	1	1.558875
16.216667	1	1.544875
16.233333	1	1.529000
16.250000	1	1.512750
16.266667	1	1.495000
16.283333	1	1.476875
16.300000	1	1.459250
16.316667	1	1.441125
16.333333	1	1.422625
16.350000	1	1.404750
16.366667	1	1.387125
16.383333	1	1.371000
16.400000	1	1.357250
16.416667	1	1.344875
16.433333	1	1.335125
16.450000	1	1.327375
16.466667	1	1.322250
16.483333	1	1.320000
16.500000	1	1.321000
16.516667	1	1.323875
16.533333	1	1.328500
16.550000	1	1.334625
16.566667	1	1.341625
16.583333	1	1.349250
16.600000	1	1.355500
16.616667	1	1.361500
16.633333	1	1.366250
16.650000	1	1.369250
16.666667	1	1.371375
16.683333	1	1.372125
16.700000	1	1.371250
16.716667	1	1.369500
16.733333	1	1.368000
16.750000	1	1.366375
16.766667	1	1.364625
16.783333	1	1.364500
16.800000	1	1.364250
16.816667	1	1.365625
16.833333	1	1.366875
16.850000	1	1.369500
16.866667	1	1.372250
16.883333	1	1.374625
16.900000	1	1.376250
16.916667	1	1.377125
16.933333	1	1.376250
16.950000	1	1.374125
16.966667	1	1.371000
16.983333	1	1.366625
17.000000	1	1.360500
17.016667	1	1.353000
17.033333	1	1.344750
17.050000	1	1.336375
17.066667	1	1.328500
17.083333	1	1.320750
17.100000	1	1.312250
17.116667	1	1.305125
17.133333	1	1.298875
17.150000	1	1.293750
17.166667	1	1.290250
17.183333	1	1.288000
17.200000	1	1.287000
17.216667	1	1.286875
17.233333	1	1.287250
17.250000	1	1.289250
17.266667	1	1.292250
17.283333	1	1.295625
17.300000	1	1.299375
17.316667	1	1.303750
17.333333	1	1.308750
17.350000	1	1.314125
17.366667	1	1.320375
17.383333	1	1.325875
17.400000	1	1.331000
17.416667	1	1.335750
17.433333	1	1.339750
17.450000	1	1.342500
17.466667	1	1.344000
17.483333	1	1.344500
17.500000	1	1.342875
17.516667	1	1.340125
17.533333	1	1.335000
17.550000	1	1.328500
17.566667	1	1.320125
17.583333	1	1.310250
17.600000	1	1.298250
17.616667	1	1.285125
17.633333	1	1.271125
17.650000	1	1.256250
17.666667	1	1.240875
17.683333	1	1.225375
17.700000	1	1.209250
17.716667	1	1.193125
17.733333	1	1.176750
17.750000	1	1.160500
17.766667	1	1.145000
17.783333	1	1.129875
17.800000	1	1.115875
17.816667	1	1.102375
17.833333	1	1.089125
17.850000	1	1.076500
17.866667	1	1.065125
17.883333	1	1.054875
17.900000	1	1.044125
17.916667	1	1.034250
17.933333	1	1.025750
17.950000	1	1.017500
17.966667	1	1.009375
17.983333	1	1.001000
18.000000	1	0.993250
18.016667	1	0.984750
18.033333	1	0.977000
18.050000	1	0.969125
18.066667	1	0.961375
18.083333	1	0.953250
18.100000	1	0.945875
18.116667	1	0.938750
18.133333	1	0.932500
18.150000	1	0.926750
18.166667	1	0.921750
18.183333	1	0.917375
18.200000	1	0.914125
18.216667	1	0.911750
18.233333	1	0.910125
18.250000	1	0.909750
18.266667	1	0.909375
18.283333	1	0.908625
18.300000	1	0.909500
18.316667	1	0.911375
18.333333	1	0.913000
18.350000	1	0.915000
18.366667	1	0.917875
18.383333	1	0.921750
18.400000	1	0.925250
18.416667	1	0.930625
18.433333	1	0.935375
18.450000	1	0.941625
18.466667	1	0.949000
18.483333	1	0.958125
18.500000	1	0.968875
18.516667	1	0.981000
18.533333	1	0.996125
18.550000	1	1.012000
18.566667	1	1.029750
18.583333	1	1.049500
18.600000	1	1.071125
18.616667	1	1.095250
18.633333	1	1.120750
18.650000	1	1.147875
18.666667	1	1.176250
18.683333	1	1.206875
18.700000	1	1.239125
18.716667	1	1.271250
18.733333	1	1.304875
18.750000	1	1.339875
18.766667	1	1.375250
18.783333	1	1.409625
18.800000	1	1.443500
18.816667	1	1.476125
18.833333	1	1.507500
18.850000	1	1.536000
18.866667	1	1.561500
18.883333	1	1.582000
18.900000	1	1.597250
18.916667	1	1.606625
18.933333	1	1.610750
18.950000	1	1.607375
18.966667	1	1.596125
18.983333	1	1.578000
19.000000	1	1.553625
19.016667	1	1.522750
19.033333	1	1.486125
19.050000	1	1.445625
19.066667	1	1.400375
19.083333	1	1.354000
19.100000	1	1.306250
19.116667	1	1.260125
19.133333	1	1.216000
19.150000	1	1.175875
19.166667	1	1.141875
19.183333	1	1.114875
19.200000	1	1.097375
19.216667	1	1.091375
19.233333	1	1.098750
19.250000	1	1.120750
19.266667	1	1.159000
19.283333	1	1.216125
19.300000	1	1.292500
19.316667	1	1.389125
19.333333	1	1.507000
19.350000	1	1.645125
19.366667	1	1.803375
19.383333	1	1.980000
19.400000	1	2.171875
19.416667	1	2.374125
19.433333	1	2.583500
19.450000	1	2.794125
19.466667	1	2.999125
19.483333	1	3.193125
19.500000	1	3.369625
19.516667	1	3.522000
19.533333	1	3.645875
19.550000	1	3.737125
19.566667	1	3.793375
19.583333	1	3.811625
19.600000	1	3.793375
19.616667	1	3.739500
19.633333	1	3.652500
19.650000	1	3.537250
19.666667	1	3.398500
19.683333	1	3.241750
19.700000	1	3.070500
19.716667	1	2.891375
19.733333	1	2.708250
19.750000	1	2.526125
19.766667	1	2.347500
19.783333	1	2.175875
19.800000	1	2.012500
19.816667	1	1.859000
19.833333	1	1.717875
19.850000	1	1.587000
19.866667	1	1.468125
19.883333	1	1.361625
19.900000	1	1.264875
19.916667	1	1.179125
19.933333	1	1.103125
19.950000	1	1.036000
19.966667	1	0.977125
19.983333	1	0.925500
20.000000	1	0.881125
20.016667	1	0.843125
20.033333	1	0.811875
20.050000	1	0.785750
20.066667	1	0.765375
20.083333	1	0.749625
20.100000	1	0.738875
20.116667	1	0.732625
20.133333	1	0.731000
20.150000	1	0.732750
20.166667	1	0.737750
20.183333	1	0.746000
20.200000	1	0.756250
20.216667	1	0.768125
20.233333	1	0.780375
20.250000	1	0.793000
20.266667	1	0.804250
20.283333	1	0.813625
20.300000	1	0.821750
20.316667	1	0.827375
20.333333	1	0.829875
20.350000	1	0.829125
20.366667	1	0.825250
20.383333	1	0.818875
20.400000	1	0.808750
20.416667	1	0.796125
20.433333	1	0.781875
20.450000	1	0.765875
20.466667	1	0.749500
20.483333	1	0.733750
20.500000	1	0.720250
20.516667	1	0.709000
20.533333	1	0.701750
20.550000	1	0.698125
20.566667	1	0.699875
20.583333	1	0.707875
20.600000	1	0.722875
20.616667	1	0.745625
20.633333	1	0.777250
20.650000	1	0.817000
20.666667	1	0.865625
20.683333	1	0.923000
20.700000	1	0.988750
20.716667	1	1.061125
20.733333	1	1.139375
20.750000	1	1.222625
20.766667	1	1.307500
20.783333	1	1.392250
20.800000	1	1.474125
20.816667	1	1.551125
20.833333	1	1.620000
20.850000	1	1.678375
20.866667	1	1.724000
20.883333	1	1.756125
20.900000	1	1.773500
20.916667	1	1.776000
20.933333	1	1.762375
20.950000	1	1.734625
20.966667	1	1.694000
20.983333	1	1.641625
21.000000	1	1.579750
21.016667	1	1.511875
21.033333	1	1.438000
21.050000	1	1.361625
21.066667	1	1.284000
21.083333	1	1.208125
21.100000	1	1.134000
21.116667	1	1.063750
21.133333	1	0.998375
21.150000	1	0.937750
21.166667	1	0.882250
21.183333	1	0.832625
21.200000	1	0.788000
21.216667	1	0.748000
21.233333	1	0.713250
21.250000	1	0.683000
21.266667	1	0.657000
21.283333	1	0.634625
21.300000	1	0.614875
21.316667	1	0.598500
21.333333	1	0.584125
21.350000	1	0.571875
21.366667	1	0.560875
21.383333	1	0.551750
21.400000	1	0.543875
21.416667	1	0.537000
21.433333	1	0.531000
21.450000	1	0.526125
21.466667	1	0.521750
21.483333	1	0.518000
21.500000	1	0.514250
21.516667	1	0.511250
21.533333	1	0.509375
21.550000	1	0.508125
21.566667	1	0.506625
21.583333	1	0.506125
21.600000	1	0.506000
21.616667	1	0.506625
21.633333	1	0.508250
21.650000	1	0.511500
21.666667	1	0.515875
21.683333	1	0.521875
21.700000	1	0.528250
21.716667	1	0.535375
21.733333	1	0.544375
21.750000	1	0.553875
21.766667	1	0.564125
21.783333	1	0.576250
21.800000	1	0.588875
21.816667	1	0.602750
21.833333	1	0.617375
21.850000	1	0.631625
21.866667	1	0.645500
21.883333	1	0.660125
21.900000	1	0.674500
21.916667	1	0.688375
21.933333	1	0.701750
21.950000	1	0.713500
21.966667	1	0.725000
21.983333	1	0.734625
22.000000	1	0.743875
22.016667	1	0.751750
22.033333	1	0.757750
22.050000	1	0.762250
22.066667	1	0.765875
22.083333	1	0.767750
22.100000	1	0.768250
22.116667	1	0.767500
22.133333	1	0.764625
22.150000	1	0.761000
22.166667	1	0.756625
22.183333	1	0.751000
22.200000	1	0.743750
22.216667	1	0.735375
22.233333	1	0.725500
22.250000	1	0.714250
22.266667	1	0.701500
22.283333	1	0.688750
22.300000	1	0.675250
22.316667	1	0.660750
22.333333	1	0.646125
22.350000	1	0.631500
22.366667	1	0.615250
22.383333	1	0.599625
22.400000	1	0.584125
22.416667	1	0.568375
22.433333	1	0.552875
22.450000	1	0.537625
22.466667	1	0.522750
22.483333	1	0.508875
22.500000	1	0.496000
22.516667	1	0.483250
22.533333	1	0.471625
22.550000	1	0.461000
22.566667	1	0.449625
22.583333	1	0.439375
22.600000	1	0.430375
22.616667	1	0.420750
22.633333	1	0.413125
22.650000	1	0.405000
22.666667	1	0.396875
22.683333	1	0.389750
22.700000	1	0.382250
22.716667	1	0.375750
22.733333	1	0.370000
22.750000	1	0.364125
22.766667	1	0.358375
22.783333	1	0.353125
22.800000	1	0.348625
22.816667	1	0.343625
22.833333	1	0.339125
22.850000	1	0.335000
22.866667	1	0.331500
22.883333	1	0.328000
22.900000	1	0.326000
22.916667	1	0.323750
22.933333	1	0.322250
22.950000	1	0.320750
22.966667	1	0.320250
22.983333	1	0.320500
23.000000	1	0.321000
23.016667	1	0.321625
23.033333	1	0.323000
23.050000	1	0.325625
23.066667	1	0.327750
23.083333	1	0.331000
23.100000	1	0.333500
23.116667	1	0.336500
23.133333	1	0.339750
23.150000	1	0.343250
23.166667	1	0.346625
23.183333	1	0.350250
23.200000	1	0.354000
23.216667	1	0.357875
23.233333	1	0.361750
23.250000	1	0.365875
23.266667	1	0.370250
23.283333	1	0.375875
23.300000	1	0.382250
23.316667	1	0.390500
23.333333	1	0.401125
23.350000	1	0.413625
23.366667	1	0.430500
23.383333	1	0.451375
23.400000	1	0.477500
23.416667	1	0.510125
23.433333	1	0.550375
23.450000	1	0.599500
23.466667	1	0.659625
23.483333	1	0.731750
23.500000	1	0.816750
23.516667	1	0.917750
23.533333	1	1.035500
23.550000	1	1.173125
23.566667	1	1.328750
23.583333	1	1.504750
23.600000	1	1.701625
23.616667	1	1.918125
23.633333	1	2.153500
23.650000	1	2.405125
23.666667	1	2.672000
23.683333	1	2.949375
23.700000	1	3.233125
23.716667	1	3.519000
23.733333	1	3.800625
23.750000	1	4.073250
23.766667	1	4.330125
23.783333	1	4.565500
23.800000	1	4.773125
23.816667	1	4.948500
23.833333	1	5.087500
23.850000	1	5.187000
23.866667	1	5.245250
23.883333	1	5.262125
23.900000	1	5.236500
23.916667	1	5.170250
23.933333	1	5.066625
23.950000	1	4.927125
23.966667	1	4.759250
23.983333	1	4.566250
24.000000	1	4.353125
24.016667	1	4.124000
24.033333	1	3.885375
24.050000	1	3.642125
24.066667	1	3.397250
24.083333	1	3.155125
24.100000	1	2.918500
24.116667	1	2.690375
24.133333	1	2.472875
24.150000	1	2.267750
24.166667	1	2.075125
24.183333	1	1.895375
24.200000	1	1.730375
24.216667	1	1.579875
24.233333	1	1.442750
24.250000	1	1.319250
24.266667	1	1.207625
24.283333	1	1.107750
24.300000	1	1.018375
24.316667	1	0.939875
24.333333	1	0.870125
24.350000	1	0.809625
24.366667	1	0.757000
24.383333	1	0.712125
24.400000	1	0.673000
24.416667	1	0.640375
24.433333	1	0.612125
24.450000	1	0.589625
24.466667	1	0.570625
24.483333	1	0.555500
24.500000	1	0.543250
24.516667	1	0.533125
24.533333	1	0.525500
24.550000	1	0.520125
24.566667	1	0.515625
24.583333	1	0.511500
24.600000	1	0.507250
24.616667	1	0.503500
24.633333	1	0.500375
24.650000	1	0.497500
24.666667	1	0.495125
24.683333	1	0.491875
24.700000	1	0.487875
24.716667	1	0.483375
24.733333	1	0.478875
24.750000	1	0.473875
24.766667	1	0.469000
24.783333	1	0.464750
24.800000	1	0.459500
24.816667	1	0.453750
24.833333	1	0.448125
24.850000	1	0.442250
24.866667	1	0.436500
24.883333	1	0.430875
24.900000	1	0.425500
24.916667	1	0.420125
24.933333	1	0.414750
24.950000	1	0.409750
24.966667	1	0.403875
24.983333	1	0.398500
25.000000	1	0.393375
25.016667	1	0.388625
25.033333	1	0.383875
25.050000	1	0.379625
25.066667	1	0.375500
25.083333	1	0.371000
25.100000	1	0.366875
25.116667	1	0.363250
25.133333	1	0.359125
25.150000	1	0.355500
25.166667	1	0.351750
25.183333	1	0.348250
25.200000	1	0.344500
25.216667	1	0.341250
25.233333	1	0.337875
25.250000	1	0.335125
25.266667	1	0.331625
25.283333	1	0.328875
25.300000	1	0.326625
25.316667	1	0.324625
25.333333	1	0.322250
25.350000	1	0.320500
25.366667	1	0.318500
25.383333	1	0.317000
25.400000	1	0.315375
25.416667	1	0.315125
25.433333	1	0.315375
25.450000	1	0.315750
25.466667	1	0.316250
25.483333	1	0.316750
25.500000	1	0.318125
25.516667	1	0.318750
25.533333	1	0.319875
25.550000	1	0.321250
25.566667	1	0.322500
25.583333	1	0.324500
25.600000	1	0.326375
25.616667	1	0.327500
25.633333	1	0.329375
25.650000	1	0.331250
25.666667	1	0.333000
25.683333	1	0.334625
25.700000	1	0.336500
25.716667	1	0.337625
25.733333	1	0.339250
25.750000	1	0.341000
25.766667	1	0.342625
25.783333	1	0.344250
25.800000	1	0.345625
25.816667	1	0.347375
25.833333	1	0.348750
25.850000	1	0.350500
25.866667	1	0.352125
25.883333	1	0.354750
25.900000	1	0.357625
25.916667	1	0.360375
25.933333	1	0.363125
25.950000	1	0.366375
25.966667	1	0.369375
25.983333	1	0.373375
26.000000	1	0.377000
26.016667	1	0.381625
26.033333	1	0.386125
26.050000	1	0.391125
26.066667	1	0.396000
26.083333	1	0.401125
26.100000	1	0.407000
26.116667	1	0.411500
26.133333	1	0.416375
26.150000	1	0.421250
26.166667	1	0.426000
26.183333	1	0.430375
26.200000	1	0.434250
26.216667	1	0.437875
26.233333	1	0.441375
26.250000	1	0.444750
26.266667	1	0.447375
26.283333	1	0.449500
26.300000	1	0.451000
26.316667	1	0.451875
26.333333	1	0.451875
26.350000	1	0.450375
26.366667	1	0.447125
26.383333	1	0.444375
26.400000	1	0.441375
26.416667	1	0.438000
26.433333	1	0.434125
26.450000	1	0.429875
26.466667	1	0.424750
26.483333	1	0.419500
26.500000	1	0.413000
26.516667	1	0.406375
26.533333	1	0.400250
26.550000	1	0.393375
26.566667	1	0.386500
26.583333	1	0.379375
26.600000	1	0.372125
26.616667	1	0.365375
26.633333	1	0.357500
26.650000	1	0.350375
26.666667	1	0.343500
26.683333	1	0.337250
26.700000	1	0.331125
26.716667	1	0.325750
26.733333	1	0.319750
26.750000	1	0.313875
26.766667	1	0.308375
26.783333	1	0.303750
26.800000	1	0.299375
26.816667	1	0.295125
26.833333	1	0.291000
26.850000	1	0.287500
26.866667	1	0.283875
26.883333	1	0.280750
26.900000	1	0.278625
26.916667	1	0.276375
26.933333	1	0.274875
26.950000	1	0.273875
26.966667	1	0.273250
26.983333	1	0.272375
27.000000	1	0.272375
27.016667	1	0.272750
27.033333	1	0.274375
27.050000	1	0.276250
27.066667	1	0.278625
27.083333	1	0.281875
27.100000	1	0.285750
27.116667	1	0.290250
27.133333	1	0.296375
27.150000	1	0.303750
27.166667	1	0.312250
27.183333	1	0.322125
27.200000	1	0.334625
27.216667	1	0.348625
27.233333	1	0.366500
27.250000	1	0.386875
27.266667	1	0.409875
27.283333	1	0.437375
27.300000	1	0.469500
27.316667	1	0.507125
27.333333	1	0.551500
27.350000	1	0.601875
27.366667	1	0.660000
27.383333	1	0.726625
27.400000	1	0.802000
27.416667	1	0.887875
27.433333	1	0.983875
27.450000	1	1.092000
27.466667	1	1.213000
27.483333	1	1.345750
27.500000	1	1.492375
27.516667	1	1.651000
27.533333	1	1.822750
27.550000	1	2.006250
27.566667	1	2.201125
27.583333	1	2.404875
27.600000	1	2.617875
27.616667	1	2.838000
27.633333	1	3.061625
27.650000	1	3.287750
27.666667	1	3.512375
27.683333	1	3.732875
27.700000	1	3.945500
27.716667	1	4.146125
27.733333	1	4.333125
27.750000	1	4.503000
27.766667	1	4.651125
27.783333	1	4.775125
27.800000	1	4.872875
27.816667	1	4.942500
27.833333	1	4.984125
27.850000	1	4.994625
27.866667	1	4.974750
27.883333	1	4.925125
27.900000	1	4.844750
27.916667	1	4.737625
27.933333	1	4.605000
27.950000	1	4.450125
27.966667	1	4.275750
27.983333	1	4.086000
28.000000	1	3.883625
28.016667	1	3.672500
28.033333	1	3.453750
28.050000	1	3.233625
28.066667	1	3.013750
28.083333	1	2.797000
28.100000	1	2.586125
28.116667	1	2.382375
28.133333	1	2.187750
28.150000	1	2.003750
28.166667	1	1.831000
28.183333	1	1.670125
28.200000	1	1.521500
28.216667	1	1.385250
28.233333	1	1.260875
28.250000	1	1.148000
28.266667	1	1.046875
28.283333	1	0.955875
28.300000	1	0.875125
28.316667	1	0.803750
28.333333	1	0.741375
28.350000	1	0.687375
28.366667	1	0.640375
28.383333	1	0.601625
28.400000	1	0.569125
28.416667	1	0.542375
28.433333	1	0.520750
28.450000	1	0.504000
28.466667	1	0.491500
28.483333	1	0.482875
28.500000	1	0.477625
28.516667	1	0.476375
28.533333	1	0.477000
28.550000	1	0.480375
28.566667	1	0.485250
28.583333	1	0.492625
28.600000	1	0.500875
28.616667	1	0.510875
28.633333	1	0.521875
28.650000	1	0.533625
28.666667	1	0.545500
28.683333	1	0.557625
28.700000	1	0.569750
28.716667	1	0.582250
28.733333	1	0.594000
28.750000	1	0.604375
28.766667	1	0.613750
28.783333	1	0.622625
28.800000	1	0.630875
28.816667	1	0.638250
28.833333	1	0.644500
28.850000	1	0.649375
28.866667	1	0.653250
28.883333	1	0.654875
28.900000	1	0.655750
28.916667	1	0.654750
28.933333	1	0.653000
28.950000	1	0.649500
28.966667	1	0.645000
28.983333	1	0.639625
29.000000	1	0.633000
29.016667	1	0.625875
29.033333	1	0.617250
29.050000	1	0.607250
29.066667	1	0.596250
29.083333	1	0.584500
29.100000	1	0.571875
29.116667	1	0.558375
29.133333	1	0.544500
29.150000	1	0.529875
29.166667	1	0.515875
29.183333	1	0.501250
29.200000	1	0.486875
29.216667	1	0.472000
29.233333	1	0.457250
29.250000	1	0.442875
29.266667	1	0.428125
29.283333	1	0.413375
29.300000	1	0.399375
29.316667	1	0.385250
29.333333	1	0.371250
29.350000	1	0.357750
29.366667	1	0.345125
29.383333	1	0.332625
29.400000	1	0.321000
29.416667	1	0.309250
29.433333	1	0.298500
29.450000	1	0.288375
29.466667	1	0.279250
29.483333	1	0.270250
29.500000	1	0.261625
29.516667	1	0.253125
29.533333	1	0.244750
29.550000	1	0.237250
29.566667	1	0.230875
29.583333	1	0.224875
29.600000	1	0.219500
29.616667	1	0.214375
29.633333	1	0.209125
29.650000	1	0.203875
29.666667	1	0.199625
29.683333	1	0.196000
29.700000	1	0.192000
29.716667	1	0.187875
29.733333	1	0.184125
29.750000	1	0.181375
29.766667	1	0.178500
29.783333	1	0.176125
29.800000	1	0.173125
29.816667	1	0.171375
29.833333	1	0.169375
29.850000	1	0.167000
29.866667	1	0.164625
29.883333	1	0.162500
29.900000	1	0.160750
29.916667	1	0.158625
29.933333	1	0.156625
29.950000	1	0.154750
29.966667	1	0.153125
29.983333	1	0.151875
30.000000	1	0.149750
30.016667	1	0.146875
30.033333	1	0.145125
30.050000	1	0.143250
30.066667	1	0.141625
30.083333	1	0.140750
30.100000	1	0.139750
30.116667	1	0.138750
30.133333	1	0.138000
30.150000	1	0.136625
30.166667	1	0.135750
30.183333	1	0.135000
30.200000	1	0.134000
30.216667	1	0.133500
30.233333	1	0.133125
30.250000	1	0.133375
30.266667	1	0.133500
30.283333	1	0.133750
30.300000	1	0.133750
30.316667	1	0.134000
30.333333	1	0.134625
30.350000	1	0.135625
30.366667	1	0.136500
30.383333	1	0.137625
30.400000	1	0.139625
30.416667	1	0.141625
30.433333	1	0.144000
30.450000	1	0.146500
30.466667	1	0.148750
30.483333	1	0.151875
30.500000	1	0.155250
30.516667	1	0.159000
30.533333	1	0.163750
30.550000	1	0.168625
30.566667	1	0.173625
30.583333	1	0.179625
30.600000	1	0.185375
30.616667	1	0.192250
30.633333	1	0.198250
30.650000	1	0.205875
30.666667	1	0.213375
30.683333	1	0.221125
30.700000	1	0.229125
30.716667	1	0.237875
30.733333	1	0.247625
30.750000	1	0.257375
30.766667	1	0.268375
30.783333	1	0.279250
30.800000	1	0.290375
30.816667	1	0.302125
30.833333	1	0.314625
30.850000	1	0.327625
30.866667	1	0.341500
30.883333	1	0.356875
30.900000	1	0.373000
30.916667	1	0.391000
30.933333	1	0.409750
30.950000	1	0.430625
30.966667	1	0.453625
30.983333	1	0.478750
31.000000	1	0.506125
31.016667	1	0.536750
31.033333	1	0.570625
31.050000	1	0.608375
31.066667	1	0.650250
31.083333	1	0.696250
31.100000	1	0.747750
31.116667	1	0.804125
31.133333	1	0.866500
31.150000	1	0.935000
31.166667	1	1.009250
31.183333	1	1.089750
31.200000	1	1.177125
31.216667	1	1.270750
31.233333	1	1.370500
31.250000	1	1.475750
31.266667	1	1.586125
31.283333	1	1.700750
31.300000	1	1.819000
31.316667	1	1.940000
31.333333	1	2.062375
31.350000	1	2.186375
31.366667	1	2.308750
31.383333	1	2.428625
31.400000	1	2.545125
31.416667	1	2.657000
31.433333	1	2.761875
31.450000	1	2.858625
31.466667	1	2.945625
31.483333	1	3.022125
31.500000	1	3.087750
31.516667	1	3.140000
31.533333	1	3.178625
31.550000	1	3.204500
31.566667	1	3.215125
31.583333	1	3.211875
31.600000	1	3.194750
31.616667	1	3.164000
31.633333	1	3.120000
31.650000	1	3.063625
31.666667	1	2.996875
31.683333	1	2.918625
31.700000	1	2.831250
31.716667	1	2.737375
31.733333	1	2.636250
31.750000	1	2.529000
31.766667	1	2.418125
31.783333	1	2.305375
31.800000	1	2.190875
31.816667	1	2.075625
31.833333	1	1.961500
31.850000	1	1.848500
31.866667	1	1.737625
31.883333	1	1.629250
31.900000	1	1.524500
31.916667	1	1.424625
31.933333	1	1.330250
31.950000	1	1.240000
31.966667	1	1.154750
31.983333	1	1.074750
32.000000	1	0.998875
32.016667	1	0.928250
32.033333	1	0.861375
32.050000	1	0.799375
32.066667	1	0.741750
32.083333	1	0.688500
32.100000	1	0.639125
32.116667	1	0.594000
32.133333	1	0.551625
32.150000	1	0.513000
32.166667	1	0.476625
32.183333	1	0.443750
32.200000	1	0.412625
32.216667	1	0.383500
32.233333	1	0.356625
32.250000	1	0.332125
32.266667	1	0.309125
32.283333	1	0.287750
32.300000	1	0.268375
32.316667	1	0.250250
32.333333	1	0.234250
32.350000	1	0.218750
32.366667	1	0.204625
32.383333	1	0.191500
32.400000	1	0.178875
32.416667	1	0.168000
32.433333	1	0.158625
32.450000	1	0.149500
32.466667	1	0.140750
32.483333	1	0.133125
32.500000	1	0.126500
32.516667	1	0.120125
32.533333	1	0.114250
32.550000	1	0.109625
32.566667	1	0.104625
32.583333	1	0.100250
32.600000	1	0.096750
32.616667	1	0.093625
32.633333	1	0.090250
32.650000	1	0.087750
32.666667	1	0.084750
32.683333	1	0.082375
32.700000	1	0.079375
32.716667	1	0.077250
32.733333	1	0.074875
32.750000	1	0.073000
32.766667	1	0.071250
32.783333	1	0.069875
32.800000	1	0.068500
32.816667	1	0.066750
32.833333	1	0.065750
32.850000	1	0.065375
32.866667	1	0.063625
32.883333	1	0.061500
32.900000	1	0.059625
32.916667	1	0.058750
32.933333	1	0.057375
32.950000	1	0.057000
32.966667	1	0.056250
32.983333	1	0.056000
33.000000	1	0.054125
33.016667	1	0.053250
33.033333	1	0.052500
33.050000	1	0.052500
33.066667	1	0.051500
33.083333	1	0.052250
33.100000	1	0.052250
33.116667	1	0.052000
33.133333	1	0.052500
33.150000	1	0.052875
33.166667	1	0.054000
33.183333	1	0.054125
33.200000	1	0.054250
33.216667	1	0.055375
33.233333	1	0.057000
33.250000	1	0.058000
33.266667	1	0.058875
33.283333	1	0.060500
33.300000	1	0.061750
33.316667	1	0.063875
33.333333	1	0.066500
33.350000	1	0.068500
33.366667	1	0.070625
33.383333	1	0.072250
33.400000	1	0.074750
33.416667	1	0.076875
33.433333	1	0.078500
33.450000	1	0.081375
33.466667	1	0.083500
33.483333	1	0.085875
33.500000	1	0.088250
33.516667	1	0.090875
33.533333	1	0.093375
33.550000	1	0.095750
33.566667	1	0.098375
33.583333	1	0.101250
33.600000	1	0.103375
33.616667	1	0.105500
33.633333	1	0.107875
33.650000	1	0.110000
33.666667	1	0.112250
33.683333	1	0.114500
33.700000	1	0.116625
33.716667	1	0.118250
33.733333	1	0.121000
33.750000	1	0.122875
33.766667	1	0.125375
33.783333	1	0.127750
33.800000	1	0.129375
33.816667	1	0.131250
33.833333	1	0.132500
33.850000	1	0.133750
33.866667	1	0.136125
33.883333	1	0.137375
33.900000	1	0.138375
33.916667	1	0.140000
33.933333	1	0.140750
33.950000	1	0.142000
33.966667	1	0.143250
33.983333	1	0.144375
34.000000	1	0.144875
34.016667	1	0.145125
34.033333	1	0.145375
34.050000	1	0.145750
34.066667	1	0.145875
34.083333	1	0.145375
34.100000	1	0.145250
34.116667	1	0.145375
34.133333	1	0.145875
34.150000	1	0.145625
34.166667	1	0.145000
34.183333	1	0.144875
34.200000	1	0.145000
34.216667	1	0.145375
34.233333	1	0.145500
34.250000	1	0.146125
34.266667	1	0.146625
34.283333	1	0.147000
34.300000	1	0.147625
34.316667	1	0.147625
34.333333	1	0.148250
34.350000	1	0.149875
34.366667	1	0.150500
34.383333	1	0.151750
34.400000	1	0.153250
34.416667	1	0.153875
34.433333	1	0.155375
34.450000	1	0.157250
34.466667	1	0.158000
34.483333	1	0.159125
34.500000	1	0.160625
34.516667	1	0.162125
34.533333	1	0.163500
34.550000	1	0.165375
34.566667	1	0.166875
34.583333	1	0.168625
34.600000	1	0.169250
34.616667	1	0.170250
34.633333	1	0.170875
34.650000	1	0.171500
34.666667	1	0.172000
34.683333	1	0.172125
34.700000	1	0.172250
34.716667	1	0.172125
34.733333	1	0.172375
34.750000	1	0.171625
34.766667	1	0.171125
34.783333	1	0.170125
34.800000	1	0.168500
34.816667	1	0.168250
34.833333	1	0.167125
34.850000	1	0.166125
34.866667	1	0.164875
34.883333	1	0.164500
34.900000	1	0.163875
34.916667	1	0.162875
34.933333	1	0.161125
34.950000	1	0.159250
34.966667	1	0.158500
34.983333	1	0.157500
35.000000	1	0.156500
35.016667	1	0.155125
35.033333	1	0.154125
35.050000	1	0.154000
35.066667	1	0.154000
35.083333	1	0.153125
35.100000	1	0.152875
35.116667	1	0.152000
35.133333	1	0.152500
35.150000	1	0.152625
35.166667	1	0.152250
35.183333	1	0.151750
35.200000	1	0.151625
35.216667	1	0.151625
35.233333	1	0.151375
35.250000	1	0.151875
35.266667	1	0.152125
35.283333	1	0.152375
35.300000	1	0.152750
35.316667	1	0.153375
35.333333	1	0.154000
35.350000	1	0.154375
35.366667	1	0.155625
35.383333	1	0.155875
35.400000	1	0.156875
35.416667	1	0.157375
35.433333	1	0.158125
35.450000	1	0.158875
35.466667	1	0.160125
35.483333	1	0.161625
35.500000	1	0.163000
35.516667	1	0.164375
35.533333	1	0.165375
35.550000	1	0.166500
35.566667	1	0.167625
35.583333	1	0.169000
35.600000	1	0.170125
35.616667	1	0.170750
35.633333	1	0.171750
35.650000	1	0.172875
35.666667	1	0.173375
35.683333	1	0.174125
35.700000	1	0.175375
35.716667	1	0.175375
35.733333	1	0.176000
35.750000	1	0.177375
35.766667	1	0.178125
35.783333	1	0.178250
35.800000	1	0.178375
35.816667	1	0.178625
35.833333	1	0.179250
35.850000	1	0.179250
35.866667	1	0.179625
35.883333	1	0.179750
35.900000	1	0.180250
35.916667	1	0.179625
35.933333	1	0.179875
35.950000	1	0.179625
35.966667	1	0.179375
35.983333	1	0.179375
36.000000	1	0.179625
36.016667	1	0.178875
36.033333	1	0.179500
36.050000	1	0.178875
36.066667	1	0.178875
36.083333	1	0.178875
36.100000	1	0.178625
36.116667	1	0.178625
36.133333	1	0.178750
36.150000	1	0.178875
36.166667	1	0.179375
36.183333	1	0.179875
36.200000	1	0.180000
36.216667	1	0.180500
36.233333	1	0.180125
36.250000	1	0.180125
36.266667	1	0.180750
36.283333	1	0.181125
36.300000	1	0.181375
36.316667	1	0.181875
36.333333	1	0.182250
36.350000	1	0.182250
36.366667	1	0.182125
36.383333	1	0.182750
36.400000	1	0.182750
36.416667	1	0.182375
36.433333	1	0.181750
36.450000	1	0.181000
36.466667	1	0.180125
36.483333	1	0.179000
36.500000	1	0.178375
36.516667	1	0.177250
36.533333	1	0.175875
36.550000	1	0.174750
36.566667	1	0.174000
36.583333	1	0.172250
36.600000	1	0.170375
36.616667	1	0.167875
36.633333	1	0.165875
36.650000	1	0.163250
36.666667	1	0.160500
36.683333	1	0.157375
36.700000	1	0.155125
36.716667	1	0.153000
36.733333	1	0.149750
36.750000	1	0.146375
36.766667	1	0.142750
36.783333	1	0.139750
36.800000	1	0.136500
36.816667	1	0.132875
36.833333	1	0.130000
36.850000	1	0.127250
36.866667	1	0.124500
36.883333	1	0.122000
36.900000	1	0.119625
36.916667	1	0.117000
36.933333	1	0.114500
36.950000	1	0.112000
36.966667	1	0.110000
36.983333	1	0.107500
37.000000	1	0.105375
37.016667	1	0.104875
37.033333	1	0.103125
37.050000	1	0.101000
37.066667	1	0.099125
37.083333	1	0.098125
37.100000	1	0.096750
37.116667	1	0.095750
37.133333	1	0.095625
37.150000	1	0.095000
37.166667	1	0.094125
37.183333	1	0.093875
37.200000	1	0.093500
37.216667	1	0.093250
37.233333	1	0.092375
37.250000	1	0.092625
37.266667	1	0.093000
37.283333	1	0.092500
37.300000	1	0.092750
37.316667	1	0.093125
37.333333	1	0.094000
37.350000	1	0.094500
37.366667	1	0.094875
37.383333	1	0.094625
37.400000	1	0.094625
37.416667	1	0.094875
37.433333	1	0.095750
37.450000	1	0.096000
37.466667	1	0.096625
37.483333	1	0.096625
37.500000	1	0.096750
37.516667	1	0.097000
37.533333	1	0.097250
37.550000	1	0.096875
37.566667	1	0.096625
37.583333	1	0.096250
37.600000	1	0.096125
37.616667	1	0.095500
37.633333	1	0.094625
37.650000	1	0.093500
37.666667	1	0.091000
37.683333	1	0.090500
37.700000	1	0.089250
37.716667	1	0.088000
37.733333	1	0.086500
37.750000	1	0.085000
37.766667	1	0.084250
37.783333	1	0.082875
37.800000	1	0.081375
37.816667	1	0.079375
37.833333	1	0.078375
37.850000	1	0.076500
37.866667	1	0.074625
37.883333	1	0.073625
37.900000	1	0.072375
37.916667	1	0.070750
37.933333	1	0.070000
37.950000	1	0.068750
37.966667	1	0.067500
37.983333	1	0.065625
38.000000	1	0.064500
38.016667	1	0.063750
38.033333	1	0.064125
38.050000	1	0.063625
38.066667	1	0.062875
38.083333	1	0.063375
38.100000	1	0.063750
38.116667	1	0.064250
38.133333	1	0.064500
38.150000	1	0.065000
38.166667	1	0.065750
38.183333	1	0.065875
38.200000	1	0.067000
38.216667	1	0.067500
38.233333	1	0.069125
38.250000	1	0.070500
38.266667	1	0.072250
38.283333	1	0.074375
38.300000	1	0.076875
38.316667	1	0.078625
38.333333	1	0.080125
38.350000	1	0.082125
38.366667	1	0.083875
38.383333	1	0.086000
38.400000	1	0.087625
38.416667	1	0.089500
38.433333	1	0.091750
38.450000	1	0.094125
38.466667	1	0.096375
38.483333	1	0.097750
38.500000	1	0.098875
38.516667	1	0.100625
38.533333	1	0.102000
38.550000	1	0.103750
38.566667	1	0.104500
38.583333	1	0.104750
38.600000	1	0.105500
38.616667	1	0.106250
38.633333	1	0.107375
38.650000	1	0.107875
38.666667	1	0.108375
38.683333	1	0.109250
38.700000	1	0.109250
38.716667	1	0.108875
38.733333	1	0.108250
38.750000	1	0.108750
38.766667	1	0.108375
38.783333	1	0.107625
38.800000	1	0.107125
38.816667	1	0.106375
38.833333	1	0.105375
38.850000	1	0.104000
38.866667	1	0.103375
38.883333	1	0.102625
38.900000	1	0.102125
38.916667	1	0.101875
38.933333	1	0.101125
38.950000	1	0.099875
38.966667	1	0.098250
38.983333	1	0.096875
39.000000	1	0.095250
39.016667	1	0.093875
39.033333	1	0.092125
39.050000	1	0.089625
39.066667	1	0.088000
39.083333	1	0.086500
39.100000	1	0.084500
39.116667	1	0.082500
39.133333	1	0.080500
39.150000	1	0.078750
39.166667	1	0.076875
39.183333	1	0.074500
39.200000	1	0.071375
39.216667	1	0.069125
39.233333	1	0.067125
39.250000	1	0.064875
39.266667	1	0.063375
39.283333	1	0.061500
39.300000	1	0.058375
39.316667	1	0.055500
39.333333	1	0.053125
39.350000	1	0.050750
39.366667	1	0.048750
39.383333	1	0.046750
39.400000	1	0.044875
39.416667	1	0.043375
39.433333	1	0.041875
39.450000	1	0.040250
39.466667	1	0.038875
39.483333	1	0.037375
39.500000	1	0.036000
39.516667	1	0.034750
39.533333	1	0.032625
39.550000	1	0.031250
39.566667	1	0.030125
39.583333	1	0.028875
39.600000	1	0.028750
39.616667	1	0.027875
39.633333	1	0.027625
39.650000	1	0.027750
39.666667	1	0.027500
39.683333	1	0.028250
39.700000	1	0.028500
39.716667	1	0.029000
39.733333	1	0.029250
39.750000	1	0.029125
39.766667	1	0.030125
39.783333	1	0.030250
39.800000	1	0.031000
39.816667	1	0.032000
39.833333	1	0.032500
39.850000	1	0.034250
39.866667	1	0.035625
39.883333	1	0.036000
39.900000	1	0.036625
39.916667	1	0.036875
39.933333	1	0.037750
39.950000	1	0.038750
39.966667	1	0.039875
39.983333	1	0.040875
40.000000	1	0.041625
