URL	chrom://bioreactor/micro_cm7/HPLC_Ultimate_3000/Users/markusar/20240708_MA_pHrange1.seq/118.smp/RI_1.channel/RI_1.chm
Channel	RI_1

Injection Information:
Data Vault	micro_cm7
Sequence	20240708_MA_pHrange1
Name	Pv1_6.5_3
Number	4
Position	BA4
Comment	
Processing Method	
Instrument Method	run_25B_method
Type	Unknown
Status	Finished
Inject Time	08.07.2024 17:37:20 +02:00
Volume (µl)	20.0000
Dilution Factor	1.0000
Weight	1.0000

Chromatogram Data Information:
Time Min. (min)	0.000000
Time Max. (min)	40.000000
Data Points	2401
Detector	RI
Generating Data System	Chromeleon 7.3.2.11814
Exporting Data System	Chromeleon 7.3.2.0
Operator	Instrument Controller
Signal Quantity	Refractive 
Signal Unit	µRIU
Signal Min.	-0.030875
Signal Max.	83.576125
Channel	RI_1
Driver Name	RID520Driver.dll
Channel Type	Evaluation
Min. Step (s)	1
Max. Step (s)	1
Average Step (s)	1

Signal Parameter Information:
Signal Info	

Chromatogram Data:
Time (min)	Step (s)	Value (µRIU)
0.000000	n.a.	0.025000
0.016667	1	0.023625
0.033333	1	0.022000
0.050000	1	0.021250
0.066667	1	0.019750
0.083333	1	0.018875
0.100000	1	0.017375
0.116667	1	0.016375
0.133333	1	0.015250
0.150000	1	0.014750
0.166667	1	0.013250
0.183333	1	0.011875
0.200000	1	0.011000
0.216667	1	0.009375
0.233333	1	0.008250
0.250000	1	0.006750
0.266667	1	0.005875
0.283333	1	0.005250
0.300000	1	0.005000
0.316667	1	0.004500
0.333333	1	0.003750
0.350000	1	0.002750
0.366667	1	0.001250
0.383333	1	0.000000
0.400000	1	-0.001000
0.416667	1	-0.000500
0.433333	1	0.000375
0.450000	1	0.002250
0.466667	1	0.004125
0.483333	1	0.005500
0.500000	1	0.006000
0.516667	1	0.006375
0.533333	1	0.007125
0.550000	1	0.007000
0.566667	1	0.005375
0.583333	1	0.004000
0.600000	1	0.002125
0.616667	1	0.000125
0.633333	1	0.000000
0.650000	1	-0.000750
0.666667	1	-0.000750
0.683333	1	-0.000625
0.700000	1	-0.000375
0.716667	1	0.000000
0.733333	1	0.000875
0.750000	1	0.000875
0.766667	1	0.000625
0.783333	1	0.001000
0.800000	1	0.001500
0.816667	1	0.002250
0.833333	1	0.002500
0.850000	1	0.003375
0.866667	1	0.004500
0.883333	1	0.005000
0.900000	1	0.006125
0.916667	1	0.007000
0.933333	1	0.008500
0.950000	1	0.009250
0.966667	1	0.010125
0.983333	1	0.011000
1.000000	1	0.012250
1.016667	1	0.013875
1.033333	1	0.016000
1.050000	1	0.017625
1.066667	1	0.019625
1.083333	1	0.021375
1.100000	1	0.023625
1.116667	1	0.025375
1.133333	1	0.027375
1.150000	1	0.029250
1.166667	1	0.030625
1.183333	1	0.033375
1.200000	1	0.035250
1.216667	1	0.036875
1.233333	1	0.038250
1.250000	1	0.039875
1.266667	1	0.042250
1.283333	1	0.044000
1.300000	1	0.045500
1.316667	1	0.046375
1.333333	1	0.047375
1.350000	1	0.047375
1.366667	1	0.047500
1.383333	1	0.047375
1.400000	1	0.047125
1.416667	1	0.046500
1.433333	1	0.045750
1.450000	1	0.044625
1.466667	1	0.043750
1.483333	1	0.041375
1.500000	1	0.039500
1.516667	1	0.037500
1.533333	1	0.034875
1.550000	1	0.032000
1.566667	1	0.029250
1.583333	1	0.026250
1.600000	1	0.023000
1.616667	1	0.020000
1.633333	1	0.016375
1.650000	1	0.014250
1.666667	1	0.010625
1.683333	1	0.007000
1.700000	1	0.003500
1.716667	1	0.000625
1.733333	1	-0.002000
1.750000	1	-0.005125
1.766667	1	-0.007500
1.783333	1	-0.010000
1.800000	1	-0.012250
1.816667	1	-0.014000
1.833333	1	-0.016000
1.850000	1	-0.017750
1.866667	1	-0.019375
1.883333	1	-0.020125
1.900000	1	-0.021250
1.916667	1	-0.022375
1.933333	1	-0.023875
1.950000	1	-0.024500
1.966667	1	-0.024500
1.983333	1	-0.025625
2.000000	1	-0.025875
2.016667	1	-0.026500
2.033333	1	-0.026750
2.050000	1	-0.027625
2.066667	1	-0.027375
2.083333	1	-0.027125
2.100000	1	-0.027625
2.116667	1	-0.027625
2.133333	1	-0.028125
2.150000	1	-0.028375
2.166667	1	-0.027875
2.183333	1	-0.028875
2.200000	1	-0.029000
2.216667	1	-0.028625
2.233333	1	-0.028500
2.250000	1	-0.028750
2.266667	1	-0.028875
2.283333	1	-0.028875
2.300000	1	-0.030000
2.316667	1	-0.030250
2.333333	1	-0.030375
2.350000	1	-0.030625
2.366667	1	-0.030875
2.383333	1	-0.030625
2.400000	1	-0.030250
2.416667	1	-0.029500
2.433333	1	-0.029750
2.450000	1	-0.029625
2.466667	1	-0.029500
2.483333	1	-0.029500
2.500000	1	-0.029125
2.516667	1	-0.028750
2.533333	1	-0.028375
2.550000	1	-0.027875
2.566667	1	-0.027125
2.583333	1	-0.026625
2.600000	1	-0.025625
2.616667	1	-0.024750
2.633333	1	-0.024125
2.650000	1	-0.023375
2.666667	1	-0.022000
2.683333	1	-0.021750
2.700000	1	-0.021000
2.716667	1	-0.019750
2.733333	1	-0.018125
2.750000	1	-0.016875
2.766667	1	-0.016125
2.783333	1	-0.015875
2.800000	1	-0.014750
2.816667	1	-0.013375
2.833333	1	-0.011750
2.850000	1	-0.011250
2.866667	1	-0.010625
2.883333	1	-0.010000
2.900000	1	-0.010125
2.916667	1	-0.009375
2.933333	1	-0.009250
2.950000	1	-0.009000
2.966667	1	-0.008625
2.983333	1	-0.008000
3.000000	1	-0.007750
3.016667	1	-0.006625
3.033333	1	-0.006500
3.050000	1	-0.005125
3.066667	1	-0.004875
3.083333	1	-0.004250
3.100000	1	-0.003750
3.116667	1	-0.003250
3.133333	1	-0.002625
3.150000	1	-0.001625
3.166667	1	-0.000625
3.183333	1	0.000750
3.200000	1	0.001750
3.216667	1	0.002625
3.233333	1	0.004625
3.250000	1	0.006875
3.266667	1	0.008500
3.283333	1	0.010500
3.300000	1	0.012625
3.316667	1	0.015125
3.333333	1	0.017625
3.350000	1	0.020250
3.366667	1	0.022875
3.383333	1	0.025500
3.400000	1	0.028625
3.416667	1	0.031500
3.433333	1	0.034000
3.450000	1	0.037250
3.466667	1	0.040250
3.483333	1	0.043375
3.500000	1	0.045875
3.516667	1	0.048375
3.533333	1	0.051250
3.550000	1	0.053500
3.566667	1	0.055625
3.583333	1	0.058250
3.600000	1	0.060375
3.616667	1	0.062375
3.633333	1	0.064000
3.650000	1	0.065000
3.666667	1	0.065625
3.683333	1	0.066500
3.700000	1	0.066500
3.716667	1	0.067375
3.733333	1	0.067000
3.750000	1	0.066875
3.766667	1	0.066875
3.783333	1	0.066250
3.800000	1	0.066625
3.816667	1	0.066375
3.833333	1	0.066000
3.850000	1	0.065125
3.866667	1	0.064375
3.883333	1	0.063000
3.900000	1	0.062250
3.916667	1	0.062000
3.933333	1	0.061250
3.950000	1	0.060375
3.966667	1	0.060750
3.983333	1	0.060250
4.000000	1	0.059875
4.016667	1	0.059750
4.033333	1	0.059500
4.050000	1	0.059375
4.066667	1	0.059375
4.083333	1	0.059125
4.100000	1	0.060000
4.116667	1	0.060250
4.133333	1	0.061000
4.150000	1	0.061000
4.166667	1	0.061500
4.183333	1	0.061625
4.200000	1	0.061875
4.216667	1	0.062125
4.233333	1	0.062500
4.250000	1	0.063375
4.266667	1	0.062875
4.283333	1	0.063000
4.300000	1	0.062875
4.316667	1	0.062875
4.333333	1	0.062375
4.350000	1	0.062625
4.366667	1	0.062375
4.383333	1	0.061750
4.400000	1	0.060750
4.416667	1	0.060125
4.433333	1	0.059625
4.450000	1	0.058750
4.466667	1	0.057875
4.483333	1	0.057500
4.500000	1	0.056625
4.516667	1	0.056125
4.533333	1	0.055125
4.550000	1	0.054375
4.566667	1	0.054375
4.583333	1	0.054375
4.600000	1	0.054875
4.616667	1	0.055000
4.633333	1	0.055625
4.650000	1	0.056500
4.666667	1	0.057250
4.683333	1	0.057500
4.700000	1	0.059000
4.716667	1	0.060625
4.733333	1	0.062250
4.750000	1	0.063750
4.766667	1	0.065375
4.783333	1	0.067500
4.800000	1	0.070250
4.816667	1	0.072375
4.833333	1	0.075500
4.850000	1	0.078250
4.866667	1	0.081500
4.883333	1	0.084875
4.900000	1	0.088875
4.916667	1	0.093250
4.933333	1	0.096875
4.950000	1	0.101125
4.966667	1	0.105750
4.983333	1	0.111000
5.000000	1	0.115875
5.016667	1	0.120875
5.033333	1	0.125750
5.050000	1	0.131500
5.066667	1	0.136875
5.083333	1	0.142750
5.100000	1	0.147750
5.116667	1	0.153375
5.133333	1	0.159250
5.150000	1	0.165125
5.166667	1	0.171375
5.183333	1	0.177625
5.200000	1	0.183375
5.216667	1	0.189000
5.233333	1	0.193250
5.250000	1	0.198750
5.266667	1	0.204125
5.283333	1	0.209375
5.300000	1	0.213750
5.316667	1	0.218000
5.333333	1	0.222125
5.350000	1	0.226500
5.366667	1	0.230875
5.383333	1	0.234375
5.400000	1	0.237250
5.416667	1	0.240875
5.433333	1	0.243625
5.450000	1	0.246875
5.466667	1	0.249000
5.483333	1	0.250750
5.500000	1	0.252250
5.516667	1	0.253375
5.533333	1	0.254750
5.550000	1	0.254500
5.566667	1	0.254500
5.583333	1	0.254875
5.600000	1	0.254625
5.616667	1	0.253750
5.633333	1	0.253000
5.650000	1	0.251875
5.666667	1	0.250250
5.683333	1	0.248000
5.700000	1	0.245875
5.716667	1	0.242875
5.733333	1	0.240250
5.750000	1	0.237250
5.766667	1	0.234000
5.783333	1	0.231250
5.800000	1	0.228375
5.816667	1	0.224500
5.833333	1	0.220250
5.850000	1	0.215625
5.866667	1	0.210625
5.883333	1	0.206000
5.900000	1	0.201125
5.916667	1	0.196125
5.933333	1	0.191875
5.950000	1	0.187125
5.966667	1	0.181750
5.983333	1	0.177000
6.000000	1	0.172625
6.016667	1	0.168125
6.033333	1	0.164250
6.050000	1	0.159875
6.066667	1	0.155625
6.083333	1	0.151500
6.100000	1	0.148125
6.116667	1	0.144625
6.133333	1	0.141000
6.150000	1	0.137625
6.166667	1	0.134500
6.183333	1	0.131875
6.200000	1	0.129125
6.216667	1	0.126625
6.233333	1	0.124500
6.250000	1	0.122750
6.266667	1	0.121375
6.283333	1	0.119625
6.300000	1	0.117375
6.316667	1	0.115875
6.333333	1	0.114000
6.350000	1	0.113000
6.366667	1	0.112125
6.383333	1	0.111250
6.400000	1	0.110375
6.416667	1	0.110250
6.433333	1	0.109875
6.450000	1	0.109875
6.466667	1	0.109750
6.483333	1	0.109375
6.500000	1	0.109875
6.516667	1	0.110375
6.533333	1	0.110625
6.550000	1	0.111375
6.566667	1	0.111875
6.583333	1	0.112375
6.600000	1	0.113500
6.616667	1	0.114625
6.633333	1	0.115250
6.650000	1	0.116125
6.666667	1	0.117000
6.683333	1	0.117875
6.700000	1	0.118875
6.716667	1	0.119625
6.733333	1	0.120625
6.750000	1	0.121125
6.766667	1	0.122250
6.783333	1	0.122500
6.800000	1	0.122375
6.816667	1	0.122125
6.833333	1	0.122000
6.850000	1	0.122000
6.866667	1	0.121500
6.883333	1	0.120750
6.900000	1	0.119750
6.916667	1	0.118750
6.933333	1	0.117500
6.950000	1	0.116000
6.966667	1	0.115500
6.983333	1	0.114375
7.000000	1	0.112750
7.016667	1	0.110500
7.033333	1	0.109250
7.050000	1	0.108125
7.066667	1	0.107000
7.083333	1	0.105375
7.100000	1	0.104500
7.116667	1	0.103250
7.133333	1	0.103000
7.150000	1	0.102500
7.166667	1	0.102000
7.183333	1	0.102000
7.200000	1	0.101375
7.216667	1	0.101750
7.233333	1	0.102375
7.250000	1	0.102625
7.266667	1	0.103875
7.283333	1	0.104750
7.300000	1	0.105625
7.316667	1	0.106250
7.333333	1	0.106750
7.350000	1	0.108250
7.366667	1	0.109625
7.383333	1	0.110750
7.400000	1	0.111500
7.416667	1	0.111750
7.433333	1	0.111375
7.450000	1	0.111625
7.466667	1	0.111375
7.483333	1	0.111250
7.500000	1	0.110625
7.516667	1	0.109750
7.533333	1	0.108875
7.550000	1	0.108250
7.566667	1	0.106750
7.583333	1	0.105125
7.600000	1	0.103250
7.616667	1	0.101500
7.633333	1	0.099500
7.650000	1	0.097250
7.666667	1	0.095375
7.683333	1	0.093375
7.700000	1	0.091500
7.716667	1	0.088875
7.733333	1	0.086500
7.750000	1	0.084625
7.766667	1	0.082500
7.783333	1	0.080125
7.800000	1	0.077875
7.816667	1	0.076125
7.833333	1	0.073875
7.850000	1	0.071375
7.866667	1	0.069875
7.883333	1	0.067625
7.900000	1	0.065250
7.916667	1	0.062500
7.933333	1	0.060000
7.950000	1	0.058000
7.966667	1	0.055625
7.983333	1	0.053375
8.000000	1	0.051125
8.016667	1	0.048250
8.033333	1	0.045250
8.050000	1	0.043000
8.066667	1	0.040250
8.083333	1	0.038250
8.100000	1	0.035250
8.116667	1	0.032625
8.133333	1	0.031000
8.150000	1	0.028250
8.166667	1	0.025750
8.183333	1	0.023125
8.200000	1	0.020750
8.216667	1	0.017250
8.233333	1	0.015125
8.250000	1	0.012750
8.266667	1	0.009750
8.283333	1	0.007125
8.300000	1	0.004375
8.316667	1	0.002625
8.333333	1	0.000500
8.350000	1	-0.001125
8.366667	1	-0.003500
8.383333	1	-0.005250
8.400000	1	-0.006875
8.416667	1	-0.008000
8.433333	1	-0.009375
8.450000	1	-0.010750
8.466667	1	-0.012250
8.483333	1	-0.012750
8.500000	1	-0.013625
8.516667	1	-0.014000
8.533333	1	-0.014125
8.550000	1	-0.014500
8.566667	1	-0.014250
8.583333	1	-0.013750
8.600000	1	-0.013375
8.616667	1	-0.012750
8.633333	1	-0.013250
8.650000	1	-0.012250
8.666667	1	-0.011500
8.683333	1	-0.010125
8.700000	1	-0.009000
8.716667	1	-0.007750
8.733333	1	-0.005750
8.750000	1	-0.003750
8.766667	1	-0.002000
8.783333	1	0.000000
8.800000	1	0.002125
8.816667	1	0.004250
8.833333	1	0.006625
8.850000	1	0.009000
8.866667	1	0.010250
8.883333	1	0.012000
8.900000	1	0.014625
8.916667	1	0.017000
8.933333	1	0.019250
8.950000	1	0.021375
8.966667	1	0.024000
8.983333	1	0.026125
9.000000	1	0.027875
9.016667	1	0.029250
9.033333	1	0.031125
9.050000	1	0.032000
9.066667	1	0.033000
9.083333	1	0.033250
9.100000	1	0.033250
9.116667	1	0.034000
9.133333	1	0.034250
9.150000	1	0.034000
9.166667	1	0.034375
9.183333	1	0.034000
9.200000	1	0.034000
9.216667	1	0.033125
9.233333	1	0.032375
9.250000	1	0.031250
9.266667	1	0.029750
9.283333	1	0.027250
9.300000	1	0.024750
9.316667	1	0.023625
9.333333	1	0.022125
9.350000	1	0.021125
9.366667	1	0.018750
9.383333	1	0.016500
9.400000	1	0.014250
9.416667	1	0.012500
9.433333	1	0.009875
9.450000	1	0.007750
9.466667	1	0.005875
9.483333	1	0.003625
9.500000	1	0.002000
9.516667	1	-0.000125
9.533333	1	-0.002375
9.550000	1	-0.004500
9.566667	1	-0.005875
9.583333	1	-0.007375
9.600000	1	-0.008375
9.616667	1	-0.010000
9.633333	1	-0.011125
9.650000	1	-0.012500
9.666667	1	-0.013375
9.683333	1	-0.014500
9.700000	1	-0.015375
9.716667	1	-0.016125
9.733333	1	-0.016250
9.750000	1	-0.016000
9.766667	1	-0.016000
9.783333	1	-0.016125
9.800000	1	-0.016000
9.816667	1	-0.015250
9.833333	1	-0.015000
9.850000	1	-0.014625
9.866667	1	-0.014000
9.883333	1	-0.013375
9.900000	1	-0.012125
9.916667	1	-0.011500
9.933333	1	-0.010250
9.950000	1	-0.008875
9.966667	1	-0.007750
9.983333	1	-0.007000
10.000000	1	-0.006250
10.016667	1	-0.004875
10.033333	1	-0.003250
10.050000	1	-0.000750
10.066667	1	0.001125
10.083333	1	0.004250
10.100000	1	0.008500
10.116667	1	0.013250
10.133333	1	0.018875
10.150000	1	0.025000
10.166667	1	0.032125
10.183333	1	0.040000
10.200000	1	0.049750
10.216667	1	0.061375
10.233333	1	0.074375
10.250000	1	0.089250
10.266667	1	0.106750
10.283333	1	0.126250
10.300000	1	0.148875
10.316667	1	0.174000
10.333333	1	0.202250
10.350000	1	0.231875
10.366667	1	0.263625
10.383333	1	0.294750
10.400000	1	0.323625
10.416667	1	0.343625
10.433333	1	0.353125
10.450000	1	0.344750
10.466667	1	0.313875
10.483333	1	0.258125
10.500000	1	0.186250
10.516667	1	0.122750
10.533333	1	0.110875
10.550000	1	0.217125
10.566667	1	0.522500
10.583333	1	1.115500
10.600000	1	2.080750
10.616667	1	3.491750
10.633333	1	5.402750
10.650000	1	7.847000
10.666667	1	10.840500
10.683333	1	14.380375
10.700000	1	18.439750
10.716667	1	22.964250
10.733333	1	27.858125
10.750000	1	32.975625
10.766667	1	38.088375
10.783333	1	42.882375
10.800000	1	46.948625
10.816667	1	49.821750
10.833333	1	51.075625
10.850000	1	50.459000
10.866667	1	47.992125
10.883333	1	43.991625
10.900000	1	38.981875
10.916667	1	33.544000
10.933333	1	28.172750
10.950000	1	23.210750
10.966667	1	18.846750
10.983333	1	15.148625
11.000000	1	12.103250
11.016667	1	9.650750
11.033333	1	7.713125
11.050000	1	6.203375
11.066667	1	5.038125
11.083333	1	4.144375
11.100000	1	3.460375
11.116667	1	2.937125
11.133333	1	2.535125
11.150000	1	2.223750
11.166667	1	1.981875
11.183333	1	1.790500
11.200000	1	1.637875
11.216667	1	1.514625
11.233333	1	1.413500
11.250000	1	1.329375
11.266667	1	1.259000
11.283333	1	1.199375
11.300000	1	1.148125
11.316667	1	1.103750
11.333333	1	1.066125
11.350000	1	1.033000
11.366667	1	1.004250
11.383333	1	0.978625
11.400000	1	0.956000
11.416667	1	0.936625
11.433333	1	0.919125
11.450000	1	0.903125
11.466667	1	0.888750
11.483333	1	0.876875
11.500000	1	0.865750
11.516667	1	0.855500
11.533333	1	0.847250
11.550000	1	0.840375
11.566667	1	0.834625
11.583333	1	0.830000
11.600000	1	0.827000
11.616667	1	0.824750
11.633333	1	0.823625
11.650000	1	0.823875
11.666667	1	0.825500
11.683333	1	0.828000
11.700000	1	0.831750
11.716667	1	0.836125
11.733333	1	0.842125
11.750000	1	0.848375
11.766667	1	0.854625
11.783333	1	0.861500
11.800000	1	0.869125
11.816667	1	0.876125
11.833333	1	0.882375
11.850000	1	0.888500
11.866667	1	0.893750
11.883333	1	0.898125
11.900000	1	0.902625
11.916667	1	0.906625
11.933333	1	0.910125
11.950000	1	0.912875
11.966667	1	0.916250
11.983333	1	0.919000
12.000000	1	0.921625
12.016667	1	0.924875
12.033333	1	0.929375
12.050000	1	0.933625
12.066667	1	0.938250
12.083333	1	0.943625
12.100000	1	0.949750
12.116667	1	0.956375
12.133333	1	0.963250
12.150000	1	0.971875
12.166667	1	0.980000
12.183333	1	0.990000
12.200000	1	1.001625
12.216667	1	1.014625
12.233333	1	1.030250
12.250000	1	1.049125
12.266667	1	1.072750
12.283333	1	1.102125
12.300000	1	1.139125
12.316667	1	1.187625
12.333333	1	1.250375
12.350000	1	1.330750
12.366667	1	1.432375
12.383333	1	1.560500
12.400000	1	1.721625
12.416667	1	1.918750
12.433333	1	2.156750
12.450000	1	2.442875
12.466667	1	2.780625
12.483333	1	3.174125
12.500000	1	3.627500
12.516667	1	4.141375
12.533333	1	4.715500
12.550000	1	5.345125
12.566667	1	6.023625
12.583333	1	6.739375
12.600000	1	7.478125
12.616667	1	8.224875
12.633333	1	8.963500
12.650000	1	9.680125
12.666667	1	10.364500
12.683333	1	11.007125
12.700000	1	11.606125
12.716667	1	12.163750
12.733333	1	12.684750
12.750000	1	13.179500
12.766667	1	13.658375
12.783333	1	14.134125
12.800000	1	14.615375
12.816667	1	15.112875
12.833333	1	15.632750
12.850000	1	16.181750
12.866667	1	16.761625
12.883333	1	17.375000
12.900000	1	18.021000
12.916667	1	18.698875
12.933333	1	19.406250
12.950000	1	20.141500
12.966667	1	20.902875
12.983333	1	21.691000
13.000000	1	22.501500
13.016667	1	23.334625
13.033333	1	24.189375
13.050000	1	25.065125
13.066667	1	25.963500
13.083333	1	26.882875
13.100000	1	27.822625
13.116667	1	28.782000
13.133333	1	29.760875
13.150000	1	30.758500
13.166667	1	31.775125
13.183333	1	32.810875
13.200000	1	33.864750
13.216667	1	34.937250
13.233333	1	36.029875
13.250000	1	37.143625
13.266667	1	38.278000
13.283333	1	39.434625
13.300000	1	40.614250
13.316667	1	41.817500
13.333333	1	43.043250
13.350000	1	44.293625
13.366667	1	45.567250
13.383333	1	46.865750
13.400000	1	48.188625
13.416667	1	49.537375
13.433333	1	50.912500
13.450000	1	52.317250
13.466667	1	53.751250
13.483333	1	55.216375
13.500000	1	56.711500
13.516667	1	58.238000
13.533333	1	59.795875
13.550000	1	61.386250
13.566667	1	63.009125
13.583333	1	64.664875
13.600000	1	66.352500
13.616667	1	68.074750
13.633333	1	69.833625
13.650000	1	71.632125
13.666667	1	73.470000
13.683333	1	75.348750
13.700000	1	77.264875
13.716667	1	79.193875
13.733333	1	81.050750
13.750000	1	82.627875
13.766667	1	83.576125
13.783333	1	83.439250
13.800000	1	81.759000
13.816667	1	78.169250
13.833333	1	72.530000
13.850000	1	65.053875
13.866667	1	56.347375
13.883333	1	47.262750
13.900000	1	38.628000
13.916667	1	31.012625
13.933333	1	24.654500
13.950000	1	19.537125
13.966667	1	15.509125
13.983333	1	12.383625
14.000000	1	9.985875
14.016667	1	8.164250
14.033333	1	6.798250
14.050000	1	5.784500
14.066667	1	5.036500
14.083333	1	4.485250
14.100000	1	4.074875
14.116667	1	3.767125
14.133333	1	3.532500
14.150000	1	3.349500
14.166667	1	3.202875
14.183333	1	3.083875
14.200000	1	2.985250
14.216667	1	2.900750
14.233333	1	2.827750
14.250000	1	2.762375
14.266667	1	2.704750
14.283333	1	2.653500
14.300000	1	2.607375
14.316667	1	2.566375
14.333333	1	2.530375
14.350000	1	2.498875
14.366667	1	2.472000
14.383333	1	2.450875
14.400000	1	2.437250
14.416667	1	2.431625
14.433333	1	2.436000
14.450000	1	2.454750
14.466667	1	2.492625
14.483333	1	2.559750
14.500000	1	2.667000
14.516667	1	2.833750
14.533333	1	3.085125
14.550000	1	3.457000
14.566667	1	3.996625
14.583333	1	4.760000
14.600000	1	5.817250
14.616667	1	7.251625
14.633333	1	9.151125
14.650000	1	11.603625
14.666667	1	14.683625
14.683333	1	18.443000
14.700000	1	22.893500
14.716667	1	27.999375
14.733333	1	33.670500
14.750000	1	39.758500
14.766667	1	46.045875
14.783333	1	52.266875
14.800000	1	58.136000
14.816667	1	63.361625
14.833333	1	67.669000
14.850000	1	70.824000
14.866667	1	72.662750
14.883333	1	73.106625
14.900000	1	72.169875
14.916667	1	69.953750
14.933333	1	66.632125
14.950000	1	62.430625
14.966667	1	57.604250
14.983333	1	52.408250
15.000000	1	47.073750
15.016667	1	41.798750
15.033333	1	36.740750
15.050000	1	32.016500
15.066667	1	27.702625
15.083333	1	23.836375
15.100000	1	20.427625
15.116667	1	17.461875
15.133333	1	14.908250
15.150000	1	12.730500
15.166667	1	10.886375
15.183333	1	9.334000
15.200000	1	8.033875
15.216667	1	6.948625
15.233333	1	6.046125
15.250000	1	5.298500
15.266667	1	4.682000
15.283333	1	4.175375
15.300000	1	3.763000
15.316667	1	3.430125
15.333333	1	3.163750
15.350000	1	2.954125
15.366667	1	2.791250
15.383333	1	2.667500
15.400000	1	2.575125
15.416667	1	2.506750
15.433333	1	2.457625
15.450000	1	2.421375
15.466667	1	2.393875
15.483333	1	2.369625
15.500000	1	2.345500
15.516667	1	2.318750
15.533333	1	2.289375
15.550000	1	2.255625
15.566667	1	2.219000
15.583333	1	2.179250
15.600000	1	2.138250
15.616667	1	2.096875
15.633333	1	2.056125
15.650000	1	2.018000
15.666667	1	1.981875
15.683333	1	1.949250
15.700000	1	1.917625
15.716667	1	1.887500
15.733333	1	1.858375
15.750000	1	1.830000
15.766667	1	1.802375
15.783333	1	1.773125
15.800000	1	1.743000
15.816667	1	1.712125
15.833333	1	1.681375
15.850000	1	1.651125
15.866667	1	1.622250
15.883333	1	1.594750
15.900000	1	1.569375
15.916667	1	1.547125
15.933333	1	1.529125
15.950000	1	1.514625
15.966667	1	1.503125
15.983333	1	1.495375
16.000000	1	1.489500
16.016667	1	1.485625
16.033333	1	1.482500
16.050000	1	1.479375
16.066667	1	1.475250
16.083333	1	1.470375
16.100000	1	1.464000
16.116667	1	1.455500
16.133333	1	1.445000
16.150000	1	1.432625
16.166667	1	1.418875
16.183333	1	1.403875
16.200000	1	1.387125
16.216667	1	1.369875
16.233333	1	1.351250
16.250000	1	1.331875
16.266667	1	1.312125
16.283333	1	1.292375
16.300000	1	1.272375
16.316667	1	1.252750
16.333333	1	1.235125
16.350000	1	1.218000
16.366667	1	1.201875
16.383333	1	1.188875
16.400000	1	1.177125
16.416667	1	1.168875
16.433333	1	1.163125
16.450000	1	1.159375
16.466667	1	1.159000
16.483333	1	1.161250
16.500000	1	1.164875
16.516667	1	1.170250
16.533333	1	1.176000
16.550000	1	1.182000
16.566667	1	1.186875
16.583333	1	1.190875
16.600000	1	1.193500
16.616667	1	1.194750
16.633333	1	1.193500
16.650000	1	1.190500
16.666667	1	1.186250
16.683333	1	1.181375
16.700000	1	1.175625
16.716667	1	1.171125
16.733333	1	1.168000
16.750000	1	1.166125
16.766667	1	1.165625
16.783333	1	1.166375
16.800000	1	1.169250
16.816667	1	1.173000
16.833333	1	1.177250
16.850000	1	1.181875
16.866667	1	1.186250
16.883333	1	1.190250
16.900000	1	1.192625
16.916667	1	1.193250
16.933333	1	1.192500
16.950000	1	1.190625
16.966667	1	1.187250
16.983333	1	1.182000
17.000000	1	1.175125
17.016667	1	1.167875
17.033333	1	1.159750
17.050000	1	1.152375
17.066667	1	1.145125
17.083333	1	1.138000
17.100000	1	1.131750
17.116667	1	1.126750
17.133333	1	1.122375
17.150000	1	1.118625
17.166667	1	1.115250
17.183333	1	1.113000
17.200000	1	1.112125
17.216667	1	1.112375
17.233333	1	1.113500
17.250000	1	1.115000
17.266667	1	1.117750
17.283333	1	1.121625
17.300000	1	1.124625
17.316667	1	1.128875
17.333333	1	1.132875
17.350000	1	1.138000
17.366667	1	1.143375
17.383333	1	1.148000
17.400000	1	1.152250
17.416667	1	1.155000
17.433333	1	1.157375
17.450000	1	1.158875
17.466667	1	1.158750
17.483333	1	1.158000
17.500000	1	1.154250
17.516667	1	1.150375
17.533333	1	1.144000
17.550000	1	1.136625
17.566667	1	1.127500
17.583333	1	1.116875
17.600000	1	1.105625
17.616667	1	1.094000
17.633333	1	1.082125
17.650000	1	1.068625
17.666667	1	1.055375
17.683333	1	1.041500
17.700000	1	1.028625
17.716667	1	1.015750
17.733333	1	1.003250
17.750000	1	0.990500
17.766667	1	0.978875
17.783333	1	0.967750
17.800000	1	0.957750
17.816667	1	0.948125
17.833333	1	0.939250
17.850000	1	0.931125
17.866667	1	0.923000
17.883333	1	0.915875
17.900000	1	0.909125
17.916667	1	0.902625
17.933333	1	0.896000
17.950000	1	0.890375
17.966667	1	0.884875
17.983333	1	0.878625
18.000000	1	0.872375
18.016667	1	0.865750
18.033333	1	0.859000
18.050000	1	0.853000
18.066667	1	0.847000
18.083333	1	0.841000
18.100000	1	0.836000
18.116667	1	0.831250
18.133333	1	0.827375
18.150000	1	0.823000
18.166667	1	0.820375
18.183333	1	0.818500
18.200000	1	0.817125
18.216667	1	0.816625
18.233333	1	0.816625
18.250000	1	0.817000
18.266667	1	0.817750
18.283333	1	0.818625
18.300000	1	0.819375
18.316667	1	0.820625
18.333333	1	0.821750
18.350000	1	0.823000
18.366667	1	0.824500
18.383333	1	0.827125
18.400000	1	0.830875
18.416667	1	0.834625
18.433333	1	0.840250
18.450000	1	0.848000
18.466667	1	0.856375
18.483333	1	0.866250
18.500000	1	0.878000
18.516667	1	0.891625
18.533333	1	0.907750
18.550000	1	0.925250
18.566667	1	0.945000
18.583333	1	0.966375
18.600000	1	0.989250
18.616667	1	1.014500
18.633333	1	1.041125
18.650000	1	1.068750
18.666667	1	1.098625
18.683333	1	1.129625
18.700000	1	1.161750
18.716667	1	1.194625
18.733333	1	1.228375
18.750000	1	1.262250
18.766667	1	1.296250
18.783333	1	1.330750
18.800000	1	1.363250
18.816667	1	1.394250
18.833333	1	1.422875
18.850000	1	1.447500
18.866667	1	1.467750
18.883333	1	1.482875
18.900000	1	1.491750
18.916667	1	1.493750
18.933333	1	1.489250
18.950000	1	1.478500
18.966667	1	1.460375
18.983333	1	1.434625
19.000000	1	1.402250
19.016667	1	1.364875
19.033333	1	1.322375
19.050000	1	1.276750
19.066667	1	1.229375
19.083333	1	1.180875
19.100000	1	1.133875
19.116667	1	1.090375
19.133333	1	1.050750
19.150000	1	1.018000
19.166667	1	0.992625
19.183333	1	0.978000
19.200000	1	0.975875
19.216667	1	0.988250
19.233333	1	1.016875
19.250000	1	1.063750
19.266667	1	1.130250
19.283333	1	1.217000
19.300000	1	1.325125
19.316667	1	1.454125
19.333333	1	1.603375
19.350000	1	1.770125
19.366667	1	1.951625
19.383333	1	2.143250
19.400000	1	2.339500
19.416667	1	2.535000
19.433333	1	2.722625
19.450000	1	2.896250
19.466667	1	3.050250
19.483333	1	3.177750
19.500000	1	3.275000
19.516667	1	3.339625
19.533333	1	3.369625
19.550000	1	3.364500
19.566667	1	3.324750
19.583333	1	3.253750
19.600000	1	3.154625
19.616667	1	3.031750
19.633333	1	2.890625
19.650000	1	2.736000
19.666667	1	2.572750
19.683333	1	2.405000
19.700000	1	2.237500
19.716667	1	2.073750
19.733333	1	1.915875
19.750000	1	1.766125
19.766667	1	1.625500
19.783333	1	1.494375
19.800000	1	1.374000
19.816667	1	1.263500
19.833333	1	1.163375
19.850000	1	1.073750
19.866667	1	0.993375
19.883333	1	0.922500
19.900000	1	0.859125
19.916667	1	0.803875
19.933333	1	0.755375
19.950000	1	0.713750
19.966667	1	0.678250
19.983333	1	0.648625
20.000000	1	0.624500
20.016667	1	0.605875
20.033333	1	0.592125
20.050000	1	0.583125
20.066667	1	0.578250
20.083333	1	0.577625
20.100000	1	0.580250
20.116667	1	0.586375
20.133333	1	0.595875
20.150000	1	0.608625
20.166667	1	0.623250
20.183333	1	0.639375
20.200000	1	0.656375
20.216667	1	0.672625
20.233333	1	0.688750
20.250000	1	0.702500
20.266667	1	0.713125
20.283333	1	0.722000
20.300000	1	0.727125
20.316667	1	0.728875
20.333333	1	0.726750
20.350000	1	0.721125
20.366667	1	0.711875
20.383333	1	0.699500
20.400000	1	0.684500
20.416667	1	0.667875
20.433333	1	0.650375
20.450000	1	0.632625
20.466667	1	0.615625
20.483333	1	0.600125
20.500000	1	0.586750
20.516667	1	0.576500
20.533333	1	0.570250
20.550000	1	0.569000
20.566667	1	0.573125
20.583333	1	0.584375
20.600000	1	0.603000
20.616667	1	0.629500
20.633333	1	0.665250
20.650000	1	0.709250
20.666667	1	0.763000
20.683333	1	0.824875
20.700000	1	0.895000
20.716667	1	0.972250
20.733333	1	1.056000
20.750000	1	1.143125
20.766667	1	1.232375
20.783333	1	1.320750
20.800000	1	1.404875
20.816667	1	1.482375
20.833333	1	1.551375
20.850000	1	1.609000
20.866667	1	1.652250
20.883333	1	1.681375
20.900000	1	1.694375
20.916667	1	1.691250
20.933333	1	1.673500
20.950000	1	1.641125
20.966667	1	1.596625
20.983333	1	1.541500
21.000000	1	1.476125
21.016667	1	1.405750
21.033333	1	1.331625
21.050000	1	1.256000
21.066667	1	1.178750
21.083333	1	1.103125
21.100000	1	1.030625
21.116667	1	0.962125
21.133333	1	0.897875
21.150000	1	0.838125
21.166667	1	0.784250
21.183333	1	0.735000
21.200000	1	0.690750
21.216667	1	0.650000
21.233333	1	0.614250
21.250000	1	0.583000
21.266667	1	0.555250
21.283333	1	0.530875
21.300000	1	0.509875
21.316667	1	0.491875
21.333333	1	0.476500
21.350000	1	0.462500
21.366667	1	0.451000
21.383333	1	0.440750
21.400000	1	0.431750
21.416667	1	0.424250
21.433333	1	0.417625
21.450000	1	0.412125
21.466667	1	0.407500
21.483333	1	0.403875
21.500000	1	0.401875
21.516667	1	0.400375
21.533333	1	0.400000
21.550000	1	0.399625
21.566667	1	0.401250
21.583333	1	0.403625
21.600000	1	0.406000
21.616667	1	0.410125
21.633333	1	0.415875
21.650000	1	0.422375
21.666667	1	0.431000
21.683333	1	0.441000
21.700000	1	0.451750
21.716667	1	0.464750
21.733333	1	0.478000
21.750000	1	0.492625
21.766667	1	0.509375
21.783333	1	0.527375
21.800000	1	0.544500
21.816667	1	0.562250
21.833333	1	0.579875
21.850000	1	0.597250
21.866667	1	0.614250
21.883333	1	0.630000
21.900000	1	0.644000
21.916667	1	0.656500
21.933333	1	0.667875
21.950000	1	0.677125
21.966667	1	0.684750
21.983333	1	0.689750
22.000000	1	0.694250
22.016667	1	0.696125
22.033333	1	0.697125
22.050000	1	0.695875
22.066667	1	0.693500
22.083333	1	0.689750
22.100000	1	0.685125
22.116667	1	0.679125
22.133333	1	0.672750
22.150000	1	0.665125
22.166667	1	0.655875
22.183333	1	0.646875
22.200000	1	0.636625
22.216667	1	0.625375
22.233333	1	0.613375
22.250000	1	0.600875
22.266667	1	0.587750
22.283333	1	0.573500
22.300000	1	0.560125
22.316667	1	0.545875
22.333333	1	0.531250
22.350000	1	0.516625
22.366667	1	0.502625
22.383333	1	0.488250
22.400000	1	0.474500
22.416667	1	0.461500
22.433333	1	0.448375
22.450000	1	0.436000
22.466667	1	0.424000
22.483333	1	0.413000
22.500000	1	0.402875
22.516667	1	0.393125
22.533333	1	0.383500
22.550000	1	0.374625
22.566667	1	0.367000
22.583333	1	0.359125
22.600000	1	0.352375
22.616667	1	0.345125
22.633333	1	0.338125
22.650000	1	0.332000
22.666667	1	0.326000
22.683333	1	0.320625
22.700000	1	0.315000
22.716667	1	0.309875
22.733333	1	0.304250
22.750000	1	0.299500
22.766667	1	0.294000
22.783333	1	0.288875
22.800000	1	0.284375
22.816667	1	0.279625
22.833333	1	0.275250
22.850000	1	0.271250
22.866667	1	0.267500
22.883333	1	0.264125
22.900000	1	0.261375
22.916667	1	0.259625
22.933333	1	0.257750
22.950000	1	0.256250
22.966667	1	0.254500
22.983333	1	0.254000
23.000000	1	0.252750
23.016667	1	0.252750
23.033333	1	0.252125
23.050000	1	0.252250
23.066667	1	0.252500
23.083333	1	0.253250
23.100000	1	0.253750
23.116667	1	0.254375
23.133333	1	0.255250
23.150000	1	0.255750
23.166667	1	0.257000
23.183333	1	0.257625
23.200000	1	0.258625
23.216667	1	0.259375
23.233333	1	0.260500
23.250000	1	0.262375
23.266667	1	0.265000
23.283333	1	0.269125
23.300000	1	0.273625
23.316667	1	0.281250
23.333333	1	0.291250
23.350000	1	0.305500
23.366667	1	0.323750
23.383333	1	0.347875
23.400000	1	0.378875
23.416667	1	0.417875
23.433333	1	0.467000
23.450000	1	0.529125
23.466667	1	0.605000
23.483333	1	0.697250
23.500000	1	0.808500
23.516667	1	0.940375
23.533333	1	1.094500
23.550000	1	1.272625
23.566667	1	1.475625
23.583333	1	1.704625
23.600000	1	1.957625
23.616667	1	2.233625
23.633333	1	2.530750
23.650000	1	2.845500
23.666667	1	3.172125
23.683333	1	3.506375
23.700000	1	3.840250
23.716667	1	4.168625
23.733333	1	4.483875
23.750000	1	4.778250
23.766667	1	5.044125
23.783333	1	5.275500
23.800000	1	5.466625
23.816667	1	5.613250
23.833333	1	5.711250
23.850000	1	5.760750
23.866667	1	5.761750
23.883333	1	5.714125
23.900000	1	5.620625
23.916667	1	5.486250
23.933333	1	5.314625
23.950000	1	5.111500
23.966667	1	4.883000
23.983333	1	4.635250
24.000000	1	4.373500
24.016667	1	4.103250
24.033333	1	3.830500
24.050000	1	3.559625
24.066667	1	3.294000
24.083333	1	3.036750
24.100000	1	2.789500
24.116667	1	2.555750
24.133333	1	2.334875
24.150000	1	2.128625
24.166667	1	1.937875
24.183333	1	1.761750
24.200000	1	1.600625
24.216667	1	1.452750
24.233333	1	1.319000
24.250000	1	1.198125
24.266667	1	1.089625
24.283333	1	0.991750
24.300000	1	0.904875
24.316667	1	0.827375
24.333333	1	0.758375
24.350000	1	0.697625
24.366667	1	0.644750
24.383333	1	0.599000
24.400000	1	0.559500
24.416667	1	0.525750
24.433333	1	0.497500
24.450000	1	0.474500
24.466667	1	0.455250
24.483333	1	0.438875
24.500000	1	0.425500
24.516667	1	0.414625
24.533333	1	0.406250
24.550000	1	0.399000
24.566667	1	0.393625
24.583333	1	0.388375
24.600000	1	0.383750
24.616667	1	0.379625
24.633333	1	0.376375
24.650000	1	0.372875
24.666667	1	0.370000
24.683333	1	0.366625
24.700000	1	0.363250
24.716667	1	0.359750
24.733333	1	0.355750
24.750000	1	0.352000
24.766667	1	0.347625
24.783333	1	0.343000
24.800000	1	0.339250
24.816667	1	0.335125
24.833333	1	0.330625
24.850000	1	0.326750
24.866667	1	0.323375
24.883333	1	0.319625
24.900000	1	0.315750
24.916667	1	0.312750
24.933333	1	0.309875
24.950000	1	0.307375
24.966667	1	0.304625
24.983333	1	0.302375
25.000000	1	0.299500
25.016667	1	0.297125
25.033333	1	0.294375
25.050000	1	0.292000
25.066667	1	0.289875
25.083333	1	0.287750
25.100000	1	0.285500
25.116667	1	0.282875
25.133333	1	0.280500
25.150000	1	0.277875
25.166667	1	0.276125
25.183333	1	0.273375
25.200000	1	0.270500
25.216667	1	0.267375
25.233333	1	0.264750
25.250000	1	0.262500
25.266667	1	0.260000
25.283333	1	0.257750
25.300000	1	0.256000
25.316667	1	0.254750
25.333333	1	0.252750
25.350000	1	0.250750
25.366667	1	0.249000
25.383333	1	0.247500
25.400000	1	0.246500
25.416667	1	0.245625
25.433333	1	0.245500
25.450000	1	0.245125
25.466667	1	0.244500
25.483333	1	0.245500
25.500000	1	0.246125
25.516667	1	0.247125
25.533333	1	0.248750
25.550000	1	0.249375
25.566667	1	0.250625
25.583333	1	0.251625
25.600000	1	0.252625
25.616667	1	0.253750
25.633333	1	0.254250
25.650000	1	0.255750
25.666667	1	0.257000
25.683333	1	0.257750
25.700000	1	0.259000
25.716667	1	0.259750
25.733333	1	0.259375
25.750000	1	0.259625
25.766667	1	0.259500
25.783333	1	0.259875
25.800000	1	0.259500
25.816667	1	0.259750
25.833333	1	0.259750
25.850000	1	0.260375
25.866667	1	0.260250
25.883333	1	0.260625
25.900000	1	0.261375
25.916667	1	0.263000
25.933333	1	0.264125
25.950000	1	0.266125
25.966667	1	0.268875
25.983333	1	0.270875
26.000000	1	0.273000
26.016667	1	0.276000
26.033333	1	0.279750
26.050000	1	0.283125
26.066667	1	0.287750
26.083333	1	0.291500
26.100000	1	0.295000
26.116667	1	0.300000
26.133333	1	0.304750
26.150000	1	0.309125
26.166667	1	0.313875
26.183333	1	0.318125
26.200000	1	0.321625
26.216667	1	0.325500
26.233333	1	0.329500
26.250000	1	0.332375
26.266667	1	0.334750
26.283333	1	0.337375
26.300000	1	0.339125
26.316667	1	0.339750
26.333333	1	0.339375
26.350000	1	0.338750
26.366667	1	0.336875
26.383333	1	0.334875
26.400000	1	0.331500
26.416667	1	0.329375
26.433333	1	0.325375
26.450000	1	0.321625
26.466667	1	0.316250
26.483333	1	0.310500
26.500000	1	0.304625
26.516667	1	0.298375
26.533333	1	0.292125
26.550000	1	0.285500
26.566667	1	0.278375
26.583333	1	0.270750
26.600000	1	0.263625
26.616667	1	0.256875
26.633333	1	0.250250
26.650000	1	0.243375
26.666667	1	0.235750
26.683333	1	0.229375
26.700000	1	0.223375
26.716667	1	0.217875
26.733333	1	0.212125
26.750000	1	0.206500
26.766667	1	0.201875
26.783333	1	0.197375
26.800000	1	0.193625
26.816667	1	0.189500
26.833333	1	0.186250
26.850000	1	0.184375
26.866667	1	0.182375
26.883333	1	0.180750
26.900000	1	0.178750
26.916667	1	0.178000
26.933333	1	0.176875
26.950000	1	0.177250
26.966667	1	0.178125
26.983333	1	0.178750
27.000000	1	0.179250
27.016667	1	0.180500
27.033333	1	0.182250
27.050000	1	0.184625
27.066667	1	0.187875
27.083333	1	0.191125
27.100000	1	0.195375
27.116667	1	0.200000
27.133333	1	0.206125
27.150000	1	0.212750
27.166667	1	0.220750
27.183333	1	0.230625
27.200000	1	0.242125
27.216667	1	0.255875
27.233333	1	0.271625
27.250000	1	0.291250
27.266667	1	0.314750
27.283333	1	0.342000
27.300000	1	0.374625
27.316667	1	0.412750
27.333333	1	0.457250
27.350000	1	0.509875
27.366667	1	0.570375
27.383333	1	0.640625
27.400000	1	0.720625
27.416667	1	0.811750
27.433333	1	0.914500
27.450000	1	1.029875
27.466667	1	1.158625
27.483333	1	1.300875
27.500000	1	1.457000
27.516667	1	1.627000
27.533333	1	1.809250
27.550000	1	2.003500
27.566667	1	2.207625
27.583333	1	2.421125
27.600000	1	2.640500
27.616667	1	2.864625
27.633333	1	3.089625
27.650000	1	3.314000
27.666667	1	3.533250
27.683333	1	3.744375
27.700000	1	3.943875
27.716667	1	4.127625
27.733333	1	4.292125
27.750000	1	4.434250
27.766667	1	4.551125
27.783333	1	4.641125
27.800000	1	4.702500
27.816667	1	4.734125
27.833333	1	4.734875
27.850000	1	4.704750
27.866667	1	4.644000
27.883333	1	4.555125
27.900000	1	4.441000
27.916667	1	4.303000
27.933333	1	4.143500
27.950000	1	3.966750
27.966667	1	3.776250
27.983333	1	3.574500
28.000000	1	3.366000
28.016667	1	3.153375
28.033333	1	2.941000
28.050000	1	2.730000
28.066667	1	2.523125
28.083333	1	2.323000
28.100000	1	2.130875
28.116667	1	1.948125
28.133333	1	1.777125
28.150000	1	1.615875
28.166667	1	1.467250
28.183333	1	1.329875
28.200000	1	1.203750
28.216667	1	1.089000
28.233333	1	0.985250
28.250000	1	0.891500
28.266667	1	0.806625
28.283333	1	0.731375
28.300000	1	0.664125
28.316667	1	0.605375
28.333333	1	0.553625
28.350000	1	0.508750
28.366667	1	0.470375
28.383333	1	0.438000
28.400000	1	0.411125
28.416667	1	0.389375
28.433333	1	0.371625
28.450000	1	0.358375
28.466667	1	0.348875
28.483333	1	0.342875
28.500000	1	0.340500
28.516667	1	0.340625
28.533333	1	0.343250
28.550000	1	0.349000
28.566667	1	0.356625
28.583333	1	0.365875
28.600000	1	0.376375
28.616667	1	0.388125
28.633333	1	0.401000
28.650000	1	0.414750
28.666667	1	0.428375
28.683333	1	0.442875
28.700000	1	0.456625
28.716667	1	0.471125
28.733333	1	0.484000
28.750000	1	0.497375
28.766667	1	0.509250
28.783333	1	0.520125
28.800000	1	0.529750
28.816667	1	0.538375
28.833333	1	0.546000
28.850000	1	0.551875
28.866667	1	0.556125
28.883333	1	0.559500
28.900000	1	0.560750
28.916667	1	0.560875
28.933333	1	0.559625
28.950000	1	0.556625
28.966667	1	0.552625
28.983333	1	0.547750
29.000000	1	0.541375
29.016667	1	0.532750
29.033333	1	0.523000
29.050000	1	0.512875
29.066667	1	0.502500
29.083333	1	0.491625
29.100000	1	0.478500
29.116667	1	0.464875
29.133333	1	0.450750
29.150000	1	0.436500
29.166667	1	0.421500
29.183333	1	0.406500
29.200000	1	0.391125
29.216667	1	0.376250
29.233333	1	0.360875
29.250000	1	0.346000
29.266667	1	0.332250
29.283333	1	0.318125
29.300000	1	0.304125
29.316667	1	0.290625
29.333333	1	0.277500
29.350000	1	0.264500
29.366667	1	0.252625
29.383333	1	0.240750
29.400000	1	0.229250
29.416667	1	0.219125
29.433333	1	0.209500
29.450000	1	0.200125
29.466667	1	0.191375
29.483333	1	0.183250
29.500000	1	0.175250
29.516667	1	0.167875
29.533333	1	0.161500
29.550000	1	0.155750
29.566667	1	0.149750
29.583333	1	0.144750
29.600000	1	0.140125
29.616667	1	0.136625
29.633333	1	0.132500
29.650000	1	0.129625
29.666667	1	0.126750
29.683333	1	0.124000
29.700000	1	0.122000
29.716667	1	0.120125
29.733333	1	0.119000
29.750000	1	0.118250
29.766667	1	0.117125
29.783333	1	0.115875
29.800000	1	0.115000
29.816667	1	0.114875
29.833333	1	0.115250
29.850000	1	0.114750
29.866667	1	0.114750
29.883333	1	0.114875
29.900000	1	0.114125
29.916667	1	0.114250
29.933333	1	0.113625
29.950000	1	0.113500
29.966667	1	0.113625
29.983333	1	0.113125
30.000000	1	0.112250
30.016667	1	0.111875
30.033333	1	0.111250
30.050000	1	0.110000
30.066667	1	0.108875
30.083333	1	0.107500
30.100000	1	0.105625
30.116667	1	0.104000
30.133333	1	0.102250
30.150000	1	0.100625
30.166667	1	0.099375
30.183333	1	0.097375
30.200000	1	0.095000
30.216667	1	0.092625
30.233333	1	0.090875
30.250000	1	0.088750
30.266667	1	0.086125
30.283333	1	0.084250
30.300000	1	0.082375
30.316667	1	0.079875
30.333333	1	0.078750
30.350000	1	0.076875
30.366667	1	0.075125
30.383333	1	0.073625
30.400000	1	0.072625
30.416667	1	0.072000
30.433333	1	0.071000
30.450000	1	0.070625
30.466667	1	0.070625
30.483333	1	0.071125
30.500000	1	0.072375
30.516667	1	0.073250
30.533333	1	0.075125
30.550000	1	0.077500
30.566667	1	0.080750
30.583333	1	0.084625
30.600000	1	0.089125
30.616667	1	0.094500
30.633333	1	0.100250
30.650000	1	0.106375
30.666667	1	0.113500
30.683333	1	0.121250
30.700000	1	0.130125
30.716667	1	0.140000
30.733333	1	0.149875
30.750000	1	0.160875
30.766667	1	0.172000
30.783333	1	0.184000
30.800000	1	0.197250
30.816667	1	0.212250
30.833333	1	0.228125
30.850000	1	0.245750
30.866667	1	0.265000
30.883333	1	0.286000
30.900000	1	0.307750
30.916667	1	0.332500
30.933333	1	0.360500
30.950000	1	0.391625
30.966667	1	0.427750
30.983333	1	0.468125
31.000000	1	0.514125
31.016667	1	0.567750
31.033333	1	0.628250
31.050000	1	0.697750
31.066667	1	0.775625
31.083333	1	0.865500
31.100000	1	0.967000
31.116667	1	1.082625
31.133333	1	1.211500
31.150000	1	1.356625
31.166667	1	1.518625
31.183333	1	1.697875
31.200000	1	1.895625
31.216667	1	2.111875
31.233333	1	2.346500
31.250000	1	2.598250
31.266667	1	2.867250
31.283333	1	3.152750
31.300000	1	3.450875
31.316667	1	3.761625
31.333333	1	4.081750
31.350000	1	4.408250
31.366667	1	4.738125
31.383333	1	5.067750
31.400000	1	5.392875
31.416667	1	5.710375
31.433333	1	6.015000
31.450000	1	6.304000
31.466667	1	6.571375
31.483333	1	6.814500
31.500000	1	7.030375
31.516667	1	7.214500
31.533333	1	7.365750
31.550000	1	7.482625
31.566667	1	7.563000
31.583333	1	7.607375
31.600000	1	7.614250
31.616667	1	7.584750
31.633333	1	7.519750
31.650000	1	7.419625
31.666667	1	7.289500
31.683333	1	7.130000
31.700000	1	6.944125
31.716667	1	6.735125
31.733333	1	6.506375
31.750000	1	6.261000
31.766667	1	6.002250
31.783333	1	5.732250
31.800000	1	5.455000
31.816667	1	5.174125
31.833333	1	4.891375
31.850000	1	4.609875
31.866667	1	4.331375
31.883333	1	4.059000
31.900000	1	3.794625
31.916667	1	3.538875
31.933333	1	3.292500
31.950000	1	3.056625
31.966667	1	2.832125
31.983333	1	2.618500
32.000000	1	2.416375
32.016667	1	2.225375
32.033333	1	2.047625
32.050000	1	1.881125
32.066667	1	1.724500
32.083333	1	1.579500
32.100000	1	1.445250
32.116667	1	1.320750
32.133333	1	1.206125
32.150000	1	1.099875
32.166667	1	1.002750
32.183333	1	0.912875
32.200000	1	0.829875
32.216667	1	0.754375
32.233333	1	0.684875
32.250000	1	0.622500
32.266667	1	0.565375
32.283333	1	0.511875
32.300000	1	0.464625
32.316667	1	0.421625
32.333333	1	0.381875
32.350000	1	0.348000
32.366667	1	0.316375
32.383333	1	0.288125
32.400000	1	0.263125
32.416667	1	0.240375
32.433333	1	0.220750
32.450000	1	0.202750
32.466667	1	0.187000
32.483333	1	0.172625
32.500000	1	0.160625
32.516667	1	0.149750
32.533333	1	0.140625
32.550000	1	0.131750
32.566667	1	0.123875
32.583333	1	0.116750
32.600000	1	0.111125
32.616667	1	0.106250
32.633333	1	0.101250
32.650000	1	0.097125
32.666667	1	0.092375
32.683333	1	0.088125
32.700000	1	0.085125
32.716667	1	0.081750
32.733333	1	0.078500
32.750000	1	0.076625
32.766667	1	0.073750
32.783333	1	0.071000
32.800000	1	0.067750
32.816667	1	0.064750
32.833333	1	0.062125
32.850000	1	0.059625
32.866667	1	0.056500
32.883333	1	0.054375
32.900000	1	0.052250
32.916667	1	0.049250
32.933333	1	0.046625
32.950000	1	0.043875
32.966667	1	0.041500
32.983333	1	0.038875
33.000000	1	0.036125
33.016667	1	0.033875
33.033333	1	0.032000
33.050000	1	0.030250
33.066667	1	0.028000
33.083333	1	0.025500
33.100000	1	0.023375
33.116667	1	0.021250
33.133333	1	0.020000
33.150000	1	0.018875
33.166667	1	0.018125
33.183333	1	0.017625
33.200000	1	0.017000
33.216667	1	0.016875
33.233333	1	0.016500
33.250000	1	0.016625
33.266667	1	0.017125
33.283333	1	0.018750
33.300000	1	0.019125
33.316667	1	0.021250
33.333333	1	0.022375
33.350000	1	0.024500
33.366667	1	0.026375
33.383333	1	0.029250
33.400000	1	0.032250
33.416667	1	0.035000
33.433333	1	0.037750
33.450000	1	0.040875
33.466667	1	0.044000
33.483333	1	0.047375
33.500000	1	0.051125
33.516667	1	0.055000
33.533333	1	0.059000
33.550000	1	0.062750
33.566667	1	0.065750
33.583333	1	0.069875
33.600000	1	0.073250
33.616667	1	0.077750
33.633333	1	0.082250
33.650000	1	0.086625
33.666667	1	0.090500
33.683333	1	0.093875
33.700000	1	0.097375
33.716667	1	0.100625
33.733333	1	0.103500
33.750000	1	0.106375
33.766667	1	0.109875
33.783333	1	0.112750
33.800000	1	0.115375
33.816667	1	0.117625
33.833333	1	0.119000
33.850000	1	0.120375
33.866667	1	0.121250
33.883333	1	0.122000
33.900000	1	0.122625
33.916667	1	0.122125
33.933333	1	0.121375
33.950000	1	0.120000
33.966667	1	0.118875
33.983333	1	0.117750
34.000000	1	0.115625
34.016667	1	0.113625
34.033333	1	0.111250
34.050000	1	0.108625
34.066667	1	0.105875
34.083333	1	0.102500
34.100000	1	0.098750
34.116667	1	0.096125
34.133333	1	0.092750
34.150000	1	0.089875
34.166667	1	0.086750
34.183333	1	0.083250
34.200000	1	0.080250
34.216667	1	0.077625
34.233333	1	0.075000
34.250000	1	0.073000
34.266667	1	0.071125
34.283333	1	0.069875
34.300000	1	0.069250
34.316667	1	0.068875
34.333333	1	0.068625
34.350000	1	0.068875
34.366667	1	0.069625
34.383333	1	0.070750
34.400000	1	0.071375
34.416667	1	0.072000
34.433333	1	0.074125
34.450000	1	0.075500
34.466667	1	0.077875
34.483333	1	0.079750
34.500000	1	0.082375
34.516667	1	0.084875
34.533333	1	0.087500
34.550000	1	0.090250
34.566667	1	0.092875
34.583333	1	0.095000
34.600000	1	0.097375
34.616667	1	0.100375
34.633333	1	0.102500
34.650000	1	0.103875
34.666667	1	0.105875
34.683333	1	0.107625
34.700000	1	0.108625
34.716667	1	0.109375
34.733333	1	0.110750
34.750000	1	0.111000
34.766667	1	0.111875
34.783333	1	0.112375
34.800000	1	0.112375
34.816667	1	0.112250
34.833333	1	0.112250
34.850000	1	0.111750
34.866667	1	0.110625
34.883333	1	0.109500
34.900000	1	0.108375
34.916667	1	0.107250
34.933333	1	0.105375
34.950000	1	0.103375
34.966667	1	0.101375
34.983333	1	0.099625
35.000000	1	0.097250
35.016667	1	0.095750
35.033333	1	0.093500
35.050000	1	0.092125
35.066667	1	0.090500
35.083333	1	0.088750
35.100000	1	0.087750
35.116667	1	0.087000
35.133333	1	0.086000
35.150000	1	0.085125
35.166667	1	0.084125
35.183333	1	0.083875
35.200000	1	0.084000
35.216667	1	0.083000
35.233333	1	0.083000
35.250000	1	0.083500
35.266667	1	0.083125
35.283333	1	0.084125
35.300000	1	0.085375
35.316667	1	0.086375
35.333333	1	0.087500
35.350000	1	0.088500
35.366667	1	0.090000
35.383333	1	0.091125
35.400000	1	0.092625
35.416667	1	0.094125
35.433333	1	0.095375
35.450000	1	0.097125
35.466667	1	0.099125
35.483333	1	0.101875
35.500000	1	0.104125
35.516667	1	0.105625
35.533333	1	0.107875
35.550000	1	0.110375
35.566667	1	0.112500
35.583333	1	0.114250
35.600000	1	0.115750
35.616667	1	0.117750
35.633333	1	0.119750
35.650000	1	0.121875
35.666667	1	0.123125
35.683333	1	0.124500
35.700000	1	0.125375
35.716667	1	0.126875
35.733333	1	0.128250
35.750000	1	0.129125
35.766667	1	0.130125
35.783333	1	0.131000
35.800000	1	0.131250
35.816667	1	0.131375
35.833333	1	0.131875
35.850000	1	0.131625
35.866667	1	0.131625
35.883333	1	0.130875
35.900000	1	0.130875
35.916667	1	0.130375
35.933333	1	0.130125
35.950000	1	0.129625
35.966667	1	0.129625
35.983333	1	0.129125
36.000000	1	0.128375
36.016667	1	0.127250
36.033333	1	0.126250
36.050000	1	0.125500
36.066667	1	0.124625
36.083333	1	0.123500
36.100000	1	0.122500
36.116667	1	0.121500
36.133333	1	0.120500
36.150000	1	0.120125
36.166667	1	0.119375
36.183333	1	0.118250
36.200000	1	0.117000
36.216667	1	0.116125
36.233333	1	0.115125
36.250000	1	0.113875
36.266667	1	0.112750
36.283333	1	0.111125
36.300000	1	0.110500
36.316667	1	0.109500
36.333333	1	0.108125
36.350000	1	0.107250
36.366667	1	0.106000
36.383333	1	0.105625
36.400000	1	0.104500
36.416667	1	0.103375
36.433333	1	0.102375
36.450000	1	0.101125
36.466667	1	0.100250
36.483333	1	0.100125
36.500000	1	0.098875
36.516667	1	0.097500
36.533333	1	0.097000
36.550000	1	0.095375
36.566667	1	0.093875
36.583333	1	0.092500
36.600000	1	0.091250
36.616667	1	0.090250
36.633333	1	0.088875
36.650000	1	0.086875
36.666667	1	0.085375
36.683333	1	0.083625
36.700000	1	0.081625
36.716667	1	0.080750
36.733333	1	0.079375
36.750000	1	0.077500
36.766667	1	0.076000
36.783333	1	0.074375
36.800000	1	0.072000
36.816667	1	0.069875
36.833333	1	0.068000
36.850000	1	0.066500
36.866667	1	0.064750
36.883333	1	0.063500
36.900000	1	0.061750
36.916667	1	0.060250
36.933333	1	0.058875
36.950000	1	0.057625
36.966667	1	0.055750
36.983333	1	0.054875
37.000000	1	0.053875
37.016667	1	0.052625
37.033333	1	0.050500
37.050000	1	0.049250
37.066667	1	0.048000
37.083333	1	0.046750
37.100000	1	0.046125
37.116667	1	0.044875
37.133333	1	0.044000
37.150000	1	0.042750
37.166667	1	0.041250
37.183333	1	0.039875
37.200000	1	0.038750
37.216667	1	0.037000
37.233333	1	0.035500
37.250000	1	0.033750
37.266667	1	0.032750
37.283333	1	0.031000
37.300000	1	0.029000
37.316667	1	0.027375
37.333333	1	0.026000
37.350000	1	0.024000
37.366667	1	0.022375
37.383333	1	0.020500
37.400000	1	0.018375
37.416667	1	0.016750
37.433333	1	0.014875
37.450000	1	0.012750
37.466667	1	0.011375
37.483333	1	0.009875
37.500000	1	0.007750
37.516667	1	0.005500
37.533333	1	0.004375
37.550000	1	0.003250
37.566667	1	0.002000
37.583333	1	0.001250
37.600000	1	0.000375
37.616667	1	0.000375
37.633333	1	-0.000125
37.650000	1	-0.000750
37.666667	1	-0.001250
37.683333	1	-0.001625
37.700000	1	-0.002000
37.716667	1	-0.002125
37.733333	1	-0.001625
37.750000	1	-0.001375
37.766667	1	-0.000750
37.783333	1	-0.000750
37.800000	1	-0.000250
37.816667	1	0.000000
37.833333	1	0.000000
37.850000	1	0.000500
37.866667	1	0.001250
37.883333	1	0.001625
37.900000	1	0.001750
37.916667	1	0.003000
37.933333	1	0.002875
37.950000	1	0.002500
37.966667	1	0.003375
37.983333	1	0.003250
38.000000	1	0.003375
38.016667	1	0.003000
38.033333	1	0.002375
38.050000	1	0.001500
38.066667	1	0.001125
38.083333	1	0.001000
38.100000	1	0.000750
38.116667	1	0.000625
38.133333	1	0.000875
38.150000	1	0.000500
38.166667	1	-0.000375
38.183333	1	-0.000875
38.200000	1	-0.001125
38.216667	1	-0.001000
38.233333	1	-0.000375
38.250000	1	0.000000
38.266667	1	0.000000
38.283333	1	0.000250
38.300000	1	0.001125
38.316667	1	0.001500
38.333333	1	0.002000
38.350000	1	0.003125
38.366667	1	0.003375
38.383333	1	0.004250
38.400000	1	0.005125
38.416667	1	0.006125
38.433333	1	0.007000
38.450000	1	0.008250
38.466667	1	0.009625
38.483333	1	0.011375
38.500000	1	0.013000
38.516667	1	0.014500
38.533333	1	0.016875
38.550000	1	0.017375
38.566667	1	0.018625
38.583333	1	0.020000
38.600000	1	0.020875
38.616667	1	0.022250
38.633333	1	0.024125
38.650000	1	0.024875
38.666667	1	0.025500
38.683333	1	0.027250
38.700000	1	0.028750
38.716667	1	0.029750
38.733333	1	0.030875
38.750000	1	0.032125
38.766667	1	0.032750
38.783333	1	0.033250
38.800000	1	0.034000
38.816667	1	0.034750
38.833333	1	0.035000
38.850000	1	0.035000
38.866667	1	0.035625
38.883333	1	0.036625
38.900000	1	0.036875
38.916667	1	0.037500
38.933333	1	0.037500
38.950000	1	0.036875
38.966667	1	0.036500
38.983333	1	0.036750
39.000000	1	0.036625
39.016667	1	0.036125
39.033333	1	0.036250
39.050000	1	0.035625
39.066667	1	0.034125
39.083333	1	0.033625
39.100000	1	0.032375
39.116667	1	0.032000
39.133333	1	0.030500
39.150000	1	0.029250
39.166667	1	0.028000
39.183333	1	0.026750
39.200000	1	0.025000
39.216667	1	0.024000
39.233333	1	0.022875
39.250000	1	0.022000
39.266667	1	0.019750
39.283333	1	0.018250
39.300000	1	0.017250
39.316667	1	0.016000
39.333333	1	0.014750
39.350000	1	0.013125
39.366667	1	0.012125
39.383333	1	0.010375
39.400000	1	0.008250
39.416667	1	0.007000
39.433333	1	0.006500
39.450000	1	0.005250
39.466667	1	0.003875
39.483333	1	0.002875
39.500000	1	0.001625
39.516667	1	0.000750
39.533333	1	0.000125
39.550000	1	-0.000750
39.566667	1	-0.001750
39.583333	1	-0.002875
39.600000	1	-0.003750
39.616667	1	-0.004625
39.633333	1	-0.005875
39.650000	1	-0.006875
39.666667	1	-0.007875
39.683333	1	-0.008250
39.700000	1	-0.008875
39.716667	1	-0.009125
39.733333	1	-0.010250
39.750000	1	-0.010500
39.766667	1	-0.011500
39.783333	1	-0.012375
39.800000	1	-0.013125
39.816667	1	-0.013750
39.833333	1	-0.014125
39.850000	1	-0.014125
39.866667	1	-0.014000
39.883333	1	-0.014625
39.900000	1	-0.015125
39.916667	1	-0.015250
39.933333	1	-0.015625
39.950000	1	-0.016125
39.966667	1	-0.016250
39.983333	1	-0.017000
40.000000	1	-0.016750
