URL	chrom://bioreactor/micro_cm7/HPLC_Ultimate_3000/Users/markusar/20240708_MA_pHrange1.seq/672.smp/RI_1.channel/RI_1.chm
Channel	RI_1

Injection Information:
Data Vault	micro_cm7
Sequence	20240708_MA_pHrange1
Name	Pv1_5.7_3
Number	19
Position	BB7
Comment	
Processing Method	
Instrument Method	run_25B_method
Type	Unknown
Status	Finished
Inject Time	09.07.2024 03:51:58 +02:00
Volume (µl)	20.0000
Dilution Factor	1.0000
Weight	1.0000

Chromatogram Data Information:
Time Min. (min)	0.000000
Time Max. (min)	40.000000
Data Points	2401
Detector	RI
Generating Data System	Chromeleon 7.3.2.11814
Exporting Data System	Chromeleon 7.3.2.0
Operator	Instrument Controller
Signal Quantity	Refractive 
Signal Unit	µRIU
Signal Min.	0.004500
Signal Max.	83.046625
Channel	RI_1
Driver Name	RID520Driver.dll
Channel Type	Evaluation
Min. Step (s)	1
Max. Step (s)	1
Average Step (s)	1

Signal Parameter Information:
Signal Info	

Chromatogram Data:
Time (min)	Step (s)	Value (µRIU)
0.000000	n.a.	0.028750
0.016667	1	0.027875
0.033333	1	0.027250
0.050000	1	0.026750
0.066667	1	0.026375
0.083333	1	0.025875
0.100000	1	0.025750
0.116667	1	0.025250
0.133333	1	0.025000
0.150000	1	0.025250
0.166667	1	0.025625
0.183333	1	0.025500
0.200000	1	0.025625
0.216667	1	0.025500
0.233333	1	0.026750
0.250000	1	0.027625
0.266667	1	0.028750
0.283333	1	0.029125
0.300000	1	0.029750
0.316667	1	0.031000
0.333333	1	0.031875
0.350000	1	0.032625
0.366667	1	0.032250
0.383333	1	0.032000
0.400000	1	0.032125
0.416667	1	0.033375
0.433333	1	0.035250
0.450000	1	0.037500
0.466667	1	0.039625
0.483333	1	0.041625
0.500000	1	0.043625
0.516667	1	0.044375
0.533333	1	0.045125
0.550000	1	0.045125
0.566667	1	0.044375
0.583333	1	0.042250
0.600000	1	0.040500
0.616667	1	0.039250
0.633333	1	0.037625
0.650000	1	0.037000
0.666667	1	0.036750
0.683333	1	0.036375
0.700000	1	0.036375
0.716667	1	0.036000
0.733333	1	0.036125
0.750000	1	0.036500
0.766667	1	0.036875
0.783333	1	0.037375
0.800000	1	0.038250
0.816667	1	0.039125
0.833333	1	0.039000
0.850000	1	0.039750
0.866667	1	0.040875
0.883333	1	0.041875
0.900000	1	0.043250
0.916667	1	0.044000
0.933333	1	0.044625
0.950000	1	0.045625
0.966667	1	0.046375
0.983333	1	0.046750
1.000000	1	0.048125
1.016667	1	0.048875
1.033333	1	0.049625
1.050000	1	0.050750
1.066667	1	0.050875
1.083333	1	0.051625
1.100000	1	0.051625
1.116667	1	0.053000
1.133333	1	0.053500
1.150000	1	0.053500
1.166667	1	0.053250
1.183333	1	0.053750
1.200000	1	0.053375
1.216667	1	0.053125
1.233333	1	0.052875
1.250000	1	0.052500
1.266667	1	0.052375
1.283333	1	0.051625
1.300000	1	0.051375
1.316667	1	0.050625
1.333333	1	0.049750
1.350000	1	0.048125
1.366667	1	0.047375
1.383333	1	0.047000
1.400000	1	0.046375
1.416667	1	0.046750
1.433333	1	0.046875
1.450000	1	0.046500
1.466667	1	0.045250
1.483333	1	0.044375
1.500000	1	0.044375
1.516667	1	0.044500
1.533333	1	0.044125
1.550000	1	0.044125
1.566667	1	0.043750
1.583333	1	0.044500
1.600000	1	0.044750
1.616667	1	0.044750
1.633333	1	0.044625
1.650000	1	0.044250
1.666667	1	0.044625
1.683333	1	0.045125
1.700000	1	0.045625
1.716667	1	0.046125
1.733333	1	0.046000
1.750000	1	0.046375
1.766667	1	0.046000
1.783333	1	0.045625
1.800000	1	0.046000
1.816667	1	0.046625
1.833333	1	0.047000
1.850000	1	0.047250
1.866667	1	0.046875
1.883333	1	0.046375
1.900000	1	0.046375
1.916667	1	0.046500
1.933333	1	0.045875
1.950000	1	0.045250
1.966667	1	0.044250
1.983333	1	0.043500
2.000000	1	0.042875
2.016667	1	0.042125
2.033333	1	0.041125
2.050000	1	0.039500
2.066667	1	0.038000
2.083333	1	0.037125
2.100000	1	0.035750
2.116667	1	0.034000
2.133333	1	0.032250
2.150000	1	0.031125
2.166667	1	0.028750
2.183333	1	0.026625
2.200000	1	0.025625
2.216667	1	0.024250
2.233333	1	0.022500
2.250000	1	0.021250
2.266667	1	0.020125
2.283333	1	0.018250
2.300000	1	0.017000
2.316667	1	0.016000
2.333333	1	0.015125
2.350000	1	0.013750
2.366667	1	0.013000
2.383333	1	0.012375
2.400000	1	0.012250
2.416667	1	0.012250
2.433333	1	0.011875
2.450000	1	0.012250
2.466667	1	0.012750
2.483333	1	0.012625
2.500000	1	0.012375
2.516667	1	0.012250
2.533333	1	0.012375
2.550000	1	0.012875
2.566667	1	0.013375
2.583333	1	0.014000
2.600000	1	0.014500
2.616667	1	0.014875
2.633333	1	0.015000
2.650000	1	0.015875
2.666667	1	0.016250
2.683333	1	0.016500
2.700000	1	0.016750
2.716667	1	0.016875
2.733333	1	0.017000
2.750000	1	0.017125
2.766667	1	0.017625
2.783333	1	0.017875
2.800000	1	0.018000
2.816667	1	0.018000
2.833333	1	0.018000
2.850000	1	0.017875
2.866667	1	0.017875
2.883333	1	0.018375
2.900000	1	0.018375
2.916667	1	0.018125
2.933333	1	0.017625
2.950000	1	0.017125
2.966667	1	0.017125
2.983333	1	0.016875
3.000000	1	0.017000
3.016667	1	0.016875
3.033333	1	0.016875
3.050000	1	0.017125
3.066667	1	0.017375
3.083333	1	0.017375
3.100000	1	0.017125
3.116667	1	0.017125
3.133333	1	0.017750
3.150000	1	0.018375
3.166667	1	0.018625
3.183333	1	0.019500
3.200000	1	0.020250
3.216667	1	0.021000
3.233333	1	0.022250
3.250000	1	0.023750
3.266667	1	0.024500
3.283333	1	0.026000
3.300000	1	0.026875
3.316667	1	0.028500
3.333333	1	0.030250
3.350000	1	0.031625
3.366667	1	0.033250
3.383333	1	0.034875
3.400000	1	0.036625
3.416667	1	0.038875
3.433333	1	0.040125
3.450000	1	0.041250
3.466667	1	0.041500
3.483333	1	0.043125
3.500000	1	0.044500
3.516667	1	0.046125
3.533333	1	0.047000
3.550000	1	0.048625
3.566667	1	0.050500
3.583333	1	0.051875
3.600000	1	0.053250
3.616667	1	0.054500
3.633333	1	0.055250
3.650000	1	0.055250
3.666667	1	0.056000
3.683333	1	0.056375
3.700000	1	0.057000
3.716667	1	0.056875
3.733333	1	0.057375
3.750000	1	0.058125
3.766667	1	0.058625
3.783333	1	0.059125
3.800000	1	0.059500
3.816667	1	0.059875
3.833333	1	0.059750
3.850000	1	0.059875
3.866667	1	0.060000
3.883333	1	0.060000
3.900000	1	0.060125
3.916667	1	0.060625
3.933333	1	0.060250
3.950000	1	0.060875
3.966667	1	0.060875
3.983333	1	0.060875
4.000000	1	0.061000
4.016667	1	0.061750
4.033333	1	0.062000
4.050000	1	0.062375
4.066667	1	0.063000
4.083333	1	0.063500
4.100000	1	0.064000
4.116667	1	0.065250
4.133333	1	0.066125
4.150000	1	0.067125
4.166667	1	0.068375
4.183333	1	0.070125
4.200000	1	0.071875
4.216667	1	0.073125
4.233333	1	0.075000
4.250000	1	0.076250
4.266667	1	0.077875
4.283333	1	0.079500
4.300000	1	0.081125
4.316667	1	0.082875
4.333333	1	0.084500
4.350000	1	0.086375
4.366667	1	0.087625
4.383333	1	0.089500
4.400000	1	0.090750
4.416667	1	0.092000
4.433333	1	0.093750
4.450000	1	0.095500
4.466667	1	0.096500
4.483333	1	0.098250
4.500000	1	0.099500
4.516667	1	0.100625
4.533333	1	0.101500
4.550000	1	0.102500
4.566667	1	0.103250
4.583333	1	0.104750
4.600000	1	0.105250
4.616667	1	0.106250
4.633333	1	0.106500
4.650000	1	0.107125
4.666667	1	0.107875
4.683333	1	0.108875
4.700000	1	0.110375
4.716667	1	0.112250
4.733333	1	0.114000
4.750000	1	0.115500
4.766667	1	0.116500
4.783333	1	0.118250
4.800000	1	0.119625
4.816667	1	0.121250
4.833333	1	0.124250
4.850000	1	0.126375
4.866667	1	0.128500
4.883333	1	0.131375
4.900000	1	0.134000
4.916667	1	0.136875
4.933333	1	0.139750
4.950000	1	0.142625
4.966667	1	0.145375
4.983333	1	0.149375
5.000000	1	0.153375
5.016667	1	0.156500
5.033333	1	0.160375
5.050000	1	0.164125
5.066667	1	0.167875
5.083333	1	0.171875
5.100000	1	0.175500
5.116667	1	0.179375
5.133333	1	0.182875
5.150000	1	0.186250
5.166667	1	0.190500
5.183333	1	0.195000
5.200000	1	0.199125
5.216667	1	0.203000
5.233333	1	0.206500
5.250000	1	0.211000
5.266667	1	0.215125
5.283333	1	0.218375
5.300000	1	0.222125
5.316667	1	0.225250
5.333333	1	0.228625
5.350000	1	0.231500
5.366667	1	0.234875
5.383333	1	0.238125
5.400000	1	0.241250
5.416667	1	0.244125
5.433333	1	0.247000
5.450000	1	0.249125
5.466667	1	0.251125
5.483333	1	0.253000
5.500000	1	0.254500
5.516667	1	0.255625
5.533333	1	0.257750
5.550000	1	0.259500
5.566667	1	0.260000
5.583333	1	0.260375
5.600000	1	0.261750
5.616667	1	0.261500
5.633333	1	0.262250
5.650000	1	0.262625
5.666667	1	0.261625
5.683333	1	0.261000
5.700000	1	0.260125
5.716667	1	0.259375
5.733333	1	0.258125
5.750000	1	0.255750
5.766667	1	0.253875
5.783333	1	0.252875
5.800000	1	0.251125
5.816667	1	0.248750
5.833333	1	0.246125
5.850000	1	0.243250
5.866667	1	0.240125
5.883333	1	0.237000
5.900000	1	0.233875
5.916667	1	0.230750
5.933333	1	0.227000
5.950000	1	0.224250
5.966667	1	0.220125
5.983333	1	0.216250
6.000000	1	0.212875
6.016667	1	0.208500
6.033333	1	0.204500
6.050000	1	0.201250
6.066667	1	0.196875
6.083333	1	0.193250
6.100000	1	0.189000
6.116667	1	0.184375
6.133333	1	0.180000
6.150000	1	0.176250
6.166667	1	0.171750
6.183333	1	0.167750
6.200000	1	0.163375
6.216667	1	0.159125
6.233333	1	0.154750
6.250000	1	0.150125
6.266667	1	0.146625
6.283333	1	0.142625
6.300000	1	0.138500
6.316667	1	0.134250
6.333333	1	0.130375
6.350000	1	0.126250
6.366667	1	0.122000
6.383333	1	0.118750
6.400000	1	0.115250
6.416667	1	0.112125
6.433333	1	0.108750
6.450000	1	0.106000
6.466667	1	0.102750
6.483333	1	0.099375
6.500000	1	0.096875
6.516667	1	0.094750
6.533333	1	0.092500
6.550000	1	0.090875
6.566667	1	0.089625
6.583333	1	0.088250
6.600000	1	0.087625
6.616667	1	0.086875
6.633333	1	0.085875
6.650000	1	0.084750
6.666667	1	0.084000
6.683333	1	0.082625
6.700000	1	0.083125
6.716667	1	0.083375
6.733333	1	0.083875
6.750000	1	0.083750
6.766667	1	0.084000
6.783333	1	0.085125
6.800000	1	0.085875
6.816667	1	0.086750
6.833333	1	0.087125
6.850000	1	0.087500
6.866667	1	0.088375
6.883333	1	0.089125
6.900000	1	0.090000
6.916667	1	0.091250
6.933333	1	0.092375
6.950000	1	0.093875
6.966667	1	0.094375
6.983333	1	0.095750
7.000000	1	0.097000
7.016667	1	0.098875
7.033333	1	0.100000
7.050000	1	0.101625
7.066667	1	0.103250
7.083333	1	0.105125
7.100000	1	0.107250
7.116667	1	0.109250
7.133333	1	0.110750
7.150000	1	0.113125
7.166667	1	0.114625
7.183333	1	0.117125
7.200000	1	0.119250
7.216667	1	0.121250
7.233333	1	0.123875
7.250000	1	0.125625
7.266667	1	0.127875
7.283333	1	0.129500
7.300000	1	0.130875
7.316667	1	0.132750
7.333333	1	0.134625
7.350000	1	0.136750
7.366667	1	0.138625
7.383333	1	0.140375
7.400000	1	0.141500
7.416667	1	0.142375
7.433333	1	0.143500
7.450000	1	0.144500
7.466667	1	0.145000
7.483333	1	0.146375
7.500000	1	0.147125
7.516667	1	0.146625
7.533333	1	0.147125
7.550000	1	0.146750
7.566667	1	0.145500
7.583333	1	0.145250
7.600000	1	0.144625
7.616667	1	0.143250
7.633333	1	0.142375
7.650000	1	0.140875
7.666667	1	0.139250
7.683333	1	0.137250
7.700000	1	0.136125
7.716667	1	0.134000
7.733333	1	0.132625
7.750000	1	0.130875
7.766667	1	0.128875
7.783333	1	0.126750
7.800000	1	0.123875
7.816667	1	0.121000
7.833333	1	0.118625
7.850000	1	0.115375
7.866667	1	0.112375
7.883333	1	0.109375
7.900000	1	0.106000
7.916667	1	0.102750
7.933333	1	0.099625
7.950000	1	0.096375
7.966667	1	0.092625
7.983333	1	0.089250
8.000000	1	0.086250
8.016667	1	0.083250
8.033333	1	0.079625
8.050000	1	0.076125
8.066667	1	0.072500
8.083333	1	0.069625
8.100000	1	0.066250
8.116667	1	0.063125
8.133333	1	0.060125
8.150000	1	0.056625
8.166667	1	0.053250
8.183333	1	0.050250
8.200000	1	0.047125
8.216667	1	0.043750
8.233333	1	0.040750
8.250000	1	0.037375
8.266667	1	0.034500
8.283333	1	0.031625
8.300000	1	0.029000
8.316667	1	0.026500
8.333333	1	0.023875
8.350000	1	0.022125
8.366667	1	0.020125
8.383333	1	0.017875
8.400000	1	0.015750
8.416667	1	0.014125
8.433333	1	0.012250
8.450000	1	0.010250
8.466667	1	0.009250
8.483333	1	0.008000
8.500000	1	0.007125
8.516667	1	0.006500
8.533333	1	0.005625
8.550000	1	0.004875
8.566667	1	0.005000
8.583333	1	0.005250
8.600000	1	0.005125
8.616667	1	0.004500
8.633333	1	0.004875
8.650000	1	0.005250
8.666667	1	0.005625
8.683333	1	0.006375
8.700000	1	0.007000
8.716667	1	0.008250
8.733333	1	0.009375
8.750000	1	0.010500
8.766667	1	0.011750
8.783333	1	0.012625
8.800000	1	0.014250
8.816667	1	0.015625
8.833333	1	0.017000
8.850000	1	0.018125
8.866667	1	0.019375
8.883333	1	0.020500
8.900000	1	0.022250
8.916667	1	0.023500
8.933333	1	0.024875
8.950000	1	0.026250
8.966667	1	0.027375
8.983333	1	0.028500
9.000000	1	0.029375
9.016667	1	0.030250
9.033333	1	0.030750
9.050000	1	0.032000
9.066667	1	0.032500
9.083333	1	0.033875
9.100000	1	0.035000
9.116667	1	0.035875
9.133333	1	0.035875
9.150000	1	0.036750
9.166667	1	0.037375
9.183333	1	0.038125
9.200000	1	0.038500
9.216667	1	0.038375
9.233333	1	0.039125
9.250000	1	0.039625
9.266667	1	0.039750
9.283333	1	0.039625
9.300000	1	0.039625
9.316667	1	0.039250
9.333333	1	0.039375
9.350000	1	0.039000
9.366667	1	0.038250
9.383333	1	0.037750
9.400000	1	0.037250
9.416667	1	0.036250
9.433333	1	0.035750
9.450000	1	0.034750
9.466667	1	0.034250
9.483333	1	0.033875
9.500000	1	0.033250
9.516667	1	0.032125
9.533333	1	0.031250
9.550000	1	0.031000
9.566667	1	0.030125
9.583333	1	0.028875
9.600000	1	0.028125
9.616667	1	0.027250
9.633333	1	0.026375
9.650000	1	0.025750
9.666667	1	0.024875
9.683333	1	0.024250
9.700000	1	0.023000
9.716667	1	0.022250
9.733333	1	0.021875
9.750000	1	0.021500
9.766667	1	0.021250
9.783333	1	0.019625
9.800000	1	0.018875
9.816667	1	0.017750
9.833333	1	0.017375
9.850000	1	0.016000
9.866667	1	0.014875
9.883333	1	0.013625
9.900000	1	0.012750
9.916667	1	0.012125
9.933333	1	0.011250
9.950000	1	0.009500
9.966667	1	0.008500
9.983333	1	0.007000
10.000000	1	0.006125
10.016667	1	0.005125
10.033333	1	0.004625
10.050000	1	0.004625
10.066667	1	0.005250
10.083333	1	0.006875
10.100000	1	0.009250
10.116667	1	0.012625
10.133333	1	0.017250
10.150000	1	0.022500
10.166667	1	0.029250
10.183333	1	0.036500
10.200000	1	0.045750
10.216667	1	0.056875
10.233333	1	0.069250
10.250000	1	0.083500
10.266667	1	0.100125
10.283333	1	0.118500
10.300000	1	0.140375
10.316667	1	0.164375
10.333333	1	0.190625
10.350000	1	0.218750
10.366667	1	0.247125
10.383333	1	0.274125
10.400000	1	0.296500
10.416667	1	0.311375
10.433333	1	0.314625
10.450000	1	0.304625
10.466667	1	0.278625
10.483333	1	0.240375
10.500000	1	0.201875
10.516667	1	0.187125
10.533333	1	0.233250
10.550000	1	0.395500
10.566667	1	0.741500
10.583333	1	1.346625
10.600000	1	2.284125
10.616667	1	3.619750
10.633333	1	5.403500
10.650000	1	7.665875
10.666667	1	10.424375
10.683333	1	13.673875
10.700000	1	17.396250
10.716667	1	21.542500
10.733333	1	26.037625
10.750000	1	30.764500
10.766667	1	35.546500
10.783333	1	40.139500
10.800000	1	44.218625
10.816667	1	47.389375
10.833333	1	49.249750
10.850000	1	49.487000
10.866667	1	47.981500
10.883333	1	44.871000
10.900000	1	40.529750
10.916667	1	35.471875
10.933333	1	30.211250
10.950000	1	25.161000
10.966667	1	20.591125
10.983333	1	16.631875
11.000000	1	13.312750
11.016667	1	10.604500
11.033333	1	8.442375
11.050000	1	6.744750
11.066667	1	5.427000
11.083333	1	4.414500
11.100000	1	3.639375
11.116667	1	3.047625
11.133333	1	2.595375
11.150000	1	2.247375
11.166667	1	1.979250
11.183333	1	1.770000
11.200000	1	1.605000
11.216667	1	1.473875
11.233333	1	1.367000
11.250000	1	1.279000
11.266667	1	1.206750
11.283333	1	1.146125
11.300000	1	1.094875
11.316667	1	1.050875
11.333333	1	1.012875
11.350000	1	0.981000
11.366667	1	0.953375
11.383333	1	0.929250
11.400000	1	0.909250
11.416667	1	0.891625
11.433333	1	0.876750
11.450000	1	0.864125
11.466667	1	0.853875
11.483333	1	0.844750
11.500000	1	0.837250
11.516667	1	0.831250
11.533333	1	0.826250
11.550000	1	0.822875
11.566667	1	0.820125
11.583333	1	0.819625
11.600000	1	0.819875
11.616667	1	0.821250
11.633333	1	0.823000
11.650000	1	0.826125
11.666667	1	0.830500
11.683333	1	0.836125
11.700000	1	0.842500
11.716667	1	0.850500
11.733333	1	0.859875
11.750000	1	0.869125
11.766667	1	0.879375
11.783333	1	0.890125
11.800000	1	0.900625
11.816667	1	0.911000
11.833333	1	0.920750
11.850000	1	0.929875
11.866667	1	0.938125
11.883333	1	0.944750
11.900000	1	0.951125
11.916667	1	0.956500
11.933333	1	0.961750
11.950000	1	0.965625
11.966667	1	0.968875
11.983333	1	0.972000
12.000000	1	0.975000
12.016667	1	0.977875
12.033333	1	0.980875
12.050000	1	0.983625
12.066667	1	0.986875
12.083333	1	0.990750
12.100000	1	0.994500
12.116667	1	0.999125
12.133333	1	1.003750
12.150000	1	1.008750
12.166667	1	1.014250
12.183333	1	1.021250
12.200000	1	1.029500
12.216667	1	1.039375
12.233333	1	1.052000
12.250000	1	1.069000
12.266667	1	1.089500
12.283333	1	1.117000
12.300000	1	1.152125
12.316667	1	1.197375
12.333333	1	1.255500
12.350000	1	1.330375
12.366667	1	1.426000
12.383333	1	1.546250
12.400000	1	1.696000
12.416667	1	1.879875
12.433333	1	2.102875
12.450000	1	2.369250
12.466667	1	2.683375
12.483333	1	3.051250
12.500000	1	3.473750
12.516667	1	3.953875
12.533333	1	4.492625
12.550000	1	5.086500
12.566667	1	5.730875
12.583333	1	6.418625
12.600000	1	7.136625
12.616667	1	7.871375
12.633333	1	8.608875
12.650000	1	9.337375
12.666667	1	10.042375
12.683333	1	10.714750
12.700000	1	11.347625
12.716667	1	11.939750
12.733333	1	12.493375
12.750000	1	13.015500
12.766667	1	13.515625
12.783333	1	14.002500
12.800000	1	14.488500
12.816667	1	14.982125
12.833333	1	15.493500
12.850000	1	16.028125
12.866667	1	16.592000
12.883333	1	17.186875
12.900000	1	17.814375
12.916667	1	18.474375
12.933333	1	19.166250
12.950000	1	19.887750
12.966667	1	20.637500
12.983333	1	21.413875
13.000000	1	22.213750
13.016667	1	23.037625
13.033333	1	23.884375
13.050000	1	24.751875
13.066667	1	25.642125
13.083333	1	26.553125
13.100000	1	27.484000
13.116667	1	28.435500
13.133333	1	29.405750
13.150000	1	30.394250
13.166667	1	31.401875
13.183333	1	32.428750
13.200000	1	33.474125
13.216667	1	34.536750
13.233333	1	35.620750
13.250000	1	36.724250
13.266667	1	37.849875
13.283333	1	38.997000
13.300000	1	40.166625
13.316667	1	41.358375
13.333333	1	42.573375
13.350000	1	43.810500
13.366667	1	45.071750
13.383333	1	46.356125
13.400000	1	47.665250
13.416667	1	48.998375
13.433333	1	50.358000
13.450000	1	51.746375
13.466667	1	53.164250
13.483333	1	54.611500
13.500000	1	56.088875
13.516667	1	57.596000
13.533333	1	59.133500
13.550000	1	60.702125
13.566667	1	62.301500
13.583333	1	63.932625
13.600000	1	65.595375
13.616667	1	67.291750
13.633333	1	69.022500
13.650000	1	70.791375
13.666667	1	72.598750
13.683333	1	74.444875
13.700000	1	76.325625
13.716667	1	78.216500
13.733333	1	80.044875
13.750000	1	81.648875
13.766667	1	82.760375
13.783333	1	83.046625
13.800000	1	82.158375
13.816667	1	79.775375
13.833333	1	75.648000
13.850000	1	69.704500
13.866667	1	62.185000
13.883333	1	53.676625
13.900000	1	44.967000
13.916667	1	36.789500
13.933333	1	29.624750
13.950000	1	23.656750
13.966667	1	18.854625
13.983333	1	15.075750
14.000000	1	12.146000
14.016667	1	9.899375
14.033333	1	8.198375
14.050000	1	6.924875
14.066667	1	5.980500
14.083333	1	5.283125
14.100000	1	4.767250
14.116667	1	4.381000
14.133333	1	4.088750
14.150000	1	3.863000
14.166667	1	3.684500
14.183333	1	3.540875
14.200000	1	3.422125
14.216667	1	3.321875
14.233333	1	3.235250
14.250000	1	3.160250
14.266667	1	3.093250
14.283333	1	3.033125
14.300000	1	2.978500
14.316667	1	2.929500
14.333333	1	2.886125
14.350000	1	2.849125
14.366667	1	2.817500
14.383333	1	2.791625
14.400000	1	2.772625
14.416667	1	2.763000
14.433333	1	2.765125
14.450000	1	2.783250
14.466667	1	2.822625
14.483333	1	2.890250
14.500000	1	2.999375
14.516667	1	3.164875
14.533333	1	3.409500
14.550000	1	3.762125
14.566667	1	4.262500
14.583333	1	4.957125
14.600000	1	5.906125
14.616667	1	7.179375
14.633333	1	8.855000
14.650000	1	11.013000
14.666667	1	13.726750
14.683333	1	17.054125
14.700000	1	21.026375
14.716667	1	25.635125
14.733333	1	30.831250
14.750000	1	36.512125
14.766667	1	42.515250
14.783333	1	48.626500
14.800000	1	54.602500
14.816667	1	60.171500
14.833333	1	65.062750
14.850000	1	69.020375
14.866667	1	71.834625
14.883333	1	73.361875
14.900000	1	73.538250
14.916667	1	72.387000
14.933333	1	70.009625
14.950000	1	66.575625
14.966667	1	62.301625
14.983333	1	57.432375
15.000000	1	52.206500
15.016667	1	46.847000
15.033333	1	41.547125
15.050000	1	36.464375
15.066667	1	31.717000
15.083333	1	27.381000
15.100000	1	23.498500
15.116667	1	20.078500
15.133333	1	17.107875
15.150000	1	14.558000
15.166667	1	12.390875
15.183333	1	10.564125
15.200000	1	9.033250
15.216667	1	7.758125
15.233333	1	6.700375
15.250000	1	5.828125
15.266667	1	5.111375
15.283333	1	4.526000
15.300000	1	4.049750
15.316667	1	3.666125
15.333333	1	3.358875
15.350000	1	3.114875
15.366667	1	2.925125
15.383333	1	2.778375
15.400000	1	2.667625
15.416667	1	2.585625
15.433333	1	2.526250
15.450000	1	2.483500
15.466667	1	2.452125
15.483333	1	2.427625
15.500000	1	2.405625
15.516667	1	2.384000
15.533333	1	2.359125
15.550000	1	2.330625
15.566667	1	2.298625
15.583333	1	2.263375
15.600000	1	2.224500
15.616667	1	2.183625
15.633333	1	2.141875
15.650000	1	2.099875
15.666667	1	2.059500
15.683333	1	2.021625
15.700000	1	1.984750
15.716667	1	1.950250
15.733333	1	1.918000
15.750000	1	1.885875
15.766667	1	1.854750
15.783333	1	1.824125
15.800000	1	1.792875
15.816667	1	1.762375
15.833333	1	1.731750
15.850000	1	1.701000
15.866667	1	1.670875
15.883333	1	1.641875
15.900000	1	1.615000
15.916667	1	1.590875
15.933333	1	1.570625
15.950000	1	1.553000
15.966667	1	1.539875
15.983333	1	1.528875
16.000000	1	1.521750
16.016667	1	1.517750
16.033333	1	1.515000
16.050000	1	1.513000
16.066667	1	1.512375
16.083333	1	1.512125
16.100000	1	1.510500
16.116667	1	1.508375
16.133333	1	1.503250
16.150000	1	1.497250
16.166667	1	1.489625
16.183333	1	1.480375
16.200000	1	1.469750
16.216667	1	1.457500
16.233333	1	1.444000
16.250000	1	1.430000
16.266667	1	1.415125
16.283333	1	1.399625
16.300000	1	1.384125
16.316667	1	1.369250
16.333333	1	1.354000
16.350000	1	1.339375
16.366667	1	1.326500
16.383333	1	1.313875
16.400000	1	1.303250
16.416667	1	1.294250
16.433333	1	1.287125
16.450000	1	1.282750
16.466667	1	1.281625
16.483333	1	1.281875
16.500000	1	1.284375
16.516667	1	1.289375
16.533333	1	1.295500
16.550000	1	1.302500
16.566667	1	1.310250
16.583333	1	1.317125
16.600000	1	1.322500
16.616667	1	1.327250
16.633333	1	1.330625
16.650000	1	1.332375
16.666667	1	1.332125
16.683333	1	1.331250
16.700000	1	1.328875
16.716667	1	1.325500
16.733333	1	1.322375
16.750000	1	1.319250
16.766667	1	1.317750
16.783333	1	1.317000
16.800000	1	1.317875
16.816667	1	1.318625
16.833333	1	1.320875
16.850000	1	1.323375
16.866667	1	1.325875
16.883333	1	1.327875
16.900000	1	1.329625
16.916667	1	1.330750
16.933333	1	1.329500
16.950000	1	1.326250
16.966667	1	1.322375
16.983333	1	1.318125
17.000000	1	1.311750
17.016667	1	1.304875
17.033333	1	1.296875
17.050000	1	1.288875
17.066667	1	1.281000
17.083333	1	1.272500
17.100000	1	1.265500
17.116667	1	1.259625
17.133333	1	1.253625
17.150000	1	1.248750
17.166667	1	1.245125
17.183333	1	1.242750
17.200000	1	1.241250
17.216667	1	1.240125
17.233333	1	1.240250
17.250000	1	1.242000
17.266667	1	1.243375
17.283333	1	1.244750
17.300000	1	1.247750
17.316667	1	1.251375
17.333333	1	1.255625
17.350000	1	1.259500
17.366667	1	1.263625
17.383333	1	1.267375
17.400000	1	1.270750
17.416667	1	1.273500
17.433333	1	1.275500
17.450000	1	1.276750
17.466667	1	1.277000
17.483333	1	1.275625
17.500000	1	1.272125
17.516667	1	1.267000
17.533333	1	1.260750
17.550000	1	1.252250
17.566667	1	1.242000
17.583333	1	1.230125
17.600000	1	1.217125
17.616667	1	1.203375
17.633333	1	1.187875
17.650000	1	1.172500
17.666667	1	1.156375
17.683333	1	1.140375
17.700000	1	1.123375
17.716667	1	1.106625
17.733333	1	1.089750
17.750000	1	1.073500
17.766667	1	1.058125
17.783333	1	1.043250
17.800000	1	1.028875
17.816667	1	1.015000
17.833333	1	1.002000
17.850000	1	0.989625
17.866667	1	0.977500
17.883333	1	0.966500
17.900000	1	0.955750
17.916667	1	0.945250
17.933333	1	0.935250
17.950000	1	0.925875
17.966667	1	0.916250
17.983333	1	0.907250
18.000000	1	0.898750
18.016667	1	0.889750
18.033333	1	0.881250
18.050000	1	0.872125
18.066667	1	0.863250
18.083333	1	0.853250
18.100000	1	0.844625
18.116667	1	0.837125
18.133333	1	0.830125
18.150000	1	0.823750
18.166667	1	0.817750
18.183333	1	0.813000
18.200000	1	0.809750
18.216667	1	0.806500
18.233333	1	0.805500
18.250000	1	0.804500
18.266667	1	0.804625
18.283333	1	0.804750
18.300000	1	0.805250
18.316667	1	0.805750
18.333333	1	0.806750
18.350000	1	0.808375
18.366667	1	0.810000
18.383333	1	0.813125
18.400000	1	0.816625
18.416667	1	0.821375
18.433333	1	0.826875
18.450000	1	0.833625
18.466667	1	0.842250
18.483333	1	0.852250
18.500000	1	0.863875
18.516667	1	0.876500
18.533333	1	0.890875
18.550000	1	0.907375
18.566667	1	0.925875
18.583333	1	0.946750
18.600000	1	0.969875
18.616667	1	0.993750
18.633333	1	1.020625
18.650000	1	1.048875
18.666667	1	1.078250
18.683333	1	1.109250
18.700000	1	1.141750
18.716667	1	1.175250
18.733333	1	1.210000
18.750000	1	1.245375
18.766667	1	1.281500
18.783333	1	1.317250
18.800000	1	1.352500
18.816667	1	1.387250
18.833333	1	1.419250
18.850000	1	1.448750
18.866667	1	1.475250
18.883333	1	1.497125
18.900000	1	1.513500
18.916667	1	1.524500
18.933333	1	1.529250
18.950000	1	1.526750
18.966667	1	1.517000
18.983333	1	1.501250
19.000000	1	1.479125
19.016667	1	1.450750
19.033333	1	1.416875
19.050000	1	1.378750
19.066667	1	1.337625
19.083333	1	1.294625
19.100000	1	1.251500
19.116667	1	1.209625
19.133333	1	1.170500
19.150000	1	1.137000
19.166667	1	1.109000
19.183333	1	1.090125
19.200000	1	1.081500
19.216667	1	1.085500
19.233333	1	1.103375
19.250000	1	1.137375
19.266667	1	1.189500
19.283333	1	1.261125
19.300000	1	1.353750
19.316667	1	1.467375
19.333333	1	1.601875
19.350000	1	1.757000
19.366667	1	1.931500
19.383333	1	2.121500
19.400000	1	2.324125
19.416667	1	2.534625
19.433333	1	2.746750
19.450000	1	2.954375
19.466667	1	3.151500
19.483333	1	3.331750
19.500000	1	3.487750
19.516667	1	3.615125
19.533333	1	3.708375
19.550000	1	3.766875
19.566667	1	3.788375
19.583333	1	3.772125
19.600000	1	3.718875
19.616667	1	3.633000
19.633333	1	3.517750
19.650000	1	3.378125
19.666667	1	3.219500
19.683333	1	3.046750
19.700000	1	2.865375
19.716667	1	2.679750
19.733333	1	2.494875
19.750000	1	2.314000
19.766667	1	2.139375
19.783333	1	1.974000
19.800000	1	1.818750
19.816667	1	1.674625
19.833333	1	1.542250
19.850000	1	1.421375
19.866667	1	1.311625
19.883333	1	1.212875
19.900000	1	1.124250
19.916667	1	1.045625
19.933333	1	0.976250
19.950000	1	0.914750
19.966667	1	0.860875
19.983333	1	0.814000
20.000000	1	0.774375
20.016667	1	0.740750
20.033333	1	0.713375
20.050000	1	0.690375
20.066667	1	0.673250
20.083333	1	0.660875
20.100000	1	0.653750
20.116667	1	0.650250
20.133333	1	0.650500
20.150000	1	0.654250
20.166667	1	0.661000
20.183333	1	0.670875
20.200000	1	0.682875
20.216667	1	0.695375
20.233333	1	0.708250
20.250000	1	0.720875
20.266667	1	0.732250
20.283333	1	0.742375
20.300000	1	0.750125
20.316667	1	0.754875
20.333333	1	0.756375
20.350000	1	0.755125
20.366667	1	0.749875
20.383333	1	0.742375
20.400000	1	0.731750
20.416667	1	0.719625
20.433333	1	0.705625
20.450000	1	0.690000
20.466667	1	0.674625
20.483333	1	0.660125
20.500000	1	0.647750
20.516667	1	0.638500
20.533333	1	0.632125
20.550000	1	0.630750
20.566667	1	0.633875
20.583333	1	0.642750
20.600000	1	0.659500
20.616667	1	0.684000
20.633333	1	0.715625
20.650000	1	0.755625
20.666667	1	0.804000
20.683333	1	0.860000
20.700000	1	0.925125
20.716667	1	0.996625
20.733333	1	1.073750
20.750000	1	1.155375
20.766667	1	1.239000
20.783333	1	1.322625
20.800000	1	1.403000
20.816667	1	1.477875
20.833333	1	1.544875
20.850000	1	1.602375
20.866667	1	1.647125
20.883333	1	1.679000
20.900000	1	1.696750
20.916667	1	1.698125
20.933333	1	1.685125
20.950000	1	1.658625
20.966667	1	1.619375
20.983333	1	1.568750
21.000000	1	1.509500
21.016667	1	1.443000
21.033333	1	1.371750
21.050000	1	1.297250
21.066667	1	1.222250
21.083333	1	1.148375
21.100000	1	1.075625
21.116667	1	1.007625
21.133333	1	0.943250
21.150000	1	0.883625
21.166667	1	0.828500
21.183333	1	0.778250
21.200000	1	0.733625
21.216667	1	0.693375
21.233333	1	0.657250
21.250000	1	0.625625
21.266667	1	0.598250
21.283333	1	0.574500
21.300000	1	0.554125
21.316667	1	0.536125
21.333333	1	0.520250
21.350000	1	0.506625
21.366667	1	0.494500
21.383333	1	0.484250
21.400000	1	0.475125
21.416667	1	0.468125
21.433333	1	0.460750
21.450000	1	0.453625
21.466667	1	0.448375
21.483333	1	0.443625
21.500000	1	0.439875
21.516667	1	0.436125
21.533333	1	0.432750
21.550000	1	0.430375
21.566667	1	0.429625
21.583333	1	0.428125
21.600000	1	0.428750
21.616667	1	0.429875
21.633333	1	0.431750
21.650000	1	0.435500
21.666667	1	0.440625
21.683333	1	0.446625
21.700000	1	0.454250
21.716667	1	0.463000
21.733333	1	0.472875
21.750000	1	0.484125
21.766667	1	0.497250
21.783333	1	0.512000
21.800000	1	0.527250
21.816667	1	0.542875
21.833333	1	0.559125
21.850000	1	0.575875
21.866667	1	0.591750
21.883333	1	0.608250
21.900000	1	0.624125
21.916667	1	0.639500
21.933333	1	0.652875
21.950000	1	0.665000
21.966667	1	0.676625
21.983333	1	0.686500
22.000000	1	0.694000
22.016667	1	0.699625
22.033333	1	0.703500
22.050000	1	0.705500
22.066667	1	0.706625
22.083333	1	0.705500
22.100000	1	0.703250
22.116667	1	0.699875
22.133333	1	0.694875
22.150000	1	0.688875
22.166667	1	0.682375
22.183333	1	0.674500
22.200000	1	0.665625
22.216667	1	0.655500
22.233333	1	0.644875
22.250000	1	0.633125
22.266667	1	0.620500
22.283333	1	0.607625
22.300000	1	0.594125
22.316667	1	0.580500
22.333333	1	0.566000
22.350000	1	0.552000
22.366667	1	0.537375
22.383333	1	0.522500
22.400000	1	0.508625
22.416667	1	0.494000
22.433333	1	0.479875
22.450000	1	0.466875
22.466667	1	0.454250
22.483333	1	0.442375
22.500000	1	0.431875
22.516667	1	0.421250
22.533333	1	0.411375
22.550000	1	0.402500
22.566667	1	0.394000
22.583333	1	0.386125
22.600000	1	0.378750
22.616667	1	0.371750
22.633333	1	0.365625
22.650000	1	0.359750
22.666667	1	0.354500
22.683333	1	0.349125
22.700000	1	0.343500
22.716667	1	0.338875
22.733333	1	0.334375
22.750000	1	0.330000
22.766667	1	0.326125
22.783333	1	0.321750
22.800000	1	0.318000
22.816667	1	0.315000
22.833333	1	0.311750
22.850000	1	0.309000
22.866667	1	0.306375
22.883333	1	0.304625
22.900000	1	0.302375
22.916667	1	0.300750
22.933333	1	0.299500
22.950000	1	0.299125
22.966667	1	0.298750
22.983333	1	0.298625
23.000000	1	0.298250
23.016667	1	0.299125
23.033333	1	0.300250
23.050000	1	0.301875
23.066667	1	0.303875
23.083333	1	0.306250
23.100000	1	0.308250
23.116667	1	0.310625
23.133333	1	0.314000
23.150000	1	0.316500
23.166667	1	0.318875
23.183333	1	0.321250
23.200000	1	0.324250
23.216667	1	0.327250
23.233333	1	0.330750
23.250000	1	0.334625
23.266667	1	0.339500
23.283333	1	0.344375
23.300000	1	0.352000
23.316667	1	0.361750
23.333333	1	0.373625
23.350000	1	0.389000
23.366667	1	0.408000
23.383333	1	0.432000
23.400000	1	0.462875
23.416667	1	0.501375
23.433333	1	0.548750
23.450000	1	0.607750
23.466667	1	0.678500
23.483333	1	0.764250
23.500000	1	0.866500
23.516667	1	0.986625
23.533333	1	1.127500
23.550000	1	1.290375
23.566667	1	1.476250
23.583333	1	1.685375
23.600000	1	1.918125
23.616667	1	2.172875
23.633333	1	2.448750
23.650000	1	2.743125
23.666667	1	3.052375
23.683333	1	3.372125
23.700000	1	3.698125
23.716667	1	4.023375
23.733333	1	4.342250
23.750000	1	4.646625
23.766667	1	4.931125
23.783333	1	5.187000
23.800000	1	5.409125
23.816667	1	5.592000
23.833333	1	5.730750
23.850000	1	5.823500
23.866667	1	5.868375
23.883333	1	5.865250
23.900000	1	5.814625
23.916667	1	5.719125
23.933333	1	5.581750
23.950000	1	5.407625
23.966667	1	5.201125
23.983333	1	4.969125
24.000000	1	4.716875
24.016667	1	4.450375
24.033333	1	4.175500
24.050000	1	3.897250
24.066667	1	3.619750
24.083333	1	3.346375
24.100000	1	3.082500
24.116667	1	2.828875
24.133333	1	2.587625
24.150000	1	2.360125
24.166667	1	2.148250
24.183333	1	1.951625
24.200000	1	1.770625
24.216667	1	1.605375
24.233333	1	1.456625
24.250000	1	1.321875
24.266667	1	1.201625
24.283333	1	1.093375
24.300000	1	0.997625
24.316667	1	0.912500
24.333333	1	0.836750
24.350000	1	0.770875
24.366667	1	0.713875
24.383333	1	0.664125
24.400000	1	0.622000
24.416667	1	0.586625
24.433333	1	0.556250
24.450000	1	0.531625
24.466667	1	0.510750
24.483333	1	0.494250
24.500000	1	0.480625
24.516667	1	0.469750
24.533333	1	0.460875
24.550000	1	0.454125
24.566667	1	0.448125
24.583333	1	0.443875
24.600000	1	0.439250
24.616667	1	0.436125
24.633333	1	0.433250
24.650000	1	0.430375
24.666667	1	0.427375
24.683333	1	0.423625
24.700000	1	0.420125
24.716667	1	0.417250
24.733333	1	0.413250
24.750000	1	0.409500
24.766667	1	0.405875
24.783333	1	0.401375
24.800000	1	0.397000
24.816667	1	0.392750
24.833333	1	0.388875
24.850000	1	0.384750
24.866667	1	0.379875
24.883333	1	0.376875
24.900000	1	0.373750
24.916667	1	0.370500
24.933333	1	0.367125
24.950000	1	0.364250
24.966667	1	0.361500
24.983333	1	0.358500
25.000000	1	0.356250
25.016667	1	0.353625
25.033333	1	0.350875
25.050000	1	0.349250
25.066667	1	0.347500
25.083333	1	0.345625
25.100000	1	0.344125
25.116667	1	0.342375
25.133333	1	0.341250
25.150000	1	0.339750
25.166667	1	0.337250
25.183333	1	0.334875
25.200000	1	0.332625
25.216667	1	0.330125
25.233333	1	0.327625
25.250000	1	0.324875
25.266667	1	0.322750
25.283333	1	0.320250
25.300000	1	0.317625
25.316667	1	0.315375
25.333333	1	0.312125
25.350000	1	0.310250
25.366667	1	0.307750
25.383333	1	0.304625
25.400000	1	0.302625
25.416667	1	0.300750
25.433333	1	0.298875
25.450000	1	0.297250
25.466667	1	0.295625
25.483333	1	0.293875
25.500000	1	0.293250
25.516667	1	0.291750
25.533333	1	0.291375
25.550000	1	0.291000
25.566667	1	0.290750
25.583333	1	0.290500
25.600000	1	0.290250
25.616667	1	0.289750
25.633333	1	0.289250
25.650000	1	0.288625
25.666667	1	0.288750
25.683333	1	0.288375
25.700000	1	0.287750
25.716667	1	0.287125
25.733333	1	0.286750
25.750000	1	0.286000
25.766667	1	0.285500
25.783333	1	0.284625
25.800000	1	0.283875
25.816667	1	0.283500
25.833333	1	0.283375
25.850000	1	0.282375
25.866667	1	0.282500
25.883333	1	0.283125
25.900000	1	0.284125
25.916667	1	0.285375
25.933333	1	0.286250
25.950000	1	0.288250
25.966667	1	0.291000
25.983333	1	0.294000
26.000000	1	0.297000
26.016667	1	0.300250
26.033333	1	0.304125
26.050000	1	0.308125
26.066667	1	0.312875
26.083333	1	0.318000
26.100000	1	0.323500
26.116667	1	0.328750
26.133333	1	0.334125
26.150000	1	0.339875
26.166667	1	0.344500
26.183333	1	0.349500
26.200000	1	0.354750
26.216667	1	0.359500
26.233333	1	0.364250
26.250000	1	0.368125
26.266667	1	0.372125
26.283333	1	0.375375
26.300000	1	0.377375
26.316667	1	0.379250
26.333333	1	0.380750
26.350000	1	0.381000
26.366667	1	0.380625
26.383333	1	0.379500
26.400000	1	0.377500
26.416667	1	0.375625
26.433333	1	0.373250
26.450000	1	0.369875
26.466667	1	0.365750
26.483333	1	0.361250
26.500000	1	0.357125
26.516667	1	0.352625
26.533333	1	0.347250
26.550000	1	0.341875
26.566667	1	0.336000
26.583333	1	0.329875
26.600000	1	0.323625
26.616667	1	0.318125
26.633333	1	0.313000
26.650000	1	0.308000
26.666667	1	0.302375
26.683333	1	0.297625
26.700000	1	0.292125
26.716667	1	0.287625
26.733333	1	0.283375
26.750000	1	0.278375
26.766667	1	0.273875
26.783333	1	0.269500
26.800000	1	0.266250
26.816667	1	0.263625
26.833333	1	0.260625
26.850000	1	0.257625
26.866667	1	0.255250
26.883333	1	0.253625
26.900000	1	0.251875
26.916667	1	0.250125
26.933333	1	0.249375
26.950000	1	0.248500
26.966667	1	0.248375
26.983333	1	0.248375
27.000000	1	0.248375
27.016667	1	0.249125
27.033333	1	0.250750
27.050000	1	0.252625
27.066667	1	0.255250
27.083333	1	0.258375
27.100000	1	0.262375
27.116667	1	0.266875
27.133333	1	0.273375
27.150000	1	0.280625
27.166667	1	0.288750
27.183333	1	0.298375
27.200000	1	0.310375
27.216667	1	0.324375
27.233333	1	0.341875
27.250000	1	0.361250
27.266667	1	0.383625
27.283333	1	0.410625
27.300000	1	0.441375
27.316667	1	0.477375
27.333333	1	0.519125
27.350000	1	0.567375
27.366667	1	0.622750
27.383333	1	0.686125
27.400000	1	0.758500
27.416667	1	0.840625
27.433333	1	0.932750
27.450000	1	1.036875
27.466667	1	1.151875
27.483333	1	1.279500
27.500000	1	1.419000
27.516667	1	1.571500
27.533333	1	1.735875
27.550000	1	1.911750
27.566667	1	2.098250
27.583333	1	2.293125
27.600000	1	2.496250
27.616667	1	2.706000
27.633333	1	2.919750
27.650000	1	3.134500
27.666667	1	3.348125
27.683333	1	3.557250
27.700000	1	3.758875
27.716667	1	3.949000
27.733333	1	4.124250
27.750000	1	4.281750
27.766667	1	4.420250
27.783333	1	4.534500
27.800000	1	4.621625
27.816667	1	4.682875
27.833333	1	4.716125
27.850000	1	4.720750
27.866667	1	4.695750
27.883333	1	4.641750
27.900000	1	4.560625
27.916667	1	4.452750
27.933333	1	4.321625
27.950000	1	4.170375
27.966667	1	4.001375
27.983333	1	3.816875
28.000000	1	3.622000
28.016667	1	3.418625
28.033333	1	3.210250
28.050000	1	2.999625
28.066667	1	2.789750
28.083333	1	2.583375
28.100000	1	2.383250
28.116667	1	2.190250
28.133333	1	2.007000
28.150000	1	1.833375
28.166667	1	1.670750
28.183333	1	1.519500
28.200000	1	1.380250
28.216667	1	1.252875
28.233333	1	1.137000
28.250000	1	1.031625
28.266667	1	0.937125
28.283333	1	0.852000
28.300000	1	0.776750
28.316667	1	0.710500
28.333333	1	0.652500
28.350000	1	0.601875
28.366667	1	0.558750
28.383333	1	0.522625
28.400000	1	0.492375
28.416667	1	0.467250
28.433333	1	0.447625
28.450000	1	0.431875
28.466667	1	0.420625
28.483333	1	0.412750
28.500000	1	0.409125
28.516667	1	0.407625
28.533333	1	0.409125
28.550000	1	0.412500
28.566667	1	0.417875
28.583333	1	0.424375
28.600000	1	0.433500
28.616667	1	0.443875
28.633333	1	0.454875
28.650000	1	0.465875
28.666667	1	0.477625
28.683333	1	0.489125
28.700000	1	0.501500
28.716667	1	0.513000
28.733333	1	0.523875
28.750000	1	0.535000
28.766667	1	0.544875
28.783333	1	0.554375
28.800000	1	0.562625
28.816667	1	0.570250
28.833333	1	0.576500
28.850000	1	0.581375
28.866667	1	0.585875
28.883333	1	0.588750
28.900000	1	0.590875
28.916667	1	0.591000
28.933333	1	0.591125
28.950000	1	0.589000
28.966667	1	0.586500
28.983333	1	0.582500
29.000000	1	0.576500
29.016667	1	0.570375
29.033333	1	0.563375
29.050000	1	0.554875
29.066667	1	0.545875
29.083333	1	0.536000
29.100000	1	0.524750
29.116667	1	0.512500
29.133333	1	0.500625
29.150000	1	0.488375
29.166667	1	0.476125
29.183333	1	0.462750
29.200000	1	0.449500
29.216667	1	0.436250
29.233333	1	0.423000
29.250000	1	0.409875
29.266667	1	0.396875
29.283333	1	0.384250
29.300000	1	0.371500
29.316667	1	0.359375
29.333333	1	0.347250
29.350000	1	0.335250
29.366667	1	0.324625
29.383333	1	0.313625
29.400000	1	0.302500
29.416667	1	0.293125
29.433333	1	0.283625
29.450000	1	0.275375
29.466667	1	0.267000
29.483333	1	0.258875
29.500000	1	0.251625
29.516667	1	0.245250
29.533333	1	0.237875
29.550000	1	0.232750
29.566667	1	0.227500
29.583333	1	0.223375
29.600000	1	0.219125
29.616667	1	0.215125
29.633333	1	0.211000
29.650000	1	0.207125
29.666667	1	0.203625
29.683333	1	0.200750
29.700000	1	0.198250
29.716667	1	0.195125
29.733333	1	0.192375
29.750000	1	0.190750
29.766667	1	0.188750
29.783333	1	0.186500
29.800000	1	0.184500
29.816667	1	0.182375
29.833333	1	0.181125
29.850000	1	0.179125
29.866667	1	0.177625
29.883333	1	0.176125
29.900000	1	0.174125
29.916667	1	0.172750
29.933333	1	0.171750
29.950000	1	0.170625
29.966667	1	0.169500
29.983333	1	0.168000
30.000000	1	0.166875
30.016667	1	0.166125
30.033333	1	0.164250
30.050000	1	0.162875
30.066667	1	0.161375
30.083333	1	0.160750
30.100000	1	0.159625
30.116667	1	0.158375
30.133333	1	0.157625
30.150000	1	0.157000
30.166667	1	0.156000
30.183333	1	0.155375
30.200000	1	0.154375
30.216667	1	0.154250
30.233333	1	0.153500
30.250000	1	0.152250
30.266667	1	0.151750
30.283333	1	0.151250
30.300000	1	0.151000
30.316667	1	0.150625
30.333333	1	0.150500
30.350000	1	0.150375
30.366667	1	0.150625
30.383333	1	0.151375
30.400000	1	0.151500
30.416667	1	0.151875
30.433333	1	0.152750
30.450000	1	0.154250
30.466667	1	0.155000
30.483333	1	0.156375
30.500000	1	0.158375
30.516667	1	0.160750
30.533333	1	0.163875
30.550000	1	0.166500
30.566667	1	0.169875
30.583333	1	0.173500
30.600000	1	0.178000
30.616667	1	0.183000
30.633333	1	0.187875
30.650000	1	0.194000
30.666667	1	0.200500
30.683333	1	0.206750
30.700000	1	0.214125
30.716667	1	0.222625
30.733333	1	0.231500
30.750000	1	0.241000
30.766667	1	0.251125
30.783333	1	0.262500
30.800000	1	0.274625
30.816667	1	0.287500
30.833333	1	0.301625
30.850000	1	0.316500
30.866667	1	0.333125
30.883333	1	0.351625
30.900000	1	0.372125
30.916667	1	0.395125
30.933333	1	0.420875
30.950000	1	0.449250
30.966667	1	0.482000
30.983333	1	0.518625
31.000000	1	0.560875
31.016667	1	0.608375
31.033333	1	0.662000
31.050000	1	0.722625
31.066667	1	0.791375
31.083333	1	0.868625
31.100000	1	0.954875
31.116667	1	1.051625
31.133333	1	1.157875
31.150000	1	1.276875
31.166667	1	1.406625
31.183333	1	1.548625
31.200000	1	1.704000
31.216667	1	1.872125
31.233333	1	2.052500
31.250000	1	2.244500
31.266667	1	2.447500
31.283333	1	2.660625
31.300000	1	2.882250
31.316667	1	3.110000
31.333333	1	3.342750
31.350000	1	3.577375
31.366667	1	3.813000
31.383333	1	4.046000
31.400000	1	4.275000
31.416667	1	4.495750
31.433333	1	4.704500
31.450000	1	4.900875
31.466667	1	5.080875
31.483333	1	5.241625
31.500000	1	5.381125
31.516667	1	5.498375
31.533333	1	5.589875
31.550000	1	5.656250
31.566667	1	5.696500
31.583333	1	5.710000
31.600000	1	5.696500
31.616667	1	5.657375
31.633333	1	5.592500
31.650000	1	5.503625
31.666667	1	5.392750
31.683333	1	5.261375
31.700000	1	5.111375
31.716667	1	4.945750
31.733333	1	4.766875
31.750000	1	4.576875
31.766667	1	4.378375
31.783333	1	4.172750
31.800000	1	3.961750
31.816667	1	3.748875
31.833333	1	3.536000
31.850000	1	3.325250
31.866667	1	3.117625
31.883333	1	2.915625
31.900000	1	2.719875
31.916667	1	2.531625
31.933333	1	2.351750
31.950000	1	2.180000
31.966667	1	2.016875
31.983333	1	1.862625
32.000000	1	1.717500
32.016667	1	1.581750
32.033333	1	1.454375
32.050000	1	1.335875
32.066667	1	1.226125
32.083333	1	1.124625
32.100000	1	1.031000
32.116667	1	0.945250
32.133333	1	0.866375
32.150000	1	0.794125
32.166667	1	0.727500
32.183333	1	0.666750
32.200000	1	0.610875
32.216667	1	0.560625
32.233333	1	0.514000
32.250000	1	0.471250
32.266667	1	0.432875
32.283333	1	0.398250
32.300000	1	0.365875
32.316667	1	0.336750
32.333333	1	0.311625
32.350000	1	0.287750
32.366667	1	0.266875
32.383333	1	0.247750
32.400000	1	0.230250
32.416667	1	0.215000
32.433333	1	0.200625
32.450000	1	0.187375
32.466667	1	0.175875
32.483333	1	0.165375
32.500000	1	0.156125
32.516667	1	0.147750
32.533333	1	0.139875
32.550000	1	0.133500
32.566667	1	0.127750
32.583333	1	0.122000
32.600000	1	0.116750
32.616667	1	0.112250
32.633333	1	0.107750
32.650000	1	0.104125
32.666667	1	0.100500
32.683333	1	0.097125
32.700000	1	0.093750
32.716667	1	0.091375
32.733333	1	0.088750
32.750000	1	0.086500
32.766667	1	0.084000
32.783333	1	0.081625
32.800000	1	0.079375
32.816667	1	0.076750
32.833333	1	0.074500
32.850000	1	0.071750
32.866667	1	0.069500
32.883333	1	0.067750
32.900000	1	0.065250
32.916667	1	0.063375
32.933333	1	0.061125
32.950000	1	0.059125
32.966667	1	0.056625
32.983333	1	0.054875
33.000000	1	0.052875
33.016667	1	0.051000
33.033333	1	0.049375
33.050000	1	0.047500
33.066667	1	0.045500
33.083333	1	0.043375
33.100000	1	0.041500
33.116667	1	0.040250
33.133333	1	0.039125
33.150000	1	0.038250
33.166667	1	0.037625
33.183333	1	0.036375
33.200000	1	0.035375
33.216667	1	0.035250
33.233333	1	0.033625
33.250000	1	0.033250
33.266667	1	0.033125
33.283333	1	0.032875
33.300000	1	0.032875
33.316667	1	0.032625
33.333333	1	0.033750
33.350000	1	0.034375
33.366667	1	0.035750
33.383333	1	0.037250
33.400000	1	0.038500
33.416667	1	0.039750
33.433333	1	0.041250
33.450000	1	0.043125
33.466667	1	0.044375
33.483333	1	0.046500
33.500000	1	0.048750
33.516667	1	0.051625
33.533333	1	0.053875
33.550000	1	0.056500
33.566667	1	0.059125
33.583333	1	0.062250
33.600000	1	0.065500
33.616667	1	0.067125
33.633333	1	0.069875
33.650000	1	0.072875
33.666667	1	0.076125
33.683333	1	0.078750
33.700000	1	0.082375
33.716667	1	0.086125
33.733333	1	0.088875
33.750000	1	0.091875
33.766667	1	0.095250
33.783333	1	0.097750
33.800000	1	0.100875
33.816667	1	0.103000
33.833333	1	0.105750
33.850000	1	0.107625
33.866667	1	0.109750
33.883333	1	0.111250
33.900000	1	0.112375
33.916667	1	0.112875
33.933333	1	0.114250
33.950000	1	0.114875
33.966667	1	0.115625
33.983333	1	0.116000
34.000000	1	0.115875
34.016667	1	0.116000
34.033333	1	0.115625
34.050000	1	0.115125
34.066667	1	0.114375
34.083333	1	0.113625
34.100000	1	0.113125
34.116667	1	0.112875
34.133333	1	0.112500
34.150000	1	0.111500
34.166667	1	0.110375
34.183333	1	0.109375
34.200000	1	0.108875
34.216667	1	0.107750
34.233333	1	0.107000
34.250000	1	0.106625
34.266667	1	0.105750
34.283333	1	0.105500
34.300000	1	0.104750
34.316667	1	0.104750
34.333333	1	0.104875
34.350000	1	0.105125
34.366667	1	0.105500
34.383333	1	0.105500
34.400000	1	0.105375
34.416667	1	0.105875
34.433333	1	0.106625
34.450000	1	0.107750
34.466667	1	0.108250
34.483333	1	0.109375
34.500000	1	0.110000
34.516667	1	0.110875
34.533333	1	0.111875
34.550000	1	0.113625
34.566667	1	0.115125
34.583333	1	0.116750
34.600000	1	0.118500
34.616667	1	0.119875
34.633333	1	0.121375
34.650000	1	0.122875
34.666667	1	0.124250
34.683333	1	0.125000
34.700000	1	0.126625
34.716667	1	0.127625
34.733333	1	0.128875
34.750000	1	0.130250
34.766667	1	0.131500
34.783333	1	0.132750
34.800000	1	0.133250
34.816667	1	0.134125
34.833333	1	0.135000
34.850000	1	0.136000
34.866667	1	0.137125
34.883333	1	0.137750
34.900000	1	0.138000
34.916667	1	0.138375
34.933333	1	0.138375
34.950000	1	0.138375
34.966667	1	0.138375
34.983333	1	0.138375
35.000000	1	0.138000
35.016667	1	0.137375
35.033333	1	0.136500
35.050000	1	0.135000
35.066667	1	0.133625
35.083333	1	0.133125
35.100000	1	0.131500
35.116667	1	0.130375
35.133333	1	0.129125
35.150000	1	0.127625
35.166667	1	0.126250
35.183333	1	0.124625
35.200000	1	0.122875
35.216667	1	0.121875
35.233333	1	0.120625
35.250000	1	0.118875
35.266667	1	0.117000
35.283333	1	0.115875
35.300000	1	0.115000
35.316667	1	0.113250
35.333333	1	0.112375
35.350000	1	0.111250
35.366667	1	0.110500
35.383333	1	0.109625
35.400000	1	0.108875
35.416667	1	0.108000
35.433333	1	0.107625
35.450000	1	0.105750
35.466667	1	0.105625
35.483333	1	0.105125
35.500000	1	0.104750
35.516667	1	0.104500
35.533333	1	0.104375
35.550000	1	0.104250
35.566667	1	0.104250
35.583333	1	0.104625
35.600000	1	0.104875
35.616667	1	0.105750
35.633333	1	0.105875
35.650000	1	0.105875
35.666667	1	0.106000
35.683333	1	0.105750
35.700000	1	0.106000
35.716667	1	0.107250
35.733333	1	0.107500
35.750000	1	0.107875
35.766667	1	0.108500
35.783333	1	0.109375
35.800000	1	0.109875
35.816667	1	0.109875
35.833333	1	0.110250
35.850000	1	0.110125
35.866667	1	0.109875
35.883333	1	0.110000
35.900000	1	0.109000
35.916667	1	0.108875
35.933333	1	0.109250
35.950000	1	0.109000
35.966667	1	0.109125
35.983333	1	0.109000
36.000000	1	0.109500
36.016667	1	0.109250
36.033333	1	0.109000
36.050000	1	0.108625
36.066667	1	0.108250
36.083333	1	0.108375
36.100000	1	0.108875
36.116667	1	0.109375
36.133333	1	0.109750
36.150000	1	0.110250
36.166667	1	0.111250
36.183333	1	0.111750
36.200000	1	0.111625
36.216667	1	0.111750
36.233333	1	0.111875
36.250000	1	0.113000
36.266667	1	0.113875
36.283333	1	0.115125
36.300000	1	0.116375
36.316667	1	0.116625
36.333333	1	0.117500
36.350000	1	0.119000
36.366667	1	0.119625
36.383333	1	0.120625
36.400000	1	0.120875
36.416667	1	0.121250
36.433333	1	0.121750
36.450000	1	0.122125
36.466667	1	0.122625
36.483333	1	0.122000
36.500000	1	0.122000
36.516667	1	0.121875
36.533333	1	0.121625
36.550000	1	0.121625
36.566667	1	0.121000
36.583333	1	0.120125
36.600000	1	0.119500
36.616667	1	0.118250
36.633333	1	0.117125
36.650000	1	0.116375
36.666667	1	0.115125
36.683333	1	0.113625
36.700000	1	0.112625
36.716667	1	0.111000
36.733333	1	0.108875
36.750000	1	0.107000
36.766667	1	0.105125
36.783333	1	0.103125
36.800000	1	0.101000
36.816667	1	0.099250
36.833333	1	0.096625
36.850000	1	0.094875
36.866667	1	0.092625
36.883333	1	0.090500
36.900000	1	0.088875
36.916667	1	0.086500
36.933333	1	0.084375
36.950000	1	0.082250
36.966667	1	0.080625
36.983333	1	0.078750
37.000000	1	0.076875
37.016667	1	0.076000
37.033333	1	0.074625
37.050000	1	0.072750
37.066667	1	0.071750
37.083333	1	0.071250
37.100000	1	0.069250
37.116667	1	0.068375
37.133333	1	0.067500
37.150000	1	0.066750
37.166667	1	0.065500
37.183333	1	0.065000
37.200000	1	0.064250
37.216667	1	0.064375
37.233333	1	0.064125
37.250000	1	0.063625
37.266667	1	0.063625
37.283333	1	0.063625
37.300000	1	0.064000
37.316667	1	0.064750
37.333333	1	0.064875
37.350000	1	0.065375
37.366667	1	0.065375
37.383333	1	0.065875
37.400000	1	0.066625
37.416667	1	0.066125
37.433333	1	0.065875
37.450000	1	0.066500
37.466667	1	0.067000
37.483333	1	0.067750
37.500000	1	0.068875
37.516667	1	0.069000
37.533333	1	0.069875
37.550000	1	0.070500
37.566667	1	0.071125
37.583333	1	0.071250
37.600000	1	0.071125
37.616667	1	0.071375
37.633333	1	0.072125
37.650000	1	0.072125
37.666667	1	0.072625
37.683333	1	0.073375
37.700000	1	0.074125
37.716667	1	0.074125
37.733333	1	0.074250
37.750000	1	0.074875
37.766667	1	0.075625
37.783333	1	0.076500
37.800000	1	0.076500
37.816667	1	0.076750
37.833333	1	0.077000
37.850000	1	0.077500
37.866667	1	0.077625
37.883333	1	0.078375
37.900000	1	0.078500
37.916667	1	0.078875
37.933333	1	0.079625
37.950000	1	0.080750
37.966667	1	0.080750
37.983333	1	0.081250
38.000000	1	0.081875
38.016667	1	0.082250
38.033333	1	0.082750
38.050000	1	0.083875
38.066667	1	0.085000
38.083333	1	0.085500
38.100000	1	0.086000
38.116667	1	0.086125
38.133333	1	0.086125
38.150000	1	0.086125
38.166667	1	0.087250
38.183333	1	0.087875
38.200000	1	0.088500
38.216667	1	0.088625
38.233333	1	0.088375
38.250000	1	0.088875
38.266667	1	0.089125
38.283333	1	0.089125
38.300000	1	0.089250
38.316667	1	0.088750
38.333333	1	0.087500
38.350000	1	0.087500
38.366667	1	0.087000
38.383333	1	0.086625
38.400000	1	0.085750
38.416667	1	0.084750
38.433333	1	0.083750
38.450000	1	0.082625
38.466667	1	0.082125
38.483333	1	0.081125
38.500000	1	0.081125
38.516667	1	0.079500
38.533333	1	0.079000
38.550000	1	0.078000
38.566667	1	0.076750
38.583333	1	0.075625
38.600000	1	0.074625
38.616667	1	0.073750
38.633333	1	0.072875
38.650000	1	0.072250
38.666667	1	0.071250
38.683333	1	0.070125
38.700000	1	0.069500
38.716667	1	0.068875
38.733333	1	0.068125
38.750000	1	0.067500
38.766667	1	0.067000
38.783333	1	0.066125
38.800000	1	0.065500
38.816667	1	0.064625
38.833333	1	0.063500
38.850000	1	0.063375
38.866667	1	0.062875
38.883333	1	0.062750
38.900000	1	0.062000
38.916667	1	0.061500
38.933333	1	0.061375
38.950000	1	0.060625
38.966667	1	0.059750
38.983333	1	0.059625
39.000000	1	0.059125
39.016667	1	0.059500
39.033333	1	0.059000
39.050000	1	0.059000
39.066667	1	0.058750
39.083333	1	0.057875
39.100000	1	0.057625
39.116667	1	0.057875
39.133333	1	0.057000
39.150000	1	0.055875
39.166667	1	0.054750
39.183333	1	0.054250
39.200000	1	0.053875
39.216667	1	0.053500
39.233333	1	0.052625
39.250000	1	0.052125
39.266667	1	0.051000
39.283333	1	0.050375
39.300000	1	0.049750
39.316667	1	0.049125
39.333333	1	0.048000
39.350000	1	0.047250
39.366667	1	0.046000
39.383333	1	0.044750
39.400000	1	0.043125
39.416667	1	0.042375
39.433333	1	0.041000
39.450000	1	0.039875
39.466667	1	0.039375
39.483333	1	0.037500
39.500000	1	0.036375
39.516667	1	0.035250
39.533333	1	0.034000
39.550000	1	0.033125
39.566667	1	0.032000
39.583333	1	0.031250
39.600000	1	0.029750
39.616667	1	0.027625
39.633333	1	0.027375
39.650000	1	0.026625
39.666667	1	0.025875
39.683333	1	0.024875
39.700000	1	0.024000
39.716667	1	0.023000
39.733333	1	0.022125
39.750000	1	0.020375
39.766667	1	0.020500
39.783333	1	0.020125
39.800000	1	0.020250
39.816667	1	0.020000
39.833333	1	0.019750
39.850000	1	0.019750
39.866667	1	0.020000
39.883333	1	0.019875
39.900000	1	0.019750
39.916667	1	0.019375
39.933333	1	0.019625
39.950000	1	0.020125
39.966667	1	0.020125
39.983333	1	0.020375
40.000000	1	0.020500
