URL	chrom://bioreactor/micro_cm7/HPLC_Ultimate_3000/Users/markusar/20240708_MA_pHrange1.seq/740.smp/RI_1.channel/RI_1.chm
Channel	RI_1

Injection Information:
Data Vault	micro_cm7
Sequence	20240708_MA_pHrange1
Name	Pv1_5.7_4
Number	20
Position	BB8
Comment	
Processing Method	
Instrument Method	run_25B_method
Type	Unknown
Status	Finished
Inject Time	09.07.2024 04:32:57 +02:00
Volume (µl)	20.0000
Dilution Factor	1.0000
Weight	1.0000

Chromatogram Data Information:
Time Min. (min)	0.000000
Time Max. (min)	40.000000
Data Points	2401
Detector	RI
Generating Data System	Chromeleon 7.3.2.11814
Exporting Data System	Chromeleon 7.3.2.0
Operator	Instrument Controller
Signal Quantity	Refractive 
Signal Unit	µRIU
Signal Min.	-0.067250
Signal Max.	82.989625
Channel	RI_1
Driver Name	RID520Driver.dll
Channel Type	Evaluation
Min. Step (s)	1
Max. Step (s)	1
Average Step (s)	1

Signal Parameter Information:
Signal Info	

Chromatogram Data:
Time (min)	Step (s)	Value (µRIU)
0.000000	n.a.	-0.017625
0.016667	1	-0.016875
0.033333	1	-0.016375
0.050000	1	-0.016625
0.066667	1	-0.015375
0.083333	1	-0.014125
0.100000	1	-0.013125
0.116667	1	-0.011875
0.133333	1	-0.011250
0.150000	1	-0.010375
0.166667	1	-0.009375
0.183333	1	-0.008625
0.200000	1	-0.008000
0.216667	1	-0.006625
0.233333	1	-0.005625
0.250000	1	-0.004875
0.266667	1	-0.004125
0.283333	1	-0.003125
0.300000	1	-0.001875
0.316667	1	-0.000875
0.333333	1	0.000125
0.350000	1	0.000000
0.366667	1	0.000250
0.383333	1	0.000500
0.400000	1	0.000125
0.416667	1	0.001125
0.433333	1	0.003500
0.450000	1	0.005750
0.466667	1	0.007750
0.483333	1	0.009375
0.500000	1	0.011125
0.516667	1	0.012375
0.533333	1	0.012750
0.550000	1	0.012750
0.566667	1	0.012375
0.583333	1	0.010250
0.600000	1	0.008000
0.616667	1	0.007250
0.633333	1	0.006375
0.650000	1	0.005250
0.666667	1	0.005125
0.683333	1	0.004750
0.700000	1	0.004375
0.716667	1	0.003750
0.733333	1	0.003375
0.750000	1	0.002625
0.766667	1	0.001875
0.783333	1	0.002000
0.800000	1	0.001750
0.816667	1	0.000375
0.833333	1	-0.000875
0.850000	1	-0.002250
0.866667	1	-0.002625
0.883333	1	-0.003625
0.900000	1	-0.004000
0.916667	1	-0.005250
0.933333	1	-0.005750
0.950000	1	-0.006500
0.966667	1	-0.007375
0.983333	1	-0.009000
1.000000	1	-0.009875
1.016667	1	-0.010625
1.033333	1	-0.011250
1.050000	1	-0.012875
1.066667	1	-0.014000
1.083333	1	-0.014750
1.100000	1	-0.016125
1.116667	1	-0.017500
1.133333	1	-0.018375
1.150000	1	-0.019750
1.166667	1	-0.020625
1.183333	1	-0.021125
1.200000	1	-0.022000
1.216667	1	-0.023375
1.233333	1	-0.024375
1.250000	1	-0.025500
1.266667	1	-0.027125
1.283333	1	-0.028375
1.300000	1	-0.028875
1.316667	1	-0.030000
1.333333	1	-0.031375
1.350000	1	-0.032500
1.366667	1	-0.033375
1.383333	1	-0.035125
1.400000	1	-0.036750
1.416667	1	-0.037750
1.433333	1	-0.039250
1.450000	1	-0.040500
1.466667	1	-0.041750
1.483333	1	-0.043000
1.500000	1	-0.044125
1.516667	1	-0.045375
1.533333	1	-0.046625
1.550000	1	-0.047500
1.566667	1	-0.049000
1.583333	1	-0.049625
1.600000	1	-0.050875
1.616667	1	-0.051750
1.633333	1	-0.052750
1.650000	1	-0.053750
1.666667	1	-0.054500
1.683333	1	-0.055000
1.700000	1	-0.055375
1.716667	1	-0.056000
1.733333	1	-0.056750
1.750000	1	-0.057625
1.766667	1	-0.058250
1.783333	1	-0.058500
1.800000	1	-0.058875
1.816667	1	-0.059125
1.833333	1	-0.058500
1.850000	1	-0.058875
1.866667	1	-0.058125
1.883333	1	-0.057750
1.900000	1	-0.058125
1.916667	1	-0.058500
1.933333	1	-0.059125
1.950000	1	-0.058625
1.966667	1	-0.058875
1.983333	1	-0.058375
2.000000	1	-0.058125
2.016667	1	-0.058000
2.033333	1	-0.057750
2.050000	1	-0.057375
2.066667	1	-0.056750
2.083333	1	-0.055875
2.100000	1	-0.055625
2.116667	1	-0.055375
2.133333	1	-0.054375
2.150000	1	-0.053000
2.166667	1	-0.052000
2.183333	1	-0.051625
2.200000	1	-0.051250
2.216667	1	-0.050125
2.233333	1	-0.048000
2.250000	1	-0.046625
2.266667	1	-0.045500
2.283333	1	-0.043875
2.300000	1	-0.042500
2.316667	1	-0.041000
2.333333	1	-0.039875
2.350000	1	-0.039625
2.366667	1	-0.038625
2.383333	1	-0.037000
2.400000	1	-0.034875
2.416667	1	-0.033375
2.433333	1	-0.032125
2.450000	1	-0.031000
2.466667	1	-0.030125
2.483333	1	-0.029000
2.500000	1	-0.028125
2.516667	1	-0.028000
2.533333	1	-0.026750
2.550000	1	-0.026250
2.566667	1	-0.025375
2.583333	1	-0.024750
2.600000	1	-0.024250
2.616667	1	-0.023750
2.633333	1	-0.022875
2.650000	1	-0.021875
2.666667	1	-0.021750
2.683333	1	-0.021250
2.700000	1	-0.021500
2.716667	1	-0.021625
2.733333	1	-0.021625
2.750000	1	-0.021250
2.766667	1	-0.021125
2.783333	1	-0.021375
2.800000	1	-0.021375
2.816667	1	-0.021000
2.833333	1	-0.021750
2.850000	1	-0.021875
2.866667	1	-0.022000
2.883333	1	-0.022125
2.900000	1	-0.022500
2.916667	1	-0.022750
2.933333	1	-0.022750
2.950000	1	-0.022750
2.966667	1	-0.023000
2.983333	1	-0.023375
3.000000	1	-0.023375
3.016667	1	-0.024375
3.033333	1	-0.024875
3.050000	1	-0.025750
3.066667	1	-0.026625
3.083333	1	-0.027250
3.100000	1	-0.027625
3.116667	1	-0.028125
3.133333	1	-0.029125
3.150000	1	-0.030250
3.166667	1	-0.030750
3.183333	1	-0.031625
3.200000	1	-0.031750
3.216667	1	-0.032125
3.233333	1	-0.032750
3.250000	1	-0.033000
3.266667	1	-0.034125
3.283333	1	-0.034750
3.300000	1	-0.035125
3.316667	1	-0.035875
3.333333	1	-0.035750
3.350000	1	-0.036250
3.366667	1	-0.037250
3.383333	1	-0.037375
3.400000	1	-0.036875
3.416667	1	-0.036250
3.433333	1	-0.036375
3.450000	1	-0.036375
3.466667	1	-0.036250
3.483333	1	-0.035250
3.500000	1	-0.035500
3.516667	1	-0.035500
3.533333	1	-0.034625
3.550000	1	-0.034000
3.566667	1	-0.033500
3.583333	1	-0.032750
3.600000	1	-0.031750
3.616667	1	-0.031250
3.633333	1	-0.029625
3.650000	1	-0.028875
3.666667	1	-0.027375
3.683333	1	-0.025625
3.700000	1	-0.024625
3.716667	1	-0.024000
3.733333	1	-0.022875
3.750000	1	-0.021750
3.766667	1	-0.020125
3.783333	1	-0.018500
3.800000	1	-0.017125
3.816667	1	-0.015375
3.833333	1	-0.013750
3.850000	1	-0.012250
3.866667	1	-0.010625
3.883333	1	-0.009500
3.900000	1	-0.007500
3.916667	1	-0.007000
3.933333	1	-0.005875
3.950000	1	-0.004750
3.966667	1	-0.003000
3.983333	1	-0.001375
4.000000	1	0.000375
4.016667	1	0.001375
4.033333	1	0.002750
4.050000	1	0.004500
4.066667	1	0.005875
4.083333	1	0.007250
4.100000	1	0.008375
4.116667	1	0.010000
4.133333	1	0.011250
4.150000	1	0.012625
4.166667	1	0.013500
4.183333	1	0.015375
4.200000	1	0.016625
4.216667	1	0.017750
4.233333	1	0.019750
4.250000	1	0.020875
4.266667	1	0.022500
4.283333	1	0.023750
4.300000	1	0.024500
4.316667	1	0.025500
4.333333	1	0.026750
4.350000	1	0.027625
4.366667	1	0.029125
4.383333	1	0.030000
4.400000	1	0.031125
4.416667	1	0.032875
4.433333	1	0.033750
4.450000	1	0.035000
4.466667	1	0.035250
4.483333	1	0.036750
4.500000	1	0.037750
4.516667	1	0.039000
4.533333	1	0.039500
4.550000	1	0.040875
4.566667	1	0.041750
4.583333	1	0.043875
4.600000	1	0.045625
4.616667	1	0.047250
4.633333	1	0.048000
4.650000	1	0.047875
4.666667	1	0.048750
4.683333	1	0.050125
4.700000	1	0.051625
4.716667	1	0.052750
4.733333	1	0.054625
4.750000	1	0.056750
4.766667	1	0.058625
4.783333	1	0.060125
4.800000	1	0.061500
4.816667	1	0.063875
4.833333	1	0.066750
4.850000	1	0.069125
4.866667	1	0.071375
4.883333	1	0.073500
4.900000	1	0.076375
4.916667	1	0.079000
4.933333	1	0.081125
4.950000	1	0.083875
4.966667	1	0.087250
4.983333	1	0.091500
5.000000	1	0.095375
5.016667	1	0.098250
5.033333	1	0.102125
5.050000	1	0.106125
5.066667	1	0.109625
5.083333	1	0.113125
5.100000	1	0.117125
5.116667	1	0.121625
5.133333	1	0.125250
5.150000	1	0.129250
5.166667	1	0.134000
5.183333	1	0.138500
5.200000	1	0.142750
5.216667	1	0.147375
5.233333	1	0.152000
5.250000	1	0.155750
5.266667	1	0.159750
5.283333	1	0.163500
5.300000	1	0.167125
5.316667	1	0.170500
5.333333	1	0.174500
5.350000	1	0.177500
5.366667	1	0.181000
5.383333	1	0.184375
5.400000	1	0.187125
5.416667	1	0.189625
5.433333	1	0.192625
5.450000	1	0.195375
5.466667	1	0.197750
5.483333	1	0.199250
5.500000	1	0.201000
5.516667	1	0.203250
5.533333	1	0.204750
5.550000	1	0.206375
5.566667	1	0.207500
5.583333	1	0.208625
5.600000	1	0.209625
5.616667	1	0.210750
5.633333	1	0.210875
5.650000	1	0.211500
5.666667	1	0.211625
5.683333	1	0.211500
5.700000	1	0.211000
5.716667	1	0.210375
5.733333	1	0.210000
5.750000	1	0.209000
5.766667	1	0.208750
5.783333	1	0.207125
5.800000	1	0.205500
5.816667	1	0.203750
5.833333	1	0.202000
5.850000	1	0.199875
5.866667	1	0.198125
5.883333	1	0.195625
5.900000	1	0.193875
5.916667	1	0.190625
5.933333	1	0.187625
5.950000	1	0.185125
5.966667	1	0.182875
5.983333	1	0.179750
6.000000	1	0.177375
6.016667	1	0.174625
6.033333	1	0.171875
6.050000	1	0.168875
6.066667	1	0.166500
6.083333	1	0.162875
6.100000	1	0.159500
6.116667	1	0.155875
6.133333	1	0.153125
6.150000	1	0.149500
6.166667	1	0.146875
6.183333	1	0.143500
6.200000	1	0.139250
6.216667	1	0.135625
6.233333	1	0.132625
6.250000	1	0.129625
6.266667	1	0.125875
6.283333	1	0.122625
6.300000	1	0.119000
6.316667	1	0.115875
6.333333	1	0.112250
6.350000	1	0.108000
6.366667	1	0.104375
6.383333	1	0.100875
6.400000	1	0.097125
6.416667	1	0.092625
6.433333	1	0.088625
6.450000	1	0.085000
6.466667	1	0.081125
6.483333	1	0.078625
6.500000	1	0.074500
6.516667	1	0.071375
6.533333	1	0.067750
6.550000	1	0.064875
6.566667	1	0.061750
6.583333	1	0.058625
6.600000	1	0.055625
6.616667	1	0.052250
6.633333	1	0.050000
6.650000	1	0.047375
6.666667	1	0.044625
6.683333	1	0.041500
6.700000	1	0.038625
6.716667	1	0.036250
6.733333	1	0.034375
6.750000	1	0.032250
6.766667	1	0.029875
6.783333	1	0.027625
6.800000	1	0.025625
6.816667	1	0.023875
6.833333	1	0.022375
6.850000	1	0.021125
6.866667	1	0.019625
6.883333	1	0.018750
6.900000	1	0.018500
6.916667	1	0.018125
6.933333	1	0.017625
6.950000	1	0.018000
6.966667	1	0.017750
6.983333	1	0.018000
7.000000	1	0.018750
7.016667	1	0.019250
7.033333	1	0.019625
7.050000	1	0.021000
7.066667	1	0.022000
7.083333	1	0.023750
7.100000	1	0.025375
7.116667	1	0.027375
7.133333	1	0.029500
7.150000	1	0.031875
7.166667	1	0.034125
7.183333	1	0.036875
7.200000	1	0.039875
7.216667	1	0.042625
7.233333	1	0.045250
7.250000	1	0.048375
7.266667	1	0.051000
7.283333	1	0.054250
7.300000	1	0.056750
7.316667	1	0.059125
7.333333	1	0.062125
7.350000	1	0.064875
7.366667	1	0.068250
7.383333	1	0.070750
7.400000	1	0.074125
7.416667	1	0.076875
7.433333	1	0.079375
7.450000	1	0.081125
7.466667	1	0.082500
7.483333	1	0.084625
7.500000	1	0.086375
7.516667	1	0.087625
7.533333	1	0.089500
7.550000	1	0.090625
7.566667	1	0.092000
7.583333	1	0.092625
7.600000	1	0.093000
7.616667	1	0.093000
7.633333	1	0.092500
7.650000	1	0.092500
7.666667	1	0.091000
7.683333	1	0.090375
7.700000	1	0.089000
7.716667	1	0.087500
7.733333	1	0.085875
7.750000	1	0.084250
7.766667	1	0.081750
7.783333	1	0.079625
7.800000	1	0.077375
7.816667	1	0.074375
7.833333	1	0.071625
7.850000	1	0.068500
7.866667	1	0.065500
7.883333	1	0.062250
7.900000	1	0.058750
7.916667	1	0.054750
7.933333	1	0.051750
7.950000	1	0.048500
7.966667	1	0.044500
7.983333	1	0.040625
8.000000	1	0.037125
8.016667	1	0.033375
8.033333	1	0.029750
8.050000	1	0.025375
8.066667	1	0.021625
8.083333	1	0.018625
8.100000	1	0.015125
8.116667	1	0.012375
8.133333	1	0.009500
8.150000	1	0.006625
8.166667	1	0.004500
8.183333	1	0.002000
8.200000	1	-0.000250
8.216667	1	-0.002875
8.233333	1	-0.004875
8.250000	1	-0.006750
8.266667	1	-0.008500
8.283333	1	-0.011000
8.300000	1	-0.012375
8.316667	1	-0.014125
8.333333	1	-0.015750
8.350000	1	-0.017250
8.366667	1	-0.018500
8.383333	1	-0.020375
8.400000	1	-0.021375
8.416667	1	-0.022375
8.433333	1	-0.023000
8.450000	1	-0.023625
8.466667	1	-0.024750
8.483333	1	-0.025500
8.500000	1	-0.026125
8.516667	1	-0.026500
8.533333	1	-0.027375
8.550000	1	-0.027750
8.566667	1	-0.027625
8.583333	1	-0.028500
8.600000	1	-0.028000
8.616667	1	-0.027875
8.633333	1	-0.027500
8.650000	1	-0.027375
8.666667	1	-0.026875
8.683333	1	-0.026375
8.700000	1	-0.025125
8.716667	1	-0.024625
8.733333	1	-0.023875
8.750000	1	-0.023125
8.766667	1	-0.022125
8.783333	1	-0.021750
8.800000	1	-0.021250
8.816667	1	-0.020500
8.833333	1	-0.020500
8.850000	1	-0.019375
8.866667	1	-0.018000
8.883333	1	-0.017125
8.900000	1	-0.016375
8.916667	1	-0.015125
8.933333	1	-0.013875
8.950000	1	-0.012750
8.966667	1	-0.012250
8.983333	1	-0.011500
9.000000	1	-0.010500
9.016667	1	-0.009875
9.033333	1	-0.009250
9.050000	1	-0.009125
9.066667	1	-0.008875
9.083333	1	-0.008500
9.100000	1	-0.008500
9.116667	1	-0.007875
9.133333	1	-0.008000
9.150000	1	-0.008375
9.166667	1	-0.007875
9.183333	1	-0.008250
9.200000	1	-0.008125
9.216667	1	-0.008000
9.233333	1	-0.007500
9.250000	1	-0.008375
9.266667	1	-0.008875
9.283333	1	-0.008625
9.300000	1	-0.008875
9.316667	1	-0.009375
9.333333	1	-0.010125
9.350000	1	-0.010125
9.366667	1	-0.009875
9.383333	1	-0.010500
9.400000	1	-0.010625
9.416667	1	-0.011000
9.433333	1	-0.011750
9.450000	1	-0.012375
9.466667	1	-0.013375
9.483333	1	-0.013625
9.500000	1	-0.014250
9.516667	1	-0.015000
9.533333	1	-0.015625
9.550000	1	-0.016500
9.566667	1	-0.017750
9.583333	1	-0.018875
9.600000	1	-0.020375
9.616667	1	-0.021500
9.633333	1	-0.022375
9.650000	1	-0.023875
9.666667	1	-0.024875
9.683333	1	-0.026375
9.700000	1	-0.027250
9.716667	1	-0.028875
9.733333	1	-0.030625
9.750000	1	-0.031500
9.766667	1	-0.032625
9.783333	1	-0.033625
9.800000	1	-0.035500
9.816667	1	-0.037250
9.833333	1	-0.039250
9.850000	1	-0.040500
9.866667	1	-0.041625
9.883333	1	-0.043250
9.900000	1	-0.044250
9.916667	1	-0.045625
9.933333	1	-0.047125
9.950000	1	-0.048375
9.966667	1	-0.049625
9.983333	1	-0.050750
10.000000	1	-0.052250
10.016667	1	-0.054375
10.033333	1	-0.055375
10.050000	1	-0.056375
10.066667	1	-0.056625
10.083333	1	-0.056500
10.100000	1	-0.056000
10.116667	1	-0.054375
10.133333	1	-0.052000
10.150000	1	-0.048875
10.166667	1	-0.044375
10.183333	1	-0.038500
10.200000	1	-0.031375
10.216667	1	-0.022125
10.233333	1	-0.011000
10.250000	1	0.001375
10.266667	1	0.015000
10.283333	1	0.031750
10.300000	1	0.051625
10.316667	1	0.073250
10.333333	1	0.097750
10.350000	1	0.124375
10.366667	1	0.152375
10.383333	1	0.179000
10.400000	1	0.203125
10.416667	1	0.220375
10.433333	1	0.227500
10.450000	1	0.222250
10.466667	1	0.200875
10.483333	1	0.165000
10.500000	1	0.124500
10.516667	1	0.096875
10.533333	1	0.114375
10.550000	1	0.227500
10.566667	1	0.499250
10.583333	1	1.002875
10.600000	1	1.813375
10.616667	1	2.999500
10.633333	1	4.618375
10.650000	1	6.706500
10.666667	1	9.287000
10.683333	1	12.363750
10.700000	1	15.923125
10.716667	1	19.928250
10.733333	1	24.313000
10.750000	1	28.977250
10.766667	1	33.767875
10.783333	1	38.463750
10.800000	1	42.769625
10.816667	1	46.309375
10.833333	1	48.673875
10.850000	1	49.507125
10.866667	1	48.611375
10.883333	1	46.034375
10.900000	1	42.074500
10.916667	1	37.212625
10.933333	1	31.977750
10.950000	1	26.822125
10.966667	1	22.064625
10.983333	1	17.882875
11.000000	1	14.339500
11.016667	1	11.423000
11.033333	1	9.078250
11.050000	1	7.228125
11.066667	1	5.788125
11.083333	1	4.679500
11.100000	1	3.830750
11.116667	1	3.183500
11.133333	1	2.689500
11.150000	1	2.311750
11.166667	1	2.020625
11.183333	1	1.795000
11.200000	1	1.617500
11.216667	1	1.477875
11.233333	1	1.366125
11.250000	1	1.274375
11.266667	1	1.198500
11.283333	1	1.135250
11.300000	1	1.081875
11.316667	1	1.036625
11.333333	1	0.998500
11.350000	1	0.964625
11.366667	1	0.935625
11.383333	1	0.911250
11.400000	1	0.889250
11.416667	1	0.870000
11.433333	1	0.853250
11.450000	1	0.839125
11.466667	1	0.826500
11.483333	1	0.816250
11.500000	1	0.807375
11.516667	1	0.799000
11.533333	1	0.792375
11.550000	1	0.787375
11.566667	1	0.783125
11.583333	1	0.779625
11.600000	1	0.778125
11.616667	1	0.777250
11.633333	1	0.777625
11.650000	1	0.779250
11.666667	1	0.782375
11.683333	1	0.786500
11.700000	1	0.791250
11.716667	1	0.797375
11.733333	1	0.804375
11.750000	1	0.812250
11.766667	1	0.821000
11.783333	1	0.830750
11.800000	1	0.841125
11.816667	1	0.850500
11.833333	1	0.860000
11.850000	1	0.869125
11.866667	1	0.877500
11.883333	1	0.885500
11.900000	1	0.893000
11.916667	1	0.898875
11.933333	1	0.904000
11.950000	1	0.908375
11.966667	1	0.912375
11.983333	1	0.915625
12.000000	1	0.919375
12.016667	1	0.922875
12.033333	1	0.926375
12.050000	1	0.930625
12.066667	1	0.935250
12.083333	1	0.939875
12.100000	1	0.945625
12.116667	1	0.951250
12.133333	1	0.956875
12.150000	1	0.964125
12.166667	1	0.972000
12.183333	1	0.980500
12.200000	1	0.990875
12.216667	1	1.003000
12.233333	1	1.016500
12.250000	1	1.033500
12.266667	1	1.055000
12.283333	1	1.082375
12.300000	1	1.117250
12.316667	1	1.160625
12.333333	1	1.216625
12.350000	1	1.287875
12.366667	1	1.377750
12.383333	1	1.490250
12.400000	1	1.631375
12.416667	1	1.804375
12.433333	1	2.013625
12.450000	1	2.265625
12.466667	1	2.564750
12.483333	1	2.913875
12.500000	1	3.318125
12.516667	1	3.778750
12.533333	1	4.297875
12.550000	1	4.873500
12.566667	1	5.501500
12.583333	1	6.176000
12.600000	1	6.884125
12.616667	1	7.614625
12.633333	1	8.353000
12.650000	1	9.085625
12.666667	1	9.798625
12.683333	1	10.481625
12.700000	1	11.125125
12.716667	1	11.728375
12.733333	1	12.292125
12.750000	1	12.821125
12.766667	1	13.324125
12.783333	1	13.810500
12.800000	1	14.292500
12.816667	1	14.779875
12.833333	1	15.281875
12.850000	1	15.806750
12.866667	1	16.358750
12.883333	1	16.941500
12.900000	1	17.556875
12.916667	1	18.205125
12.933333	1	18.885125
12.950000	1	19.596250
12.966667	1	20.336375
12.983333	1	21.102875
13.000000	1	21.895500
13.016667	1	22.711375
13.033333	1	23.549500
13.050000	1	24.409625
13.066667	1	25.291750
13.083333	1	26.194500
13.100000	1	27.118125
13.116667	1	28.061750
13.133333	1	29.025125
13.150000	1	30.007125
13.166667	1	31.007750
13.183333	1	32.028125
13.200000	1	33.066375
13.216667	1	34.123125
13.233333	1	35.199750
13.250000	1	36.296375
13.266667	1	37.414250
13.283333	1	38.553375
13.300000	1	39.714375
13.316667	1	40.898250
13.333333	1	42.105375
13.350000	1	43.334750
13.366667	1	44.587875
13.383333	1	45.864875
13.400000	1	47.165875
13.416667	1	48.490625
13.433333	1	49.842125
13.450000	1	51.220000
13.466667	1	52.627125
13.483333	1	54.064250
13.500000	1	55.531625
13.516667	1	57.028125
13.533333	1	58.555375
13.550000	1	60.113000
13.566667	1	61.701875
13.583333	1	63.323500
13.600000	1	64.975625
13.616667	1	66.659875
13.633333	1	68.379000
13.650000	1	70.135000
13.666667	1	71.929500
13.683333	1	73.762625
13.700000	1	75.632125
13.716667	1	77.525625
13.733333	1	79.390625
13.750000	1	81.095250
13.766667	1	82.402875
13.783333	1	82.989625
13.800000	1	82.505125
13.816667	1	80.619500
13.833333	1	77.053625
13.850000	1	71.669000
13.866667	1	64.595250
13.883333	1	56.314500
13.900000	1	47.573500
13.916667	1	39.153750
13.933333	1	31.630875
13.950000	1	25.277750
13.966667	1	20.120125
13.983333	1	16.040500
14.000000	1	12.868500
14.016667	1	10.431250
14.033333	1	8.581125
14.050000	1	7.192000
14.066667	1	6.160375
14.083333	1	5.398000
14.100000	1	4.835250
14.116667	1	4.416000
14.133333	1	4.099500
14.150000	1	3.857125
14.166667	1	3.666750
14.183333	1	3.513875
14.200000	1	3.389250
14.216667	1	3.284000
14.233333	1	3.193875
14.250000	1	3.115000
14.266667	1	3.045875
14.283333	1	2.983875
14.300000	1	2.928125
14.316667	1	2.878000
14.333333	1	2.832500
14.350000	1	2.792125
14.366667	1	2.757250
14.383333	1	2.729000
14.400000	1	2.707250
14.416667	1	2.693750
14.433333	1	2.691125
14.450000	1	2.701375
14.466667	1	2.729125
14.483333	1	2.782625
14.500000	1	2.871125
14.516667	1	3.007250
14.533333	1	3.211500
14.550000	1	3.508750
14.566667	1	3.933625
14.583333	1	4.528875
14.600000	1	5.346500
14.616667	1	6.451375
14.633333	1	7.914375
14.650000	1	9.814250
14.666667	1	12.224500
14.683333	1	15.206125
14.700000	1	18.800125
14.716667	1	23.011375
14.733333	1	27.807125
14.750000	1	33.103750
14.766667	1	38.766125
14.783333	1	44.600875
14.800000	1	50.382750
14.816667	1	55.860000
14.833333	1	60.770750
14.850000	1	64.862250
14.866667	1	67.916625
14.883333	1	69.776125
14.900000	1	70.353250
14.916667	1	69.642625
14.933333	1	67.719375
14.950000	1	64.726250
14.966667	1	60.860125
14.983333	1	56.351500
15.000000	1	51.432375
15.016667	1	46.321625
15.033333	1	41.213625
15.050000	1	36.272000
15.066667	1	31.621250
15.083333	1	27.348375
15.100000	1	23.501875
15.116667	1	20.100125
15.133333	1	17.134375
15.150000	1	14.581750
15.166667	1	12.406500
15.183333	1	10.571375
15.200000	1	9.033125
15.216667	1	7.750750
15.233333	1	6.686500
15.250000	1	5.807375
15.266667	1	5.085875
15.283333	1	4.495875
15.300000	1	4.016375
15.316667	1	3.629500
15.333333	1	3.319750
15.350000	1	3.075250
15.366667	1	2.884375
15.383333	1	2.737500
15.400000	1	2.627500
15.416667	1	2.546500
15.433333	1	2.488875
15.450000	1	2.448125
15.466667	1	2.420125
15.483333	1	2.399875
15.500000	1	2.382250
15.516667	1	2.365000
15.533333	1	2.345500
15.550000	1	2.322000
15.566667	1	2.295125
15.583333	1	2.263250
15.600000	1	2.228000
15.616667	1	2.190250
15.633333	1	2.150750
15.650000	1	2.111750
15.666667	1	2.073000
15.683333	1	2.035875
15.700000	1	2.000000
15.716667	1	1.967500
15.733333	1	1.936125
15.750000	1	1.905625
15.766667	1	1.876125
15.783333	1	1.847125
15.800000	1	1.819000
15.816667	1	1.790500
15.833333	1	1.760875
15.850000	1	1.731750
15.866667	1	1.703625
15.883333	1	1.676625
15.900000	1	1.651250
15.916667	1	1.628125
15.933333	1	1.608375
15.950000	1	1.591250
15.966667	1	1.578500
15.983333	1	1.568875
16.000000	1	1.562750
16.016667	1	1.559000
16.033333	1	1.556750
16.050000	1	1.555625
16.066667	1	1.554500
16.083333	1	1.553625
16.100000	1	1.551625
16.116667	1	1.547625
16.133333	1	1.541875
16.150000	1	1.533875
16.166667	1	1.524500
16.183333	1	1.513375
16.200000	1	1.500375
16.216667	1	1.485875
16.233333	1	1.469750
16.250000	1	1.453375
16.266667	1	1.435375
16.283333	1	1.416375
16.300000	1	1.397625
16.316667	1	1.379125
16.333333	1	1.360750
16.350000	1	1.343250
16.366667	1	1.326250
16.383333	1	1.311125
16.400000	1	1.297250
16.416667	1	1.285375
16.433333	1	1.275875
16.450000	1	1.268000
16.466667	1	1.262500
16.483333	1	1.259875
16.500000	1	1.259125
16.516667	1	1.260500
16.533333	1	1.263750
16.550000	1	1.268125
16.566667	1	1.273250
16.583333	1	1.277625
16.600000	1	1.281500
16.616667	1	1.284125
16.633333	1	1.285500
16.650000	1	1.285375
16.666667	1	1.283250
16.683333	1	1.280000
16.700000	1	1.275625
16.716667	1	1.270500
16.733333	1	1.265625
16.750000	1	1.261250
16.766667	1	1.257875
16.783333	1	1.254500
16.800000	1	1.253000
16.816667	1	1.252375
16.833333	1	1.252875
16.850000	1	1.255250
16.866667	1	1.257125
16.883333	1	1.258625
16.900000	1	1.260625
16.916667	1	1.261625
16.933333	1	1.261250
16.950000	1	1.259125
16.966667	1	1.256250
16.983333	1	1.252750
17.000000	1	1.247625
17.016667	1	1.241750
17.033333	1	1.235000
17.050000	1	1.228500
17.066667	1	1.221500
17.083333	1	1.214375
17.100000	1	1.208250
17.116667	1	1.202750
17.133333	1	1.198250
17.150000	1	1.195500
17.166667	1	1.193625
17.183333	1	1.191750
17.200000	1	1.191750
17.216667	1	1.192125
17.233333	1	1.193875
17.250000	1	1.196125
17.266667	1	1.198375
17.283333	1	1.201250
17.300000	1	1.205375
17.316667	1	1.209875
17.333333	1	1.212875
17.350000	1	1.218375
17.366667	1	1.223750
17.383333	1	1.228250
17.400000	1	1.233000
17.416667	1	1.237375
17.433333	1	1.240375
17.450000	1	1.242375
17.466667	1	1.243000
17.483333	1	1.242125
17.500000	1	1.240250
17.516667	1	1.236375
17.533333	1	1.230750
17.550000	1	1.223000
17.566667	1	1.214250
17.583333	1	1.203500
17.600000	1	1.191875
17.616667	1	1.178500
17.633333	1	1.163875
17.650000	1	1.149375
17.666667	1	1.133625
17.683333	1	1.117625
17.700000	1	1.101875
17.716667	1	1.086000
17.733333	1	1.069750
17.750000	1	1.054125
17.766667	1	1.038750
17.783333	1	1.024250
17.800000	1	1.010500
17.816667	1	0.996875
17.833333	1	0.984250
17.850000	1	0.971500
17.866667	1	0.960250
17.883333	1	0.949625
17.900000	1	0.938750
17.916667	1	0.928750
17.933333	1	0.919500
17.950000	1	0.911000
17.966667	1	0.902750
17.983333	1	0.894500
18.000000	1	0.886500
18.016667	1	0.878750
18.033333	1	0.869875
18.050000	1	0.861625
18.066667	1	0.853375
18.083333	1	0.845375
18.100000	1	0.837250
18.116667	1	0.829625
18.133333	1	0.822875
18.150000	1	0.816875
18.166667	1	0.812500
18.183333	1	0.807875
18.200000	1	0.804375
18.216667	1	0.801125
18.233333	1	0.799125
18.250000	1	0.797750
18.266667	1	0.797250
18.283333	1	0.797125
18.300000	1	0.797000
18.316667	1	0.797500
18.333333	1	0.798375
18.350000	1	0.799125
18.366667	1	0.800750
18.383333	1	0.803125
18.400000	1	0.806625
18.416667	1	0.810125
18.433333	1	0.814375
18.450000	1	0.820375
18.466667	1	0.827750
18.483333	1	0.835875
18.500000	1	0.846000
18.516667	1	0.858125
18.533333	1	0.872250
18.550000	1	0.888500
18.566667	1	0.906500
18.583333	1	0.926125
18.600000	1	0.947500
18.616667	1	0.971375
18.633333	1	0.997375
18.650000	1	1.024375
18.666667	1	1.053250
18.683333	1	1.083375
18.700000	1	1.115000
18.716667	1	1.148000
18.733333	1	1.181875
18.750000	1	1.217000
18.766667	1	1.251875
18.783333	1	1.288125
18.800000	1	1.322625
18.816667	1	1.357000
18.833333	1	1.389500
18.850000	1	1.419375
18.866667	1	1.445500
18.883333	1	1.467500
18.900000	1	1.485250
18.916667	1	1.497500
18.933333	1	1.504000
18.950000	1	1.503875
18.966667	1	1.496750
18.983333	1	1.483000
19.000000	1	1.462750
19.016667	1	1.436250
19.033333	1	1.404375
19.050000	1	1.368125
19.066667	1	1.328750
19.083333	1	1.288250
19.100000	1	1.247375
19.116667	1	1.207500
19.133333	1	1.172000
19.150000	1	1.141875
19.166667	1	1.118875
19.183333	1	1.106125
19.200000	1	1.104750
19.216667	1	1.117125
19.233333	1	1.146000
19.250000	1	1.193375
19.266667	1	1.263000
19.283333	1	1.356000
19.300000	1	1.474000
19.316667	1	1.618125
19.333333	1	1.787875
19.350000	1	1.984125
19.366667	1	2.204000
19.383333	1	2.446000
19.400000	1	2.704250
19.416667	1	2.973875
19.433333	1	3.248500
19.450000	1	3.517625
19.466667	1	3.775000
19.483333	1	4.011250
19.500000	1	4.218750
19.516667	1	4.390625
19.533333	1	4.521375
19.550000	1	4.604875
19.566667	1	4.639875
19.583333	1	4.625125
19.600000	1	4.563250
19.616667	1	4.456875
19.633333	1	4.311250
19.650000	1	4.132250
19.666667	1	3.926875
19.683333	1	3.701875
19.700000	1	3.464875
19.716667	1	3.222250
19.733333	1	2.979500
19.750000	1	2.741875
19.766667	1	2.513250
19.783333	1	2.296875
19.800000	1	2.094125
19.816667	1	1.906250
19.833333	1	1.734625
19.850000	1	1.578750
19.866667	1	1.438750
19.883333	1	1.313500
19.900000	1	1.202125
19.916667	1	1.104500
19.933333	1	1.018500
19.950000	1	0.943625
19.966667	1	0.878500
19.983333	1	0.822750
20.000000	1	0.775375
20.016667	1	0.735000
20.033333	1	0.702000
20.050000	1	0.675375
20.066667	1	0.654250
20.083333	1	0.638875
20.100000	1	0.628875
20.116667	1	0.624250
20.133333	1	0.623750
20.150000	1	0.626750
20.166667	1	0.633125
20.183333	1	0.643000
20.200000	1	0.655250
20.216667	1	0.667500
20.233333	1	0.680500
20.250000	1	0.693250
20.266667	1	0.705875
20.283333	1	0.716875
20.300000	1	0.725250
20.316667	1	0.730875
20.333333	1	0.733750
20.350000	1	0.732750
20.366667	1	0.728750
20.383333	1	0.720625
20.400000	1	0.710250
20.416667	1	0.697125
20.433333	1	0.682250
20.450000	1	0.666250
20.466667	1	0.650625
20.483333	1	0.634875
20.500000	1	0.620750
20.516667	1	0.608875
20.533333	1	0.599875
20.550000	1	0.595500
20.566667	1	0.596125
20.583333	1	0.602125
20.600000	1	0.615125
20.616667	1	0.635250
20.633333	1	0.663625
20.650000	1	0.700875
20.666667	1	0.746250
20.683333	1	0.799875
20.700000	1	0.861500
20.716667	1	0.930250
20.733333	1	1.005875
20.750000	1	1.086000
20.766667	1	1.169000
20.783333	1	1.252750
20.800000	1	1.334500
20.816667	1	1.412250
20.833333	1	1.482375
20.850000	1	1.543125
20.866667	1	1.593000
20.883333	1	1.629375
20.900000	1	1.651250
20.916667	1	1.658500
20.933333	1	1.650750
20.950000	1	1.629375
20.966667	1	1.593875
20.983333	1	1.546500
21.000000	1	1.489750
21.016667	1	1.424875
21.033333	1	1.354375
21.050000	1	1.281250
21.066667	1	1.205750
21.083333	1	1.131750
21.100000	1	1.059625
21.116667	1	0.989625
21.133333	1	0.923750
21.150000	1	0.862625
21.166667	1	0.806000
21.183333	1	0.754875
21.200000	1	0.708875
21.216667	1	0.667375
21.233333	1	0.630750
21.250000	1	0.598125
21.266667	1	0.570125
21.283333	1	0.545375
21.300000	1	0.524000
21.316667	1	0.504625
21.333333	1	0.488500
21.350000	1	0.474625
21.366667	1	0.462375
21.383333	1	0.451875
21.400000	1	0.442500
21.416667	1	0.433500
21.433333	1	0.426250
21.450000	1	0.421125
21.466667	1	0.416500
21.483333	1	0.412125
21.500000	1	0.407875
21.516667	1	0.404125
21.533333	1	0.401250
21.550000	1	0.399750
21.566667	1	0.399125
21.583333	1	0.398875
21.600000	1	0.400375
21.616667	1	0.402375
21.633333	1	0.405625
21.650000	1	0.411375
21.666667	1	0.418125
21.683333	1	0.426250
21.700000	1	0.435375
21.716667	1	0.447125
21.733333	1	0.460375
21.750000	1	0.475125
21.766667	1	0.492250
21.783333	1	0.510625
21.800000	1	0.529125
21.816667	1	0.548625
21.833333	1	0.569500
21.850000	1	0.590375
21.866667	1	0.611000
21.883333	1	0.630750
21.900000	1	0.650500
21.916667	1	0.669500
21.933333	1	0.685875
21.950000	1	0.701250
21.966667	1	0.713875
21.983333	1	0.724000
22.000000	1	0.731375
22.016667	1	0.736125
22.033333	1	0.738375
22.050000	1	0.738375
22.066667	1	0.736125
22.083333	1	0.732375
22.100000	1	0.726125
22.116667	1	0.718250
22.133333	1	0.708625
22.150000	1	0.698500
22.166667	1	0.686375
22.183333	1	0.673125
22.200000	1	0.659500
22.216667	1	0.644875
22.233333	1	0.629250
22.250000	1	0.612875
22.266667	1	0.596125
22.283333	1	0.578875
22.300000	1	0.562125
22.316667	1	0.544750
22.333333	1	0.527875
22.350000	1	0.510500
22.366667	1	0.493875
22.383333	1	0.477625
22.400000	1	0.461625
22.416667	1	0.445625
22.433333	1	0.430500
22.450000	1	0.416750
22.466667	1	0.403375
22.483333	1	0.391500
22.500000	1	0.379625
22.516667	1	0.368750
22.533333	1	0.359625
22.550000	1	0.351125
22.566667	1	0.342750
22.583333	1	0.334625
22.600000	1	0.327500
22.616667	1	0.321125
22.633333	1	0.315500
22.650000	1	0.309625
22.666667	1	0.304375
22.683333	1	0.299625
22.700000	1	0.295750
22.716667	1	0.291125
22.733333	1	0.287000
22.750000	1	0.283375
22.766667	1	0.279625
22.783333	1	0.276125
22.800000	1	0.272500
22.816667	1	0.268750
22.833333	1	0.264625
22.850000	1	0.261625
22.866667	1	0.258875
22.883333	1	0.256750
22.900000	1	0.254000
22.916667	1	0.251875
22.933333	1	0.250875
22.950000	1	0.250250
22.966667	1	0.248750
22.983333	1	0.248625
23.000000	1	0.248000
23.016667	1	0.247500
23.033333	1	0.248375
23.050000	1	0.248500
23.066667	1	0.249250
23.083333	1	0.250750
23.100000	1	0.252625
23.116667	1	0.254500
23.133333	1	0.256625
23.150000	1	0.258500
23.166667	1	0.261375
23.183333	1	0.263875
23.200000	1	0.266125
23.216667	1	0.270250
23.233333	1	0.273625
23.250000	1	0.278375
23.266667	1	0.283750
23.283333	1	0.289625
23.300000	1	0.297250
23.316667	1	0.307375
23.333333	1	0.319875
23.350000	1	0.336625
23.366667	1	0.356500
23.383333	1	0.382250
23.400000	1	0.414125
23.416667	1	0.453375
23.433333	1	0.501500
23.450000	1	0.561000
23.466667	1	0.633875
23.483333	1	0.721000
23.500000	1	0.825000
23.516667	1	0.946750
23.533333	1	1.090000
23.550000	1	1.255375
23.566667	1	1.444000
23.583333	1	1.657875
23.600000	1	1.895875
23.616667	1	2.159125
23.633333	1	2.444125
23.650000	1	2.750375
23.666667	1	3.072500
23.683333	1	3.407000
23.700000	1	3.750125
23.716667	1	4.094500
23.733333	1	4.434500
23.750000	1	4.761875
23.766667	1	5.069250
23.783333	1	5.350000
23.800000	1	5.596125
23.816667	1	5.802250
23.833333	1	5.964875
23.850000	1	6.079125
23.866667	1	6.142750
23.883333	1	6.156000
23.900000	1	6.118500
23.916667	1	6.032750
23.933333	1	5.902750
23.950000	1	5.731500
23.966667	1	5.525000
23.983333	1	5.289875
24.000000	1	5.031250
24.016667	1	4.756250
24.033333	1	4.469125
24.050000	1	4.177875
24.066667	1	3.886250
24.083333	1	3.598125
24.100000	1	3.317625
24.116667	1	3.048250
24.133333	1	2.791000
24.150000	1	2.548250
24.166667	1	2.321500
24.183333	1	2.111000
24.200000	1	1.916875
24.216667	1	1.740000
24.233333	1	1.578875
24.250000	1	1.433500
24.266667	1	1.302750
24.283333	1	1.184500
24.300000	1	1.079500
24.316667	1	0.986250
24.333333	1	0.903750
24.350000	1	0.830750
24.366667	1	0.766875
24.383333	1	0.711500
24.400000	1	0.663500
24.416667	1	0.623000
24.433333	1	0.588250
24.450000	1	0.558625
24.466667	1	0.534000
24.483333	1	0.512750
24.500000	1	0.495250
24.516667	1	0.480625
24.533333	1	0.469125
24.550000	1	0.459625
24.566667	1	0.451125
24.583333	1	0.444125
24.600000	1	0.438000
24.616667	1	0.432250
24.633333	1	0.427750
24.650000	1	0.423625
24.666667	1	0.418750
24.683333	1	0.413750
24.700000	1	0.409125
24.716667	1	0.404375
24.733333	1	0.399250
24.750000	1	0.393375
24.766667	1	0.387500
24.783333	1	0.381625
24.800000	1	0.375750
24.816667	1	0.369625
24.833333	1	0.363875
24.850000	1	0.358750
24.866667	1	0.353625
24.883333	1	0.347000
24.900000	1	0.342250
24.916667	1	0.337750
24.933333	1	0.332250
24.950000	1	0.327625
24.966667	1	0.323500
24.983333	1	0.318625
25.000000	1	0.314000
25.016667	1	0.309500
25.033333	1	0.305875
25.050000	1	0.302250
25.066667	1	0.299250
25.083333	1	0.295750
25.100000	1	0.291875
25.116667	1	0.288500
25.133333	1	0.285250
25.150000	1	0.281250
25.166667	1	0.277500
25.183333	1	0.273625
25.200000	1	0.270500
25.216667	1	0.267000
25.233333	1	0.263375
25.250000	1	0.260000
25.266667	1	0.257125
25.283333	1	0.253750
25.300000	1	0.250375
25.316667	1	0.247000
25.333333	1	0.244500
25.350000	1	0.242125
25.366667	1	0.239500
25.383333	1	0.237125
25.400000	1	0.234500
25.416667	1	0.233625
25.433333	1	0.232375
25.450000	1	0.231125
25.466667	1	0.230375
25.483333	1	0.230250
25.500000	1	0.229875
25.516667	1	0.230500
25.533333	1	0.230875
25.550000	1	0.231250
25.566667	1	0.231750
25.583333	1	0.232000
25.600000	1	0.232375
25.616667	1	0.233625
25.633333	1	0.234250
25.650000	1	0.235000
25.666667	1	0.235875
25.683333	1	0.236750
25.700000	1	0.238250
25.716667	1	0.238875
25.733333	1	0.240000
25.750000	1	0.241375
25.766667	1	0.241750
25.783333	1	0.241625
25.800000	1	0.242500
25.816667	1	0.243500
25.833333	1	0.244250
25.850000	1	0.244625
25.866667	1	0.245500
25.883333	1	0.247000
25.900000	1	0.248375
25.916667	1	0.249625
25.933333	1	0.251625
25.950000	1	0.253500
25.966667	1	0.256375
25.983333	1	0.259875
26.000000	1	0.263250
26.016667	1	0.266875
26.033333	1	0.270375
26.050000	1	0.275000
26.066667	1	0.279750
26.083333	1	0.284375
26.100000	1	0.289375
26.116667	1	0.295000
26.133333	1	0.300125
26.150000	1	0.305375
26.166667	1	0.310250
26.183333	1	0.315375
26.200000	1	0.320750
26.216667	1	0.325125
26.233333	1	0.329250
26.250000	1	0.333000
26.266667	1	0.336125
26.283333	1	0.338875
26.300000	1	0.341125
26.316667	1	0.341625
26.333333	1	0.341875
26.350000	1	0.341500
26.366667	1	0.340500
26.383333	1	0.339000
26.400000	1	0.335500
26.416667	1	0.332250
26.433333	1	0.328500
26.450000	1	0.323875
26.466667	1	0.318875
26.483333	1	0.312875
26.500000	1	0.306250
26.516667	1	0.299500
26.533333	1	0.292500
26.550000	1	0.285125
26.566667	1	0.277125
26.583333	1	0.269375
26.600000	1	0.261875
26.616667	1	0.254125
26.633333	1	0.246500
26.650000	1	0.238375
26.666667	1	0.230875
26.683333	1	0.223500
26.700000	1	0.215750
26.716667	1	0.208750
26.733333	1	0.202500
26.750000	1	0.195750
26.766667	1	0.190000
26.783333	1	0.184625
26.800000	1	0.179625
26.816667	1	0.174875
26.833333	1	0.170625
26.850000	1	0.166750
26.866667	1	0.163375
26.883333	1	0.160750
26.900000	1	0.158250
26.916667	1	0.157875
26.933333	1	0.156875
26.950000	1	0.156000
26.966667	1	0.155250
26.983333	1	0.156375
27.000000	1	0.158000
27.016667	1	0.160625
27.033333	1	0.163500
27.050000	1	0.167625
27.066667	1	0.171875
27.083333	1	0.177375
27.100000	1	0.183250
27.116667	1	0.190125
27.133333	1	0.199375
27.150000	1	0.208125
27.166667	1	0.218625
27.183333	1	0.231375
27.200000	1	0.245625
27.216667	1	0.261375
27.233333	1	0.279375
27.250000	1	0.300500
27.266667	1	0.325000
27.283333	1	0.352375
27.300000	1	0.384250
27.316667	1	0.420750
27.333333	1	0.463500
27.350000	1	0.511750
27.366667	1	0.566250
27.383333	1	0.629000
27.400000	1	0.699875
27.416667	1	0.780375
27.433333	1	0.871250
27.450000	1	0.972375
27.466667	1	1.085125
27.483333	1	1.210375
27.500000	1	1.348125
27.516667	1	1.498375
27.533333	1	1.660500
27.550000	1	1.834125
27.566667	1	2.018750
27.583333	1	2.213250
27.600000	1	2.415750
27.616667	1	2.625125
27.633333	1	2.838125
27.650000	1	3.054375
27.666667	1	3.270750
27.683333	1	3.484000
27.700000	1	3.689500
27.716667	1	3.885000
27.733333	1	4.067625
27.750000	1	4.233125
27.766667	1	4.378250
27.783333	1	4.501625
27.800000	1	4.599250
27.816667	1	4.670125
27.833333	1	4.713500
27.850000	1	4.727375
27.866667	1	4.711500
27.883333	1	4.666500
27.900000	1	4.593375
27.916667	1	4.493375
27.933333	1	4.368750
27.950000	1	4.222375
27.966667	1	4.056875
27.983333	1	3.875250
28.000000	1	3.681875
28.016667	1	3.478250
28.033333	1	3.268875
28.050000	1	3.057000
28.066667	1	2.844625
28.083333	1	2.634375
28.100000	1	2.429375
28.116667	1	2.232375
28.133333	1	2.043750
28.150000	1	1.865000
28.166667	1	1.696875
28.183333	1	1.539875
28.200000	1	1.394625
28.216667	1	1.261500
28.233333	1	1.138875
28.250000	1	1.027500
28.266667	1	0.927000
28.283333	1	0.836375
28.300000	1	0.755875
28.316667	1	0.684750
28.333333	1	0.621750
28.350000	1	0.566750
28.366667	1	0.519750
28.383333	1	0.478750
28.400000	1	0.444000
28.416667	1	0.415375
28.433333	1	0.391500
28.450000	1	0.372125
28.466667	1	0.357250
28.483333	1	0.347500
28.500000	1	0.339875
28.516667	1	0.335125
28.533333	1	0.333250
28.550000	1	0.334625
28.566667	1	0.338625
28.583333	1	0.344250
28.600000	1	0.350875
28.616667	1	0.358750
28.633333	1	0.368500
28.650000	1	0.379125
28.666667	1	0.390250
28.683333	1	0.402125
28.700000	1	0.413750
28.716667	1	0.425375
28.733333	1	0.437125
28.750000	1	0.448750
28.766667	1	0.459875
28.783333	1	0.471000
28.800000	1	0.481125
28.816667	1	0.490250
28.833333	1	0.498750
28.850000	1	0.507125
28.866667	1	0.513625
28.883333	1	0.520000
28.900000	1	0.524875
28.916667	1	0.528500
28.933333	1	0.530500
28.950000	1	0.531125
28.966667	1	0.531125
28.983333	1	0.530750
29.000000	1	0.528750
29.016667	1	0.525375
29.033333	1	0.521375
29.050000	1	0.516000
29.066667	1	0.510000
29.083333	1	0.503000
29.100000	1	0.495625
29.116667	1	0.486125
29.133333	1	0.477375
29.150000	1	0.467000
29.166667	1	0.457375
29.183333	1	0.446625
29.200000	1	0.435750
29.216667	1	0.423750
29.233333	1	0.412125
29.250000	1	0.400375
29.266667	1	0.388750
29.283333	1	0.376625
29.300000	1	0.364750
29.316667	1	0.353625
29.333333	1	0.342500
29.350000	1	0.331625
29.366667	1	0.320625
29.383333	1	0.309625
29.400000	1	0.299750
29.416667	1	0.289750
29.433333	1	0.281000
29.450000	1	0.272000
29.466667	1	0.263375
29.483333	1	0.254750
29.500000	1	0.247250
29.516667	1	0.239750
29.533333	1	0.232500
29.550000	1	0.225500
29.566667	1	0.218500
29.583333	1	0.212625
29.600000	1	0.206875
29.616667	1	0.201500
29.633333	1	0.196500
29.650000	1	0.192125
29.666667	1	0.187375
29.683333	1	0.182250
29.700000	1	0.178125
29.716667	1	0.174125
29.733333	1	0.170625
29.750000	1	0.167625
29.766667	1	0.164750
29.783333	1	0.162375
29.800000	1	0.159625
29.816667	1	0.157375
29.833333	1	0.154250
29.850000	1	0.152250
29.866667	1	0.150625
29.883333	1	0.148250
29.900000	1	0.146750
29.916667	1	0.144375
29.933333	1	0.142125
29.950000	1	0.140125
29.966667	1	0.139250
29.983333	1	0.137625
30.000000	1	0.135625
30.016667	1	0.134375
30.033333	1	0.132625
30.050000	1	0.130625
30.066667	1	0.128375
30.083333	1	0.126625
30.100000	1	0.125500
30.116667	1	0.123875
30.133333	1	0.123250
30.150000	1	0.121750
30.166667	1	0.120250
30.183333	1	0.118750
30.200000	1	0.117375
30.216667	1	0.115750
30.233333	1	0.114375
30.250000	1	0.112875
30.266667	1	0.111500
30.283333	1	0.110250
30.300000	1	0.109375
30.316667	1	0.107625
30.333333	1	0.106125
30.350000	1	0.106000
30.366667	1	0.105625
30.383333	1	0.104875
30.400000	1	0.104375
30.416667	1	0.104875
30.433333	1	0.105125
30.450000	1	0.106250
30.466667	1	0.107000
30.483333	1	0.108375
30.500000	1	0.110125
30.516667	1	0.112000
30.533333	1	0.114625
30.550000	1	0.117750
30.566667	1	0.121000
30.583333	1	0.125250
30.600000	1	0.128750
30.616667	1	0.133125
30.633333	1	0.138250
30.650000	1	0.143250
30.666667	1	0.150375
30.683333	1	0.157500
30.700000	1	0.164500
30.716667	1	0.171875
30.733333	1	0.179625
30.750000	1	0.188250
30.766667	1	0.197625
30.783333	1	0.207500
30.800000	1	0.218750
30.816667	1	0.230750
30.833333	1	0.244375
30.850000	1	0.258750
30.866667	1	0.274750
30.883333	1	0.292500
30.900000	1	0.311750
30.916667	1	0.334125
30.933333	1	0.359125
30.950000	1	0.387500
30.966667	1	0.419500
30.983333	1	0.456000
31.000000	1	0.498250
31.016667	1	0.545250
31.033333	1	0.599000
31.050000	1	0.659875
31.066667	1	0.729125
31.083333	1	0.807375
31.100000	1	0.895625
31.116667	1	0.994000
31.133333	1	1.103750
31.150000	1	1.225625
31.166667	1	1.359750
31.183333	1	1.506875
31.200000	1	1.666250
31.216667	1	1.840000
31.233333	1	2.026500
31.250000	1	2.226000
31.266667	1	2.437000
31.283333	1	2.658750
31.300000	1	2.889625
31.316667	1	3.127750
31.333333	1	3.371875
31.350000	1	3.619250
31.366667	1	3.866750
31.383333	1	4.112625
31.400000	1	4.354250
31.416667	1	4.588875
31.433333	1	4.813125
31.450000	1	5.023000
31.466667	1	5.216750
31.483333	1	5.391625
31.500000	1	5.544375
31.516667	1	5.673000
31.533333	1	5.776375
31.550000	1	5.853750
31.566667	1	5.902875
31.583333	1	5.924250
31.600000	1	5.918125
31.616667	1	5.884625
31.633333	1	5.823750
31.650000	1	5.737750
31.666667	1	5.627875
31.683333	1	5.495500
31.700000	1	5.343875
31.716667	1	5.175125
31.733333	1	4.992250
31.750000	1	4.796125
31.766667	1	4.591125
31.783333	1	4.378625
31.800000	1	4.160375
31.816667	1	3.939000
31.833333	1	3.716750
31.850000	1	3.496250
31.866667	1	3.278875
31.883333	1	3.066625
31.900000	1	2.861250
31.916667	1	2.662125
31.933333	1	2.471250
31.950000	1	2.288875
31.966667	1	2.115375
31.983333	1	1.951125
32.000000	1	1.796250
32.016667	1	1.650625
32.033333	1	1.514500
32.050000	1	1.387500
32.066667	1	1.270375
32.083333	1	1.161500
32.100000	1	1.061250
32.116667	1	0.968000
32.133333	1	0.882125
32.150000	1	0.803375
32.166667	1	0.731375
32.183333	1	0.665250
32.200000	1	0.604500
32.216667	1	0.549000
32.233333	1	0.498875
32.250000	1	0.452750
32.266667	1	0.411000
32.283333	1	0.372250
32.300000	1	0.337250
32.316667	1	0.306125
32.333333	1	0.277875
32.350000	1	0.252875
32.366667	1	0.229125
32.383333	1	0.208625
32.400000	1	0.189750
32.416667	1	0.174000
32.433333	1	0.159000
32.450000	1	0.145625
32.466667	1	0.134375
32.483333	1	0.123625
32.500000	1	0.114125
32.516667	1	0.105750
32.533333	1	0.098750
32.550000	1	0.092875
32.566667	1	0.087125
32.583333	1	0.082875
32.600000	1	0.079250
32.616667	1	0.075750
32.633333	1	0.072750
32.650000	1	0.069750
32.666667	1	0.067375
32.683333	1	0.065250
32.700000	1	0.064000
32.716667	1	0.062625
32.733333	1	0.061500
32.750000	1	0.060250
32.766667	1	0.059500
32.783333	1	0.058750
32.800000	1	0.057750
32.816667	1	0.056625
32.833333	1	0.055875
32.850000	1	0.055375
32.866667	1	0.054500
32.883333	1	0.053875
32.900000	1	0.053000
32.916667	1	0.052125
32.933333	1	0.051375
32.950000	1	0.050750
32.966667	1	0.050625
32.983333	1	0.050000
33.000000	1	0.049125
33.016667	1	0.048500
33.033333	1	0.047750
33.050000	1	0.046875
33.066667	1	0.046500
33.083333	1	0.046125
33.100000	1	0.045875
33.116667	1	0.045125
33.133333	1	0.044125
33.150000	1	0.043250
33.166667	1	0.042500
33.183333	1	0.042125
33.200000	1	0.041875
33.216667	1	0.041500
33.233333	1	0.040625
33.250000	1	0.040000
33.266667	1	0.039375
33.283333	1	0.039500
33.300000	1	0.039625
33.316667	1	0.039375
33.333333	1	0.039750
33.350000	1	0.039750
33.366667	1	0.039500
33.383333	1	0.039250
33.400000	1	0.039500
33.416667	1	0.040000
33.433333	1	0.040250
33.450000	1	0.039875
33.466667	1	0.040125
33.483333	1	0.039625
33.500000	1	0.038375
33.516667	1	0.039000
33.533333	1	0.040500
33.550000	1	0.041000
33.566667	1	0.041250
33.583333	1	0.041875
33.600000	1	0.042250
33.616667	1	0.042875
33.633333	1	0.043875
33.650000	1	0.044375
33.666667	1	0.044875
33.683333	1	0.044375
33.700000	1	0.045250
33.716667	1	0.046500
33.733333	1	0.047125
33.750000	1	0.048250
33.766667	1	0.048750
33.783333	1	0.049750
33.800000	1	0.050875
33.816667	1	0.052000
33.833333	1	0.052875
33.850000	1	0.053500
33.866667	1	0.053750
33.883333	1	0.054250
33.900000	1	0.055125
33.916667	1	0.056125
33.933333	1	0.056750
33.950000	1	0.057250
33.966667	1	0.057750
33.983333	1	0.058875
34.000000	1	0.060000
34.016667	1	0.060375
34.033333	1	0.060625
34.050000	1	0.060875
34.066667	1	0.061000
34.083333	1	0.061625
34.100000	1	0.062625
34.116667	1	0.063250
34.133333	1	0.063750
34.150000	1	0.064625
34.166667	1	0.065125
34.183333	1	0.066125
34.200000	1	0.066625
34.216667	1	0.066875
34.233333	1	0.068500
34.250000	1	0.069750
34.266667	1	0.070500
34.283333	1	0.072000
34.300000	1	0.072750
34.316667	1	0.073875
34.333333	1	0.074625
34.350000	1	0.076000
34.366667	1	0.077750
34.383333	1	0.078750
34.400000	1	0.080125
34.416667	1	0.081875
34.433333	1	0.083250
34.450000	1	0.085000
34.466667	1	0.086500
34.483333	1	0.087875
34.500000	1	0.089250
34.516667	1	0.090500
34.533333	1	0.092250
34.550000	1	0.092750
34.566667	1	0.094125
34.583333	1	0.095625
34.600000	1	0.096875
34.616667	1	0.097375
34.633333	1	0.098250
34.650000	1	0.099125
34.666667	1	0.099375
34.683333	1	0.098250
34.700000	1	0.097750
34.716667	1	0.097875
34.733333	1	0.098250
34.750000	1	0.097625
34.766667	1	0.097000
34.783333	1	0.096125
34.800000	1	0.094250
34.816667	1	0.093000
34.833333	1	0.091500
34.850000	1	0.090000
34.866667	1	0.088375
34.883333	1	0.085750
34.900000	1	0.084250
34.916667	1	0.082000
34.933333	1	0.079500
34.950000	1	0.077250
34.966667	1	0.074750
34.983333	1	0.072750
35.000000	1	0.070625
35.016667	1	0.068250
35.033333	1	0.066750
35.050000	1	0.064625
35.066667	1	0.062125
35.083333	1	0.060625
35.100000	1	0.058750
35.116667	1	0.057125
35.133333	1	0.055875
35.150000	1	0.054500
35.166667	1	0.053500
35.183333	1	0.052750
35.200000	1	0.052000
35.216667	1	0.051875
35.233333	1	0.051750
35.250000	1	0.051625
35.266667	1	0.051250
35.283333	1	0.051750
35.300000	1	0.053000
35.316667	1	0.053375
35.333333	1	0.054000
35.350000	1	0.055875
35.366667	1	0.057250
35.383333	1	0.059875
35.400000	1	0.062500
35.416667	1	0.064375
35.433333	1	0.066625
35.450000	1	0.069375
35.466667	1	0.073000
35.483333	1	0.075750
35.500000	1	0.079000
35.516667	1	0.082000
35.533333	1	0.085375
35.550000	1	0.088500
35.566667	1	0.092000
35.583333	1	0.095500
35.600000	1	0.098000
35.616667	1	0.100750
35.633333	1	0.103625
35.650000	1	0.105375
35.666667	1	0.108125
35.683333	1	0.111625
35.700000	1	0.114375
35.716667	1	0.116375
35.733333	1	0.118250
35.750000	1	0.120000
35.766667	1	0.121250
35.783333	1	0.123000
35.800000	1	0.124250
35.816667	1	0.125375
35.833333	1	0.125875
35.850000	1	0.126375
35.866667	1	0.126375
35.883333	1	0.126250
35.900000	1	0.126000
35.916667	1	0.125625
35.933333	1	0.125500
35.950000	1	0.125250
35.966667	1	0.124125
35.983333	1	0.123125
36.000000	1	0.121625
36.016667	1	0.120500
36.033333	1	0.119125
36.050000	1	0.117250
36.066667	1	0.115250
36.083333	1	0.113500
36.100000	1	0.112250
36.116667	1	0.111375
36.133333	1	0.109625
36.150000	1	0.108125
36.166667	1	0.106875
36.183333	1	0.105625
36.200000	1	0.104750
36.216667	1	0.103125
36.233333	1	0.102375
36.250000	1	0.100875
36.266667	1	0.100000
36.283333	1	0.099250
36.300000	1	0.098375
36.316667	1	0.097375
36.333333	1	0.097125
36.350000	1	0.096750
36.366667	1	0.095875
36.383333	1	0.095500
36.400000	1	0.095750
36.416667	1	0.095250
36.433333	1	0.094500
36.450000	1	0.094000
36.466667	1	0.093250
36.483333	1	0.092750
36.500000	1	0.091875
36.516667	1	0.091500
36.533333	1	0.090375
36.550000	1	0.089375
36.566667	1	0.088000
36.583333	1	0.086000
36.600000	1	0.084375
36.616667	1	0.083000
36.633333	1	0.080875
36.650000	1	0.078875
36.666667	1	0.076500
36.683333	1	0.074375
36.700000	1	0.072250
36.716667	1	0.069250
36.733333	1	0.066125
36.750000	1	0.063000
36.766667	1	0.059375
36.783333	1	0.056000
36.800000	1	0.052250
36.816667	1	0.048750
36.833333	1	0.044875
36.850000	1	0.041000
36.866667	1	0.037000
36.883333	1	0.033500
36.900000	1	0.030125
36.916667	1	0.026875
36.933333	1	0.023750
36.950000	1	0.020250
36.966667	1	0.017250
36.983333	1	0.014125
37.000000	1	0.011375
37.016667	1	0.008625
37.033333	1	0.007125
37.050000	1	0.005875
37.066667	1	0.005000
37.083333	1	0.003625
37.100000	1	0.002500
37.116667	1	0.001375
37.133333	1	0.000500
37.150000	1	0.000125
37.166667	1	0.000500
37.183333	1	0.000000
37.200000	1	0.000375
37.216667	1	0.000875
37.233333	1	0.001750
37.250000	1	0.002625
37.266667	1	0.003125
37.283333	1	0.003875
37.300000	1	0.004750
37.316667	1	0.005500
37.333333	1	0.006750
37.350000	1	0.008375
37.366667	1	0.009750
37.383333	1	0.011000
37.400000	1	0.011375
37.416667	1	0.012625
37.433333	1	0.013750
37.450000	1	0.014250
37.466667	1	0.015375
37.483333	1	0.016000
37.500000	1	0.016375
37.516667	1	0.016625
37.533333	1	0.017500
37.550000	1	0.017750
37.566667	1	0.018625
37.583333	1	0.018875
37.600000	1	0.018875
37.616667	1	0.019125
37.633333	1	0.019375
37.650000	1	0.019500
37.666667	1	0.018000
37.683333	1	0.016625
37.700000	1	0.016500
37.716667	1	0.015750
37.733333	1	0.015750
37.750000	1	0.014625
37.766667	1	0.013625
37.783333	1	0.012625
37.800000	1	0.011375
37.816667	1	0.010250
37.833333	1	0.009625
37.850000	1	0.007750
37.866667	1	0.006500
37.883333	1	0.005625
37.900000	1	0.004625
37.916667	1	0.003250
37.933333	1	0.002000
37.950000	1	0.001000
37.966667	1	-0.000250
37.983333	1	-0.001000
38.000000	1	-0.002125
38.016667	1	-0.002500
38.033333	1	-0.003500
38.050000	1	-0.004250
38.066667	1	-0.004750
38.083333	1	-0.004500
38.100000	1	-0.005000
38.116667	1	-0.005000
38.133333	1	-0.004500
38.150000	1	-0.004375
38.166667	1	-0.003875
38.183333	1	-0.003875
38.200000	1	-0.003625
38.216667	1	-0.002875
38.233333	1	-0.002000
38.250000	1	-0.001250
38.266667	1	-0.000125
38.283333	1	0.000750
38.300000	1	0.001125
38.316667	1	0.002375
38.333333	1	0.003875
38.350000	1	0.005000
38.366667	1	0.006500
38.383333	1	0.007375
38.400000	1	0.008250
38.416667	1	0.009250
38.433333	1	0.010875
38.450000	1	0.011750
38.466667	1	0.012625
38.483333	1	0.013750
38.500000	1	0.014125
38.516667	1	0.015500
38.533333	1	0.016750
38.550000	1	0.018250
38.566667	1	0.018500
38.583333	1	0.018750
38.600000	1	0.019750
38.616667	1	0.020375
38.633333	1	0.022250
38.650000	1	0.023000
38.666667	1	0.023500
38.683333	1	0.024000
38.700000	1	0.023875
38.716667	1	0.024625
38.733333	1	0.025250
38.750000	1	0.026375
38.766667	1	0.026250
38.783333	1	0.027000
38.800000	1	0.028375
38.816667	1	0.029625
38.833333	1	0.030250
38.850000	1	0.030750
38.866667	1	0.032125
38.883333	1	0.032750
38.900000	1	0.033500
38.916667	1	0.034500
38.933333	1	0.034875
38.950000	1	0.035750
38.966667	1	0.037000
38.983333	1	0.037000
39.000000	1	0.037000
39.016667	1	0.037250
39.033333	1	0.037250
39.050000	1	0.037250
39.066667	1	0.036750
39.083333	1	0.036500
39.100000	1	0.036750
39.116667	1	0.035250
39.133333	1	0.034625
39.150000	1	0.033125
39.166667	1	0.031875
39.183333	1	0.030000
39.200000	1	0.027875
39.216667	1	0.026000
39.233333	1	0.023125
39.250000	1	0.020250
39.266667	1	0.017750
39.283333	1	0.015125
39.300000	1	0.012000
39.316667	1	0.008875
39.333333	1	0.006625
39.350000	1	0.003625
39.366667	1	0.000250
39.383333	1	-0.002750
39.400000	1	-0.006125
39.416667	1	-0.009125
39.433333	1	-0.012375
39.450000	1	-0.015500
39.466667	1	-0.019250
39.483333	1	-0.022250
39.500000	1	-0.025000
39.516667	1	-0.028125
39.533333	1	-0.031000
39.550000	1	-0.033750
39.566667	1	-0.037000
39.583333	1	-0.039500
39.600000	1	-0.042500
39.616667	1	-0.045375
39.633333	1	-0.048375
39.650000	1	-0.050875
39.666667	1	-0.053500
39.683333	1	-0.054750
39.700000	1	-0.056500
39.716667	1	-0.058375
39.733333	1	-0.059875
39.750000	1	-0.061125
39.766667	1	-0.062375
39.783333	1	-0.064125
39.800000	1	-0.065500
39.816667	1	-0.066125
39.833333	1	-0.066625
39.850000	1	-0.067250
39.866667	1	-0.066875
39.883333	1	-0.067000
39.900000	1	-0.067125
39.916667	1	-0.067000
39.933333	1	-0.067250
39.950000	1	-0.067000
39.966667	1	-0.066875
39.983333	1	-0.066750
40.000000	1	-0.066125
