URL	chrom://bioreactor/micro_cm7/HPLC_Ultimate_3000/Users/markusar/20240708_MA_pHrange1.seq/583.smp/RI_1.channel/RI_1.chm
Channel	RI_1

Injection Information:
Data Vault	micro_cm7
Sequence	20240708_MA_pHrange1
Name	Pv1_5.7_5
Number	21
Position	BB9
Comment	
Processing Method	
Instrument Method	run_25B_method
Type	Unknown
Status	Finished
Inject Time	09.07.2024 05:13:55 +02:00
Volume (µl)	20.0000
Dilution Factor	1.0000
Weight	1.0000

Chromatogram Data Information:
Time Min. (min)	0.000000
Time Max. (min)	40.000000
Data Points	2401
Detector	RI
Generating Data System	Chromeleon 7.3.2.11814
Exporting Data System	Chromeleon 7.3.2.0
Operator	Instrument Controller
Signal Quantity	Refractive 
Signal Unit	µRIU
Signal Min.	-0.011625
Signal Max.	83.241625
Channel	RI_1
Driver Name	RID520Driver.dll
Channel Type	Evaluation
Min. Step (s)	1
Max. Step (s)	1
Average Step (s)	1

Signal Parameter Information:
Signal Info	

Chromatogram Data:
Time (min)	Step (s)	Value (µRIU)
0.000000	n.a.	0.043500
0.016667	1	0.043000
0.033333	1	0.042625
0.050000	1	0.042250
0.066667	1	0.042000
0.083333	1	0.042125
0.100000	1	0.041375
0.116667	1	0.041125
0.133333	1	0.039750
0.150000	1	0.039000
0.166667	1	0.038125
0.183333	1	0.036875
0.200000	1	0.035500
0.216667	1	0.034625
0.233333	1	0.033750
0.250000	1	0.032375
0.266667	1	0.031125
0.283333	1	0.030250
0.300000	1	0.029375
0.316667	1	0.028125
0.333333	1	0.026750
0.350000	1	0.024875
0.366667	1	0.023625
0.383333	1	0.021750
0.400000	1	0.019875
0.416667	1	0.019625
0.433333	1	0.020875
0.450000	1	0.022125
0.466667	1	0.023000
0.483333	1	0.024000
0.500000	1	0.024625
0.516667	1	0.024875
0.533333	1	0.024625
0.550000	1	0.023125
0.566667	1	0.021375
0.583333	1	0.019750
0.600000	1	0.017500
0.616667	1	0.015375
0.633333	1	0.014250
0.650000	1	0.013000
0.666667	1	0.012250
0.683333	1	0.012000
0.700000	1	0.012500
0.716667	1	0.013000
0.733333	1	0.013875
0.750000	1	0.014625
0.766667	1	0.015500
0.783333	1	0.016625
0.800000	1	0.017500
0.816667	1	0.019250
0.833333	1	0.020625
0.850000	1	0.022000
0.866667	1	0.022750
0.883333	1	0.023375
0.900000	1	0.025125
0.916667	1	0.025875
0.933333	1	0.027250
0.950000	1	0.028750
0.966667	1	0.030375
0.983333	1	0.032125
1.000000	1	0.033375
1.016667	1	0.034875
1.033333	1	0.036000
1.050000	1	0.036750
1.066667	1	0.037500
1.083333	1	0.038875
1.100000	1	0.039500
1.116667	1	0.040375
1.133333	1	0.040875
1.150000	1	0.041125
1.166667	1	0.041750
1.183333	1	0.041125
1.200000	1	0.042000
1.216667	1	0.042750
1.233333	1	0.043000
1.250000	1	0.043250
1.266667	1	0.043750
1.283333	1	0.044250
1.300000	1	0.045375
1.316667	1	0.045875
1.333333	1	0.046250
1.350000	1	0.046750
1.366667	1	0.047500
1.383333	1	0.048125
1.400000	1	0.048375
1.416667	1	0.049125
1.433333	1	0.050125
1.450000	1	0.051250
1.466667	1	0.052000
1.483333	1	0.052000
1.500000	1	0.053000
1.516667	1	0.053750
1.533333	1	0.053875
1.550000	1	0.054875
1.566667	1	0.055250
1.583333	1	0.055375
1.600000	1	0.055750
1.616667	1	0.056125
1.633333	1	0.057000
1.650000	1	0.058125
1.666667	1	0.058125
1.683333	1	0.058500
1.700000	1	0.058500
1.716667	1	0.059125
1.733333	1	0.059875
1.750000	1	0.060250
1.766667	1	0.059500
1.783333	1	0.059500
1.800000	1	0.059500
1.816667	1	0.059250
1.833333	1	0.058500
1.850000	1	0.058000
1.866667	1	0.057125
1.883333	1	0.056875
1.900000	1	0.056000
1.916667	1	0.055125
1.933333	1	0.053875
1.950000	1	0.052750
1.966667	1	0.051625
1.983333	1	0.050375
2.000000	1	0.049000
2.016667	1	0.048000
2.033333	1	0.047250
2.050000	1	0.046250
2.066667	1	0.045000
2.083333	1	0.042625
2.100000	1	0.040625
2.116667	1	0.038625
2.133333	1	0.036750
2.150000	1	0.034625
2.166667	1	0.032000
2.183333	1	0.029375
2.200000	1	0.026250
2.216667	1	0.022875
2.233333	1	0.020375
2.250000	1	0.018000
2.266667	1	0.015625
2.283333	1	0.013500
2.300000	1	0.010500
2.316667	1	0.008125
2.333333	1	0.005625
2.350000	1	0.003375
2.366667	1	0.001000
2.383333	1	-0.000500
2.400000	1	-0.002500
2.416667	1	-0.004250
2.433333	1	-0.006375
2.450000	1	-0.008000
2.466667	1	-0.009000
2.483333	1	-0.009500
2.500000	1	-0.010500
2.516667	1	-0.010750
2.533333	1	-0.011625
2.550000	1	-0.011625
2.566667	1	-0.011500
2.583333	1	-0.011250
2.600000	1	-0.010375
2.616667	1	-0.010125
2.633333	1	-0.008875
2.650000	1	-0.008000
2.666667	1	-0.006625
2.683333	1	-0.005000
2.700000	1	-0.003875
2.716667	1	-0.003125
2.733333	1	-0.001500
2.750000	1	-0.000750
2.766667	1	0.001000
2.783333	1	0.003000
2.800000	1	0.004375
2.816667	1	0.006125
2.833333	1	0.007250
2.850000	1	0.008500
2.866667	1	0.009750
2.883333	1	0.011000
2.900000	1	0.012500
2.916667	1	0.013375
2.933333	1	0.014375
2.950000	1	0.015500
2.966667	1	0.016000
2.983333	1	0.016875
3.000000	1	0.018000
3.016667	1	0.018500
3.033333	1	0.019250
3.050000	1	0.020875
3.066667	1	0.021375
3.083333	1	0.022250
3.100000	1	0.022250
3.116667	1	0.023125
3.133333	1	0.024250
3.150000	1	0.024500
3.166667	1	0.025625
3.183333	1	0.026750
3.200000	1	0.028000
3.216667	1	0.029000
3.233333	1	0.029875
3.250000	1	0.030750
3.266667	1	0.031625
3.283333	1	0.032500
3.300000	1	0.033125
3.316667	1	0.033875
3.333333	1	0.035000
3.350000	1	0.036000
3.366667	1	0.037250
3.383333	1	0.037875
3.400000	1	0.038250
3.416667	1	0.038125
3.433333	1	0.038000
3.450000	1	0.038125
3.466667	1	0.038000
3.483333	1	0.037750
3.500000	1	0.037625
3.516667	1	0.037500
3.533333	1	0.037000
3.550000	1	0.036125
3.566667	1	0.036250
3.583333	1	0.035625
3.600000	1	0.035125
3.616667	1	0.034750
3.633333	1	0.034750
3.650000	1	0.033750
3.666667	1	0.033375
3.683333	1	0.032250
3.700000	1	0.031625
3.716667	1	0.031500
3.733333	1	0.031375
3.750000	1	0.031500
3.766667	1	0.031625
3.783333	1	0.031625
3.800000	1	0.032125
3.816667	1	0.033125
3.833333	1	0.034375
3.850000	1	0.035375
3.866667	1	0.036750
3.883333	1	0.038000
3.900000	1	0.038750
3.916667	1	0.040875
3.933333	1	0.042500
3.950000	1	0.043625
3.966667	1	0.045625
3.983333	1	0.047250
4.000000	1	0.049375
4.016667	1	0.051375
4.033333	1	0.053250
4.050000	1	0.055500
4.066667	1	0.057625
4.083333	1	0.059250
4.100000	1	0.061000
4.116667	1	0.063750
4.133333	1	0.065750
4.150000	1	0.067500
4.166667	1	0.069125
4.183333	1	0.071250
4.200000	1	0.073625
4.216667	1	0.075375
4.233333	1	0.077000
4.250000	1	0.078375
4.266667	1	0.080000
4.283333	1	0.082000
4.300000	1	0.084250
4.316667	1	0.084875
4.333333	1	0.085875
4.350000	1	0.087375
4.366667	1	0.089375
4.383333	1	0.090750
4.400000	1	0.092375
4.416667	1	0.093375
4.433333	1	0.094625
4.450000	1	0.095875
4.466667	1	0.096875
4.483333	1	0.097875
4.500000	1	0.099000
4.516667	1	0.100250
4.533333	1	0.101125
4.550000	1	0.102625
4.566667	1	0.103250
4.583333	1	0.103500
4.600000	1	0.103375
4.616667	1	0.104750
4.633333	1	0.104875
4.650000	1	0.106000
4.666667	1	0.106750
4.683333	1	0.108625
4.700000	1	0.109875
4.716667	1	0.111250
4.733333	1	0.112250
4.750000	1	0.113125
4.766667	1	0.113875
4.783333	1	0.115750
4.800000	1	0.117375
4.816667	1	0.119875
4.833333	1	0.122000
4.850000	1	0.124500
4.866667	1	0.127625
4.883333	1	0.130000
4.900000	1	0.133250
4.916667	1	0.136375
4.933333	1	0.140125
4.950000	1	0.143750
4.966667	1	0.147500
4.983333	1	0.151625
5.000000	1	0.155625
5.016667	1	0.159625
5.033333	1	0.163875
5.050000	1	0.168125
5.066667	1	0.173375
5.083333	1	0.178375
5.100000	1	0.183250
5.116667	1	0.187625
5.133333	1	0.192625
5.150000	1	0.197250
5.166667	1	0.201500
5.183333	1	0.206375
5.200000	1	0.210375
5.216667	1	0.214625
5.233333	1	0.218750
5.250000	1	0.223000
5.266667	1	0.227250
5.283333	1	0.231250
5.300000	1	0.235250
5.316667	1	0.239125
5.333333	1	0.242625
5.350000	1	0.246000
5.366667	1	0.249500
5.383333	1	0.252500
5.400000	1	0.255750
5.416667	1	0.258250
5.433333	1	0.261500
5.450000	1	0.263750
5.466667	1	0.265875
5.483333	1	0.267625
5.500000	1	0.268875
5.516667	1	0.270125
5.533333	1	0.271000
5.550000	1	0.271750
5.566667	1	0.272500
5.583333	1	0.273125
5.600000	1	0.274000
5.616667	1	0.274500
5.633333	1	0.274250
5.650000	1	0.273125
5.666667	1	0.272000
5.683333	1	0.270250
5.700000	1	0.269000
5.716667	1	0.267000
5.733333	1	0.265000
5.750000	1	0.262875
5.766667	1	0.260750
5.783333	1	0.258625
5.800000	1	0.255500
5.816667	1	0.253125
5.833333	1	0.249875
5.850000	1	0.247000
5.866667	1	0.243375
5.883333	1	0.239875
5.900000	1	0.236875
5.916667	1	0.233125
5.933333	1	0.228750
5.950000	1	0.224625
5.966667	1	0.221250
5.983333	1	0.217500
6.000000	1	0.213875
6.016667	1	0.210000
6.033333	1	0.205375
6.050000	1	0.200875
6.066667	1	0.197000
6.083333	1	0.193750
6.100000	1	0.190000
6.116667	1	0.186250
6.133333	1	0.182250
6.150000	1	0.178375
6.166667	1	0.174750
6.183333	1	0.170500
6.200000	1	0.166500
6.216667	1	0.162750
6.233333	1	0.158875
6.250000	1	0.155500
6.266667	1	0.151250
6.283333	1	0.147625
6.300000	1	0.144500
6.316667	1	0.141000
6.333333	1	0.137625
6.350000	1	0.134000
6.366667	1	0.131375
6.383333	1	0.128375
6.400000	1	0.125375
6.416667	1	0.122875
6.433333	1	0.120125
6.450000	1	0.118000
6.466667	1	0.115625
6.483333	1	0.112750
6.500000	1	0.109875
6.516667	1	0.107500
6.533333	1	0.105250
6.550000	1	0.102625
6.566667	1	0.100625
6.583333	1	0.099125
6.600000	1	0.096625
6.616667	1	0.094750
6.633333	1	0.092500
6.650000	1	0.090625
6.666667	1	0.088750
6.683333	1	0.087000
6.700000	1	0.085625
6.716667	1	0.084125
6.733333	1	0.082000
6.750000	1	0.081250
6.766667	1	0.079750
6.783333	1	0.078500
6.800000	1	0.077500
6.816667	1	0.075875
6.833333	1	0.074750
6.850000	1	0.074000
6.866667	1	0.073375
6.883333	1	0.072500
6.900000	1	0.071750
6.916667	1	0.071625
6.933333	1	0.071750
6.950000	1	0.072000
6.966667	1	0.072250
6.983333	1	0.073125
7.000000	1	0.074500
7.016667	1	0.075375
7.033333	1	0.076625
7.050000	1	0.078625
7.066667	1	0.080250
7.083333	1	0.082125
7.100000	1	0.084500
7.116667	1	0.087500
7.133333	1	0.090500
7.150000	1	0.092875
7.166667	1	0.095625
7.183333	1	0.098875
7.200000	1	0.102000
7.216667	1	0.105000
7.233333	1	0.108250
7.250000	1	0.112250
7.266667	1	0.115375
7.283333	1	0.118500
7.300000	1	0.121625
7.316667	1	0.125125
7.333333	1	0.128250
7.350000	1	0.131250
7.366667	1	0.134250
7.383333	1	0.137125
7.400000	1	0.139500
7.416667	1	0.141500
7.433333	1	0.143625
7.450000	1	0.144875
7.466667	1	0.146000
7.483333	1	0.147000
7.500000	1	0.147625
7.516667	1	0.148500
7.533333	1	0.148500
7.550000	1	0.148750
7.566667	1	0.148500
7.583333	1	0.147750
7.600000	1	0.146500
7.616667	1	0.145375
7.633333	1	0.144625
7.650000	1	0.142750
7.666667	1	0.141000
7.683333	1	0.138500
7.700000	1	0.134625
7.716667	1	0.132375
7.733333	1	0.129000
7.750000	1	0.125875
7.766667	1	0.122125
7.783333	1	0.118750
7.800000	1	0.115375
7.816667	1	0.112000
7.833333	1	0.108125
7.850000	1	0.104375
7.866667	1	0.100625
7.883333	1	0.097125
7.900000	1	0.093375
7.916667	1	0.089500
7.933333	1	0.086250
7.950000	1	0.082375
7.966667	1	0.078750
7.983333	1	0.074750
8.000000	1	0.071250
8.016667	1	0.067750
8.033333	1	0.064750
8.050000	1	0.061500
8.066667	1	0.058750
8.083333	1	0.055375
8.100000	1	0.052875
8.116667	1	0.050375
8.133333	1	0.048000
8.150000	1	0.045500
8.166667	1	0.043250
8.183333	1	0.041250
8.200000	1	0.038250
8.216667	1	0.036125
8.233333	1	0.034125
8.250000	1	0.032000
8.266667	1	0.029875
8.283333	1	0.027375
8.300000	1	0.025875
8.316667	1	0.023750
8.333333	1	0.022250
8.350000	1	0.021250
8.366667	1	0.019500
8.383333	1	0.018625
8.400000	1	0.017500
8.416667	1	0.016250
8.433333	1	0.013500
8.450000	1	0.012500
8.466667	1	0.012500
8.483333	1	0.011750
8.500000	1	0.011125
8.516667	1	0.011000
8.533333	1	0.011000
8.550000	1	0.010875
8.566667	1	0.010750
8.583333	1	0.010500
8.600000	1	0.009875
8.616667	1	0.009750
8.633333	1	0.009250
8.650000	1	0.009500
8.666667	1	0.009625
8.683333	1	0.010625
8.700000	1	0.010875
8.716667	1	0.011500
8.733333	1	0.012125
8.750000	1	0.013125
8.766667	1	0.014000
8.783333	1	0.014250
8.800000	1	0.014625
8.816667	1	0.015500
8.833333	1	0.016125
8.850000	1	0.016625
8.866667	1	0.017000
8.883333	1	0.017500
8.900000	1	0.018375
8.916667	1	0.018500
8.933333	1	0.019500
8.950000	1	0.020375
8.966667	1	0.020875
8.983333	1	0.021125
9.000000	1	0.021500
9.016667	1	0.021875
9.033333	1	0.021625
9.050000	1	0.021750
9.066667	1	0.021500
9.083333	1	0.022000
9.100000	1	0.022125
9.116667	1	0.022000
9.133333	1	0.021625
9.150000	1	0.022125
9.166667	1	0.022500
9.183333	1	0.021125
9.200000	1	0.020500
9.216667	1	0.019500
9.233333	1	0.018500
9.250000	1	0.018125
9.266667	1	0.017125
9.283333	1	0.016375
9.300000	1	0.014875
9.316667	1	0.013250
9.333333	1	0.012625
9.350000	1	0.011500
9.366667	1	0.010875
9.383333	1	0.009375
9.400000	1	0.008375
9.416667	1	0.007375
9.433333	1	0.006750
9.450000	1	0.005875
9.466667	1	0.004875
9.483333	1	0.004500
9.500000	1	0.004000
9.516667	1	0.003750
9.533333	1	0.003875
9.550000	1	0.003750
9.566667	1	0.003500
9.583333	1	0.003125
9.600000	1	0.002875
9.616667	1	0.002375
9.633333	1	0.002625
9.650000	1	0.003125
9.666667	1	0.003250
9.683333	1	0.004250
9.700000	1	0.005375
9.716667	1	0.005500
9.733333	1	0.005875
9.750000	1	0.007125
9.766667	1	0.008250
9.783333	1	0.009625
9.800000	1	0.010375
9.816667	1	0.011875
9.833333	1	0.012875
9.850000	1	0.013250
9.866667	1	0.014125
9.883333	1	0.016000
9.900000	1	0.017000
9.916667	1	0.018250
9.933333	1	0.019000
9.950000	1	0.020250
9.966667	1	0.021000
9.983333	1	0.021625
10.000000	1	0.023375
10.016667	1	0.024875
10.033333	1	0.027000
10.050000	1	0.029125
10.066667	1	0.031875
10.083333	1	0.034875
10.100000	1	0.039000
10.116667	1	0.044000
10.133333	1	0.049625
10.150000	1	0.056375
10.166667	1	0.064250
10.183333	1	0.072625
10.200000	1	0.082250
10.216667	1	0.094250
10.233333	1	0.107375
10.250000	1	0.122125
10.266667	1	0.139000
10.283333	1	0.157875
10.300000	1	0.179125
10.316667	1	0.202375
10.333333	1	0.228250
10.350000	1	0.256375
10.366667	1	0.284125
10.383333	1	0.310250
10.400000	1	0.331500
10.416667	1	0.345625
10.433333	1	0.347500
10.450000	1	0.334875
10.466667	1	0.306000
10.483333	1	0.264375
10.500000	1	0.221125
10.516667	1	0.199000
10.533333	1	0.236500
10.550000	1	0.386625
10.566667	1	0.717250
10.583333	1	1.302375
10.600000	1	2.216125
10.616667	1	3.524875
10.633333	1	5.278750
10.650000	1	7.509375
10.666667	1	10.236250
10.683333	1	13.457375
10.700000	1	17.152875
10.716667	1	21.277125
10.733333	1	25.758500
10.750000	1	30.480625
10.766667	1	35.271875
10.783333	1	39.895125
10.800000	1	44.032375
10.816667	1	47.294250
10.833333	1	49.277875
10.850000	1	49.660500
10.866667	1	48.302875
10.883333	1	45.322250
10.900000	1	41.074625
10.916667	1	36.065375
10.933333	1	30.809750
10.950000	1	25.726750
10.966667	1	21.096875
10.983333	1	17.064750
11.000000	1	13.673000
11.016667	1	10.896250
11.033333	1	8.673000
11.050000	1	6.923750
11.066667	1	5.564875
11.083333	1	4.519000
11.100000	1	3.718625
11.116667	1	3.107375
11.133333	1	2.639875
11.150000	1	2.280250
11.166667	1	2.003250
11.183333	1	1.786625
11.200000	1	1.616000
11.216667	1	1.480125
11.233333	1	1.370750
11.250000	1	1.281125
11.266667	1	1.206625
11.283333	1	1.144000
11.300000	1	1.091250
11.316667	1	1.046375
11.333333	1	1.007875
11.350000	1	0.974625
11.366667	1	0.945750
11.383333	1	0.920250
11.400000	1	0.899250
11.416667	1	0.880625
11.433333	1	0.864375
11.450000	1	0.851375
11.466667	1	0.840125
11.483333	1	0.830500
11.500000	1	0.822125
11.516667	1	0.815625
11.533333	1	0.810500
11.550000	1	0.806500
11.566667	1	0.803375
11.583333	1	0.801625
11.600000	1	0.801250
11.616667	1	0.802000
11.633333	1	0.803875
11.650000	1	0.806750
11.666667	1	0.811125
11.683333	1	0.816750
11.700000	1	0.823625
11.716667	1	0.831500
11.733333	1	0.840875
11.750000	1	0.850375
11.766667	1	0.860375
11.783333	1	0.871125
11.800000	1	0.881625
11.816667	1	0.891750
11.833333	1	0.901000
11.850000	1	0.910625
11.866667	1	0.919750
11.883333	1	0.927375
11.900000	1	0.933625
11.916667	1	0.940125
11.933333	1	0.944625
11.950000	1	0.948750
11.966667	1	0.952500
11.983333	1	0.956500
12.000000	1	0.959500
12.016667	1	0.962875
12.033333	1	0.966250
12.050000	1	0.969625
12.066667	1	0.973500
12.083333	1	0.977375
12.100000	1	0.982750
12.116667	1	0.988625
12.133333	1	0.995000
12.150000	1	1.001500
12.166667	1	1.009250
12.183333	1	1.017750
12.200000	1	1.027250
12.216667	1	1.039125
12.233333	1	1.053500
12.250000	1	1.071375
12.266667	1	1.095000
12.283333	1	1.123625
12.300000	1	1.160500
12.316667	1	1.208000
12.333333	1	1.269250
12.350000	1	1.345250
12.366667	1	1.442750
12.383333	1	1.564750
12.400000	1	1.715875
12.416667	1	1.900500
12.433333	1	2.123750
12.450000	1	2.389375
12.466667	1	2.703875
12.483333	1	3.070125
12.500000	1	3.491250
12.516667	1	3.970250
12.533333	1	4.507250
12.550000	1	5.100000
12.566667	1	5.743375
12.583333	1	6.429750
12.600000	1	7.147750
12.616667	1	7.883125
12.633333	1	8.622750
12.650000	1	9.352500
12.666667	1	10.059750
12.683333	1	10.734375
12.700000	1	11.370000
12.716667	1	11.965125
12.733333	1	12.521250
12.750000	1	13.044875
12.766667	1	13.544500
12.783333	1	14.030375
12.800000	1	14.513875
12.816667	1	15.004875
12.833333	1	15.513250
12.850000	1	16.045250
12.866667	1	16.605250
12.883333	1	17.196750
12.900000	1	17.821375
12.916667	1	18.478250
12.933333	1	19.167500
12.950000	1	19.886500
12.966667	1	20.634000
12.983333	1	21.408625
13.000000	1	22.207250
13.016667	1	23.029375
13.033333	1	23.873625
13.050000	1	24.741125
13.066667	1	25.629000
13.083333	1	26.539000
13.100000	1	27.469625
13.116667	1	28.420125
13.133333	1	29.389750
13.150000	1	30.377750
13.166667	1	31.385250
13.183333	1	32.411500
13.200000	1	33.455625
13.216667	1	34.517500
13.233333	1	35.599875
13.250000	1	36.703625
13.266667	1	37.828125
13.283333	1	38.974500
13.300000	1	40.143500
13.316667	1	41.334375
13.333333	1	42.548250
13.350000	1	43.785375
13.366667	1	45.045500
13.383333	1	46.329250
13.400000	1	47.637500
13.416667	1	48.970000
13.433333	1	50.329125
13.450000	1	51.716125
13.466667	1	53.132125
13.483333	1	54.578000
13.500000	1	56.054125
13.516667	1	57.559625
13.533333	1	59.095250
13.550000	1	60.662500
13.566667	1	62.261000
13.583333	1	63.890750
13.600000	1	65.552375
13.616667	1	67.247500
13.633333	1	68.977250
13.650000	1	70.745375
13.666667	1	72.551250
13.683333	1	74.396875
13.700000	1	76.277875
13.716667	1	78.174750
13.733333	1	80.021000
13.750000	1	81.663125
13.766667	1	82.845500
13.783333	1	83.241625
13.800000	1	82.511125
13.816667	1	80.334375
13.833333	1	76.453500
13.850000	1	70.757250
13.866667	1	63.424375
13.883333	1	54.987750
13.900000	1	46.219875
13.916667	1	37.889375
13.933333	1	30.528125
13.950000	1	24.366250
13.966667	1	19.395375
13.983333	1	15.480875
14.000000	1	12.446250
14.016667	1	10.121000
14.033333	1	8.361125
14.050000	1	7.044125
14.066667	1	6.067250
14.083333	1	5.345875
14.100000	1	4.812750
14.116667	1	4.414750
14.133333	1	4.113875
14.150000	1	3.881375
14.166667	1	3.698125
14.183333	1	3.550750
14.200000	1	3.429250
14.216667	1	3.326625
14.233333	1	3.238500
14.250000	1	3.161250
14.266667	1	3.091875
14.283333	1	3.030750
14.300000	1	2.975875
14.316667	1	2.926000
14.333333	1	2.881375
14.350000	1	2.842250
14.366667	1	2.808875
14.383333	1	2.781750
14.400000	1	2.760875
14.416667	1	2.749125
14.433333	1	2.747750
14.450000	1	2.760875
14.466667	1	2.792625
14.483333	1	2.851750
14.500000	1	2.946875
14.516667	1	3.092000
14.533333	1	3.306625
14.550000	1	3.617875
14.566667	1	4.059875
14.583333	1	4.674625
14.600000	1	5.514625
14.616667	1	6.642000
14.633333	1	8.126125
14.650000	1	10.037000
14.666667	1	12.441500
14.683333	1	15.392625
14.700000	1	18.917375
14.716667	1	23.011125
14.733333	1	27.631375
14.750000	1	32.686500
14.766667	1	38.035375
14.783333	1	43.485625
14.800000	1	48.820500
14.816667	1	53.802500
14.833333	1	58.187000
14.850000	1	61.747250
14.866667	1	64.295875
14.883333	1	65.704750
14.900000	1	65.912375
14.916667	1	64.937000
14.933333	1	62.863625
14.950000	1	59.839750
14.966667	1	56.057875
14.983333	1	51.733500
15.000000	1	47.078250
15.016667	1	42.292375
15.033333	1	37.550000
15.050000	1	32.995500
15.066667	1	28.736250
15.083333	1	24.842000
15.100000	1	21.351125
15.116667	1	18.273375
15.133333	1	15.597750
15.150000	1	13.299625
15.166667	1	11.346125
15.183333	1	9.700500
15.200000	1	8.322500
15.216667	1	7.175375
15.233333	1	6.225250
15.250000	1	5.441875
15.266667	1	4.799875
15.283333	1	4.274625
15.300000	1	3.849750
15.316667	1	3.507125
15.333333	1	3.235000
15.350000	1	3.020000
15.366667	1	2.853125
15.383333	1	2.725750
15.400000	1	2.630375
15.416667	1	2.560875
15.433333	1	2.511625
15.450000	1	2.477250
15.466667	1	2.453375
15.483333	1	2.435250
15.500000	1	2.417875
15.516667	1	2.400125
15.533333	1	2.379625
15.550000	1	2.355500
15.566667	1	2.325625
15.583333	1	2.291625
15.600000	1	2.253875
15.616667	1	2.213750
15.633333	1	2.172750
15.650000	1	2.132125
15.666667	1	2.091750
15.683333	1	2.052875
15.700000	1	2.015750
15.716667	1	1.981250
15.733333	1	1.948250
15.750000	1	1.916500
15.766667	1	1.886375
15.783333	1	1.856375
15.800000	1	1.827250
15.816667	1	1.797625
15.833333	1	1.768125
15.850000	1	1.738625
15.866667	1	1.711250
15.883333	1	1.685000
15.900000	1	1.661000
15.916667	1	1.639750
15.933333	1	1.622000
15.950000	1	1.607750
15.966667	1	1.597375
15.983333	1	1.589750
16.000000	1	1.584625
16.016667	1	1.582125
16.033333	1	1.581375
16.050000	1	1.580875
16.066667	1	1.580625
16.083333	1	1.579000
16.100000	1	1.576750
16.116667	1	1.571875
16.133333	1	1.563750
16.150000	1	1.554125
16.166667	1	1.541500
16.183333	1	1.527250
16.200000	1	1.511500
16.216667	1	1.494125
16.233333	1	1.476375
16.250000	1	1.457750
16.266667	1	1.439000
16.283333	1	1.419125
16.300000	1	1.399750
16.316667	1	1.380500
16.333333	1	1.362125
16.350000	1	1.344375
16.366667	1	1.328250
16.383333	1	1.313875
16.400000	1	1.300625
16.416667	1	1.289250
16.433333	1	1.279750
16.450000	1	1.273625
16.466667	1	1.270250
16.483333	1	1.268625
16.500000	1	1.269875
16.516667	1	1.272875
16.533333	1	1.277750
16.550000	1	1.283250
16.566667	1	1.288625
16.583333	1	1.294250
16.600000	1	1.299250
16.616667	1	1.303125
16.633333	1	1.305125
16.650000	1	1.305500
16.666667	1	1.304250
16.683333	1	1.302250
16.700000	1	1.299000
16.716667	1	1.295250
16.733333	1	1.291250
16.750000	1	1.288125
16.766667	1	1.285375
16.783333	1	1.284000
16.800000	1	1.283500
16.816667	1	1.284000
16.833333	1	1.285625
16.850000	1	1.287625
16.866667	1	1.290125
16.883333	1	1.292625
16.900000	1	1.294000
16.916667	1	1.294375
16.933333	1	1.293625
16.950000	1	1.291375
16.966667	1	1.287375
16.983333	1	1.283000
17.000000	1	1.278000
17.016667	1	1.271500
17.033333	1	1.264625
17.050000	1	1.257000
17.066667	1	1.249625
17.083333	1	1.242125
17.100000	1	1.235750
17.116667	1	1.230250
17.133333	1	1.225125
17.150000	1	1.221000
17.166667	1	1.217125
17.183333	1	1.215000
17.200000	1	1.213875
17.216667	1	1.213750
17.233333	1	1.214375
17.250000	1	1.216125
17.266667	1	1.217875
17.283333	1	1.220750
17.300000	1	1.224250
17.316667	1	1.228875
17.333333	1	1.232750
17.350000	1	1.237750
17.366667	1	1.242000
17.383333	1	1.246500
17.400000	1	1.251250
17.416667	1	1.254750
17.433333	1	1.258125
17.450000	1	1.260375
17.466667	1	1.260875
17.483333	1	1.260250
17.500000	1	1.258500
17.516667	1	1.254250
17.533333	1	1.249125
17.550000	1	1.242375
17.566667	1	1.234250
17.583333	1	1.224625
17.600000	1	1.212875
17.616667	1	1.201000
17.633333	1	1.188375
17.650000	1	1.175500
17.666667	1	1.161625
17.683333	1	1.147500
17.700000	1	1.133500
17.716667	1	1.119125
17.733333	1	1.105500
17.750000	1	1.091750
17.766667	1	1.078375
17.783333	1	1.066000
17.800000	1	1.054125
17.816667	1	1.042750
17.833333	1	1.031750
17.850000	1	1.020250
17.866667	1	1.010000
17.883333	1	1.000875
17.900000	1	0.991500
17.916667	1	0.983000
17.933333	1	0.975125
17.950000	1	0.967250
17.966667	1	0.959250
17.983333	1	0.951250
18.000000	1	0.944000
18.016667	1	0.936500
18.033333	1	0.928500
18.050000	1	0.920500
18.066667	1	0.913000
18.083333	1	0.906250
18.100000	1	0.898625
18.116667	1	0.892250
18.133333	1	0.886375
18.150000	1	0.881250
18.166667	1	0.876750
18.183333	1	0.872000
18.200000	1	0.868500
18.216667	1	0.865875
18.233333	1	0.863875
18.250000	1	0.862500
18.266667	1	0.861625
18.283333	1	0.861250
18.300000	1	0.861375
18.316667	1	0.862000
18.333333	1	0.862375
18.350000	1	0.863500
18.366667	1	0.866000
18.383333	1	0.867125
18.400000	1	0.869125
18.416667	1	0.872500
18.433333	1	0.876500
18.450000	1	0.881000
18.466667	1	0.886625
18.483333	1	0.894750
18.500000	1	0.905250
18.516667	1	0.917500
18.533333	1	0.931250
18.550000	1	0.946875
18.566667	1	0.964625
18.583333	1	0.984375
18.600000	1	1.006500
18.616667	1	1.030500
18.633333	1	1.056625
18.650000	1	1.083875
18.666667	1	1.112250
18.683333	1	1.142875
18.700000	1	1.174375
18.716667	1	1.208000
18.733333	1	1.243000
18.750000	1	1.278125
18.766667	1	1.313750
18.783333	1	1.349750
18.800000	1	1.384500
18.816667	1	1.417750
18.833333	1	1.449500
18.850000	1	1.478250
18.866667	1	1.503250
18.883333	1	1.523875
18.900000	1	1.539625
18.916667	1	1.549500
18.933333	1	1.554375
18.950000	1	1.551875
18.966667	1	1.542625
18.983333	1	1.526750
19.000000	1	1.504500
19.016667	1	1.476500
19.033333	1	1.444000
19.050000	1	1.407625
19.066667	1	1.368875
19.083333	1	1.329375
19.100000	1	1.291125
19.116667	1	1.255625
19.133333	1	1.225625
19.150000	1	1.203375
19.166667	1	1.191125
19.183333	1	1.192125
19.200000	1	1.208750
19.216667	1	1.243250
19.233333	1	1.300125
19.250000	1	1.381625
19.266667	1	1.490875
19.283333	1	1.629750
19.300000	1	1.802125
19.316667	1	2.007750
19.333333	1	2.247125
19.350000	1	2.520875
19.366667	1	2.824125
19.383333	1	3.153500
19.400000	1	3.503250
19.416667	1	3.864625
19.433333	1	4.227625
19.450000	1	4.582250
19.466667	1	4.916625
19.483333	1	5.219875
19.500000	1	5.482250
19.516667	1	5.694125
19.533333	1	5.848125
19.550000	1	5.939875
19.566667	1	5.966375
19.583333	1	5.927625
19.600000	1	5.827125
19.616667	1	5.669875
19.633333	1	5.462250
19.650000	1	5.212625
19.666667	1	4.931250
19.683333	1	4.627375
19.700000	1	4.310250
19.716667	1	3.989000
19.733333	1	3.669375
19.750000	1	3.358375
19.766667	1	3.060250
19.783333	1	2.780000
19.800000	1	2.519000
19.816667	1	2.279500
19.833333	1	2.061375
19.850000	1	1.864625
19.866667	1	1.688875
19.883333	1	1.531750
19.900000	1	1.393375
19.916667	1	1.271625
19.933333	1	1.165500
19.950000	1	1.073750
19.966667	1	0.994000
19.983333	1	0.924750
20.000000	1	0.865750
20.016667	1	0.816000
20.033333	1	0.775125
20.050000	1	0.741500
20.066667	1	0.715250
20.083333	1	0.695625
20.100000	1	0.681500
20.116667	1	0.672375
20.133333	1	0.668000
20.150000	1	0.668000
20.166667	1	0.671125
20.183333	1	0.677500
20.200000	1	0.685875
20.216667	1	0.696000
20.233333	1	0.706500
20.250000	1	0.717375
20.266667	1	0.726250
20.283333	1	0.734125
20.300000	1	0.739875
20.316667	1	0.742625
20.333333	1	0.742375
20.350000	1	0.739625
20.366667	1	0.733750
20.383333	1	0.725000
20.400000	1	0.713375
20.416667	1	0.699375
20.433333	1	0.683875
20.450000	1	0.668125
20.466667	1	0.652250
20.483333	1	0.637375
20.500000	1	0.624500
20.516667	1	0.615125
20.533333	1	0.608500
20.550000	1	0.606750
20.566667	1	0.610375
20.583333	1	0.620500
20.600000	1	0.637625
20.616667	1	0.662500
20.633333	1	0.695375
20.650000	1	0.736875
20.666667	1	0.786750
20.683333	1	0.844750
20.700000	1	0.910750
20.716667	1	0.983500
20.733333	1	1.062750
20.750000	1	1.145875
20.766667	1	1.231625
20.783333	1	1.316250
20.800000	1	1.398625
20.816667	1	1.476375
20.833333	1	1.545000
20.850000	1	1.604000
20.866667	1	1.650625
20.883333	1	1.684125
20.900000	1	1.702750
20.916667	1	1.706125
20.933333	1	1.694875
20.950000	1	1.669500
20.966667	1	1.631625
20.983333	1	1.582250
21.000000	1	1.523500
21.016667	1	1.457750
21.033333	1	1.387625
21.050000	1	1.313750
21.066667	1	1.238375
21.083333	1	1.164750
21.100000	1	1.093750
21.116667	1	1.026250
21.133333	1	0.963125
21.150000	1	0.903625
21.166667	1	0.849125
21.183333	1	0.800250
21.200000	1	0.756375
21.216667	1	0.717500
21.233333	1	0.683000
21.250000	1	0.652875
21.266667	1	0.626250
21.283333	1	0.604000
21.300000	1	0.584625
21.316667	1	0.567250
21.333333	1	0.553375
21.350000	1	0.542125
21.366667	1	0.532250
21.383333	1	0.523375
21.400000	1	0.515750
21.416667	1	0.510125
21.433333	1	0.504875
21.450000	1	0.500250
21.466667	1	0.497000
21.483333	1	0.494625
21.500000	1	0.492625
21.516667	1	0.492125
21.533333	1	0.491875
21.550000	1	0.492500
21.566667	1	0.493875
21.583333	1	0.496625
21.600000	1	0.499875
21.616667	1	0.506000
21.633333	1	0.512500
21.650000	1	0.520625
21.666667	1	0.530750
21.683333	1	0.542250
21.700000	1	0.556000
21.716667	1	0.572125
21.733333	1	0.590250
21.750000	1	0.609500
21.766667	1	0.631375
21.783333	1	0.654625
21.800000	1	0.679250
21.816667	1	0.705625
21.833333	1	0.731500
21.850000	1	0.757875
21.866667	1	0.783375
21.883333	1	0.808375
21.900000	1	0.832000
21.916667	1	0.853875
21.933333	1	0.873000
21.950000	1	0.889500
21.966667	1	0.903500
21.983333	1	0.913375
22.000000	1	0.920875
22.016667	1	0.924500
22.033333	1	0.925000
22.050000	1	0.922750
22.066667	1	0.917625
22.083333	1	0.909250
22.100000	1	0.898875
22.116667	1	0.887125
22.133333	1	0.873500
22.150000	1	0.858500
22.166667	1	0.842375
22.183333	1	0.825000
22.200000	1	0.806875
22.216667	1	0.788625
22.233333	1	0.769500
22.250000	1	0.750000
22.266667	1	0.730125
22.283333	1	0.710125
22.300000	1	0.690125
22.316667	1	0.670250
22.333333	1	0.650500
22.350000	1	0.630750
22.366667	1	0.611750
22.383333	1	0.593625
22.400000	1	0.574625
22.416667	1	0.557000
22.433333	1	0.539750
22.450000	1	0.523625
22.466667	1	0.508500
22.483333	1	0.494000
22.500000	1	0.480125
22.516667	1	0.468125
22.533333	1	0.456125
22.550000	1	0.445250
22.566667	1	0.435000
22.583333	1	0.425250
22.600000	1	0.415875
22.616667	1	0.407500
22.633333	1	0.399625
22.650000	1	0.391250
22.666667	1	0.384500
22.683333	1	0.377750
22.700000	1	0.371500
22.716667	1	0.366000
22.733333	1	0.360875
22.750000	1	0.355875
22.766667	1	0.351625
22.783333	1	0.347500
22.800000	1	0.344125
22.816667	1	0.340125
22.833333	1	0.336750
22.850000	1	0.334000
22.866667	1	0.331875
22.883333	1	0.329125
22.900000	1	0.327125
22.916667	1	0.325875
22.933333	1	0.325625
22.950000	1	0.325500
22.966667	1	0.325250
22.983333	1	0.325250
23.000000	1	0.326250
23.016667	1	0.328250
23.033333	1	0.329625
23.050000	1	0.332000
23.066667	1	0.334625
23.083333	1	0.337625
23.100000	1	0.340375
23.116667	1	0.342875
23.133333	1	0.345750
23.150000	1	0.349375
23.166667	1	0.352125
23.183333	1	0.355750
23.200000	1	0.359250
23.216667	1	0.363125
23.233333	1	0.367250
23.250000	1	0.372250
23.266667	1	0.377750
23.283333	1	0.384750
23.300000	1	0.393250
23.316667	1	0.404500
23.333333	1	0.418250
23.350000	1	0.435875
23.366667	1	0.457750
23.383333	1	0.485875
23.400000	1	0.520375
23.416667	1	0.564625
23.433333	1	0.619125
23.450000	1	0.685125
23.466667	1	0.766125
23.483333	1	0.863500
23.500000	1	0.979875
23.516667	1	1.116250
23.533333	1	1.275500
23.550000	1	1.459125
23.566667	1	1.668875
23.583333	1	1.905000
23.600000	1	2.167500
23.616667	1	2.455000
23.633333	1	2.767375
23.650000	1	3.099875
23.666667	1	3.449250
23.683333	1	3.810375
23.700000	1	4.179250
23.716667	1	4.547625
23.733333	1	4.908375
23.750000	1	5.252750
23.766667	1	5.573000
23.783333	1	5.862750
23.800000	1	6.114625
23.816667	1	6.321875
23.833333	1	6.479875
23.850000	1	6.586000
23.866667	1	6.637500
23.883333	1	6.635000
23.900000	1	6.578000
23.916667	1	6.470250
23.933333	1	6.316000
23.950000	1	6.119375
23.966667	1	5.886500
23.983333	1	5.623875
24.000000	1	5.338375
24.016667	1	5.036250
24.033333	1	4.724750
24.050000	1	4.409625
24.066667	1	4.095625
24.083333	1	3.786625
24.100000	1	3.487125
24.116667	1	3.200125
24.133333	1	2.927875
24.150000	1	2.671500
24.166667	1	2.432500
24.183333	1	2.211750
24.200000	1	2.008500
24.216667	1	1.823500
24.233333	1	1.655500
24.250000	1	1.504500
24.266667	1	1.368125
24.283333	1	1.246500
24.300000	1	1.138375
24.316667	1	1.042875
24.333333	1	0.958500
24.350000	1	0.884500
24.366667	1	0.819625
24.383333	1	0.763750
24.400000	1	0.715875
24.416667	1	0.675250
24.433333	1	0.640500
24.450000	1	0.611125
24.466667	1	0.587250
24.483333	1	0.567875
24.500000	1	0.551875
24.516667	1	0.538625
24.533333	1	0.527750
24.550000	1	0.518125
24.566667	1	0.510750
24.583333	1	0.504625
24.600000	1	0.499500
24.616667	1	0.494750
24.633333	1	0.489750
24.650000	1	0.485125
24.666667	1	0.480625
24.683333	1	0.475875
24.700000	1	0.471250
24.716667	1	0.466250
24.733333	1	0.461000
24.750000	1	0.454625
24.766667	1	0.449375
24.783333	1	0.444000
24.800000	1	0.437625
24.816667	1	0.431125
24.833333	1	0.424625
24.850000	1	0.418375
24.866667	1	0.411875
24.883333	1	0.405875
24.900000	1	0.400625
24.916667	1	0.394875
24.933333	1	0.389375
24.950000	1	0.383375
24.966667	1	0.378625
24.983333	1	0.373875
25.000000	1	0.369125
25.016667	1	0.365125
25.033333	1	0.361250
25.050000	1	0.357125
25.066667	1	0.353000
25.083333	1	0.349750
25.100000	1	0.346125
25.116667	1	0.342125
25.133333	1	0.338375
25.150000	1	0.335375
25.166667	1	0.331500
25.183333	1	0.328375
25.200000	1	0.325625
25.216667	1	0.322875
25.233333	1	0.320000
25.250000	1	0.316875
25.266667	1	0.314375
25.283333	1	0.311625
25.300000	1	0.309250
25.316667	1	0.307000
25.333333	1	0.303875
25.350000	1	0.302000
25.366667	1	0.300625
25.383333	1	0.299375
25.400000	1	0.298375
25.416667	1	0.297125
25.433333	1	0.296375
25.450000	1	0.295750
25.466667	1	0.295125
25.483333	1	0.296000
25.500000	1	0.296500
25.516667	1	0.297125
25.533333	1	0.297625
25.550000	1	0.298250
25.566667	1	0.299125
25.583333	1	0.298875
25.600000	1	0.299875
25.616667	1	0.300875
25.633333	1	0.301750
25.650000	1	0.302250
25.666667	1	0.302875
25.683333	1	0.303750
25.700000	1	0.304000
25.716667	1	0.304250
25.733333	1	0.304250
25.750000	1	0.304125
25.766667	1	0.304125
25.783333	1	0.303750
25.800000	1	0.303875
25.816667	1	0.303875
25.833333	1	0.303875
25.850000	1	0.304625
25.866667	1	0.305250
25.883333	1	0.306375
25.900000	1	0.307250
25.916667	1	0.308375
25.933333	1	0.310125
25.950000	1	0.312000
25.966667	1	0.314625
25.983333	1	0.317750
26.000000	1	0.321125
26.016667	1	0.324625
26.033333	1	0.329250
26.050000	1	0.334500
26.066667	1	0.339875
26.083333	1	0.345125
26.100000	1	0.350375
26.116667	1	0.356000
26.133333	1	0.361875
26.150000	1	0.367750
26.166667	1	0.373875
26.183333	1	0.379750
26.200000	1	0.384750
26.216667	1	0.389500
26.233333	1	0.394250
26.250000	1	0.399000
26.266667	1	0.403625
26.283333	1	0.406625
26.300000	1	0.409125
26.316667	1	0.411000
26.333333	1	0.412750
26.350000	1	0.412750
26.366667	1	0.411625
26.383333	1	0.410750
26.400000	1	0.409250
26.416667	1	0.407125
26.433333	1	0.403375
26.450000	1	0.399250
26.466667	1	0.394750
26.483333	1	0.388875
26.500000	1	0.383500
26.516667	1	0.377250
26.533333	1	0.370375
26.550000	1	0.363875
26.566667	1	0.356125
26.583333	1	0.348875
26.600000	1	0.340875
26.616667	1	0.333250
26.633333	1	0.325125
26.650000	1	0.317625
26.666667	1	0.310625
26.683333	1	0.303750
26.700000	1	0.296625
26.716667	1	0.289125
26.733333	1	0.282625
26.750000	1	0.276125
26.766667	1	0.270250
26.783333	1	0.265250
26.800000	1	0.260875
26.816667	1	0.256375
26.833333	1	0.252750
26.850000	1	0.249625
26.866667	1	0.246750
26.883333	1	0.244625
26.900000	1	0.242375
26.916667	1	0.241250
26.933333	1	0.240375
26.950000	1	0.239625
26.966667	1	0.240000
26.983333	1	0.239875
27.000000	1	0.241125
27.016667	1	0.243250
27.033333	1	0.245750
27.050000	1	0.249000
27.066667	1	0.253000
27.083333	1	0.256875
27.100000	1	0.262250
27.116667	1	0.268250
27.133333	1	0.274875
27.150000	1	0.282250
27.166667	1	0.291875
27.183333	1	0.303000
27.200000	1	0.316875
27.216667	1	0.331750
27.233333	1	0.348875
27.250000	1	0.370000
27.266667	1	0.393500
27.283333	1	0.422250
27.300000	1	0.453625
27.316667	1	0.491375
27.333333	1	0.534750
27.350000	1	0.584125
27.366667	1	0.640250
27.383333	1	0.705125
27.400000	1	0.779500
27.416667	1	0.862625
27.433333	1	0.957250
27.450000	1	1.063125
27.466667	1	1.182000
27.483333	1	1.312875
27.500000	1	1.456625
27.516667	1	1.612625
27.533333	1	1.781250
27.550000	1	1.961875
27.566667	1	2.153500
27.583333	1	2.355125
27.600000	1	2.564000
27.616667	1	2.780000
27.633333	1	3.000500
27.650000	1	3.222875
27.666667	1	3.444375
27.683333	1	3.661250
27.700000	1	3.871000
27.716667	1	4.068625
27.733333	1	4.251875
27.750000	1	4.416875
27.766667	1	4.561500
27.783333	1	4.682375
27.800000	1	4.777625
27.816667	1	4.845250
27.833333	1	4.883125
27.850000	1	4.891000
27.866667	1	4.869625
27.883333	1	4.818625
27.900000	1	4.738875
27.916667	1	4.632500
27.933333	1	4.500625
27.950000	1	4.347125
27.966667	1	4.175750
27.983333	1	3.989375
28.000000	1	3.790625
28.016667	1	3.583000
28.033333	1	3.369750
28.050000	1	3.155000
28.066667	1	2.940750
28.083333	1	2.729125
28.100000	1	2.523500
28.116667	1	2.325125
28.133333	1	2.136750
28.150000	1	1.958125
28.166667	1	1.790250
28.183333	1	1.634875
28.200000	1	1.490750
28.216667	1	1.358500
28.233333	1	1.239000
28.250000	1	1.130000
28.266667	1	1.031000
28.283333	1	0.943750
28.300000	1	0.865000
28.316667	1	0.796125
28.333333	1	0.736125
28.350000	1	0.683250
28.366667	1	0.638250
28.383333	1	0.599500
28.400000	1	0.567250
28.416667	1	0.540750
28.433333	1	0.519125
28.450000	1	0.502125
28.466667	1	0.489375
28.483333	1	0.480625
28.500000	1	0.474750
28.516667	1	0.472000
28.533333	1	0.471625
28.550000	1	0.473375
28.566667	1	0.478125
28.583333	1	0.483875
28.600000	1	0.491375
28.616667	1	0.499625
28.633333	1	0.509375
28.650000	1	0.519125
28.666667	1	0.528625
28.683333	1	0.539000
28.700000	1	0.549750
28.716667	1	0.559500
28.733333	1	0.569000
28.750000	1	0.577250
28.766667	1	0.585000
28.783333	1	0.592625
28.800000	1	0.599750
28.816667	1	0.605625
28.833333	1	0.610375
28.850000	1	0.613375
28.866667	1	0.615750
28.883333	1	0.616625
28.900000	1	0.616125
28.916667	1	0.614875
28.933333	1	0.612250
28.950000	1	0.608000
28.966667	1	0.603000
28.983333	1	0.597125
29.000000	1	0.590625
29.016667	1	0.582000
29.033333	1	0.572750
29.050000	1	0.563125
29.066667	1	0.552125
29.083333	1	0.540750
29.100000	1	0.528375
29.116667	1	0.516000
29.133333	1	0.502500
29.150000	1	0.488750
29.166667	1	0.475750
29.183333	1	0.462125
29.200000	1	0.448125
29.216667	1	0.434375
29.233333	1	0.421000
29.250000	1	0.407750
29.266667	1	0.394250
29.283333	1	0.381000
29.300000	1	0.368625
29.316667	1	0.356500
29.333333	1	0.344250
29.350000	1	0.332750
29.366667	1	0.321625
29.383333	1	0.310500
29.400000	1	0.300375
29.416667	1	0.290625
29.433333	1	0.281375
29.450000	1	0.271875
29.466667	1	0.263500
29.483333	1	0.255250
29.500000	1	0.247625
29.516667	1	0.241000
29.533333	1	0.233625
29.550000	1	0.227250
29.566667	1	0.221750
29.583333	1	0.216375
29.600000	1	0.211125
29.616667	1	0.206000
29.633333	1	0.201375
29.650000	1	0.196250
29.666667	1	0.192500
29.683333	1	0.189000
29.700000	1	0.185375
29.716667	1	0.181750
29.733333	1	0.178000
29.750000	1	0.175125
29.766667	1	0.173125
29.783333	1	0.170625
29.800000	1	0.168750
29.816667	1	0.166375
29.833333	1	0.163625
29.850000	1	0.161750
29.866667	1	0.159750
29.883333	1	0.157500
29.900000	1	0.156500
29.916667	1	0.155625
29.933333	1	0.154875
29.950000	1	0.154750
29.966667	1	0.153875
29.983333	1	0.153000
30.000000	1	0.152000
30.016667	1	0.153125
30.033333	1	0.153625
30.050000	1	0.153625
30.066667	1	0.153625
30.083333	1	0.154375
30.100000	1	0.155250
30.116667	1	0.155875
30.133333	1	0.156625
30.150000	1	0.157875
30.166667	1	0.158875
30.183333	1	0.160500
30.200000	1	0.162000
30.216667	1	0.163625
30.233333	1	0.165750
30.250000	1	0.167500
30.266667	1	0.168875
30.283333	1	0.170250
30.300000	1	0.171625
30.316667	1	0.173375
30.333333	1	0.175250
30.350000	1	0.176875
30.366667	1	0.178625
30.383333	1	0.180250
30.400000	1	0.182000
30.416667	1	0.184125
30.433333	1	0.185625
30.450000	1	0.187375
30.466667	1	0.188875
30.483333	1	0.191375
30.500000	1	0.194000
30.516667	1	0.196500
30.533333	1	0.199125
30.550000	1	0.201750
30.566667	1	0.205500
30.583333	1	0.209375
30.600000	1	0.213875
30.616667	1	0.218750
30.633333	1	0.224125
30.650000	1	0.230125
30.666667	1	0.236625
30.683333	1	0.243250
30.700000	1	0.249750
30.716667	1	0.257125
30.733333	1	0.265750
30.750000	1	0.274500
30.766667	1	0.284125
30.783333	1	0.294375
30.800000	1	0.306375
30.816667	1	0.319375
30.833333	1	0.333250
30.850000	1	0.348250
30.866667	1	0.364000
30.883333	1	0.381750
30.900000	1	0.401000
30.916667	1	0.422250
30.933333	1	0.446250
30.950000	1	0.473625
30.966667	1	0.504625
30.983333	1	0.539375
31.000000	1	0.578500
31.016667	1	0.622125
31.033333	1	0.672250
31.050000	1	0.729625
31.066667	1	0.793875
31.083333	1	0.866250
31.100000	1	0.946875
31.116667	1	1.036625
31.133333	1	1.135750
31.150000	1	1.245125
31.166667	1	1.366750
31.183333	1	1.499125
31.200000	1	1.643375
31.216667	1	1.798875
31.233333	1	1.965500
31.250000	1	2.143000
31.266667	1	2.330125
31.283333	1	2.525750
31.300000	1	2.730125
31.316667	1	2.940750
31.333333	1	3.154750
31.350000	1	3.371500
31.366667	1	3.588000
31.383333	1	3.802500
31.400000	1	4.012500
31.416667	1	4.215375
31.433333	1	4.407750
31.450000	1	4.588375
31.466667	1	4.752000
31.483333	1	4.898750
31.500000	1	5.025875
31.516667	1	5.132375
31.533333	1	5.216750
31.550000	1	5.276625
31.566667	1	5.312750
31.583333	1	5.324375
31.600000	1	5.311500
31.616667	1	5.274000
31.633333	1	5.213250
31.650000	1	5.131125
31.666667	1	5.028750
31.683333	1	4.907250
31.700000	1	4.769000
31.716667	1	4.617250
31.733333	1	4.452125
31.750000	1	4.277125
31.766667	1	4.094500
31.783333	1	3.905625
31.800000	1	3.712125
31.816667	1	3.517000
31.833333	1	3.321875
31.850000	1	3.129125
31.866667	1	2.939750
31.883333	1	2.754875
31.900000	1	2.575125
31.916667	1	2.402000
31.933333	1	2.236750
31.950000	1	2.079250
31.966667	1	1.929875
31.983333	1	1.788250
32.000000	1	1.655375
32.016667	1	1.530750
32.033333	1	1.414000
32.050000	1	1.305125
32.066667	1	1.204250
32.083333	1	1.110250
32.100000	1	1.023625
32.116667	1	0.942750
32.133333	1	0.869125
32.150000	1	0.801625
32.166667	1	0.739250
32.183333	1	0.681875
32.200000	1	0.628875
32.216667	1	0.579875
32.233333	1	0.535125
32.250000	1	0.494000
32.266667	1	0.456750
32.283333	1	0.422000
32.300000	1	0.390500
32.316667	1	0.361875
32.333333	1	0.334375
32.350000	1	0.310875
32.366667	1	0.288750
32.383333	1	0.268500
32.400000	1	0.250875
32.416667	1	0.234750
32.433333	1	0.218750
32.450000	1	0.205125
32.466667	1	0.192625
32.483333	1	0.181250
32.500000	1	0.171000
32.516667	1	0.161750
32.533333	1	0.153625
32.550000	1	0.146375
32.566667	1	0.139500
32.583333	1	0.133125
32.600000	1	0.128125
32.616667	1	0.123000
32.633333	1	0.118625
32.650000	1	0.114500
32.666667	1	0.110375
32.683333	1	0.107125
32.700000	1	0.104375
32.716667	1	0.101875
32.733333	1	0.099000
32.750000	1	0.096500
32.766667	1	0.094625
32.783333	1	0.092625
32.800000	1	0.090500
32.816667	1	0.088375
32.833333	1	0.086250
32.850000	1	0.085250
32.866667	1	0.084000
32.883333	1	0.082875
32.900000	1	0.081875
32.916667	1	0.079625
32.933333	1	0.078500
32.950000	1	0.077375
32.966667	1	0.076375
32.983333	1	0.075625
33.000000	1	0.075250
33.016667	1	0.074625
33.033333	1	0.074125
33.050000	1	0.073875
33.066667	1	0.073750
33.083333	1	0.074000
33.100000	1	0.074125
33.116667	1	0.073625
33.133333	1	0.074125
33.150000	1	0.075000
33.166667	1	0.075875
33.183333	1	0.076625
33.200000	1	0.077500
33.216667	1	0.077875
33.233333	1	0.078250
33.250000	1	0.079750
33.266667	1	0.081000
33.283333	1	0.082625
33.300000	1	0.084125
33.316667	1	0.085625
33.333333	1	0.087375
33.350000	1	0.088875
33.366667	1	0.090750
33.383333	1	0.092250
33.400000	1	0.093500
33.416667	1	0.095500
33.433333	1	0.097375
33.450000	1	0.099125
33.466667	1	0.100375
33.483333	1	0.101500
33.500000	1	0.103500
33.516667	1	0.105750
33.533333	1	0.108250
33.550000	1	0.109875
33.566667	1	0.111500
33.583333	1	0.113500
33.600000	1	0.114875
33.616667	1	0.116625
33.633333	1	0.118500
33.650000	1	0.120125
33.666667	1	0.121625
33.683333	1	0.123125
33.700000	1	0.125125
33.716667	1	0.127000
33.733333	1	0.128875
33.750000	1	0.130500
33.766667	1	0.131625
33.783333	1	0.133625
33.800000	1	0.135125
33.816667	1	0.136750
33.833333	1	0.137375
33.850000	1	0.138875
33.866667	1	0.140250
33.883333	1	0.140875
33.900000	1	0.142000
33.916667	1	0.143000
33.933333	1	0.144000
33.950000	1	0.144875
33.966667	1	0.146375
33.983333	1	0.146500
34.000000	1	0.146875
34.016667	1	0.147000
34.033333	1	0.147375
34.050000	1	0.146625
34.066667	1	0.147000
34.083333	1	0.146125
34.100000	1	0.145500
34.116667	1	0.144750
34.133333	1	0.143750
34.150000	1	0.143000
34.166667	1	0.142500
34.183333	1	0.142500
34.200000	1	0.141750
34.216667	1	0.141500
34.233333	1	0.140250
34.250000	1	0.140125
34.266667	1	0.140000
34.283333	1	0.139375
34.300000	1	0.138875
34.316667	1	0.138875
34.333333	1	0.139375
34.350000	1	0.139625
34.366667	1	0.140000
34.383333	1	0.141000
34.400000	1	0.141500
34.416667	1	0.142000
34.433333	1	0.142875
34.450000	1	0.144125
34.466667	1	0.145375
34.483333	1	0.147000
34.500000	1	0.148000
34.516667	1	0.149375
34.533333	1	0.150500
34.550000	1	0.152125
34.566667	1	0.154000
34.583333	1	0.155125
34.600000	1	0.157000
34.616667	1	0.158500
34.633333	1	0.159875
34.650000	1	0.160875
34.666667	1	0.161625
34.683333	1	0.163125
34.700000	1	0.164125
34.716667	1	0.164500
34.733333	1	0.165000
34.750000	1	0.166125
34.766667	1	0.166625
34.783333	1	0.166875
34.800000	1	0.167000
34.816667	1	0.167250
34.833333	1	0.166500
34.850000	1	0.166875
34.866667	1	0.166375
34.883333	1	0.166250
34.900000	1	0.165750
34.916667	1	0.165125
34.933333	1	0.164125
34.950000	1	0.163875
34.966667	1	0.162875
34.983333	1	0.162250
35.000000	1	0.161500
35.016667	1	0.160625
35.033333	1	0.159625
35.050000	1	0.159000
35.066667	1	0.158250
35.083333	1	0.157500
35.100000	1	0.156500
35.116667	1	0.155875
35.133333	1	0.155250
35.150000	1	0.155000
35.166667	1	0.154750
35.183333	1	0.154125
35.200000	1	0.154250
35.216667	1	0.153125
35.233333	1	0.152625
35.250000	1	0.152375
35.266667	1	0.152500
35.283333	1	0.152750
35.300000	1	0.153375
35.316667	1	0.153125
35.333333	1	0.153500
35.350000	1	0.153750
35.366667	1	0.154375
35.383333	1	0.155125
35.400000	1	0.155500
35.416667	1	0.156125
35.433333	1	0.156375
35.450000	1	0.157000
35.466667	1	0.157750
35.483333	1	0.158500
35.500000	1	0.159250
35.516667	1	0.160500
35.533333	1	0.161750
35.550000	1	0.163000
35.566667	1	0.163875
35.583333	1	0.165000
35.600000	1	0.166375
35.616667	1	0.167375
35.633333	1	0.168625
35.650000	1	0.169500
35.666667	1	0.170500
35.683333	1	0.171875
35.700000	1	0.173125
35.716667	1	0.174250
35.733333	1	0.175000
35.750000	1	0.176375
35.766667	1	0.177000
35.783333	1	0.177625
35.800000	1	0.177875
35.816667	1	0.177750
35.833333	1	0.177250
35.850000	1	0.177000
35.866667	1	0.176750
35.883333	1	0.175500
35.900000	1	0.174875
35.916667	1	0.173750
35.933333	1	0.173500
35.950000	1	0.172750
35.966667	1	0.172000
35.983333	1	0.171375
36.000000	1	0.170000
36.016667	1	0.168750
36.033333	1	0.167125
36.050000	1	0.165625
36.066667	1	0.164875
36.083333	1	0.163375
36.100000	1	0.162250
36.116667	1	0.160750
36.133333	1	0.159625
36.150000	1	0.158625
36.166667	1	0.157750
36.183333	1	0.156875
36.200000	1	0.155125
36.216667	1	0.155250
36.233333	1	0.154500
36.250000	1	0.153750
36.266667	1	0.153375
36.283333	1	0.153250
36.300000	1	0.152625
36.316667	1	0.152375
36.333333	1	0.152750
36.350000	1	0.152750
36.366667	1	0.152125
36.383333	1	0.152500
36.400000	1	0.152375
36.416667	1	0.152875
36.433333	1	0.153250
36.450000	1	0.153375
36.466667	1	0.153000
36.483333	1	0.152750
36.500000	1	0.152875
36.516667	1	0.152375
36.533333	1	0.151875
36.550000	1	0.151500
36.566667	1	0.151125
36.583333	1	0.150125
36.600000	1	0.149125
36.616667	1	0.148375
36.633333	1	0.147500
36.650000	1	0.146125
36.666667	1	0.143875
36.683333	1	0.143375
36.700000	1	0.142250
36.716667	1	0.140875
36.733333	1	0.139500
36.750000	1	0.137750
36.766667	1	0.135500
36.783333	1	0.132875
36.800000	1	0.130375
36.816667	1	0.128000
36.833333	1	0.125625
36.850000	1	0.123250
36.866667	1	0.121375
36.883333	1	0.119375
36.900000	1	0.117250
36.916667	1	0.114875
36.933333	1	0.113250
36.950000	1	0.111250
36.966667	1	0.109500
36.983333	1	0.107750
37.000000	1	0.106500
37.016667	1	0.105250
37.033333	1	0.103375
37.050000	1	0.101625
37.066667	1	0.100125
37.083333	1	0.099125
37.100000	1	0.097625
37.116667	1	0.096625
37.133333	1	0.095750
37.150000	1	0.094750
37.166667	1	0.093625
37.183333	1	0.092625
37.200000	1	0.092000
37.216667	1	0.091375
37.233333	1	0.090500
37.250000	1	0.090125
37.266667	1	0.089375
37.283333	1	0.089125
37.300000	1	0.088875
37.316667	1	0.088250
37.333333	1	0.088125
37.350000	1	0.087125
37.366667	1	0.086250
37.383333	1	0.085750
37.400000	1	0.084375
37.416667	1	0.083500
37.433333	1	0.082750
37.450000	1	0.081750
37.466667	1	0.080750
37.483333	1	0.079625
37.500000	1	0.079375
37.516667	1	0.078250
37.533333	1	0.077000
37.550000	1	0.075500
37.566667	1	0.073125
37.583333	1	0.071500
37.600000	1	0.070000
37.616667	1	0.069375
37.633333	1	0.067500
37.650000	1	0.065750
37.666667	1	0.063625
37.683333	1	0.062125
37.700000	1	0.060125
37.716667	1	0.057875
37.733333	1	0.056375
37.750000	1	0.054875
37.766667	1	0.053375
37.783333	1	0.052125
37.800000	1	0.050625
37.816667	1	0.049000
37.833333	1	0.047625
37.850000	1	0.046500
37.866667	1	0.045125
37.883333	1	0.044625
37.900000	1	0.044250
37.916667	1	0.043375
37.933333	1	0.042000
37.950000	1	0.041875
37.966667	1	0.042000
37.983333	1	0.041875
38.000000	1	0.041250
38.016667	1	0.041875
38.033333	1	0.042375
38.050000	1	0.043000
38.066667	1	0.043875
38.083333	1	0.045000
38.100000	1	0.047000
38.116667	1	0.048375
38.133333	1	0.049625
38.150000	1	0.051500
38.166667	1	0.052750
38.183333	1	0.054000
38.200000	1	0.055375
38.216667	1	0.057250
38.233333	1	0.058500
38.250000	1	0.059625
38.266667	1	0.061250
38.283333	1	0.062875
38.300000	1	0.064000
38.316667	1	0.065750
38.333333	1	0.066625
38.350000	1	0.067125
38.366667	1	0.067250
38.383333	1	0.068625
38.400000	1	0.069125
38.416667	1	0.070500
38.433333	1	0.070875
38.450000	1	0.071250
38.466667	1	0.071625
38.483333	1	0.072625
38.500000	1	0.073250
38.516667	1	0.073625
38.533333	1	0.073500
38.550000	1	0.073375
38.566667	1	0.073750
38.583333	1	0.074375
38.600000	1	0.074625
38.616667	1	0.075000
38.633333	1	0.075625
38.650000	1	0.076000
38.666667	1	0.076500
38.683333	1	0.076750
38.700000	1	0.077750
38.716667	1	0.078125
38.733333	1	0.078375
38.750000	1	0.079250
38.766667	1	0.079875
38.783333	1	0.081125
38.800000	1	0.082375
38.816667	1	0.083750
38.833333	1	0.084875
38.850000	1	0.086625
38.866667	1	0.088000
38.883333	1	0.089250
38.900000	1	0.090750
38.916667	1	0.092250
38.933333	1	0.093500
38.950000	1	0.094875
38.966667	1	0.096250
38.983333	1	0.097750
39.000000	1	0.098875
39.016667	1	0.099625
39.033333	1	0.100250
39.050000	1	0.101000
39.066667	1	0.101750
39.083333	1	0.102625
39.100000	1	0.103250
39.116667	1	0.103750
39.133333	1	0.104000
39.150000	1	0.104000
39.166667	1	0.103375
39.183333	1	0.103375
39.200000	1	0.102875
39.216667	1	0.102125
39.233333	1	0.101375
39.250000	1	0.100750
39.266667	1	0.100375
39.283333	1	0.099625
39.300000	1	0.098250
39.316667	1	0.096750
39.333333	1	0.095625
39.350000	1	0.094250
39.366667	1	0.093125
39.383333	1	0.091875
39.400000	1	0.090250
39.416667	1	0.088750
39.433333	1	0.087375
39.450000	1	0.085250
39.466667	1	0.084000
39.483333	1	0.082625
39.500000	1	0.081500
39.516667	1	0.080375
39.533333	1	0.079000
39.550000	1	0.077625
39.566667	1	0.076625
39.583333	1	0.075625
39.600000	1	0.073750
39.616667	1	0.073250
39.633333	1	0.072875
39.650000	1	0.071750
39.666667	1	0.070875
39.683333	1	0.070375
39.700000	1	0.069375
39.716667	1	0.068625
39.733333	1	0.067750
39.750000	1	0.066750
39.766667	1	0.066375
39.783333	1	0.064750
39.800000	1	0.064000
39.816667	1	0.063625
39.833333	1	0.062375
39.850000	1	0.062125
39.866667	1	0.061250
39.883333	1	0.060750
39.900000	1	0.060125
39.916667	1	0.060000
39.933333	1	0.058750
39.950000	1	0.058375
39.966667	1	0.058000
39.983333	1	0.057250
40.000000	1	0.056125
