URL	chrom://bioreactor/micro_cm7/HPLC_Ultimate_3000/Users/markusar/20240708_MA_pHrange1.seq/572.smp/RI_1.channel/RI_1.chm
Channel	RI_1

Injection Information:
Data Vault	micro_cm7
Sequence	20240708_MA_pHrange1
Name	Pv1_20H_4
Number	35
Position	BC11
Comment	
Processing Method	
Instrument Method	run_25B_method
Type	Unknown
Status	Finished
Inject Time	09.07.2024 14:47:34 +02:00
Volume (µl)	20.0000
Dilution Factor	1.0000
Weight	1.0000

Chromatogram Data Information:
Time Min. (min)	0.000000
Time Max. (min)	40.000000
Data Points	2401
Detector	RI
Generating Data System	Chromeleon 7.3.2.11814
Exporting Data System	Chromeleon 7.3.2.0
Operator	Instrument Controller
Signal Quantity	Refractive 
Signal Unit	µRIU
Signal Min.	-0.117000
Signal Max.	83.906125
Channel	RI_1
Driver Name	RID520Driver.dll
Channel Type	Evaluation
Min. Step (s)	1
Max. Step (s)	1
Average Step (s)	1

Signal Parameter Information:
Signal Info	

Chromatogram Data:
Time (min)	Step (s)	Value (µRIU)
0.000000	n.a.	-0.015125
0.016667	1	-0.016375
0.033333	1	-0.017000
0.050000	1	-0.018000
0.066667	1	-0.018750
0.083333	1	-0.019875
0.100000	1	-0.020375
0.116667	1	-0.021625
0.133333	1	-0.022000
0.150000	1	-0.022875
0.166667	1	-0.023250
0.183333	1	-0.023375
0.200000	1	-0.023875
0.216667	1	-0.024500
0.233333	1	-0.024125
0.250000	1	-0.024375
0.266667	1	-0.025000
0.283333	1	-0.024250
0.300000	1	-0.024000
0.316667	1	-0.023875
0.333333	1	-0.023125
0.350000	1	-0.022750
0.366667	1	-0.022750
0.383333	1	-0.023000
0.400000	1	-0.022750
0.416667	1	-0.021125
0.433333	1	-0.018375
0.450000	1	-0.015375
0.466667	1	-0.013750
0.483333	1	-0.011500
0.500000	1	-0.008625
0.516667	1	-0.006750
0.533333	1	-0.005375
0.550000	1	-0.004750
0.566667	1	-0.004125
0.583333	1	-0.003750
0.600000	1	-0.003875
0.616667	1	-0.003875
0.633333	1	-0.003000
0.650000	1	-0.002250
0.666667	1	-0.001750
0.683333	1	-0.000500
0.700000	1	0.000875
0.716667	1	0.002375
0.733333	1	0.003375
0.750000	1	0.004625
0.766667	1	0.005375
0.783333	1	0.006750
0.800000	1	0.007750
0.816667	1	0.008625
0.833333	1	0.009625
0.850000	1	0.009500
0.866667	1	0.009750
0.883333	1	0.010250
0.900000	1	0.010750
0.916667	1	0.011125
0.933333	1	0.011625
0.950000	1	0.012625
0.966667	1	0.013000
0.983333	1	0.013250
1.000000	1	0.012750
1.016667	1	0.012375
1.033333	1	0.012250
1.050000	1	0.012125
1.066667	1	0.012625
1.083333	1	0.012250
1.100000	1	0.012625
1.116667	1	0.012250
1.133333	1	0.011875
1.150000	1	0.011375
1.166667	1	0.010625
1.183333	1	0.010625
1.200000	1	0.010375
1.216667	1	0.010625
1.233333	1	0.010000
1.250000	1	0.009625
1.266667	1	0.008875
1.283333	1	0.009000
1.300000	1	0.008375
1.316667	1	0.008250
1.333333	1	0.007625
1.350000	1	0.007375
1.366667	1	0.006875
1.383333	1	0.006375
1.400000	1	0.006125
1.416667	1	0.006250
1.433333	1	0.006125
1.450000	1	0.005000
1.466667	1	0.005000
1.483333	1	0.004250
1.500000	1	0.004375
1.516667	1	0.003250
1.533333	1	0.002500
1.550000	1	0.002125
1.566667	1	0.001875
1.583333	1	0.001500
1.600000	1	0.000875
1.616667	1	0.000500
1.633333	1	0.000375
1.650000	1	0.000000
1.666667	1	-0.000375
1.683333	1	-0.000875
1.700000	1	-0.001375
1.716667	1	-0.001000
1.733333	1	-0.001000
1.750000	1	-0.001375
1.766667	1	-0.001125
1.783333	1	-0.001000
1.800000	1	-0.000750
1.816667	1	-0.000500
1.833333	1	-0.000625
1.850000	1	-0.000125
1.866667	1	0.000000
1.883333	1	0.001125
1.900000	1	0.002375
1.916667	1	0.003250
1.933333	1	0.003625
1.950000	1	0.004625
1.966667	1	0.004875
1.983333	1	0.005625
2.000000	1	0.006500
2.016667	1	0.006875
2.033333	1	0.007375
2.050000	1	0.008750
2.066667	1	0.010000
2.083333	1	0.010500
2.100000	1	0.011500
2.116667	1	0.011750
2.133333	1	0.012625
2.150000	1	0.012750
2.166667	1	0.013375
2.183333	1	0.013625
2.200000	1	0.013500
2.216667	1	0.014000
2.233333	1	0.013500
2.250000	1	0.014250
2.266667	1	0.013625
2.283333	1	0.013625
2.300000	1	0.013375
2.316667	1	0.012625
2.333333	1	0.013750
2.350000	1	0.012875
2.366667	1	0.012000
2.383333	1	0.011625
2.400000	1	0.011750
2.416667	1	0.011250
2.433333	1	0.011000
2.450000	1	0.011125
2.466667	1	0.011875
2.483333	1	0.011500
2.500000	1	0.011375
2.516667	1	0.011250
2.533333	1	0.011250
2.550000	1	0.010750
2.566667	1	0.011000
2.583333	1	0.011375
2.600000	1	0.011125
2.616667	1	0.010500
2.633333	1	0.010250
2.650000	1	0.010250
2.666667	1	0.009875
2.683333	1	0.010250
2.700000	1	0.009625
2.716667	1	0.008875
2.733333	1	0.008250
2.750000	1	0.007750
2.766667	1	0.006625
2.783333	1	0.006625
2.800000	1	0.006375
2.816667	1	0.005500
2.833333	1	0.004875
2.850000	1	0.004625
2.866667	1	0.004375
2.883333	1	0.004125
2.900000	1	0.003625
2.916667	1	0.003125
2.933333	1	0.003125
2.950000	1	0.002875
2.966667	1	0.003375
2.983333	1	0.003500
3.000000	1	0.004125
3.016667	1	0.004750
3.033333	1	0.005000
3.050000	1	0.006125
3.066667	1	0.007625
3.083333	1	0.008000
3.100000	1	0.008625
3.116667	1	0.009000
3.133333	1	0.010375
3.150000	1	0.011500
3.166667	1	0.013375
3.183333	1	0.014750
3.200000	1	0.015875
3.216667	1	0.017125
3.233333	1	0.018750
3.250000	1	0.020375
3.266667	1	0.021750
3.283333	1	0.023375
3.300000	1	0.024625
3.316667	1	0.026250
3.333333	1	0.027750
3.350000	1	0.028500
3.366667	1	0.029500
3.383333	1	0.030500
3.400000	1	0.031750
3.416667	1	0.033125
3.433333	1	0.034250
3.450000	1	0.034750
3.466667	1	0.035625
3.483333	1	0.035875
3.500000	1	0.036000
3.516667	1	0.036875
3.533333	1	0.036875
3.550000	1	0.037625
3.566667	1	0.037875
3.583333	1	0.038000
3.600000	1	0.038375
3.616667	1	0.038250
3.633333	1	0.037500
3.650000	1	0.037500
3.666667	1	0.037750
3.683333	1	0.037250
3.700000	1	0.037250
3.716667	1	0.037125
3.733333	1	0.037500
3.750000	1	0.037250
3.766667	1	0.036875
3.783333	1	0.036625
3.800000	1	0.036625
3.816667	1	0.036250
3.833333	1	0.036875
3.850000	1	0.036500
3.866667	1	0.036125
3.883333	1	0.036750
3.900000	1	0.037000
3.916667	1	0.036875
3.933333	1	0.037000
3.950000	1	0.036750
3.966667	1	0.037500
3.983333	1	0.038375
4.000000	1	0.038125
4.016667	1	0.038750
4.033333	1	0.039500
4.050000	1	0.040375
4.066667	1	0.040875
4.083333	1	0.041500
4.100000	1	0.042500
4.116667	1	0.043125
4.133333	1	0.043875
4.150000	1	0.045000
4.166667	1	0.046000
4.183333	1	0.047625
4.200000	1	0.048875
4.216667	1	0.050125
4.233333	1	0.050125
4.250000	1	0.051500
4.266667	1	0.052500
4.283333	1	0.054625
4.300000	1	0.055500
4.316667	1	0.056500
4.333333	1	0.058875
4.350000	1	0.060000
4.366667	1	0.061125
4.383333	1	0.062625
4.400000	1	0.064000
4.416667	1	0.066000
4.433333	1	0.067625
4.450000	1	0.069000
4.466667	1	0.070500
4.483333	1	0.071625
4.500000	1	0.073625
4.516667	1	0.075500
4.533333	1	0.076500
4.550000	1	0.077625
4.566667	1	0.079125
4.583333	1	0.080750
4.600000	1	0.082250
4.616667	1	0.084125
4.633333	1	0.086125
4.650000	1	0.087875
4.666667	1	0.089625
4.683333	1	0.091250
4.700000	1	0.093375
4.716667	1	0.096375
4.733333	1	0.099125
4.750000	1	0.101250
4.766667	1	0.104250
4.783333	1	0.107125
4.800000	1	0.109500
4.816667	1	0.112750
4.833333	1	0.115625
4.850000	1	0.119250
4.866667	1	0.122750
4.883333	1	0.126125
4.900000	1	0.129125
4.916667	1	0.132125
4.933333	1	0.135625
4.950000	1	0.139250
4.966667	1	0.143125
4.983333	1	0.146500
5.000000	1	0.150625
5.016667	1	0.154250
5.033333	1	0.157625
5.050000	1	0.161250
5.066667	1	0.165000
5.083333	1	0.168250
5.100000	1	0.172250
5.116667	1	0.175500
5.133333	1	0.179250
5.150000	1	0.183250
5.166667	1	0.187625
5.183333	1	0.191375
5.200000	1	0.195250
5.216667	1	0.199375
5.233333	1	0.202625
5.250000	1	0.206125
5.266667	1	0.209500
5.283333	1	0.212750
5.300000	1	0.216625
5.316667	1	0.219625
5.333333	1	0.222750
5.350000	1	0.226250
5.366667	1	0.229625
5.383333	1	0.232750
5.400000	1	0.235875
5.416667	1	0.238875
5.433333	1	0.242000
5.450000	1	0.244625
5.466667	1	0.247000
5.483333	1	0.249000
5.500000	1	0.251375
5.516667	1	0.252750
5.533333	1	0.253625
5.550000	1	0.255375
5.566667	1	0.256125
5.583333	1	0.256625
5.600000	1	0.257125
5.616667	1	0.257500
5.633333	1	0.256750
5.650000	1	0.256000
5.666667	1	0.255000
5.683333	1	0.253625
5.700000	1	0.252375
5.716667	1	0.251250
5.733333	1	0.249875
5.750000	1	0.247375
5.766667	1	0.244875
5.783333	1	0.243250
5.800000	1	0.240625
5.816667	1	0.237750
5.833333	1	0.234500
5.850000	1	0.230875
5.866667	1	0.227000
5.883333	1	0.223375
5.900000	1	0.219875
5.916667	1	0.215625
5.933333	1	0.211125
5.950000	1	0.205875
5.966667	1	0.201250
5.983333	1	0.196250
6.000000	1	0.190875
6.016667	1	0.185625
6.033333	1	0.181125
6.050000	1	0.176250
6.066667	1	0.170750
6.083333	1	0.165375
6.100000	1	0.160125
6.116667	1	0.154250
6.133333	1	0.148250
6.150000	1	0.143250
6.166667	1	0.137750
6.183333	1	0.133000
6.200000	1	0.128000
6.216667	1	0.123375
6.233333	1	0.118375
6.250000	1	0.114500
6.266667	1	0.110125
6.283333	1	0.105125
6.300000	1	0.100125
6.316667	1	0.096250
6.333333	1	0.093125
6.350000	1	0.090000
6.366667	1	0.087125
6.383333	1	0.084250
6.400000	1	0.081250
6.416667	1	0.078125
6.433333	1	0.075250
6.450000	1	0.072750
6.466667	1	0.070500
6.483333	1	0.068375
6.500000	1	0.066250
6.516667	1	0.064875
6.533333	1	0.064375
6.550000	1	0.063125
6.566667	1	0.062375
6.583333	1	0.061750
6.600000	1	0.061250
6.616667	1	0.061000
6.633333	1	0.061125
6.650000	1	0.061000
6.666667	1	0.061250
6.683333	1	0.062125
6.700000	1	0.062875
6.716667	1	0.063125
6.733333	1	0.063875
6.750000	1	0.064500
6.766667	1	0.065250
6.783333	1	0.066500
6.800000	1	0.068125
6.816667	1	0.069375
6.833333	1	0.070750
6.850000	1	0.072500
6.866667	1	0.074750
6.883333	1	0.076625
6.900000	1	0.078000
6.916667	1	0.081250
6.933333	1	0.083250
6.950000	1	0.086000
6.966667	1	0.087875
6.983333	1	0.091250
7.000000	1	0.094500
7.016667	1	0.097375
7.033333	1	0.100750
7.050000	1	0.104500
7.066667	1	0.107625
7.083333	1	0.111500
7.100000	1	0.114750
7.116667	1	0.118000
7.133333	1	0.122125
7.150000	1	0.125750
7.166667	1	0.129875
7.183333	1	0.134125
7.200000	1	0.137500
7.216667	1	0.140750
7.233333	1	0.145250
7.250000	1	0.148375
7.266667	1	0.151750
7.283333	1	0.155000
7.300000	1	0.158375
7.316667	1	0.161875
7.333333	1	0.165125
7.350000	1	0.167750
7.366667	1	0.169750
7.383333	1	0.171750
7.400000	1	0.172625
7.416667	1	0.173125
7.433333	1	0.174125
7.450000	1	0.174625
7.466667	1	0.175000
7.483333	1	0.174500
7.500000	1	0.173625
7.516667	1	0.172375
7.533333	1	0.170500
7.550000	1	0.168875
7.566667	1	0.167250
7.583333	1	0.164750
7.600000	1	0.162250
7.616667	1	0.160125
7.633333	1	0.156875
7.650000	1	0.153875
7.666667	1	0.149375
7.683333	1	0.146125
7.700000	1	0.142125
7.716667	1	0.137750
7.733333	1	0.133250
7.750000	1	0.128500
7.766667	1	0.124375
7.783333	1	0.119625
7.800000	1	0.115250
7.816667	1	0.111125
7.833333	1	0.106625
7.850000	1	0.101500
7.866667	1	0.096500
7.883333	1	0.092125
7.900000	1	0.087375
7.916667	1	0.082375
7.933333	1	0.077500
7.950000	1	0.072750
7.966667	1	0.068125
7.983333	1	0.063750
8.000000	1	0.058625
8.016667	1	0.054250
8.033333	1	0.050250
8.050000	1	0.046125
8.066667	1	0.042375
8.083333	1	0.038500
8.100000	1	0.034625
8.116667	1	0.030750
8.133333	1	0.027125
8.150000	1	0.024500
8.166667	1	0.021375
8.183333	1	0.018125
8.200000	1	0.015500
8.216667	1	0.012750
8.233333	1	0.010125
8.250000	1	0.007375
8.266667	1	0.005375
8.283333	1	0.003875
8.300000	1	0.001500
8.316667	1	-0.000375
8.333333	1	-0.002000
8.350000	1	-0.003875
8.366667	1	-0.005250
8.383333	1	-0.006125
8.400000	1	-0.007500
8.416667	1	-0.008250
8.433333	1	-0.008875
8.450000	1	-0.010250
8.466667	1	-0.011125
8.483333	1	-0.011375
8.500000	1	-0.012750
8.516667	1	-0.012500
8.533333	1	-0.012750
8.550000	1	-0.012625
8.566667	1	-0.012375
8.583333	1	-0.012125
8.600000	1	-0.012375
8.616667	1	-0.012250
8.633333	1	-0.011750
8.650000	1	-0.011500
8.666667	1	-0.011250
8.683333	1	-0.011125
8.700000	1	-0.010000
8.716667	1	-0.009500
8.733333	1	-0.008125
8.750000	1	-0.007375
8.766667	1	-0.006625
8.783333	1	-0.005625
8.800000	1	-0.004250
8.816667	1	-0.003500
8.833333	1	-0.002500
8.850000	1	-0.002000
8.866667	1	-0.001125
8.883333	1	0.000375
8.900000	1	0.001625
8.916667	1	0.003250
8.933333	1	0.005125
8.950000	1	0.007125
8.966667	1	0.007750
8.983333	1	0.008875
9.000000	1	0.009625
9.016667	1	0.010375
9.033333	1	0.010875
9.050000	1	0.011250
9.066667	1	0.012375
9.083333	1	0.013750
9.100000	1	0.014500
9.116667	1	0.014625
9.133333	1	0.015500
9.150000	1	0.015875
9.166667	1	0.015875
9.183333	1	0.016375
9.200000	1	0.016500
9.216667	1	0.016625
9.233333	1	0.016000
9.250000	1	0.015250
9.266667	1	0.014125
9.283333	1	0.013875
9.300000	1	0.013375
9.316667	1	0.012125
9.333333	1	0.011000
9.350000	1	0.010125
9.366667	1	0.009625
9.383333	1	0.008250
9.400000	1	0.006875
9.416667	1	0.005625
9.433333	1	0.004500
9.450000	1	0.003625
9.466667	1	0.001875
9.483333	1	0.000375
9.500000	1	-0.000625
9.516667	1	-0.002125
9.533333	1	-0.002750
9.550000	1	-0.003750
9.566667	1	-0.005250
9.583333	1	-0.006125
9.600000	1	-0.007000
9.616667	1	-0.008250
9.633333	1	-0.009625
9.650000	1	-0.011125
9.666667	1	-0.012625
9.683333	1	-0.014250
9.700000	1	-0.015000
9.716667	1	-0.015875
9.733333	1	-0.016750
9.750000	1	-0.017625
9.766667	1	-0.018875
9.783333	1	-0.019875
9.800000	1	-0.021250
9.816667	1	-0.021625
9.833333	1	-0.022250
9.850000	1	-0.022875
9.866667	1	-0.023125
9.883333	1	-0.025000
9.900000	1	-0.026250
9.916667	1	-0.026250
9.933333	1	-0.026750
9.950000	1	-0.027125
9.966667	1	-0.026875
9.983333	1	-0.026375
10.000000	1	-0.025250
10.016667	1	-0.023625
10.033333	1	-0.021250
10.050000	1	-0.019250
10.066667	1	-0.015750
10.083333	1	-0.011125
10.100000	1	-0.005875
10.116667	1	-0.000875
10.133333	1	0.005625
10.150000	1	0.013125
10.166667	1	0.022000
10.183333	1	0.030750
10.200000	1	0.042000
10.216667	1	0.053625
10.233333	1	0.065750
10.250000	1	0.079750
10.266667	1	0.095125
10.283333	1	0.112625
10.300000	1	0.131875
10.316667	1	0.153250
10.333333	1	0.175875
10.350000	1	0.198500
10.366667	1	0.218750
10.383333	1	0.234375
10.400000	1	0.241000
10.416667	1	0.233375
10.433333	1	0.206625
10.450000	1	0.158375
10.466667	1	0.087750
10.483333	1	0.003125
10.500000	1	-0.076375
10.516667	1	-0.117000
10.533333	1	-0.068250
10.550000	1	0.135875
10.566667	1	0.574875
10.583333	1	1.330500
10.600000	1	2.484000
10.616667	1	4.103125
10.633333	1	6.240000
10.650000	1	8.931375
10.666667	1	12.204000
10.683333	1	16.069875
10.700000	1	20.529250
10.716667	1	25.568375
10.733333	1	31.161250
10.750000	1	37.263375
10.766667	1	43.804125
10.783333	1	50.687250
10.800000	1	57.758000
10.816667	1	64.771500
10.833333	1	71.353000
10.850000	1	76.971875
10.866667	1	80.958375
10.883333	1	82.593250
10.900000	1	81.334500
10.916667	1	77.061125
10.933333	1	70.194875
10.950000	1	61.597000
10.966667	1	52.292250
10.983333	1	43.190625
11.000000	1	34.913000
11.016667	1	27.777125
11.033333	1	21.866750
11.050000	1	17.112000
11.066667	1	13.370875
11.083333	1	10.477750
11.100000	1	8.270250
11.116667	1	6.599500
11.133333	1	5.340250
11.150000	1	4.393375
11.166667	1	3.678625
11.183333	1	3.135375
11.200000	1	2.719250
11.216667	1	2.397750
11.233333	1	2.145500
11.250000	1	1.944500
11.266667	1	1.782125
11.283333	1	1.648625
11.300000	1	1.537875
11.316667	1	1.444000
11.333333	1	1.365500
11.350000	1	1.299250
11.366667	1	1.241125
11.383333	1	1.191750
11.400000	1	1.148625
11.416667	1	1.111625
11.433333	1	1.079500
11.450000	1	1.052125
11.466667	1	1.029375
11.483333	1	1.009375
11.500000	1	0.993125
11.516667	1	0.979375
11.533333	1	0.967625
11.550000	1	0.957250
11.566667	1	0.949500
11.583333	1	0.943250
11.600000	1	0.938125
11.616667	1	0.934875
11.633333	1	0.933375
11.650000	1	0.933500
11.666667	1	0.935375
11.683333	1	0.938125
11.700000	1	0.942125
11.716667	1	0.946875
11.733333	1	0.953875
11.750000	1	0.961750
11.766667	1	0.970125
11.783333	1	0.978625
11.800000	1	0.988125
11.816667	1	0.997875
11.833333	1	1.006875
11.850000	1	1.015500
11.866667	1	1.024000
11.883333	1	1.031500
11.900000	1	1.038250
11.916667	1	1.043750
11.933333	1	1.048375
11.950000	1	1.052125
11.966667	1	1.054875
11.983333	1	1.056875
12.000000	1	1.058250
12.016667	1	1.060000
12.033333	1	1.062375
12.050000	1	1.064000
12.066667	1	1.066625
12.083333	1	1.069250
12.100000	1	1.072000
12.116667	1	1.075750
12.133333	1	1.079625
12.150000	1	1.084375
12.166667	1	1.089250
12.183333	1	1.095000
12.200000	1	1.101875
12.216667	1	1.110375
12.233333	1	1.120875
12.250000	1	1.132125
12.266667	1	1.146625
12.283333	1	1.165125
12.300000	1	1.188750
12.316667	1	1.218875
12.333333	1	1.257250
12.350000	1	1.306750
12.366667	1	1.370500
12.383333	1	1.453625
12.400000	1	1.558875
12.416667	1	1.692625
12.433333	1	1.859875
12.450000	1	2.066000
12.466667	1	2.317625
12.483333	1	2.620625
12.500000	1	2.979500
12.516667	1	3.397250
12.533333	1	3.876125
12.550000	1	4.415875
12.566667	1	5.012250
12.583333	1	5.658625
12.600000	1	6.345750
12.616667	1	7.059375
12.633333	1	7.785875
12.650000	1	8.510375
12.666667	1	9.219375
12.683333	1	9.899000
12.700000	1	10.541625
12.716667	1	11.142375
12.733333	1	11.702750
12.750000	1	12.225750
12.766667	1	12.719750
12.783333	1	13.195250
12.800000	1	13.663750
12.816667	1	14.135250
12.833333	1	14.620500
12.850000	1	15.127000
12.866667	1	15.661500
12.883333	1	16.227875
12.900000	1	16.827250
12.916667	1	17.461125
12.933333	1	18.128125
12.950000	1	18.826750
12.966667	1	19.554375
12.983333	1	20.310250
13.000000	1	21.091500
13.016667	1	21.896875
13.033333	1	22.725375
13.050000	1	23.576250
13.066667	1	24.450000
13.083333	1	25.345125
13.100000	1	26.260125
13.116667	1	27.195875
13.133333	1	28.151000
13.150000	1	29.124875
13.166667	1	30.117750
13.183333	1	31.129625
13.200000	1	32.159750
13.216667	1	33.208250
13.233333	1	34.276375
13.250000	1	35.365125
13.266667	1	36.474875
13.283333	1	37.607000
13.300000	1	38.760000
13.316667	1	39.935875
13.333333	1	41.134000
13.350000	1	42.354500
13.366667	1	43.598500
13.383333	1	44.866750
13.400000	1	46.158000
13.416667	1	47.473375
13.433333	1	48.816125
13.450000	1	50.184500
13.466667	1	51.583000
13.483333	1	53.010875
13.500000	1	54.468875
13.516667	1	55.955750
13.533333	1	57.472750
13.550000	1	59.020000
13.566667	1	60.599250
13.583333	1	62.209500
13.600000	1	63.851000
13.616667	1	65.525875
13.633333	1	67.234750
13.650000	1	68.981250
13.666667	1	70.765500
13.683333	1	72.587625
13.700000	1	74.449875
13.716667	1	76.349750
13.733333	1	78.272125
13.750000	1	80.166000
13.766667	1	81.903250
13.783333	1	83.254375
13.800000	1	83.906125
13.816667	1	83.515000
13.833333	1	81.744750
13.850000	1	78.306250
13.866667	1	73.035000
13.883333	1	66.027750
13.900000	1	57.736000
13.916667	1	48.905500
13.933333	1	40.333250
13.950000	1	32.624625
13.966667	1	26.091000
13.983333	1	20.779375
14.000000	1	16.577500
14.016667	1	13.308500
14.033333	1	10.798875
14.050000	1	8.895625
14.066667	1	7.470750
14.083333	1	6.414000
14.100000	1	5.634625
14.116667	1	5.058750
14.133333	1	4.630875
14.150000	1	4.307250
14.166667	1	4.058750
14.183333	1	3.864125
14.200000	1	3.707625
14.216667	1	3.578750
14.233333	1	3.471000
14.250000	1	3.377750
14.266667	1	3.296000
14.283333	1	3.224625
14.300000	1	3.160250
14.316667	1	3.102125
14.333333	1	3.051000
14.350000	1	3.004000
14.366667	1	2.963000
14.383333	1	2.928500
14.400000	1	2.901375
14.416667	1	2.881875
14.433333	1	2.872750
14.450000	1	2.877500
14.466667	1	2.899500
14.483333	1	2.946125
14.500000	1	3.025625
14.516667	1	3.151250
14.533333	1	3.339875
14.550000	1	3.615875
14.566667	1	4.010875
14.583333	1	4.564375
14.600000	1	5.325250
14.616667	1	6.353625
14.633333	1	7.718125
14.650000	1	9.491125
14.666667	1	11.745375
14.683333	1	14.543375
14.700000	1	17.929000
14.716667	1	21.914875
14.733333	1	26.483375
14.750000	1	31.566125
14.766667	1	37.043250
14.783333	1	42.740625
14.800000	1	48.451625
14.816667	1	53.938625
14.833333	1	58.948875
14.850000	1	63.227125
14.866667	1	66.549375
14.883333	1	68.738125
14.900000	1	69.686000
14.916667	1	69.360500
14.933333	1	67.809375
14.950000	1	65.152625
14.966667	1	61.567625
14.983333	1	57.273125
15.000000	1	52.496125
15.016667	1	47.455500
15.033333	1	42.355500
15.050000	1	37.371875
15.066667	1	32.641375
15.083333	1	28.264500
15.100000	1	24.303750
15.116667	1	20.786125
15.133333	1	17.710375
15.150000	1	15.057375
15.166667	1	12.797250
15.183333	1	10.891500
15.200000	1	9.296250
15.216667	1	7.970125
15.233333	1	6.872000
15.250000	1	5.968500
15.266667	1	5.229750
15.283333	1	4.628125
15.300000	1	4.139750
15.316667	1	3.747375
15.333333	1	3.434250
15.350000	1	3.186000
15.366667	1	2.992375
15.383333	1	2.844000
15.400000	1	2.732125
15.416667	1	2.650375
15.433333	1	2.592125
15.450000	1	2.551500
15.466667	1	2.524000
15.483333	1	2.503500
15.500000	1	2.487000
15.516667	1	2.470625
15.533333	1	2.452250
15.550000	1	2.430125
15.566667	1	2.403000
15.583333	1	2.371000
15.600000	1	2.334250
15.616667	1	2.293625
15.633333	1	2.251250
15.650000	1	2.207250
15.666667	1	2.163375
15.683333	1	2.120875
15.700000	1	2.079125
15.716667	1	2.040250
15.733333	1	2.004000
15.750000	1	1.968625
15.766667	1	1.935250
15.783333	1	1.902250
15.800000	1	1.870250
15.816667	1	1.838750
15.833333	1	1.806500
15.850000	1	1.774500
15.866667	1	1.743000
15.883333	1	1.712250
15.900000	1	1.684125
15.916667	1	1.658250
15.933333	1	1.635375
15.950000	1	1.615875
15.966667	1	1.600500
15.983333	1	1.588250
16.000000	1	1.579750
16.016667	1	1.574375
16.033333	1	1.571125
16.050000	1	1.569750
16.066667	1	1.569875
16.083333	1	1.568750
16.100000	1	1.568125
16.116667	1	1.566125
16.133333	1	1.562500
16.150000	1	1.557125
16.166667	1	1.549750
16.183333	1	1.539750
16.200000	1	1.528125
16.216667	1	1.515125
16.233333	1	1.501125
16.250000	1	1.484625
16.266667	1	1.468000
16.283333	1	1.450875
16.300000	1	1.433375
16.316667	1	1.415250
16.333333	1	1.397250
16.350000	1	1.379875
16.366667	1	1.363375
16.383333	1	1.347625
16.400000	1	1.333625
16.416667	1	1.321500
16.433333	1	1.311000
16.450000	1	1.303250
16.466667	1	1.297875
16.483333	1	1.295250
16.500000	1	1.295000
16.516667	1	1.297750
16.533333	1	1.301500
16.550000	1	1.306625
16.566667	1	1.312625
16.583333	1	1.319875
16.600000	1	1.326250
16.616667	1	1.332125
16.633333	1	1.336750
16.650000	1	1.339500
16.666667	1	1.341000
16.683333	1	1.341125
16.700000	1	1.339875
16.716667	1	1.337625
16.733333	1	1.336500
16.750000	1	1.335125
16.766667	1	1.333750
16.783333	1	1.332500
16.800000	1	1.332875
16.816667	1	1.334500
16.833333	1	1.336750
16.850000	1	1.339000
16.866667	1	1.342875
16.883333	1	1.346125
16.900000	1	1.349000
16.916667	1	1.351375
16.933333	1	1.352250
16.950000	1	1.352125
16.966667	1	1.351250
16.983333	1	1.348125
17.000000	1	1.343875
17.016667	1	1.339375
17.033333	1	1.333500
17.050000	1	1.326625
17.066667	1	1.320125
17.083333	1	1.313375
17.100000	1	1.307000
17.116667	1	1.302125
17.133333	1	1.297875
17.150000	1	1.294750
17.166667	1	1.292625
17.183333	1	1.291375
17.200000	1	1.291000
17.216667	1	1.292375
17.233333	1	1.293375
17.250000	1	1.295875
17.266667	1	1.299000
17.283333	1	1.302875
17.300000	1	1.306750
17.316667	1	1.311750
17.333333	1	1.316500
17.350000	1	1.322250
17.366667	1	1.327875
17.383333	1	1.333375
17.400000	1	1.338625
17.416667	1	1.342750
17.433333	1	1.346625
17.450000	1	1.349750
17.466667	1	1.351000
17.483333	1	1.351000
17.500000	1	1.349500
17.516667	1	1.346500
17.533333	1	1.341000
17.550000	1	1.334375
17.566667	1	1.326125
17.583333	1	1.315875
17.600000	1	1.304500
17.616667	1	1.291125
17.633333	1	1.277625
17.650000	1	1.262875
17.666667	1	1.247875
17.683333	1	1.232375
17.700000	1	1.216250
17.716667	1	1.200625
17.733333	1	1.184500
17.750000	1	1.168250
17.766667	1	1.152125
17.783333	1	1.137500
17.800000	1	1.123250
17.816667	1	1.108875
17.833333	1	1.096250
17.850000	1	1.083375
17.866667	1	1.070875
17.883333	1	1.059250
17.900000	1	1.048250
17.916667	1	1.037750
17.933333	1	1.027625
17.950000	1	1.017250
17.966667	1	1.007625
17.983333	1	0.997625
18.000000	1	0.987875
18.016667	1	0.977750
18.033333	1	0.967750
18.050000	1	0.958250
18.066667	1	0.948000
18.083333	1	0.938375
18.100000	1	0.928750
18.116667	1	0.920000
18.133333	1	0.911875
18.150000	1	0.903375
18.166667	1	0.896375
18.183333	1	0.890250
18.200000	1	0.885875
18.216667	1	0.881250
18.233333	1	0.878500
18.250000	1	0.875000
18.266667	1	0.872625
18.283333	1	0.870500
18.300000	1	0.869875
18.316667	1	0.869375
18.333333	1	0.869875
18.350000	1	0.871125
18.366667	1	0.872250
18.383333	1	0.873500
18.400000	1	0.875625
18.416667	1	0.878000
18.433333	1	0.882000
18.450000	1	0.887000
18.466667	1	0.893000
18.483333	1	0.901250
18.500000	1	0.910875
18.516667	1	0.922000
18.533333	1	0.935250
18.550000	1	0.951375
18.566667	1	0.969000
18.583333	1	0.988375
18.600000	1	1.009500
18.616667	1	1.032375
18.633333	1	1.057750
18.650000	1	1.084625
18.666667	1	1.113500
18.683333	1	1.144000
18.700000	1	1.175625
18.716667	1	1.208625
18.733333	1	1.243500
18.750000	1	1.279250
18.766667	1	1.314750
18.783333	1	1.350625
18.800000	1	1.385875
18.816667	1	1.420750
18.833333	1	1.453500
18.850000	1	1.483500
18.866667	1	1.510500
18.883333	1	1.533000
18.900000	1	1.551125
18.916667	1	1.562875
18.933333	1	1.569500
18.950000	1	1.569375
18.966667	1	1.562125
18.983333	1	1.547875
19.000000	1	1.526500
19.016667	1	1.499250
19.033333	1	1.465875
19.050000	1	1.427625
19.066667	1	1.387000
19.083333	1	1.343875
19.100000	1	1.299500
19.116667	1	1.256625
19.133333	1	1.216875
19.150000	1	1.182500
19.166667	1	1.154375
19.183333	1	1.135000
19.200000	1	1.126625
19.216667	1	1.131125
19.233333	1	1.151125
19.250000	1	1.189125
19.266667	1	1.246000
19.283333	1	1.324625
19.300000	1	1.427250
19.316667	1	1.554875
19.333333	1	1.708875
19.350000	1	1.889625
19.366667	1	2.095000
19.383333	1	2.323875
19.400000	1	2.572500
19.416667	1	2.836750
19.433333	1	3.108875
19.450000	1	3.382250
19.466667	1	3.649875
19.483333	1	3.903375
19.500000	1	4.132875
19.516667	1	4.331000
19.533333	1	4.491750
19.550000	1	4.610125
19.566667	1	4.682125
19.583333	1	4.704125
19.600000	1	4.677375
19.616667	1	4.603000
19.633333	1	4.485500
19.650000	1	4.329250
19.666667	1	4.140750
19.683333	1	3.926750
19.700000	1	3.696000
19.716667	1	3.454125
19.733333	1	3.206750
19.750000	1	2.959750
19.766667	1	2.720500
19.783333	1	2.491250
19.800000	1	2.274500
19.816667	1	2.072125
19.833333	1	1.885875
19.850000	1	1.715500
19.866667	1	1.562250
19.883333	1	1.425375
19.900000	1	1.303250
19.916667	1	1.195500
19.933333	1	1.100500
19.950000	1	1.017750
19.966667	1	0.945875
19.983333	1	0.884750
20.000000	1	0.832875
20.016667	1	0.789375
20.033333	1	0.753250
20.050000	1	0.724375
20.066667	1	0.701125
20.083333	1	0.684875
20.100000	1	0.674000
20.116667	1	0.667750
20.133333	1	0.666250
20.150000	1	0.668125
20.166667	1	0.674750
20.183333	1	0.683125
20.200000	1	0.694500
20.216667	1	0.707750
20.233333	1	0.721500
20.250000	1	0.735250
20.266667	1	0.748625
20.283333	1	0.760875
20.300000	1	0.771250
20.316667	1	0.778750
20.333333	1	0.783125
20.350000	1	0.784250
20.366667	1	0.782500
20.383333	1	0.777250
20.400000	1	0.768500
20.416667	1	0.758125
20.433333	1	0.744875
20.450000	1	0.730375
20.466667	1	0.715500
20.483333	1	0.700500
20.500000	1	0.686875
20.516667	1	0.675625
20.533333	1	0.668000
20.550000	1	0.664000
20.566667	1	0.665500
20.583333	1	0.673125
20.600000	1	0.688000
20.616667	1	0.710250
20.633333	1	0.740250
20.650000	1	0.778625
20.666667	1	0.826250
20.683333	1	0.882750
20.700000	1	0.947625
20.716667	1	1.019500
20.733333	1	1.097125
20.750000	1	1.179750
20.766667	1	1.265125
20.783333	1	1.351000
20.800000	1	1.434375
20.816667	1	1.512375
20.833333	1	1.583125
20.850000	1	1.644125
20.866667	1	1.692875
20.883333	1	1.726875
20.900000	1	1.747000
20.916667	1	1.751750
20.933333	1	1.741750
20.950000	1	1.716625
20.966667	1	1.679125
20.983333	1	1.628875
21.000000	1	1.568500
21.016667	1	1.500125
21.033333	1	1.427000
21.050000	1	1.350250
21.066667	1	1.272375
21.083333	1	1.195375
21.100000	1	1.120500
21.116667	1	1.049375
21.133333	1	0.982000
21.150000	1	0.919250
21.166667	1	0.861750
21.183333	1	0.808875
21.200000	1	0.761750
21.216667	1	0.720500
21.233333	1	0.683125
21.250000	1	0.650750
21.266667	1	0.622500
21.283333	1	0.597875
21.300000	1	0.577125
21.316667	1	0.558625
21.333333	1	0.543125
21.350000	1	0.529750
21.366667	1	0.518500
21.383333	1	0.508250
21.400000	1	0.499250
21.416667	1	0.491625
21.433333	1	0.485125
21.450000	1	0.479375
21.466667	1	0.474625
21.483333	1	0.470875
21.500000	1	0.467125
21.516667	1	0.464750
21.533333	1	0.463000
21.550000	1	0.461375
21.566667	1	0.461125
21.583333	1	0.461000
21.600000	1	0.461875
21.616667	1	0.463500
21.633333	1	0.467500
21.650000	1	0.472125
21.666667	1	0.477250
21.683333	1	0.483875
21.700000	1	0.491250
21.716667	1	0.500750
21.733333	1	0.512125
21.750000	1	0.524875
21.766667	1	0.538875
21.783333	1	0.554375
21.800000	1	0.570625
21.816667	1	0.587375
21.833333	1	0.604125
21.850000	1	0.621625
21.866667	1	0.639250
21.883333	1	0.657250
21.900000	1	0.674375
21.916667	1	0.691125
21.933333	1	0.707250
21.950000	1	0.721750
21.966667	1	0.734125
21.983333	1	0.744625
22.000000	1	0.754000
22.016667	1	0.761000
22.033333	1	0.766375
22.050000	1	0.769500
22.066667	1	0.771000
22.083333	1	0.770000
22.100000	1	0.768250
22.116667	1	0.764750
22.133333	1	0.760125
22.150000	1	0.754000
22.166667	1	0.746250
22.183333	1	0.736375
22.200000	1	0.726125
22.216667	1	0.714500
22.233333	1	0.702500
22.250000	1	0.689000
22.266667	1	0.674500
22.283333	1	0.658875
22.300000	1	0.643375
22.316667	1	0.627250
22.333333	1	0.610875
22.350000	1	0.594250
22.366667	1	0.578000
22.383333	1	0.561125
22.400000	1	0.544750
22.416667	1	0.528375
22.433333	1	0.513000
22.450000	1	0.498500
22.466667	1	0.483250
22.483333	1	0.469750
22.500000	1	0.456875
22.516667	1	0.444625
22.533333	1	0.432625
22.550000	1	0.421625
22.566667	1	0.412125
22.583333	1	0.403000
22.600000	1	0.393625
22.616667	1	0.385875
22.633333	1	0.378250
22.650000	1	0.371000
22.666667	1	0.364375
22.683333	1	0.358250
22.700000	1	0.351250
22.716667	1	0.345125
22.733333	1	0.339750
22.750000	1	0.334250
22.766667	1	0.328375
22.783333	1	0.323375
22.800000	1	0.318125
22.816667	1	0.313125
22.833333	1	0.308625
22.850000	1	0.305125
22.866667	1	0.300250
22.883333	1	0.296625
22.900000	1	0.293125
22.916667	1	0.290625
22.933333	1	0.287875
22.950000	1	0.286125
22.966667	1	0.284625
22.983333	1	0.282750
23.000000	1	0.282375
23.016667	1	0.282000
23.033333	1	0.282375
23.050000	1	0.282500
23.066667	1	0.283750
23.083333	1	0.285375
23.100000	1	0.287375
23.116667	1	0.289125
23.133333	1	0.291000
23.150000	1	0.293500
23.166667	1	0.295500
23.183333	1	0.298250
23.200000	1	0.300125
23.216667	1	0.302750
23.233333	1	0.305000
23.250000	1	0.308250
23.266667	1	0.311750
23.283333	1	0.316250
23.300000	1	0.322125
23.316667	1	0.329375
23.333333	1	0.339500
23.350000	1	0.352625
23.366667	1	0.368250
23.383333	1	0.389375
23.400000	1	0.415375
23.416667	1	0.448750
23.433333	1	0.489875
23.450000	1	0.539625
23.466667	1	0.600250
23.483333	1	0.674250
23.500000	1	0.762750
23.516667	1	0.867125
23.533333	1	0.987750
23.550000	1	1.128875
23.566667	1	1.291000
23.583333	1	1.474750
23.600000	1	1.680125
23.616667	1	1.907125
23.633333	1	2.154375
23.650000	1	2.419250
23.666667	1	2.699625
23.683333	1	2.993125
23.700000	1	3.295750
23.716667	1	3.600125
23.733333	1	3.902375
23.750000	1	4.196875
23.766667	1	4.475000
23.783333	1	4.731250
23.800000	1	4.959375
23.816667	1	5.154125
23.833333	1	5.311250
23.850000	1	5.427750
23.866667	1	5.500750
23.883333	1	5.528875
23.900000	1	5.512125
23.916667	1	5.452125
23.933333	1	5.351125
23.950000	1	5.213250
23.966667	1	5.041875
23.983333	1	4.843375
24.000000	1	4.621875
24.016667	1	4.383125
24.033333	1	4.132750
24.050000	1	3.876000
24.066667	1	3.616625
24.083333	1	3.359625
24.100000	1	3.107375
24.116667	1	2.863125
24.133333	1	2.630875
24.150000	1	2.409875
24.166667	1	2.202750
24.183333	1	2.010375
24.200000	1	1.833250
24.216667	1	1.669500
24.233333	1	1.521125
24.250000	1	1.387125
24.266667	1	1.266250
24.283333	1	1.158000
24.300000	1	1.060875
24.316667	1	0.975125
24.333333	1	0.899375
24.350000	1	0.832750
24.366667	1	0.774625
24.383333	1	0.724250
24.400000	1	0.680875
24.416667	1	0.643625
24.433333	1	0.612250
24.450000	1	0.585625
24.466667	1	0.563625
24.483333	1	0.545250
24.500000	1	0.529500
24.516667	1	0.516250
24.533333	1	0.504875
24.550000	1	0.495125
24.566667	1	0.487625
24.583333	1	0.481250
24.600000	1	0.474625
24.616667	1	0.468625
24.633333	1	0.463000
24.650000	1	0.457875
24.666667	1	0.452375
24.683333	1	0.446750
24.700000	1	0.440875
24.716667	1	0.435000
24.733333	1	0.429125
24.750000	1	0.422750
24.766667	1	0.415625
24.783333	1	0.408375
24.800000	1	0.401500
24.816667	1	0.395500
24.833333	1	0.388500
24.850000	1	0.381375
24.866667	1	0.375000
24.883333	1	0.368875
24.900000	1	0.364375
24.916667	1	0.359125
24.933333	1	0.353875
24.950000	1	0.348875
24.966667	1	0.344000
24.983333	1	0.339625
25.000000	1	0.335625
25.016667	1	0.332125
25.033333	1	0.328750
25.050000	1	0.325250
25.066667	1	0.322125
25.083333	1	0.319125
25.100000	1	0.316375
25.116667	1	0.313375
25.133333	1	0.310875
25.150000	1	0.308625
25.166667	1	0.306625
25.183333	1	0.304375
25.200000	1	0.301750
25.216667	1	0.299875
25.233333	1	0.297375
25.250000	1	0.295750
25.266667	1	0.294250
25.283333	1	0.293000
25.300000	1	0.291250
25.316667	1	0.290000
25.333333	1	0.288625
25.350000	1	0.287375
25.366667	1	0.286875
25.383333	1	0.285875
25.400000	1	0.285000
25.416667	1	0.284500
25.433333	1	0.284500
25.450000	1	0.284875
25.466667	1	0.285125
25.483333	1	0.285125
25.500000	1	0.285875
25.516667	1	0.286875
25.533333	1	0.287750
25.550000	1	0.289125
25.566667	1	0.290375
25.583333	1	0.291875
25.600000	1	0.293125
25.616667	1	0.293500
25.633333	1	0.294875
25.650000	1	0.296375
25.666667	1	0.297375
25.683333	1	0.298750
25.700000	1	0.299750
25.716667	1	0.300750
25.733333	1	0.301250
25.750000	1	0.301375
25.766667	1	0.302125
25.783333	1	0.303125
25.800000	1	0.304375
25.816667	1	0.305625
25.833333	1	0.306625
25.850000	1	0.308000
25.866667	1	0.309375
25.883333	1	0.310875
25.900000	1	0.313375
25.916667	1	0.314875
25.933333	1	0.316625
25.950000	1	0.319375
25.966667	1	0.322500
25.983333	1	0.326000
26.000000	1	0.330500
26.016667	1	0.333875
26.033333	1	0.338250
26.050000	1	0.342875
26.066667	1	0.347625
26.083333	1	0.352625
26.100000	1	0.357875
26.116667	1	0.363500
26.133333	1	0.368125
26.150000	1	0.372500
26.166667	1	0.376625
26.183333	1	0.381375
26.200000	1	0.386125
26.216667	1	0.390125
26.233333	1	0.392250
26.250000	1	0.395125
26.266667	1	0.397125
26.283333	1	0.398750
26.300000	1	0.399375
26.316667	1	0.399625
26.333333	1	0.399375
26.350000	1	0.398250
26.366667	1	0.395375
26.383333	1	0.391625
26.400000	1	0.387000
26.416667	1	0.382250
26.433333	1	0.376875
26.450000	1	0.371375
26.466667	1	0.365125
26.483333	1	0.358625
26.500000	1	0.352125
26.516667	1	0.344625
26.533333	1	0.337125
26.550000	1	0.329250
26.566667	1	0.320625
26.583333	1	0.313250
26.600000	1	0.305875
26.616667	1	0.298375
26.633333	1	0.291125
26.650000	1	0.284250
26.666667	1	0.277000
26.683333	1	0.270125
26.700000	1	0.263625
26.716667	1	0.257250
26.733333	1	0.251375
26.750000	1	0.246750
26.766667	1	0.241375
26.783333	1	0.236500
26.800000	1	0.232250
26.816667	1	0.228500
26.833333	1	0.224500
26.850000	1	0.222000
26.866667	1	0.219250
26.883333	1	0.217250
26.900000	1	0.216000
26.916667	1	0.214875
26.933333	1	0.213875
26.950000	1	0.213000
26.966667	1	0.213125
26.983333	1	0.213375
27.000000	1	0.214000
27.016667	1	0.215750
27.033333	1	0.217875
27.050000	1	0.220500
27.066667	1	0.223375
27.083333	1	0.228000
27.100000	1	0.233750
27.116667	1	0.239375
27.133333	1	0.246625
27.150000	1	0.254000
27.166667	1	0.264000
27.183333	1	0.275625
27.200000	1	0.288750
27.216667	1	0.303625
27.233333	1	0.321250
27.250000	1	0.342125
27.266667	1	0.365625
27.283333	1	0.394125
27.300000	1	0.427625
27.316667	1	0.465750
27.333333	1	0.509500
27.350000	1	0.559875
27.366667	1	0.618375
27.383333	1	0.685000
27.400000	1	0.760375
27.416667	1	0.845375
27.433333	1	0.941625
27.450000	1	1.049250
27.466667	1	1.168750
27.483333	1	1.301875
27.500000	1	1.447500
27.516667	1	1.606250
27.533333	1	1.776250
27.550000	1	1.959125
27.566667	1	2.153250
27.583333	1	2.357250
27.600000	1	2.569000
27.616667	1	2.788000
27.633333	1	3.011625
27.650000	1	3.238625
27.666667	1	3.463875
27.683333	1	3.686000
27.700000	1	3.900875
27.716667	1	4.104875
27.733333	1	4.294625
27.750000	1	4.466875
27.766667	1	4.618750
27.783333	1	4.746750
27.800000	1	4.849625
27.816667	1	4.924625
27.833333	1	4.969250
27.850000	1	4.983875
27.866667	1	4.967750
27.883333	1	4.921125
27.900000	1	4.844625
27.916667	1	4.740000
27.933333	1	4.610000
27.950000	1	4.456375
27.966667	1	4.283250
27.983333	1	4.094000
28.000000	1	3.891000
28.016667	1	3.678625
28.033333	1	3.460125
28.050000	1	3.238125
28.066667	1	3.015750
28.083333	1	2.795875
28.100000	1	2.581500
28.116667	1	2.374375
28.133333	1	2.176000
28.150000	1	1.988875
28.166667	1	1.812375
28.183333	1	1.649125
28.200000	1	1.497875
28.216667	1	1.359125
28.233333	1	1.232125
28.250000	1	1.117000
28.266667	1	1.013500
28.283333	1	0.920375
28.300000	1	0.837000
28.316667	1	0.764000
28.333333	1	0.700375
28.350000	1	0.645000
28.366667	1	0.596750
28.383333	1	0.555625
28.400000	1	0.522000
28.416667	1	0.494875
28.433333	1	0.473000
28.450000	1	0.455625
28.466667	1	0.442875
28.483333	1	0.433375
28.500000	1	0.427500
28.516667	1	0.424875
28.533333	1	0.425375
28.550000	1	0.428125
28.566667	1	0.432625
28.583333	1	0.439500
28.600000	1	0.447750
28.616667	1	0.457500
28.633333	1	0.467500
28.650000	1	0.478500
28.666667	1	0.490625
28.683333	1	0.502500
28.700000	1	0.514375
28.716667	1	0.526750
28.733333	1	0.538875
28.750000	1	0.549875
28.766667	1	0.559500
28.783333	1	0.569125
28.800000	1	0.577875
28.816667	1	0.585625
28.833333	1	0.592250
28.850000	1	0.598750
28.866667	1	0.603125
28.883333	1	0.606000
28.900000	1	0.608125
28.916667	1	0.608625
28.933333	1	0.608250
28.950000	1	0.606750
28.966667	1	0.603250
28.983333	1	0.599000
29.000000	1	0.593500
29.016667	1	0.587375
29.033333	1	0.579625
29.050000	1	0.570875
29.066667	1	0.561000
29.083333	1	0.550875
29.100000	1	0.539500
29.116667	1	0.527875
29.133333	1	0.515000
29.150000	1	0.500750
29.166667	1	0.487500
29.183333	1	0.474000
29.200000	1	0.459750
29.216667	1	0.445750
29.233333	1	0.431500
29.250000	1	0.417125
29.266667	1	0.402625
29.283333	1	0.388875
29.300000	1	0.375125
29.316667	1	0.361750
29.333333	1	0.348750
29.350000	1	0.336375
29.366667	1	0.323750
29.383333	1	0.311875
29.400000	1	0.300875
29.416667	1	0.289125
29.433333	1	0.278750
29.450000	1	0.268500
29.466667	1	0.258750
29.483333	1	0.249125
29.500000	1	0.240875
29.516667	1	0.232375
29.533333	1	0.224500
29.550000	1	0.217250
29.566667	1	0.209875
29.583333	1	0.203250
29.600000	1	0.196750
29.616667	1	0.190875
29.633333	1	0.185375
29.650000	1	0.181375
29.666667	1	0.176250
29.683333	1	0.171250
29.700000	1	0.167500
29.716667	1	0.163625
29.733333	1	0.160000
29.750000	1	0.156750
29.766667	1	0.153250
29.783333	1	0.149875
29.800000	1	0.146750
29.816667	1	0.143875
29.833333	1	0.140750
29.850000	1	0.138750
29.866667	1	0.136000
29.883333	1	0.133625
29.900000	1	0.131500
29.916667	1	0.128875
29.933333	1	0.126875
29.950000	1	0.124125
29.966667	1	0.122125
29.983333	1	0.120250
30.000000	1	0.117625
30.016667	1	0.114500
30.033333	1	0.112500
30.050000	1	0.110875
30.066667	1	0.109875
30.083333	1	0.107500
30.100000	1	0.105750
30.116667	1	0.103875
30.133333	1	0.102375
30.150000	1	0.100375
30.166667	1	0.098625
30.183333	1	0.096625
30.200000	1	0.095375
30.216667	1	0.094500
30.233333	1	0.093875
30.250000	1	0.093750
30.266667	1	0.093375
30.283333	1	0.093125
30.300000	1	0.092875
30.316667	1	0.093250
30.333333	1	0.093500
30.350000	1	0.094250
30.366667	1	0.094875
30.383333	1	0.096625
30.400000	1	0.098125
30.416667	1	0.099500
30.433333	1	0.101000
30.450000	1	0.103875
30.466667	1	0.106750
30.483333	1	0.109750
30.500000	1	0.113875
30.516667	1	0.118000
30.533333	1	0.122375
30.550000	1	0.127250
30.566667	1	0.133125
30.583333	1	0.139125
30.600000	1	0.145125
30.616667	1	0.151875
30.633333	1	0.158875
30.650000	1	0.167125
30.666667	1	0.175000
30.683333	1	0.183250
30.700000	1	0.192125
30.716667	1	0.202000
30.733333	1	0.211625
30.750000	1	0.222125
30.766667	1	0.232500
30.783333	1	0.243750
30.800000	1	0.256500
30.816667	1	0.268875
30.833333	1	0.282750
30.850000	1	0.297125
30.866667	1	0.312250
30.883333	1	0.329125
30.900000	1	0.347125
30.916667	1	0.366875
30.933333	1	0.388375
30.950000	1	0.411875
30.966667	1	0.437000
30.983333	1	0.464500
31.000000	1	0.495875
31.016667	1	0.531000
31.033333	1	0.570500
31.050000	1	0.614375
31.066667	1	0.664000
31.083333	1	0.718250
31.100000	1	0.779000
31.116667	1	0.846125
31.133333	1	0.920250
31.150000	1	1.001750
31.166667	1	1.090750
31.183333	1	1.187250
31.200000	1	1.292750
31.216667	1	1.405375
31.233333	1	1.526375
31.250000	1	1.653750
31.266667	1	1.788000
31.283333	1	1.927750
31.300000	1	2.071750
31.316667	1	2.219375
31.333333	1	2.369875
31.350000	1	2.521125
31.366667	1	2.671125
31.383333	1	2.819250
31.400000	1	2.963625
31.416667	1	3.101375
31.433333	1	3.231000
31.450000	1	3.351375
31.466667	1	3.461000
31.483333	1	3.557750
31.500000	1	3.640375
31.516667	1	3.707375
31.533333	1	3.757750
31.550000	1	3.791250
31.566667	1	3.807375
31.583333	1	3.807000
31.600000	1	3.788875
31.616667	1	3.754750
31.633333	1	3.703750
31.650000	1	3.637875
31.666667	1	3.557625
31.683333	1	3.464625
31.700000	1	3.359875
31.716667	1	3.246125
31.733333	1	3.124500
31.750000	1	2.996375
31.766667	1	2.862125
31.783333	1	2.724250
31.800000	1	2.584875
31.816667	1	2.444750
31.833333	1	2.305125
31.850000	1	2.167375
31.866667	1	2.031750
31.883333	1	1.899875
31.900000	1	1.773375
31.916667	1	1.651875
31.933333	1	1.535125
31.950000	1	1.424750
31.966667	1	1.319875
31.983333	1	1.220500
32.000000	1	1.127375
32.016667	1	1.040250
32.033333	1	0.959875
32.050000	1	0.884625
32.066667	1	0.814750
32.083333	1	0.750375
32.100000	1	0.691000
32.116667	1	0.636500
32.133333	1	0.585875
32.150000	1	0.538750
32.166667	1	0.495875
32.183333	1	0.456750
32.200000	1	0.420625
32.216667	1	0.387125
32.233333	1	0.356625
32.250000	1	0.328500
32.266667	1	0.302750
32.283333	1	0.279125
32.300000	1	0.257250
32.316667	1	0.237375
32.333333	1	0.219500
32.350000	1	0.202875
32.366667	1	0.187625
32.383333	1	0.174250
32.400000	1	0.161875
32.416667	1	0.150250
32.433333	1	0.139875
32.450000	1	0.130625
32.466667	1	0.121625
32.483333	1	0.113875
32.500000	1	0.107500
32.516667	1	0.100875
32.533333	1	0.094625
32.550000	1	0.089875
32.566667	1	0.085625
32.583333	1	0.081250
32.600000	1	0.076750
32.616667	1	0.073500
32.633333	1	0.070375
32.650000	1	0.067750
32.666667	1	0.065375
32.683333	1	0.062375
32.700000	1	0.060250
32.716667	1	0.057750
32.733333	1	0.055500
32.750000	1	0.053750
32.766667	1	0.052375
32.783333	1	0.050750
32.800000	1	0.049625
32.816667	1	0.048625
32.833333	1	0.046875
32.850000	1	0.045375
32.866667	1	0.043875
32.883333	1	0.042875
32.900000	1	0.041625
32.916667	1	0.041125
32.933333	1	0.040000
32.950000	1	0.038500
32.966667	1	0.037500
32.983333	1	0.036500
33.000000	1	0.035375
33.016667	1	0.035250
33.033333	1	0.034625
33.050000	1	0.033750
33.066667	1	0.032750
33.083333	1	0.032375
33.100000	1	0.032125
33.116667	1	0.032000
33.133333	1	0.031750
33.150000	1	0.031375
33.166667	1	0.030625
33.183333	1	0.030625
33.200000	1	0.030500
33.216667	1	0.029875
33.233333	1	0.029625
33.250000	1	0.029625
33.266667	1	0.029875
33.283333	1	0.029750
33.300000	1	0.029500
33.316667	1	0.029500
33.333333	1	0.030125
33.350000	1	0.030875
33.366667	1	0.031625
33.383333	1	0.033250
33.400000	1	0.035000
33.416667	1	0.035875
33.433333	1	0.037125
33.450000	1	0.038625
33.466667	1	0.040375
33.483333	1	0.041750
33.500000	1	0.044125
33.516667	1	0.046500
33.533333	1	0.048625
33.550000	1	0.051000
33.566667	1	0.053750
33.583333	1	0.057125
33.600000	1	0.059500
33.616667	1	0.061875
33.633333	1	0.065000
33.650000	1	0.067750
33.666667	1	0.070750
33.683333	1	0.073875
33.700000	1	0.076875
33.716667	1	0.080000
33.733333	1	0.083000
33.750000	1	0.085500
33.766667	1	0.088875
33.783333	1	0.091750
33.800000	1	0.095125
33.816667	1	0.098375
33.833333	1	0.101000
33.850000	1	0.103000
33.866667	1	0.104500
33.883333	1	0.106625
33.900000	1	0.108500
33.916667	1	0.110000
33.933333	1	0.111625
33.950000	1	0.112500
33.966667	1	0.113625
33.983333	1	0.114375
34.000000	1	0.115000
34.016667	1	0.115000
34.033333	1	0.115500
34.050000	1	0.115500
34.066667	1	0.115625
34.083333	1	0.114875
34.100000	1	0.114625
34.116667	1	0.114125
34.133333	1	0.113375
34.150000	1	0.111625
34.166667	1	0.110625
34.183333	1	0.110000
34.200000	1	0.108875
34.216667	1	0.107750
34.233333	1	0.106625
34.250000	1	0.105500
34.266667	1	0.104125
34.283333	1	0.102750
34.300000	1	0.102000
34.316667	1	0.102125
34.333333	1	0.101625
34.350000	1	0.101875
34.366667	1	0.102000
34.383333	1	0.101750
34.400000	1	0.102000
34.416667	1	0.102500
34.433333	1	0.103125
34.450000	1	0.104000
34.466667	1	0.104375
34.483333	1	0.105750
34.500000	1	0.106375
34.516667	1	0.108125
34.533333	1	0.109375
34.550000	1	0.110250
34.566667	1	0.111750
34.583333	1	0.112500
34.600000	1	0.113500
34.616667	1	0.114875
34.633333	1	0.116375
34.650000	1	0.117375
34.666667	1	0.118750
34.683333	1	0.119250
34.700000	1	0.120125
34.716667	1	0.121500
34.733333	1	0.120625
34.750000	1	0.121625
34.766667	1	0.123125
34.783333	1	0.124000
34.800000	1	0.124875
34.816667	1	0.125125
34.833333	1	0.126000
34.850000	1	0.126000
34.866667	1	0.126000
34.883333	1	0.126625
34.900000	1	0.127125
34.916667	1	0.127500
34.933333	1	0.127875
34.950000	1	0.127250
34.966667	1	0.127625
34.983333	1	0.127000
35.000000	1	0.126625
35.016667	1	0.126875
35.033333	1	0.126625
35.050000	1	0.126500
35.066667	1	0.126000
35.083333	1	0.125625
35.100000	1	0.125000
35.116667	1	0.124625
35.133333	1	0.123750
35.150000	1	0.123250
35.166667	1	0.123125
35.183333	1	0.122875
35.200000	1	0.122750
35.216667	1	0.122250
35.233333	1	0.121750
35.250000	1	0.121625
35.266667	1	0.121625
35.283333	1	0.122125
35.300000	1	0.122250
35.316667	1	0.122125
35.333333	1	0.122500
35.350000	1	0.122875
35.366667	1	0.122750
35.383333	1	0.123250
35.400000	1	0.123875
35.416667	1	0.124500
35.433333	1	0.125375
35.450000	1	0.126250
35.466667	1	0.126750
35.483333	1	0.127000
35.500000	1	0.128000
35.516667	1	0.128375
35.533333	1	0.128875
35.550000	1	0.129125
35.566667	1	0.129500
35.583333	1	0.129750
35.600000	1	0.131250
35.616667	1	0.131375
35.633333	1	0.131875
35.650000	1	0.132375
35.666667	1	0.132250
35.683333	1	0.132875
35.700000	1	0.133000
35.716667	1	0.132375
35.733333	1	0.132125
35.750000	1	0.131000
35.766667	1	0.130750
35.783333	1	0.130000
35.800000	1	0.129250
35.816667	1	0.129000
35.833333	1	0.128250
35.850000	1	0.127750
35.866667	1	0.127250
35.883333	1	0.125750
35.900000	1	0.124500
35.916667	1	0.123625
35.933333	1	0.122125
35.950000	1	0.121125
35.966667	1	0.120750
35.983333	1	0.119875
36.000000	1	0.118500
36.016667	1	0.117750
36.033333	1	0.116250
36.050000	1	0.115375
36.066667	1	0.115125
36.083333	1	0.114250
36.100000	1	0.114125
36.116667	1	0.114000
36.133333	1	0.113375
36.150000	1	0.113375
36.166667	1	0.113375
36.183333	1	0.112750
36.200000	1	0.112750
36.216667	1	0.112125
36.233333	1	0.111625
36.250000	1	0.112125
36.266667	1	0.112250
36.283333	1	0.112375
36.300000	1	0.112750
36.316667	1	0.113375
36.333333	1	0.113500
36.350000	1	0.113625
36.366667	1	0.113250
36.383333	1	0.113500
36.400000	1	0.113625
36.416667	1	0.113625
36.433333	1	0.113125
36.450000	1	0.113250
36.466667	1	0.113250
36.483333	1	0.112375
36.500000	1	0.111625
36.516667	1	0.110750
36.533333	1	0.109625
36.550000	1	0.108500
36.566667	1	0.107375
36.583333	1	0.106125
36.600000	1	0.104625
36.616667	1	0.102375
36.633333	1	0.100375
36.650000	1	0.098625
36.666667	1	0.097000
36.683333	1	0.094750
36.700000	1	0.092375
36.716667	1	0.089875
36.733333	1	0.087375
36.750000	1	0.085000
36.766667	1	0.082875
36.783333	1	0.080375
36.800000	1	0.078125
36.816667	1	0.076000
36.833333	1	0.073625
36.850000	1	0.071500
36.866667	1	0.070000
36.883333	1	0.068000
36.900000	1	0.066375
36.916667	1	0.064250
36.933333	1	0.061625
36.950000	1	0.059875
36.966667	1	0.059125
36.983333	1	0.057000
37.000000	1	0.056500
37.016667	1	0.054750
37.033333	1	0.053875
37.050000	1	0.053000
37.066667	1	0.051625
37.083333	1	0.051375
37.100000	1	0.051125
37.116667	1	0.050375
37.133333	1	0.050875
37.150000	1	0.051750
37.166667	1	0.052000
37.183333	1	0.052125
37.200000	1	0.052250
37.216667	1	0.053625
37.233333	1	0.054750
37.250000	1	0.055875
37.266667	1	0.057500
37.283333	1	0.058875
37.300000	1	0.059750
37.316667	1	0.060875
37.333333	1	0.062125
37.350000	1	0.063500
37.366667	1	0.064625
37.383333	1	0.065125
37.400000	1	0.066250
37.416667	1	0.067375
37.433333	1	0.067500
37.450000	1	0.067375
37.466667	1	0.068000
37.483333	1	0.068750
37.500000	1	0.069125
37.516667	1	0.069375
37.533333	1	0.069750
37.550000	1	0.069250
37.566667	1	0.068875
37.583333	1	0.067750
37.600000	1	0.066750
37.616667	1	0.065250
37.633333	1	0.063625
37.650000	1	0.062500
37.666667	1	0.060875
37.683333	1	0.059500
37.700000	1	0.057875
37.716667	1	0.055875
37.733333	1	0.053625
37.750000	1	0.051250
37.766667	1	0.049250
37.783333	1	0.047500
37.800000	1	0.045125
37.816667	1	0.043125
37.833333	1	0.040500
37.850000	1	0.038000
37.866667	1	0.035875
37.883333	1	0.033500
37.900000	1	0.031375
37.916667	1	0.029125
37.933333	1	0.027750
37.950000	1	0.026500
37.966667	1	0.025250
37.983333	1	0.023875
38.000000	1	0.022750
38.016667	1	0.021125
38.033333	1	0.020375
38.050000	1	0.019750
38.066667	1	0.019000
38.083333	1	0.019125
38.100000	1	0.018125
38.116667	1	0.018250
38.133333	1	0.018250
38.150000	1	0.018250
38.166667	1	0.017875
38.183333	1	0.018500
38.200000	1	0.018875
38.216667	1	0.019375
38.233333	1	0.020000
38.250000	1	0.021125
38.266667	1	0.021875
38.283333	1	0.022125
38.300000	1	0.023125
38.316667	1	0.023875
38.333333	1	0.024375
38.350000	1	0.024250
38.366667	1	0.024875
38.383333	1	0.025375
38.400000	1	0.026000
38.416667	1	0.026625
38.433333	1	0.026875
38.450000	1	0.027250
38.466667	1	0.027875
38.483333	1	0.027875
38.500000	1	0.028000
38.516667	1	0.028500
38.533333	1	0.029000
38.550000	1	0.029625
38.566667	1	0.029625
38.583333	1	0.029750
38.600000	1	0.030500
38.616667	1	0.031250
38.633333	1	0.031875
38.650000	1	0.032625
38.666667	1	0.033250
38.683333	1	0.033750
38.700000	1	0.033750
38.716667	1	0.033750
38.733333	1	0.034500
38.750000	1	0.035125
38.766667	1	0.035875
38.783333	1	0.036500
38.800000	1	0.036500
38.816667	1	0.037000
38.833333	1	0.038000
38.850000	1	0.038750
38.866667	1	0.039250
38.883333	1	0.039125
38.900000	1	0.040000
38.916667	1	0.040125
38.933333	1	0.040625
38.950000	1	0.041125
38.966667	1	0.041750
38.983333	1	0.041500
39.000000	1	0.042000
39.016667	1	0.042000
39.033333	1	0.042000
39.050000	1	0.041750
39.066667	1	0.041625
39.083333	1	0.041500
39.100000	1	0.041125
39.116667	1	0.040875
39.133333	1	0.040500
39.150000	1	0.039875
39.166667	1	0.039750
39.183333	1	0.038750
39.200000	1	0.038125
39.216667	1	0.037375
39.233333	1	0.036250
39.250000	1	0.034750
39.266667	1	0.034000
39.283333	1	0.032875
39.300000	1	0.031750
39.316667	1	0.030375
39.333333	1	0.029625
39.350000	1	0.027875
39.366667	1	0.025750
39.383333	1	0.024125
39.400000	1	0.023000
39.416667	1	0.022375
39.433333	1	0.021875
39.450000	1	0.020625
39.466667	1	0.018250
39.483333	1	0.016875
39.500000	1	0.014875
39.516667	1	0.013750
39.533333	1	0.012375
39.550000	1	0.011000
39.566667	1	0.009750
39.583333	1	0.008500
39.600000	1	0.006750
39.616667	1	0.006000
39.633333	1	0.004750
39.650000	1	0.004000
39.666667	1	0.003875
39.683333	1	0.003625
39.700000	1	0.002500
39.716667	1	0.002000
39.733333	1	0.001625
39.750000	1	0.000750
39.766667	1	0.000375
39.783333	1	-0.000250
39.800000	1	-0.000750
39.816667	1	-0.001000
39.833333	1	-0.000875
39.850000	1	-0.001250
39.866667	1	-0.001875
39.883333	1	-0.001875
39.900000	1	-0.002250
39.916667	1	-0.002625
39.933333	1	-0.002750
39.950000	1	-0.002125
39.966667	1	-0.002625
39.983333	1	-0.002500
40.000000	1	-0.002750
