URL	chrom://bioreactor/micro_cm7/HPLC_Ultimate_3000/Users/markusar/20240708_MA_pHrange1.seq/195.smp/RI_1.channel/RI_1.chm
Channel	RI_1

Injection Information:
Data Vault	micro_cm7
Sequence	20240708_MA_pHrange1
Name	Pv1_20H_5
Number	36
Position	BC12
Comment	
Processing Method	
Instrument Method	run_25B_method
Type	Unknown
Status	Finished
Inject Time	09.07.2024 15:28:32 +02:00
Volume (µl)	20.0000
Dilution Factor	1.0000
Weight	1.0000

Chromatogram Data Information:
Time Min. (min)	0.000000
Time Max. (min)	40.000000
Data Points	2401
Detector	RI
Generating Data System	Chromeleon 7.3.2.11814
Exporting Data System	Chromeleon 7.3.2.0
Operator	Instrument Controller
Signal Quantity	Refractive 
Signal Unit	µRIU
Signal Min.	-0.148375
Signal Max.	84.049000
Channel	RI_1
Driver Name	RID520Driver.dll
Channel Type	Evaluation
Min. Step (s)	1
Max. Step (s)	1
Average Step (s)	1

Signal Parameter Information:
Signal Info	

Chromatogram Data:
Time (min)	Step (s)	Value (µRIU)
0.000000	n.a.	0.040875
0.016667	1	0.040500
0.033333	1	0.040000
0.050000	1	0.039375
0.066667	1	0.038250
0.083333	1	0.037000
0.100000	1	0.036625
0.116667	1	0.035125
0.133333	1	0.034000
0.150000	1	0.032500
0.166667	1	0.030625
0.183333	1	0.028875
0.200000	1	0.027500
0.216667	1	0.025375
0.233333	1	0.023500
0.250000	1	0.021875
0.266667	1	0.020250
0.283333	1	0.018125
0.300000	1	0.016625
0.316667	1	0.014875
0.333333	1	0.013125
0.350000	1	0.011625
0.366667	1	0.009125
0.383333	1	0.006375
0.400000	1	0.004125
0.416667	1	0.002875
0.433333	1	0.002500
0.450000	1	0.001875
0.466667	1	0.002750
0.483333	1	0.002875
0.500000	1	0.002500
0.516667	1	0.002125
0.533333	1	0.001375
0.550000	1	0.000125
0.566667	1	-0.002000
0.583333	1	-0.004750
0.600000	1	-0.007500
0.616667	1	-0.009250
0.633333	1	-0.011500
0.650000	1	-0.012000
0.666667	1	-0.013250
0.683333	1	-0.014750
0.700000	1	-0.016000
0.716667	1	-0.017125
0.733333	1	-0.018125
0.750000	1	-0.018000
0.766667	1	-0.018500
0.783333	1	-0.018750
0.800000	1	-0.019250
0.816667	1	-0.018875
0.833333	1	-0.019125
0.850000	1	-0.019500
0.866667	1	-0.019000
0.883333	1	-0.018875
0.900000	1	-0.018500
0.916667	1	-0.018500
0.933333	1	-0.018125
0.950000	1	-0.017125
0.966667	1	-0.016375
0.983333	1	-0.015750
1.000000	1	-0.015500
1.016667	1	-0.013750
1.033333	1	-0.012500
1.050000	1	-0.010875
1.066667	1	-0.009375
1.083333	1	-0.008000
1.100000	1	-0.007250
1.116667	1	-0.005750
1.133333	1	-0.004125
1.150000	1	-0.002500
1.166667	1	-0.000875
1.183333	1	0.000500
1.200000	1	0.002000
1.216667	1	0.003875
1.233333	1	0.005500
1.250000	1	0.006000
1.266667	1	0.006625
1.283333	1	0.007750
1.300000	1	0.009250
1.316667	1	0.010750
1.333333	1	0.011750
1.350000	1	0.012500
1.366667	1	0.013500
1.383333	1	0.014500
1.400000	1	0.014875
1.416667	1	0.015625
1.433333	1	0.016250
1.450000	1	0.017250
1.466667	1	0.018000
1.483333	1	0.018250
1.500000	1	0.019125
1.516667	1	0.020000
1.533333	1	0.019625
1.550000	1	0.019750
1.566667	1	0.019625
1.583333	1	0.019250
1.600000	1	0.018875
1.616667	1	0.019625
1.633333	1	0.019875
1.650000	1	0.020000
1.666667	1	0.020000
1.683333	1	0.019625
1.700000	1	0.019000
1.716667	1	0.019125
1.733333	1	0.018750
1.750000	1	0.019000
1.766667	1	0.018625
1.783333	1	0.018250
1.800000	1	0.017750
1.816667	1	0.017250
1.833333	1	0.017125
1.850000	1	0.016500
1.866667	1	0.016625
1.883333	1	0.015625
1.900000	1	0.014625
1.916667	1	0.013750
1.933333	1	0.012875
1.950000	1	0.012375
1.966667	1	0.011625
1.983333	1	0.010750
2.000000	1	0.009875
2.016667	1	0.008625
2.033333	1	0.008000
2.050000	1	0.007000
2.066667	1	0.006125
2.083333	1	0.005500
2.100000	1	0.004500
2.116667	1	0.002875
2.133333	1	0.001875
2.150000	1	0.000250
2.166667	1	-0.000875
2.183333	1	-0.001625
2.200000	1	-0.001875
2.216667	1	-0.003000
2.233333	1	-0.004250
2.250000	1	-0.005500
2.266667	1	-0.006500
2.283333	1	-0.007125
2.300000	1	-0.008625
2.316667	1	-0.009875
2.333333	1	-0.011125
2.350000	1	-0.012375
2.366667	1	-0.013750
2.383333	1	-0.014875
2.400000	1	-0.015875
2.416667	1	-0.016625
2.433333	1	-0.017625
2.450000	1	-0.018625
2.466667	1	-0.020375
2.483333	1	-0.021625
2.500000	1	-0.022750
2.516667	1	-0.022500
2.533333	1	-0.023250
2.550000	1	-0.024375
2.566667	1	-0.025125
2.583333	1	-0.024750
2.600000	1	-0.024500
2.616667	1	-0.024875
2.633333	1	-0.024500
2.650000	1	-0.024125
2.666667	1	-0.023625
2.683333	1	-0.023625
2.700000	1	-0.023500
2.716667	1	-0.022750
2.733333	1	-0.022250
2.750000	1	-0.021625
2.766667	1	-0.021500
2.783333	1	-0.020875
2.800000	1	-0.019875
2.816667	1	-0.018875
2.833333	1	-0.017875
2.850000	1	-0.017375
2.866667	1	-0.017000
2.883333	1	-0.016750
2.900000	1	-0.016250
2.916667	1	-0.015250
2.933333	1	-0.014125
2.950000	1	-0.013125
2.966667	1	-0.012625
2.983333	1	-0.011500
3.000000	1	-0.010625
3.016667	1	-0.008750
3.033333	1	-0.007875
3.050000	1	-0.007375
3.066667	1	-0.005000
3.083333	1	-0.003625
3.100000	1	-0.002500
3.116667	1	-0.001500
3.133333	1	-0.000250
3.150000	1	0.001375
3.166667	1	0.003500
3.183333	1	0.005125
3.200000	1	0.007625
3.216667	1	0.010000
3.233333	1	0.012000
3.250000	1	0.013875
3.266667	1	0.015375
3.283333	1	0.017125
3.300000	1	0.018875
3.316667	1	0.020875
3.333333	1	0.023000
3.350000	1	0.024500
3.366667	1	0.026125
3.383333	1	0.027750
3.400000	1	0.029750
3.416667	1	0.030750
3.433333	1	0.032125
3.450000	1	0.033125
3.466667	1	0.035000
3.483333	1	0.035875
3.500000	1	0.036875
3.516667	1	0.037875
3.533333	1	0.037875
3.550000	1	0.038375
3.566667	1	0.039250
3.583333	1	0.040750
3.600000	1	0.041250
3.616667	1	0.042250
3.633333	1	0.042750
3.650000	1	0.043375
3.666667	1	0.043875
3.683333	1	0.044500
3.700000	1	0.045750
3.716667	1	0.046125
3.733333	1	0.046000
3.750000	1	0.046000
3.766667	1	0.046500
3.783333	1	0.047375
3.800000	1	0.047250
3.816667	1	0.047750
3.833333	1	0.047875
3.850000	1	0.047375
3.866667	1	0.047875
3.883333	1	0.047750
3.900000	1	0.047875
3.916667	1	0.048750
3.933333	1	0.048250
3.950000	1	0.048375
3.966667	1	0.048500
3.983333	1	0.049250
4.000000	1	0.049250
4.016667	1	0.050500
4.033333	1	0.051125
4.050000	1	0.051625
4.066667	1	0.052125
4.083333	1	0.052375
4.100000	1	0.053875
4.116667	1	0.054125
4.133333	1	0.054500
4.150000	1	0.055250
4.166667	1	0.056500
4.183333	1	0.057125
4.200000	1	0.058000
4.216667	1	0.059375
4.233333	1	0.060375
4.250000	1	0.061375
4.266667	1	0.062750
4.283333	1	0.063500
4.300000	1	0.064375
4.316667	1	0.065625
4.333333	1	0.066125
4.350000	1	0.067250
4.366667	1	0.068625
4.383333	1	0.069500
4.400000	1	0.070500
4.416667	1	0.071750
4.433333	1	0.072625
4.450000	1	0.073625
4.466667	1	0.075125
4.483333	1	0.075875
4.500000	1	0.076625
4.516667	1	0.077125
4.533333	1	0.078375
4.550000	1	0.078500
4.566667	1	0.080375
4.583333	1	0.081500
4.600000	1	0.082500
4.616667	1	0.083875
4.633333	1	0.085000
4.650000	1	0.086375
4.666667	1	0.087375
4.683333	1	0.088125
4.700000	1	0.090000
4.716667	1	0.091250
4.733333	1	0.092250
4.750000	1	0.093750
4.766667	1	0.095750
4.783333	1	0.097000
4.800000	1	0.099375
4.816667	1	0.101750
4.833333	1	0.103625
4.850000	1	0.105750
4.866667	1	0.108500
4.883333	1	0.111000
4.900000	1	0.114125
4.916667	1	0.116125
4.933333	1	0.117625
4.950000	1	0.120500
4.966667	1	0.123750
4.983333	1	0.126875
5.000000	1	0.130250
5.016667	1	0.133625
5.033333	1	0.137375
5.050000	1	0.141500
5.066667	1	0.145500
5.083333	1	0.150000
5.100000	1	0.154000
5.116667	1	0.158375
5.133333	1	0.162125
5.150000	1	0.166500
5.166667	1	0.170875
5.183333	1	0.175250
5.200000	1	0.179500
5.216667	1	0.184625
5.233333	1	0.189250
5.250000	1	0.193625
5.266667	1	0.198125
5.283333	1	0.202375
5.300000	1	0.206375
5.316667	1	0.210375
5.333333	1	0.215125
5.350000	1	0.219125
5.366667	1	0.222500
5.383333	1	0.225625
5.400000	1	0.229375
5.416667	1	0.232625
5.433333	1	0.235750
5.450000	1	0.238875
5.466667	1	0.241250
5.483333	1	0.243250
5.500000	1	0.245750
5.516667	1	0.247000
5.533333	1	0.248625
5.550000	1	0.249750
5.566667	1	0.251000
5.583333	1	0.251875
5.600000	1	0.251625
5.616667	1	0.251250
5.633333	1	0.251250
5.650000	1	0.250125
5.666667	1	0.249125
5.683333	1	0.247625
5.700000	1	0.246750
5.716667	1	0.244625
5.733333	1	0.242500
5.750000	1	0.240125
5.766667	1	0.237750
5.783333	1	0.234875
5.800000	1	0.231500
5.816667	1	0.228500
5.833333	1	0.225750
5.850000	1	0.223250
5.866667	1	0.219125
5.883333	1	0.215500
5.900000	1	0.211625
5.916667	1	0.207500
5.933333	1	0.203500
5.950000	1	0.199875
5.966667	1	0.196000
5.983333	1	0.192000
6.000000	1	0.187625
6.016667	1	0.183125
6.033333	1	0.178750
6.050000	1	0.174250
6.066667	1	0.169625
6.083333	1	0.165000
6.100000	1	0.160500
6.116667	1	0.156125
6.133333	1	0.152000
6.150000	1	0.148000
6.166667	1	0.143750
6.183333	1	0.140000
6.200000	1	0.135500
6.216667	1	0.131375
6.233333	1	0.127250
6.250000	1	0.123500
6.266667	1	0.119875
6.283333	1	0.115500
6.300000	1	0.112125
6.316667	1	0.109000
6.333333	1	0.106000
6.350000	1	0.103500
6.366667	1	0.101000
6.383333	1	0.097875
6.400000	1	0.095125
6.416667	1	0.092875
6.433333	1	0.090875
6.450000	1	0.089375
6.466667	1	0.087625
6.483333	1	0.085875
6.500000	1	0.084375
6.516667	1	0.083000
6.533333	1	0.081875
6.550000	1	0.081750
6.566667	1	0.081500
6.583333	1	0.080750
6.600000	1	0.080125
6.616667	1	0.079750
6.633333	1	0.079750
6.650000	1	0.079500
6.666667	1	0.079000
6.683333	1	0.078250
6.700000	1	0.077375
6.716667	1	0.077125
6.733333	1	0.077000
6.750000	1	0.076875
6.766667	1	0.077375
6.783333	1	0.077625
6.800000	1	0.077125
6.816667	1	0.077000
6.833333	1	0.077625
6.850000	1	0.078750
6.866667	1	0.080000
6.883333	1	0.080375
6.900000	1	0.081750
6.916667	1	0.082375
6.933333	1	0.084000
6.950000	1	0.085625
6.966667	1	0.087750
6.983333	1	0.090125
7.000000	1	0.093125
7.016667	1	0.096000
7.033333	1	0.098625
7.050000	1	0.101750
7.066667	1	0.104500
7.083333	1	0.107375
7.100000	1	0.110000
7.116667	1	0.113250
7.133333	1	0.117000
7.150000	1	0.119625
7.166667	1	0.122750
7.183333	1	0.126375
7.200000	1	0.129375
7.216667	1	0.132500
7.233333	1	0.135875
7.250000	1	0.138625
7.266667	1	0.141375
7.283333	1	0.143625
7.300000	1	0.146125
7.316667	1	0.148875
7.333333	1	0.151250
7.350000	1	0.152625
7.366667	1	0.154750
7.383333	1	0.156750
7.400000	1	0.157625
7.416667	1	0.158750
7.433333	1	0.159875
7.450000	1	0.160625
7.466667	1	0.160500
7.483333	1	0.160250
7.500000	1	0.160000
7.516667	1	0.158875
7.533333	1	0.157875
7.550000	1	0.156125
7.566667	1	0.154375
7.583333	1	0.152875
7.600000	1	0.150375
7.616667	1	0.147500
7.633333	1	0.144500
7.650000	1	0.141125
7.666667	1	0.137875
7.683333	1	0.135000
7.700000	1	0.131125
7.716667	1	0.127375
7.733333	1	0.123750
7.750000	1	0.119125
7.766667	1	0.115500
7.783333	1	0.110875
7.800000	1	0.106250
7.816667	1	0.101000
7.833333	1	0.095375
7.850000	1	0.091375
7.866667	1	0.086500
7.883333	1	0.081375
7.900000	1	0.076750
7.916667	1	0.072625
7.933333	1	0.068125
7.950000	1	0.063250
7.966667	1	0.058875
7.983333	1	0.054750
8.000000	1	0.050250
8.016667	1	0.046625
8.033333	1	0.043125
8.050000	1	0.039625
8.066667	1	0.036250
8.083333	1	0.033000
8.100000	1	0.029750
8.116667	1	0.026375
8.133333	1	0.023875
8.150000	1	0.021125
8.166667	1	0.018000
8.183333	1	0.015250
8.200000	1	0.012500
8.216667	1	0.010500
8.233333	1	0.008875
8.250000	1	0.006875
8.266667	1	0.005375
8.283333	1	0.003250
8.300000	1	0.001500
8.316667	1	0.000625
8.333333	1	-0.000125
8.350000	1	-0.000750
8.366667	1	-0.001750
8.383333	1	-0.002500
8.400000	1	-0.003000
8.416667	1	-0.003375
8.433333	1	-0.003875
8.450000	1	-0.004250
8.466667	1	-0.004500
8.483333	1	-0.004750
8.500000	1	-0.005000
8.516667	1	-0.005000
8.533333	1	-0.004750
8.550000	1	-0.004625
8.566667	1	-0.004000
8.583333	1	-0.003000
8.600000	1	-0.002500
8.616667	1	-0.001625
8.633333	1	-0.001625
8.650000	1	-0.000750
8.666667	1	0.000000
8.683333	1	0.001000
8.700000	1	0.000750
8.716667	1	0.001500
8.733333	1	0.002375
8.750000	1	0.003125
8.766667	1	0.003750
8.783333	1	0.004875
8.800000	1	0.005875
8.816667	1	0.007000
8.833333	1	0.008250
8.850000	1	0.009125
8.866667	1	0.010500
8.883333	1	0.011500
8.900000	1	0.012750
8.916667	1	0.013875
8.933333	1	0.014750
8.950000	1	0.015625
8.966667	1	0.017125
8.983333	1	0.017500
9.000000	1	0.018625
9.016667	1	0.019250
9.033333	1	0.020250
9.050000	1	0.021125
9.066667	1	0.021750
9.083333	1	0.022500
9.100000	1	0.022500
9.116667	1	0.023375
9.133333	1	0.023625
9.150000	1	0.023500
9.166667	1	0.023750
9.183333	1	0.024250
9.200000	1	0.023625
9.216667	1	0.023250
9.233333	1	0.023125
9.250000	1	0.022750
9.266667	1	0.022250
9.283333	1	0.021125
9.300000	1	0.020375
9.316667	1	0.019750
9.333333	1	0.019125
9.350000	1	0.018875
9.366667	1	0.018125
9.383333	1	0.016500
9.400000	1	0.015500
9.416667	1	0.014500
9.433333	1	0.012750
9.450000	1	0.011000
9.466667	1	0.009125
9.483333	1	0.007500
9.500000	1	0.006250
9.516667	1	0.003875
9.533333	1	0.001750
9.550000	1	-0.000750
9.566667	1	-0.002750
9.583333	1	-0.005000
9.600000	1	-0.007125
9.616667	1	-0.009500
9.633333	1	-0.011125
9.650000	1	-0.012250
9.666667	1	-0.014625
9.683333	1	-0.016125
9.700000	1	-0.018250
9.716667	1	-0.019375
9.733333	1	-0.021125
9.750000	1	-0.022000
9.766667	1	-0.023250
9.783333	1	-0.024875
9.800000	1	-0.026000
9.816667	1	-0.026625
9.833333	1	-0.027250
9.850000	1	-0.028375
9.866667	1	-0.029125
9.883333	1	-0.028625
9.900000	1	-0.028250
9.916667	1	-0.028000
9.933333	1	-0.027875
9.950000	1	-0.027500
9.966667	1	-0.026750
9.983333	1	-0.026250
10.000000	1	-0.025875
10.016667	1	-0.024875
10.033333	1	-0.023750
10.050000	1	-0.023000
10.066667	1	-0.021625
10.083333	1	-0.019875
10.100000	1	-0.017500
10.116667	1	-0.014375
10.133333	1	-0.011125
10.150000	1	-0.006625
10.166667	1	-0.001750
10.183333	1	0.005000
10.200000	1	0.013000
10.216667	1	0.021375
10.233333	1	0.031875
10.250000	1	0.044250
10.266667	1	0.058125
10.283333	1	0.074250
10.300000	1	0.092625
10.316667	1	0.113375
10.333333	1	0.134500
10.350000	1	0.157500
10.366667	1	0.178250
10.383333	1	0.195625
10.400000	1	0.204250
10.416667	1	0.200375
10.433333	1	0.177500
10.450000	1	0.133000
10.466667	1	0.065375
10.483333	1	-0.017375
10.500000	1	-0.099000
10.516667	1	-0.148375
10.533333	1	-0.117250
10.550000	1	0.059125
10.566667	1	0.457500
10.583333	1	1.159875
10.600000	1	2.246500
10.616667	1	3.789000
10.633333	1	5.842000
10.650000	1	8.444875
10.666667	1	11.625750
10.683333	1	15.399125
10.700000	1	19.766875
10.716667	1	24.719250
10.733333	1	30.231750
10.750000	1	36.266000
10.766667	1	42.756000
10.783333	1	49.611750
10.800000	1	56.693500
10.816667	1	63.779625
10.833333	1	70.525375
10.850000	1	76.429750
10.866667	1	80.842875
10.883333	1	83.037625
10.900000	1	82.405625
10.916667	1	78.719625
10.933333	1	72.292500
10.950000	1	63.918125
10.966667	1	54.621375
10.983333	1	45.359250
11.000000	1	36.820875
11.016667	1	29.383625
11.033333	1	23.174625
11.050000	1	18.151500
11.066667	1	14.181375
11.083333	1	11.100375
11.100000	1	8.742875
11.116667	1	6.957250
11.133333	1	5.611625
11.150000	1	4.600000
11.166667	1	3.837750
11.183333	1	3.260250
11.200000	1	2.819125
11.216667	1	2.478875
11.233333	1	2.213250
11.250000	1	2.002375
11.266667	1	1.832125
11.283333	1	1.693625
11.300000	1	1.579125
11.316667	1	1.482625
11.333333	1	1.401625
11.350000	1	1.332875
11.366667	1	1.273625
11.383333	1	1.222375
11.400000	1	1.178375
11.416667	1	1.141125
11.433333	1	1.109250
11.450000	1	1.081000
11.466667	1	1.057500
11.483333	1	1.037750
11.500000	1	1.019750
11.516667	1	1.005000
11.533333	1	0.992625
11.550000	1	0.982125
11.566667	1	0.973375
11.583333	1	0.966250
11.600000	1	0.960625
11.616667	1	0.955875
11.633333	1	0.952750
11.650000	1	0.951375
11.666667	1	0.951625
11.683333	1	0.953125
11.700000	1	0.955625
11.716667	1	0.959500
11.733333	1	0.965000
11.750000	1	0.971000
11.766667	1	0.978375
11.783333	1	0.986125
11.800000	1	0.994250
11.816667	1	1.002500
11.833333	1	1.011250
11.850000	1	1.019375
11.866667	1	1.027875
11.883333	1	1.035250
11.900000	1	1.041500
11.916667	1	1.046750
11.933333	1	1.050125
11.950000	1	1.053375
11.966667	1	1.055750
11.983333	1	1.058375
12.000000	1	1.060375
12.016667	1	1.062375
12.033333	1	1.064750
12.050000	1	1.067625
12.066667	1	1.070625
12.083333	1	1.073000
12.100000	1	1.076625
12.116667	1	1.080750
12.133333	1	1.085125
12.150000	1	1.090500
12.166667	1	1.096250
12.183333	1	1.102750
12.200000	1	1.110375
12.216667	1	1.119750
12.233333	1	1.130375
12.250000	1	1.142500
12.266667	1	1.157750
12.283333	1	1.175875
12.300000	1	1.199375
12.316667	1	1.228375
12.333333	1	1.265500
12.350000	1	1.313250
12.366667	1	1.374625
12.383333	1	1.453250
12.400000	1	1.554125
12.416667	1	1.681375
12.433333	1	1.840750
12.450000	1	2.039000
12.466667	1	2.280000
12.483333	1	2.571625
12.500000	1	2.918750
12.516667	1	3.324000
12.533333	1	3.790625
12.550000	1	4.318500
12.566667	1	4.904250
12.583333	1	5.542625
12.600000	1	6.224000
12.616667	1	6.934500
12.633333	1	7.661250
12.650000	1	8.387750
12.666667	1	9.100750
12.683333	1	9.786875
12.700000	1	10.437375
12.716667	1	11.046625
12.733333	1	11.613250
12.750000	1	12.141250
12.766667	1	12.638625
12.783333	1	13.115250
12.800000	1	13.582750
12.816667	1	14.051125
12.833333	1	14.531125
12.850000	1	15.031500
12.866667	1	15.558750
12.883333	1	16.117875
12.900000	1	16.710000
12.916667	1	17.336000
12.933333	1	17.995625
12.950000	1	18.686875
12.966667	1	19.408500
12.983333	1	20.159125
13.000000	1	20.936500
13.016667	1	21.736625
13.033333	1	22.560750
13.050000	1	23.407375
13.066667	1	24.277125
13.083333	1	25.168125
13.100000	1	26.081000
13.116667	1	27.013625
13.133333	1	27.966625
13.150000	1	28.938500
13.166667	1	29.929500
13.183333	1	30.938875
13.200000	1	31.967000
13.216667	1	33.012625
13.233333	1	34.077000
13.250000	1	35.161875
13.266667	1	36.266750
13.283333	1	37.393125
13.300000	1	38.541875
13.316667	1	39.712375
13.333333	1	40.904250
13.350000	1	42.119125
13.366667	1	43.357500
13.383333	1	44.619125
13.400000	1	45.904250
13.416667	1	47.213375
13.433333	1	48.548625
13.450000	1	49.912750
13.466667	1	51.305750
13.483333	1	52.727125
13.500000	1	54.178375
13.516667	1	55.660125
13.533333	1	57.170375
13.550000	1	58.710875
13.566667	1	60.282750
13.583333	1	61.885875
13.600000	1	63.520125
13.616667	1	65.187000
13.633333	1	66.889000
13.650000	1	68.627750
13.666667	1	70.404500
13.683333	1	72.220500
13.700000	1	74.076000
13.716667	1	75.968250
13.733333	1	77.890125
13.750000	1	79.804750
13.766667	1	81.613625
13.783333	1	83.121250
13.800000	1	84.042750
13.816667	1	84.049000
13.833333	1	82.814750
13.850000	1	80.045625
13.866667	1	75.529750
13.883333	1	69.238125
13.900000	1	61.450125
13.916667	1	52.785500
13.933333	1	44.032000
13.950000	1	35.895250
13.966667	1	28.822500
13.983333	1	22.972375
14.000000	1	18.294625
14.016667	1	14.629875
14.033333	1	11.800875
14.050000	1	9.643875
14.066667	1	8.020500
14.083333	1	6.812375
14.100000	1	5.920000
14.116667	1	5.261500
14.133333	1	4.773625
14.150000	1	4.408750
14.166667	1	4.130000
14.183333	1	3.913500
14.200000	1	3.742250
14.216667	1	3.603125
14.233333	1	3.486750
14.250000	1	3.388750
14.266667	1	3.303625
14.283333	1	3.229250
14.300000	1	3.163500
14.316667	1	3.104250
14.333333	1	3.050625
14.350000	1	3.003750
14.366667	1	2.962625
14.383333	1	2.927125
14.400000	1	2.898125
14.416667	1	2.877750
14.433333	1	2.867125
14.450000	1	2.868750
14.466667	1	2.886000
14.483333	1	2.924875
14.500000	1	2.992875
14.516667	1	3.102375
14.533333	1	3.267625
14.550000	1	3.510125
14.566667	1	3.858625
14.583333	1	4.347750
14.600000	1	5.022125
14.616667	1	5.936250
14.633333	1	7.153000
14.650000	1	8.740500
14.666667	1	10.767250
14.683333	1	13.293375
14.700000	1	16.364000
14.716667	1	19.996375
14.733333	1	24.179375
14.750000	1	28.864125
14.766667	1	33.944375
14.783333	1	39.266375
14.800000	1	44.642250
14.816667	1	49.853000
14.833333	1	54.663125
14.850000	1	58.831750
14.866667	1	62.141250
14.883333	1	64.414750
14.900000	1	65.537750
14.916667	1	65.466625
14.933333	1	64.231000
14.950000	1	61.929375
14.966667	1	58.719000
14.983333	1	54.798250
15.000000	1	50.378875
15.016667	1	45.670250
15.033333	1	40.870125
15.050000	1	36.148625
15.066667	1	31.644500
15.083333	1	27.458750
15.100000	1	23.658125
15.116667	1	20.271500
15.133333	1	17.304000
15.150000	1	14.738250
15.166667	1	12.547250
15.183333	1	10.695750
15.200000	1	9.143875
15.216667	1	7.853250
15.233333	1	6.784875
15.250000	1	5.905125
15.266667	1	5.185000
15.283333	1	4.598500
15.300000	1	4.124375
15.316667	1	3.743500
15.333333	1	3.439125
15.350000	1	3.199125
15.366667	1	3.011250
15.383333	1	2.868000
15.400000	1	2.761000
15.416667	1	2.683375
15.433333	1	2.628250
15.450000	1	2.591125
15.466667	1	2.566500
15.483333	1	2.550250
15.500000	1	2.537750
15.516667	1	2.525750
15.533333	1	2.511375
15.550000	1	2.492750
15.566667	1	2.468375
15.583333	1	2.438875
15.600000	1	2.403750
15.616667	1	2.365250
15.633333	1	2.322750
15.650000	1	2.278875
15.666667	1	2.234375
15.683333	1	2.190500
15.700000	1	2.148125
15.716667	1	2.107125
15.733333	1	2.068875
15.750000	1	2.032250
15.766667	1	1.996375
15.783333	1	1.961500
15.800000	1	1.927375
15.816667	1	1.893125
15.833333	1	1.859500
15.850000	1	1.825250
15.866667	1	1.791000
15.883333	1	1.759250
15.900000	1	1.729250
15.916667	1	1.701625
15.933333	1	1.677625
15.950000	1	1.656750
15.966667	1	1.639125
15.983333	1	1.625750
16.000000	1	1.615750
16.016667	1	1.609125
16.033333	1	1.604625
16.050000	1	1.602625
16.066667	1	1.601125
16.083333	1	1.599875
16.100000	1	1.598250
16.116667	1	1.595375
16.133333	1	1.590375
16.150000	1	1.583875
16.166667	1	1.575125
16.183333	1	1.563500
16.200000	1	1.549875
16.216667	1	1.534625
16.233333	1	1.517875
16.250000	1	1.500000
16.266667	1	1.481500
16.283333	1	1.462125
16.300000	1	1.443375
16.316667	1	1.424500
16.333333	1	1.405375
16.350000	1	1.387125
16.366667	1	1.370250
16.383333	1	1.354375
16.400000	1	1.339625
16.416667	1	1.326750
16.433333	1	1.316125
16.450000	1	1.307625
16.466667	1	1.302500
16.483333	1	1.299625
16.500000	1	1.299875
16.516667	1	1.301750
16.533333	1	1.305750
16.550000	1	1.311625
16.566667	1	1.319000
16.583333	1	1.325750
16.600000	1	1.332875
16.616667	1	1.339250
16.633333	1	1.344250
16.650000	1	1.347875
16.666667	1	1.349625
16.683333	1	1.350500
16.700000	1	1.350125
16.716667	1	1.347875
16.733333	1	1.345500
16.750000	1	1.343125
16.766667	1	1.341750
16.783333	1	1.341000
16.800000	1	1.340625
16.816667	1	1.341250
16.833333	1	1.342750
16.850000	1	1.345125
16.866667	1	1.347875
16.883333	1	1.350375
16.900000	1	1.352000
16.916667	1	1.352250
16.933333	1	1.352625
16.950000	1	1.351375
16.966667	1	1.349375
16.983333	1	1.345500
17.000000	1	1.340500
17.016667	1	1.333500
17.033333	1	1.326000
17.050000	1	1.318375
17.066667	1	1.310125
17.083333	1	1.302750
17.100000	1	1.295500
17.116667	1	1.288250
17.133333	1	1.282125
17.150000	1	1.277750
17.166667	1	1.273625
17.183333	1	1.270625
17.200000	1	1.268750
17.216667	1	1.268375
17.233333	1	1.268500
17.250000	1	1.269250
17.266667	1	1.271750
17.283333	1	1.274375
17.300000	1	1.277500
17.316667	1	1.281125
17.333333	1	1.285750
17.350000	1	1.290875
17.366667	1	1.296125
17.383333	1	1.301375
17.400000	1	1.305750
17.416667	1	1.310000
17.433333	1	1.313875
17.450000	1	1.316625
17.466667	1	1.318000
17.483333	1	1.317875
17.500000	1	1.316000
17.516667	1	1.313125
17.533333	1	1.307875
17.550000	1	1.301375
17.566667	1	1.292875
17.583333	1	1.283000
17.600000	1	1.271875
17.616667	1	1.259250
17.633333	1	1.245500
17.650000	1	1.231750
17.666667	1	1.216500
17.683333	1	1.200875
17.700000	1	1.185500
17.716667	1	1.169000
17.733333	1	1.153750
17.750000	1	1.139125
17.766667	1	1.124125
17.783333	1	1.109250
17.800000	1	1.095250
17.816667	1	1.082000
17.833333	1	1.069500
17.850000	1	1.057500
17.866667	1	1.045125
17.883333	1	1.033500
17.900000	1	1.022875
17.916667	1	1.012750
17.933333	1	1.003000
17.950000	1	0.994000
17.966667	1	0.985500
17.983333	1	0.976250
18.000000	1	0.967000
18.016667	1	0.958125
18.033333	1	0.949250
18.050000	1	0.940500
18.066667	1	0.932500
18.083333	1	0.924500
18.100000	1	0.915625
18.116667	1	0.908875
18.133333	1	0.901250
18.150000	1	0.895125
18.166667	1	0.890125
18.183333	1	0.885500
18.200000	1	0.881375
18.216667	1	0.878625
18.233333	1	0.877000
18.250000	1	0.876250
18.266667	1	0.876000
18.283333	1	0.875250
18.300000	1	0.876750
18.316667	1	0.877625
18.333333	1	0.879125
18.350000	1	0.881375
18.366667	1	0.883750
18.383333	1	0.886250
18.400000	1	0.889500
18.416667	1	0.893750
18.433333	1	0.898875
18.450000	1	0.904000
18.466667	1	0.911000
18.483333	1	0.918375
18.500000	1	0.928125
18.516667	1	0.940000
18.533333	1	0.953750
18.550000	1	0.969000
18.566667	1	0.986250
18.583333	1	1.006250
18.600000	1	1.028250
18.616667	1	1.052000
18.633333	1	1.078125
18.650000	1	1.106375
18.666667	1	1.136000
18.683333	1	1.167125
18.700000	1	1.200000
18.716667	1	1.234125
18.733333	1	1.270250
18.750000	1	1.307125
18.766667	1	1.344375
18.783333	1	1.382250
18.800000	1	1.419375
18.816667	1	1.456000
18.833333	1	1.491000
18.850000	1	1.523875
18.866667	1	1.553750
18.883333	1	1.579000
18.900000	1	1.599125
18.916667	1	1.614000
18.933333	1	1.622625
18.950000	1	1.625375
18.966667	1	1.620500
18.983333	1	1.608500
19.000000	1	1.588875
19.016667	1	1.563500
19.033333	1	1.532000
19.050000	1	1.495500
19.066667	1	1.456250
19.083333	1	1.415000
19.100000	1	1.372625
19.116667	1	1.331125
19.133333	1	1.292625
19.150000	1	1.260250
19.166667	1	1.236125
19.183333	1	1.222375
19.200000	1	1.221750
19.216667	1	1.236875
19.233333	1	1.270125
19.250000	1	1.324750
19.266667	1	1.404625
19.283333	1	1.512250
19.300000	1	1.649625
19.316667	1	1.818750
19.333333	1	2.021375
19.350000	1	2.258250
19.366667	1	2.527625
19.383333	1	2.827750
19.400000	1	3.155000
19.416667	1	3.502500
19.433333	1	3.862250
19.450000	1	4.225750
19.466667	1	4.582875
19.483333	1	4.921250
19.500000	1	5.231250
19.516667	1	5.501625
19.533333	1	5.723000
19.550000	1	5.888125
19.566667	1	5.991500
19.583333	1	6.030250
19.600000	1	6.002250
19.616667	1	5.910500
19.633333	1	5.759500
19.650000	1	5.556625
19.666667	1	5.308750
19.683333	1	5.027125
19.700000	1	4.719375
19.716667	1	4.397000
19.733333	1	4.067875
19.750000	1	3.740500
19.766667	1	3.419250
19.783333	1	3.110875
19.800000	1	2.820250
19.816667	1	2.549500
19.833333	1	2.300750
19.850000	1	2.074000
19.866667	1	1.870375
19.883333	1	1.688125
19.900000	1	1.526875
19.916667	1	1.385500
19.933333	1	1.262125
19.950000	1	1.154750
19.966667	1	1.062250
19.983333	1	0.983125
20.000000	1	0.915375
20.016667	1	0.859000
20.033333	1	0.812375
20.050000	1	0.774375
20.066667	1	0.744125
20.083333	1	0.721125
20.100000	1	0.705375
20.116667	1	0.695250
20.133333	1	0.691500
20.150000	1	0.691500
20.166667	1	0.696000
20.183333	1	0.703250
20.200000	1	0.714125
20.216667	1	0.726875
20.233333	1	0.740375
20.250000	1	0.755500
20.266667	1	0.770000
20.283333	1	0.782500
20.300000	1	0.792875
20.316667	1	0.801500
20.333333	1	0.807000
20.350000	1	0.809750
20.366667	1	0.808250
20.383333	1	0.803750
20.400000	1	0.795875
20.416667	1	0.785500
20.433333	1	0.771250
20.450000	1	0.756625
20.466667	1	0.742000
20.483333	1	0.726875
20.500000	1	0.712750
20.516667	1	0.700250
20.533333	1	0.690875
20.550000	1	0.685875
20.566667	1	0.685750
20.583333	1	0.690750
20.600000	1	0.703125
20.616667	1	0.723250
20.633333	1	0.751375
20.650000	1	0.788125
20.666667	1	0.832875
20.683333	1	0.886875
20.700000	1	0.949625
20.716667	1	1.019750
20.733333	1	1.096750
20.750000	1	1.178250
20.766667	1	1.263500
20.783333	1	1.349250
20.800000	1	1.433375
20.816667	1	1.513500
20.833333	1	1.586375
20.850000	1	1.650000
20.866667	1	1.701750
20.883333	1	1.739875
20.900000	1	1.763375
20.916667	1	1.772125
20.933333	1	1.764875
20.950000	1	1.742375
20.966667	1	1.707000
20.983333	1	1.659000
21.000000	1	1.600750
21.016667	1	1.534250
21.033333	1	1.461125
21.050000	1	1.385500
21.066667	1	1.307875
21.083333	1	1.230875
21.100000	1	1.155500
21.116667	1	1.083125
21.133333	1	1.014500
21.150000	1	0.951000
21.166667	1	0.892500
21.183333	1	0.839875
21.200000	1	0.792375
21.216667	1	0.749250
21.233333	1	0.711375
21.250000	1	0.678500
21.266667	1	0.649125
21.283333	1	0.623625
21.300000	1	0.602125
21.316667	1	0.583125
21.333333	1	0.567375
21.350000	1	0.553875
21.366667	1	0.542125
21.383333	1	0.532625
21.400000	1	0.523625
21.416667	1	0.515750
21.433333	1	0.508625
21.450000	1	0.503000
21.466667	1	0.498000
21.483333	1	0.494375
21.500000	1	0.490750
21.516667	1	0.488125
21.533333	1	0.486125
21.550000	1	0.485375
21.566667	1	0.484750
21.583333	1	0.485250
21.600000	1	0.486250
21.616667	1	0.489125
21.633333	1	0.493000
21.650000	1	0.498750
21.666667	1	0.505125
21.683333	1	0.513125
21.700000	1	0.523000
21.716667	1	0.534500
21.733333	1	0.547625
21.750000	1	0.562875
21.766667	1	0.578875
21.783333	1	0.596875
21.800000	1	0.616250
21.816667	1	0.636875
21.833333	1	0.658250
21.850000	1	0.679875
21.866667	1	0.701250
21.883333	1	0.723250
21.900000	1	0.744500
21.916667	1	0.764125
21.933333	1	0.782500
21.950000	1	0.799375
21.966667	1	0.814375
21.983333	1	0.827875
22.000000	1	0.837750
22.016667	1	0.845750
22.033333	1	0.851000
22.050000	1	0.854000
22.066667	1	0.853625
22.083333	1	0.851000
22.100000	1	0.846125
22.116667	1	0.839250
22.133333	1	0.831125
22.150000	1	0.820750
22.166667	1	0.809125
22.183333	1	0.796250
22.200000	1	0.781375
22.216667	1	0.766000
22.233333	1	0.749375
22.250000	1	0.732250
22.266667	1	0.714625
22.283333	1	0.696750
22.300000	1	0.678250
22.316667	1	0.659500
22.333333	1	0.639375
22.350000	1	0.620500
22.366667	1	0.601750
22.383333	1	0.583375
22.400000	1	0.565250
22.416667	1	0.547625
22.433333	1	0.531125
22.450000	1	0.514875
22.466667	1	0.498750
22.483333	1	0.483875
22.500000	1	0.471000
22.516667	1	0.459375
22.533333	1	0.448000
22.550000	1	0.436250
22.566667	1	0.426875
22.583333	1	0.417500
22.600000	1	0.408875
22.616667	1	0.400875
22.633333	1	0.393375
22.650000	1	0.386875
22.666667	1	0.379750
22.683333	1	0.374125
22.700000	1	0.368375
22.716667	1	0.363125
22.733333	1	0.357500
22.750000	1	0.352875
22.766667	1	0.348250
22.783333	1	0.343500
22.800000	1	0.339000
22.816667	1	0.335125
22.833333	1	0.331375
22.850000	1	0.327625
22.866667	1	0.324875
22.883333	1	0.322375
22.900000	1	0.320125
22.916667	1	0.318500
22.933333	1	0.317125
22.950000	1	0.316250
22.966667	1	0.316000
22.983333	1	0.315625
23.000000	1	0.316125
23.016667	1	0.317125
23.033333	1	0.318500
23.050000	1	0.320625
23.066667	1	0.322625
23.083333	1	0.325125
23.100000	1	0.328000
23.116667	1	0.330625
23.133333	1	0.333875
23.150000	1	0.337500
23.166667	1	0.341250
23.183333	1	0.344750
23.200000	1	0.348375
23.216667	1	0.352875
23.233333	1	0.356000
23.250000	1	0.360000
23.266667	1	0.364750
23.283333	1	0.371250
23.300000	1	0.379000
23.316667	1	0.388125
23.333333	1	0.398375
23.350000	1	0.411875
23.366667	1	0.429250
23.383333	1	0.450875
23.400000	1	0.478750
23.416667	1	0.514000
23.433333	1	0.557000
23.450000	1	0.609750
23.466667	1	0.674750
23.483333	1	0.751750
23.500000	1	0.843375
23.516667	1	0.953125
23.533333	1	1.081625
23.550000	1	1.230750
23.566667	1	1.401250
23.583333	1	1.595375
23.600000	1	1.811875
23.616667	1	2.052250
23.633333	1	2.313750
23.650000	1	2.595500
23.666667	1	2.895000
23.683333	1	3.208750
23.700000	1	3.533000
23.716667	1	3.860625
23.733333	1	4.186875
23.750000	1	4.505125
23.766667	1	4.807625
23.783333	1	5.088375
23.800000	1	5.339375
23.816667	1	5.555750
23.833333	1	5.732500
23.850000	1	5.864750
23.866667	1	5.950875
23.883333	1	5.988125
23.900000	1	5.977625
23.916667	1	5.918875
23.933333	1	5.815875
23.950000	1	5.671250
23.966667	1	5.489750
23.983333	1	5.277250
24.000000	1	5.038500
24.016667	1	4.780000
24.033333	1	4.507750
24.050000	1	4.227125
24.066667	1	3.944250
24.083333	1	3.662375
24.100000	1	3.385875
24.116667	1	3.118000
24.133333	1	2.860625
24.150000	1	2.617125
24.166667	1	2.388750
24.183333	1	2.176750
24.200000	1	1.980250
24.216667	1	1.800250
24.233333	1	1.636000
24.250000	1	1.487125
24.266667	1	1.353125
24.283333	1	1.232250
24.300000	1	1.125625
24.316667	1	1.031000
24.333333	1	0.947125
24.350000	1	0.874250
24.366667	1	0.809750
24.383333	1	0.754125
24.400000	1	0.706625
24.416667	1	0.666375
24.433333	1	0.631750
24.450000	1	0.603375
24.466667	1	0.579250
24.483333	1	0.559625
24.500000	1	0.543375
24.516667	1	0.529875
24.533333	1	0.519375
24.550000	1	0.509875
24.566667	1	0.502625
24.583333	1	0.496125
24.600000	1	0.490000
24.616667	1	0.484375
24.633333	1	0.479250
24.650000	1	0.474375
24.666667	1	0.469625
24.683333	1	0.464750
24.700000	1	0.459125
24.716667	1	0.454000
24.733333	1	0.448250
24.750000	1	0.442125
24.766667	1	0.435500
24.783333	1	0.428500
24.800000	1	0.421875
24.816667	1	0.414875
24.833333	1	0.407750
24.850000	1	0.401500
24.866667	1	0.394500
24.883333	1	0.388125
24.900000	1	0.381875
24.916667	1	0.375625
24.933333	1	0.369375
24.950000	1	0.363625
24.966667	1	0.358500
24.983333	1	0.353000
25.000000	1	0.347125
25.016667	1	0.342375
25.033333	1	0.338000
25.050000	1	0.333875
25.066667	1	0.329375
25.083333	1	0.325250
25.100000	1	0.321375
25.116667	1	0.318250
25.133333	1	0.314375
25.150000	1	0.311125
25.166667	1	0.307750
25.183333	1	0.304750
25.200000	1	0.300750
25.216667	1	0.297375
25.233333	1	0.294000
25.250000	1	0.290750
25.266667	1	0.287750
25.283333	1	0.284500
25.300000	1	0.281375
25.316667	1	0.278625
25.333333	1	0.275875
25.350000	1	0.273125
25.366667	1	0.270750
25.383333	1	0.268125
25.400000	1	0.265875
25.416667	1	0.263250
25.433333	1	0.261625
25.450000	1	0.259750
25.466667	1	0.258875
25.483333	1	0.258500
25.500000	1	0.257875
25.516667	1	0.257125
25.533333	1	0.257250
25.550000	1	0.256250
25.566667	1	0.255750
25.583333	1	0.256125
25.600000	1	0.256875
25.616667	1	0.257250
25.633333	1	0.258125
25.650000	1	0.259875
25.666667	1	0.260750
25.683333	1	0.262375
25.700000	1	0.263500
25.716667	1	0.264625
25.733333	1	0.266250
25.750000	1	0.267625
25.766667	1	0.269250
25.783333	1	0.271875
25.800000	1	0.273750
25.816667	1	0.276625
25.833333	1	0.278625
25.850000	1	0.281500
25.866667	1	0.285000
25.883333	1	0.289125
25.900000	1	0.292875
25.916667	1	0.296750
25.933333	1	0.301125
25.950000	1	0.305500
25.966667	1	0.310625
25.983333	1	0.315750
26.000000	1	0.321250
26.016667	1	0.327250
26.033333	1	0.333250
26.050000	1	0.339750
26.066667	1	0.347500
26.083333	1	0.354500
26.100000	1	0.362250
26.116667	1	0.369875
26.133333	1	0.377125
26.150000	1	0.384375
26.166667	1	0.390250
26.183333	1	0.396625
26.200000	1	0.404125
26.216667	1	0.409750
26.233333	1	0.415125
26.250000	1	0.420375
26.266667	1	0.425125
26.283333	1	0.428625
26.300000	1	0.431375
26.316667	1	0.433500
26.333333	1	0.435000
26.350000	1	0.435500
26.366667	1	0.434375
26.383333	1	0.433625
26.400000	1	0.432375
26.416667	1	0.429375
26.433333	1	0.426000
26.450000	1	0.422500
26.466667	1	0.417625
26.483333	1	0.413000
26.500000	1	0.407125
26.516667	1	0.401000
26.533333	1	0.394250
26.550000	1	0.387125
26.566667	1	0.380750
26.583333	1	0.373500
26.600000	1	0.366375
26.616667	1	0.359000
26.633333	1	0.351750
26.650000	1	0.344375
26.666667	1	0.337750
26.683333	1	0.331125
26.700000	1	0.324000
26.716667	1	0.317000
26.733333	1	0.310750
26.750000	1	0.304375
26.766667	1	0.298625
26.783333	1	0.293125
26.800000	1	0.287750
26.816667	1	0.283375
26.833333	1	0.279000
26.850000	1	0.274750
26.866667	1	0.271250
26.883333	1	0.268000
26.900000	1	0.264875
26.916667	1	0.262625
26.933333	1	0.260500
26.950000	1	0.258750
26.966667	1	0.257250
26.983333	1	0.256250
27.000000	1	0.256125
27.016667	1	0.255750
27.033333	1	0.256375
27.050000	1	0.257625
27.066667	1	0.259500
27.083333	1	0.262625
27.100000	1	0.266000
27.116667	1	0.270500
27.133333	1	0.275625
27.150000	1	0.282000
27.166667	1	0.290125
27.183333	1	0.300250
27.200000	1	0.312000
27.216667	1	0.325750
27.233333	1	0.342375
27.250000	1	0.362000
27.266667	1	0.385375
27.283333	1	0.412250
27.300000	1	0.444000
27.316667	1	0.481125
27.333333	1	0.524000
27.350000	1	0.573500
27.366667	1	0.630625
27.383333	1	0.695125
27.400000	1	0.769875
27.416667	1	0.853625
27.433333	1	0.948125
27.450000	1	1.054375
27.466667	1	1.173375
27.483333	1	1.305125
27.500000	1	1.449375
27.516667	1	1.607250
27.533333	1	1.777625
27.550000	1	1.961750
27.566667	1	2.156000
27.583333	1	2.362500
27.600000	1	2.576500
27.616667	1	2.797750
27.633333	1	3.024750
27.650000	1	3.254625
27.666667	1	3.484250
27.683333	1	3.711375
27.700000	1	3.933000
27.716667	1	4.143625
27.733333	1	4.340375
27.750000	1	4.520625
27.766667	1	4.680375
27.783333	1	4.816875
27.800000	1	4.927875
27.816667	1	5.010875
27.833333	1	5.063625
27.850000	1	5.086125
27.866667	1	5.077500
27.883333	1	5.037000
27.900000	1	4.966000
27.916667	1	4.866000
27.933333	1	4.739250
27.950000	1	4.588750
27.966667	1	4.417000
27.983333	1	4.228375
28.000000	1	4.024500
28.016667	1	3.810250
28.033333	1	3.588500
28.050000	1	3.361375
28.066667	1	3.134875
28.083333	1	2.909750
28.100000	1	2.690375
28.116667	1	2.476875
28.133333	1	2.272875
28.150000	1	2.079125
28.166667	1	1.897125
28.183333	1	1.727250
28.200000	1	1.569625
28.216667	1	1.424875
28.233333	1	1.291875
28.250000	1	1.171000
28.266667	1	1.061625
28.283333	1	0.963250
28.300000	1	0.876250
28.316667	1	0.798625
28.333333	1	0.731125
28.350000	1	0.672500
28.366667	1	0.621750
28.383333	1	0.578500
28.400000	1	0.542625
28.416667	1	0.512500
28.433333	1	0.487875
28.450000	1	0.468625
28.466667	1	0.452875
28.483333	1	0.442375
28.500000	1	0.435125
28.516667	1	0.431000
28.533333	1	0.430000
28.550000	1	0.430750
28.566667	1	0.434750
28.583333	1	0.440375
28.600000	1	0.448625
28.616667	1	0.458125
28.633333	1	0.468000
28.650000	1	0.479000
28.666667	1	0.490875
28.683333	1	0.502000
28.700000	1	0.513375
28.716667	1	0.524250
28.733333	1	0.536250
28.750000	1	0.546500
28.766667	1	0.557125
28.783333	1	0.567250
28.800000	1	0.575625
28.816667	1	0.583250
28.833333	1	0.590625
28.850000	1	0.596875
28.866667	1	0.601000
28.883333	1	0.604375
28.900000	1	0.606500
28.916667	1	0.607250
28.933333	1	0.606875
28.950000	1	0.605000
28.966667	1	0.601875
28.983333	1	0.597500
29.000000	1	0.592250
29.016667	1	0.585625
29.033333	1	0.577375
29.050000	1	0.568125
29.066667	1	0.557750
29.083333	1	0.546875
29.100000	1	0.534375
29.116667	1	0.521500
29.133333	1	0.507875
29.150000	1	0.493750
29.166667	1	0.478750
29.183333	1	0.463500
29.200000	1	0.447875
29.216667	1	0.431875
29.233333	1	0.416250
29.250000	1	0.401000
29.266667	1	0.385500
29.283333	1	0.370875
29.300000	1	0.356250
29.316667	1	0.341250
29.333333	1	0.327750
29.350000	1	0.313875
29.366667	1	0.299875
29.383333	1	0.286875
29.400000	1	0.274625
29.416667	1	0.263125
29.433333	1	0.251875
29.450000	1	0.241250
29.466667	1	0.231750
29.483333	1	0.222750
29.500000	1	0.214000
29.516667	1	0.205625
29.533333	1	0.199000
29.550000	1	0.193250
29.566667	1	0.186750
29.583333	1	0.180750
29.600000	1	0.175625
29.616667	1	0.171250
29.633333	1	0.167500
29.650000	1	0.164125
29.666667	1	0.161500
29.683333	1	0.160000
29.700000	1	0.157250
29.716667	1	0.155000
29.733333	1	0.153750
29.750000	1	0.152250
29.766667	1	0.151125
29.783333	1	0.150875
29.800000	1	0.150500
29.816667	1	0.150250
29.833333	1	0.150375
29.850000	1	0.150375
29.866667	1	0.150750
29.883333	1	0.150750
29.900000	1	0.150250
29.916667	1	0.150000
29.933333	1	0.150000
29.950000	1	0.149750
29.966667	1	0.149625
29.983333	1	0.148625
30.000000	1	0.148500
30.016667	1	0.148875
30.033333	1	0.148625
30.050000	1	0.148750
30.066667	1	0.149125
30.083333	1	0.149500
30.100000	1	0.149375
30.116667	1	0.149250
30.133333	1	0.149000
30.150000	1	0.148500
30.166667	1	0.148500
30.183333	1	0.149125
30.200000	1	0.149500
30.216667	1	0.149375
30.233333	1	0.149000
30.250000	1	0.148750
30.266667	1	0.148625
30.283333	1	0.149500
30.300000	1	0.150000
30.316667	1	0.150250
30.333333	1	0.151250
30.350000	1	0.152125
30.366667	1	0.152000
30.383333	1	0.152625
30.400000	1	0.153375
30.416667	1	0.154250
30.433333	1	0.154750
30.450000	1	0.156750
30.466667	1	0.158875
30.483333	1	0.161375
30.500000	1	0.163500
30.516667	1	0.165875
30.533333	1	0.168625
30.550000	1	0.171750
30.566667	1	0.175750
30.583333	1	0.180375
30.600000	1	0.184875
30.616667	1	0.190000
30.633333	1	0.196000
30.650000	1	0.201625
30.666667	1	0.208500
30.683333	1	0.215125
30.700000	1	0.222625
30.716667	1	0.230625
30.733333	1	0.239250
30.750000	1	0.248250
30.766667	1	0.257625
30.783333	1	0.267500
30.800000	1	0.278125
30.816667	1	0.289875
30.833333	1	0.302625
30.850000	1	0.315500
30.866667	1	0.329625
30.883333	1	0.344375
30.900000	1	0.361000
30.916667	1	0.378375
30.933333	1	0.397125
30.950000	1	0.418375
30.966667	1	0.441500
30.983333	1	0.467625
31.000000	1	0.496125
31.016667	1	0.527875
31.033333	1	0.562875
31.050000	1	0.602625
31.066667	1	0.647375
31.083333	1	0.696375
31.100000	1	0.750875
31.116667	1	0.811625
31.133333	1	0.877375
31.150000	1	0.950625
31.166667	1	1.030500
31.183333	1	1.118500
31.200000	1	1.212875
31.216667	1	1.315125
31.233333	1	1.423750
31.250000	1	1.539500
31.266667	1	1.660875
31.283333	1	1.787375
31.300000	1	1.918250
31.316667	1	2.053250
31.333333	1	2.190125
31.350000	1	2.328375
31.366667	1	2.465750
31.383333	1	2.601625
31.400000	1	2.734500
31.416667	1	2.862500
31.433333	1	2.983625
31.450000	1	3.095125
31.466667	1	3.197250
31.483333	1	3.288125
31.500000	1	3.365375
31.516667	1	3.429125
31.533333	1	3.478750
31.550000	1	3.512125
31.566667	1	3.530875
31.583333	1	3.533125
31.600000	1	3.519250
31.616667	1	3.489625
31.633333	1	3.445375
31.650000	1	3.387875
31.666667	1	3.316625
31.683333	1	3.233000
31.700000	1	3.138750
31.716667	1	3.035750
31.733333	1	2.925250
31.750000	1	2.808375
31.766667	1	2.686750
31.783333	1	2.561000
31.800000	1	2.433125
31.816667	1	2.304875
31.833333	1	2.176750
31.850000	1	2.050000
31.866667	1	1.925750
31.883333	1	1.804375
31.900000	1	1.687375
31.916667	1	1.574000
31.933333	1	1.466625
31.950000	1	1.364125
31.966667	1	1.267375
31.983333	1	1.176375
32.000000	1	1.090375
32.016667	1	1.009000
32.033333	1	0.933750
32.050000	1	0.863375
32.066667	1	0.797875
32.083333	1	0.736875
32.100000	1	0.680000
32.116667	1	0.627750
32.133333	1	0.578750
32.150000	1	0.533375
32.166667	1	0.491500
32.183333	1	0.452125
32.200000	1	0.415375
32.216667	1	0.381500
32.233333	1	0.350375
32.250000	1	0.320625
32.266667	1	0.293375
32.283333	1	0.267750
32.300000	1	0.243875
32.316667	1	0.223000
32.333333	1	0.202750
32.350000	1	0.184000
32.366667	1	0.167125
32.383333	1	0.151125
32.400000	1	0.136625
32.416667	1	0.123375
32.433333	1	0.112000
32.450000	1	0.102125
32.466667	1	0.093125
32.483333	1	0.084250
32.500000	1	0.077000
32.516667	1	0.071000
32.533333	1	0.066375
32.550000	1	0.062000
32.566667	1	0.058250
32.583333	1	0.054875
32.600000	1	0.052125
32.616667	1	0.050250
32.633333	1	0.049125
32.650000	1	0.048000
32.666667	1	0.047875
32.683333	1	0.047875
32.700000	1	0.047875
32.716667	1	0.048125
32.733333	1	0.048625
32.750000	1	0.049625
32.766667	1	0.051500
32.783333	1	0.052500
32.800000	1	0.054500
32.816667	1	0.055750
32.833333	1	0.057000
32.850000	1	0.059125
32.866667	1	0.060625
32.883333	1	0.062125
32.900000	1	0.063500
32.916667	1	0.065875
32.933333	1	0.067250
32.950000	1	0.068250
32.966667	1	0.070000
32.983333	1	0.071875
33.000000	1	0.073875
33.016667	1	0.075375
33.033333	1	0.077000
33.050000	1	0.078125
33.066667	1	0.079500
33.083333	1	0.080875
33.100000	1	0.081750
33.116667	1	0.082625
33.133333	1	0.083875
33.150000	1	0.084750
33.166667	1	0.085625
33.183333	1	0.087000
33.200000	1	0.087500
33.216667	1	0.088500
33.233333	1	0.089750
33.250000	1	0.090625
33.266667	1	0.091750
33.283333	1	0.093000
33.300000	1	0.094000
33.316667	1	0.095125
33.333333	1	0.096250
33.350000	1	0.097125
33.366667	1	0.098125
33.383333	1	0.099500
33.400000	1	0.100250
33.416667	1	0.101250
33.433333	1	0.102750
33.450000	1	0.104625
33.466667	1	0.105750
33.483333	1	0.106625
33.500000	1	0.108125
33.516667	1	0.109875
33.533333	1	0.111875
33.550000	1	0.113750
33.566667	1	0.115000
33.583333	1	0.117125
33.600000	1	0.118750
33.616667	1	0.120500
33.633333	1	0.122000
33.650000	1	0.123000
33.666667	1	0.124750
33.683333	1	0.125500
33.700000	1	0.126875
33.716667	1	0.128625
33.733333	1	0.129375
33.750000	1	0.131250
33.766667	1	0.132750
33.783333	1	0.133375
33.800000	1	0.133625
33.816667	1	0.134250
33.833333	1	0.135000
33.850000	1	0.135875
33.866667	1	0.137250
33.883333	1	0.137750
33.900000	1	0.138500
33.916667	1	0.139125
33.933333	1	0.139375
33.950000	1	0.140000
33.966667	1	0.139750
33.983333	1	0.140125
34.000000	1	0.139250
34.016667	1	0.139375
34.033333	1	0.138625
34.050000	1	0.138625
34.066667	1	0.138625
34.083333	1	0.137875
34.100000	1	0.137250
34.116667	1	0.137125
34.133333	1	0.136875
34.150000	1	0.135875
34.166667	1	0.134875
34.183333	1	0.133750
34.200000	1	0.133125
34.216667	1	0.132500
34.233333	1	0.132625
34.250000	1	0.133125
34.266667	1	0.132875
34.283333	1	0.132875
34.300000	1	0.132000
34.316667	1	0.132125
34.333333	1	0.132500
34.350000	1	0.132750
34.366667	1	0.132750
34.383333	1	0.133625
34.400000	1	0.135125
34.416667	1	0.136500
34.433333	1	0.137750
34.450000	1	0.139500
34.466667	1	0.140625
34.483333	1	0.141875
34.500000	1	0.143375
34.516667	1	0.144875
34.533333	1	0.146625
34.550000	1	0.148375
34.566667	1	0.150500
34.583333	1	0.151875
34.600000	1	0.153875
34.616667	1	0.155875
34.633333	1	0.157250
34.650000	1	0.159000
34.666667	1	0.160250
34.683333	1	0.161500
34.700000	1	0.163000
34.716667	1	0.164375
34.733333	1	0.165500
34.750000	1	0.165875
34.766667	1	0.166125
34.783333	1	0.167750
34.800000	1	0.168375
34.816667	1	0.169375
34.833333	1	0.169250
34.850000	1	0.168875
34.866667	1	0.168125
34.883333	1	0.168250
34.900000	1	0.167375
34.916667	1	0.167000
34.933333	1	0.166250
34.950000	1	0.166375
34.966667	1	0.165750
34.983333	1	0.165000
35.000000	1	0.164375
35.016667	1	0.163625
35.033333	1	0.163125
35.050000	1	0.162375
35.066667	1	0.161375
35.083333	1	0.160750
35.100000	1	0.159750
35.116667	1	0.158750
35.133333	1	0.158125
35.150000	1	0.157500
35.166667	1	0.157125
35.183333	1	0.155875
35.200000	1	0.154750
35.216667	1	0.153500
35.233333	1	0.153000
35.250000	1	0.151625
35.266667	1	0.150750
35.283333	1	0.150500
35.300000	1	0.149500
35.316667	1	0.148375
35.333333	1	0.147625
35.350000	1	0.147125
35.366667	1	0.147000
35.383333	1	0.146625
35.400000	1	0.146000
35.416667	1	0.145375
35.433333	1	0.145000
35.450000	1	0.144625
35.466667	1	0.144875
35.483333	1	0.145000
35.500000	1	0.144875
35.516667	1	0.144250
35.533333	1	0.143500
35.550000	1	0.143875
35.566667	1	0.143875
35.583333	1	0.143500
35.600000	1	0.143875
35.616667	1	0.143750
35.633333	1	0.143375
35.650000	1	0.143750
35.666667	1	0.143625
35.683333	1	0.143375
35.700000	1	0.143000
35.716667	1	0.143125
35.733333	1	0.142375
35.750000	1	0.142375
35.766667	1	0.142250
35.783333	1	0.141625
35.800000	1	0.140250
35.816667	1	0.139500
35.833333	1	0.138500
35.850000	1	0.137000
35.866667	1	0.136250
35.883333	1	0.135500
35.900000	1	0.134500
35.916667	1	0.133375
35.933333	1	0.132000
35.950000	1	0.131000
35.966667	1	0.130125
35.983333	1	0.129000
36.000000	1	0.127750
36.016667	1	0.126250
36.033333	1	0.125250
36.050000	1	0.124125
36.066667	1	0.122875
36.083333	1	0.122000
36.100000	1	0.121125
36.116667	1	0.120875
36.133333	1	0.120625
36.150000	1	0.120500
36.166667	1	0.120625
36.183333	1	0.121000
36.200000	1	0.120750
36.216667	1	0.120500
36.233333	1	0.120750
36.250000	1	0.121000
36.266667	1	0.121125
36.283333	1	0.121375
36.300000	1	0.122250
36.316667	1	0.122875
36.333333	1	0.124125
36.350000	1	0.124500
36.366667	1	0.125000
36.383333	1	0.125625
36.400000	1	0.126750
36.416667	1	0.127375
36.433333	1	0.127875
36.450000	1	0.127875
36.466667	1	0.128500
36.483333	1	0.128500
36.500000	1	0.129125
36.516667	1	0.128750
36.533333	1	0.128625
36.550000	1	0.128500
36.566667	1	0.128125
36.583333	1	0.127375
36.600000	1	0.126875
36.616667	1	0.126000
36.633333	1	0.125125
36.650000	1	0.123750
36.666667	1	0.122625
36.683333	1	0.121750
36.700000	1	0.120250
36.716667	1	0.118375
36.733333	1	0.116875
36.750000	1	0.114500
36.766667	1	0.114250
36.783333	1	0.112625
36.800000	1	0.111750
36.816667	1	0.110375
36.833333	1	0.108500
36.850000	1	0.107125
36.866667	1	0.106000
36.883333	1	0.104625
36.900000	1	0.103875
36.916667	1	0.103125
36.933333	1	0.102625
36.950000	1	0.102125
36.966667	1	0.101125
36.983333	1	0.101000
37.000000	1	0.101625
37.016667	1	0.101500
37.033333	1	0.101500
37.050000	1	0.101625
37.066667	1	0.102375
37.083333	1	0.102875
37.100000	1	0.103750
37.116667	1	0.104750
37.133333	1	0.105125
37.150000	1	0.105500
37.166667	1	0.106625
37.183333	1	0.107500
37.200000	1	0.109000
37.216667	1	0.109375
37.233333	1	0.109875
37.250000	1	0.110750
37.266667	1	0.112125
37.283333	1	0.113375
37.300000	1	0.113875
37.316667	1	0.115375
37.333333	1	0.115625
37.350000	1	0.117000
37.366667	1	0.117625
37.383333	1	0.117625
37.400000	1	0.117875
37.416667	1	0.117750
37.433333	1	0.118500
37.450000	1	0.118375
37.466667	1	0.118375
37.483333	1	0.118250
37.500000	1	0.118375
37.516667	1	0.118750
37.533333	1	0.118375
37.550000	1	0.118000
37.566667	1	0.117625
37.583333	1	0.117625
37.600000	1	0.116250
37.616667	1	0.115625
37.633333	1	0.115625
37.650000	1	0.115125
37.666667	1	0.114750
37.683333	1	0.114500
37.700000	1	0.113875
37.716667	1	0.113375
37.733333	1	0.112125
37.750000	1	0.110875
37.766667	1	0.110375
37.783333	1	0.109125
37.800000	1	0.108625
37.816667	1	0.107375
37.833333	1	0.106750
37.850000	1	0.106125
37.866667	1	0.105250
37.883333	1	0.104125
37.900000	1	0.104250
37.916667	1	0.103875
37.933333	1	0.103500
37.950000	1	0.103000
37.966667	1	0.103250
37.983333	1	0.102375
38.000000	1	0.101625
38.016667	1	0.100625
38.033333	1	0.100875
38.050000	1	0.101125
38.066667	1	0.101375
38.083333	1	0.102125
38.100000	1	0.102750
38.116667	1	0.103625
38.133333	1	0.105125
38.150000	1	0.106500
38.166667	1	0.107125
38.183333	1	0.107375
38.200000	1	0.107875
38.216667	1	0.108875
38.233333	1	0.109625
38.250000	1	0.110625
38.266667	1	0.111625
38.283333	1	0.113250
38.300000	1	0.114375
38.316667	1	0.115250
38.333333	1	0.116000
38.350000	1	0.117125
38.366667	1	0.117875
38.383333	1	0.119125
38.400000	1	0.119875
38.416667	1	0.121000
38.433333	1	0.122000
38.450000	1	0.123000
38.466667	1	0.123750
38.483333	1	0.124250
38.500000	1	0.125125
38.516667	1	0.126125
38.533333	1	0.126125
38.550000	1	0.126500
38.566667	1	0.127000
38.583333	1	0.127000
38.600000	1	0.127625
38.616667	1	0.128250
38.633333	1	0.128000
38.650000	1	0.128375
38.666667	1	0.128875
38.683333	1	0.129250
38.700000	1	0.129750
38.716667	1	0.130625
38.733333	1	0.131250
38.750000	1	0.131375
38.766667	1	0.131375
38.783333	1	0.130875
38.800000	1	0.131250
38.816667	1	0.130875
38.833333	1	0.130750
38.850000	1	0.131125
38.866667	1	0.131250
38.883333	1	0.131000
38.900000	1	0.130875
38.916667	1	0.130625
38.933333	1	0.129750
38.950000	1	0.130125
38.966667	1	0.130500
38.983333	1	0.130125
39.000000	1	0.129250
39.016667	1	0.128250
39.033333	1	0.127125
39.050000	1	0.125750
39.066667	1	0.125000
39.083333	1	0.123625
39.100000	1	0.122375
39.116667	1	0.121625
39.133333	1	0.119875
39.150000	1	0.118625
39.166667	1	0.116875
39.183333	1	0.115000
39.200000	1	0.112875
39.216667	1	0.110750
39.233333	1	0.108875
39.250000	1	0.106500
39.266667	1	0.104500
39.283333	1	0.102500
39.300000	1	0.100250
39.316667	1	0.098375
39.333333	1	0.095750
39.350000	1	0.093250
39.366667	1	0.090750
39.383333	1	0.088750
39.400000	1	0.085750
39.416667	1	0.083500
39.433333	1	0.081375
39.450000	1	0.079000
39.466667	1	0.077250
39.483333	1	0.075750
39.500000	1	0.073625
39.516667	1	0.071750
39.533333	1	0.070500
39.550000	1	0.068000
39.566667	1	0.066125
39.583333	1	0.064125
39.600000	1	0.062750
39.616667	1	0.061250
39.633333	1	0.060125
39.650000	1	0.059750
39.666667	1	0.059250
39.683333	1	0.058125
39.700000	1	0.057000
39.716667	1	0.056125
39.733333	1	0.055875
39.750000	1	0.055250
39.766667	1	0.054375
39.783333	1	0.054375
39.800000	1	0.054375
39.816667	1	0.055000
39.833333	1	0.055375
39.850000	1	0.055625
39.866667	1	0.056000
39.883333	1	0.056500
39.900000	1	0.056875
39.916667	1	0.057375
39.933333	1	0.057500
39.950000	1	0.057750
39.966667	1	0.057500
39.983333	1	0.058250
40.000000	1	0.059000
