URL	chrom://bioreactor/micro_cm7/HPLC_Ultimate_3000/Users/markusar/20240708_MA_pHrange1.seq/531.smp/RI_1.channel/RI_1.chm
Channel	RI_1

Injection Information:
Data Vault	micro_cm7
Sequence	20240708_MA_pHrange1
Name	Pv1_5.7_1
Number	17
Position	BB5
Comment	
Processing Method	
Instrument Method	run_25B_method
Type	Unknown
Status	Finished
Inject Time	09.07.2024 02:30:01 +02:00
Volume (µl)	20.0000
Dilution Factor	1.0000
Weight	1.0000

Chromatogram Data Information:
Time Min. (min)	0.000000
Time Max. (min)	40.000000
Data Points	2401
Detector	RI
Generating Data System	Chromeleon 7.3.2.11814
Exporting Data System	Chromeleon 7.3.2.0
Operator	Instrument Controller
Signal Quantity	Refractive 
Signal Unit	µRIU
Signal Min.	-0.020750
Signal Max.	83.096625
Channel	RI_1
Driver Name	RID520Driver.dll
Channel Type	Evaluation
Min. Step (s)	1
Max. Step (s)	1
Average Step (s)	1

Signal Parameter Information:
Signal Info	

Chromatogram Data:
Time (min)	Step (s)	Value (µRIU)
0.000000	n.a.	0.019875
0.016667	1	0.018375
0.033333	1	0.018000
0.050000	1	0.018125
0.066667	1	0.017625
0.083333	1	0.017375
0.100000	1	0.017375
0.116667	1	0.017250
0.133333	1	0.016875
0.150000	1	0.016625
0.166667	1	0.016375
0.183333	1	0.016125
0.200000	1	0.015625
0.216667	1	0.015625
0.233333	1	0.015500
0.250000	1	0.015250
0.266667	1	0.015250
0.283333	1	0.015125
0.300000	1	0.014500
0.316667	1	0.015000
0.333333	1	0.014875
0.350000	1	0.013875
0.366667	1	0.013250
0.383333	1	0.011750
0.400000	1	0.010500
0.416667	1	0.009875
0.433333	1	0.010250
0.450000	1	0.011250
0.466667	1	0.012750
0.483333	1	0.014125
0.500000	1	0.014375
0.516667	1	0.014500
0.533333	1	0.014875
0.550000	1	0.014500
0.566667	1	0.013375
0.583333	1	0.011375
0.600000	1	0.008875
0.616667	1	0.006500
0.633333	1	0.005125
0.650000	1	0.003500
0.666667	1	0.003125
0.683333	1	0.002500
0.700000	1	0.002625
0.716667	1	0.002500
0.733333	1	0.002500
0.750000	1	0.002000
0.766667	1	0.001750
0.783333	1	0.001250
0.800000	1	0.000875
0.816667	1	0.000875
0.833333	1	0.000875
0.850000	1	0.001125
0.866667	1	0.001250
0.883333	1	0.001875
0.900000	1	0.001875
0.916667	1	0.001125
0.933333	1	0.001125
0.950000	1	0.001250
0.966667	1	0.000875
0.983333	1	0.001000
1.000000	1	0.001125
1.016667	1	0.001500
1.033333	1	0.001750
1.050000	1	0.002000
1.066667	1	0.002625
1.083333	1	0.003125
1.100000	1	0.004625
1.116667	1	0.004875
1.133333	1	0.005500
1.150000	1	0.005625
1.166667	1	0.005625
1.183333	1	0.006500
1.200000	1	0.006500
1.216667	1	0.006875
1.233333	1	0.007375
1.250000	1	0.008125
1.266667	1	0.009125
1.283333	1	0.009250
1.300000	1	0.010375
1.316667	1	0.010750
1.333333	1	0.011875
1.350000	1	0.013000
1.366667	1	0.014125
1.383333	1	0.015500
1.400000	1	0.015750
1.416667	1	0.017125
1.433333	1	0.018125
1.450000	1	0.019250
1.466667	1	0.019875
1.483333	1	0.021375
1.500000	1	0.022250
1.516667	1	0.023500
1.533333	1	0.024750
1.550000	1	0.025625
1.566667	1	0.026500
1.583333	1	0.026875
1.600000	1	0.028000
1.616667	1	0.028625
1.633333	1	0.028875
1.650000	1	0.029375
1.666667	1	0.029875
1.683333	1	0.030625
1.700000	1	0.031125
1.716667	1	0.030875
1.733333	1	0.031500
1.750000	1	0.030250
1.766667	1	0.030250
1.783333	1	0.029625
1.800000	1	0.028875
1.816667	1	0.029000
1.833333	1	0.028250
1.850000	1	0.027375
1.866667	1	0.026750
1.883333	1	0.025250
1.900000	1	0.023875
1.916667	1	0.022625
1.933333	1	0.022000
1.950000	1	0.020500
1.966667	1	0.018500
1.983333	1	0.017375
2.000000	1	0.015750
2.016667	1	0.014375
2.033333	1	0.012875
2.050000	1	0.011125
2.066667	1	0.010500
2.083333	1	0.008625
2.100000	1	0.006875
2.116667	1	0.005000
2.133333	1	0.003125
2.150000	1	0.001625
2.166667	1	-0.000125
2.183333	1	-0.001625
2.200000	1	-0.003375
2.216667	1	-0.004875
2.233333	1	-0.006750
2.250000	1	-0.008375
2.266667	1	-0.010000
2.283333	1	-0.011250
2.300000	1	-0.012375
2.316667	1	-0.013625
2.333333	1	-0.014625
2.350000	1	-0.015875
2.366667	1	-0.017375
2.383333	1	-0.018625
2.400000	1	-0.019500
2.416667	1	-0.020250
2.433333	1	-0.020125
2.450000	1	-0.020125
2.466667	1	-0.020750
2.483333	1	-0.020375
2.500000	1	-0.019875
2.516667	1	-0.019875
2.533333	1	-0.019750
2.550000	1	-0.019625
2.566667	1	-0.018750
2.583333	1	-0.017625
2.600000	1	-0.017250
2.616667	1	-0.016375
2.633333	1	-0.015375
2.650000	1	-0.014875
2.666667	1	-0.013375
2.683333	1	-0.012250
2.700000	1	-0.010625
2.716667	1	-0.009375
2.733333	1	-0.007875
2.750000	1	-0.006125
2.766667	1	-0.004250
2.783333	1	-0.002375
2.800000	1	-0.000875
2.816667	1	0.000750
2.833333	1	0.001875
2.850000	1	0.002750
2.866667	1	0.004750
2.883333	1	0.005875
2.900000	1	0.006750
2.916667	1	0.008125
2.933333	1	0.009125
2.950000	1	0.010000
2.966667	1	0.011250
2.983333	1	0.012125
3.000000	1	0.013375
3.016667	1	0.014375
3.033333	1	0.015500
3.050000	1	0.016625
3.066667	1	0.017750
3.083333	1	0.018375
3.100000	1	0.019000
3.116667	1	0.019875
3.133333	1	0.020750
3.150000	1	0.021125
3.166667	1	0.022125
3.183333	1	0.023125
3.200000	1	0.024125
3.216667	1	0.024750
3.233333	1	0.026375
3.250000	1	0.027875
3.266667	1	0.028750
3.283333	1	0.029250
3.300000	1	0.030750
3.316667	1	0.031750
3.333333	1	0.033000
3.350000	1	0.034250
3.366667	1	0.035125
3.383333	1	0.036000
3.400000	1	0.037125
3.416667	1	0.039000
3.433333	1	0.040625
3.450000	1	0.041875
3.466667	1	0.043625
3.483333	1	0.044750
3.500000	1	0.044875
3.516667	1	0.046375
3.533333	1	0.048000
3.550000	1	0.049125
3.566667	1	0.050125
3.583333	1	0.050875
3.600000	1	0.052125
3.616667	1	0.053000
3.633333	1	0.053250
3.650000	1	0.053625
3.666667	1	0.054000
3.683333	1	0.055000
3.700000	1	0.055125
3.716667	1	0.055625
3.733333	1	0.055125
3.750000	1	0.054625
3.766667	1	0.054625
3.783333	1	0.054250
3.800000	1	0.053625
3.816667	1	0.053125
3.833333	1	0.052625
3.850000	1	0.052750
3.866667	1	0.052250
3.883333	1	0.053000
3.900000	1	0.052250
3.916667	1	0.051875
3.933333	1	0.051375
3.950000	1	0.051750
3.966667	1	0.052000
3.983333	1	0.052500
4.000000	1	0.053250
4.016667	1	0.053250
4.033333	1	0.053500
4.050000	1	0.053625
4.066667	1	0.054375
4.083333	1	0.054500
4.100000	1	0.054500
4.116667	1	0.055250
4.133333	1	0.055875
4.150000	1	0.056500
4.166667	1	0.057250
4.183333	1	0.058000
4.200000	1	0.058500
4.216667	1	0.059000
4.233333	1	0.060250
4.250000	1	0.061375
4.266667	1	0.061875
4.283333	1	0.062000
4.300000	1	0.062875
4.316667	1	0.063875
4.333333	1	0.064500
4.350000	1	0.065125
4.366667	1	0.065750
4.383333	1	0.066625
4.400000	1	0.067000
4.416667	1	0.067500
4.433333	1	0.068375
4.450000	1	0.069500
4.466667	1	0.070000
4.483333	1	0.071000
4.500000	1	0.072375
4.516667	1	0.073625
4.533333	1	0.074625
4.550000	1	0.076125
4.566667	1	0.077750
4.583333	1	0.079250
4.600000	1	0.080625
4.616667	1	0.082375
4.633333	1	0.085250
4.650000	1	0.087250
4.666667	1	0.090000
4.683333	1	0.092250
4.700000	1	0.094875
4.716667	1	0.097000
4.733333	1	0.099875
4.750000	1	0.102625
4.766667	1	0.105875
4.783333	1	0.108875
4.800000	1	0.111375
4.816667	1	0.114875
4.833333	1	0.118750
4.850000	1	0.122000
4.866667	1	0.126375
4.883333	1	0.130000
4.900000	1	0.134000
4.916667	1	0.137500
4.933333	1	0.141500
4.950000	1	0.145000
4.966667	1	0.148625
4.983333	1	0.152125
5.000000	1	0.155375
5.016667	1	0.159500
5.033333	1	0.163625
5.050000	1	0.168125
5.066667	1	0.171875
5.083333	1	0.174500
5.100000	1	0.178375
5.116667	1	0.182250
5.133333	1	0.186000
5.150000	1	0.190000
5.166667	1	0.193375
5.183333	1	0.197000
5.200000	1	0.200875
5.216667	1	0.204750
5.233333	1	0.207875
5.250000	1	0.210625
5.266667	1	0.213750
5.283333	1	0.217125
5.300000	1	0.220625
5.316667	1	0.224125
5.333333	1	0.227625
5.350000	1	0.230750
5.366667	1	0.233500
5.383333	1	0.236125
5.400000	1	0.239125
5.416667	1	0.242500
5.433333	1	0.244750
5.450000	1	0.247125
5.466667	1	0.249875
5.483333	1	0.252250
5.500000	1	0.254250
5.516667	1	0.256000
5.533333	1	0.257750
5.550000	1	0.259500
5.566667	1	0.261250
5.583333	1	0.262375
5.600000	1	0.263625
5.616667	1	0.264875
5.633333	1	0.265875
5.650000	1	0.266875
5.666667	1	0.266500
5.683333	1	0.266625
5.700000	1	0.266375
5.716667	1	0.265875
5.733333	1	0.265375
5.750000	1	0.264875
5.766667	1	0.263875
5.783333	1	0.263125
5.800000	1	0.262125
5.816667	1	0.261125
5.833333	1	0.259750
5.850000	1	0.257750
5.866667	1	0.255750
5.883333	1	0.253000
5.900000	1	0.250250
5.916667	1	0.247125
5.933333	1	0.243875
5.950000	1	0.240875
5.966667	1	0.237875
5.983333	1	0.234875
6.000000	1	0.231250
6.016667	1	0.227500
6.033333	1	0.223625
6.050000	1	0.219250
6.066667	1	0.215250
6.083333	1	0.210625
6.100000	1	0.206250
6.116667	1	0.202000
6.133333	1	0.197500
6.150000	1	0.193000
6.166667	1	0.188625
6.183333	1	0.183625
6.200000	1	0.179375
6.216667	1	0.175125
6.233333	1	0.170375
6.250000	1	0.165375
6.266667	1	0.161000
6.283333	1	0.156000
6.300000	1	0.151125
6.316667	1	0.146250
6.333333	1	0.141500
6.350000	1	0.137125
6.366667	1	0.133125
6.383333	1	0.129125
6.400000	1	0.125625
6.416667	1	0.121000
6.433333	1	0.117250
6.450000	1	0.113000
6.466667	1	0.109375
6.483333	1	0.106250
6.500000	1	0.103375
6.516667	1	0.100000
6.533333	1	0.097250
6.550000	1	0.094625
6.566667	1	0.091625
6.583333	1	0.089250
6.600000	1	0.086375
6.616667	1	0.084500
6.633333	1	0.082125
6.650000	1	0.080000
6.666667	1	0.078500
6.683333	1	0.076750
6.700000	1	0.074625
6.716667	1	0.073750
6.733333	1	0.072375
6.750000	1	0.071625
6.766667	1	0.071125
6.783333	1	0.070375
6.800000	1	0.069750
6.816667	1	0.069000
6.833333	1	0.068875
6.850000	1	0.067875
6.866667	1	0.067500
6.883333	1	0.067375
6.900000	1	0.067750
6.916667	1	0.066500
6.933333	1	0.066875
6.950000	1	0.068500
6.966667	1	0.069000
6.983333	1	0.069750
7.000000	1	0.070250
7.016667	1	0.070625
7.033333	1	0.071375
7.050000	1	0.072500
7.066667	1	0.074375
7.083333	1	0.075375
7.100000	1	0.076500
7.116667	1	0.077750
7.133333	1	0.078625
7.150000	1	0.079625
7.166667	1	0.080875
7.183333	1	0.082875
7.200000	1	0.085000
7.216667	1	0.085625
7.233333	1	0.086500
7.250000	1	0.088250
7.266667	1	0.090500
7.283333	1	0.091750
7.300000	1	0.093625
7.316667	1	0.095250
7.333333	1	0.097000
7.350000	1	0.097750
7.366667	1	0.099125
7.383333	1	0.100875
7.400000	1	0.103250
7.416667	1	0.103375
7.433333	1	0.104625
7.450000	1	0.105000
7.466667	1	0.105500
7.483333	1	0.105875
7.500000	1	0.106375
7.516667	1	0.107000
7.533333	1	0.108125
7.550000	1	0.108250
7.566667	1	0.107875
7.583333	1	0.107500
7.600000	1	0.106625
7.616667	1	0.106250
7.633333	1	0.105625
7.650000	1	0.104125
7.666667	1	0.102500
7.683333	1	0.100625
7.700000	1	0.099375
7.716667	1	0.097875
7.733333	1	0.096625
7.750000	1	0.094750
7.766667	1	0.092875
7.783333	1	0.090000
7.800000	1	0.087375
7.816667	1	0.085125
7.833333	1	0.082750
7.850000	1	0.080000
7.866667	1	0.077125
7.883333	1	0.074250
7.900000	1	0.071250
7.916667	1	0.068000
7.933333	1	0.065125
7.950000	1	0.062375
7.966667	1	0.059250
7.983333	1	0.056500
8.000000	1	0.052125
8.016667	1	0.049000
8.033333	1	0.045500
8.050000	1	0.042500
8.066667	1	0.038875
8.083333	1	0.035500
8.100000	1	0.032875
8.116667	1	0.030750
8.133333	1	0.028875
8.150000	1	0.026500
8.166667	1	0.024125
8.183333	1	0.021875
8.200000	1	0.019625
8.216667	1	0.017250
8.233333	1	0.015375
8.250000	1	0.013750
8.266667	1	0.012625
8.283333	1	0.011250
8.300000	1	0.010750
8.316667	1	0.009500
8.333333	1	0.008500
8.350000	1	0.007875
8.366667	1	0.007500
8.383333	1	0.008000
8.400000	1	0.007625
8.416667	1	0.007625
8.433333	1	0.007625
8.450000	1	0.007125
8.466667	1	0.007125
8.483333	1	0.007750
8.500000	1	0.008500
8.516667	1	0.009375
8.533333	1	0.009750
8.550000	1	0.010500
8.566667	1	0.011125
8.583333	1	0.011375
8.600000	1	0.011625
8.616667	1	0.012250
8.633333	1	0.012750
8.650000	1	0.013500
8.666667	1	0.013625
8.683333	1	0.014000
8.700000	1	0.014500
8.716667	1	0.015375
8.733333	1	0.015875
8.750000	1	0.016875
8.766667	1	0.017375
8.783333	1	0.017500
8.800000	1	0.018250
8.816667	1	0.018250
8.833333	1	0.018250
8.850000	1	0.018750
8.866667	1	0.018875
8.883333	1	0.019375
8.900000	1	0.019875
8.916667	1	0.020500
8.933333	1	0.021250
8.950000	1	0.021750
8.966667	1	0.022500
8.983333	1	0.022625
9.000000	1	0.022750
9.016667	1	0.022750
9.033333	1	0.022875
9.050000	1	0.023125
9.066667	1	0.022750
9.083333	1	0.022875
9.100000	1	0.022500
9.116667	1	0.022500
9.133333	1	0.022875
9.150000	1	0.023125
9.166667	1	0.023500
9.183333	1	0.023625
9.200000	1	0.024125
9.216667	1	0.024250
9.233333	1	0.023625
9.250000	1	0.023750
9.266667	1	0.023875
9.283333	1	0.023500
9.300000	1	0.023875
9.316667	1	0.024000
9.333333	1	0.024375
9.350000	1	0.024250
9.366667	1	0.024000
9.383333	1	0.024125
9.400000	1	0.024625
9.416667	1	0.024750
9.433333	1	0.024625
9.450000	1	0.025000
9.466667	1	0.024625
9.483333	1	0.025000
9.500000	1	0.025000
9.516667	1	0.024875
9.533333	1	0.025000
9.550000	1	0.024500
9.566667	1	0.024500
9.583333	1	0.023875
9.600000	1	0.023375
9.616667	1	0.023125
9.633333	1	0.023125
9.650000	1	0.022625
9.666667	1	0.023000
9.683333	1	0.022625
9.700000	1	0.022875
9.716667	1	0.022875
9.733333	1	0.022875
9.750000	1	0.022625
9.766667	1	0.022000
9.783333	1	0.022000
9.800000	1	0.022000
9.816667	1	0.021000
9.833333	1	0.021000
9.850000	1	0.020125
9.866667	1	0.019500
9.883333	1	0.018875
9.900000	1	0.018750
9.916667	1	0.018625
9.933333	1	0.018250
9.950000	1	0.017000
9.966667	1	0.016125
9.983333	1	0.015625
10.000000	1	0.014625
10.016667	1	0.013375
10.033333	1	0.012625
10.050000	1	0.012750
10.066667	1	0.013875
10.083333	1	0.014750
10.100000	1	0.016500
10.116667	1	0.018875
10.133333	1	0.021000
10.150000	1	0.025000
10.166667	1	0.029625
10.183333	1	0.036125
10.200000	1	0.044000
10.216667	1	0.053625
10.233333	1	0.065250
10.250000	1	0.078000
10.266667	1	0.092875
10.283333	1	0.110250
10.300000	1	0.130375
10.316667	1	0.152625
10.333333	1	0.178125
10.350000	1	0.205125
10.366667	1	0.233125
10.383333	1	0.260375
10.400000	1	0.284000
10.416667	1	0.301375
10.433333	1	0.309625
10.450000	1	0.304500
10.466667	1	0.284000
10.483333	1	0.250875
10.500000	1	0.211250
10.516667	1	0.183625
10.533333	1	0.202250
10.550000	1	0.313750
10.566667	1	0.582500
10.583333	1	1.081375
10.600000	1	1.886500
10.616667	1	3.066750
10.633333	1	4.679750
10.650000	1	6.761250
10.666667	1	9.336500
10.683333	1	12.407375
10.700000	1	15.960250
10.716667	1	19.958375
10.733333	1	24.338875
10.750000	1	29.001875
10.766667	1	33.794375
10.783333	1	38.500500
10.800000	1	42.825125
10.816667	1	46.397750
10.833333	1	48.806625
10.850000	1	49.692250
10.866667	1	48.847500
10.883333	1	46.307250
10.900000	1	42.364875
10.916667	1	37.499875
10.933333	1	32.243625
10.950000	1	27.056750
10.966667	1	22.265250
10.983333	1	18.052375
11.000000	1	14.483500
11.016667	1	11.546500
11.033333	1	9.185875
11.050000	1	7.322250
11.066667	1	5.871875
11.083333	1	4.753375
11.100000	1	3.896125
11.116667	1	3.241250
11.133333	1	2.740375
11.150000	1	2.356125
11.166667	1	2.060500
11.183333	1	1.830375
11.200000	1	1.649500
11.216667	1	1.505375
11.233333	1	1.388875
11.250000	1	1.294875
11.266667	1	1.216500
11.283333	1	1.151375
11.300000	1	1.095750
11.316667	1	1.049125
11.333333	1	1.008750
11.350000	1	0.974750
11.366667	1	0.945000
11.383333	1	0.919875
11.400000	1	0.898250
11.416667	1	0.879750
11.433333	1	0.863500
11.450000	1	0.850375
11.466667	1	0.838625
11.483333	1	0.828625
11.500000	1	0.820500
11.516667	1	0.813375
11.533333	1	0.808125
11.550000	1	0.804000
11.566667	1	0.800750
11.583333	1	0.799375
11.600000	1	0.798750
11.616667	1	0.798750
11.633333	1	0.799625
11.650000	1	0.802125
11.666667	1	0.806500
11.683333	1	0.811500
11.700000	1	0.817125
11.716667	1	0.823875
11.733333	1	0.832125
11.750000	1	0.841125
11.766667	1	0.851500
11.783333	1	0.861500
11.800000	1	0.871875
11.816667	1	0.881750
11.833333	1	0.892250
11.850000	1	0.901375
11.866667	1	0.910500
11.883333	1	0.918375
11.900000	1	0.925875
11.916667	1	0.932375
11.933333	1	0.938000
11.950000	1	0.942500
11.966667	1	0.946625
11.983333	1	0.950625
12.000000	1	0.953750
12.016667	1	0.958250
12.033333	1	0.962000
12.050000	1	0.965375
12.066667	1	0.969000
12.083333	1	0.973250
12.100000	1	0.977750
12.116667	1	0.982500
12.133333	1	0.987500
12.150000	1	0.993750
12.166667	1	0.999500
12.183333	1	1.006375
12.200000	1	1.014750
12.216667	1	1.025000
12.233333	1	1.037500
12.250000	1	1.052750
12.266667	1	1.072000
12.283333	1	1.096500
12.300000	1	1.128250
12.316667	1	1.169875
12.333333	1	1.223000
12.350000	1	1.291125
12.366667	1	1.378125
12.383333	1	1.488500
12.400000	1	1.627250
12.416667	1	1.798500
12.433333	1	2.006125
12.450000	1	2.255375
12.466667	1	2.552250
12.483333	1	2.899375
12.500000	1	3.301500
12.516667	1	3.760000
12.533333	1	4.277125
12.550000	1	4.850250
12.566667	1	5.476375
12.583333	1	6.148125
12.600000	1	6.855375
12.616667	1	7.586000
12.633333	1	8.325500
12.650000	1	9.059000
12.666667	1	9.774125
12.683333	1	10.459625
12.700000	1	11.108625
12.716667	1	11.716250
12.733333	1	12.284500
12.750000	1	12.817750
12.766667	1	13.325000
12.783333	1	13.815500
12.800000	1	14.302125
12.816667	1	14.792000
12.833333	1	15.295500
12.850000	1	15.820250
12.866667	1	16.372000
12.883333	1	16.955250
12.900000	1	17.569000
12.916667	1	18.216750
12.933333	1	18.895625
12.950000	1	19.604625
12.966667	1	20.341625
12.983333	1	21.105500
13.000000	1	21.895250
13.016667	1	22.708250
13.033333	1	23.544500
13.050000	1	24.402875
13.066667	1	25.283875
13.083333	1	26.186000
13.100000	1	27.109500
13.116667	1	28.052500
13.133333	1	29.015875
13.150000	1	29.996875
13.166667	1	30.998000
13.183333	1	32.017875
13.200000	1	33.056125
13.216667	1	34.112375
13.233333	1	35.188375
13.250000	1	36.284625
13.266667	1	37.402250
13.283333	1	38.540875
13.300000	1	39.701250
13.316667	1	40.884000
13.333333	1	42.089625
13.350000	1	43.318125
13.366667	1	44.569125
13.383333	1	45.845500
13.400000	1	47.144375
13.416667	1	48.468125
13.433333	1	49.817000
13.450000	1	51.194250
13.466667	1	52.599250
13.483333	1	54.034250
13.500000	1	55.498625
13.516667	1	56.993625
13.533333	1	58.518750
13.550000	1	60.074375
13.566667	1	61.660875
13.583333	1	63.280250
13.600000	1	64.929625
13.616667	1	66.612125
13.633333	1	68.328000
13.650000	1	70.080500
13.666667	1	71.871250
13.683333	1	73.701250
13.700000	1	75.569000
13.716667	1	77.462000
13.733333	1	79.332750
13.750000	1	81.061375
13.766667	1	82.422875
13.783333	1	83.096625
13.800000	1	82.723250
13.816667	1	80.953500
13.833333	1	77.496875
13.850000	1	72.200250
13.866667	1	65.187625
13.883333	1	56.936625
13.900000	1	48.197125
13.916667	1	39.751000
13.933333	1	32.182375
13.950000	1	25.773250
13.966667	1	20.555375
13.983333	1	16.414625
14.000000	1	13.186250
14.016667	1	10.697500
14.033333	1	8.800875
14.050000	1	7.373250
14.066667	1	6.310875
14.083333	1	5.525375
14.100000	1	4.943625
14.116667	1	4.511250
14.133333	1	4.184000
14.150000	1	3.933000
14.166667	1	3.736000
14.183333	1	3.578625
14.200000	1	3.449250
14.216667	1	3.341000
14.233333	1	3.247625
14.250000	1	3.166250
14.266667	1	3.094125
14.283333	1	3.029625
14.300000	1	2.971500
14.316667	1	2.919000
14.333333	1	2.871875
14.350000	1	2.830000
14.366667	1	2.793750
14.383333	1	2.763750
14.400000	1	2.740875
14.416667	1	2.726750
14.433333	1	2.723625
14.450000	1	2.735375
14.466667	1	2.767375
14.483333	1	2.826625
14.500000	1	2.923500
14.516667	1	3.072875
14.533333	1	3.295250
14.550000	1	3.619000
14.566667	1	4.081125
14.583333	1	4.729000
14.600000	1	5.619625
14.616667	1	6.822750
14.633333	1	8.418750
14.650000	1	10.491500
14.666667	1	13.123125
14.683333	1	16.383875
14.700000	1	20.320375
14.716667	1	24.939000
14.733333	1	30.207875
14.750000	1	36.040750
14.766667	1	42.290250
14.783333	1	48.748000
14.800000	1	55.164875
14.816667	1	61.264750
14.833333	1	66.760375
14.850000	1	71.370750
14.866667	1	74.852625
14.883333	1	77.023000
14.900000	1	77.781250
14.916667	1	77.113250
14.933333	1	75.094875
14.950000	1	71.878375
14.966667	1	67.678125
14.983333	1	62.746750
15.000000	1	57.339750
15.016667	1	51.701625
15.033333	1	46.049375
15.050000	1	40.566625
15.066667	1	35.394750
15.083333	1	30.630625
15.100000	1	26.332875
15.116667	1	22.523875
15.133333	1	19.198000
15.150000	1	16.331750
15.166667	1	13.886500
15.183333	1	11.819375
15.200000	1	10.083625
15.216667	1	8.635250
15.233333	1	7.431375
15.250000	1	6.436875
15.266667	1	5.618250
15.283333	1	4.947750
15.300000	1	4.401250
15.316667	1	3.958625
15.333333	1	3.603625
15.350000	1	3.322000
15.366667	1	3.100625
15.383333	1	2.928375
15.400000	1	2.797625
15.416667	1	2.700250
15.433333	1	2.628500
15.450000	1	2.576500
15.466667	1	2.539125
15.483333	1	2.511125
15.500000	1	2.487375
15.516667	1	2.465750
15.533333	1	2.442125
15.550000	1	2.415625
15.566667	1	2.385000
15.583333	1	2.351125
15.600000	1	2.313250
15.616667	1	2.273000
15.633333	1	2.231875
15.650000	1	2.190500
15.666667	1	2.150875
15.683333	1	2.112625
15.700000	1	2.076000
15.716667	1	2.041000
15.733333	1	2.008000
15.750000	1	1.976000
15.766667	1	1.944500
15.783333	1	1.913750
15.800000	1	1.882750
15.816667	1	1.850375
15.833333	1	1.818000
15.850000	1	1.785875
15.866667	1	1.753750
15.883333	1	1.722625
15.900000	1	1.692625
15.916667	1	1.665500
15.933333	1	1.640500
15.950000	1	1.619375
15.966667	1	1.600375
15.983333	1	1.585875
16.000000	1	1.574125
16.016667	1	1.565875
16.033333	1	1.559000
16.050000	1	1.554375
16.066667	1	1.550375
16.083333	1	1.546375
16.100000	1	1.542500
16.116667	1	1.537625
16.133333	1	1.532000
16.150000	1	1.524625
16.166667	1	1.515875
16.183333	1	1.506500
16.200000	1	1.494750
16.216667	1	1.482125
16.233333	1	1.467875
16.250000	1	1.452375
16.266667	1	1.435750
16.283333	1	1.418500
16.300000	1	1.400875
16.316667	1	1.382750
16.333333	1	1.364875
16.350000	1	1.347250
16.366667	1	1.330875
16.383333	1	1.315500
16.400000	1	1.301875
16.416667	1	1.289500
16.433333	1	1.279875
16.450000	1	1.271750
16.466667	1	1.266875
16.483333	1	1.264125
16.500000	1	1.263750
16.516667	1	1.264625
16.533333	1	1.267375
16.550000	1	1.271875
16.566667	1	1.276875
16.583333	1	1.282375
16.600000	1	1.287250
16.616667	1	1.290375
16.633333	1	1.292125
16.650000	1	1.292250
16.666667	1	1.291375
16.683333	1	1.288250
16.700000	1	1.284375
16.716667	1	1.280125
16.733333	1	1.275875
16.750000	1	1.271625
16.766667	1	1.268125
16.783333	1	1.265250
16.800000	1	1.263625
16.816667	1	1.263000
16.833333	1	1.264375
16.850000	1	1.265875
16.866667	1	1.267500
16.883333	1	1.269250
16.900000	1	1.270000
16.916667	1	1.269750
16.933333	1	1.268750
16.950000	1	1.266625
16.966667	1	1.263000
16.983333	1	1.257250
17.000000	1	1.249750
17.016667	1	1.242000
17.033333	1	1.233375
17.050000	1	1.224625
17.066667	1	1.215500
17.083333	1	1.206750
17.100000	1	1.197625
17.116667	1	1.189750
17.133333	1	1.183000
17.150000	1	1.176750
17.166667	1	1.171750
17.183333	1	1.167500
17.200000	1	1.163875
17.216667	1	1.160625
17.233333	1	1.159125
17.250000	1	1.158750
17.266667	1	1.158875
17.283333	1	1.159875
17.300000	1	1.161625
17.316667	1	1.164250
17.333333	1	1.167375
17.350000	1	1.170125
17.366667	1	1.173250
17.383333	1	1.177250
17.400000	1	1.180500
17.416667	1	1.183375
17.433333	1	1.186500
17.450000	1	1.187750
17.466667	1	1.188625
17.483333	1	1.188875
17.500000	1	1.186875
17.516667	1	1.183375
17.533333	1	1.178500
17.550000	1	1.172125
17.566667	1	1.164125
17.583333	1	1.154750
17.600000	1	1.144500
17.616667	1	1.132750
17.633333	1	1.120000
17.650000	1	1.107125
17.666667	1	1.093000
17.683333	1	1.078375
17.700000	1	1.064375
17.716667	1	1.050250
17.733333	1	1.036125
17.750000	1	1.022125
17.766667	1	1.009250
17.783333	1	0.996375
17.800000	1	0.984250
17.816667	1	0.973250
17.833333	1	0.962875
17.850000	1	0.952250
17.866667	1	0.943875
17.883333	1	0.936500
17.900000	1	0.928875
17.916667	1	0.922250
17.933333	1	0.916000
17.950000	1	0.910125
17.966667	1	0.904250
17.983333	1	0.898250
18.000000	1	0.892125
18.016667	1	0.886375
18.033333	1	0.880500
18.050000	1	0.874625
18.066667	1	0.868625
18.083333	1	0.862000
18.100000	1	0.856125
18.116667	1	0.850500
18.133333	1	0.845250
18.150000	1	0.841375
18.166667	1	0.837500
18.183333	1	0.834625
18.200000	1	0.832625
18.216667	1	0.831375
18.233333	1	0.831125
18.250000	1	0.830625
18.266667	1	0.830750
18.283333	1	0.831500
18.300000	1	0.832875
18.316667	1	0.834625
18.333333	1	0.836500
18.350000	1	0.838500
18.366667	1	0.841125
18.383333	1	0.843875
18.400000	1	0.846875
18.416667	1	0.851375
18.433333	1	0.856125
18.450000	1	0.862375
18.466667	1	0.869875
18.483333	1	0.878625
18.500000	1	0.888875
18.516667	1	0.900375
18.533333	1	0.914750
18.550000	1	0.930750
18.566667	1	0.948125
18.583333	1	0.967125
18.600000	1	0.988750
18.616667	1	1.012000
18.633333	1	1.036625
18.650000	1	1.062500
18.666667	1	1.090000
18.683333	1	1.120250
18.700000	1	1.150875
18.716667	1	1.182750
18.733333	1	1.215750
18.750000	1	1.250000
18.766667	1	1.284375
18.783333	1	1.319500
18.800000	1	1.353375
18.816667	1	1.387375
18.833333	1	1.419000
18.850000	1	1.448250
18.866667	1	1.474375
18.883333	1	1.496250
18.900000	1	1.514000
18.916667	1	1.525875
18.933333	1	1.531000
18.950000	1	1.530625
18.966667	1	1.523750
18.983333	1	1.509250
19.000000	1	1.487875
19.016667	1	1.460625
19.033333	1	1.427500
19.050000	1	1.389375
19.066667	1	1.346250
19.083333	1	1.301875
19.100000	1	1.256250
19.116667	1	1.210125
19.133333	1	1.165625
19.150000	1	1.123500
19.166667	1	1.085875
19.183333	1	1.054125
19.200000	1	1.030000
19.216667	1	1.014125
19.233333	1	1.007000
19.250000	1	1.011875
19.266667	1	1.028750
19.283333	1	1.058500
19.300000	1	1.102375
19.316667	1	1.161125
19.333333	1	1.234250
19.350000	1	1.320500
19.366667	1	1.421000
19.383333	1	1.532875
19.400000	1	1.655375
19.416667	1	1.785125
19.433333	1	1.918250
19.450000	1	2.051250
19.466667	1	2.180000
19.483333	1	2.300250
19.500000	1	2.407750
19.516667	1	2.499000
19.533333	1	2.571250
19.550000	1	2.623125
19.566667	1	2.651625
19.583333	1	2.656625
19.600000	1	2.639250
19.616667	1	2.600625
19.633333	1	2.541750
19.650000	1	2.465750
19.666667	1	2.375625
19.683333	1	2.275250
19.700000	1	2.167750
19.716667	1	2.055000
19.733333	1	1.940375
19.750000	1	1.826375
19.766667	1	1.714250
19.783333	1	1.605500
19.800000	1	1.501750
19.816667	1	1.403625
19.833333	1	1.311500
19.850000	1	1.225625
19.866667	1	1.147125
19.883333	1	1.074375
19.900000	1	1.008250
19.916667	1	0.948250
19.933333	1	0.894250
19.950000	1	0.846375
19.966667	1	0.803375
19.983333	1	0.765625
20.000000	1	0.732875
20.016667	1	0.704375
20.033333	1	0.681625
20.050000	1	0.661875
20.066667	1	0.647625
20.083333	1	0.637125
20.100000	1	0.631500
20.116667	1	0.628750
20.133333	1	0.630250
20.150000	1	0.635250
20.166667	1	0.642375
20.183333	1	0.652250
20.200000	1	0.663500
20.216667	1	0.676250
20.233333	1	0.689750
20.250000	1	0.703250
20.266667	1	0.715000
20.283333	1	0.725500
20.300000	1	0.733875
20.316667	1	0.739125
20.333333	1	0.740625
20.350000	1	0.739250
20.366667	1	0.734500
20.383333	1	0.726750
20.400000	1	0.715125
20.416667	1	0.702250
20.433333	1	0.687625
20.450000	1	0.670500
20.466667	1	0.653250
20.483333	1	0.636625
20.500000	1	0.621875
20.516667	1	0.609750
20.533333	1	0.599875
20.550000	1	0.593750
20.566667	1	0.592875
20.583333	1	0.599000
20.600000	1	0.610875
20.616667	1	0.630500
20.633333	1	0.657875
20.650000	1	0.693625
20.666667	1	0.738000
20.683333	1	0.790250
20.700000	1	0.850250
20.716667	1	0.918250
20.733333	1	0.992625
20.750000	1	1.071875
20.766667	1	1.154625
20.783333	1	1.238250
20.800000	1	1.320000
20.816667	1	1.398500
20.833333	1	1.469625
20.850000	1	1.532000
20.866667	1	1.582750
20.883333	1	1.621375
20.900000	1	1.645375
20.916667	1	1.655375
20.933333	1	1.650250
20.950000	1	1.631500
20.966667	1	1.599125
20.983333	1	1.554250
21.000000	1	1.498875
21.016667	1	1.436625
21.033333	1	1.368000
21.050000	1	1.295750
21.066667	1	1.221750
21.083333	1	1.148625
21.100000	1	1.076750
21.116667	1	1.007625
21.133333	1	0.942250
21.150000	1	0.881750
21.166667	1	0.825750
21.183333	1	0.774875
21.200000	1	0.728875
21.216667	1	0.687625
21.233333	1	0.652000
21.250000	1	0.620125
21.266667	1	0.592125
21.283333	1	0.568375
21.300000	1	0.547375
21.316667	1	0.529500
21.333333	1	0.514250
21.350000	1	0.500500
21.366667	1	0.489125
21.383333	1	0.479375
21.400000	1	0.470625
21.416667	1	0.463125
21.433333	1	0.456250
21.450000	1	0.450375
21.466667	1	0.445250
21.483333	1	0.440000
21.500000	1	0.436000
21.516667	1	0.433375
21.533333	1	0.430750
21.550000	1	0.429250
21.566667	1	0.428000
21.583333	1	0.427125
21.600000	1	0.426250
21.616667	1	0.426125
21.633333	1	0.426625
21.650000	1	0.428250
21.666667	1	0.431125
21.683333	1	0.435000
21.700000	1	0.439750
21.716667	1	0.446000
21.733333	1	0.452250
21.750000	1	0.459375
21.766667	1	0.467625
21.783333	1	0.477250
21.800000	1	0.486625
21.816667	1	0.496750
21.833333	1	0.507125
21.850000	1	0.518250
21.866667	1	0.528875
21.883333	1	0.540000
21.900000	1	0.550000
21.916667	1	0.559875
21.933333	1	0.569875
21.950000	1	0.579125
21.966667	1	0.587750
21.983333	1	0.595125
22.000000	1	0.602000
22.016667	1	0.608500
22.033333	1	0.613375
22.050000	1	0.616875
22.066667	1	0.620625
22.083333	1	0.622875
22.100000	1	0.624875
22.116667	1	0.625500
22.133333	1	0.625125
22.150000	1	0.624125
22.166667	1	0.621875
22.183333	1	0.618875
22.200000	1	0.614625
22.216667	1	0.608875
22.233333	1	0.602375
22.250000	1	0.594250
22.266667	1	0.585000
22.283333	1	0.574875
22.300000	1	0.564000
22.316667	1	0.552000
22.333333	1	0.539875
22.350000	1	0.527125
22.366667	1	0.513875
22.383333	1	0.500500
22.400000	1	0.487000
22.416667	1	0.473250
22.433333	1	0.459750
22.450000	1	0.447000
22.466667	1	0.435250
22.483333	1	0.424375
22.500000	1	0.413000
22.516667	1	0.402750
22.533333	1	0.392875
22.550000	1	0.383250
22.566667	1	0.374500
22.583333	1	0.366125
22.600000	1	0.359250
22.616667	1	0.352375
22.633333	1	0.346375
22.650000	1	0.340500
22.666667	1	0.335000
22.683333	1	0.330000
22.700000	1	0.325750
22.716667	1	0.321125
22.733333	1	0.317250
22.750000	1	0.313750
22.766667	1	0.310375
22.783333	1	0.307750
22.800000	1	0.305875
22.816667	1	0.303250
22.833333	1	0.301375
22.850000	1	0.299250
22.866667	1	0.297375
22.883333	1	0.296125
22.900000	1	0.295500
22.916667	1	0.295500
22.933333	1	0.295250
22.950000	1	0.295375
22.966667	1	0.296250
22.983333	1	0.297250
23.000000	1	0.298000
23.016667	1	0.300125
23.033333	1	0.302375
23.050000	1	0.304875
23.066667	1	0.308250
23.083333	1	0.310500
23.100000	1	0.313875
23.116667	1	0.317375
23.133333	1	0.320375
23.150000	1	0.324625
23.166667	1	0.327875
23.183333	1	0.332000
23.200000	1	0.335125
23.216667	1	0.339000
23.233333	1	0.343250
23.250000	1	0.347625
23.266667	1	0.353000
23.283333	1	0.358250
23.300000	1	0.364750
23.316667	1	0.373000
23.333333	1	0.384000
23.350000	1	0.397375
23.366667	1	0.414500
23.383333	1	0.435875
23.400000	1	0.462500
23.416667	1	0.494625
23.433333	1	0.535625
23.450000	1	0.586250
23.466667	1	0.647250
23.483333	1	0.720125
23.500000	1	0.808375
23.516667	1	0.913625
23.533333	1	1.036125
23.550000	1	1.178125
23.566667	1	1.340875
23.583333	1	1.526125
23.600000	1	1.732750
23.616667	1	1.960500
23.633333	1	2.208250
23.650000	1	2.475875
23.666667	1	2.757625
23.683333	1	3.050750
23.700000	1	3.351000
23.716667	1	3.654375
23.733333	1	3.953375
23.750000	1	4.242500
23.766667	1	4.514625
23.783333	1	4.763750
23.800000	1	4.983125
23.816667	1	5.168750
23.833333	1	5.315250
23.850000	1	5.419500
23.866667	1	5.479500
23.883333	1	5.495250
23.900000	1	5.466500
23.916667	1	5.395125
23.933333	1	5.283375
23.950000	1	5.135625
23.966667	1	4.957000
23.983333	1	4.751750
24.000000	1	4.525875
24.016667	1	4.283500
24.033333	1	4.031500
24.050000	1	3.774000
24.066667	1	3.515625
24.083333	1	3.260125
24.100000	1	3.011625
24.116667	1	2.772250
24.133333	1	2.543000
24.150000	1	2.326875
24.166667	1	2.124125
24.183333	1	1.936375
24.200000	1	1.762875
24.216667	1	1.604250
24.233333	1	1.460000
24.250000	1	1.329250
24.266667	1	1.210625
24.283333	1	1.104000
24.300000	1	1.009625
24.316667	1	0.926000
24.333333	1	0.851750
24.350000	1	0.786750
24.366667	1	0.729750
24.383333	1	0.680750
24.400000	1	0.637875
24.416667	1	0.601000
24.433333	1	0.570750
24.450000	1	0.545250
24.466667	1	0.524625
24.483333	1	0.507000
24.500000	1	0.492625
24.516667	1	0.480875
24.533333	1	0.471500
24.550000	1	0.464375
24.566667	1	0.458125
24.583333	1	0.453375
24.600000	1	0.449875
24.616667	1	0.445875
24.633333	1	0.442875
24.650000	1	0.439875
24.666667	1	0.437000
24.683333	1	0.433125
24.700000	1	0.430625
24.716667	1	0.426500
24.733333	1	0.422625
24.750000	1	0.419125
24.766667	1	0.415125
24.783333	1	0.410375
24.800000	1	0.405500
24.816667	1	0.400625
24.833333	1	0.395875
24.850000	1	0.391125
24.866667	1	0.386250
24.883333	1	0.381500
24.900000	1	0.377000
24.916667	1	0.372750
24.933333	1	0.368500
24.950000	1	0.364500
24.966667	1	0.360625
24.983333	1	0.356875
25.000000	1	0.353125
25.016667	1	0.349500
25.033333	1	0.345375
25.050000	1	0.342750
25.066667	1	0.340125
25.083333	1	0.337125
25.100000	1	0.334750
25.116667	1	0.331875
25.133333	1	0.329125
25.150000	1	0.326625
25.166667	1	0.323750
25.183333	1	0.320375
25.200000	1	0.317500
25.216667	1	0.315125
25.233333	1	0.312250
25.250000	1	0.309250
25.266667	1	0.306375
25.283333	1	0.303625
25.300000	1	0.301375
25.316667	1	0.297750
25.333333	1	0.294875
25.350000	1	0.292625
25.366667	1	0.289500
25.383333	1	0.286000
25.400000	1	0.283750
25.416667	1	0.280875
25.433333	1	0.278375
25.450000	1	0.275875
25.466667	1	0.274625
25.483333	1	0.272625
25.500000	1	0.271125
25.516667	1	0.269250
25.533333	1	0.268000
25.550000	1	0.267375
25.566667	1	0.266500
25.583333	1	0.265250
25.600000	1	0.264625
25.616667	1	0.263750
25.633333	1	0.262750
25.650000	1	0.262375
25.666667	1	0.261375
25.683333	1	0.260750
25.700000	1	0.260500
25.716667	1	0.260250
25.733333	1	0.259625
25.750000	1	0.258875
25.766667	1	0.258625
25.783333	1	0.258750
25.800000	1	0.259000
25.816667	1	0.258875
25.833333	1	0.259250
25.850000	1	0.260000
25.866667	1	0.260125
25.883333	1	0.261125
25.900000	1	0.262750
25.916667	1	0.263875
25.933333	1	0.265000
25.950000	1	0.267500
25.966667	1	0.270000
25.983333	1	0.273500
26.000000	1	0.277250
26.016667	1	0.281125
26.033333	1	0.285375
26.050000	1	0.290250
26.066667	1	0.295250
26.083333	1	0.301250
26.100000	1	0.307000
26.116667	1	0.312625
26.133333	1	0.318250
26.150000	1	0.324000
26.166667	1	0.330500
26.183333	1	0.336375
26.200000	1	0.342000
26.216667	1	0.346875
26.233333	1	0.351625
26.250000	1	0.356250
26.266667	1	0.360625
26.283333	1	0.364000
26.300000	1	0.368000
26.316667	1	0.370125
26.333333	1	0.371750
26.350000	1	0.372125
26.366667	1	0.371625
26.383333	1	0.370500
26.400000	1	0.368250
26.416667	1	0.365875
26.433333	1	0.362625
26.450000	1	0.358625
26.466667	1	0.354125
26.483333	1	0.349625
26.500000	1	0.344250
26.516667	1	0.338125
26.533333	1	0.331625
26.550000	1	0.324875
26.566667	1	0.317750
26.583333	1	0.310625
26.600000	1	0.303750
26.616667	1	0.296000
26.633333	1	0.288625
26.650000	1	0.281500
26.666667	1	0.275125
26.683333	1	0.268250
26.700000	1	0.261750
26.716667	1	0.255125
26.733333	1	0.249500
26.750000	1	0.243875
26.766667	1	0.238500
26.783333	1	0.234000
26.800000	1	0.229125
26.816667	1	0.224875
26.833333	1	0.221500
26.850000	1	0.217500
26.866667	1	0.214500
26.883333	1	0.211625
26.900000	1	0.209500
26.916667	1	0.208000
26.933333	1	0.206625
26.950000	1	0.205250
26.966667	1	0.204375
26.983333	1	0.203625
27.000000	1	0.203125
27.016667	1	0.204125
27.033333	1	0.205750
27.050000	1	0.207500
27.066667	1	0.210500
27.083333	1	0.213625
27.100000	1	0.218500
27.116667	1	0.223500
27.133333	1	0.229375
27.150000	1	0.236125
27.166667	1	0.244125
27.183333	1	0.254375
27.200000	1	0.266375
27.216667	1	0.280125
27.233333	1	0.295750
27.250000	1	0.314875
27.266667	1	0.336875
27.283333	1	0.362750
27.300000	1	0.392625
27.316667	1	0.427250
27.333333	1	0.466250
27.350000	1	0.511875
27.366667	1	0.564750
27.383333	1	0.625125
27.400000	1	0.693750
27.416667	1	0.771375
27.433333	1	0.859000
27.450000	1	0.957375
27.466667	1	1.066625
27.483333	1	1.187875
27.500000	1	1.321375
27.516667	1	1.465875
27.533333	1	1.623375
27.550000	1	1.792250
27.566667	1	1.971875
27.583333	1	2.161125
27.600000	1	2.358625
27.616667	1	2.562500
27.633333	1	2.770625
27.650000	1	2.981750
27.666667	1	3.193125
27.683333	1	3.401125
27.700000	1	3.602875
27.716667	1	3.794750
27.733333	1	3.974000
27.750000	1	4.137875
27.766667	1	4.281625
27.783333	1	4.404000
27.800000	1	4.502000
27.816667	1	4.573750
27.833333	1	4.618500
27.850000	1	4.635375
27.866667	1	4.622750
27.883333	1	4.582000
27.900000	1	4.514125
27.916667	1	4.420125
27.933333	1	4.301500
27.950000	1	4.160625
27.966667	1	4.001375
27.983333	1	3.826625
28.000000	1	3.640750
28.016667	1	3.444875
28.033333	1	3.243375
28.050000	1	3.038500
28.066667	1	2.833625
28.083333	1	2.630375
28.100000	1	2.432625
28.116667	1	2.242000
28.133333	1	2.059625
28.150000	1	1.886250
28.166667	1	1.723500
28.183333	1	1.572125
28.200000	1	1.432000
28.216667	1	1.303250
28.233333	1	1.185375
28.250000	1	1.077875
28.266667	1	0.981125
28.283333	1	0.895000
28.300000	1	0.818000
28.316667	1	0.749875
28.333333	1	0.690000
28.350000	1	0.638250
28.366667	1	0.593625
28.383333	1	0.555875
28.400000	1	0.523500
28.416667	1	0.496750
28.433333	1	0.475125
28.450000	1	0.458375
28.466667	1	0.445000
28.483333	1	0.436500
28.500000	1	0.430250
28.516667	1	0.428250
28.533333	1	0.429125
28.550000	1	0.432125
28.566667	1	0.436625
28.583333	1	0.443250
28.600000	1	0.452000
28.616667	1	0.460875
28.633333	1	0.470875
28.650000	1	0.481875
28.666667	1	0.493375
28.683333	1	0.505250
28.700000	1	0.517000
28.716667	1	0.528500
28.733333	1	0.539625
28.750000	1	0.550875
28.766667	1	0.561250
28.783333	1	0.571125
28.800000	1	0.579875
28.816667	1	0.587125
28.833333	1	0.594375
28.850000	1	0.600375
28.866667	1	0.604250
28.883333	1	0.607250
28.900000	1	0.609750
28.916667	1	0.610375
28.933333	1	0.609750
28.950000	1	0.607125
28.966667	1	0.604250
28.983333	1	0.600375
29.000000	1	0.594125
29.016667	1	0.587750
29.033333	1	0.579750
29.050000	1	0.570625
29.066667	1	0.560750
29.083333	1	0.550750
29.100000	1	0.540000
29.116667	1	0.526625
29.133333	1	0.514000
29.150000	1	0.500625
29.166667	1	0.487250
29.183333	1	0.473000
29.200000	1	0.457875
29.216667	1	0.443125
29.233333	1	0.428125
29.250000	1	0.412500
29.266667	1	0.397000
29.283333	1	0.382000
29.300000	1	0.367250
29.316667	1	0.352500
29.333333	1	0.337750
29.350000	1	0.323875
29.366667	1	0.310500
29.383333	1	0.297500
29.400000	1	0.284625
29.416667	1	0.272500
29.433333	1	0.260375
29.450000	1	0.248625
29.466667	1	0.237375
29.483333	1	0.226625
29.500000	1	0.216125
29.516667	1	0.205625
29.533333	1	0.196250
29.550000	1	0.187125
29.566667	1	0.179375
29.583333	1	0.171125
29.600000	1	0.164750
29.616667	1	0.158000
29.633333	1	0.151750
29.650000	1	0.146375
29.666667	1	0.141625
29.683333	1	0.136625
29.700000	1	0.132000
29.716667	1	0.128125
29.733333	1	0.124500
29.750000	1	0.121875
29.766667	1	0.119375
29.783333	1	0.117375
29.800000	1	0.115750
29.816667	1	0.114500
29.833333	1	0.113375
29.850000	1	0.113000
29.866667	1	0.112125
29.883333	1	0.111875
29.900000	1	0.111125
29.916667	1	0.111875
29.933333	1	0.112000
29.950000	1	0.112750
29.966667	1	0.113375
29.983333	1	0.114250
30.000000	1	0.115125
30.016667	1	0.116875
30.033333	1	0.118250
30.050000	1	0.120000
30.066667	1	0.120750
30.083333	1	0.122625
30.100000	1	0.124125
30.116667	1	0.125125
30.133333	1	0.126375
30.150000	1	0.127875
30.166667	1	0.129875
30.183333	1	0.131125
30.200000	1	0.132375
30.216667	1	0.133875
30.233333	1	0.135125
30.250000	1	0.136000
30.266667	1	0.136875
30.283333	1	0.137625
30.300000	1	0.138125
30.316667	1	0.138750
30.333333	1	0.138750
30.350000	1	0.139000
30.366667	1	0.139500
30.383333	1	0.140125
30.400000	1	0.140500
30.416667	1	0.141125
30.433333	1	0.141250
30.450000	1	0.142625
30.466667	1	0.143875
30.483333	1	0.145125
30.500000	1	0.146625
30.516667	1	0.147875
30.533333	1	0.150000
30.550000	1	0.151750
30.566667	1	0.154500
30.583333	1	0.158375
30.600000	1	0.162500
30.616667	1	0.167875
30.633333	1	0.172875
30.650000	1	0.178625
30.666667	1	0.185125
30.683333	1	0.192375
30.700000	1	0.200375
30.716667	1	0.209000
30.733333	1	0.217750
30.750000	1	0.227500
30.766667	1	0.238125
30.783333	1	0.249250
30.800000	1	0.261500
30.816667	1	0.274375
30.833333	1	0.288000
30.850000	1	0.304000
30.866667	1	0.320375
30.883333	1	0.338750
30.900000	1	0.359750
30.916667	1	0.380875
30.933333	1	0.405250
30.950000	1	0.432500
30.966667	1	0.462875
30.983333	1	0.497125
31.000000	1	0.535500
31.016667	1	0.579125
31.033333	1	0.629125
31.050000	1	0.684375
31.066667	1	0.746750
31.083333	1	0.816375
31.100000	1	0.895000
31.116667	1	0.982250
31.133333	1	1.080500
31.150000	1	1.189375
31.166667	1	1.309750
31.183333	1	1.441625
31.200000	1	1.585625
31.216667	1	1.741875
31.233333	1	1.909375
31.250000	1	2.090125
31.266667	1	2.281875
31.283333	1	2.483500
31.300000	1	2.694000
31.316667	1	2.912750
31.333333	1	3.137125
31.350000	1	3.365250
31.366667	1	3.594875
31.383333	1	3.824375
31.400000	1	4.050375
31.416667	1	4.271125
31.433333	1	4.482750
31.450000	1	4.682875
31.466667	1	4.868750
31.483333	1	5.037250
31.500000	1	5.186875
31.516667	1	5.315500
31.533333	1	5.420625
31.550000	1	5.501375
31.566667	1	5.557250
31.583333	1	5.587500
31.600000	1	5.591625
31.616667	1	5.570250
31.633333	1	5.523500
31.650000	1	5.451875
31.666667	1	5.357500
31.683333	1	5.241750
31.700000	1	5.107750
31.716667	1	4.956125
31.733333	1	4.790375
31.750000	1	4.611375
31.766667	1	4.422500
31.783333	1	4.225125
31.800000	1	4.022500
31.816667	1	3.816875
31.833333	1	3.608375
31.850000	1	3.401000
31.866667	1	3.195875
31.883333	1	2.994500
31.900000	1	2.798500
31.916667	1	2.608250
31.933333	1	2.426250
31.950000	1	2.252125
31.966667	1	2.085125
31.983333	1	1.927250
32.000000	1	1.778125
32.016667	1	1.638125
32.033333	1	1.506500
32.050000	1	1.383125
32.066667	1	1.268125
32.083333	1	1.161750
32.100000	1	1.063875
32.116667	1	0.972625
32.133333	1	0.888750
32.150000	1	0.811625
32.166667	1	0.740500
32.183333	1	0.675750
32.200000	1	0.615875
32.216667	1	0.561750
32.233333	1	0.511625
32.250000	1	0.466125
32.266667	1	0.424500
32.283333	1	0.386625
32.300000	1	0.352500
32.316667	1	0.322000
32.333333	1	0.294250
32.350000	1	0.269250
32.366667	1	0.246750
32.383333	1	0.226375
32.400000	1	0.208000
32.416667	1	0.191625
32.433333	1	0.176750
32.450000	1	0.163875
32.466667	1	0.152625
32.483333	1	0.142125
32.500000	1	0.133000
32.516667	1	0.124500
32.533333	1	0.117875
32.550000	1	0.112000
32.566667	1	0.106875
32.583333	1	0.101750
32.600000	1	0.097625
32.616667	1	0.094375
32.633333	1	0.091000
32.650000	1	0.087625
32.666667	1	0.084625
32.683333	1	0.082125
32.700000	1	0.079625
32.716667	1	0.077750
32.733333	1	0.075875
32.750000	1	0.074625
32.766667	1	0.072875
32.783333	1	0.071000
32.800000	1	0.069875
32.816667	1	0.068375
32.833333	1	0.067125
32.850000	1	0.065375
32.866667	1	0.063500
32.883333	1	0.061750
32.900000	1	0.060375
32.916667	1	0.058875
32.933333	1	0.057625
32.950000	1	0.057250
32.966667	1	0.056625
32.983333	1	0.055250
33.000000	1	0.054750
33.016667	1	0.053875
33.033333	1	0.053500
33.050000	1	0.052000
33.066667	1	0.050750
33.083333	1	0.049250
33.100000	1	0.049125
33.116667	1	0.048125
33.133333	1	0.047375
33.150000	1	0.046875
33.166667	1	0.046750
33.183333	1	0.046625
33.200000	1	0.046125
33.216667	1	0.045500
33.233333	1	0.044625
33.250000	1	0.044875
33.266667	1	0.045250
33.283333	1	0.046000
33.300000	1	0.045500
33.316667	1	0.045875
33.333333	1	0.046750
33.350000	1	0.046250
33.366667	1	0.047125
33.383333	1	0.048250
33.400000	1	0.049000
33.416667	1	0.049750
33.433333	1	0.051000
33.450000	1	0.051125
33.466667	1	0.052250
33.483333	1	0.053125
33.500000	1	0.054000
33.516667	1	0.055250
33.533333	1	0.055750
33.550000	1	0.057125
33.566667	1	0.058250
33.583333	1	0.059625
33.600000	1	0.061750
33.616667	1	0.063250
33.633333	1	0.065000
33.650000	1	0.066750
33.666667	1	0.068250
33.683333	1	0.069250
33.700000	1	0.070625
33.716667	1	0.072000
33.733333	1	0.073625
33.750000	1	0.074875
33.766667	1	0.076500
33.783333	1	0.078125
33.800000	1	0.079750
33.816667	1	0.081125
33.833333	1	0.082750
33.850000	1	0.084750
33.866667	1	0.086500
33.883333	1	0.088000
33.900000	1	0.089375
33.916667	1	0.091125
33.933333	1	0.093000
33.950000	1	0.094000
33.966667	1	0.096125
33.983333	1	0.097750
34.000000	1	0.098500
34.016667	1	0.099750
34.033333	1	0.100375
34.050000	1	0.101375
34.066667	1	0.102750
34.083333	1	0.104125
34.100000	1	0.105000
34.116667	1	0.105500
34.133333	1	0.106500
34.150000	1	0.107375
34.166667	1	0.108000
34.183333	1	0.109125
34.200000	1	0.108875
34.216667	1	0.109875
34.233333	1	0.110000
34.250000	1	0.110375
34.266667	1	0.110000
34.283333	1	0.110500
34.300000	1	0.110875
34.316667	1	0.111500
34.333333	1	0.112125
34.350000	1	0.112500
34.366667	1	0.112625
34.383333	1	0.113000
34.400000	1	0.113625
34.416667	1	0.114000
34.433333	1	0.114250
34.450000	1	0.115000
34.466667	1	0.115500
34.483333	1	0.116750
34.500000	1	0.117625
34.516667	1	0.119125
34.533333	1	0.120000
34.550000	1	0.121250
34.566667	1	0.123000
34.583333	1	0.124250
34.600000	1	0.125750
34.616667	1	0.127125
34.633333	1	0.128750
34.650000	1	0.130625
34.666667	1	0.132500
34.683333	1	0.134250
34.700000	1	0.135875
34.716667	1	0.138000
34.733333	1	0.140125
34.750000	1	0.142000
34.766667	1	0.143250
34.783333	1	0.145000
34.800000	1	0.146875
34.816667	1	0.148750
34.833333	1	0.150000
34.850000	1	0.151250
34.866667	1	0.152375
34.883333	1	0.154000
34.900000	1	0.154500
34.916667	1	0.155000
34.933333	1	0.155500
34.950000	1	0.156750
34.966667	1	0.157500
34.983333	1	0.158250
35.000000	1	0.158750
35.016667	1	0.158625
35.033333	1	0.158250
35.050000	1	0.157750
35.066667	1	0.157250
35.083333	1	0.157250
35.100000	1	0.156125
35.116667	1	0.155500
35.133333	1	0.154625
35.150000	1	0.153625
35.166667	1	0.152500
35.183333	1	0.150125
35.200000	1	0.148625
35.216667	1	0.147250
35.233333	1	0.145500
35.250000	1	0.143875
35.266667	1	0.143125
35.283333	1	0.141125
35.300000	1	0.139000
35.316667	1	0.137625
35.333333	1	0.136625
35.350000	1	0.135375
35.366667	1	0.133875
35.383333	1	0.133000
35.400000	1	0.131500
35.416667	1	0.130375
35.433333	1	0.129375
35.450000	1	0.128625
35.466667	1	0.128625
35.483333	1	0.128125
35.500000	1	0.127625
35.516667	1	0.127500
35.533333	1	0.127125
35.550000	1	0.127125
35.566667	1	0.127625
35.583333	1	0.127625
35.600000	1	0.127875
35.616667	1	0.128750
35.633333	1	0.129750
35.650000	1	0.130375
35.666667	1	0.131250
35.683333	1	0.132000
35.700000	1	0.132375
35.716667	1	0.133125
35.733333	1	0.133750
35.750000	1	0.134500
35.766667	1	0.134750
35.783333	1	0.135250
35.800000	1	0.135375
35.816667	1	0.135875
35.833333	1	0.136625
35.850000	1	0.137250
35.866667	1	0.137500
35.883333	1	0.137875
35.900000	1	0.137875
35.916667	1	0.138250
35.933333	1	0.137875
35.950000	1	0.137250
35.966667	1	0.137125
35.983333	1	0.136875
36.000000	1	0.136375
36.016667	1	0.135750
36.033333	1	0.135750
36.050000	1	0.135000
36.066667	1	0.134250
36.083333	1	0.133625
36.100000	1	0.132500
36.116667	1	0.131625
36.133333	1	0.131375
36.150000	1	0.131125
36.166667	1	0.130375
36.183333	1	0.130125
36.200000	1	0.129625
36.216667	1	0.129375
36.233333	1	0.128625
36.250000	1	0.127375
36.266667	1	0.127250
36.283333	1	0.127750
36.300000	1	0.128375
36.316667	1	0.129000
36.333333	1	0.129375
36.350000	1	0.130125
36.366667	1	0.130375
36.383333	1	0.130625
36.400000	1	0.130875
36.416667	1	0.131000
36.433333	1	0.131125
36.450000	1	0.131500
36.466667	1	0.132750
36.483333	1	0.133375
36.500000	1	0.133500
36.516667	1	0.133250
36.533333	1	0.133375
36.550000	1	0.133625
36.566667	1	0.132750
36.583333	1	0.133125
36.600000	1	0.133375
36.616667	1	0.132250
36.633333	1	0.131375
36.650000	1	0.129375
36.666667	1	0.128125
36.683333	1	0.126500
36.700000	1	0.124750
36.716667	1	0.123375
36.733333	1	0.121250
36.750000	1	0.119375
36.766667	1	0.117250
36.783333	1	0.114375
36.800000	1	0.112500
36.816667	1	0.110625
36.833333	1	0.108500
36.850000	1	0.105750
36.866667	1	0.103375
36.883333	1	0.101500
36.900000	1	0.099250
36.916667	1	0.097000
36.933333	1	0.095000
36.950000	1	0.093000
36.966667	1	0.090875
36.983333	1	0.089125
37.000000	1	0.087875
37.016667	1	0.085375
37.033333	1	0.083500
37.050000	1	0.082750
37.066667	1	0.081375
37.083333	1	0.080500
37.100000	1	0.079500
37.116667	1	0.079500
37.133333	1	0.078625
37.150000	1	0.078000
37.166667	1	0.078000
37.183333	1	0.076625
37.200000	1	0.076500
37.216667	1	0.077125
37.233333	1	0.077125
37.250000	1	0.077250
37.266667	1	0.077375
37.283333	1	0.077125
37.300000	1	0.077750
37.316667	1	0.077750
37.333333	1	0.078500
37.350000	1	0.079250
37.366667	1	0.078875
37.383333	1	0.078625
37.400000	1	0.078500
37.416667	1	0.078125
37.433333	1	0.078250
37.450000	1	0.077750
37.466667	1	0.077375
37.483333	1	0.076500
37.500000	1	0.075750
37.516667	1	0.075250
37.533333	1	0.074250
37.550000	1	0.073500
37.566667	1	0.072125
37.583333	1	0.070750
37.600000	1	0.068750
37.616667	1	0.067750
37.633333	1	0.066000
37.650000	1	0.063750
37.666667	1	0.061875
37.683333	1	0.059750
37.700000	1	0.057875
37.716667	1	0.056000
37.733333	1	0.053875
37.750000	1	0.051125
37.766667	1	0.048250
37.783333	1	0.045875
37.800000	1	0.043125
37.816667	1	0.040250
37.833333	1	0.037750
37.850000	1	0.034875
37.866667	1	0.032625
37.883333	1	0.030625
37.900000	1	0.028500
37.916667	1	0.027000
37.933333	1	0.025125
37.950000	1	0.022625
37.966667	1	0.020875
37.983333	1	0.019375
38.000000	1	0.017375
38.016667	1	0.016250
38.033333	1	0.015625
38.050000	1	0.015250
38.066667	1	0.014875
38.083333	1	0.015000
38.100000	1	0.014625
38.116667	1	0.014875
38.133333	1	0.015375
38.150000	1	0.015750
38.166667	1	0.016250
38.183333	1	0.016250
38.200000	1	0.017250
38.216667	1	0.017625
38.233333	1	0.018750
38.250000	1	0.019875
38.266667	1	0.021250
38.283333	1	0.022625
38.300000	1	0.023125
38.316667	1	0.024500
38.333333	1	0.025750
38.350000	1	0.027125
38.366667	1	0.028125
38.383333	1	0.029750
38.400000	1	0.030625
38.416667	1	0.031625
38.433333	1	0.033250
38.450000	1	0.034750
38.466667	1	0.036000
38.483333	1	0.037125
38.500000	1	0.038000
38.516667	1	0.039125
38.533333	1	0.040625
38.550000	1	0.041000
38.566667	1	0.042000
38.583333	1	0.042750
38.600000	1	0.044000
38.616667	1	0.044625
38.633333	1	0.045125
38.650000	1	0.046375
38.666667	1	0.047125
38.683333	1	0.047750
38.700000	1	0.048375
38.716667	1	0.048875
38.733333	1	0.049625
38.750000	1	0.050375
38.766667	1	0.050625
38.783333	1	0.050750
38.800000	1	0.050750
38.816667	1	0.051125
38.833333	1	0.051875
38.850000	1	0.052250
38.866667	1	0.053125
38.883333	1	0.053000
38.900000	1	0.053375
38.916667	1	0.053750
38.933333	1	0.053875
38.950000	1	0.053625
38.966667	1	0.053500
38.983333	1	0.052875
39.000000	1	0.051875
39.016667	1	0.051625
39.033333	1	0.050250
39.050000	1	0.049625
39.066667	1	0.048375
39.083333	1	0.047375
39.100000	1	0.046250
39.116667	1	0.045125
39.133333	1	0.043375
39.150000	1	0.041125
39.166667	1	0.038875
39.183333	1	0.036375
39.200000	1	0.034125
39.216667	1	0.032000
39.233333	1	0.030000
39.250000	1	0.028125
39.266667	1	0.025500
39.283333	1	0.023500
39.300000	1	0.020750
39.316667	1	0.018625
39.333333	1	0.015500
39.350000	1	0.013375
39.366667	1	0.010625
39.383333	1	0.008000
39.400000	1	0.006875
39.416667	1	0.004750
39.433333	1	0.003000
39.450000	1	0.001750
39.466667	1	0.000750
39.483333	1	0.000125
39.500000	1	0.000375
39.516667	1	0.000250
39.533333	1	-0.000375
39.550000	1	-0.000250
39.566667	1	-0.000375
39.583333	1	0.000000
39.600000	1	0.000625
39.616667	1	0.001250
39.633333	1	0.002625
39.650000	1	0.003250
39.666667	1	0.003750
39.683333	1	0.004750
39.700000	1	0.005875
39.716667	1	0.006625
39.733333	1	0.007500
39.750000	1	0.008750
39.766667	1	0.009625
39.783333	1	0.010500
39.800000	1	0.011250
39.816667	1	0.012375
39.833333	1	0.012625
39.850000	1	0.013625
39.866667	1	0.014250
39.883333	1	0.015375
39.900000	1	0.015875
39.916667	1	0.015750
39.933333	1	0.016125
39.950000	1	0.015875
39.966667	1	0.016250
39.983333	1	0.016500
40.000000	1	0.015750
