URL	chrom://bioreactor/micro_cm7/HPLC_Ultimate_3000/Users/markusar/20240716_MA_pHrange2.seq/672.smp/RI_1.channel/RI_1.chm
Channel	RI_1

Injection Information:
Data Vault	micro_cm7
Sequence	20240716_MA_pHrange2
Name	Pv1_40H_3
Number	16
Position	BB4
Comment	
Processing Method	
Instrument Method	run_25B_method
Type	Unknown
Status	Finished
Inject Time	17.07.2024 04:21:02 +02:00
Volume (µl)	20.0000
Dilution Factor	1.0000
Weight	1.0000

Chromatogram Data Information:
Time Min. (min)	0.000000
Time Max. (min)	40.000000
Data Points	2401
Detector	RI
Generating Data System	Chromeleon 7.3.2.11814
Exporting Data System	Chromeleon 7.3.2.0
Operator	Instrument Controller
Signal Quantity	Refractive 
Signal Unit	µRIU
Signal Min.	-0.217750
Signal Max.	105.720875
Channel	RI_1
Driver Name	RID520Driver.dll
Channel Type	Evaluation
Min. Step (s)	1
Max. Step (s)	1
Average Step (s)	1

Signal Parameter Information:
Signal Info	

Chromatogram Data:
Time (min)	Step (s)	Value (µRIU)
0.000000	n.a.	0.036125
0.016667	1	0.036250
0.033333	1	0.036750
0.050000	1	0.037125
0.066667	1	0.037750
0.083333	1	0.038125
0.100000	1	0.038625
0.116667	1	0.039250
0.133333	1	0.040375
0.150000	1	0.041125
0.166667	1	0.042500
0.183333	1	0.043250
0.200000	1	0.044500
0.216667	1	0.045375
0.233333	1	0.046500
0.250000	1	0.048750
0.266667	1	0.050625
0.283333	1	0.052250
0.300000	1	0.054250
0.316667	1	0.056250
0.333333	1	0.058625
0.350000	1	0.060500
0.366667	1	0.062250
0.383333	1	0.063875
0.400000	1	0.065000
0.416667	1	0.067000
0.433333	1	0.069375
0.450000	1	0.071875
0.466667	1	0.075250
0.483333	1	0.078375
0.500000	1	0.080625
0.516667	1	0.082000
0.533333	1	0.082500
0.550000	1	0.081750
0.566667	1	0.081750
0.583333	1	0.080125
0.600000	1	0.078125
0.616667	1	0.076500
0.633333	1	0.074375
0.650000	1	0.072625
0.666667	1	0.070750
0.683333	1	0.068750
0.700000	1	0.066375
0.716667	1	0.063625
0.733333	1	0.061250
0.750000	1	0.059000
0.766667	1	0.056250
0.783333	1	0.053000
0.800000	1	0.049875
0.816667	1	0.046750
0.833333	1	0.044000
0.850000	1	0.041000
0.866667	1	0.037500
0.883333	1	0.034000
0.900000	1	0.031125
0.916667	1	0.027875
0.933333	1	0.024375
0.950000	1	0.021750
0.966667	1	0.019375
0.983333	1	0.016375
1.000000	1	0.014000
1.016667	1	0.012250
1.033333	1	0.010375
1.050000	1	0.008625
1.066667	1	0.006500
1.083333	1	0.004375
1.100000	1	0.002875
1.116667	1	0.001250
1.133333	1	0.000500
1.150000	1	-0.000375
1.166667	1	-0.001375
1.183333	1	-0.002000
1.200000	1	-0.002500
1.216667	1	-0.003500
1.233333	1	-0.003750
1.250000	1	-0.004000
1.266667	1	-0.003875
1.283333	1	-0.004125
1.300000	1	-0.004000
1.316667	1	-0.003375
1.333333	1	-0.003500
1.350000	1	-0.002500
1.366667	1	-0.001625
1.383333	1	-0.001000
1.400000	1	-0.000375
1.416667	1	0.000250
1.433333	1	0.001125
1.450000	1	0.001375
1.466667	1	0.002125
1.483333	1	0.002875
1.500000	1	0.003500
1.516667	1	0.004750
1.533333	1	0.006125
1.550000	1	0.007375
1.566667	1	0.007750
1.583333	1	0.007875
1.600000	1	0.008750
1.616667	1	0.009625
1.633333	1	0.010875
1.650000	1	0.011625
1.666667	1	0.011875
1.683333	1	0.012500
1.700000	1	0.013500
1.716667	1	0.014000
1.733333	1	0.014625
1.750000	1	0.015000
1.766667	1	0.015125
1.783333	1	0.015750
1.800000	1	0.016500
1.816667	1	0.017625
1.833333	1	0.017750
1.850000	1	0.017625
1.866667	1	0.017875
1.883333	1	0.018250
1.900000	1	0.019375
1.916667	1	0.019375
1.933333	1	0.019750
1.950000	1	0.019500
1.966667	1	0.019625
1.983333	1	0.020125
2.000000	1	0.020625
2.016667	1	0.020625
2.033333	1	0.021000
2.050000	1	0.021375
2.066667	1	0.021125
2.083333	1	0.021375
2.100000	1	0.021750
2.116667	1	0.020750
2.133333	1	0.020125
2.150000	1	0.020000
2.166667	1	0.020000
2.183333	1	0.019750
2.200000	1	0.019500
2.216667	1	0.019375
2.233333	1	0.019000
2.250000	1	0.018875
2.266667	1	0.018750
2.283333	1	0.018500
2.300000	1	0.018625
2.316667	1	0.018375
2.333333	1	0.018375
2.350000	1	0.017625
2.366667	1	0.017500
2.383333	1	0.016875
2.400000	1	0.016375
2.416667	1	0.016000
2.433333	1	0.016000
2.450000	1	0.016375
2.466667	1	0.016250
2.483333	1	0.016875
2.500000	1	0.016625
2.516667	1	0.016750
2.533333	1	0.016000
2.550000	1	0.016375
2.566667	1	0.015875
2.583333	1	0.016375
2.600000	1	0.016875
2.616667	1	0.017125
2.633333	1	0.017375
2.650000	1	0.017875
2.666667	1	0.017750
2.683333	1	0.018250
2.700000	1	0.019250
2.716667	1	0.019500
2.733333	1	0.020375
2.750000	1	0.020750
2.766667	1	0.020750
2.783333	1	0.021000
2.800000	1	0.021625
2.816667	1	0.022000
2.833333	1	0.022250
2.850000	1	0.023125
2.866667	1	0.023500
2.883333	1	0.024000
2.900000	1	0.024125
2.916667	1	0.024375
2.933333	1	0.025250
2.950000	1	0.025625
2.966667	1	0.026000
2.983333	1	0.026750
3.000000	1	0.026875
3.016667	1	0.027375
3.033333	1	0.027625
3.050000	1	0.027625
3.066667	1	0.027625
3.083333	1	0.028125
3.100000	1	0.028375
3.116667	1	0.028125
3.133333	1	0.028250
3.150000	1	0.028750
3.166667	1	0.029375
3.183333	1	0.029500
3.200000	1	0.030500
3.216667	1	0.030625
3.233333	1	0.030750
3.250000	1	0.030750
3.266667	1	0.031500
3.283333	1	0.032375
3.300000	1	0.032875
3.316667	1	0.033750
3.333333	1	0.034125
3.350000	1	0.034625
3.366667	1	0.035250
3.383333	1	0.035500
3.400000	1	0.037000
3.416667	1	0.038625
3.433333	1	0.040000
3.450000	1	0.041375
3.466667	1	0.043125
3.483333	1	0.044750
3.500000	1	0.045375
3.516667	1	0.046750
3.533333	1	0.048750
3.550000	1	0.049875
3.566667	1	0.051500
3.583333	1	0.054125
3.600000	1	0.056125
3.616667	1	0.058250
3.633333	1	0.060375
3.650000	1	0.062625
3.666667	1	0.065250
3.683333	1	0.067625
3.700000	1	0.069875
3.716667	1	0.071875
3.733333	1	0.075250
3.750000	1	0.077375
3.766667	1	0.080375
3.783333	1	0.082875
3.800000	1	0.085625
3.816667	1	0.088625
3.833333	1	0.091125
3.850000	1	0.093875
3.866667	1	0.096250
3.883333	1	0.098375
3.900000	1	0.100500
3.916667	1	0.102625
3.933333	1	0.104750
3.950000	1	0.106500
3.966667	1	0.108500
3.983333	1	0.109750
4.000000	1	0.110750
4.016667	1	0.112125
4.033333	1	0.113375
4.050000	1	0.113625
4.066667	1	0.114625
4.083333	1	0.116375
4.100000	1	0.117000
4.116667	1	0.117250
4.133333	1	0.117375
4.150000	1	0.117625
4.166667	1	0.118125
4.183333	1	0.118500
4.200000	1	0.118375
4.216667	1	0.118875
4.233333	1	0.119250
4.250000	1	0.119125
4.266667	1	0.119500
4.283333	1	0.119250
4.300000	1	0.119125
4.316667	1	0.119125
4.333333	1	0.119500
4.350000	1	0.119250
4.366667	1	0.119625
4.383333	1	0.119375
4.400000	1	0.120000
4.416667	1	0.120625
4.433333	1	0.120875
4.450000	1	0.121125
4.466667	1	0.121750
4.483333	1	0.122625
4.500000	1	0.123125
4.516667	1	0.124125
4.533333	1	0.125125
4.550000	1	0.125750
4.566667	1	0.127000
4.583333	1	0.127250
4.600000	1	0.128750
4.616667	1	0.129750
4.633333	1	0.130875
4.650000	1	0.132500
4.666667	1	0.133125
4.683333	1	0.134125
4.700000	1	0.135750
4.716667	1	0.137125
4.733333	1	0.138875
4.750000	1	0.140625
4.766667	1	0.142750
4.783333	1	0.144750
4.800000	1	0.147000
4.816667	1	0.149000
4.833333	1	0.151625
4.850000	1	0.153875
4.866667	1	0.156625
4.883333	1	0.159750
4.900000	1	0.163125
4.916667	1	0.166125
4.933333	1	0.169500
4.950000	1	0.173375
4.966667	1	0.176875
4.983333	1	0.180750
5.000000	1	0.184250
5.016667	1	0.188375
5.033333	1	0.192750
5.050000	1	0.196375
5.066667	1	0.200250
5.083333	1	0.204625
5.100000	1	0.208500
5.116667	1	0.212625
5.133333	1	0.216375
5.150000	1	0.220625
5.166667	1	0.225500
5.183333	1	0.229625
5.200000	1	0.232750
5.216667	1	0.236625
5.233333	1	0.240625
5.250000	1	0.243875
5.266667	1	0.246125
5.283333	1	0.249250
5.300000	1	0.252500
5.316667	1	0.254750
5.333333	1	0.256875
5.350000	1	0.258125
5.366667	1	0.259750
5.383333	1	0.261125
5.400000	1	0.262375
5.416667	1	0.262500
5.433333	1	0.261625
5.450000	1	0.260625
5.466667	1	0.259000
5.483333	1	0.257125
5.500000	1	0.255375
5.516667	1	0.253375
5.533333	1	0.250625
5.550000	1	0.247500
5.566667	1	0.243500
5.583333	1	0.239625
5.600000	1	0.236125
5.616667	1	0.232250
5.633333	1	0.227875
5.650000	1	0.223000
5.666667	1	0.218125
5.683333	1	0.212625
5.700000	1	0.206875
5.716667	1	0.201500
5.733333	1	0.196250
5.750000	1	0.190875
5.766667	1	0.185500
5.783333	1	0.179125
5.800000	1	0.173000
5.816667	1	0.166875
5.833333	1	0.162250
5.850000	1	0.156500
5.866667	1	0.151500
5.883333	1	0.146250
5.900000	1	0.140250
5.916667	1	0.135125
5.933333	1	0.130125
5.950000	1	0.125375
5.966667	1	0.121250
5.983333	1	0.117375
6.000000	1	0.113250
6.016667	1	0.109500
6.033333	1	0.106125
6.050000	1	0.102500
6.066667	1	0.099000
6.083333	1	0.096750
6.100000	1	0.094500
6.116667	1	0.091875
6.133333	1	0.089125
6.150000	1	0.086750
6.166667	1	0.084375
6.183333	1	0.083000
6.200000	1	0.082000
6.216667	1	0.081000
6.233333	1	0.079500
6.250000	1	0.078125
6.266667	1	0.077500
6.283333	1	0.076750
6.300000	1	0.076250
6.316667	1	0.075500
6.333333	1	0.076000
6.350000	1	0.076250
6.366667	1	0.076750
6.383333	1	0.076625
6.400000	1	0.077125
6.416667	1	0.077250
6.433333	1	0.078500
6.450000	1	0.078500
6.466667	1	0.078625
6.483333	1	0.079625
6.500000	1	0.080000
6.516667	1	0.080250
6.533333	1	0.080750
6.550000	1	0.082000
6.566667	1	0.083000
6.583333	1	0.084000
6.600000	1	0.085000
6.616667	1	0.085875
6.633333	1	0.086500
6.650000	1	0.087625
6.666667	1	0.088875
6.683333	1	0.090250
6.700000	1	0.091750
6.716667	1	0.092375
6.733333	1	0.093750
6.750000	1	0.094750
6.766667	1	0.095875
6.783333	1	0.097625
6.800000	1	0.099125
6.816667	1	0.100625
6.833333	1	0.101750
6.850000	1	0.104125
6.866667	1	0.106125
6.883333	1	0.108125
6.900000	1	0.110000
6.916667	1	0.112000
6.933333	1	0.114250
6.950000	1	0.115750
6.966667	1	0.117250
6.983333	1	0.119500
7.000000	1	0.122500
7.016667	1	0.124375
7.033333	1	0.126375
7.050000	1	0.128625
7.066667	1	0.130375
7.083333	1	0.132125
7.100000	1	0.134125
7.116667	1	0.136500
7.133333	1	0.138750
7.150000	1	0.140375
7.166667	1	0.141750
7.183333	1	0.143500
7.200000	1	0.145375
7.216667	1	0.146250
7.233333	1	0.147000
7.250000	1	0.148250
7.266667	1	0.148500
7.283333	1	0.149125
7.300000	1	0.149000
7.316667	1	0.149000
7.333333	1	0.148625
7.350000	1	0.148125
7.366667	1	0.147875
7.383333	1	0.146750
7.400000	1	0.146375
7.416667	1	0.145875
7.433333	1	0.144000
7.450000	1	0.141875
7.466667	1	0.139250
7.483333	1	0.137625
7.500000	1	0.135625
7.516667	1	0.133500
7.533333	1	0.131500
7.550000	1	0.129125
7.566667	1	0.127500
7.583333	1	0.125000
7.600000	1	0.122000
7.616667	1	0.119375
7.633333	1	0.116000
7.650000	1	0.112875
7.666667	1	0.109750
7.683333	1	0.106125
7.700000	1	0.103125
7.716667	1	0.099750
7.733333	1	0.097000
7.750000	1	0.093500
7.766667	1	0.090000
7.783333	1	0.086750
7.800000	1	0.083625
7.816667	1	0.080375
7.833333	1	0.076875
7.850000	1	0.073250
7.866667	1	0.069625
7.883333	1	0.066125
7.900000	1	0.063125
7.916667	1	0.060250
7.933333	1	0.057500
7.950000	1	0.054125
7.966667	1	0.051625
7.983333	1	0.048375
8.000000	1	0.045500
8.016667	1	0.043000
8.033333	1	0.040000
8.050000	1	0.037000
8.066667	1	0.034500
8.083333	1	0.031750
8.100000	1	0.029625
8.116667	1	0.027250
8.133333	1	0.025000
8.150000	1	0.022875
8.166667	1	0.021000
8.183333	1	0.019125
8.200000	1	0.017125
8.216667	1	0.015500
8.233333	1	0.012750
8.250000	1	0.010750
8.266667	1	0.008750
8.283333	1	0.007500
8.300000	1	0.006250
8.316667	1	0.005500
8.333333	1	0.004500
8.350000	1	0.002625
8.366667	1	0.002375
8.383333	1	0.001750
8.400000	1	0.000875
8.416667	1	0.000000
8.433333	1	-0.000375
8.450000	1	-0.001125
8.466667	1	-0.002125
8.483333	1	-0.002000
8.500000	1	-0.002250
8.516667	1	-0.001875
8.533333	1	-0.002000
8.550000	1	-0.002000
8.566667	1	-0.001250
8.583333	1	-0.000500
8.600000	1	-0.000500
8.616667	1	-0.000625
8.633333	1	0.000125
8.650000	1	0.000750
8.666667	1	0.001000
8.683333	1	0.001125
8.700000	1	0.001125
8.716667	1	0.002000
8.733333	1	0.002750
8.750000	1	0.003000
8.766667	1	0.003125
8.783333	1	0.003750
8.800000	1	0.004250
8.816667	1	0.004125
8.833333	1	0.005000
8.850000	1	0.005750
8.866667	1	0.005375
8.883333	1	0.005250
8.900000	1	0.005250
8.916667	1	0.004750
8.933333	1	0.004750
8.950000	1	0.005000
8.966667	1	0.005250
8.983333	1	0.005000
9.000000	1	0.004375
9.016667	1	0.005000
9.033333	1	0.005375
9.050000	1	0.005000
9.066667	1	0.005000
9.083333	1	0.005375
9.100000	1	0.006250
9.116667	1	0.007000
9.133333	1	0.008375
9.150000	1	0.009375
9.166667	1	0.010125
9.183333	1	0.010875
9.200000	1	0.012000
9.216667	1	0.013000
9.233333	1	0.014625
9.250000	1	0.015500
9.266667	1	0.016750
9.283333	1	0.017625
9.300000	1	0.018750
9.316667	1	0.020000
9.333333	1	0.021625
9.350000	1	0.022375
9.366667	1	0.023375
9.383333	1	0.023875
9.400000	1	0.024875
9.416667	1	0.025375
9.433333	1	0.025625
9.450000	1	0.026000
9.466667	1	0.026125
9.483333	1	0.025625
9.500000	1	0.024875
9.516667	1	0.024250
9.533333	1	0.023375
9.550000	1	0.021625
9.566667	1	0.020625
9.583333	1	0.019000
9.600000	1	0.017375
9.616667	1	0.015250
9.633333	1	0.013125
9.650000	1	0.010625
9.666667	1	0.007875
9.683333	1	0.005875
9.700000	1	0.003750
9.716667	1	0.001125
9.733333	1	-0.001500
9.750000	1	-0.004000
9.766667	1	-0.006250
9.783333	1	-0.008500
9.800000	1	-0.011750
9.816667	1	-0.013750
9.833333	1	-0.016250
9.850000	1	-0.018125
9.866667	1	-0.019750
9.883333	1	-0.021375
9.900000	1	-0.022625
9.916667	1	-0.023875
9.933333	1	-0.024625
9.950000	1	-0.025250
9.966667	1	-0.025750
9.983333	1	-0.025875
10.000000	1	-0.025250
10.016667	1	-0.024125
10.033333	1	-0.022500
10.050000	1	-0.019875
10.066667	1	-0.016875
10.083333	1	-0.012500
10.100000	1	-0.006875
10.116667	1	-0.001500
10.133333	1	0.005375
10.150000	1	0.012375
10.166667	1	0.020625
10.183333	1	0.029250
10.200000	1	0.038375
10.216667	1	0.047875
10.233333	1	0.058375
10.250000	1	0.070125
10.266667	1	0.083125
10.283333	1	0.097500
10.300000	1	0.113000
10.316667	1	0.129500
10.333333	1	0.145875
10.350000	1	0.161125
10.366667	1	0.172375
10.383333	1	0.176875
10.400000	1	0.167750
10.416667	1	0.141875
10.433333	1	0.093625
10.450000	1	0.023500
10.466667	1	-0.064000
10.483333	1	-0.154125
10.500000	1	-0.217750
10.516667	1	-0.216250
10.533333	1	-0.094375
10.550000	1	0.212375
10.566667	1	0.773375
10.583333	1	1.659500
10.600000	1	2.936500
10.616667	1	4.662500
10.633333	1	6.881875
10.650000	1	9.624875
10.666667	1	12.916000
10.683333	1	16.766000
10.700000	1	21.178375
10.716667	1	26.144125
10.733333	1	31.647500
10.750000	1	37.660875
10.766667	1	44.148250
10.783333	1	51.066000
10.800000	1	58.355875
10.816667	1	65.941125
10.833333	1	73.712125
10.850000	1	81.498125
10.866667	1	89.047375
10.883333	1	95.948000
10.900000	1	101.584125
10.916667	1	105.136375
10.933333	1	105.720875
10.950000	1	102.671000
10.966667	1	95.893875
10.983333	1	86.014000
11.000000	1	74.223500
11.016667	1	61.901000
11.033333	1	50.214250
11.050000	1	39.891000
11.066667	1	31.228250
11.083333	1	24.224750
11.100000	1	18.713500
11.116667	1	14.464375
11.133333	1	11.235750
11.150000	1	8.808875
11.166667	1	6.995625
11.183333	1	5.645250
11.200000	1	4.638000
11.216667	1	3.882750
11.233333	1	3.312125
11.250000	1	2.876875
11.266667	1	2.540125
11.283333	1	2.276250
11.300000	1	2.065875
11.316667	1	1.896250
11.333333	1	1.756625
11.350000	1	1.641250
11.366667	1	1.544250
11.383333	1	1.462250
11.400000	1	1.392375
11.416667	1	1.332500
11.433333	1	1.281375
11.450000	1	1.237500
11.466667	1	1.199625
11.483333	1	1.167125
11.500000	1	1.139500
11.516667	1	1.115000
11.533333	1	1.094750
11.550000	1	1.077250
11.566667	1	1.062500
11.583333	1	1.049375
11.600000	1	1.038375
11.616667	1	1.028875
11.633333	1	1.021375
11.650000	1	1.015375
11.666667	1	1.010000
11.683333	1	1.007125
11.700000	1	1.005500
11.716667	1	1.005250
11.733333	1	1.006000
11.750000	1	1.007625
11.766667	1	1.011125
11.783333	1	1.015750
11.800000	1	1.021375
11.816667	1	1.027750
11.833333	1	1.034000
11.850000	1	1.041000
11.866667	1	1.048250
11.883333	1	1.055625
11.900000	1	1.061250
11.916667	1	1.066625
11.933333	1	1.071500
11.950000	1	1.075875
11.966667	1	1.078375
11.983333	1	1.080000
12.000000	1	1.080750
12.016667	1	1.081375
12.033333	1	1.081250
12.050000	1	1.081250
12.066667	1	1.081625
12.083333	1	1.081500
12.100000	1	1.081875
12.116667	1	1.082375
12.133333	1	1.084000
12.150000	1	1.085000
12.166667	1	1.088000
12.183333	1	1.091125
12.200000	1	1.095000
12.216667	1	1.099250
12.233333	1	1.105000
12.250000	1	1.112125
12.266667	1	1.121000
12.283333	1	1.132125
12.300000	1	1.146625
12.316667	1	1.164875
12.333333	1	1.188750
12.350000	1	1.220500
12.366667	1	1.261750
12.383333	1	1.315250
12.400000	1	1.386000
12.416667	1	1.476125
12.433333	1	1.591000
12.450000	1	1.735875
12.466667	1	1.915750
12.483333	1	2.136375
12.500000	1	2.402125
12.516667	1	2.717750
12.533333	1	3.087750
12.550000	1	3.512125
12.566667	1	3.991375
12.583333	1	4.524500
12.600000	1	5.108000
12.616667	1	5.733250
12.633333	1	6.392125
12.650000	1	7.074125
12.666667	1	7.767625
12.683333	1	8.458625
12.700000	1	9.135875
12.716667	1	9.789250
12.733333	1	10.411375
12.750000	1	10.999500
12.766667	1	11.553750
12.783333	1	12.078375
12.800000	1	12.580750
12.816667	1	13.068625
12.833333	1	13.553000
12.850000	1	14.043625
12.866667	1	14.550000
12.883333	1	15.078875
12.900000	1	15.634875
12.916667	1	16.221750
12.933333	1	16.841125
12.950000	1	17.493250
12.966667	1	18.177750
12.983333	1	18.893375
13.000000	1	19.637875
13.016667	1	20.408375
13.033333	1	21.204750
13.050000	1	22.026500
13.066667	1	22.872125
13.083333	1	23.740750
13.100000	1	24.631125
13.116667	1	25.542500
13.133333	1	26.472625
13.150000	1	27.421375
13.166667	1	28.389125
13.183333	1	29.376375
13.200000	1	30.381750
13.216667	1	31.405750
13.233333	1	32.449250
13.250000	1	33.513625
13.266667	1	34.597875
13.283333	1	35.702500
13.300000	1	36.828875
13.316667	1	37.975375
13.333333	1	39.142750
13.350000	1	40.332625
13.366667	1	41.546125
13.383333	1	42.780500
13.400000	1	44.039125
13.416667	1	45.319875
13.433333	1	46.625250
13.450000	1	47.956375
13.466667	1	49.315750
13.483333	1	50.702750
13.500000	1	52.118000
13.516667	1	53.562125
13.533333	1	55.035500
13.550000	1	56.538000
13.566667	1	58.070250
13.583333	1	59.633750
13.600000	1	61.225500
13.616667	1	62.848875
13.633333	1	64.504875
13.650000	1	66.195875
13.666667	1	67.922875
13.683333	1	69.686125
13.700000	1	71.486125
13.716667	1	73.323000
13.733333	1	75.194625
13.750000	1	77.092750
13.766667	1	78.976000
13.783333	1	80.740125
13.800000	1	82.190250
13.816667	1	83.082125
13.833333	1	83.164250
13.850000	1	82.215125
13.866667	1	80.022125
13.883333	1	76.354000
13.900000	1	71.009000
13.916667	1	63.966375
13.933333	1	55.564625
13.950000	1	46.528250
13.966667	1	37.751625
13.983333	1	29.965125
14.000000	1	23.532750
14.016667	1	18.464875
14.033333	1	14.583750
14.050000	1	11.655125
14.066667	1	9.468125
14.083333	1	7.849250
14.100000	1	6.657875
14.116667	1	5.785500
14.133333	1	5.145375
14.150000	1	4.672250
14.166667	1	4.318250
14.183333	1	4.047500
14.200000	1	3.837000
14.216667	1	3.668500
14.233333	1	3.531625
14.250000	1	3.417875
14.266667	1	3.320000
14.283333	1	3.235125
14.300000	1	3.160125
14.316667	1	3.092625
14.333333	1	3.031625
14.350000	1	2.978000
14.366667	1	2.929875
14.383333	1	2.887625
14.400000	1	2.851500
14.416667	1	2.823000
14.433333	1	2.802750
14.450000	1	2.794375
14.466667	1	2.800750
14.483333	1	2.828125
14.500000	1	2.882625
14.516667	1	2.973750
14.533333	1	3.115250
14.550000	1	3.323125
14.566667	1	3.619750
14.583333	1	4.031625
14.600000	1	4.594250
14.616667	1	5.347125
14.633333	1	6.341125
14.650000	1	7.630750
14.666667	1	9.273625
14.683333	1	11.328000
14.700000	1	13.844625
14.716667	1	16.860500
14.733333	1	20.402500
14.750000	1	24.470500
14.766667	1	29.029750
14.783333	1	34.001500
14.800000	1	39.278500
14.816667	1	44.712750
14.833333	1	50.124000
14.850000	1	55.298875
14.866667	1	60.012375
14.883333	1	64.040250
14.900000	1	67.179625
14.916667	1	69.268375
14.933333	1	70.199875
14.950000	1	69.929500
14.966667	1	68.484750
14.983333	1	65.961125
15.000000	1	62.502375
15.016667	1	58.293875
15.033333	1	53.543375
15.050000	1	48.470750
15.066667	1	43.285125
15.083333	1	38.173000
15.100000	1	33.285500
15.116667	1	28.737250
15.133333	1	24.603875
15.150000	1	20.923875
15.166667	1	17.707625
15.183333	1	14.942125
15.200000	1	12.594500
15.216667	1	10.623125
15.233333	1	8.984375
15.250000	1	7.633250
15.266667	1	6.527375
15.283333	1	5.627750
15.300000	1	4.900000
15.316667	1	4.314750
15.333333	1	3.846125
15.350000	1	3.471875
15.366667	1	3.174500
15.383333	1	2.940500
15.400000	1	2.758125
15.416667	1	2.617250
15.433333	1	2.510500
15.450000	1	2.431000
15.466667	1	2.372250
15.483333	1	2.330625
15.500000	1	2.300875
15.516667	1	2.279375
15.533333	1	2.262750
15.550000	1	2.247500
15.566667	1	2.230500
15.583333	1	2.211000
15.600000	1	2.187500
15.616667	1	2.159500
15.633333	1	2.127250
15.650000	1	2.090875
15.666667	1	2.051625
15.683333	1	2.010125
15.700000	1	1.968625
15.716667	1	1.927375
15.733333	1	1.887375
15.750000	1	1.848250
15.766667	1	1.811625
15.783333	1	1.777000
15.800000	1	1.744500
15.816667	1	1.713625
15.833333	1	1.683875
15.850000	1	1.655375
15.866667	1	1.626750
15.883333	1	1.600000
15.900000	1	1.574250
15.916667	1	1.549375
15.933333	1	1.525750
15.950000	1	1.504250
15.966667	1	1.485250
15.983333	1	1.468875
16.000000	1	1.455750
16.016667	1	1.445250
16.033333	1	1.437625
16.050000	1	1.432625
16.066667	1	1.430125
16.083333	1	1.429125
16.100000	1	1.429375
16.116667	1	1.429000
16.133333	1	1.429500
16.150000	1	1.429625
16.166667	1	1.427750
16.183333	1	1.424250
16.200000	1	1.418500
16.216667	1	1.410875
16.233333	1	1.401250
16.250000	1	1.389875
16.266667	1	1.376875
16.283333	1	1.361125
16.300000	1	1.344125
16.316667	1	1.326375
16.333333	1	1.308125
16.350000	1	1.289375
16.366667	1	1.270875
16.383333	1	1.252625
16.400000	1	1.234500
16.416667	1	1.218125
16.433333	1	1.202250
16.450000	1	1.188000
16.466667	1	1.175250
16.483333	1	1.164750
16.500000	1	1.156250
16.516667	1	1.149750
16.533333	1	1.145125
16.550000	1	1.143375
16.566667	1	1.143750
16.583333	1	1.145250
16.600000	1	1.149000
16.616667	1	1.153625
16.633333	1	1.158125
16.650000	1	1.163375
16.666667	1	1.168125
16.683333	1	1.172125
16.700000	1	1.175500
16.716667	1	1.178375
16.733333	1	1.181000
16.750000	1	1.183000
16.766667	1	1.185000
16.783333	1	1.186500
16.800000	1	1.187625
16.816667	1	1.189000
16.833333	1	1.191000
16.850000	1	1.193500
16.866667	1	1.197000
16.883333	1	1.200750
16.900000	1	1.204875
16.916667	1	1.208875
16.933333	1	1.212125
16.950000	1	1.215375
16.966667	1	1.217250
16.983333	1	1.218500
17.000000	1	1.218375
17.016667	1	1.217250
17.033333	1	1.215375
17.050000	1	1.212875
17.066667	1	1.210000
17.083333	1	1.206125
17.100000	1	1.201875
17.116667	1	1.197500
17.133333	1	1.193125
17.150000	1	1.189500
17.166667	1	1.186750
17.183333	1	1.184000
17.200000	1	1.181250
17.216667	1	1.179625
17.233333	1	1.179000
17.250000	1	1.179125
17.266667	1	1.179750
17.283333	1	1.180875
17.300000	1	1.181625
17.316667	1	1.182625
17.333333	1	1.184875
17.350000	1	1.186375
17.366667	1	1.188250
17.383333	1	1.190625
17.400000	1	1.193500
17.416667	1	1.195375
17.433333	1	1.196625
17.450000	1	1.197875
17.466667	1	1.198000
17.483333	1	1.197375
17.500000	1	1.195625
17.516667	1	1.191625
17.533333	1	1.187000
17.550000	1	1.181000
17.566667	1	1.173500
17.583333	1	1.164125
17.600000	1	1.153500
17.616667	1	1.142125
17.633333	1	1.129875
17.650000	1	1.116125
17.666667	1	1.101500
17.683333	1	1.086375
17.700000	1	1.070875
17.716667	1	1.054625
17.733333	1	1.038625
17.750000	1	1.024000
17.766667	1	1.010000
17.783333	1	0.996250
17.800000	1	0.982875
17.816667	1	0.969500
17.833333	1	0.956625
17.850000	1	0.945750
17.866667	1	0.935625
17.883333	1	0.925625
17.900000	1	0.916750
17.916667	1	0.908375
17.933333	1	0.901125
17.950000	1	0.895125
17.966667	1	0.889625
17.983333	1	0.884250
18.000000	1	0.878250
18.016667	1	0.873625
18.033333	1	0.868750
18.050000	1	0.863500
18.066667	1	0.859000
18.083333	1	0.854875
18.100000	1	0.850625
18.116667	1	0.846125
18.133333	1	0.842000
18.150000	1	0.837250
18.166667	1	0.833250
18.183333	1	0.828875
18.200000	1	0.825875
18.216667	1	0.823125
18.233333	1	0.820750
18.250000	1	0.818250
18.266667	1	0.816875
18.283333	1	0.816750
18.300000	1	0.816000
18.316667	1	0.816000
18.333333	1	0.816625
18.350000	1	0.817875
18.366667	1	0.820125
18.383333	1	0.822625
18.400000	1	0.825500
18.416667	1	0.828375
18.433333	1	0.832000
18.450000	1	0.836625
18.466667	1	0.841625
18.483333	1	0.847250
18.500000	1	0.854250
18.516667	1	0.862875
18.533333	1	0.872750
18.550000	1	0.883875
18.566667	1	0.896750
18.583333	1	0.911750
18.600000	1	0.929125
18.616667	1	0.948125
18.633333	1	0.968625
18.650000	1	0.991625
18.666667	1	1.015875
18.683333	1	1.041500
18.700000	1	1.069750
18.716667	1	1.098750
18.733333	1	1.129000
18.750000	1	1.160875
18.766667	1	1.193250
18.783333	1	1.226750
18.800000	1	1.259125
18.816667	1	1.291500
18.833333	1	1.322750
18.850000	1	1.352500
18.866667	1	1.379875
18.883333	1	1.404500
18.900000	1	1.425750
18.916667	1	1.441375
18.933333	1	1.452750
18.950000	1	1.458875
18.966667	1	1.459125
18.983333	1	1.453625
19.000000	1	1.441500
19.016667	1	1.422750
19.033333	1	1.398750
19.050000	1	1.368875
19.066667	1	1.334250
19.083333	1	1.296625
19.100000	1	1.256750
19.116667	1	1.215375
19.133333	1	1.174000
19.150000	1	1.135375
19.166667	1	1.099875
19.183333	1	1.069625
19.200000	1	1.045625
19.216667	1	1.029375
19.233333	1	1.022750
19.250000	1	1.027875
19.266667	1	1.045625
19.283333	1	1.078500
19.300000	1	1.127625
19.316667	1	1.194625
19.333333	1	1.279500
19.350000	1	1.384375
19.366667	1	1.509625
19.383333	1	1.655875
19.400000	1	1.823500
19.416667	1	2.011625
19.433333	1	2.218000
19.450000	1	2.440625
19.466667	1	2.676375
19.483333	1	2.921875
19.500000	1	3.170500
19.516667	1	3.416625
19.533333	1	3.655000
19.550000	1	3.877500
19.566667	1	4.079125
19.583333	1	4.252250
19.600000	1	4.391000
19.616667	1	4.490750
19.633333	1	4.547625
19.650000	1	4.560375
19.666667	1	4.529000
19.683333	1	4.455375
19.700000	1	4.341125
19.716667	1	4.192250
19.733333	1	4.012875
19.750000	1	3.808750
19.766667	1	3.586375
19.783333	1	3.352250
19.800000	1	3.112250
19.816667	1	2.873125
19.833333	1	2.638000
19.850000	1	2.412125
19.866667	1	2.198375
19.883333	1	1.998500
19.900000	1	1.814875
19.916667	1	1.647625
19.933333	1	1.495750
19.950000	1	1.360125
19.966667	1	1.239625
19.983333	1	1.133250
20.000000	1	1.039625
20.016667	1	0.958250
20.033333	1	0.888375
20.050000	1	0.828500
20.066667	1	0.778375
20.083333	1	0.735250
20.100000	1	0.700250
20.116667	1	0.671750
20.133333	1	0.649500
20.150000	1	0.632875
20.166667	1	0.621250
20.183333	1	0.613500
20.200000	1	0.609750
20.216667	1	0.609000
20.233333	1	0.612250
20.250000	1	0.616125
20.266667	1	0.621750
20.283333	1	0.628500
20.300000	1	0.635375
20.316667	1	0.643000
20.333333	1	0.649750
20.350000	1	0.655125
20.366667	1	0.660000
20.383333	1	0.663125
20.400000	1	0.664000
20.416667	1	0.662375
20.433333	1	0.659125
20.450000	1	0.654625
20.466667	1	0.649125
20.483333	1	0.643125
20.500000	1	0.637125
20.516667	1	0.633125
20.533333	1	0.631375
20.550000	1	0.632000
20.566667	1	0.635875
20.583333	1	0.644000
20.600000	1	0.656875
20.616667	1	0.676250
20.633333	1	0.701625
20.650000	1	0.733875
20.666667	1	0.773375
20.683333	1	0.819625
20.700000	1	0.872375
20.716667	1	0.931125
20.733333	1	0.995500
20.750000	1	1.063625
20.766667	1	1.134875
20.783333	1	1.207375
20.800000	1	1.278250
20.816667	1	1.346750
20.833333	1	1.410000
20.850000	1	1.466625
20.866667	1	1.513875
20.883333	1	1.549625
20.900000	1	1.573875
20.916667	1	1.584500
20.933333	1	1.581875
20.950000	1	1.566500
20.966667	1	1.538750
20.983333	1	1.499000
21.000000	1	1.448875
21.016667	1	1.390125
21.033333	1	1.325250
21.050000	1	1.256000
21.066667	1	1.184375
21.083333	1	1.111750
21.100000	1	1.040000
21.116667	1	0.970250
21.133333	1	0.904125
21.150000	1	0.842000
21.166667	1	0.784625
21.183333	1	0.732125
21.200000	1	0.684875
21.216667	1	0.642000
21.233333	1	0.605000
21.250000	1	0.571500
21.266667	1	0.542875
21.283333	1	0.517500
21.300000	1	0.496000
21.316667	1	0.477500
21.333333	1	0.461125
21.350000	1	0.448000
21.366667	1	0.436250
21.383333	1	0.427125
21.400000	1	0.419125
21.416667	1	0.411750
21.433333	1	0.405375
21.450000	1	0.400250
21.466667	1	0.395875
21.483333	1	0.392375
21.500000	1	0.389125
21.516667	1	0.386625
21.533333	1	0.385500
21.550000	1	0.384125
21.566667	1	0.384125
21.583333	1	0.384250
21.600000	1	0.385375
21.616667	1	0.386750
21.633333	1	0.389375
21.650000	1	0.392750
21.666667	1	0.396875
21.683333	1	0.401375
21.700000	1	0.406750
21.716667	1	0.413500
21.733333	1	0.421125
21.750000	1	0.429250
21.766667	1	0.437750
21.783333	1	0.447500
21.800000	1	0.458000
21.816667	1	0.469250
21.833333	1	0.480625
21.850000	1	0.493000
21.866667	1	0.505750
21.883333	1	0.517875
21.900000	1	0.530875
21.916667	1	0.543625
21.933333	1	0.555750
21.950000	1	0.568375
21.966667	1	0.580875
21.983333	1	0.593375
22.000000	1	0.604125
22.016667	1	0.614125
22.033333	1	0.623625
22.050000	1	0.632000
22.066667	1	0.639000
22.083333	1	0.644750
22.100000	1	0.649375
22.116667	1	0.652625
22.133333	1	0.655125
22.150000	1	0.655375
22.166667	1	0.653875
22.183333	1	0.651125
22.200000	1	0.647125
22.216667	1	0.642125
22.233333	1	0.635250
22.250000	1	0.627375
22.266667	1	0.618500
22.283333	1	0.608375
22.300000	1	0.597250
22.316667	1	0.584875
22.333333	1	0.571250
22.350000	1	0.557750
22.366667	1	0.543625
22.383333	1	0.528750
22.400000	1	0.513875
22.416667	1	0.498000
22.433333	1	0.482875
22.450000	1	0.467875
22.466667	1	0.453750
22.483333	1	0.440250
22.500000	1	0.427250
22.516667	1	0.414125
22.533333	1	0.402375
22.550000	1	0.391500
22.566667	1	0.381250
22.583333	1	0.371625
22.600000	1	0.362125
22.616667	1	0.353500
22.633333	1	0.345625
22.650000	1	0.338750
22.666667	1	0.332000
22.683333	1	0.325375
22.700000	1	0.319625
22.716667	1	0.313500
22.733333	1	0.308500
22.750000	1	0.303500
22.766667	1	0.298875
22.783333	1	0.294375
22.800000	1	0.290250
22.816667	1	0.286250
22.833333	1	0.282625
22.850000	1	0.279250
22.866667	1	0.275625
22.883333	1	0.272625
22.900000	1	0.270375
22.916667	1	0.268250
22.933333	1	0.266125
22.950000	1	0.264000
22.966667	1	0.263125
22.983333	1	0.262375
23.000000	1	0.261750
23.016667	1	0.262125
23.033333	1	0.262500
23.050000	1	0.263000
23.066667	1	0.263625
23.083333	1	0.264875
23.100000	1	0.266875
23.116667	1	0.269000
23.133333	1	0.270750
23.150000	1	0.273125
23.166667	1	0.275500
23.183333	1	0.278250
23.200000	1	0.281500
23.216667	1	0.284750
23.233333	1	0.288500
23.250000	1	0.293000
23.266667	1	0.298500
23.283333	1	0.304625
23.300000	1	0.312375
23.316667	1	0.322500
23.333333	1	0.334625
23.350000	1	0.350000
23.366667	1	0.368250
23.383333	1	0.391250
23.400000	1	0.419375
23.416667	1	0.453500
23.433333	1	0.495000
23.450000	1	0.544625
23.466667	1	0.603875
23.483333	1	0.673875
23.500000	1	0.756250
23.516667	1	0.852750
23.533333	1	0.964125
23.550000	1	1.092375
23.566667	1	1.237625
23.583333	1	1.401125
23.600000	1	1.583625
23.616667	1	1.785375
23.633333	1	2.006875
23.650000	1	2.246125
23.666667	1	2.502500
23.683333	1	2.774750
23.700000	1	3.060500
23.716667	1	3.356625
23.733333	1	3.657750
23.750000	1	3.959375
23.766667	1	4.257375
23.783333	1	4.545625
23.800000	1	4.817625
23.816667	1	5.068500
23.833333	1	5.292000
23.850000	1	5.482875
23.866667	1	5.637250
23.883333	1	5.751000
23.900000	1	5.822125
23.916667	1	5.847750
23.933333	1	5.829500
23.950000	1	5.767000
23.966667	1	5.661875
23.983333	1	5.518125
24.000000	1	5.339250
24.016667	1	5.131500
24.033333	1	4.898125
24.050000	1	4.645000
24.066667	1	4.378375
24.083333	1	4.104000
24.100000	1	3.825500
24.116667	1	3.547000
24.133333	1	3.273625
24.150000	1	3.008000
24.166667	1	2.754750
24.183333	1	2.515125
24.200000	1	2.289250
24.216667	1	2.080750
24.233333	1	1.889250
24.250000	1	1.713500
24.266667	1	1.554125
24.283333	1	1.410250
24.300000	1	1.281250
24.316667	1	1.166375
24.333333	1	1.064250
24.350000	1	0.974875
24.366667	1	0.895875
24.383333	1	0.827500
24.400000	1	0.767875
24.416667	1	0.716125
24.433333	1	0.672000
24.450000	1	0.634125
24.466667	1	0.601500
24.483333	1	0.574000
24.500000	1	0.551125
24.516667	1	0.531500
24.533333	1	0.514375
24.550000	1	0.499625
24.566667	1	0.487375
24.583333	1	0.476500
24.600000	1	0.466250
24.616667	1	0.457000
24.633333	1	0.448625
24.650000	1	0.440875
24.666667	1	0.433250
24.683333	1	0.426625
24.700000	1	0.419500
24.716667	1	0.412625
24.733333	1	0.406250
24.750000	1	0.398750
24.766667	1	0.391500
24.783333	1	0.385250
24.800000	1	0.377875
24.816667	1	0.371375
24.833333	1	0.365125
24.850000	1	0.359250
24.866667	1	0.353625
24.883333	1	0.348000
24.900000	1	0.343000
24.916667	1	0.338250
24.933333	1	0.333500
24.950000	1	0.329125
24.966667	1	0.325000
24.983333	1	0.320750
25.000000	1	0.317250
25.016667	1	0.314375
25.033333	1	0.311250
25.050000	1	0.307875
25.066667	1	0.304875
25.083333	1	0.302250
25.100000	1	0.299875
25.116667	1	0.297000
25.133333	1	0.294375
25.150000	1	0.292000
25.166667	1	0.289250
25.183333	1	0.286500
25.200000	1	0.284125
25.216667	1	0.282000
25.233333	1	0.278875
25.250000	1	0.276125
25.266667	1	0.274250
25.283333	1	0.271750
25.300000	1	0.269750
25.316667	1	0.267875
25.333333	1	0.265625
25.350000	1	0.263625
25.366667	1	0.261750
25.383333	1	0.260500
25.400000	1	0.259000
25.416667	1	0.257625
25.433333	1	0.256875
25.450000	1	0.256875
25.466667	1	0.256250
25.483333	1	0.256250
25.500000	1	0.256875
25.516667	1	0.257625
25.533333	1	0.258000
25.550000	1	0.258125
25.566667	1	0.258625
25.583333	1	0.259500
25.600000	1	0.260750
25.616667	1	0.261875
25.633333	1	0.263750
25.650000	1	0.264125
25.666667	1	0.265875
25.683333	1	0.267375
25.700000	1	0.268625
25.716667	1	0.270125
25.733333	1	0.271000
25.750000	1	0.272125
25.766667	1	0.273500
25.783333	1	0.275375
25.800000	1	0.277125
25.816667	1	0.278625
25.833333	1	0.280875
25.850000	1	0.282750
25.866667	1	0.284750
25.883333	1	0.286375
25.900000	1	0.288250
25.916667	1	0.291125
25.933333	1	0.293750
25.950000	1	0.296125
25.966667	1	0.299250
25.983333	1	0.302500
26.000000	1	0.305625
26.016667	1	0.309250
26.033333	1	0.312875
26.050000	1	0.316125
26.066667	1	0.319625
26.083333	1	0.323625
26.100000	1	0.327750
26.116667	1	0.330750
26.133333	1	0.334500
26.150000	1	0.337875
26.166667	1	0.341375
26.183333	1	0.344375
26.200000	1	0.347500
26.216667	1	0.349250
26.233333	1	0.351125
26.250000	1	0.353250
26.266667	1	0.354375
26.283333	1	0.354750
26.300000	1	0.354625
26.316667	1	0.354125
26.333333	1	0.354125
26.350000	1	0.352500
26.366667	1	0.350000
26.383333	1	0.346875
26.400000	1	0.343625
26.416667	1	0.339500
26.433333	1	0.335750
26.450000	1	0.331125
26.466667	1	0.326500
26.483333	1	0.321500
26.500000	1	0.316375
26.516667	1	0.311250
26.533333	1	0.305750
26.550000	1	0.299750
26.566667	1	0.294125
26.583333	1	0.288375
26.600000	1	0.282750
26.616667	1	0.276750
26.633333	1	0.271500
26.650000	1	0.266500
26.666667	1	0.261875
26.683333	1	0.257125
26.700000	1	0.253000
26.716667	1	0.248375
26.733333	1	0.244875
26.750000	1	0.241250
26.766667	1	0.238500
26.783333	1	0.235750
26.800000	1	0.232500
26.816667	1	0.230250
26.833333	1	0.227875
26.850000	1	0.226500
26.866667	1	0.224375
26.883333	1	0.224500
26.900000	1	0.224375
26.916667	1	0.223500
26.933333	1	0.223250
26.950000	1	0.223500
26.966667	1	0.224250
26.983333	1	0.225375
27.000000	1	0.226750
27.016667	1	0.228500
27.033333	1	0.231375
27.050000	1	0.234375
27.066667	1	0.237875
27.083333	1	0.242375
27.100000	1	0.247750
27.116667	1	0.254125
27.133333	1	0.261000
27.150000	1	0.268500
27.166667	1	0.278500
27.183333	1	0.290000
27.200000	1	0.302000
27.216667	1	0.317250
27.233333	1	0.335250
27.250000	1	0.355750
27.266667	1	0.378875
27.283333	1	0.404875
27.300000	1	0.435625
27.316667	1	0.470875
27.333333	1	0.511125
27.350000	1	0.556375
27.366667	1	0.607875
27.383333	1	0.665750
27.400000	1	0.730375
27.416667	1	0.802750
27.433333	1	0.883250
27.450000	1	0.972750
27.466667	1	1.071875
27.483333	1	1.180875
27.500000	1	1.299125
27.516667	1	1.427125
27.533333	1	1.564375
27.550000	1	1.711625
27.566667	1	1.867875
27.583333	1	2.032875
27.600000	1	2.204875
27.616667	1	2.383000
27.633333	1	2.566375
27.650000	1	2.752375
27.666667	1	2.940250
27.683333	1	3.127625
27.700000	1	3.311625
27.716667	1	3.489625
27.733333	1	3.659250
27.750000	1	3.817250
27.766667	1	3.962125
27.783333	1	4.090375
27.800000	1	4.201000
27.816667	1	4.289250
27.833333	1	4.355125
27.850000	1	4.397375
27.866667	1	4.414625
27.883333	1	4.406500
27.900000	1	4.372625
27.916667	1	4.313750
27.933333	1	4.230625
27.950000	1	4.125000
27.966667	1	3.998125
27.983333	1	3.852875
28.000000	1	3.692500
28.016667	1	3.518500
28.033333	1	3.334375
28.050000	1	3.143750
28.066667	1	2.947875
28.083333	1	2.750625
28.100000	1	2.554375
28.116667	1	2.362375
28.133333	1	2.175750
28.150000	1	1.997000
28.166667	1	1.826625
28.183333	1	1.666750
28.200000	1	1.516875
28.216667	1	1.378500
28.233333	1	1.251625
28.250000	1	1.136000
28.266667	1	1.032125
28.283333	1	0.938875
28.300000	1	0.856375
28.316667	1	0.783125
28.333333	1	0.719500
28.350000	1	0.664625
28.366667	1	0.617375
28.383333	1	0.577500
28.400000	1	0.544875
28.416667	1	0.517500
28.433333	1	0.495875
28.450000	1	0.478875
28.466667	1	0.466000
28.483333	1	0.457250
28.500000	1	0.451875
28.516667	1	0.448625
28.533333	1	0.448500
28.550000	1	0.450125
28.566667	1	0.454250
28.583333	1	0.459750
28.600000	1	0.466250
28.616667	1	0.473875
28.633333	1	0.482375
28.650000	1	0.491500
28.666667	1	0.501375
28.683333	1	0.510250
28.700000	1	0.520000
28.716667	1	0.529125
28.733333	1	0.537750
28.750000	1	0.547125
28.766667	1	0.555375
28.783333	1	0.563375
28.800000	1	0.570500
28.816667	1	0.576750
28.833333	1	0.581875
28.850000	1	0.586625
28.866667	1	0.591000
28.883333	1	0.593125
28.900000	1	0.594375
28.916667	1	0.595500
28.933333	1	0.595250
28.950000	1	0.593500
28.966667	1	0.590375
28.983333	1	0.587375
29.000000	1	0.582125
29.016667	1	0.576375
29.033333	1	0.569750
29.050000	1	0.562125
29.066667	1	0.553750
29.083333	1	0.544500
29.100000	1	0.533875
29.116667	1	0.522500
29.133333	1	0.510250
29.150000	1	0.497250
29.166667	1	0.485000
29.183333	1	0.471875
29.200000	1	0.458875
29.216667	1	0.444625
29.233333	1	0.430875
29.250000	1	0.416750
29.266667	1	0.402125
29.283333	1	0.388125
29.300000	1	0.373750
29.316667	1	0.358875
29.333333	1	0.344375
29.350000	1	0.330500
29.366667	1	0.317625
29.383333	1	0.304375
29.400000	1	0.291625
29.416667	1	0.279500
29.433333	1	0.266750
29.450000	1	0.255250
29.466667	1	0.244500
29.483333	1	0.233375
29.500000	1	0.222875
29.516667	1	0.213125
29.533333	1	0.204125
29.550000	1	0.195250
29.566667	1	0.187750
29.583333	1	0.179875
29.600000	1	0.173125
29.616667	1	0.166250
29.633333	1	0.160375
29.650000	1	0.155000
29.666667	1	0.148750
29.683333	1	0.144375
29.700000	1	0.139750
29.716667	1	0.135750
29.733333	1	0.131875
29.750000	1	0.128250
29.766667	1	0.125500
29.783333	1	0.122500
29.800000	1	0.120125
29.816667	1	0.117500
29.833333	1	0.115250
29.850000	1	0.112875
29.866667	1	0.111375
29.883333	1	0.109250
29.900000	1	0.107750
29.916667	1	0.105625
29.933333	1	0.104250
29.950000	1	0.102500
29.966667	1	0.101000
29.983333	1	0.099750
30.000000	1	0.098000
30.016667	1	0.097000
30.033333	1	0.096250
30.050000	1	0.095375
30.066667	1	0.093750
30.083333	1	0.092375
30.100000	1	0.091125
30.116667	1	0.090500
30.133333	1	0.089375
30.150000	1	0.088875
30.166667	1	0.088250
30.183333	1	0.087000
30.200000	1	0.086125
30.216667	1	0.085500
30.233333	1	0.085375
30.250000	1	0.084625
30.266667	1	0.084250
30.283333	1	0.083875
30.300000	1	0.084000
30.316667	1	0.084500
30.333333	1	0.085625
30.350000	1	0.086625
30.366667	1	0.087500
30.383333	1	0.088250
30.400000	1	0.090250
30.416667	1	0.093000
30.433333	1	0.095500
30.450000	1	0.098000
30.466667	1	0.101000
30.483333	1	0.104500
30.500000	1	0.108125
30.516667	1	0.112875
30.533333	1	0.117875
30.550000	1	0.123750
30.566667	1	0.130125
30.583333	1	0.136875
30.600000	1	0.144500
30.616667	1	0.153375
30.633333	1	0.162625
30.650000	1	0.172000
30.666667	1	0.182250
30.683333	1	0.193375
30.700000	1	0.205125
30.716667	1	0.218000
30.733333	1	0.232375
30.750000	1	0.247500
30.766667	1	0.264500
30.783333	1	0.282875
30.800000	1	0.303500
30.816667	1	0.326500
30.833333	1	0.350625
30.850000	1	0.378125
30.866667	1	0.408250
30.883333	1	0.441750
30.900000	1	0.479125
30.916667	1	0.520250
30.933333	1	0.566250
30.950000	1	0.617000
30.966667	1	0.673750
30.983333	1	0.736750
31.000000	1	0.806000
31.016667	1	0.883250
31.033333	1	0.969125
31.050000	1	1.062625
31.066667	1	1.166125
31.083333	1	1.278250
31.100000	1	1.400250
31.116667	1	1.531875
31.133333	1	1.673125
31.150000	1	1.824625
31.166667	1	1.985875
31.183333	1	2.156375
31.200000	1	2.336625
31.216667	1	2.525000
31.233333	1	2.720625
31.250000	1	2.921625
31.266667	1	3.126250
31.283333	1	3.332625
31.300000	1	3.539875
31.316667	1	3.745750
31.333333	1	3.947000
31.350000	1	4.142625
31.366667	1	4.329750
31.383333	1	4.505000
31.400000	1	4.667875
31.416667	1	4.815375
31.433333	1	4.946375
31.450000	1	5.057375
31.466667	1	5.147875
31.483333	1	5.216375
31.500000	1	5.261125
31.516667	1	5.283250
31.533333	1	5.281250
31.550000	1	5.256125
31.566667	1	5.207375
31.583333	1	5.136250
31.600000	1	5.043625
31.616667	1	4.931875
31.633333	1	4.801000
31.650000	1	4.654625
31.666667	1	4.493375
31.683333	1	4.320875
31.700000	1	4.138375
31.716667	1	3.948125
31.733333	1	3.752875
31.750000	1	3.553125
31.766667	1	3.352375
31.783333	1	3.153000
31.800000	1	2.955000
31.816667	1	2.759750
31.833333	1	2.570125
31.850000	1	2.386375
31.866667	1	2.210000
31.883333	1	2.041250
31.900000	1	1.881000
31.916667	1	1.729500
31.933333	1	1.587500
31.950000	1	1.454625
31.966667	1	1.331000
31.983333	1	1.215750
32.000000	1	1.109000
32.016667	1	1.011625
32.033333	1	0.921375
32.050000	1	0.840000
32.066667	1	0.764750
32.083333	1	0.696750
32.100000	1	0.635875
32.116667	1	0.580875
32.133333	1	0.530375
32.150000	1	0.484750
32.166667	1	0.443875
32.183333	1	0.407500
32.200000	1	0.375000
32.216667	1	0.346000
32.233333	1	0.320000
32.250000	1	0.296875
32.266667	1	0.275375
32.283333	1	0.256250
32.300000	1	0.238125
32.316667	1	0.222375
32.333333	1	0.207875
32.350000	1	0.195750
32.366667	1	0.184250
32.383333	1	0.173750
32.400000	1	0.164000
32.416667	1	0.155375
32.433333	1	0.147500
32.450000	1	0.139750
32.466667	1	0.133000
32.483333	1	0.126500
32.500000	1	0.120375
32.516667	1	0.114500
32.533333	1	0.109125
32.550000	1	0.103875
32.566667	1	0.099250
32.583333	1	0.094000
32.600000	1	0.089625
32.616667	1	0.084750
32.633333	1	0.080250
32.650000	1	0.076375
32.666667	1	0.072875
32.683333	1	0.068750
32.700000	1	0.064625
32.716667	1	0.061375
32.733333	1	0.058125
32.750000	1	0.055625
32.766667	1	0.052625
32.783333	1	0.049625
32.800000	1	0.046250
32.816667	1	0.042875
32.833333	1	0.040875
32.850000	1	0.038375
32.866667	1	0.036125
32.883333	1	0.034250
32.900000	1	0.032375
32.916667	1	0.031125
32.933333	1	0.030125
32.950000	1	0.029625
32.966667	1	0.028625
32.983333	1	0.028125
33.000000	1	0.027875
33.016667	1	0.027750
33.033333	1	0.028125
33.050000	1	0.028625
33.066667	1	0.029125
33.083333	1	0.029875
33.100000	1	0.030625
33.116667	1	0.031875
33.133333	1	0.032750
33.150000	1	0.034875
33.166667	1	0.036875
33.183333	1	0.038000
33.200000	1	0.040125
33.216667	1	0.041500
33.233333	1	0.043125
33.250000	1	0.044750
33.266667	1	0.047500
33.283333	1	0.049625
33.300000	1	0.051375
33.316667	1	0.053625
33.333333	1	0.055875
33.350000	1	0.057625
33.366667	1	0.059875
33.383333	1	0.061625
33.400000	1	0.063875
33.416667	1	0.065500
33.433333	1	0.067500
33.450000	1	0.069000
33.466667	1	0.071125
33.483333	1	0.073000
33.500000	1	0.075125
33.516667	1	0.077000
33.533333	1	0.079375
33.550000	1	0.081625
33.566667	1	0.084500
33.583333	1	0.087375
33.600000	1	0.090250
33.616667	1	0.093000
33.633333	1	0.095875
33.650000	1	0.098625
33.666667	1	0.100625
33.683333	1	0.104000
33.700000	1	0.106500
33.716667	1	0.109000
33.733333	1	0.112000
33.750000	1	0.114875
33.766667	1	0.117875
33.783333	1	0.120500
33.800000	1	0.123375
33.816667	1	0.126500
33.833333	1	0.128875
33.850000	1	0.131250
33.866667	1	0.133625
33.883333	1	0.136375
33.900000	1	0.138375
33.916667	1	0.140125
33.933333	1	0.142500
33.950000	1	0.144125
33.966667	1	0.145750
33.983333	1	0.147000
34.000000	1	0.148250
34.016667	1	0.148875
34.033333	1	0.150250
34.050000	1	0.150875
34.066667	1	0.151625
34.083333	1	0.151625
34.100000	1	0.152500
34.116667	1	0.152500
34.133333	1	0.152250
34.150000	1	0.152250
34.166667	1	0.151625
34.183333	1	0.151500
34.200000	1	0.151750
34.216667	1	0.151375
34.233333	1	0.151125
34.250000	1	0.151375
34.266667	1	0.151875
34.283333	1	0.151750
34.300000	1	0.152125
34.316667	1	0.152375
34.333333	1	0.152125
34.350000	1	0.152500
34.366667	1	0.153125
34.383333	1	0.153750
34.400000	1	0.154250
34.416667	1	0.154250
34.433333	1	0.154500
34.450000	1	0.154750
34.466667	1	0.155750
34.483333	1	0.156625
34.500000	1	0.156625
34.516667	1	0.157375
34.533333	1	0.157625
34.550000	1	0.158250
34.566667	1	0.158625
34.583333	1	0.159125
34.600000	1	0.160000
34.616667	1	0.160125
34.633333	1	0.160000
34.650000	1	0.160375
34.666667	1	0.160500
34.683333	1	0.160125
34.700000	1	0.159625
34.716667	1	0.159625
34.733333	1	0.159375
34.750000	1	0.158875
34.766667	1	0.158875
34.783333	1	0.158000
34.800000	1	0.157875
34.816667	1	0.157250
34.833333	1	0.156250
34.850000	1	0.155125
34.866667	1	0.154375
34.883333	1	0.153500
34.900000	1	0.153125
34.916667	1	0.152625
34.933333	1	0.151875
34.950000	1	0.151625
34.966667	1	0.151375
34.983333	1	0.151125
35.000000	1	0.150875
35.016667	1	0.149875
35.033333	1	0.149500
35.050000	1	0.149375
35.066667	1	0.149125
35.083333	1	0.149250
35.100000	1	0.148125
35.116667	1	0.148250
35.133333	1	0.148875
35.150000	1	0.149500
35.166667	1	0.149250
35.183333	1	0.149500
35.200000	1	0.150000
35.216667	1	0.149875
35.233333	1	0.150000
35.250000	1	0.150250
35.266667	1	0.150750
35.283333	1	0.151125
35.300000	1	0.151250
35.316667	1	0.152250
35.333333	1	0.152500
35.350000	1	0.153375
35.366667	1	0.153375
35.383333	1	0.153625
35.400000	1	0.154250
35.416667	1	0.155375
35.433333	1	0.156125
35.450000	1	0.156500
35.466667	1	0.157375
35.483333	1	0.157500
35.500000	1	0.158500
35.516667	1	0.159375
35.533333	1	0.160250
35.550000	1	0.160500
35.566667	1	0.161625
35.583333	1	0.162750
35.600000	1	0.163250
35.616667	1	0.163375
35.633333	1	0.163750
35.650000	1	0.164000
35.666667	1	0.163750
35.683333	1	0.163875
35.700000	1	0.164000
35.716667	1	0.163375
35.733333	1	0.162750
35.750000	1	0.161500
35.766667	1	0.160500
35.783333	1	0.160125
35.800000	1	0.158375
35.816667	1	0.156500
35.833333	1	0.154375
35.850000	1	0.152500
35.866667	1	0.150125
35.883333	1	0.147750
35.900000	1	0.144750
35.916667	1	0.142750
35.933333	1	0.140250
35.950000	1	0.137750
35.966667	1	0.134375
35.983333	1	0.131500
36.000000	1	0.127875
36.016667	1	0.124750
36.033333	1	0.121875
36.050000	1	0.119125
36.066667	1	0.116625
36.083333	1	0.113625
36.100000	1	0.111125
36.116667	1	0.108875
36.133333	1	0.106750
36.150000	1	0.103875
36.166667	1	0.101625
36.183333	1	0.098500
36.200000	1	0.096000
36.216667	1	0.093500
36.233333	1	0.091875
36.250000	1	0.089750
36.266667	1	0.088125
36.283333	1	0.085750
36.300000	1	0.084500
36.316667	1	0.083250
36.333333	1	0.081375
36.350000	1	0.079625
36.366667	1	0.078000
36.383333	1	0.075875
36.400000	1	0.074125
36.416667	1	0.072375
36.433333	1	0.070625
36.450000	1	0.068875
36.466667	1	0.066875
36.483333	1	0.064875
36.500000	1	0.063000
36.516667	1	0.060500
36.533333	1	0.058000
36.550000	1	0.055875
36.566667	1	0.053750
36.583333	1	0.051625
36.600000	1	0.049875
36.616667	1	0.047750
36.633333	1	0.045125
36.650000	1	0.043250
36.666667	1	0.040375
36.683333	1	0.038250
36.700000	1	0.036375
36.716667	1	0.035125
36.733333	1	0.033875
36.750000	1	0.032125
36.766667	1	0.031125
36.783333	1	0.030125
36.800000	1	0.028625
36.816667	1	0.027750
36.833333	1	0.027125
36.850000	1	0.026875
36.866667	1	0.026500
36.883333	1	0.027125
36.900000	1	0.027250
36.916667	1	0.027625
36.933333	1	0.028000
36.950000	1	0.028875
36.966667	1	0.029875
36.983333	1	0.031250
37.000000	1	0.033125
37.016667	1	0.034875
37.033333	1	0.036500
37.050000	1	0.038500
37.066667	1	0.040500
37.083333	1	0.042125
37.100000	1	0.044250
37.116667	1	0.046500
37.133333	1	0.048625
37.150000	1	0.050875
37.166667	1	0.052875
37.183333	1	0.055750
37.200000	1	0.058500
37.216667	1	0.061000
37.233333	1	0.064000
37.250000	1	0.067000
37.266667	1	0.069375
37.283333	1	0.071500
37.300000	1	0.073500
37.316667	1	0.076000
37.333333	1	0.079250
37.350000	1	0.081875
37.366667	1	0.083750
37.383333	1	0.086875
37.400000	1	0.089000
37.416667	1	0.091000
37.433333	1	0.093125
37.450000	1	0.095500
37.466667	1	0.097750
37.483333	1	0.100125
37.500000	1	0.101625
37.516667	1	0.103375
37.533333	1	0.105000
37.550000	1	0.105875
37.566667	1	0.107000
37.583333	1	0.107375
37.600000	1	0.108000
37.616667	1	0.108375
37.633333	1	0.108375
37.650000	1	0.108375
37.666667	1	0.108250
37.683333	1	0.107375
37.700000	1	0.106250
37.716667	1	0.105750
37.733333	1	0.104500
37.750000	1	0.102500
37.766667	1	0.100875
37.783333	1	0.099125
37.800000	1	0.097125
37.816667	1	0.095250
37.833333	1	0.092750
37.850000	1	0.089750
37.866667	1	0.087500
37.883333	1	0.085125
37.900000	1	0.083000
37.916667	1	0.081000
37.933333	1	0.078625
37.950000	1	0.075875
37.966667	1	0.073250
37.983333	1	0.070250
38.000000	1	0.067500
38.016667	1	0.065125
38.033333	1	0.063000
38.050000	1	0.060250
38.066667	1	0.058125
38.083333	1	0.056750
38.100000	1	0.055125
38.116667	1	0.053250
38.133333	1	0.051500
38.150000	1	0.049375
38.166667	1	0.047750
38.183333	1	0.045625
38.200000	1	0.044375
38.216667	1	0.042625
38.233333	1	0.041375
38.250000	1	0.039750
38.266667	1	0.038750
38.283333	1	0.037750
38.300000	1	0.036375
38.316667	1	0.035625
38.333333	1	0.034750
38.350000	1	0.033625
38.366667	1	0.032875
38.383333	1	0.032625
38.400000	1	0.031375
38.416667	1	0.030750
38.433333	1	0.030250
38.450000	1	0.029375
38.466667	1	0.028875
38.483333	1	0.028500
38.500000	1	0.027750
38.516667	1	0.027250
38.533333	1	0.027000
38.550000	1	0.027000
38.566667	1	0.026500
38.583333	1	0.025750
38.600000	1	0.026000
38.616667	1	0.025000
38.633333	1	0.024750
38.650000	1	0.024250
38.666667	1	0.023625
38.683333	1	0.023750
38.700000	1	0.023250
38.716667	1	0.023125
38.733333	1	0.023125
38.750000	1	0.023750
38.766667	1	0.022875
38.783333	1	0.022625
38.800000	1	0.022500
38.816667	1	0.022875
38.833333	1	0.022250
38.850000	1	0.022125
38.866667	1	0.022250
38.883333	1	0.022125
38.900000	1	0.021625
38.916667	1	0.021750
38.933333	1	0.022125
38.950000	1	0.022375
38.966667	1	0.021875
38.983333	1	0.022000
39.000000	1	0.022000
39.016667	1	0.022250
39.033333	1	0.022625
39.050000	1	0.022375
39.066667	1	0.022625
39.083333	1	0.022750
39.100000	1	0.023625
39.116667	1	0.024125
39.133333	1	0.024125
39.150000	1	0.024500
39.166667	1	0.025750
39.183333	1	0.025750
39.200000	1	0.026500
39.216667	1	0.027125
39.233333	1	0.027500
39.250000	1	0.027375
39.266667	1	0.027500
39.283333	1	0.027625
39.300000	1	0.027250
39.316667	1	0.027250
39.333333	1	0.026875
39.350000	1	0.026500
39.366667	1	0.026000
39.383333	1	0.025000
39.400000	1	0.023750
39.416667	1	0.023125
39.433333	1	0.022125
39.450000	1	0.021750
39.466667	1	0.020250
39.483333	1	0.019125
39.500000	1	0.018000
39.516667	1	0.016500
39.533333	1	0.015125
39.550000	1	0.014250
39.566667	1	0.012875
39.583333	1	0.012000
39.600000	1	0.010750
39.616667	1	0.009625
39.633333	1	0.009125
39.650000	1	0.008000
39.666667	1	0.008375
39.683333	1	0.008125
39.700000	1	0.008250
39.716667	1	0.008125
39.733333	1	0.007750
39.750000	1	0.007375
39.766667	1	0.007625
39.783333	1	0.008500
39.800000	1	0.008500
39.816667	1	0.009250
39.833333	1	0.010875
39.850000	1	0.011375
39.866667	1	0.012125
39.883333	1	0.013125
39.900000	1	0.014250
39.916667	1	0.015125
39.933333	1	0.016250
39.950000	1	0.017125
39.966667	1	0.018000
39.983333	1	0.019375
40.000000	1	0.020250
