URL	chrom://bioreactor/micro_cm7/HPLC_Ultimate_3000/Users/markusar/20240716_MA_pHrange2.seq/740.smp/RI_1.channel/RI_1.chm
Channel	RI_1

Injection Information:
Data Vault	micro_cm7
Sequence	20240716_MA_pHrange2
Name	Pv1_40H_4
Number	17
Position	BB5
Comment	
Processing Method	
Instrument Method	run_25B_method
Type	Unknown
Status	Finished
Inject Time	17.07.2024 05:02:00 +02:00
Volume (µl)	20.0000
Dilution Factor	1.0000
Weight	1.0000

Chromatogram Data Information:
Time Min. (min)	0.000000
Time Max. (min)	40.000000
Data Points	2401
Detector	RI
Generating Data System	Chromeleon 7.3.2.11814
Exporting Data System	Chromeleon 7.3.2.0
Operator	Instrument Controller
Signal Quantity	Refractive 
Signal Unit	µRIU
Signal Min.	-0.227375
Signal Max.	105.389875
Channel	RI_1
Driver Name	RID520Driver.dll
Channel Type	Evaluation
Min. Step (s)	1
Max. Step (s)	1
Average Step (s)	1

Signal Parameter Information:
Signal Info	

Chromatogram Data:
Time (min)	Step (s)	Value (µRIU)
0.000000	n.a.	-0.010750
0.016667	1	-0.013875
0.033333	1	-0.016875
0.050000	1	-0.019750
0.066667	1	-0.022500
0.083333	1	-0.025125
0.100000	1	-0.027875
0.116667	1	-0.030125
0.133333	1	-0.031375
0.150000	1	-0.033250
0.166667	1	-0.035375
0.183333	1	-0.036625
0.200000	1	-0.038125
0.216667	1	-0.039125
0.233333	1	-0.039375
0.250000	1	-0.041000
0.266667	1	-0.041000
0.283333	1	-0.041000
0.300000	1	-0.041000
0.316667	1	-0.041375
0.333333	1	-0.040750
0.350000	1	-0.040750
0.366667	1	-0.040250
0.383333	1	-0.039250
0.400000	1	-0.039375
0.416667	1	-0.038750
0.433333	1	-0.037250
0.450000	1	-0.034375
0.466667	1	-0.031500
0.483333	1	-0.028125
0.500000	1	-0.025750
0.516667	1	-0.024500
0.533333	1	-0.022500
0.550000	1	-0.021125
0.566667	1	-0.020875
0.583333	1	-0.020750
0.600000	1	-0.019875
0.616667	1	-0.019500
0.633333	1	-0.018750
0.650000	1	-0.017250
0.666667	1	-0.016000
0.683333	1	-0.013750
0.700000	1	-0.012750
0.716667	1	-0.010750
0.733333	1	-0.009500
0.750000	1	-0.008500
0.766667	1	-0.006875
0.783333	1	-0.004750
0.800000	1	-0.003000
0.816667	1	-0.002125
0.833333	1	-0.001000
0.850000	1	0.000625
0.866667	1	0.000875
0.883333	1	0.002125
0.900000	1	0.004250
0.916667	1	0.006125
0.933333	1	0.006875
0.950000	1	0.007375
0.966667	1	0.008375
0.983333	1	0.008875
1.000000	1	0.009750
1.016667	1	0.010625
1.033333	1	0.011500
1.050000	1	0.013125
1.066667	1	0.013625
1.083333	1	0.014875
1.100000	1	0.015500
1.116667	1	0.015125
1.133333	1	0.015625
1.150000	1	0.016250
1.166667	1	0.016625
1.183333	1	0.016625
1.200000	1	0.016750
1.216667	1	0.017000
1.233333	1	0.016875
1.250000	1	0.016375
1.266667	1	0.016375
1.283333	1	0.016250
1.300000	1	0.015875
1.316667	1	0.015125
1.333333	1	0.014625
1.350000	1	0.014125
1.366667	1	0.013250
1.383333	1	0.012625
1.400000	1	0.011750
1.416667	1	0.010625
1.433333	1	0.010500
1.450000	1	0.009375
1.466667	1	0.008375
1.483333	1	0.007750
1.500000	1	0.006875
1.516667	1	0.005875
1.533333	1	0.005625
1.550000	1	0.004750
1.566667	1	0.003250
1.583333	1	0.001750
1.600000	1	0.000375
1.616667	1	-0.000250
1.633333	1	-0.001625
1.650000	1	-0.002625
1.666667	1	-0.004125
1.683333	1	-0.005125
1.700000	1	-0.006250
1.716667	1	-0.007500
1.733333	1	-0.009125
1.750000	1	-0.010125
1.766667	1	-0.011500
1.783333	1	-0.012750
1.800000	1	-0.013875
1.816667	1	-0.015000
1.833333	1	-0.015125
1.850000	1	-0.016875
1.866667	1	-0.018000
1.883333	1	-0.018875
1.900000	1	-0.019625
1.916667	1	-0.021250
1.933333	1	-0.022125
1.950000	1	-0.022875
1.966667	1	-0.024250
1.983333	1	-0.024875
2.000000	1	-0.025875
2.016667	1	-0.026875
2.033333	1	-0.028000
2.050000	1	-0.028375
2.066667	1	-0.029000
2.083333	1	-0.029250
2.100000	1	-0.030500
2.116667	1	-0.031250
2.133333	1	-0.031875
2.150000	1	-0.033000
2.166667	1	-0.033000
2.183333	1	-0.033750
2.200000	1	-0.034750
2.216667	1	-0.034750
2.233333	1	-0.034500
2.250000	1	-0.034500
2.266667	1	-0.034125
2.283333	1	-0.034875
2.300000	1	-0.035125
2.316667	1	-0.035250
2.333333	1	-0.035750
2.350000	1	-0.036000
2.366667	1	-0.036000
2.383333	1	-0.036000
2.400000	1	-0.036375
2.416667	1	-0.036375
2.433333	1	-0.036250
2.450000	1	-0.036250
2.466667	1	-0.035625
2.483333	1	-0.035625
2.500000	1	-0.035125
2.516667	1	-0.035375
2.533333	1	-0.035250
2.550000	1	-0.035500
2.566667	1	-0.035500
2.583333	1	-0.036000
2.600000	1	-0.035875
2.616667	1	-0.035625
2.633333	1	-0.035250
2.650000	1	-0.035250
2.666667	1	-0.034875
2.683333	1	-0.034625
2.700000	1	-0.035000
2.716667	1	-0.035000
2.733333	1	-0.035125
2.750000	1	-0.035125
2.766667	1	-0.035000
2.783333	1	-0.034625
2.800000	1	-0.034250
2.816667	1	-0.033875
2.833333	1	-0.033000
2.850000	1	-0.032125
2.866667	1	-0.032000
2.883333	1	-0.031875
2.900000	1	-0.031375
2.916667	1	-0.030375
2.933333	1	-0.029500
2.950000	1	-0.028250
2.966667	1	-0.027250
2.983333	1	-0.026500
3.000000	1	-0.025250
3.016667	1	-0.023500
3.033333	1	-0.022375
3.050000	1	-0.020500
3.066667	1	-0.018875
3.083333	1	-0.017125
3.100000	1	-0.015375
3.116667	1	-0.013750
3.133333	1	-0.011500
3.150000	1	-0.009250
3.166667	1	-0.006875
3.183333	1	-0.004500
3.200000	1	-0.002875
3.216667	1	0.000125
3.233333	1	0.002125
3.250000	1	0.004375
3.266667	1	0.006500
3.283333	1	0.008750
3.300000	1	0.011375
3.316667	1	0.014125
3.333333	1	0.017000
3.350000	1	0.019125
3.366667	1	0.021500
3.383333	1	0.023750
3.400000	1	0.026250
3.416667	1	0.029125
3.433333	1	0.032000
3.450000	1	0.034375
3.466667	1	0.037000
3.483333	1	0.039875
3.500000	1	0.042500
3.516667	1	0.044500
3.533333	1	0.046000
3.550000	1	0.049000
3.566667	1	0.051250
3.583333	1	0.053375
3.600000	1	0.056250
3.616667	1	0.058875
3.633333	1	0.060750
3.650000	1	0.063125
3.666667	1	0.065750
3.683333	1	0.067875
3.700000	1	0.069500
3.716667	1	0.071375
3.733333	1	0.073375
3.750000	1	0.074000
3.766667	1	0.075875
3.783333	1	0.076375
3.800000	1	0.077625
3.816667	1	0.079125
3.833333	1	0.080125
3.850000	1	0.081125
3.866667	1	0.081250
3.883333	1	0.082125
3.900000	1	0.082625
3.916667	1	0.082625
3.933333	1	0.083250
3.950000	1	0.082625
3.966667	1	0.082625
3.983333	1	0.083375
4.000000	1	0.083750
4.016667	1	0.083125
4.033333	1	0.082750
4.050000	1	0.082625
4.066667	1	0.081375
4.083333	1	0.080375
4.100000	1	0.079750
4.116667	1	0.078875
4.133333	1	0.078375
4.150000	1	0.078125
4.166667	1	0.077125
4.183333	1	0.077125
4.200000	1	0.077250
4.216667	1	0.077625
4.233333	1	0.078500
4.250000	1	0.078750
4.266667	1	0.079500
4.283333	1	0.080250
4.300000	1	0.081000
4.316667	1	0.082000
4.333333	1	0.082875
4.350000	1	0.083875
4.366667	1	0.085125
4.383333	1	0.086250
4.400000	1	0.087375
4.416667	1	0.089500
4.433333	1	0.091250
4.450000	1	0.093750
4.466667	1	0.095875
4.483333	1	0.098250
4.500000	1	0.100000
4.516667	1	0.102125
4.533333	1	0.104875
4.550000	1	0.107250
4.566667	1	0.109875
4.583333	1	0.112625
4.600000	1	0.115375
4.616667	1	0.117625
4.633333	1	0.120625
4.650000	1	0.123625
4.666667	1	0.126375
4.683333	1	0.129000
4.700000	1	0.131750
4.716667	1	0.134875
4.733333	1	0.137875
4.750000	1	0.139875
4.766667	1	0.142000
4.783333	1	0.144500
4.800000	1	0.147250
4.816667	1	0.149625
4.833333	1	0.152750
4.850000	1	0.155000
4.866667	1	0.157250
4.883333	1	0.159375
4.900000	1	0.161750
4.916667	1	0.163750
4.933333	1	0.165750
4.950000	1	0.168250
4.966667	1	0.170375
4.983333	1	0.172875
5.000000	1	0.174500
5.016667	1	0.176750
5.033333	1	0.178000
5.050000	1	0.180000
5.066667	1	0.182125
5.083333	1	0.183500
5.100000	1	0.185375
5.116667	1	0.186875
5.133333	1	0.189000
5.150000	1	0.190625
5.166667	1	0.192375
5.183333	1	0.193875
5.200000	1	0.195250
5.216667	1	0.196125
5.233333	1	0.196750
5.250000	1	0.197375
5.266667	1	0.198750
5.283333	1	0.199500
5.300000	1	0.200500
5.316667	1	0.200875
5.333333	1	0.201125
5.350000	1	0.201000
5.366667	1	0.201500
5.383333	1	0.201250
5.400000	1	0.201250
5.416667	1	0.201000
5.433333	1	0.200125
5.450000	1	0.199000
5.466667	1	0.197500
5.483333	1	0.195750
5.500000	1	0.193625
5.516667	1	0.191625
5.533333	1	0.189375
5.550000	1	0.187000
5.566667	1	0.184000
5.583333	1	0.181625
5.600000	1	0.178375
5.616667	1	0.174625
5.633333	1	0.171500
5.650000	1	0.168875
5.666667	1	0.164875
5.683333	1	0.160875
5.700000	1	0.157375
5.716667	1	0.153625
5.733333	1	0.149125
5.750000	1	0.144875
5.766667	1	0.140125
5.783333	1	0.136000
5.800000	1	0.131375
5.816667	1	0.127375
5.833333	1	0.122875
5.850000	1	0.118250
5.866667	1	0.114250
5.883333	1	0.110500
5.900000	1	0.106375
5.916667	1	0.103250
5.933333	1	0.100000
5.950000	1	0.096250
5.966667	1	0.093125
5.983333	1	0.089625
6.000000	1	0.086750
6.016667	1	0.083375
6.033333	1	0.080625
6.050000	1	0.077125
6.066667	1	0.074500
6.083333	1	0.071750
6.100000	1	0.069250
6.116667	1	0.066500
6.133333	1	0.064875
6.150000	1	0.062250
6.166667	1	0.060750
6.183333	1	0.059125
6.200000	1	0.058000
6.216667	1	0.056125
6.233333	1	0.054875
6.250000	1	0.053125
6.266667	1	0.051875
6.283333	1	0.051500
6.300000	1	0.050375
6.316667	1	0.049875
6.333333	1	0.049250
6.350000	1	0.048875
6.366667	1	0.048750
6.383333	1	0.048500
6.400000	1	0.047875
6.416667	1	0.048000
6.433333	1	0.048125
6.450000	1	0.048750
6.466667	1	0.049125
6.483333	1	0.049875
6.500000	1	0.050500
6.516667	1	0.051625
6.533333	1	0.052500
6.550000	1	0.053250
6.566667	1	0.054500
6.583333	1	0.055500
6.600000	1	0.057000
6.616667	1	0.057625
6.633333	1	0.058625
6.650000	1	0.059750
6.666667	1	0.061250
6.683333	1	0.061750
6.700000	1	0.063000
6.716667	1	0.064125
6.733333	1	0.065125
6.750000	1	0.066250
6.766667	1	0.067375
6.783333	1	0.068750
6.800000	1	0.070000
6.816667	1	0.071500
6.833333	1	0.072500
6.850000	1	0.073000
6.866667	1	0.074250
6.883333	1	0.075250
6.900000	1	0.076375
6.916667	1	0.077375
6.933333	1	0.078250
6.950000	1	0.079000
6.966667	1	0.079875
6.983333	1	0.080750
7.000000	1	0.081500
7.016667	1	0.082375
7.033333	1	0.084000
7.050000	1	0.084750
7.066667	1	0.086250
7.083333	1	0.087250
7.100000	1	0.087750
7.116667	1	0.089125
7.133333	1	0.090000
7.150000	1	0.090750
7.166667	1	0.091750
7.183333	1	0.093250
7.200000	1	0.094625
7.216667	1	0.095750
7.233333	1	0.097250
7.250000	1	0.099000
7.266667	1	0.099625
7.283333	1	0.100375
7.300000	1	0.101125
7.316667	1	0.102500
7.333333	1	0.102875
7.350000	1	0.103625
7.366667	1	0.104875
7.383333	1	0.105125
7.400000	1	0.105875
7.416667	1	0.105500
7.433333	1	0.105375
7.450000	1	0.105625
7.466667	1	0.104750
7.483333	1	0.103750
7.500000	1	0.102625
7.516667	1	0.101125
7.533333	1	0.099375
7.550000	1	0.097375
7.566667	1	0.095375
7.583333	1	0.093375
7.600000	1	0.091625
7.616667	1	0.089125
7.633333	1	0.086625
7.650000	1	0.083625
7.666667	1	0.080500
7.683333	1	0.077250
7.700000	1	0.074250
7.716667	1	0.071250
7.733333	1	0.067750
7.750000	1	0.064500
7.766667	1	0.061500
7.783333	1	0.058750
7.800000	1	0.055500
7.816667	1	0.052250
7.833333	1	0.048875
7.850000	1	0.045500
7.866667	1	0.042000
7.883333	1	0.038500
7.900000	1	0.035125
7.916667	1	0.032250
7.933333	1	0.029500
7.950000	1	0.027375
7.966667	1	0.024375
7.983333	1	0.021625
8.000000	1	0.019250
8.016667	1	0.016875
8.033333	1	0.014250
8.050000	1	0.011625
8.066667	1	0.010000
8.083333	1	0.008625
8.100000	1	0.007000
8.116667	1	0.005125
8.133333	1	0.004000
8.150000	1	0.003250
8.166667	1	0.002250
8.183333	1	0.001375
8.200000	1	0.000500
8.216667	1	-0.000500
8.233333	1	-0.001625
8.250000	1	-0.002625
8.266667	1	-0.003000
8.283333	1	-0.002875
8.300000	1	-0.003625
8.316667	1	-0.003625
8.333333	1	-0.004000
8.350000	1	-0.004125
8.366667	1	-0.004250
8.383333	1	-0.004375
8.400000	1	-0.005125
8.416667	1	-0.005875
8.433333	1	-0.006500
8.450000	1	-0.006750
8.466667	1	-0.006750
8.483333	1	-0.007375
8.500000	1	-0.008125
8.516667	1	-0.008750
8.533333	1	-0.010250
8.550000	1	-0.011125
8.566667	1	-0.012000
8.583333	1	-0.012750
8.600000	1	-0.013625
8.616667	1	-0.014375
8.633333	1	-0.015375
8.650000	1	-0.016625
8.666667	1	-0.017500
8.683333	1	-0.018250
8.700000	1	-0.018875
8.716667	1	-0.019625
8.733333	1	-0.021250
8.750000	1	-0.022000
8.766667	1	-0.022875
8.783333	1	-0.023250
8.800000	1	-0.024000
8.816667	1	-0.024000
8.833333	1	-0.024000
8.850000	1	-0.025125
8.866667	1	-0.024500
8.883333	1	-0.024125
8.900000	1	-0.024250
8.916667	1	-0.023875
8.933333	1	-0.023375
8.950000	1	-0.022500
8.966667	1	-0.021625
8.983333	1	-0.020250
9.000000	1	-0.018250
9.016667	1	-0.017000
9.033333	1	-0.015750
9.050000	1	-0.014250
9.066667	1	-0.012000
9.083333	1	-0.010625
9.100000	1	-0.008625
9.116667	1	-0.006125
9.133333	1	-0.004125
9.150000	1	-0.002875
9.166667	1	-0.001000
9.183333	1	0.001000
9.200000	1	0.003000
9.216667	1	0.004875
9.233333	1	0.006875
9.250000	1	0.009125
9.266667	1	0.010375
9.283333	1	0.012125
9.300000	1	0.013500
9.316667	1	0.014875
9.333333	1	0.015000
9.350000	1	0.015625
9.366667	1	0.015875
9.383333	1	0.016625
9.400000	1	0.017500
9.416667	1	0.017500
9.433333	1	0.017375
9.450000	1	0.016375
9.466667	1	0.016000
9.483333	1	0.015250
9.500000	1	0.014875
9.516667	1	0.014000
9.533333	1	0.012875
9.550000	1	0.011375
9.566667	1	0.010375
9.583333	1	0.009000
9.600000	1	0.007625
9.616667	1	0.005250
9.633333	1	0.003250
9.650000	1	0.001000
9.666667	1	-0.001250
9.683333	1	-0.003625
9.700000	1	-0.004625
9.716667	1	-0.006625
9.733333	1	-0.008750
9.750000	1	-0.010250
9.766667	1	-0.012250
9.783333	1	-0.014000
9.800000	1	-0.016000
9.816667	1	-0.018625
9.833333	1	-0.020375
9.850000	1	-0.022125
9.866667	1	-0.023875
9.883333	1	-0.025250
9.900000	1	-0.026125
9.916667	1	-0.027250
9.933333	1	-0.029000
9.950000	1	-0.029750
9.966667	1	-0.030125
9.983333	1	-0.030500
10.000000	1	-0.030875
10.016667	1	-0.030875
10.033333	1	-0.029875
10.050000	1	-0.028500
10.066667	1	-0.026500
10.083333	1	-0.023375
10.100000	1	-0.020000
10.116667	1	-0.015625
10.133333	1	-0.010125
10.150000	1	-0.004875
10.166667	1	0.001375
10.183333	1	0.009750
10.200000	1	0.018875
10.216667	1	0.028375
10.233333	1	0.039125
10.250000	1	0.051625
10.266667	1	0.064875
10.283333	1	0.079875
10.300000	1	0.096375
10.316667	1	0.113375
10.333333	1	0.131250
10.350000	1	0.147250
10.366667	1	0.160125
10.383333	1	0.165625
10.400000	1	0.159125
10.416667	1	0.134750
10.433333	1	0.089625
10.450000	1	0.021000
10.466667	1	-0.065375
10.483333	1	-0.155125
10.500000	1	-0.222125
10.516667	1	-0.227375
10.533333	1	-0.118750
10.550000	1	0.168625
10.566667	1	0.704500
10.583333	1	1.558750
10.600000	1	2.797750
10.616667	1	4.480500
10.633333	1	6.652375
10.650000	1	9.343375
10.666667	1	12.578125
10.683333	1	16.371125
10.700000	1	20.724500
10.716667	1	25.631875
10.733333	1	31.075250
10.750000	1	37.031500
10.766667	1	43.456000
10.783333	1	50.307750
10.800000	1	57.537375
10.816667	1	65.072125
10.833333	1	72.801500
10.850000	1	80.561875
10.866667	1	88.112625
10.883333	1	95.057625
10.900000	1	100.802000
10.916667	1	104.540375
10.933333	1	105.389875
10.950000	1	102.657000
10.966667	1	96.192750
10.983333	1	86.560875
11.000000	1	74.916125
11.016667	1	62.634750
11.033333	1	50.909250
11.050000	1	40.500750
11.066667	1	31.734000
11.083333	1	24.628625
11.100000	1	19.027375
11.116667	1	14.701375
11.133333	1	11.411000
11.150000	1	8.934875
11.166667	1	7.086125
11.183333	1	5.707875
11.200000	1	4.680250
11.216667	1	3.909625
11.233333	1	3.326750
11.250000	1	2.882750
11.266667	1	2.538875
11.283333	1	2.269500
11.300000	1	2.055375
11.316667	1	1.881625
11.333333	1	1.739000
11.350000	1	1.620875
11.366667	1	1.521250
11.383333	1	1.437000
11.400000	1	1.366000
11.416667	1	1.305000
11.433333	1	1.252750
11.450000	1	1.207375
11.466667	1	1.169125
11.483333	1	1.135875
11.500000	1	1.108000
11.516667	1	1.084500
11.533333	1	1.064250
11.550000	1	1.047125
11.566667	1	1.032250
11.583333	1	1.020125
11.600000	1	1.009875
11.616667	1	1.001375
11.633333	1	0.995000
11.650000	1	0.990000
11.666667	1	0.986375
11.683333	1	0.984250
11.700000	1	0.983750
11.716667	1	0.984625
11.733333	1	0.986625
11.750000	1	0.990000
11.766667	1	0.994250
11.783333	1	0.999625
11.800000	1	1.006000
11.816667	1	1.012375
11.833333	1	1.019250
11.850000	1	1.026125
11.866667	1	1.033000
11.883333	1	1.040125
11.900000	1	1.045375
11.916667	1	1.049750
11.933333	1	1.053000
11.950000	1	1.055750
11.966667	1	1.056625
11.983333	1	1.056125
12.000000	1	1.054625
12.016667	1	1.052875
12.033333	1	1.051000
12.050000	1	1.047750
12.066667	1	1.045000
12.083333	1	1.042625
12.100000	1	1.040125
12.116667	1	1.038000
12.133333	1	1.036500
12.150000	1	1.034875
12.166667	1	1.034250
12.183333	1	1.034500
12.200000	1	1.035250
12.216667	1	1.037125
12.233333	1	1.039875
12.250000	1	1.045250
12.266667	1	1.052125
12.283333	1	1.061000
12.300000	1	1.073375
12.316667	1	1.089750
12.333333	1	1.111625
12.350000	1	1.141250
12.366667	1	1.180500
12.383333	1	1.232750
12.400000	1	1.301375
12.416667	1	1.389125
12.433333	1	1.502625
12.450000	1	1.644250
12.466667	1	1.821125
12.483333	1	2.038875
12.500000	1	2.301875
12.516667	1	2.613625
12.533333	1	2.978375
12.550000	1	3.398125
12.566667	1	3.874500
12.583333	1	4.405250
12.600000	1	4.984500
12.616667	1	5.607625
12.633333	1	6.265000
12.650000	1	6.946750
12.666667	1	7.639875
12.683333	1	8.333250
12.700000	1	9.013625
12.716667	1	9.671750
12.733333	1	10.299000
12.750000	1	10.892250
12.766667	1	11.451000
12.783333	1	11.980250
12.800000	1	12.485500
12.816667	1	12.975750
12.833333	1	13.462250
12.850000	1	13.954500
12.866667	1	14.460500
12.883333	1	14.987750
12.900000	1	15.542000
12.916667	1	16.127750
12.933333	1	16.745000
12.950000	1	17.395250
12.966667	1	18.077000
12.983333	1	18.790000
13.000000	1	19.531625
13.016667	1	20.299875
13.033333	1	21.094625
13.050000	1	21.914625
13.066667	1	22.758500
13.083333	1	23.624750
13.100000	1	24.512875
13.116667	1	25.421500
13.133333	1	26.349875
13.150000	1	27.297500
13.166667	1	28.264625
13.183333	1	29.250875
13.200000	1	30.255500
13.216667	1	31.277375
13.233333	1	32.319375
13.250000	1	33.381750
13.266667	1	34.464125
13.283333	1	35.567875
13.300000	1	36.692625
13.316667	1	37.839125
13.333333	1	39.005375
13.350000	1	40.193750
13.366667	1	41.404750
13.383333	1	42.638000
13.400000	1	43.893250
13.416667	1	45.172750
13.433333	1	46.476750
13.450000	1	47.807125
13.466667	1	49.164125
13.483333	1	50.549250
13.500000	1	51.962625
13.516667	1	53.405125
13.533333	1	54.877000
13.550000	1	56.378375
13.566667	1	57.909000
13.583333	1	59.468875
13.600000	1	61.058625
13.616667	1	62.678375
13.633333	1	64.331125
13.650000	1	66.018375
13.666667	1	67.741125
13.683333	1	69.499125
13.700000	1	71.294875
13.716667	1	73.127500
13.733333	1	74.994375
13.750000	1	76.887000
13.766667	1	78.764375
13.783333	1	80.520750
13.800000	1	81.961375
13.816667	1	82.841375
13.833333	1	82.910750
13.850000	1	81.953875
13.866667	1	79.760875
13.883333	1	76.110125
13.900000	1	70.806625
13.916667	1	63.835250
13.933333	1	55.519125
13.950000	1	46.553125
13.966667	1	37.811750
13.983333	1	30.029500
14.000000	1	23.582875
14.016667	1	18.493375
14.033333	1	14.590125
14.050000	1	11.642750
14.066667	1	9.438875
14.083333	1	7.805875
14.100000	1	6.603250
14.116667	1	5.721000
14.133333	1	5.072500
14.150000	1	4.593125
14.166667	1	4.233625
14.183333	1	3.958625
14.200000	1	3.744750
14.216667	1	3.573375
14.233333	1	3.433750
14.250000	1	3.317125
14.266667	1	3.216750
14.283333	1	3.129250
14.300000	1	3.052125
14.316667	1	2.983375
14.333333	1	2.921375
14.350000	1	2.865250
14.366667	1	2.815625
14.383333	1	2.772125
14.400000	1	2.734375
14.416667	1	2.704500
14.433333	1	2.682750
14.450000	1	2.672625
14.466667	1	2.676625
14.483333	1	2.700625
14.500000	1	2.750125
14.516667	1	2.834875
14.533333	1	2.966250
14.550000	1	3.161625
14.566667	1	3.439625
14.583333	1	3.826750
14.600000	1	4.355000
14.616667	1	5.063375
14.633333	1	5.998500
14.650000	1	7.212125
14.666667	1	8.760000
14.683333	1	10.697250
14.700000	1	13.074875
14.716667	1	15.934000
14.733333	1	19.298125
14.750000	1	23.166875
14.766667	1	27.507875
14.783333	1	32.251250
14.800000	1	37.294250
14.816667	1	42.500500
14.833333	1	47.697125
14.850000	1	52.682000
14.866667	1	57.240500
14.883333	1	61.158375
14.900000	1	64.241750
14.916667	1	66.331000
14.933333	1	67.321375
14.950000	1	67.164125
14.966667	1	65.878375
14.983333	1	63.550000
15.000000	1	60.311000
15.016667	1	56.334875
15.033333	1	51.818375
15.050000	1	46.972875
15.066667	1	42.001000
15.083333	1	37.083500
15.100000	1	32.369750
15.116667	1	27.973500
15.133333	1	23.969000
15.150000	1	20.397000
15.166667	1	17.269750
15.183333	1	14.576875
15.200000	1	12.287000
15.216667	1	10.363625
15.233333	1	8.764000
15.250000	1	7.445125
15.266667	1	6.365750
15.283333	1	5.488500
15.300000	1	4.779375
15.316667	1	4.209500
15.333333	1	3.753625
15.350000	1	3.391125
15.366667	1	3.104375
15.383333	1	2.880000
15.400000	1	2.705125
15.416667	1	2.571750
15.433333	1	2.471500
15.450000	1	2.398125
15.466667	1	2.345125
15.483333	1	2.309125
15.500000	1	2.284500
15.516667	1	2.268375
15.533333	1	2.256125
15.550000	1	2.245125
15.566667	1	2.232500
15.583333	1	2.217375
15.600000	1	2.197625
15.616667	1	2.172750
15.633333	1	2.143000
15.650000	1	2.109250
15.666667	1	2.071750
15.683333	1	2.031500
15.700000	1	1.990750
15.716667	1	1.949625
15.733333	1	1.908625
15.750000	1	1.869500
15.766667	1	1.832375
15.783333	1	1.797375
15.800000	1	1.763750
15.816667	1	1.731750
15.833333	1	1.700125
15.850000	1	1.670000
15.866667	1	1.640750
15.883333	1	1.612250
15.900000	1	1.584125
15.916667	1	1.557750
15.933333	1	1.532750
15.950000	1	1.509625
15.966667	1	1.489250
15.983333	1	1.471500
16.000000	1	1.455875
16.016667	1	1.444750
16.033333	1	1.435250
16.050000	1	1.428625
16.066667	1	1.424000
16.083333	1	1.421625
16.100000	1	1.420500
16.116667	1	1.419750
16.133333	1	1.418500
16.150000	1	1.416250
16.166667	1	1.412750
16.183333	1	1.408125
16.200000	1	1.401000
16.216667	1	1.391000
16.233333	1	1.379125
16.250000	1	1.364750
16.266667	1	1.349375
16.283333	1	1.331375
16.300000	1	1.312250
16.316667	1	1.291500
16.333333	1	1.271000
16.350000	1	1.250750
16.366667	1	1.229625
16.383333	1	1.209000
16.400000	1	1.189750
16.416667	1	1.171125
16.433333	1	1.153625
16.450000	1	1.137625
16.466667	1	1.123875
16.483333	1	1.112125
16.500000	1	1.101625
16.516667	1	1.093625
16.533333	1	1.088500
16.550000	1	1.085750
16.566667	1	1.084875
16.583333	1	1.086375
16.600000	1	1.089250
16.616667	1	1.094000
16.633333	1	1.098375
16.650000	1	1.103875
16.666667	1	1.109500
16.683333	1	1.114625
16.700000	1	1.118875
16.716667	1	1.121875
16.733333	1	1.124250
16.750000	1	1.126625
16.766667	1	1.128125
16.783333	1	1.129500
16.800000	1	1.131000
16.816667	1	1.132625
16.833333	1	1.134750
16.850000	1	1.137750
16.866667	1	1.140750
16.883333	1	1.143500
16.900000	1	1.147250
16.916667	1	1.151125
16.933333	1	1.153750
16.950000	1	1.156375
16.966667	1	1.158500
16.983333	1	1.159375
17.000000	1	1.159250
17.016667	1	1.158250
17.033333	1	1.155375
17.050000	1	1.152000
17.066667	1	1.148125
17.083333	1	1.142875
17.100000	1	1.137375
17.116667	1	1.132500
17.133333	1	1.128000
17.150000	1	1.123875
17.166667	1	1.119625
17.183333	1	1.116000
17.200000	1	1.112625
17.216667	1	1.109875
17.233333	1	1.108375
17.250000	1	1.107000
17.266667	1	1.106875
17.283333	1	1.107375
17.300000	1	1.107750
17.316667	1	1.108125
17.333333	1	1.109500
17.350000	1	1.111000
17.366667	1	1.112375
17.383333	1	1.114000
17.400000	1	1.115875
17.416667	1	1.117125
17.433333	1	1.118500
17.450000	1	1.119375
17.466667	1	1.119000
17.483333	1	1.117750
17.500000	1	1.115625
17.516667	1	1.112000
17.533333	1	1.107250
17.550000	1	1.101375
17.566667	1	1.094375
17.583333	1	1.085250
17.600000	1	1.075125
17.616667	1	1.063875
17.633333	1	1.051000
17.650000	1	1.038000
17.666667	1	1.023875
17.683333	1	1.009125
17.700000	1	0.993625
17.716667	1	0.978375
17.733333	1	0.962625
17.750000	1	0.947500
17.766667	1	0.932250
17.783333	1	0.918125
17.800000	1	0.905000
17.816667	1	0.893125
17.833333	1	0.881250
17.850000	1	0.869875
17.866667	1	0.859375
17.883333	1	0.849750
17.900000	1	0.839875
17.916667	1	0.831250
17.933333	1	0.823500
17.950000	1	0.816625
17.966667	1	0.810000
17.983333	1	0.803375
18.000000	1	0.797375
18.016667	1	0.792500
18.033333	1	0.786875
18.050000	1	0.781500
18.066667	1	0.776500
18.083333	1	0.771625
18.100000	1	0.766625
18.116667	1	0.761625
18.133333	1	0.756750
18.150000	1	0.751500
18.166667	1	0.747750
18.183333	1	0.743625
18.200000	1	0.740000
18.216667	1	0.736625
18.233333	1	0.734000
18.250000	1	0.731875
18.266667	1	0.731125
18.283333	1	0.729875
18.300000	1	0.729875
18.316667	1	0.729875
18.333333	1	0.731375
18.350000	1	0.732250
18.366667	1	0.733625
18.383333	1	0.735250
18.400000	1	0.738000
18.416667	1	0.740375
18.433333	1	0.743250
18.450000	1	0.747250
18.466667	1	0.751375
18.483333	1	0.756750
18.500000	1	0.763000
18.516667	1	0.770875
18.533333	1	0.780000
18.550000	1	0.790500
18.566667	1	0.803125
18.583333	1	0.817875
18.600000	1	0.834375
18.616667	1	0.852500
18.633333	1	0.873375
18.650000	1	0.896125
18.666667	1	0.920125
18.683333	1	0.946500
18.700000	1	0.974500
18.716667	1	1.004625
18.733333	1	1.035250
18.750000	1	1.067125
18.766667	1	1.101500
18.783333	1	1.136125
18.800000	1	1.170500
18.816667	1	1.204000
18.833333	1	1.237375
18.850000	1	1.269000
18.866667	1	1.298375
18.883333	1	1.325125
18.900000	1	1.348000
18.916667	1	1.366000
18.933333	1	1.379250
18.950000	1	1.387250
18.966667	1	1.388750
18.983333	1	1.383875
19.000000	1	1.373500
19.016667	1	1.356500
19.033333	1	1.332500
19.050000	1	1.304125
19.066667	1	1.271375
19.083333	1	1.234750
19.100000	1	1.196000
19.116667	1	1.155125
19.133333	1	1.114375
19.150000	1	1.076250
19.166667	1	1.041375
19.183333	1	1.012875
19.200000	1	0.991125
19.216667	1	0.977375
19.233333	1	0.974625
19.250000	1	0.985250
19.266667	1	1.010500
19.283333	1	1.051500
19.300000	1	1.110750
19.316667	1	1.188875
19.333333	1	1.289375
19.350000	1	1.412125
19.366667	1	1.558750
19.383333	1	1.730375
19.400000	1	1.926375
19.416667	1	2.145625
19.433333	1	2.387375
19.450000	1	2.648625
19.466667	1	2.925250
19.483333	1	3.212750
19.500000	1	3.505875
19.516667	1	3.796375
19.533333	1	4.077750
19.550000	1	4.342250
19.566667	1	4.581875
19.583333	1	4.789625
19.600000	1	4.957375
19.616667	1	5.079000
19.633333	1	5.151500
19.650000	1	5.172375
19.666667	1	5.141625
19.683333	1	5.060000
19.700000	1	4.931375
19.716667	1	4.760500
19.733333	1	4.554750
19.750000	1	4.319625
19.766667	1	4.062250
19.783333	1	3.791125
19.800000	1	3.512875
19.816667	1	3.235125
19.833333	1	2.962625
19.850000	1	2.700875
19.866667	1	2.453125
19.883333	1	2.221625
19.900000	1	2.008375
19.916667	1	1.815750
19.933333	1	1.641125
19.950000	1	1.485250
19.966667	1	1.347000
19.983333	1	1.225750
20.000000	1	1.119500
20.016667	1	1.028250
20.033333	1	0.949250
20.050000	1	0.882250
20.066667	1	0.825375
20.083333	1	0.776625
20.100000	1	0.737250
20.116667	1	0.705250
20.133333	1	0.680375
20.150000	1	0.661625
20.166667	1	0.647625
20.183333	1	0.638750
20.200000	1	0.632500
20.216667	1	0.631250
20.233333	1	0.632125
20.250000	1	0.635375
20.266667	1	0.640500
20.283333	1	0.646250
20.300000	1	0.653125
20.316667	1	0.660375
20.333333	1	0.666625
20.350000	1	0.672250
20.366667	1	0.676625
20.383333	1	0.679000
20.400000	1	0.679625
20.416667	1	0.678500
20.433333	1	0.675875
20.450000	1	0.672250
20.466667	1	0.666875
20.483333	1	0.661500
20.500000	1	0.656500
20.516667	1	0.652250
20.533333	1	0.649625
20.550000	1	0.649250
20.566667	1	0.652750
20.583333	1	0.660000
20.600000	1	0.673125
20.616667	1	0.691375
20.633333	1	0.716375
20.650000	1	0.748250
20.666667	1	0.786250
20.683333	1	0.830500
20.700000	1	0.881625
20.716667	1	0.939250
20.733333	1	1.001750
20.750000	1	1.069500
20.766667	1	1.139500
20.783333	1	1.210750
20.800000	1	1.281375
20.816667	1	1.348250
20.833333	1	1.410375
20.850000	1	1.465750
20.866667	1	1.511875
20.883333	1	1.547875
20.900000	1	1.572000
20.916667	1	1.582375
20.933333	1	1.580125
20.950000	1	1.565000
20.966667	1	1.537125
20.983333	1	1.498000
21.000000	1	1.448750
21.016667	1	1.390625
21.033333	1	1.325625
21.050000	1	1.256375
21.066667	1	1.184750
21.083333	1	1.112625
21.100000	1	1.041250
21.116667	1	0.972125
21.133333	1	0.906875
21.150000	1	0.845375
21.166667	1	0.788250
21.183333	1	0.736500
21.200000	1	0.689375
21.216667	1	0.648250
21.233333	1	0.611000
21.250000	1	0.579000
21.266667	1	0.551125
21.283333	1	0.526750
21.300000	1	0.505625
21.316667	1	0.487750
21.333333	1	0.472875
21.350000	1	0.459750
21.366667	1	0.448250
21.383333	1	0.439250
21.400000	1	0.431625
21.416667	1	0.424625
21.433333	1	0.419125
21.450000	1	0.414500
21.466667	1	0.410500
21.483333	1	0.407375
21.500000	1	0.404875
21.516667	1	0.403125
21.533333	1	0.401250
21.550000	1	0.400500
21.566667	1	0.399875
21.583333	1	0.400000
21.600000	1	0.400250
21.616667	1	0.401125
21.633333	1	0.402875
21.650000	1	0.405875
21.666667	1	0.409125
21.683333	1	0.413875
21.700000	1	0.418750
21.716667	1	0.424375
21.733333	1	0.431000
21.750000	1	0.438125
21.766667	1	0.446625
21.783333	1	0.454875
21.800000	1	0.464875
21.816667	1	0.474875
21.833333	1	0.485875
21.850000	1	0.497250
21.866667	1	0.508875
21.883333	1	0.521000
21.900000	1	0.533375
21.916667	1	0.545375
21.933333	1	0.557125
21.950000	1	0.569250
21.966667	1	0.580375
21.983333	1	0.590750
22.000000	1	0.600750
22.016667	1	0.608750
22.033333	1	0.616500
22.050000	1	0.623500
22.066667	1	0.629125
22.083333	1	0.633500
22.100000	1	0.636500
22.116667	1	0.637750
22.133333	1	0.637750
22.150000	1	0.635375
22.166667	1	0.632125
22.183333	1	0.628250
22.200000	1	0.622250
22.216667	1	0.615375
22.233333	1	0.607250
22.250000	1	0.596875
22.266667	1	0.585250
22.283333	1	0.572875
22.300000	1	0.560250
22.316667	1	0.546875
22.333333	1	0.532875
22.350000	1	0.517875
22.366667	1	0.503250
22.383333	1	0.486875
22.400000	1	0.471000
22.416667	1	0.455125
22.433333	1	0.439625
22.450000	1	0.424750
22.466667	1	0.409625
22.483333	1	0.395750
22.500000	1	0.383000
22.516667	1	0.370625
22.533333	1	0.359500
22.550000	1	0.349125
22.566667	1	0.339000
22.583333	1	0.329625
22.600000	1	0.321000
22.616667	1	0.313125
22.633333	1	0.305750
22.650000	1	0.299125
22.666667	1	0.293750
22.683333	1	0.288750
22.700000	1	0.284000
22.716667	1	0.279500
22.733333	1	0.275500
22.750000	1	0.272000
22.766667	1	0.268375
22.783333	1	0.265000
22.800000	1	0.261625
22.816667	1	0.258625
22.833333	1	0.255875
22.850000	1	0.253125
22.866667	1	0.251000
22.883333	1	0.248625
22.900000	1	0.246875
22.916667	1	0.245125
22.933333	1	0.243625
22.950000	1	0.242125
22.966667	1	0.240750
22.983333	1	0.239750
23.000000	1	0.239000
23.016667	1	0.238250
23.033333	1	0.238875
23.050000	1	0.238625
23.066667	1	0.239000
23.083333	1	0.239750
23.100000	1	0.240375
23.116667	1	0.241375
23.133333	1	0.242625
23.150000	1	0.243750
23.166667	1	0.244875
23.183333	1	0.246500
23.200000	1	0.248625
23.216667	1	0.251000
23.233333	1	0.253875
23.250000	1	0.258000
23.266667	1	0.262625
23.283333	1	0.268250
23.300000	1	0.275625
23.316667	1	0.285125
23.333333	1	0.296875
23.350000	1	0.312500
23.366667	1	0.331750
23.383333	1	0.355000
23.400000	1	0.384000
23.416667	1	0.419375
23.433333	1	0.461625
23.450000	1	0.513625
23.466667	1	0.574625
23.483333	1	0.646875
23.500000	1	0.732250
23.516667	1	0.832125
23.533333	1	0.947000
23.550000	1	1.079125
23.566667	1	1.228375
23.583333	1	1.396875
23.600000	1	1.585625
23.616667	1	1.793125
23.633333	1	2.021000
23.650000	1	2.267875
23.666667	1	2.533125
23.683333	1	2.813875
23.700000	1	3.108125
23.716667	1	3.413375
23.733333	1	3.725000
23.750000	1	4.037625
23.766667	1	4.345250
23.783333	1	4.643625
23.800000	1	4.925375
23.816667	1	5.186250
23.833333	1	5.418500
23.850000	1	5.617125
23.866667	1	5.778375
23.883333	1	5.898250
23.900000	1	5.972625
23.916667	1	6.000875
23.933333	1	5.982875
23.950000	1	5.919875
23.966667	1	5.812875
23.983333	1	5.664875
24.000000	1	5.481000
24.016667	1	5.265500
24.033333	1	5.024250
24.050000	1	4.762375
24.066667	1	4.486375
24.083333	1	4.200750
24.100000	1	3.911000
24.116667	1	3.621875
24.133333	1	3.337125
24.150000	1	3.060500
24.166667	1	2.795875
24.183333	1	2.545625
24.200000	1	2.311125
24.216667	1	2.093125
24.233333	1	1.892625
24.250000	1	1.709125
24.266667	1	1.542125
24.283333	1	1.392000
24.300000	1	1.257500
24.316667	1	1.137750
24.333333	1	1.032375
24.350000	1	0.939000
24.366667	1	0.857625
24.383333	1	0.786750
24.400000	1	0.725000
24.416667	1	0.672125
24.433333	1	0.627000
24.450000	1	0.588250
24.466667	1	0.555250
24.483333	1	0.527625
24.500000	1	0.504375
24.516667	1	0.484875
24.533333	1	0.468375
24.550000	1	0.454750
24.566667	1	0.442500
24.583333	1	0.432375
24.600000	1	0.423125
24.616667	1	0.415000
24.633333	1	0.407875
24.650000	1	0.400750
24.666667	1	0.394125
24.683333	1	0.387750
24.700000	1	0.381000
24.716667	1	0.374875
24.733333	1	0.368750
24.750000	1	0.362500
24.766667	1	0.355750
24.783333	1	0.349000
24.800000	1	0.341875
24.816667	1	0.335375
24.833333	1	0.329375
24.850000	1	0.323875
24.866667	1	0.318375
24.883333	1	0.313250
24.900000	1	0.308000
24.916667	1	0.303250
24.933333	1	0.298250
24.950000	1	0.294000
24.966667	1	0.289875
24.983333	1	0.285875
25.000000	1	0.282625
25.016667	1	0.279375
25.033333	1	0.275500
25.050000	1	0.272125
25.066667	1	0.269500
25.083333	1	0.266250
25.100000	1	0.263875
25.116667	1	0.261250
25.133333	1	0.258250
25.150000	1	0.255625
25.166667	1	0.252875
25.183333	1	0.250250
25.200000	1	0.248000
25.216667	1	0.245250
25.233333	1	0.243125
25.250000	1	0.240625
25.266667	1	0.238625
25.283333	1	0.236500
25.300000	1	0.234875
25.316667	1	0.232750
25.333333	1	0.231125
25.350000	1	0.229500
25.366667	1	0.228375
25.383333	1	0.227250
25.400000	1	0.226625
25.416667	1	0.225875
25.433333	1	0.225500
25.450000	1	0.225750
25.466667	1	0.226125
25.483333	1	0.226125
25.500000	1	0.226875
25.516667	1	0.228250
25.533333	1	0.229250
25.550000	1	0.230125
25.566667	1	0.230875
25.583333	1	0.232500
25.600000	1	0.234000
25.616667	1	0.235500
25.633333	1	0.237000
25.650000	1	0.238875
25.666667	1	0.240375
25.683333	1	0.241375
25.700000	1	0.243000
25.716667	1	0.244125
25.733333	1	0.245000
25.750000	1	0.247125
25.766667	1	0.248875
25.783333	1	0.249375
25.800000	1	0.251000
25.816667	1	0.253000
25.833333	1	0.254625
25.850000	1	0.256625
25.866667	1	0.259125
25.883333	1	0.261500
25.900000	1	0.264375
25.916667	1	0.267125
25.933333	1	0.269500
25.950000	1	0.273750
25.966667	1	0.277500
25.983333	1	0.281750
26.000000	1	0.285625
26.016667	1	0.290500
26.033333	1	0.295500
26.050000	1	0.300250
26.066667	1	0.305375
26.083333	1	0.309750
26.100000	1	0.314625
26.116667	1	0.320125
26.133333	1	0.325625
26.150000	1	0.330500
26.166667	1	0.334750
26.183333	1	0.339375
26.200000	1	0.343500
26.216667	1	0.346875
26.233333	1	0.349375
26.250000	1	0.352875
26.266667	1	0.355125
26.283333	1	0.356125
26.300000	1	0.356500
26.316667	1	0.356250
26.333333	1	0.355750
26.350000	1	0.354875
26.366667	1	0.353125
26.383333	1	0.349875
26.400000	1	0.346625
26.416667	1	0.342625
26.433333	1	0.338500
26.450000	1	0.333750
26.466667	1	0.328750
26.483333	1	0.322000
26.500000	1	0.316375
26.516667	1	0.309375
26.533333	1	0.301875
26.550000	1	0.294500
26.566667	1	0.286750
26.583333	1	0.279250
26.600000	1	0.272000
26.616667	1	0.264750
26.633333	1	0.257250
26.650000	1	0.249625
26.666667	1	0.243125
26.683333	1	0.236375
26.700000	1	0.230250
26.716667	1	0.224125
26.733333	1	0.218000
26.750000	1	0.212125
26.766667	1	0.206750
26.783333	1	0.201750
26.800000	1	0.197250
26.816667	1	0.193250
26.833333	1	0.190125
26.850000	1	0.187125
26.866667	1	0.184500
26.883333	1	0.183125
26.900000	1	0.180875
26.916667	1	0.179875
26.933333	1	0.179125
26.950000	1	0.178875
26.966667	1	0.178625
26.983333	1	0.179375
27.000000	1	0.179750
27.016667	1	0.181375
27.033333	1	0.183250
27.050000	1	0.186000
27.066667	1	0.189375
27.083333	1	0.193625
27.100000	1	0.199125
27.116667	1	0.205000
27.133333	1	0.212125
27.150000	1	0.220000
27.166667	1	0.229125
27.183333	1	0.240125
27.200000	1	0.252625
27.216667	1	0.267875
27.233333	1	0.285250
27.250000	1	0.305375
27.266667	1	0.328625
27.283333	1	0.355375
27.300000	1	0.386375
27.316667	1	0.421625
27.333333	1	0.461125
27.350000	1	0.506000
27.366667	1	0.557250
27.383333	1	0.615625
27.400000	1	0.680750
27.416667	1	0.753750
27.433333	1	0.835500
27.450000	1	0.926000
27.466667	1	1.025625
27.483333	1	1.135000
27.500000	1	1.254875
27.516667	1	1.384250
27.533333	1	1.523375
27.550000	1	1.672625
27.566667	1	1.831625
27.583333	1	1.999000
27.600000	1	2.174375
27.616667	1	2.355000
27.633333	1	2.542000
27.650000	1	2.732750
27.666667	1	2.924250
27.683333	1	3.115375
27.700000	1	3.303125
27.716667	1	3.484875
27.733333	1	3.658250
27.750000	1	3.821250
27.766667	1	3.970375
27.783333	1	4.102750
27.800000	1	4.216625
27.816667	1	4.309000
27.833333	1	4.379375
27.850000	1	4.425000
27.866667	1	4.445750
27.883333	1	4.440000
27.900000	1	4.407875
27.916667	1	4.350875
27.933333	1	4.269000
27.950000	1	4.163250
27.966667	1	4.036875
27.983333	1	3.891750
28.000000	1	3.730000
28.016667	1	3.554750
28.033333	1	3.368750
28.050000	1	3.174750
28.066667	1	2.976375
28.083333	1	2.775500
28.100000	1	2.576000
28.116667	1	2.378875
28.133333	1	2.187000
28.150000	1	2.003125
28.166667	1	1.828000
28.183333	1	1.663625
28.200000	1	1.509375
28.216667	1	1.366125
28.233333	1	1.234625
28.250000	1	1.114625
28.266667	1	1.006375
28.283333	1	0.908625
28.300000	1	0.821750
28.316667	1	0.744500
28.333333	1	0.676875
28.350000	1	0.618250
28.366667	1	0.567625
28.383333	1	0.524750
28.400000	1	0.488125
28.416667	1	0.458250
28.433333	1	0.433625
28.450000	1	0.414750
28.466667	1	0.399375
28.483333	1	0.388375
28.500000	1	0.380500
28.516667	1	0.375375
28.533333	1	0.373000
28.550000	1	0.373875
28.566667	1	0.376250
28.583333	1	0.380625
28.600000	1	0.386250
28.616667	1	0.392625
28.633333	1	0.400250
28.650000	1	0.408625
28.666667	1	0.417625
28.683333	1	0.426375
28.700000	1	0.435625
28.716667	1	0.444625
28.733333	1	0.453250
28.750000	1	0.461250
28.766667	1	0.468875
28.783333	1	0.476000
28.800000	1	0.482125
28.816667	1	0.487125
28.833333	1	0.491875
28.850000	1	0.495625
28.866667	1	0.498125
28.883333	1	0.499625
28.900000	1	0.500125
28.916667	1	0.499250
28.933333	1	0.497750
28.950000	1	0.495250
28.966667	1	0.491625
28.983333	1	0.487500
29.000000	1	0.481125
29.016667	1	0.474875
29.033333	1	0.467625
29.050000	1	0.459250
29.066667	1	0.450500
29.083333	1	0.440625
29.100000	1	0.430000
29.116667	1	0.419250
29.133333	1	0.407500
29.150000	1	0.395375
29.166667	1	0.382500
29.183333	1	0.370125
29.200000	1	0.357125
29.216667	1	0.344250
29.233333	1	0.331000
29.250000	1	0.318625
29.266667	1	0.306000
29.283333	1	0.292750
29.300000	1	0.280625
29.316667	1	0.268500
29.333333	1	0.257250
29.350000	1	0.246000
29.366667	1	0.235000
29.383333	1	0.224625
29.400000	1	0.215500
29.416667	1	0.206750
29.433333	1	0.198125
29.450000	1	0.189500
29.466667	1	0.181750
29.483333	1	0.174625
29.500000	1	0.167500
29.516667	1	0.160875
29.533333	1	0.154875
29.550000	1	0.149625
29.566667	1	0.144875
29.583333	1	0.140750
29.600000	1	0.137250
29.616667	1	0.134125
29.633333	1	0.131125
29.650000	1	0.128125
29.666667	1	0.125750
29.683333	1	0.123500
29.700000	1	0.121125
29.716667	1	0.119500
29.733333	1	0.117375
29.750000	1	0.115875
29.766667	1	0.114750
29.783333	1	0.113750
29.800000	1	0.113125
29.816667	1	0.112625
29.833333	1	0.111875
29.850000	1	0.111000
29.866667	1	0.110500
29.883333	1	0.110500
29.900000	1	0.110375
29.916667	1	0.109625
29.933333	1	0.109125
29.950000	1	0.109125
29.966667	1	0.108875
29.983333	1	0.108375
30.000000	1	0.108250
30.016667	1	0.108125
30.033333	1	0.107250
30.050000	1	0.107500
30.066667	1	0.107500
30.083333	1	0.107250
30.100000	1	0.107375
30.116667	1	0.107625
30.133333	1	0.108000
30.150000	1	0.108250
30.166667	1	0.108625
30.183333	1	0.109125
30.200000	1	0.109500
30.216667	1	0.110375
30.233333	1	0.111000
30.250000	1	0.111375
30.266667	1	0.113000
30.283333	1	0.113625
30.300000	1	0.114625
30.316667	1	0.116000
30.333333	1	0.117250
30.350000	1	0.118750
30.366667	1	0.120875
30.383333	1	0.123625
30.400000	1	0.126000
30.416667	1	0.129000
30.433333	1	0.131500
30.450000	1	0.135125
30.466667	1	0.138750
30.483333	1	0.142375
30.500000	1	0.146500
30.516667	1	0.151125
30.533333	1	0.155250
30.550000	1	0.160750
30.566667	1	0.166375
30.583333	1	0.172250
30.600000	1	0.178500
30.616667	1	0.186125
30.633333	1	0.193750
30.650000	1	0.201250
30.666667	1	0.210500
30.683333	1	0.219500
30.700000	1	0.229000
30.716667	1	0.239375
30.733333	1	0.252250
30.750000	1	0.265875
30.766667	1	0.280625
30.783333	1	0.297125
30.800000	1	0.315250
30.816667	1	0.335500
30.833333	1	0.358500
30.850000	1	0.383375
30.866667	1	0.411750
30.883333	1	0.444625
30.900000	1	0.481000
30.916667	1	0.522000
30.933333	1	0.567875
30.950000	1	0.619750
30.966667	1	0.677500
30.983333	1	0.742125
31.000000	1	0.815875
31.016667	1	0.897125
31.033333	1	0.987000
31.050000	1	1.086125
31.066667	1	1.195500
31.083333	1	1.316125
31.100000	1	1.446875
31.116667	1	1.588500
31.133333	1	1.741500
31.150000	1	1.905750
31.166667	1	2.079875
31.183333	1	2.265375
31.200000	1	2.460875
31.216667	1	2.665000
31.233333	1	2.877000
31.250000	1	3.094750
31.266667	1	3.316875
31.283333	1	3.541250
31.300000	1	3.766125
31.316667	1	3.989250
31.333333	1	4.208750
31.350000	1	4.420875
31.366667	1	4.623625
31.383333	1	4.814375
31.400000	1	4.991750
31.416667	1	5.152375
31.433333	1	5.293875
31.450000	1	5.414250
31.466667	1	5.512250
31.483333	1	5.585625
31.500000	1	5.634250
31.516667	1	5.657250
31.533333	1	5.654250
31.550000	1	5.625375
31.566667	1	5.571875
31.583333	1	5.494375
31.600000	1	5.393500
31.616667	1	5.271625
31.633333	1	5.129625
31.650000	1	4.969750
31.666667	1	4.794750
31.683333	1	4.606750
31.700000	1	4.407875
31.716667	1	4.201875
31.733333	1	3.989875
31.750000	1	3.775250
31.766667	1	3.558000
31.783333	1	3.341125
31.800000	1	3.126000
31.816667	1	2.916000
31.833333	1	2.711000
31.850000	1	2.512750
31.866667	1	2.321250
31.883333	1	2.139125
31.900000	1	1.965625
31.916667	1	1.801625
31.933333	1	1.647750
31.950000	1	1.504000
31.966667	1	1.370000
31.983333	1	1.245000
32.000000	1	1.129750
32.016667	1	1.023875
32.033333	1	0.927000
32.050000	1	0.837500
32.066667	1	0.755750
32.083333	1	0.680625
32.100000	1	0.613125
32.116667	1	0.552500
32.133333	1	0.496875
32.150000	1	0.447125
32.166667	1	0.402500
32.183333	1	0.361875
32.200000	1	0.325000
32.216667	1	0.291875
32.233333	1	0.262000
32.250000	1	0.235750
32.266667	1	0.211750
32.283333	1	0.189625
32.300000	1	0.170375
32.316667	1	0.152000
32.333333	1	0.135625
32.350000	1	0.121750
32.366667	1	0.109375
32.383333	1	0.097625
32.400000	1	0.087000
32.416667	1	0.077000
32.433333	1	0.068125
32.450000	1	0.061000
32.466667	1	0.053625
32.483333	1	0.046875
32.500000	1	0.041875
32.516667	1	0.036500
32.533333	1	0.031750
32.550000	1	0.028375
32.566667	1	0.025000
32.583333	1	0.022000
32.600000	1	0.019000
32.616667	1	0.016500
32.633333	1	0.014000
32.650000	1	0.012375
32.666667	1	0.010750
32.683333	1	0.009375
32.700000	1	0.007875
32.716667	1	0.007500
32.733333	1	0.007375
32.750000	1	0.007250
32.766667	1	0.007000
32.783333	1	0.006625
32.800000	1	0.006750
32.816667	1	0.006875
32.833333	1	0.007625
32.850000	1	0.007875
32.866667	1	0.008000
32.883333	1	0.007875
32.900000	1	0.008375
32.916667	1	0.008125
32.933333	1	0.008500
32.950000	1	0.008750
32.966667	1	0.009125
32.983333	1	0.009125
33.000000	1	0.008875
33.016667	1	0.009000
33.033333	1	0.009125
33.050000	1	0.010250
33.066667	1	0.010500
33.083333	1	0.010250
33.100000	1	0.010125
33.116667	1	0.009500
33.133333	1	0.008875
33.150000	1	0.008750
33.166667	1	0.008750
33.183333	1	0.009125
33.200000	1	0.009000
33.216667	1	0.009000
33.233333	1	0.009500
33.250000	1	0.009875
33.266667	1	0.009750
33.283333	1	0.010125
33.300000	1	0.010375
33.316667	1	0.011125
33.333333	1	0.011875
33.350000	1	0.011625
33.366667	1	0.012000
33.383333	1	0.012875
33.400000	1	0.013875
33.416667	1	0.014875
33.433333	1	0.016125
33.450000	1	0.017125
33.466667	1	0.019000
33.483333	1	0.020125
33.500000	1	0.021875
33.516667	1	0.023750
33.533333	1	0.025875
33.550000	1	0.028125
33.566667	1	0.030500
33.583333	1	0.033000
33.600000	1	0.036250
33.616667	1	0.038625
33.633333	1	0.041000
33.650000	1	0.043625
33.666667	1	0.046500
33.683333	1	0.049375
33.700000	1	0.051625
33.716667	1	0.054125
33.733333	1	0.056875
33.750000	1	0.059250
33.766667	1	0.061875
33.783333	1	0.064625
33.800000	1	0.066875
33.816667	1	0.069625
33.833333	1	0.072125
33.850000	1	0.074500
33.866667	1	0.077000
33.883333	1	0.078375
33.900000	1	0.079875
33.916667	1	0.081750
33.933333	1	0.083375
33.950000	1	0.084375
33.966667	1	0.086000
33.983333	1	0.087750
34.000000	1	0.089500
34.016667	1	0.090375
34.033333	1	0.091500
34.050000	1	0.092625
34.066667	1	0.093625
34.083333	1	0.094500
34.100000	1	0.096375
34.116667	1	0.097375
34.133333	1	0.098375
34.150000	1	0.099375
34.166667	1	0.100500
34.183333	1	0.102125
34.200000	1	0.102750
34.216667	1	0.103500
34.233333	1	0.104875
34.250000	1	0.105750
34.266667	1	0.107250
34.283333	1	0.108500
34.300000	1	0.110250
34.316667	1	0.111875
34.333333	1	0.113375
34.350000	1	0.114125
34.366667	1	0.116125
34.383333	1	0.117625
34.400000	1	0.119250
34.416667	1	0.121000
34.433333	1	0.123125
34.450000	1	0.124750
34.466667	1	0.126375
34.483333	1	0.127750
34.500000	1	0.128625
34.516667	1	0.129500
34.533333	1	0.130375
34.550000	1	0.131625
34.566667	1	0.132750
34.583333	1	0.133375
34.600000	1	0.133125
34.616667	1	0.133500
34.633333	1	0.133875
34.650000	1	0.132625
34.666667	1	0.132125
34.683333	1	0.131500
34.700000	1	0.130625
34.716667	1	0.129625
34.733333	1	0.129000
34.750000	1	0.127625
34.766667	1	0.125875
34.783333	1	0.124250
34.800000	1	0.121750
34.816667	1	0.119250
34.833333	1	0.116625
34.850000	1	0.114375
34.866667	1	0.111875
34.883333	1	0.109375
34.900000	1	0.106875
34.916667	1	0.104250
34.933333	1	0.101375
34.950000	1	0.099125
34.966667	1	0.096500
34.983333	1	0.094000
35.000000	1	0.091625
35.016667	1	0.088875
35.033333	1	0.087250
35.050000	1	0.085125
35.066667	1	0.083250
35.083333	1	0.080750
35.100000	1	0.079000
35.116667	1	0.077750
35.133333	1	0.076125
35.150000	1	0.075750
35.166667	1	0.074750
35.183333	1	0.074625
35.200000	1	0.074125
35.216667	1	0.074500
35.233333	1	0.073250
35.250000	1	0.072875
35.266667	1	0.072750
35.283333	1	0.073375
35.300000	1	0.073250
35.316667	1	0.073375
35.333333	1	0.074375
35.350000	1	0.074750
35.366667	1	0.075250
35.383333	1	0.076125
35.400000	1	0.077125
35.416667	1	0.078125
35.433333	1	0.079000
35.450000	1	0.080625
35.466667	1	0.081875
35.483333	1	0.083250
35.500000	1	0.084375
35.516667	1	0.085750
35.533333	1	0.087625
35.550000	1	0.088750
35.566667	1	0.090250
35.583333	1	0.091375
35.600000	1	0.092500
35.616667	1	0.094125
35.633333	1	0.095000
35.650000	1	0.096250
35.666667	1	0.097125
35.683333	1	0.097750
35.700000	1	0.098625
35.716667	1	0.099875
35.733333	1	0.100750
35.750000	1	0.100625
35.766667	1	0.100500
35.783333	1	0.101375
35.800000	1	0.101500
35.816667	1	0.101125
35.833333	1	0.100875
35.850000	1	0.100000
35.866667	1	0.099625
35.883333	1	0.099500
35.900000	1	0.099125
35.916667	1	0.098750
35.933333	1	0.098375
35.950000	1	0.097500
35.966667	1	0.097750
35.983333	1	0.097125
36.000000	1	0.096125
36.016667	1	0.095750
36.033333	1	0.095000
36.050000	1	0.094625
36.066667	1	0.094500
36.083333	1	0.093625
36.100000	1	0.093750
36.116667	1	0.093625
36.133333	1	0.092875
36.150000	1	0.093000
36.166667	1	0.093000
36.183333	1	0.093750
36.200000	1	0.094000
36.216667	1	0.093625
36.233333	1	0.093625
36.250000	1	0.093750
36.266667	1	0.094625
36.283333	1	0.095250
36.300000	1	0.095000
36.316667	1	0.095500
36.333333	1	0.096125
36.350000	1	0.096375
36.366667	1	0.096625
36.383333	1	0.096875
36.400000	1	0.097625
36.416667	1	0.097250
36.433333	1	0.097625
36.450000	1	0.097250
36.466667	1	0.097750
36.483333	1	0.097625
36.500000	1	0.098000
36.516667	1	0.098000
36.533333	1	0.097625
36.550000	1	0.098125
36.566667	1	0.097875
36.583333	1	0.096875
36.600000	1	0.096625
36.616667	1	0.095625
36.633333	1	0.094750
36.650000	1	0.094625
36.666667	1	0.093750
36.683333	1	0.091750
36.700000	1	0.091250
36.716667	1	0.090125
36.733333	1	0.088500
36.750000	1	0.087000
36.766667	1	0.085625
36.783333	1	0.083625
36.800000	1	0.081500
36.816667	1	0.079750
36.833333	1	0.077375
36.850000	1	0.074375
36.866667	1	0.071875
36.883333	1	0.069625
36.900000	1	0.066875
36.916667	1	0.064250
36.933333	1	0.061500
36.950000	1	0.058875
36.966667	1	0.056625
36.983333	1	0.054375
37.000000	1	0.051000
37.016667	1	0.048500
37.033333	1	0.046125
37.050000	1	0.044125
37.066667	1	0.041750
37.083333	1	0.039750
37.100000	1	0.037750
37.116667	1	0.036000
37.133333	1	0.034875
37.150000	1	0.033750
37.166667	1	0.032375
37.183333	1	0.030875
37.200000	1	0.029875
37.216667	1	0.029250
37.233333	1	0.028375
37.250000	1	0.028375
37.266667	1	0.028000
37.283333	1	0.027125
37.300000	1	0.027625
37.316667	1	0.027500
37.333333	1	0.027875
37.350000	1	0.028125
37.366667	1	0.028125
37.383333	1	0.028375
37.400000	1	0.028375
37.416667	1	0.028750
37.433333	1	0.029750
37.450000	1	0.030125
37.466667	1	0.030000
37.483333	1	0.030750
37.500000	1	0.030750
37.516667	1	0.030625
37.533333	1	0.030250
37.550000	1	0.030250
37.566667	1	0.030000
37.583333	1	0.029625
37.600000	1	0.028375
37.616667	1	0.027750
37.633333	1	0.026625
37.650000	1	0.025000
37.666667	1	0.023250
37.683333	1	0.022000
37.700000	1	0.020375
37.716667	1	0.019125
37.733333	1	0.018125
37.750000	1	0.016750
37.766667	1	0.014750
37.783333	1	0.013375
37.800000	1	0.011750
37.816667	1	0.008875
37.833333	1	0.006625
37.850000	1	0.004875
37.866667	1	0.003250
37.883333	1	0.001250
37.900000	1	-0.001250
37.916667	1	-0.003625
37.933333	1	-0.005250
37.950000	1	-0.007125
37.966667	1	-0.009000
37.983333	1	-0.010625
38.000000	1	-0.012500
38.016667	1	-0.014750
38.033333	1	-0.016125
38.050000	1	-0.017250
38.066667	1	-0.018500
38.083333	1	-0.018875
38.100000	1	-0.019250
38.116667	1	-0.020250
38.133333	1	-0.020750
38.150000	1	-0.020625
38.166667	1	-0.020125
38.183333	1	-0.019750
38.200000	1	-0.020000
38.216667	1	-0.020500
38.233333	1	-0.019875
38.250000	1	-0.019625
38.266667	1	-0.019125
38.283333	1	-0.018000
38.300000	1	-0.016875
38.316667	1	-0.016250
38.333333	1	-0.015750
38.350000	1	-0.014875
38.366667	1	-0.014625
38.383333	1	-0.013375
38.400000	1	-0.011875
38.416667	1	-0.011500
38.433333	1	-0.010875
38.450000	1	-0.010375
38.466667	1	-0.009375
38.483333	1	-0.008875
38.500000	1	-0.008000
38.516667	1	-0.008125
38.533333	1	-0.008250
38.550000	1	-0.008125
38.566667	1	-0.008125
38.583333	1	-0.008375
38.600000	1	-0.008250
38.616667	1	-0.008375
38.633333	1	-0.008875
38.650000	1	-0.009500
38.666667	1	-0.009125
38.683333	1	-0.009500
38.700000	1	-0.010000
38.716667	1	-0.010375
38.733333	1	-0.010750
38.750000	1	-0.011000
38.766667	1	-0.011500
38.783333	1	-0.012375
38.800000	1	-0.013250
38.816667	1	-0.013875
38.833333	1	-0.013875
38.850000	1	-0.014125
38.866667	1	-0.014250
38.883333	1	-0.014125
38.900000	1	-0.014875
38.916667	1	-0.014750
38.933333	1	-0.014500
38.950000	1	-0.015125
38.966667	1	-0.014875
38.983333	1	-0.015000
39.000000	1	-0.014375
39.016667	1	-0.014000
39.033333	1	-0.014125
39.050000	1	-0.014250
39.066667	1	-0.013750
39.083333	1	-0.013750
39.100000	1	-0.013375
39.116667	1	-0.012875
39.133333	1	-0.013000
39.150000	1	-0.013250
39.166667	1	-0.012750
39.183333	1	-0.012750
39.200000	1	-0.012875
39.216667	1	-0.013125
39.233333	1	-0.013125
39.250000	1	-0.013125
39.266667	1	-0.013625
39.283333	1	-0.013625
39.300000	1	-0.013500
39.316667	1	-0.014250
39.333333	1	-0.014500
39.350000	1	-0.014750
39.366667	1	-0.014750
39.383333	1	-0.015125
39.400000	1	-0.015000
39.416667	1	-0.015000
39.433333	1	-0.015875
39.450000	1	-0.016000
39.466667	1	-0.016500
39.483333	1	-0.016875
39.500000	1	-0.017375
39.516667	1	-0.017250
39.533333	1	-0.017875
39.550000	1	-0.018000
39.566667	1	-0.018500
39.583333	1	-0.018750
39.600000	1	-0.018875
39.616667	1	-0.019250
39.633333	1	-0.019125
39.650000	1	-0.019500
39.666667	1	-0.019250
39.683333	1	-0.019125
39.700000	1	-0.019625
39.716667	1	-0.019375
39.733333	1	-0.018750
39.750000	1	-0.018750
39.766667	1	-0.018750
39.783333	1	-0.018750
39.800000	1	-0.018375
39.816667	1	-0.017875
39.833333	1	-0.017000
39.850000	1	-0.016500
39.866667	1	-0.015625
39.883333	1	-0.015375
39.900000	1	-0.013500
39.916667	1	-0.013000
39.933333	1	-0.012125
39.950000	1	-0.011000
39.966667	1	-0.009875
39.983333	1	-0.009375
40.000000	1	-0.008000
