URL	chrom://bioreactor/micro_cm7/HPLC_Ultimate_3000/Users/markusar/20240708_MA_pHrange1.seq/587.smp/RI_1.channel/RI_1.chm
Channel	RI_1

Injection Information:
Data Vault	micro_cm7
Sequence	20240708_MA_pHrange1
Name	Pv1_6.5_2
Number	3
Position	BA3
Comment	
Processing Method	
Instrument Method	run_25B_method
Type	Unknown
Status	Finished
Inject Time	08.07.2024 16:56:22 +02:00
Volume (µl)	20.0000
Dilution Factor	1.0000
Weight	1.0000

Chromatogram Data Information:
Time Min. (min)	0.000000
Time Max. (min)	40.000000
Data Points	2401
Detector	RI
Generating Data System	Chromeleon 7.3.2.11814
Exporting Data System	Chromeleon 7.3.2.0
Operator	Instrument Controller
Signal Quantity	Refractive 
Signal Unit	µRIU
Signal Min.	-0.027125
Signal Max.	83.933875
Channel	RI_1
Driver Name	RID520Driver.dll
Channel Type	Evaluation
Min. Step (s)	1
Max. Step (s)	1
Average Step (s)	1

Signal Parameter Information:
Signal Info	

Chromatogram Data:
Time (min)	Step (s)	Value (µRIU)
0.000000	n.a.	-0.009125
0.016667	1	-0.009125
0.033333	1	-0.008875
0.050000	1	-0.009250
0.066667	1	-0.009375
0.083333	1	-0.009625
0.100000	1	-0.009875
0.116667	1	-0.010000
0.133333	1	-0.009500
0.150000	1	-0.009625
0.166667	1	-0.009500
0.183333	1	-0.009625
0.200000	1	-0.009625
0.216667	1	-0.009250
0.233333	1	-0.009250
0.250000	1	-0.008875
0.266667	1	-0.008750
0.283333	1	-0.008500
0.300000	1	-0.008250
0.316667	1	-0.007875
0.333333	1	-0.008125
0.350000	1	-0.008125
0.366667	1	-0.008625
0.383333	1	-0.009500
0.400000	1	-0.009750
0.416667	1	-0.008750
0.433333	1	-0.006750
0.450000	1	-0.004750
0.466667	1	-0.001875
0.483333	1	0.000250
0.500000	1	0.002000
0.516667	1	0.003625
0.533333	1	0.004000
0.550000	1	0.003750
0.566667	1	0.003125
0.583333	1	0.002250
0.600000	1	0.000750
0.616667	1	-0.000125
0.633333	1	-0.001125
0.650000	1	-0.001375
0.666667	1	-0.001625
0.683333	1	-0.001125
0.700000	1	-0.001375
0.716667	1	-0.000750
0.733333	1	-0.000125
0.750000	1	0.000000
0.766667	1	0.000125
0.783333	1	0.000250
0.800000	1	0.000625
0.816667	1	0.001125
0.833333	1	0.001875
0.850000	1	0.002375
0.866667	1	0.002625
0.883333	1	0.003875
0.900000	1	0.004625
0.916667	1	0.005250
0.933333	1	0.005750
0.950000	1	0.007500
0.966667	1	0.007750
0.983333	1	0.008750
1.000000	1	0.010000
1.016667	1	0.011125
1.033333	1	0.012500
1.050000	1	0.014000
1.066667	1	0.015250
1.083333	1	0.015625
1.100000	1	0.017125
1.116667	1	0.018625
1.133333	1	0.020750
1.150000	1	0.023375
1.166667	1	0.024125
1.183333	1	0.026125
1.200000	1	0.028125
1.216667	1	0.030375
1.233333	1	0.032500
1.250000	1	0.034250
1.266667	1	0.036125
1.283333	1	0.037000
1.300000	1	0.039000
1.316667	1	0.041000
1.333333	1	0.042000
1.350000	1	0.042500
1.366667	1	0.043625
1.383333	1	0.044625
1.400000	1	0.046000
1.416667	1	0.046375
1.433333	1	0.047125
1.450000	1	0.047750
1.466667	1	0.048125
1.483333	1	0.047875
1.500000	1	0.048250
1.516667	1	0.048875
1.533333	1	0.048875
1.550000	1	0.048375
1.566667	1	0.048875
1.583333	1	0.048500
1.600000	1	0.048250
1.616667	1	0.047625
1.633333	1	0.047750
1.650000	1	0.047000
1.666667	1	0.046375
1.683333	1	0.045750
1.700000	1	0.044750
1.716667	1	0.044125
1.733333	1	0.042375
1.750000	1	0.041250
1.766667	1	0.039125
1.783333	1	0.037375
1.800000	1	0.035625
1.816667	1	0.034000
1.833333	1	0.032375
1.850000	1	0.030375
1.866667	1	0.027625
1.883333	1	0.025250
1.900000	1	0.022625
1.916667	1	0.019750
1.933333	1	0.017250
1.950000	1	0.014750
1.966667	1	0.011625
1.983333	1	0.008250
2.000000	1	0.004875
2.016667	1	0.002000
2.033333	1	0.000000
2.050000	1	-0.002875
2.066667	1	-0.005500
2.083333	1	-0.008125
2.100000	1	-0.011625
2.116667	1	-0.013625
2.133333	1	-0.015625
2.150000	1	-0.017500
2.166667	1	-0.019625
2.183333	1	-0.021125
2.200000	1	-0.022875
2.216667	1	-0.023125
2.233333	1	-0.024125
2.250000	1	-0.024000
2.266667	1	-0.023625
2.283333	1	-0.023000
2.300000	1	-0.022000
2.316667	1	-0.020875
2.333333	1	-0.020375
2.350000	1	-0.019250
2.366667	1	-0.017250
2.383333	1	-0.014875
2.400000	1	-0.012500
2.416667	1	-0.010250
2.433333	1	-0.007500
2.450000	1	-0.004875
2.466667	1	-0.002875
2.483333	1	-0.001000
2.500000	1	0.001500
2.516667	1	0.004625
2.533333	1	0.007625
2.550000	1	0.010125
2.566667	1	0.012875
2.583333	1	0.015125
2.600000	1	0.017500
2.616667	1	0.019875
2.633333	1	0.022250
2.650000	1	0.024375
2.666667	1	0.026875
2.683333	1	0.029500
2.700000	1	0.030625
2.716667	1	0.032125
2.733333	1	0.033500
2.750000	1	0.034250
2.766667	1	0.035625
2.783333	1	0.036875
2.800000	1	0.037375
2.816667	1	0.038250
2.833333	1	0.038750
2.850000	1	0.038875
2.866667	1	0.039000
2.883333	1	0.039250
2.900000	1	0.039125
2.916667	1	0.039500
2.933333	1	0.039125
2.950000	1	0.038750
2.966667	1	0.038500
2.983333	1	0.038125
3.000000	1	0.036875
3.016667	1	0.036250
3.033333	1	0.036500
3.050000	1	0.035625
3.066667	1	0.035375
3.083333	1	0.034500
3.100000	1	0.034125
3.116667	1	0.033250
3.133333	1	0.032125
3.150000	1	0.032125
3.166667	1	0.032000
3.183333	1	0.031625
3.200000	1	0.031250
3.216667	1	0.030875
3.233333	1	0.031000
3.250000	1	0.030875
3.266667	1	0.031000
3.283333	1	0.030625
3.300000	1	0.030250
3.316667	1	0.030375
3.333333	1	0.030625
3.350000	1	0.030125
3.366667	1	0.029750
3.383333	1	0.029750
3.400000	1	0.030250
3.416667	1	0.030375
3.433333	1	0.030625
3.450000	1	0.030625
3.466667	1	0.030250
3.483333	1	0.029375
3.500000	1	0.028875
3.516667	1	0.028625
3.533333	1	0.028000
3.550000	1	0.026125
3.566667	1	0.024625
3.583333	1	0.023750
3.600000	1	0.022750
3.616667	1	0.020875
3.633333	1	0.020125
3.650000	1	0.018250
3.666667	1	0.016375
3.683333	1	0.014500
3.700000	1	0.013000
3.716667	1	0.011000
3.733333	1	0.009250
3.750000	1	0.007250
3.766667	1	0.005250
3.783333	1	0.003375
3.800000	1	0.001125
3.816667	1	-0.000625
3.833333	1	-0.001625
3.850000	1	-0.003750
3.866667	1	-0.005375
3.883333	1	-0.007375
3.900000	1	-0.008500
3.916667	1	-0.010750
3.933333	1	-0.012875
3.950000	1	-0.015000
3.966667	1	-0.015875
3.983333	1	-0.017375
4.000000	1	-0.019000
4.016667	1	-0.021000
4.033333	1	-0.021875
4.050000	1	-0.022750
4.066667	1	-0.023875
4.083333	1	-0.025125
4.100000	1	-0.025750
4.116667	1	-0.026000
4.133333	1	-0.027125
4.150000	1	-0.027000
4.166667	1	-0.026875
4.183333	1	-0.026750
4.200000	1	-0.025625
4.216667	1	-0.025125
4.233333	1	-0.025250
4.250000	1	-0.024375
4.266667	1	-0.023875
4.283333	1	-0.023500
4.300000	1	-0.022125
4.316667	1	-0.021750
4.333333	1	-0.020750
4.350000	1	-0.019750
4.366667	1	-0.018375
4.383333	1	-0.017125
4.400000	1	-0.015875
4.416667	1	-0.014500
4.433333	1	-0.014250
4.450000	1	-0.013875
4.466667	1	-0.012625
4.483333	1	-0.012000
4.500000	1	-0.011125
4.516667	1	-0.010250
4.533333	1	-0.009750
4.550000	1	-0.009125
4.566667	1	-0.008250
4.583333	1	-0.008125
4.600000	1	-0.007375
4.616667	1	-0.006500
4.633333	1	-0.005500
4.650000	1	-0.005375
4.666667	1	-0.005500
4.683333	1	-0.005000
4.700000	1	-0.005125
4.716667	1	-0.005125
4.733333	1	-0.005250
4.750000	1	-0.005375
4.766667	1	-0.005250
4.783333	1	-0.004750
4.800000	1	-0.005000
4.816667	1	-0.004625
4.833333	1	-0.003625
4.850000	1	-0.004375
4.866667	1	-0.004250
4.883333	1	-0.003625
4.900000	1	-0.003375
4.916667	1	-0.003250
4.933333	1	-0.002500
4.950000	1	-0.002250
4.966667	1	-0.002250
4.983333	1	-0.001875
5.000000	1	-0.000500
5.016667	1	0.001000
5.033333	1	0.003000
5.050000	1	0.005000
5.066667	1	0.007500
5.083333	1	0.010250
5.100000	1	0.012625
5.116667	1	0.015750
5.133333	1	0.019250
5.150000	1	0.022625
5.166667	1	0.026875
5.183333	1	0.031500
5.200000	1	0.035875
5.216667	1	0.040625
5.233333	1	0.045125
5.250000	1	0.050000
5.266667	1	0.055125
5.283333	1	0.060250
5.300000	1	0.066000
5.316667	1	0.072375
5.333333	1	0.078000
5.350000	1	0.083250
5.366667	1	0.089125
5.383333	1	0.094500
5.400000	1	0.099875
5.416667	1	0.105125
5.433333	1	0.110000
5.450000	1	0.114250
5.466667	1	0.119000
5.483333	1	0.123375
5.500000	1	0.127875
5.516667	1	0.131625
5.533333	1	0.135750
5.550000	1	0.138875
5.566667	1	0.141750
5.583333	1	0.144500
5.600000	1	0.147000
5.616667	1	0.148625
5.633333	1	0.150500
5.650000	1	0.151000
5.666667	1	0.152000
5.683333	1	0.152875
5.700000	1	0.152500
5.716667	1	0.151250
5.733333	1	0.150250
5.750000	1	0.148875
5.766667	1	0.146875
5.783333	1	0.144250
5.800000	1	0.142000
5.816667	1	0.139125
5.833333	1	0.136375
5.850000	1	0.133750
5.866667	1	0.130125
5.883333	1	0.125625
5.900000	1	0.121375
5.916667	1	0.117500
5.933333	1	0.113125
5.950000	1	0.109250
5.966667	1	0.105375
5.983333	1	0.101125
6.000000	1	0.097500
6.016667	1	0.094000
6.033333	1	0.090250
6.050000	1	0.087125
6.066667	1	0.084000
6.083333	1	0.081250
6.100000	1	0.078625
6.116667	1	0.076000
6.133333	1	0.073625
6.150000	1	0.072375
6.166667	1	0.070125
6.183333	1	0.069000
6.200000	1	0.067875
6.216667	1	0.066625
6.233333	1	0.065875
6.250000	1	0.064625
6.266667	1	0.063750
6.283333	1	0.063500
6.300000	1	0.063375
6.316667	1	0.063500
6.333333	1	0.063875
6.350000	1	0.064125
6.366667	1	0.064250
6.383333	1	0.064000
6.400000	1	0.064125
6.416667	1	0.064500
6.433333	1	0.064875
6.450000	1	0.064500
6.466667	1	0.064625
6.483333	1	0.064750
6.500000	1	0.065000
6.516667	1	0.065125
6.533333	1	0.065375
6.550000	1	0.065000
6.566667	1	0.065375
6.583333	1	0.066000
6.600000	1	0.066000
6.616667	1	0.067375
6.633333	1	0.068250
6.650000	1	0.068250
6.666667	1	0.068750
6.683333	1	0.069625
6.700000	1	0.069875
6.716667	1	0.070875
6.733333	1	0.071750
6.750000	1	0.072375
6.766667	1	0.073125
6.783333	1	0.074375
6.800000	1	0.075250
6.816667	1	0.075875
6.833333	1	0.077500
6.850000	1	0.078500
6.866667	1	0.079500
6.883333	1	0.080875
6.900000	1	0.082625
6.916667	1	0.083875
6.933333	1	0.084375
6.950000	1	0.086125
6.966667	1	0.087625
6.983333	1	0.090250
7.000000	1	0.092250
7.016667	1	0.094125
7.033333	1	0.096125
7.050000	1	0.097625
7.066667	1	0.099750
7.083333	1	0.102250
7.100000	1	0.104375
7.116667	1	0.106625
7.133333	1	0.109000
7.150000	1	0.110750
7.166667	1	0.112750
7.183333	1	0.114500
7.200000	1	0.116125
7.216667	1	0.118125
7.233333	1	0.119250
7.250000	1	0.120750
7.266667	1	0.121625
7.283333	1	0.122750
7.300000	1	0.123375
7.316667	1	0.124375
7.333333	1	0.125125
7.350000	1	0.125750
7.366667	1	0.126625
7.383333	1	0.127125
7.400000	1	0.126250
7.416667	1	0.126875
7.433333	1	0.126500
7.450000	1	0.125125
7.466667	1	0.124875
7.483333	1	0.124125
7.500000	1	0.122875
7.516667	1	0.122375
7.533333	1	0.122250
7.550000	1	0.121500
7.566667	1	0.120750
7.583333	1	0.119750
7.600000	1	0.117875
7.616667	1	0.116750
7.633333	1	0.114875
7.650000	1	0.113375
7.666667	1	0.111500
7.683333	1	0.110000
7.700000	1	0.108500
7.716667	1	0.107375
7.733333	1	0.106250
7.750000	1	0.104250
7.766667	1	0.102500
7.783333	1	0.101000
7.800000	1	0.099000
7.816667	1	0.097500
7.833333	1	0.095500
7.850000	1	0.092750
7.866667	1	0.090250
7.883333	1	0.088500
7.900000	1	0.086125
7.916667	1	0.083500
7.933333	1	0.081000
7.950000	1	0.079125
7.966667	1	0.076500
7.983333	1	0.074000
8.000000	1	0.071750
8.016667	1	0.069875
8.033333	1	0.067625
8.050000	1	0.065125
8.066667	1	0.063250
8.083333	1	0.061375
8.100000	1	0.059625
8.116667	1	0.057750
8.133333	1	0.056500
8.150000	1	0.054875
8.166667	1	0.053375
8.183333	1	0.052375
8.200000	1	0.052125
8.216667	1	0.050875
8.233333	1	0.050250
8.250000	1	0.050000
8.266667	1	0.049375
8.283333	1	0.049500
8.300000	1	0.049750
8.316667	1	0.049625
8.333333	1	0.050000
8.350000	1	0.049875
8.366667	1	0.050375
8.383333	1	0.050625
8.400000	1	0.050375
8.416667	1	0.050000
8.433333	1	0.050375
8.450000	1	0.050000
8.466667	1	0.050000
8.483333	1	0.049250
8.500000	1	0.048875
8.516667	1	0.047375
8.533333	1	0.046875
8.550000	1	0.046125
8.566667	1	0.045250
8.583333	1	0.043625
8.600000	1	0.041875
8.616667	1	0.040875
8.633333	1	0.040000
8.650000	1	0.037875
8.666667	1	0.035875
8.683333	1	0.034125
8.700000	1	0.032625
8.716667	1	0.031000
8.733333	1	0.029375
8.750000	1	0.028125
8.766667	1	0.026625
8.783333	1	0.025000
8.800000	1	0.025125
8.816667	1	0.023500
8.833333	1	0.022250
8.850000	1	0.022125
8.866667	1	0.022250
8.883333	1	0.022125
8.900000	1	0.022125
8.916667	1	0.022250
8.933333	1	0.022875
8.950000	1	0.023375
8.966667	1	0.024375
8.983333	1	0.025625
9.000000	1	0.026125
9.016667	1	0.027750
9.033333	1	0.029375
9.050000	1	0.030125
9.066667	1	0.031250
9.083333	1	0.032750
9.100000	1	0.034500
9.116667	1	0.036875
9.133333	1	0.038125
9.150000	1	0.040125
9.166667	1	0.042250
9.183333	1	0.043625
9.200000	1	0.044875
9.216667	1	0.045750
9.233333	1	0.047250
9.250000	1	0.048875
9.266667	1	0.049875
9.283333	1	0.050125
9.300000	1	0.051500
9.316667	1	0.052750
9.333333	1	0.054500
9.350000	1	0.055875
9.366667	1	0.056500
9.383333	1	0.057125
9.400000	1	0.058125
9.416667	1	0.058875
9.433333	1	0.059625
9.450000	1	0.060750
9.466667	1	0.061750
9.483333	1	0.063125
9.500000	1	0.064375
9.516667	1	0.066000
9.533333	1	0.067625
9.550000	1	0.069000
9.566667	1	0.070625
9.583333	1	0.072250
9.600000	1	0.074375
9.616667	1	0.076000
9.633333	1	0.077375
9.650000	1	0.080625
9.666667	1	0.082875
9.683333	1	0.085000
9.700000	1	0.087375
9.716667	1	0.089750
9.733333	1	0.092000
9.750000	1	0.094500
9.766667	1	0.096500
9.783333	1	0.098875
9.800000	1	0.101500
9.816667	1	0.104250
9.833333	1	0.106500
9.850000	1	0.109375
9.866667	1	0.111375
9.883333	1	0.112875
9.900000	1	0.114625
9.916667	1	0.116250
9.933333	1	0.117625
9.950000	1	0.118750
9.966667	1	0.119875
9.983333	1	0.120125
10.000000	1	0.119750
10.016667	1	0.119750
10.033333	1	0.119875
10.050000	1	0.119875
10.066667	1	0.120125
10.083333	1	0.120625
10.100000	1	0.122250
10.116667	1	0.125250
10.133333	1	0.128375
10.150000	1	0.133750
10.166667	1	0.140250
10.183333	1	0.147250
10.200000	1	0.156375
10.216667	1	0.167375
10.233333	1	0.180250
10.250000	1	0.195500
10.266667	1	0.212625
10.283333	1	0.233250
10.300000	1	0.255875
10.316667	1	0.281875
10.333333	1	0.310875
10.350000	1	0.342250
10.366667	1	0.375375
10.383333	1	0.408625
10.400000	1	0.440375
10.416667	1	0.467750
10.433333	1	0.484625
10.450000	1	0.484875
10.466667	1	0.461125
10.483333	1	0.411125
10.500000	1	0.339500
10.516667	1	0.267375
10.533333	1	0.236375
10.550000	1	0.311375
10.566667	1	0.574125
10.583333	1	1.114375
10.600000	1	2.020875
10.616667	1	3.370250
10.633333	1	5.219875
10.650000	1	7.603250
10.666667	1	10.541500
10.683333	1	14.031250
10.700000	1	18.050500
10.716667	1	22.547375
10.733333	1	27.433125
10.750000	1	32.564875
10.766667	1	37.723375
10.783333	1	42.602500
10.800000	1	46.800000
10.816667	1	49.844500
10.833333	1	51.294750
10.850000	1	50.872250
10.866667	1	48.568750
10.883333	1	44.679125
10.900000	1	39.719625
10.916667	1	34.278250
10.933333	1	28.865125
10.950000	1	23.840375
10.966667	1	19.405500
10.983333	1	15.636750
11.000000	1	12.526375
11.016667	1	10.016625
11.033333	1	8.028750
11.050000	1	6.477000
11.066667	1	5.275625
11.083333	1	4.352375
11.100000	1	3.643250
11.116667	1	3.098875
11.133333	1	2.679750
11.150000	1	2.355000
11.166667	1	2.100250
11.183333	1	1.897875
11.200000	1	1.734875
11.216667	1	1.601625
11.233333	1	1.492375
11.250000	1	1.400250
11.266667	1	1.322625
11.283333	1	1.256500
11.300000	1	1.199750
11.316667	1	1.150125
11.333333	1	1.107125
11.350000	1	1.069125
11.366667	1	1.036125
11.383333	1	1.007500
11.400000	1	0.981875
11.416667	1	0.959625
11.433333	1	0.940500
11.450000	1	0.923375
11.466667	1	0.908250
11.483333	1	0.895250
11.500000	1	0.883875
11.516667	1	0.875000
11.533333	1	0.867875
11.550000	1	0.862000
11.566667	1	0.856625
11.583333	1	0.853625
11.600000	1	0.851750
11.616667	1	0.851125
11.633333	1	0.851750
11.650000	1	0.853875
11.666667	1	0.857750
11.683333	1	0.862875
11.700000	1	0.868500
11.716667	1	0.876625
11.733333	1	0.885375
11.750000	1	0.894375
11.766667	1	0.904125
11.783333	1	0.914250
11.800000	1	0.924500
11.816667	1	0.934375
11.833333	1	0.943875
11.850000	1	0.952500
11.866667	1	0.960000
11.883333	1	0.967000
11.900000	1	0.973375
11.916667	1	0.978375
11.933333	1	0.982125
11.950000	1	0.986125
11.966667	1	0.990250
11.983333	1	0.993875
12.000000	1	0.997375
12.016667	1	1.001500
12.033333	1	1.005625
12.050000	1	1.010375
12.066667	1	1.016000
12.083333	1	1.022250
12.100000	1	1.028375
12.116667	1	1.035000
12.133333	1	1.042375
12.150000	1	1.050750
12.166667	1	1.060250
12.183333	1	1.070375
12.200000	1	1.082375
12.216667	1	1.095875
12.233333	1	1.111500
12.250000	1	1.130750
12.266667	1	1.154625
12.283333	1	1.184000
12.300000	1	1.221250
12.316667	1	1.269500
12.333333	1	1.331250
12.350000	1	1.409750
12.366667	1	1.510250
12.383333	1	1.637625
12.400000	1	1.795625
12.416667	1	1.990375
12.433333	1	2.227000
12.450000	1	2.509500
12.466667	1	2.844000
12.483333	1	3.233500
12.500000	1	3.682000
12.516667	1	4.191875
12.533333	1	4.761125
12.550000	1	5.386750
12.566667	1	6.061875
12.583333	1	6.775500
12.600000	1	7.514375
12.616667	1	8.262000
12.633333	1	9.003000
12.650000	1	9.722500
12.666667	1	10.409500
12.683333	1	11.055250
12.700000	1	11.657500
12.716667	1	12.217125
12.733333	1	12.740500
12.750000	1	13.236500
12.766667	1	13.717500
12.783333	1	14.193000
12.800000	1	14.675000
12.816667	1	15.170125
12.833333	1	15.688750
12.850000	1	16.235250
12.866667	1	16.813125
12.883333	1	17.423625
12.900000	1	18.066875
12.916667	1	18.741875
12.933333	1	19.447750
12.950000	1	20.182500
12.966667	1	20.944125
12.983333	1	21.731750
13.000000	1	22.542250
13.016667	1	23.373750
13.033333	1	24.226875
13.050000	1	25.101250
13.066667	1	25.997125
13.083333	1	26.913625
13.100000	1	27.849875
13.116667	1	28.806250
13.133333	1	29.781000
13.150000	1	30.774625
13.166667	1	31.786625
13.183333	1	32.818500
13.200000	1	33.868375
13.216667	1	34.936625
13.233333	1	36.025250
13.250000	1	37.133375
13.266667	1	38.264125
13.283333	1	39.415750
13.300000	1	40.590750
13.316667	1	41.789250
13.333333	1	43.011250
13.350000	1	44.256625
13.366667	1	45.526750
13.383333	1	46.821250
13.400000	1	48.140500
13.416667	1	49.484625
13.433333	1	50.854625
13.450000	1	52.253750
13.466667	1	53.682625
13.483333	1	55.143125
13.500000	1	56.633875
13.516667	1	58.156125
13.533333	1	59.709375
13.550000	1	61.294875
13.566667	1	62.912375
13.583333	1	64.563500
13.600000	1	66.246750
13.616667	1	67.964625
13.633333	1	69.719250
13.650000	1	71.513000
13.666667	1	73.346125
13.683333	1	75.220125
13.700000	1	77.129375
13.716667	1	79.055250
13.733333	1	80.923750
13.750000	1	82.571250
13.766667	1	83.708125
13.783333	1	83.933875
13.800000	1	82.779375
13.816667	1	79.789750
13.833333	1	74.674375
13.850000	1	67.502750
13.866667	1	58.811750
13.883333	1	49.490500
13.900000	1	40.469125
13.916667	1	32.432375
13.933333	1	25.693875
13.950000	1	20.266000
13.966667	1	16.000500
13.983333	1	12.699875
14.000000	1	10.175750
14.016667	1	8.264250
14.033333	1	6.832375
14.050000	1	5.771750
14.066667	1	4.990500
14.083333	1	4.415125
14.100000	1	3.990000
14.116667	1	3.670625
14.133333	1	3.427750
14.150000	1	3.238500
14.166667	1	3.089125
14.183333	1	2.967000
14.200000	1	2.865375
14.216667	1	2.778875
14.233333	1	2.704875
14.250000	1	2.640250
14.266667	1	2.582625
14.283333	1	2.531625
14.300000	1	2.486500
14.316667	1	2.446250
14.333333	1	2.411250
14.350000	1	2.381000
14.366667	1	2.355625
14.383333	1	2.336250
14.400000	1	2.323500
14.416667	1	2.318000
14.433333	1	2.323625
14.450000	1	2.341625
14.466667	1	2.378375
14.483333	1	2.441625
14.500000	1	2.543250
14.516667	1	2.702500
14.533333	1	2.943750
14.550000	1	3.302250
14.566667	1	3.825125
14.583333	1	4.571000
14.600000	1	5.611625
14.616667	1	7.032000
14.633333	1	8.925125
14.650000	1	11.382250
14.666667	1	14.485125
14.683333	1	18.291250
14.700000	1	22.821250
14.716667	1	28.042500
14.733333	1	33.867000
14.750000	1	40.141750
14.766667	1	46.651250
14.783333	1	53.121875
14.800000	1	59.255625
14.816667	1	64.748875
14.833333	1	69.310375
14.850000	1	72.692625
14.866667	1	74.718250
14.883333	1	75.300000
14.900000	1	74.443625
14.916667	1	72.250625
14.933333	1	68.898500
14.950000	1	64.619875
14.966667	1	59.676625
14.983333	1	54.337875
15.000000	1	48.843375
15.016667	1	43.399875
15.033333	1	38.172625
15.050000	1	33.283875
15.066667	1	28.813625
15.083333	1	24.801250
15.100000	1	21.258625
15.116667	1	18.173000
15.133333	1	15.513625
15.150000	1	13.239625
15.166667	1	11.311250
15.183333	1	9.686875
15.200000	1	8.323500
15.216667	1	7.183125
15.233333	1	6.233125
15.250000	1	5.444750
15.266667	1	4.793500
15.283333	1	4.257750
15.300000	1	3.820125
15.316667	1	3.466125
15.333333	1	3.182625
15.350000	1	2.957500
15.366667	1	2.782000
15.383333	1	2.648000
15.400000	1	2.548125
15.416667	1	2.473750
15.433333	1	2.419875
15.450000	1	2.380125
15.466667	1	2.350500
15.483333	1	2.324875
15.500000	1	2.300375
15.516667	1	2.274375
15.533333	1	2.245250
15.550000	1	2.212250
15.566667	1	2.176500
15.583333	1	2.139000
15.600000	1	2.100000
15.616667	1	2.060500
15.633333	1	2.022000
15.650000	1	1.986000
15.666667	1	1.952500
15.683333	1	1.921750
15.700000	1	1.892000
15.716667	1	1.864750
15.733333	1	1.838625
15.750000	1	1.811875
15.766667	1	1.784750
15.783333	1	1.757125
15.800000	1	1.728500
15.816667	1	1.699375
15.833333	1	1.669875
15.850000	1	1.640250
15.866667	1	1.611500
15.883333	1	1.584750
15.900000	1	1.560750
15.916667	1	1.538625
15.933333	1	1.520500
15.950000	1	1.505875
15.966667	1	1.493750
15.983333	1	1.484500
16.000000	1	1.478500
16.016667	1	1.474250
16.033333	1	1.471000
16.050000	1	1.468125
16.066667	1	1.464625
16.083333	1	1.460625
16.100000	1	1.454625
16.116667	1	1.447500
16.133333	1	1.438000
16.150000	1	1.426625
16.166667	1	1.413500
16.183333	1	1.399125
16.200000	1	1.383250
16.216667	1	1.365875
16.233333	1	1.347000
16.250000	1	1.328250
16.266667	1	1.307875
16.283333	1	1.287500
16.300000	1	1.266750
16.316667	1	1.245750
16.333333	1	1.226125
16.350000	1	1.207500
16.366667	1	1.189750
16.383333	1	1.174000
16.400000	1	1.160375
16.416667	1	1.149375
16.433333	1	1.140875
16.450000	1	1.135500
16.466667	1	1.131875
16.483333	1	1.131375
16.500000	1	1.132625
16.516667	1	1.134875
16.533333	1	1.137750
16.550000	1	1.140875
16.566667	1	1.143250
16.583333	1	1.144125
16.600000	1	1.143875
16.616667	1	1.142875
16.633333	1	1.139875
16.650000	1	1.135375
16.666667	1	1.130250
16.683333	1	1.123125
16.700000	1	1.117125
16.716667	1	1.112625
16.733333	1	1.107750
16.750000	1	1.105750
16.766667	1	1.105000
16.783333	1	1.105625
16.800000	1	1.107750
16.816667	1	1.112875
16.833333	1	1.118125
16.850000	1	1.124250
16.866667	1	1.130375
16.883333	1	1.134750
16.900000	1	1.138625
16.916667	1	1.141250
16.933333	1	1.142000
16.950000	1	1.141750
16.966667	1	1.140500
16.983333	1	1.137375
17.000000	1	1.133500
17.016667	1	1.128125
17.033333	1	1.122000
17.050000	1	1.116625
17.066667	1	1.110875
17.083333	1	1.105625
17.100000	1	1.100625
17.116667	1	1.096875
17.133333	1	1.094125
17.150000	1	1.092500
17.166667	1	1.091375
17.183333	1	1.091125
17.200000	1	1.091750
17.216667	1	1.094625
17.233333	1	1.098000
17.250000	1	1.101500
17.266667	1	1.105500
17.283333	1	1.110500
17.300000	1	1.115625
17.316667	1	1.120500
17.333333	1	1.126625
17.350000	1	1.133000
17.366667	1	1.139625
17.383333	1	1.145250
17.400000	1	1.151250
17.416667	1	1.156625
17.433333	1	1.160125
17.450000	1	1.162000
17.466667	1	1.162750
17.483333	1	1.162750
17.500000	1	1.160375
17.516667	1	1.156125
17.533333	1	1.150250
17.550000	1	1.142750
17.566667	1	1.134625
17.583333	1	1.124000
17.600000	1	1.113125
17.616667	1	1.100625
17.633333	1	1.087625
17.650000	1	1.074000
17.666667	1	1.059625
17.683333	1	1.044625
17.700000	1	1.029875
17.716667	1	1.015125
17.733333	1	1.001250
17.750000	1	0.987375
17.766667	1	0.975375
17.783333	1	0.963250
17.800000	1	0.951375
17.816667	1	0.941000
17.833333	1	0.930250
17.850000	1	0.920125
17.866667	1	0.911375
17.883333	1	0.902875
17.900000	1	0.895250
17.916667	1	0.887750
17.933333	1	0.880750
17.950000	1	0.873375
17.966667	1	0.866625
17.983333	1	0.860125
18.000000	1	0.853000
18.016667	1	0.846000
18.033333	1	0.839125
18.050000	1	0.832250
18.066667	1	0.824750
18.083333	1	0.818625
18.100000	1	0.812625
18.116667	1	0.806625
18.133333	1	0.801750
18.150000	1	0.798250
18.166667	1	0.795125
18.183333	1	0.792500
18.200000	1	0.790750
18.216667	1	0.790500
18.233333	1	0.789750
18.250000	1	0.789875
18.266667	1	0.789875
18.283333	1	0.790375
18.300000	1	0.790625
18.316667	1	0.791250
18.333333	1	0.792000
18.350000	1	0.793125
18.366667	1	0.794250
18.383333	1	0.796625
18.400000	1	0.799750
18.416667	1	0.803375
18.433333	1	0.809125
18.450000	1	0.815750
18.466667	1	0.824750
18.483333	1	0.834875
18.500000	1	0.846375
18.516667	1	0.860375
18.533333	1	0.876750
18.550000	1	0.894500
18.566667	1	0.914250
18.583333	1	0.936000
18.600000	1	0.959875
18.616667	1	0.985750
18.633333	1	1.012375
18.650000	1	1.040375
18.666667	1	1.070250
18.683333	1	1.101250
18.700000	1	1.134250
18.716667	1	1.166625
18.733333	1	1.200875
18.750000	1	1.235125
18.766667	1	1.269375
18.783333	1	1.303125
18.800000	1	1.335750
18.816667	1	1.366750
18.833333	1	1.394750
18.850000	1	1.419375
18.866667	1	1.440250
18.883333	1	1.455375
18.900000	1	1.464500
18.916667	1	1.468000
18.933333	1	1.464000
18.950000	1	1.452875
18.966667	1	1.434625
18.983333	1	1.410375
19.000000	1	1.379250
19.016667	1	1.342875
19.033333	1	1.301750
19.050000	1	1.256875
19.066667	1	1.210000
19.083333	1	1.162375
19.100000	1	1.115000
19.116667	1	1.070875
19.133333	1	1.030500
19.150000	1	0.995625
19.166667	1	0.968000
19.183333	1	0.950000
19.200000	1	0.942375
19.216667	1	0.946875
19.233333	1	0.965375
19.250000	1	0.999750
19.266667	1	1.050250
19.283333	1	1.118875
19.300000	1	1.205000
19.316667	1	1.308500
19.333333	1	1.429250
19.350000	1	1.565250
19.366667	1	1.713875
19.383333	1	1.870750
19.400000	1	2.032750
19.416667	1	2.194250
19.433333	1	2.350625
19.450000	1	2.496375
19.466667	1	2.625875
19.483333	1	2.735000
19.500000	1	2.820125
19.516667	1	2.878625
19.533333	1	2.908750
19.550000	1	2.910625
19.566667	1	2.885375
19.583333	1	2.834875
19.600000	1	2.761125
19.616667	1	2.668500
19.633333	1	2.559625
19.650000	1	2.439750
19.666667	1	2.311500
19.683333	1	2.179750
19.700000	1	2.046750
19.716667	1	1.915750
19.733333	1	1.788250
19.750000	1	1.666000
19.766667	1	1.550750
19.783333	1	1.442250
19.800000	1	1.341500
19.816667	1	1.248000
19.833333	1	1.161875
19.850000	1	1.083375
19.866667	1	1.011750
19.883333	1	0.947625
19.900000	1	0.889375
19.916667	1	0.836875
19.933333	1	0.790250
19.950000	1	0.749250
19.966667	1	0.713125
19.983333	1	0.681625
20.000000	1	0.655625
20.016667	1	0.633875
20.033333	1	0.617000
20.050000	1	0.603250
20.066667	1	0.594125
20.083333	1	0.588875
20.100000	1	0.587875
20.116667	1	0.589875
20.133333	1	0.595875
20.150000	1	0.604250
20.166667	1	0.615125
20.183333	1	0.627625
20.200000	1	0.640625
20.216667	1	0.653250
20.233333	1	0.666000
20.250000	1	0.677000
20.266667	1	0.686000
20.283333	1	0.692375
20.300000	1	0.695250
20.316667	1	0.693875
20.333333	1	0.689875
20.350000	1	0.681750
20.366667	1	0.670625
20.383333	1	0.656500
20.400000	1	0.640500
20.416667	1	0.622250
20.433333	1	0.603375
20.450000	1	0.584500
20.466667	1	0.566125
20.483333	1	0.549500
20.500000	1	0.535375
20.516667	1	0.524375
20.533333	1	0.517250
20.550000	1	0.515000
20.566667	1	0.519000
20.583333	1	0.529375
20.600000	1	0.547625
20.616667	1	0.573625
20.633333	1	0.608250
20.650000	1	0.652750
20.666667	1	0.705625
20.683333	1	0.767625
20.700000	1	0.838375
20.716667	1	0.916375
20.733333	1	0.999750
20.750000	1	1.088000
20.766667	1	1.178375
20.783333	1	1.268375
20.800000	1	1.354375
20.816667	1	1.433625
20.833333	1	1.504250
20.850000	1	1.563500
20.866667	1	1.609000
20.883333	1	1.639000
20.900000	1	1.653375
20.916667	1	1.652500
20.933333	1	1.635000
20.950000	1	1.603375
20.966667	1	1.559625
20.983333	1	1.505125
21.000000	1	1.441625
21.016667	1	1.371125
21.033333	1	1.297500
21.050000	1	1.221375
21.066667	1	1.145500
21.083333	1	1.071625
21.100000	1	1.000375
21.116667	1	0.932750
21.133333	1	0.870125
21.150000	1	0.811250
21.166667	1	0.757250
21.183333	1	0.708500
21.200000	1	0.664750
21.216667	1	0.626375
21.233333	1	0.592625
21.250000	1	0.562375
21.266667	1	0.535750
21.283333	1	0.512875
21.300000	1	0.492500
21.316667	1	0.475750
21.333333	1	0.460625
21.350000	1	0.447875
21.366667	1	0.436250
21.383333	1	0.426500
21.400000	1	0.417875
21.416667	1	0.409875
21.433333	1	0.403500
21.450000	1	0.398000
21.466667	1	0.393375
21.483333	1	0.389500
21.500000	1	0.385875
21.516667	1	0.383125
21.533333	1	0.381250
21.550000	1	0.380750
21.566667	1	0.380375
21.583333	1	0.381000
21.600000	1	0.382625
21.616667	1	0.385750
21.633333	1	0.389250
21.650000	1	0.394500
21.666667	1	0.400625
21.683333	1	0.407875
21.700000	1	0.416375
21.716667	1	0.425875
21.733333	1	0.437250
21.750000	1	0.449750
21.766667	1	0.462125
21.783333	1	0.475250
21.800000	1	0.489625
21.816667	1	0.504250
21.833333	1	0.519250
21.850000	1	0.533625
21.866667	1	0.548500
21.883333	1	0.561250
21.900000	1	0.574125
21.916667	1	0.585625
21.933333	1	0.595625
21.950000	1	0.605750
21.966667	1	0.614125
21.983333	1	0.621000
22.000000	1	0.626500
22.016667	1	0.630500
22.033333	1	0.633375
22.050000	1	0.635250
22.066667	1	0.635875
22.083333	1	0.635500
22.100000	1	0.634875
22.116667	1	0.633500
22.133333	1	0.631375
22.150000	1	0.627375
22.166667	1	0.622875
22.183333	1	0.617125
22.200000	1	0.610625
22.216667	1	0.602250
22.233333	1	0.593250
22.250000	1	0.583875
22.266667	1	0.573250
22.283333	1	0.561625
22.300000	1	0.550000
22.316667	1	0.538000
22.333333	1	0.525250
22.350000	1	0.512125
22.366667	1	0.498375
22.383333	1	0.485375
22.400000	1	0.472375
22.416667	1	0.459125
22.433333	1	0.446500
22.450000	1	0.434875
22.466667	1	0.423000
22.483333	1	0.412375
22.500000	1	0.402125
22.516667	1	0.392625
22.533333	1	0.383375
22.550000	1	0.375125
22.566667	1	0.367625
22.583333	1	0.360500
22.600000	1	0.353375
22.616667	1	0.346375
22.633333	1	0.340625
22.650000	1	0.335000
22.666667	1	0.329500
22.683333	1	0.324000
22.700000	1	0.318750
22.716667	1	0.314250
22.733333	1	0.309625
22.750000	1	0.305875
22.766667	1	0.302000
22.783333	1	0.297875
22.800000	1	0.294375
22.816667	1	0.290625
22.833333	1	0.287125
22.850000	1	0.284500
22.866667	1	0.281875
22.883333	1	0.279500
22.900000	1	0.277000
22.916667	1	0.275250
22.933333	1	0.274625
22.950000	1	0.273500
22.966667	1	0.272875
22.983333	1	0.272000
23.000000	1	0.271500
23.016667	1	0.272375
23.033333	1	0.273250
23.050000	1	0.273875
23.066667	1	0.274875
23.083333	1	0.276250
23.100000	1	0.277250
23.116667	1	0.278375
23.133333	1	0.280375
23.150000	1	0.283000
23.166667	1	0.284375
23.183333	1	0.285625
23.200000	1	0.286000
23.216667	1	0.287750
23.233333	1	0.289000
23.250000	1	0.291125
23.266667	1	0.293750
23.283333	1	0.297625
23.300000	1	0.302875
23.316667	1	0.309875
23.333333	1	0.318250
23.350000	1	0.330250
23.366667	1	0.346250
23.383333	1	0.367875
23.400000	1	0.396000
23.416667	1	0.431125
23.433333	1	0.476750
23.450000	1	0.534375
23.466667	1	0.604250
23.483333	1	0.690000
23.500000	1	0.793500
23.516667	1	0.918000
23.533333	1	1.063500
23.550000	1	1.232250
23.566667	1	1.426125
23.583333	1	1.644250
23.600000	1	1.886625
23.616667	1	2.150500
23.633333	1	2.435500
23.650000	1	2.737125
23.666667	1	3.050625
23.683333	1	3.371250
23.700000	1	3.693625
23.716667	1	4.010375
23.733333	1	4.315250
23.750000	1	4.598875
23.766667	1	4.856375
23.783333	1	5.080125
23.800000	1	5.264500
23.816667	1	5.406125
23.833333	1	5.500875
23.850000	1	5.548500
23.866667	1	5.549375
23.883333	1	5.503250
23.900000	1	5.413625
23.916667	1	5.284250
23.933333	1	5.117750
23.950000	1	4.922750
23.966667	1	4.702875
23.983333	1	4.464250
24.000000	1	4.212625
24.016667	1	3.953750
24.033333	1	3.692125
24.050000	1	3.432250
24.066667	1	3.178500
24.083333	1	2.932375
24.100000	1	2.696250
24.116667	1	2.472875
24.133333	1	2.262625
24.150000	1	2.066375
24.166667	1	1.885000
24.183333	1	1.717250
24.200000	1	1.564000
24.216667	1	1.424000
24.233333	1	1.297625
24.250000	1	1.182750
24.266667	1	1.080125
24.283333	1	0.987875
24.300000	1	0.904875
24.316667	1	0.830875
24.333333	1	0.765625
24.350000	1	0.707625
24.366667	1	0.657375
24.383333	1	0.613375
24.400000	1	0.574875
24.416667	1	0.542250
24.433333	1	0.513875
24.450000	1	0.490750
24.466667	1	0.470750
24.483333	1	0.454375
24.500000	1	0.440500
24.516667	1	0.428875
24.533333	1	0.418875
24.550000	1	0.410250
24.566667	1	0.402375
24.583333	1	0.395875
24.600000	1	0.389750
24.616667	1	0.384000
24.633333	1	0.378750
24.650000	1	0.373125
24.666667	1	0.367250
24.683333	1	0.361375
24.700000	1	0.355500
24.716667	1	0.349375
24.733333	1	0.342625
24.750000	1	0.335250
24.766667	1	0.328000
24.783333	1	0.321250
24.800000	1	0.313750
24.816667	1	0.306500
24.833333	1	0.300250
24.850000	1	0.293000
24.866667	1	0.287500
24.883333	1	0.281125
24.900000	1	0.275750
24.916667	1	0.270250
24.933333	1	0.264875
24.950000	1	0.260125
24.966667	1	0.255875
24.983333	1	0.251750
25.000000	1	0.248750
25.016667	1	0.245625
25.033333	1	0.242500
25.050000	1	0.240000
25.066667	1	0.238625
25.083333	1	0.236375
25.100000	1	0.234500
25.116667	1	0.232875
25.133333	1	0.230875
25.150000	1	0.229250
25.166667	1	0.227375
25.183333	1	0.226000
25.200000	1	0.224500
25.216667	1	0.224125
25.233333	1	0.223000
25.250000	1	0.221625
25.266667	1	0.220250
25.283333	1	0.218875
25.300000	1	0.217500
25.316667	1	0.216500
25.333333	1	0.215375
25.350000	1	0.214250
25.366667	1	0.213500
25.383333	1	0.212250
25.400000	1	0.211375
25.416667	1	0.211125
25.433333	1	0.210625
25.450000	1	0.210125
25.466667	1	0.210750
25.483333	1	0.211000
25.500000	1	0.211750
25.516667	1	0.213000
25.533333	1	0.213375
25.550000	1	0.214375
25.566667	1	0.215375
25.583333	1	0.216750
25.600000	1	0.217375
25.616667	1	0.218500
25.633333	1	0.219250
25.650000	1	0.219875
25.666667	1	0.220125
25.683333	1	0.220250
25.700000	1	0.220000
25.716667	1	0.219250
25.733333	1	0.218250
25.750000	1	0.217250
25.766667	1	0.216500
25.783333	1	0.215625
25.800000	1	0.214625
25.816667	1	0.213375
25.833333	1	0.211375
25.850000	1	0.209875
25.866667	1	0.208625
25.883333	1	0.207625
25.900000	1	0.207000
25.916667	1	0.206000
25.933333	1	0.205500
25.950000	1	0.206125
25.966667	1	0.207125
25.983333	1	0.208750
26.000000	1	0.210625
26.016667	1	0.212250
26.033333	1	0.214750
26.050000	1	0.218750
26.066667	1	0.223875
26.083333	1	0.229125
26.100000	1	0.234750
26.116667	1	0.240750
26.133333	1	0.247000
26.150000	1	0.253250
26.166667	1	0.259500
26.183333	1	0.266250
26.200000	1	0.272750
26.216667	1	0.279250
26.233333	1	0.286125
26.250000	1	0.292375
26.266667	1	0.298500
26.283333	1	0.302875
26.300000	1	0.308000
26.316667	1	0.311750
26.333333	1	0.314375
26.350000	1	0.317250
26.366667	1	0.319000
26.383333	1	0.320500
26.400000	1	0.320000
26.416667	1	0.319750
26.433333	1	0.317875
26.450000	1	0.315875
26.466667	1	0.313250
26.483333	1	0.310125
26.500000	1	0.306125
26.516667	1	0.301000
26.533333	1	0.295750
26.550000	1	0.290000
26.566667	1	0.283625
26.583333	1	0.277750
26.600000	1	0.271500
26.616667	1	0.265250
26.633333	1	0.258125
26.650000	1	0.250375
26.666667	1	0.243125
26.683333	1	0.236125
26.700000	1	0.229000
26.716667	1	0.222500
26.733333	1	0.216250
26.750000	1	0.210125
26.766667	1	0.204375
26.783333	1	0.198000
26.800000	1	0.192375
26.816667	1	0.188500
26.833333	1	0.183875
26.850000	1	0.180125
26.866667	1	0.176125
26.883333	1	0.173500
26.900000	1	0.170625
26.916667	1	0.168375
26.933333	1	0.166375
26.950000	1	0.165375
26.966667	1	0.165125
26.983333	1	0.165125
27.000000	1	0.165500
27.016667	1	0.166625
27.033333	1	0.169250
27.050000	1	0.172125
27.066667	1	0.175625
27.083333	1	0.179875
27.100000	1	0.184500
27.116667	1	0.190875
27.133333	1	0.198000
27.150000	1	0.206750
27.166667	1	0.216500
27.183333	1	0.227875
27.200000	1	0.241875
27.216667	1	0.258125
27.233333	1	0.275750
27.250000	1	0.297000
27.266667	1	0.321750
27.283333	1	0.351250
27.300000	1	0.385750
27.316667	1	0.425500
27.333333	1	0.472625
27.350000	1	0.526375
27.366667	1	0.588500
27.383333	1	0.659625
27.400000	1	0.740875
27.416667	1	0.832750
27.433333	1	0.936625
27.450000	1	1.053500
27.466667	1	1.183375
27.483333	1	1.326875
27.500000	1	1.484375
27.516667	1	1.654250
27.533333	1	1.837375
27.550000	1	2.032625
27.566667	1	2.238500
27.583333	1	2.452750
27.600000	1	2.673500
27.616667	1	2.898250
27.633333	1	3.125500
27.650000	1	3.350500
27.666667	1	3.571375
27.683333	1	3.783375
27.700000	1	3.983375
27.716667	1	4.167250
27.733333	1	4.331500
27.750000	1	4.473625
27.766667	1	4.590500
27.783333	1	4.680000
27.800000	1	4.740125
27.816667	1	4.769500
27.833333	1	4.768375
27.850000	1	4.735875
27.866667	1	4.673250
27.883333	1	4.582500
27.900000	1	4.465000
27.916667	1	4.322875
27.933333	1	4.160500
27.950000	1	3.979500
27.966667	1	3.785625
27.983333	1	3.580875
28.000000	1	3.368625
28.016667	1	3.152625
28.033333	1	2.936250
28.050000	1	2.722000
28.066667	1	2.511750
28.083333	1	2.308000
28.100000	1	2.112875
28.116667	1	1.927125
28.133333	1	1.752875
28.150000	1	1.589875
28.166667	1	1.436875
28.183333	1	1.296500
28.200000	1	1.168375
28.216667	1	1.052125
28.233333	1	0.946250
28.250000	1	0.850250
28.266667	1	0.764625
28.283333	1	0.688500
28.300000	1	0.620875
28.316667	1	0.561500
28.333333	1	0.509750
28.350000	1	0.465000
28.366667	1	0.426875
28.383333	1	0.395500
28.400000	1	0.369250
28.416667	1	0.348250
28.433333	1	0.332000
28.450000	1	0.319875
28.466667	1	0.311750
28.483333	1	0.306875
28.500000	1	0.304750
28.516667	1	0.306000
28.533333	1	0.308875
28.550000	1	0.315000
28.566667	1	0.323375
28.583333	1	0.332500
28.600000	1	0.343000
28.616667	1	0.354250
28.633333	1	0.366125
28.650000	1	0.379125
28.666667	1	0.392375
28.683333	1	0.406375
28.700000	1	0.418500
28.716667	1	0.431250
28.733333	1	0.443250
28.750000	1	0.455625
28.766667	1	0.466375
28.783333	1	0.476750
28.800000	1	0.486500
28.816667	1	0.494875
28.833333	1	0.501750
28.850000	1	0.508375
28.866667	1	0.513500
28.883333	1	0.517375
28.900000	1	0.520125
28.916667	1	0.521500
28.933333	1	0.521750
28.950000	1	0.520750
28.966667	1	0.518750
28.983333	1	0.515500
29.000000	1	0.511375
29.016667	1	0.505875
29.033333	1	0.500000
29.050000	1	0.493250
29.066667	1	0.484625
29.083333	1	0.475500
29.100000	1	0.466125
29.116667	1	0.454875
29.133333	1	0.444250
29.150000	1	0.432500
29.166667	1	0.421250
29.183333	1	0.409125
29.200000	1	0.396875
29.216667	1	0.384250
29.233333	1	0.371375
29.250000	1	0.358125
29.266667	1	0.345000
29.283333	1	0.331875
29.300000	1	0.317500
29.316667	1	0.304375
29.333333	1	0.290375
29.350000	1	0.277250
29.366667	1	0.263875
29.383333	1	0.250500
29.400000	1	0.237125
29.416667	1	0.225250
29.433333	1	0.212875
29.450000	1	0.201250
29.466667	1	0.189750
29.483333	1	0.178875
29.500000	1	0.167750
29.516667	1	0.156875
29.533333	1	0.147000
29.550000	1	0.137750
29.566667	1	0.128625
29.583333	1	0.120375
29.600000	1	0.113125
29.616667	1	0.106750
29.633333	1	0.100750
29.650000	1	0.095000
29.666667	1	0.089500
29.683333	1	0.085000
29.700000	1	0.081375
29.716667	1	0.077625
29.733333	1	0.074625
29.750000	1	0.072250
29.766667	1	0.070125
29.783333	1	0.068625
29.800000	1	0.067250
29.816667	1	0.066875
29.833333	1	0.066750
29.850000	1	0.067000
29.866667	1	0.067625
29.883333	1	0.069000
29.900000	1	0.069750
29.916667	1	0.071250
29.933333	1	0.071750
29.950000	1	0.072375
29.966667	1	0.073250
29.983333	1	0.075125
30.000000	1	0.076875
30.016667	1	0.078250
30.033333	1	0.079500
30.050000	1	0.080000
30.066667	1	0.081250
30.083333	1	0.082375
30.100000	1	0.083625
30.116667	1	0.084625
30.133333	1	0.084875
30.150000	1	0.084500
30.166667	1	0.085000
30.183333	1	0.085625
30.200000	1	0.085625
30.216667	1	0.085625
30.233333	1	0.085625
30.250000	1	0.085500
30.266667	1	0.086000
30.283333	1	0.085625
30.300000	1	0.085375
30.316667	1	0.085250
30.333333	1	0.085000
30.350000	1	0.085125
30.366667	1	0.084625
30.383333	1	0.084750
30.400000	1	0.084625
30.416667	1	0.085750
30.433333	1	0.087125
30.450000	1	0.088375
30.466667	1	0.089875
30.483333	1	0.091125
30.500000	1	0.093375
30.516667	1	0.095750
30.533333	1	0.098375
30.550000	1	0.101500
30.566667	1	0.104625
30.583333	1	0.109125
30.600000	1	0.114375
30.616667	1	0.120125
30.633333	1	0.126125
30.650000	1	0.132625
30.666667	1	0.140000
30.683333	1	0.147875
30.700000	1	0.156250
30.716667	1	0.165000
30.733333	1	0.175500
30.750000	1	0.185500
30.766667	1	0.196625
30.783333	1	0.209125
30.800000	1	0.221875
30.816667	1	0.235250
30.833333	1	0.250125
30.850000	1	0.265750
30.866667	1	0.283000
30.883333	1	0.302125
30.900000	1	0.323000
30.916667	1	0.346750
30.933333	1	0.373500
30.950000	1	0.403500
30.966667	1	0.438375
30.983333	1	0.478375
31.000000	1	0.523500
31.016667	1	0.576375
31.033333	1	0.636000
31.050000	1	0.705625
31.066667	1	0.784625
31.083333	1	0.874000
31.100000	1	0.976000
31.116667	1	1.092500
31.133333	1	1.224000
31.150000	1	1.371000
31.166667	1	1.535875
31.183333	1	1.718375
31.200000	1	1.919875
31.216667	1	2.141250
31.233333	1	2.381500
31.250000	1	2.640500
31.266667	1	2.917375
31.283333	1	3.210500
31.300000	1	3.519375
31.316667	1	3.840000
31.333333	1	4.170125
31.350000	1	4.506625
31.366667	1	4.847875
31.383333	1	5.188875
31.400000	1	5.526000
31.416667	1	5.855125
31.433333	1	6.170625
31.450000	1	6.469125
31.466667	1	6.746875
31.483333	1	6.999125
31.500000	1	7.222375
31.516667	1	7.413750
31.533333	1	7.571625
31.550000	1	7.693125
31.566667	1	7.777000
31.583333	1	7.823000
31.600000	1	7.830625
31.616667	1	7.800500
31.633333	1	7.733500
31.650000	1	7.632375
31.666667	1	7.498500
31.683333	1	7.334500
31.700000	1	7.143250
31.716667	1	6.928125
31.733333	1	6.692750
31.750000	1	6.440500
31.766667	1	6.173750
31.783333	1	5.896375
31.800000	1	5.611750
31.816667	1	5.322500
31.833333	1	5.032000
31.850000	1	4.741625
31.866667	1	4.456125
31.883333	1	4.176250
31.900000	1	3.904625
31.916667	1	3.641000
31.933333	1	3.387250
31.950000	1	3.144125
31.966667	1	2.913000
31.983333	1	2.693625
32.000000	1	2.486250
32.016667	1	2.290750
32.033333	1	2.107000
32.050000	1	1.934500
32.066667	1	1.774625
32.083333	1	1.625250
32.100000	1	1.486375
32.116667	1	1.359000
32.133333	1	1.240500
32.150000	1	1.130875
32.166667	1	1.030250
32.183333	1	0.936875
32.200000	1	0.851625
32.216667	1	0.773125
32.233333	1	0.701250
32.250000	1	0.635250
32.266667	1	0.575125
32.283333	1	0.520500
32.300000	1	0.471125
32.316667	1	0.426500
32.333333	1	0.386125
32.350000	1	0.349250
32.366667	1	0.316000
32.383333	1	0.286500
32.400000	1	0.260000
32.416667	1	0.236000
32.433333	1	0.214750
32.450000	1	0.195250
32.466667	1	0.177750
32.483333	1	0.162625
32.500000	1	0.148875
32.516667	1	0.135750
32.533333	1	0.125125
32.550000	1	0.115750
32.566667	1	0.107625
32.583333	1	0.100750
32.600000	1	0.094500
32.616667	1	0.089375
32.633333	1	0.083750
32.650000	1	0.078875
32.666667	1	0.074500
32.683333	1	0.071750
32.700000	1	0.068750
32.716667	1	0.065875
32.733333	1	0.062875
32.750000	1	0.059875
32.766667	1	0.057000
32.783333	1	0.054750
32.800000	1	0.052375
32.816667	1	0.050625
32.833333	1	0.049000
32.850000	1	0.047000
32.866667	1	0.044625
32.883333	1	0.042875
32.900000	1	0.040000
32.916667	1	0.037625
32.933333	1	0.036125
32.950000	1	0.034000
32.966667	1	0.031875
32.983333	1	0.030125
33.000000	1	0.028750
33.016667	1	0.026750
33.033333	1	0.024750
33.050000	1	0.023000
33.066667	1	0.022000
33.083333	1	0.020500
33.100000	1	0.019000
33.116667	1	0.017250
33.133333	1	0.016125
33.150000	1	0.014375
33.166667	1	0.013375
33.183333	1	0.012125
33.200000	1	0.011500
33.216667	1	0.010125
33.233333	1	0.009375
33.250000	1	0.009125
33.266667	1	0.008125
33.283333	1	0.008000
33.300000	1	0.008000
33.316667	1	0.008250
33.333333	1	0.008375
33.350000	1	0.008875
33.366667	1	0.008750
33.383333	1	0.009750
33.400000	1	0.011000
33.416667	1	0.012000
33.433333	1	0.012875
33.450000	1	0.014875
33.466667	1	0.015625
33.483333	1	0.017125
33.500000	1	0.018875
33.516667	1	0.020250
33.533333	1	0.022125
33.550000	1	0.024375
33.566667	1	0.026125
33.583333	1	0.028625
33.600000	1	0.031250
33.616667	1	0.033750
33.633333	1	0.036625
33.650000	1	0.038875
33.666667	1	0.042000
33.683333	1	0.045000
33.700000	1	0.048875
33.716667	1	0.051750
33.733333	1	0.054875
33.750000	1	0.058000
33.766667	1	0.061000
33.783333	1	0.064500
33.800000	1	0.067000
33.816667	1	0.069500
33.833333	1	0.072375
33.850000	1	0.074875
33.866667	1	0.077125
33.883333	1	0.080500
33.900000	1	0.082750
33.916667	1	0.085625
33.933333	1	0.087250
33.950000	1	0.089625
33.966667	1	0.091375
33.983333	1	0.092875
34.000000	1	0.094500
34.016667	1	0.096250
34.033333	1	0.098625
34.050000	1	0.099250
34.066667	1	0.101000
34.083333	1	0.101875
34.100000	1	0.103375
34.116667	1	0.104625
34.133333	1	0.106125
34.150000	1	0.107625
34.166667	1	0.108750
34.183333	1	0.109875
34.200000	1	0.111250
34.216667	1	0.112250
34.233333	1	0.113375
34.250000	1	0.113750
34.266667	1	0.114750
34.283333	1	0.116750
34.300000	1	0.117750
34.316667	1	0.118250
34.333333	1	0.119125
34.350000	1	0.120125
34.366667	1	0.120375
34.383333	1	0.121000
34.400000	1	0.121375
34.416667	1	0.121875
34.433333	1	0.121875
34.450000	1	0.121750
34.466667	1	0.122375
34.483333	1	0.121750
34.500000	1	0.120875
34.516667	1	0.120250
34.533333	1	0.120000
34.550000	1	0.119750
34.566667	1	0.120000
34.583333	1	0.118875
34.600000	1	0.118375
34.616667	1	0.117375
34.633333	1	0.116250
34.650000	1	0.115750
34.666667	1	0.115375
34.683333	1	0.114500
34.700000	1	0.114000
34.716667	1	0.113625
34.733333	1	0.112375
34.750000	1	0.111250
34.766667	1	0.110250
34.783333	1	0.109625
34.800000	1	0.108500
34.816667	1	0.107500
34.833333	1	0.107375
34.850000	1	0.107125
34.866667	1	0.106750
34.883333	1	0.106375
34.900000	1	0.105625
34.916667	1	0.105125
34.933333	1	0.105000
34.950000	1	0.104875
34.966667	1	0.104375
34.983333	1	0.104250
35.000000	1	0.103750
35.016667	1	0.103125
35.033333	1	0.103000
35.050000	1	0.102000
35.066667	1	0.101125
35.083333	1	0.100750
35.100000	1	0.099500
35.116667	1	0.098500
35.133333	1	0.097375
35.150000	1	0.096250
35.166667	1	0.095250
35.183333	1	0.093500
35.200000	1	0.092000
35.216667	1	0.091125
35.233333	1	0.089500
35.250000	1	0.087375
35.266667	1	0.085500
35.283333	1	0.083875
35.300000	1	0.081625
35.316667	1	0.079875
35.333333	1	0.078750
35.350000	1	0.077625
35.366667	1	0.077000
35.383333	1	0.076375
35.400000	1	0.076500
35.416667	1	0.076000
35.433333	1	0.076500
35.450000	1	0.077125
35.466667	1	0.077250
35.483333	1	0.078125
35.500000	1	0.080000
35.516667	1	0.082375
35.533333	1	0.085000
35.550000	1	0.087750
35.566667	1	0.090250
35.583333	1	0.094125
35.600000	1	0.097625
35.616667	1	0.101125
35.633333	1	0.104875
35.650000	1	0.109000
35.666667	1	0.112125
35.683333	1	0.116000
35.700000	1	0.119375
35.716667	1	0.123000
35.733333	1	0.126750
35.750000	1	0.130625
35.766667	1	0.134125
35.783333	1	0.137125
35.800000	1	0.140250
35.816667	1	0.143000
35.833333	1	0.145000
35.850000	1	0.146375
35.866667	1	0.147625
35.883333	1	0.148500
35.900000	1	0.149000
35.916667	1	0.149500
35.933333	1	0.149875
35.950000	1	0.150125
35.966667	1	0.149500
35.983333	1	0.148500
36.000000	1	0.147125
36.016667	1	0.146250
36.033333	1	0.144750
36.050000	1	0.142375
36.066667	1	0.141250
36.083333	1	0.139375
36.100000	1	0.137750
36.116667	1	0.136125
36.133333	1	0.134000
36.150000	1	0.132875
36.166667	1	0.131750
36.183333	1	0.129750
36.200000	1	0.128500
36.216667	1	0.127500
36.233333	1	0.126750
36.250000	1	0.127250
36.266667	1	0.126750
36.283333	1	0.126125
36.300000	1	0.125625
36.316667	1	0.125250
36.333333	1	0.125125
36.350000	1	0.126125
36.366667	1	0.126750
36.383333	1	0.127500
36.400000	1	0.128375
36.416667	1	0.128750
36.433333	1	0.129250
36.450000	1	0.130250
36.466667	1	0.131125
36.483333	1	0.131625
36.500000	1	0.132125
36.516667	1	0.132250
36.533333	1	0.132750
36.550000	1	0.133500
36.566667	1	0.133375
36.583333	1	0.133125
36.600000	1	0.133000
36.616667	1	0.132375
36.633333	1	0.131625
36.650000	1	0.131375
36.666667	1	0.130250
36.683333	1	0.128500
36.700000	1	0.127375
36.716667	1	0.125625
36.733333	1	0.123000
36.750000	1	0.122500
36.766667	1	0.121500
36.783333	1	0.119250
36.800000	1	0.116750
36.816667	1	0.114750
36.833333	1	0.112375
36.850000	1	0.110000
36.866667	1	0.108000
36.883333	1	0.105250
36.900000	1	0.103500
36.916667	1	0.101375
36.933333	1	0.098625
36.950000	1	0.096500
36.966667	1	0.094375
36.983333	1	0.093125
37.000000	1	0.091125
37.016667	1	0.088375
37.033333	1	0.086875
37.050000	1	0.085000
37.066667	1	0.082750
37.083333	1	0.080875
37.100000	1	0.079125
37.116667	1	0.077125
37.133333	1	0.075750
37.150000	1	0.074125
37.166667	1	0.071750
37.183333	1	0.069500
37.200000	1	0.068000
37.216667	1	0.066375
37.233333	1	0.065250
37.250000	1	0.063000
37.266667	1	0.061000
37.283333	1	0.058875
37.300000	1	0.056875
37.316667	1	0.055250
37.333333	1	0.053625
37.350000	1	0.051500
37.366667	1	0.049125
37.383333	1	0.047375
37.400000	1	0.046250
37.416667	1	0.044375
37.433333	1	0.042875
37.450000	1	0.041750
37.466667	1	0.040125
37.483333	1	0.039250
37.500000	1	0.038250
37.516667	1	0.037250
37.533333	1	0.035875
37.550000	1	0.035250
37.566667	1	0.034625
37.583333	1	0.033500
37.600000	1	0.033875
37.616667	1	0.033375
37.633333	1	0.033000
37.650000	1	0.033250
37.666667	1	0.033000
37.683333	1	0.033125
37.700000	1	0.033375
37.716667	1	0.033250
37.733333	1	0.033250
37.750000	1	0.032750
37.766667	1	0.033000
37.783333	1	0.033375
37.800000	1	0.033500
37.816667	1	0.033875
37.833333	1	0.033750
37.850000	1	0.034125
37.866667	1	0.033625
37.883333	1	0.033625
37.900000	1	0.034125
37.916667	1	0.034375
37.933333	1	0.034750
37.950000	1	0.034125
37.966667	1	0.033500
37.983333	1	0.033250
38.000000	1	0.032500
38.016667	1	0.031500
38.033333	1	0.031000
38.050000	1	0.031000
38.066667	1	0.030375
38.083333	1	0.030250
38.100000	1	0.029750
38.116667	1	0.029250
38.133333	1	0.028750
38.150000	1	0.027750
38.166667	1	0.026500
38.183333	1	0.025625
38.200000	1	0.024875
38.216667	1	0.024000
38.233333	1	0.022875
38.250000	1	0.021625
38.266667	1	0.020375
38.283333	1	0.020000
38.300000	1	0.019125
38.316667	1	0.018875
38.333333	1	0.018750
38.350000	1	0.018000
38.366667	1	0.017625
38.383333	1	0.017500
38.400000	1	0.017125
38.416667	1	0.017750
38.433333	1	0.017750
38.450000	1	0.017375
38.466667	1	0.017875
38.483333	1	0.018125
38.500000	1	0.018375
38.516667	1	0.019000
38.533333	1	0.019125
38.550000	1	0.019375
38.566667	1	0.020375
38.583333	1	0.021000
38.600000	1	0.021625
38.616667	1	0.022250
38.633333	1	0.023750
38.650000	1	0.024375
38.666667	1	0.025500
38.683333	1	0.026750
38.700000	1	0.028375
38.716667	1	0.029500
38.733333	1	0.031250
38.750000	1	0.032500
38.766667	1	0.033500
38.783333	1	0.034500
38.800000	1	0.036250
38.816667	1	0.037625
38.833333	1	0.039750
38.850000	1	0.041625
38.866667	1	0.044125
38.883333	1	0.045250
38.900000	1	0.046500
38.916667	1	0.047875
38.933333	1	0.049250
38.950000	1	0.050500
38.966667	1	0.051875
38.983333	1	0.053250
39.000000	1	0.054750
39.016667	1	0.056875
39.033333	1	0.057375
39.050000	1	0.058500
39.066667	1	0.058375
39.083333	1	0.059125
39.100000	1	0.059750
39.116667	1	0.059625
39.133333	1	0.059750
39.150000	1	0.058875
39.166667	1	0.057625
39.183333	1	0.057250
39.200000	1	0.056375
39.216667	1	0.055000
39.233333	1	0.053750
39.250000	1	0.051500
39.266667	1	0.049750
39.283333	1	0.047625
39.300000	1	0.045250
39.316667	1	0.043250
39.333333	1	0.040625
39.350000	1	0.038250
39.366667	1	0.036375
39.383333	1	0.034250
39.400000	1	0.031875
39.416667	1	0.030250
39.433333	1	0.028875
39.450000	1	0.027375
39.466667	1	0.025875
39.483333	1	0.024625
39.500000	1	0.023375
39.516667	1	0.022500
39.533333	1	0.021375
39.550000	1	0.020375
39.566667	1	0.019875
39.583333	1	0.019250
39.600000	1	0.018750
39.616667	1	0.018250
39.633333	1	0.018375
39.650000	1	0.017375
39.666667	1	0.017875
39.683333	1	0.017625
39.700000	1	0.017500
39.716667	1	0.016875
39.733333	1	0.017250
39.750000	1	0.016750
39.766667	1	0.015125
39.783333	1	0.014750
39.800000	1	0.014250
39.816667	1	0.013000
39.833333	1	0.012250
39.850000	1	0.011250
39.866667	1	0.010000
39.883333	1	0.009500
39.900000	1	0.008125
39.916667	1	0.006500
39.933333	1	0.005125
39.950000	1	0.004375
39.966667	1	0.003000
39.983333	1	0.001000
40.000000	1	0.000125
