URL	chrom://bioreactor/micro_cm7/HPLC_Ultimate_3000/Users/markusar/20240708_MA_pHrange1.seq/747.smp/RI_1.channel/RI_1.chm
Channel	RI_1

Injection Information:
Data Vault	micro_cm7
Sequence	20240708_MA_pHrange1
Name	Pv1_6.5_5
Number	6
Position	BA6
Comment	
Processing Method	
Instrument Method	run_25B_method
Type	Unknown
Status	Finished
Inject Time	08.07.2024 18:59:17 +02:00
Volume (µl)	20.0000
Dilution Factor	1.0000
Weight	1.0000

Chromatogram Data Information:
Time Min. (min)	0.000000
Time Max. (min)	40.000000
Data Points	2401
Detector	RI
Generating Data System	Chromeleon 7.3.2.11814
Exporting Data System	Chromeleon 7.3.2.0
Operator	Instrument Controller
Signal Quantity	Refractive 
Signal Unit	µRIU
Signal Min.	0.001500
Signal Max.	82.798500
Channel	RI_1
Driver Name	RID520Driver.dll
Channel Type	Evaluation
Min. Step (s)	1
Max. Step (s)	1
Average Step (s)	1

Signal Parameter Information:
Signal Info	

Chromatogram Data:
Time (min)	Step (s)	Value (µRIU)
0.000000	n.a.	0.048875
0.016667	1	0.049250
0.033333	1	0.049750
0.050000	1	0.049875
0.066667	1	0.050625
0.083333	1	0.051375
0.100000	1	0.051750
0.116667	1	0.051375
0.133333	1	0.051750
0.150000	1	0.051625
0.166667	1	0.051375
0.183333	1	0.051625
0.200000	1	0.051250
0.216667	1	0.050875
0.233333	1	0.050875
0.250000	1	0.049875
0.266667	1	0.049250
0.283333	1	0.048500
0.300000	1	0.047750
0.316667	1	0.046875
0.333333	1	0.045500
0.350000	1	0.043875
0.366667	1	0.041875
0.383333	1	0.040125
0.400000	1	0.038750
0.416667	1	0.038375
0.433333	1	0.038375
0.450000	1	0.039750
0.466667	1	0.040875
0.483333	1	0.041500
0.500000	1	0.041250
0.516667	1	0.041625
0.533333	1	0.040750
0.550000	1	0.039750
0.566667	1	0.038125
0.583333	1	0.036500
0.600000	1	0.034625
0.616667	1	0.032625
0.633333	1	0.031250
0.650000	1	0.030250
0.666667	1	0.030000
0.683333	1	0.030250
0.700000	1	0.030500
0.716667	1	0.031250
0.733333	1	0.031125
0.750000	1	0.031250
0.766667	1	0.031875
0.783333	1	0.032625
0.800000	1	0.033500
0.816667	1	0.033875
0.833333	1	0.034750
0.850000	1	0.035750
0.866667	1	0.036375
0.883333	1	0.037000
0.900000	1	0.037375
0.916667	1	0.037875
0.933333	1	0.038125
0.950000	1	0.038125
0.966667	1	0.037750
0.983333	1	0.037375
1.000000	1	0.037250
1.016667	1	0.036875
1.033333	1	0.036500
1.050000	1	0.036250
1.066667	1	0.035250
1.083333	1	0.034625
1.100000	1	0.033500
1.116667	1	0.031875
1.133333	1	0.029750
1.150000	1	0.028125
1.166667	1	0.026375
1.183333	1	0.025000
1.200000	1	0.024000
1.216667	1	0.022375
1.233333	1	0.020000
1.250000	1	0.018125
1.266667	1	0.016125
1.283333	1	0.014125
1.300000	1	0.012500
1.316667	1	0.010625
1.333333	1	0.008625
1.350000	1	0.007125
1.366667	1	0.006000
1.383333	1	0.004375
1.400000	1	0.003000
1.416667	1	0.002375
1.433333	1	0.001625
1.450000	1	0.001500
1.466667	1	0.001625
1.483333	1	0.002125
1.500000	1	0.002000
1.516667	1	0.003125
1.533333	1	0.004500
1.550000	1	0.006125
1.566667	1	0.008000
1.583333	1	0.010125
1.600000	1	0.011875
1.616667	1	0.014750
1.633333	1	0.018250
1.650000	1	0.021375
1.666667	1	0.025250
1.683333	1	0.028250
1.700000	1	0.031625
1.716667	1	0.034625
1.733333	1	0.037750
1.750000	1	0.040875
1.766667	1	0.044500
1.783333	1	0.047500
1.800000	1	0.050500
1.816667	1	0.053875
1.833333	1	0.056875
1.850000	1	0.059875
1.866667	1	0.062250
1.883333	1	0.063375
1.900000	1	0.065250
1.916667	1	0.066000
1.933333	1	0.067875
1.950000	1	0.068750
1.966667	1	0.069750
1.983333	1	0.070000
2.000000	1	0.070000
2.016667	1	0.069125
2.033333	1	0.069000
2.050000	1	0.068125
2.066667	1	0.066375
2.083333	1	0.064500
2.100000	1	0.062000
2.116667	1	0.059750
2.133333	1	0.056875
2.150000	1	0.054250
2.166667	1	0.051500
2.183333	1	0.048875
2.200000	1	0.046250
2.216667	1	0.043250
2.233333	1	0.040750
2.250000	1	0.037875
2.266667	1	0.035375
2.283333	1	0.033000
2.300000	1	0.029875
2.316667	1	0.027250
2.333333	1	0.024625
2.350000	1	0.023250
2.366667	1	0.021625
2.383333	1	0.020375
2.400000	1	0.019125
2.416667	1	0.018625
2.433333	1	0.017875
2.450000	1	0.017500
2.466667	1	0.017125
2.483333	1	0.017125
2.500000	1	0.017125
2.516667	1	0.017750
2.533333	1	0.018125
2.550000	1	0.018625
2.566667	1	0.018875
2.583333	1	0.019625
2.600000	1	0.020625
2.616667	1	0.021375
2.633333	1	0.022875
2.650000	1	0.023875
2.666667	1	0.025000
2.683333	1	0.026125
2.700000	1	0.028250
2.716667	1	0.028875
2.733333	1	0.029625
2.750000	1	0.030000
2.766667	1	0.030875
2.783333	1	0.032750
2.800000	1	0.033750
2.816667	1	0.033625
2.833333	1	0.031250
2.850000	1	0.032625
2.866667	1	0.033125
2.883333	1	0.033875
2.900000	1	0.034250
2.916667	1	0.034250
2.933333	1	0.034625
2.950000	1	0.035125
2.966667	1	0.035000
2.983333	1	0.034875
3.000000	1	0.035000
3.016667	1	0.035625
3.033333	1	0.034750
3.050000	1	0.034375
3.066667	1	0.034250
3.083333	1	0.034250
3.100000	1	0.034125
3.116667	1	0.034125
3.133333	1	0.034250
3.150000	1	0.033875
3.166667	1	0.033625
3.183333	1	0.034000
3.200000	1	0.034625
3.216667	1	0.034375
3.233333	1	0.034375
3.250000	1	0.034750
3.266667	1	0.035000
3.283333	1	0.035250
3.300000	1	0.035875
3.316667	1	0.036750
3.333333	1	0.037375
3.350000	1	0.038375
3.366667	1	0.038750
3.383333	1	0.039625
3.400000	1	0.040875
3.416667	1	0.042625
3.433333	1	0.044125
3.450000	1	0.045375
3.466667	1	0.046500
3.483333	1	0.048375
3.500000	1	0.049625
3.516667	1	0.051000
3.533333	1	0.052250
3.550000	1	0.052875
3.566667	1	0.054500
3.583333	1	0.055500
3.600000	1	0.056750
3.616667	1	0.057375
3.633333	1	0.057250
3.650000	1	0.057875
3.666667	1	0.057750
3.683333	1	0.057500
3.700000	1	0.057625
3.716667	1	0.057875
3.733333	1	0.058000
3.750000	1	0.057500
3.766667	1	0.057125
3.783333	1	0.057500
3.800000	1	0.057375
3.816667	1	0.057625
3.833333	1	0.058000
3.850000	1	0.057625
3.866667	1	0.057125
3.883333	1	0.057250
3.900000	1	0.057250
3.916667	1	0.057625
3.933333	1	0.058875
3.950000	1	0.059625
3.966667	1	0.060125
3.983333	1	0.061000
4.000000	1	0.062000
4.016667	1	0.063750
4.033333	1	0.065375
4.050000	1	0.066250
4.066667	1	0.067500
4.083333	1	0.068625
4.100000	1	0.070500
4.116667	1	0.071500
4.133333	1	0.072625
4.150000	1	0.074500
4.166667	1	0.075750
4.183333	1	0.077375
4.200000	1	0.079250
4.216667	1	0.080875
4.233333	1	0.082750
4.250000	1	0.084000
4.266667	1	0.085125
4.283333	1	0.086375
4.300000	1	0.088375
4.316667	1	0.090125
4.333333	1	0.091500
4.350000	1	0.092875
4.366667	1	0.094625
4.383333	1	0.096000
4.400000	1	0.097875
4.416667	1	0.099375
4.433333	1	0.101000
4.450000	1	0.102375
4.466667	1	0.103125
4.483333	1	0.105125
4.500000	1	0.106625
4.516667	1	0.108875
4.533333	1	0.110750
4.550000	1	0.112500
4.566667	1	0.113625
4.583333	1	0.115125
4.600000	1	0.116625
4.616667	1	0.117875
4.633333	1	0.120000
4.650000	1	0.122000
4.666667	1	0.124250
4.683333	1	0.125875
4.700000	1	0.127750
4.716667	1	0.130375
4.733333	1	0.132500
4.750000	1	0.134125
4.766667	1	0.136750
4.783333	1	0.139000
4.800000	1	0.141625
4.816667	1	0.144125
4.833333	1	0.146375
4.850000	1	0.149250
4.866667	1	0.152375
4.883333	1	0.155125
4.900000	1	0.157750
4.916667	1	0.160875
4.933333	1	0.164375
4.950000	1	0.167250
4.966667	1	0.170500
4.983333	1	0.174125
5.000000	1	0.178250
5.016667	1	0.181875
5.033333	1	0.185000
5.050000	1	0.189000
5.066667	1	0.192500
5.083333	1	0.196000
5.100000	1	0.199750
5.116667	1	0.203625
5.133333	1	0.207375
5.150000	1	0.211250
5.166667	1	0.215000
5.183333	1	0.218250
5.200000	1	0.221625
5.216667	1	0.224750
5.233333	1	0.228000
5.250000	1	0.230750
5.266667	1	0.233125
5.283333	1	0.235625
5.300000	1	0.238375
5.316667	1	0.241000
5.333333	1	0.242500
5.350000	1	0.244500
5.366667	1	0.246500
5.383333	1	0.248375
5.400000	1	0.249625
5.416667	1	0.251375
5.433333	1	0.253250
5.450000	1	0.254500
5.466667	1	0.256125
5.483333	1	0.257000
5.500000	1	0.257750
5.516667	1	0.258625
5.533333	1	0.259250
5.550000	1	0.259750
5.566667	1	0.259875
5.583333	1	0.260000
5.600000	1	0.259875
5.616667	1	0.259875
5.633333	1	0.258625
5.650000	1	0.258500
5.666667	1	0.257125
5.683333	1	0.255625
5.700000	1	0.253750
5.716667	1	0.252000
5.733333	1	0.249500
5.750000	1	0.247250
5.766667	1	0.245375
5.783333	1	0.243500
5.800000	1	0.240375
5.816667	1	0.236000
5.833333	1	0.232625
5.850000	1	0.227875
5.866667	1	0.223625
5.883333	1	0.219125
5.900000	1	0.215250
5.916667	1	0.211125
5.933333	1	0.206500
5.950000	1	0.201875
5.966667	1	0.197750
5.983333	1	0.193125
6.000000	1	0.188875
6.016667	1	0.184125
6.033333	1	0.179875
6.050000	1	0.176000
6.066667	1	0.171125
6.083333	1	0.167125
6.100000	1	0.163000
6.116667	1	0.158500
6.133333	1	0.154500
6.150000	1	0.152250
6.166667	1	0.148500
6.183333	1	0.145000
6.200000	1	0.141625
6.216667	1	0.138625
6.233333	1	0.136750
6.250000	1	0.134750
6.266667	1	0.132125
6.283333	1	0.129500
6.300000	1	0.127125
6.316667	1	0.124625
6.333333	1	0.122500
6.350000	1	0.120875
6.366667	1	0.118750
6.383333	1	0.116375
6.400000	1	0.114375
6.416667	1	0.113000
6.433333	1	0.111125
6.450000	1	0.109375
6.466667	1	0.108375
6.483333	1	0.106750
6.500000	1	0.105000
6.516667	1	0.104125
6.533333	1	0.102875
6.550000	1	0.102375
6.566667	1	0.101250
6.583333	1	0.100625
6.600000	1	0.100125
6.616667	1	0.099750
6.633333	1	0.098875
6.650000	1	0.098375
6.666667	1	0.097875
6.683333	1	0.098000
6.700000	1	0.097625
6.716667	1	0.097750
6.733333	1	0.097375
6.750000	1	0.097000
6.766667	1	0.097500
6.783333	1	0.097500
6.800000	1	0.097625
6.816667	1	0.097625
6.833333	1	0.098000
6.850000	1	0.097875
6.866667	1	0.098000
6.883333	1	0.097875
6.900000	1	0.098000
6.916667	1	0.098250
6.933333	1	0.098750
6.950000	1	0.098875
6.966667	1	0.100000
6.983333	1	0.101000
7.000000	1	0.102000
7.016667	1	0.103125
7.033333	1	0.104250
7.050000	1	0.105500
7.066667	1	0.106500
7.083333	1	0.108500
7.100000	1	0.109625
7.116667	1	0.111375
7.133333	1	0.113000
7.150000	1	0.115250
7.166667	1	0.117875
7.183333	1	0.120625
7.200000	1	0.123375
7.216667	1	0.125875
7.233333	1	0.128500
7.250000	1	0.131625
7.266667	1	0.134625
7.283333	1	0.137750
7.300000	1	0.140375
7.316667	1	0.143625
7.333333	1	0.147000
7.350000	1	0.150500
7.366667	1	0.153375
7.383333	1	0.155875
7.400000	1	0.159625
7.416667	1	0.162875
7.433333	1	0.165750
7.450000	1	0.168500
7.466667	1	0.170500
7.483333	1	0.172625
7.500000	1	0.175000
7.516667	1	0.176625
7.533333	1	0.178750
7.550000	1	0.179500
7.566667	1	0.180625
7.583333	1	0.181250
7.600000	1	0.181375
7.616667	1	0.180750
7.633333	1	0.180625
7.650000	1	0.179750
7.666667	1	0.178250
7.683333	1	0.176375
7.700000	1	0.174250
7.716667	1	0.172125
7.733333	1	0.169125
7.750000	1	0.166375
7.766667	1	0.162625
7.783333	1	0.159875
7.800000	1	0.156125
7.816667	1	0.152375
7.833333	1	0.148000
7.850000	1	0.144125
7.866667	1	0.139625
7.883333	1	0.135125
7.900000	1	0.130500
7.916667	1	0.126250
7.933333	1	0.121000
7.950000	1	0.117125
7.966667	1	0.112625
7.983333	1	0.108375
8.000000	1	0.104000
8.016667	1	0.099250
8.033333	1	0.095250
8.050000	1	0.091500
8.066667	1	0.087875
8.083333	1	0.083875
8.100000	1	0.080125
8.116667	1	0.077375
8.133333	1	0.073625
8.150000	1	0.070375
8.166667	1	0.067625
8.183333	1	0.064875
8.200000	1	0.062125
8.216667	1	0.059500
8.233333	1	0.057000
8.250000	1	0.053875
8.266667	1	0.050750
8.283333	1	0.047875
8.300000	1	0.044750
8.316667	1	0.042125
8.333333	1	0.040000
8.350000	1	0.037500
8.366667	1	0.034750
8.383333	1	0.032875
8.400000	1	0.031000
8.416667	1	0.029000
8.433333	1	0.027375
8.450000	1	0.025375
8.466667	1	0.023625
8.483333	1	0.022125
8.500000	1	0.020375
8.516667	1	0.019500
8.533333	1	0.019625
8.550000	1	0.018625
8.566667	1	0.017875
8.583333	1	0.017500
8.600000	1	0.017375
8.616667	1	0.017250
8.633333	1	0.016875
8.650000	1	0.016250
8.666667	1	0.016250
8.683333	1	0.016000
8.700000	1	0.016000
8.716667	1	0.015500
8.733333	1	0.015625
8.750000	1	0.014875
8.766667	1	0.014375
8.783333	1	0.014125
8.800000	1	0.014000
8.816667	1	0.014125
8.833333	1	0.014375
8.850000	1	0.014250
8.866667	1	0.013625
8.883333	1	0.013750
8.900000	1	0.014000
8.916667	1	0.014250
8.933333	1	0.014250
8.950000	1	0.015500
8.966667	1	0.015625
8.983333	1	0.016875
9.000000	1	0.017500
9.016667	1	0.018500
9.033333	1	0.019750
9.050000	1	0.020125
9.066667	1	0.020875
9.083333	1	0.022125
9.100000	1	0.023500
9.116667	1	0.025125
9.133333	1	0.027250
9.150000	1	0.028625
9.166667	1	0.029875
9.183333	1	0.032000
9.200000	1	0.033250
9.216667	1	0.035250
9.233333	1	0.036875
9.250000	1	0.039125
9.266667	1	0.040500
9.283333	1	0.042000
9.300000	1	0.042750
9.316667	1	0.044875
9.333333	1	0.047500
9.350000	1	0.050125
9.366667	1	0.051375
9.383333	1	0.052750
9.400000	1	0.053500
9.416667	1	0.054250
9.433333	1	0.055875
9.450000	1	0.056750
9.466667	1	0.057625
9.483333	1	0.058375
9.500000	1	0.059375
9.516667	1	0.060250
9.533333	1	0.060750
9.550000	1	0.061375
9.566667	1	0.062500
9.583333	1	0.063375
9.600000	1	0.063375
9.616667	1	0.064000
9.633333	1	0.064250
9.650000	1	0.064750
9.666667	1	0.064875
9.683333	1	0.064375
9.700000	1	0.064625
9.716667	1	0.064375
9.733333	1	0.064375
9.750000	1	0.063875
9.766667	1	0.065000
9.783333	1	0.064500
9.800000	1	0.064125
9.816667	1	0.063625
9.833333	1	0.063375
9.850000	1	0.062375
9.866667	1	0.061125
9.883333	1	0.060625
9.900000	1	0.060125
9.916667	1	0.059125
9.933333	1	0.058250
9.950000	1	0.058125
9.966667	1	0.056375
9.983333	1	0.055250
10.000000	1	0.052750
10.016667	1	0.050250
10.033333	1	0.048625
10.050000	1	0.048125
10.066667	1	0.047375
10.083333	1	0.046625
10.100000	1	0.047625
10.116667	1	0.048875
10.133333	1	0.051750
10.150000	1	0.056250
10.166667	1	0.060875
10.183333	1	0.068000
10.200000	1	0.076500
10.216667	1	0.086750
10.233333	1	0.098125
10.250000	1	0.112000
10.266667	1	0.128500
10.283333	1	0.147750
10.300000	1	0.170000
10.316667	1	0.194625
10.333333	1	0.221875
10.350000	1	0.251125
10.366667	1	0.281375
10.383333	1	0.310125
10.400000	1	0.334625
10.416667	1	0.351875
10.433333	1	0.357125
10.450000	1	0.344625
10.466667	1	0.309500
10.483333	1	0.251125
10.500000	1	0.179875
10.516667	1	0.117000
10.533333	1	0.104500
10.550000	1	0.203625
10.566667	1	0.492500
10.583333	1	1.056125
10.600000	1	1.977500
10.616667	1	3.329625
10.633333	1	5.166000
10.650000	1	7.521000
10.666667	1	10.415125
10.683333	1	13.844500
10.700000	1	17.788375
10.716667	1	22.195000
10.733333	1	26.979000
10.750000	1	32.005750
10.766667	1	37.066875
10.783333	1	41.872875
10.800000	1	46.040375
10.816667	1	49.122125
10.833333	1	50.687500
10.850000	1	50.450000
10.866667	1	48.370250
10.883333	1	44.698750
10.900000	1	39.913125
10.916667	1	34.578750
10.933333	1	29.207250
10.950000	1	24.169625
10.966667	1	19.684375
10.983333	1	15.845500
11.000000	1	12.659000
11.016667	1	10.076875
11.033333	1	8.027625
11.050000	1	6.425375
11.066667	1	5.186750
11.083333	1	4.236625
11.100000	1	3.509500
11.116667	1	2.953875
11.133333	1	2.528625
11.150000	1	2.201500
11.166667	1	1.948375
11.183333	1	1.750250
11.200000	1	1.592875
11.216667	1	1.465875
11.233333	1	1.363500
11.250000	1	1.279250
11.266667	1	1.209875
11.283333	1	1.150625
11.300000	1	1.101125
11.316667	1	1.058875
11.333333	1	1.022750
11.350000	1	0.991625
11.366667	1	0.965125
11.383333	1	0.940625
11.400000	1	0.920500
11.416667	1	0.902375
11.433333	1	0.886500
11.450000	1	0.872125
11.466667	1	0.860375
11.483333	1	0.850250
11.500000	1	0.841375
11.516667	1	0.833875
11.533333	1	0.826875
11.550000	1	0.821000
11.566667	1	0.817250
11.583333	1	0.815000
11.600000	1	0.814000
11.616667	1	0.813750
11.633333	1	0.814625
11.650000	1	0.817500
11.666667	1	0.820625
11.683333	1	0.825625
11.700000	1	0.831125
11.716667	1	0.838125
11.733333	1	0.846000
11.750000	1	0.854375
11.766667	1	0.863750
11.783333	1	0.872625
11.800000	1	0.881875
11.816667	1	0.890750
11.833333	1	0.899625
11.850000	1	0.907125
11.866667	1	0.913500
11.883333	1	0.920000
11.900000	1	0.925125
11.916667	1	0.930000
11.933333	1	0.933625
11.950000	1	0.937875
11.966667	1	0.940500
11.983333	1	0.943875
12.000000	1	0.946625
12.016667	1	0.950000
12.033333	1	0.953750
12.050000	1	0.958125
12.066667	1	0.962250
12.083333	1	0.967000
12.100000	1	0.973500
12.116667	1	0.979750
12.133333	1	0.987250
12.150000	1	0.995000
12.166667	1	1.004250
12.183333	1	1.014625
12.200000	1	1.026375
12.216667	1	1.040125
12.233333	1	1.056500
12.250000	1	1.076625
12.266667	1	1.101000
12.283333	1	1.131125
12.300000	1	1.169375
12.316667	1	1.218500
12.333333	1	1.280875
12.350000	1	1.360500
12.366667	1	1.460500
12.383333	1	1.586625
12.400000	1	1.743250
12.416667	1	1.935625
12.433333	1	2.167750
12.450000	1	2.444875
12.466667	1	2.773375
12.483333	1	3.155875
12.500000	1	3.596750
12.516667	1	4.096875
12.533333	1	4.657625
12.550000	1	5.275375
12.566667	1	5.943000
12.583333	1	6.650375
12.600000	1	7.384875
12.616667	1	8.130500
12.633333	1	8.873000
12.650000	1	9.596375
12.666667	1	10.289000
12.683333	1	10.941875
12.700000	1	11.551875
12.716667	1	12.118625
12.733333	1	12.648000
12.750000	1	13.147750
12.766667	1	13.629625
12.783333	1	14.104750
12.800000	1	14.582875
12.816667	1	15.074625
12.833333	1	15.588250
12.850000	1	16.128875
12.866667	1	16.701000
12.883333	1	17.305125
12.900000	1	17.942250
12.916667	1	18.612125
12.933333	1	19.313125
12.950000	1	20.043500
12.966667	1	20.800625
12.983333	1	21.583125
13.000000	1	22.388875
13.016667	1	23.217500
13.033333	1	24.067750
13.050000	1	24.939500
13.066667	1	25.831875
13.083333	1	26.745375
13.100000	1	27.680000
13.116667	1	28.634500
13.133333	1	29.606625
13.150000	1	30.597375
13.166667	1	31.608125
13.183333	1	32.638000
13.200000	1	33.685750
13.216667	1	34.751625
13.233333	1	35.837000
13.250000	1	36.943375
13.266667	1	38.071125
13.283333	1	39.221250
13.300000	1	40.394875
13.316667	1	41.591500
13.333333	1	42.811375
13.350000	1	44.055000
13.366667	1	45.322375
13.383333	1	46.614375
13.400000	1	47.930125
13.416667	1	49.270750
13.433333	1	50.638750
13.450000	1	52.035500
13.466667	1	53.461250
13.483333	1	54.918500
13.500000	1	56.405750
13.516667	1	57.924125
13.533333	1	59.472875
13.550000	1	61.053500
13.566667	1	62.666250
13.583333	1	64.311875
13.600000	1	65.989250
13.616667	1	67.702000
13.633333	1	69.450750
13.650000	1	71.237500
13.666667	1	73.064750
13.683333	1	74.930875
13.700000	1	76.829500
13.716667	1	78.724750
13.733333	1	80.515750
13.750000	1	81.984375
13.766667	1	82.798500
13.783333	1	82.552750
13.800000	1	80.850125
13.816667	1	77.361875
13.833333	1	71.936125
13.850000	1	64.732375
13.866667	1	56.288375
13.883333	1	47.406125
13.900000	1	38.896125
13.916667	1	31.336625
13.933333	1	24.988000
13.950000	1	19.853750
13.966667	1	15.799625
13.983333	1	12.648875
14.000000	1	10.231125
14.016667	1	8.396000
14.033333	1	7.019625
14.050000	1	5.998250
14.066667	1	5.245125
14.083333	1	4.689000
14.100000	1	4.275375
14.116667	1	3.964250
14.133333	1	3.726250
14.150000	1	3.539750
14.166667	1	3.390500
14.183333	1	3.268000
14.200000	1	3.165250
14.216667	1	3.077250
14.233333	1	3.000625
14.250000	1	2.933375
14.266667	1	2.872375
14.283333	1	2.817625
14.300000	1	2.768375
14.316667	1	2.723875
14.333333	1	2.683750
14.350000	1	2.648875
14.366667	1	2.619250
14.383333	1	2.595250
14.400000	1	2.577500
14.416667	1	2.567250
14.433333	1	2.567875
14.450000	1	2.580875
14.466667	1	2.612750
14.483333	1	2.669625
14.500000	1	2.762500
14.516667	1	2.906625
14.533333	1	3.124750
14.550000	1	3.445500
14.566667	1	3.909500
14.583333	1	4.565000
14.600000	1	5.474375
14.616667	1	6.706625
14.633333	1	8.340750
14.650000	1	10.455500
14.666667	1	13.120000
14.683333	1	16.385750
14.700000	1	20.271125
14.716667	1	24.753125
14.733333	1	29.760500
14.750000	1	35.173125
14.766667	1	40.809250
14.783333	1	46.440125
14.800000	1	51.815000
14.816667	1	56.671875
14.833333	1	60.759000
14.850000	1	63.856000
14.866667	1	65.800375
14.883333	1	66.502875
14.900000	1	65.955625
14.916667	1	64.233000
14.933333	1	61.472250
14.950000	1	57.861750
14.966667	1	53.623250
14.983333	1	48.988875
15.000000	1	44.171625
15.016667	1	39.358375
15.033333	1	34.702750
15.050000	1	30.321750
15.066667	1	26.296625
15.083333	1	22.670250
15.100000	1	19.458750
15.116667	1	16.656375
15.133333	1	14.237750
15.150000	1	12.171875
15.166667	1	10.420875
15.183333	1	8.947250
15.200000	1	7.712625
15.216667	1	6.682125
15.233333	1	5.825500
15.250000	1	5.117125
15.266667	1	4.533125
15.283333	1	4.055250
15.300000	1	3.666125
15.316667	1	3.351875
15.333333	1	3.101250
15.350000	1	2.904875
15.366667	1	2.752500
15.383333	1	2.637375
15.400000	1	2.553125
15.416667	1	2.492125
15.433333	1	2.448750
15.450000	1	2.418750
15.466667	1	2.397250
15.483333	1	2.379375
15.500000	1	2.361000
15.516667	1	2.340500
15.533333	1	2.316500
15.550000	1	2.287875
15.566667	1	2.255625
15.583333	1	2.220000
15.600000	1	2.181625
15.616667	1	2.141625
15.633333	1	2.102625
15.650000	1	2.064750
15.666667	1	2.029875
15.683333	1	1.996250
15.700000	1	1.965250
15.716667	1	1.935500
15.733333	1	1.907250
15.750000	1	1.880250
15.766667	1	1.852875
15.783333	1	1.825250
15.800000	1	1.797750
15.816667	1	1.770625
15.833333	1	1.742125
15.850000	1	1.714000
15.866667	1	1.686750
15.883333	1	1.662625
15.900000	1	1.640250
15.916667	1	1.620375
15.933333	1	1.603625
15.950000	1	1.591125
15.966667	1	1.581875
15.983333	1	1.574750
16.000000	1	1.570125
16.016667	1	1.567375
16.033333	1	1.564375
16.050000	1	1.561125
16.066667	1	1.556000
16.083333	1	1.549125
16.100000	1	1.539500
16.116667	1	1.528625
16.133333	1	1.515125
16.150000	1	1.499375
16.166667	1	1.482000
16.183333	1	1.462750
16.200000	1	1.442000
16.216667	1	1.421500
16.233333	1	1.400375
16.250000	1	1.378875
16.266667	1	1.358375
16.283333	1	1.337500
16.300000	1	1.317000
16.316667	1	1.297375
16.333333	1	1.278750
16.350000	1	1.261750
16.366667	1	1.246250
16.383333	1	1.233125
16.400000	1	1.223125
16.416667	1	1.215000
16.433333	1	1.210000
16.450000	1	1.208000
16.466667	1	1.208750
16.483333	1	1.212125
16.500000	1	1.217500
16.516667	1	1.223875
16.533333	1	1.231125
16.550000	1	1.238875
16.566667	1	1.246250
16.583333	1	1.252000
16.600000	1	1.256750
16.616667	1	1.259750
16.633333	1	1.261125
16.650000	1	1.259500
16.666667	1	1.256250
16.683333	1	1.252000
16.700000	1	1.247000
16.716667	1	1.242125
16.733333	1	1.238250
16.750000	1	1.235125
16.766667	1	1.232750
16.783333	1	1.232125
16.800000	1	1.233000
16.816667	1	1.234750
16.833333	1	1.237500
16.850000	1	1.241250
16.866667	1	1.243875
16.883333	1	1.245500
16.900000	1	1.245875
16.916667	1	1.245125
16.933333	1	1.243500
16.950000	1	1.240000
16.966667	1	1.235000
16.983333	1	1.228125
17.000000	1	1.219875
17.016667	1	1.211375
17.033333	1	1.202875
17.050000	1	1.194500
17.066667	1	1.186625
17.083333	1	1.178750
17.100000	1	1.171500
17.116667	1	1.165250
17.133333	1	1.160625
17.150000	1	1.156875
17.166667	1	1.154875
17.183333	1	1.154125
17.200000	1	1.154375
17.216667	1	1.155375
17.233333	1	1.158000
17.250000	1	1.161000
17.266667	1	1.165125
17.283333	1	1.170125
17.300000	1	1.174625
17.316667	1	1.180875
17.333333	1	1.187250
17.350000	1	1.193750
17.366667	1	1.200875
17.383333	1	1.207875
17.400000	1	1.214125
17.416667	1	1.220375
17.433333	1	1.224875
17.450000	1	1.227750
17.466667	1	1.230000
17.483333	1	1.231250
17.500000	1	1.229500
17.516667	1	1.226750
17.533333	1	1.222000
17.550000	1	1.216000
17.566667	1	1.208500
17.583333	1	1.199375
17.600000	1	1.188750
17.616667	1	1.177750
17.633333	1	1.165625
17.650000	1	1.152375
17.666667	1	1.138875
17.683333	1	1.124625
17.700000	1	1.110000
17.716667	1	1.095375
17.733333	1	1.081000
17.750000	1	1.067000
17.766667	1	1.052750
17.783333	1	1.039125
17.800000	1	1.025875
17.816667	1	1.013375
17.833333	1	1.001750
17.850000	1	0.989375
17.866667	1	0.978125
17.883333	1	0.967375
17.900000	1	0.957250
17.916667	1	0.947500
17.933333	1	0.937500
17.950000	1	0.927625
17.966667	1	0.919000
17.983333	1	0.910125
18.000000	1	0.902000
18.016667	1	0.893500
18.033333	1	0.885000
18.050000	1	0.876500
18.066667	1	0.868375
18.083333	1	0.860625
18.100000	1	0.853625
18.116667	1	0.847250
18.133333	1	0.841625
18.150000	1	0.838000
18.166667	1	0.835250
18.183333	1	0.832625
18.200000	1	0.831000
18.216667	1	0.830875
18.233333	1	0.831750
18.250000	1	0.832875
18.266667	1	0.834875
18.283333	1	0.836875
18.300000	1	0.838500
18.316667	1	0.841500
18.333333	1	0.843250
18.350000	1	0.845875
18.366667	1	0.849500
18.383333	1	0.853625
18.400000	1	0.858250
18.416667	1	0.863500
18.433333	1	0.870625
18.450000	1	0.879000
18.466667	1	0.888250
18.483333	1	0.898875
18.500000	1	0.911375
18.516667	1	0.925375
18.533333	1	0.942000
18.550000	1	0.959750
18.566667	1	0.980250
18.583333	1	1.002250
18.600000	1	1.025875
18.616667	1	1.051125
18.633333	1	1.078375
18.650000	1	1.106875
18.666667	1	1.136375
18.683333	1	1.167375
18.700000	1	1.200125
18.716667	1	1.233625
18.733333	1	1.268250
18.750000	1	1.302375
18.766667	1	1.337000
18.783333	1	1.370875
18.800000	1	1.403250
18.816667	1	1.435125
18.833333	1	1.464875
18.850000	1	1.490750
18.866667	1	1.512375
18.883333	1	1.530000
18.900000	1	1.541500
18.916667	1	1.546875
18.933333	1	1.545875
18.950000	1	1.537875
18.966667	1	1.522125
18.983333	1	1.500750
19.000000	1	1.473250
19.016667	1	1.439500
19.033333	1	1.400500
19.050000	1	1.358625
19.066667	1	1.315250
19.083333	1	1.271875
19.100000	1	1.229875
19.116667	1	1.192375
19.133333	1	1.161500
19.150000	1	1.138000
19.166667	1	1.125875
19.183333	1	1.127375
19.200000	1	1.145875
19.216667	1	1.184750
19.233333	1	1.246250
19.250000	1	1.332625
19.266667	1	1.447750
19.283333	1	1.592625
19.300000	1	1.768250
19.316667	1	1.975250
19.333333	1	2.212125
19.350000	1	2.476125
19.366667	1	2.763875
19.383333	1	3.067875
19.400000	1	3.381125
19.416667	1	3.694625
19.433333	1	3.997375
19.450000	1	4.280625
19.466667	1	4.533000
19.483333	1	4.747625
19.500000	1	4.915375
19.516667	1	5.030125
19.533333	1	5.088875
19.550000	1	5.092125
19.566667	1	5.039000
19.583333	1	4.934375
19.600000	1	4.782875
19.616667	1	4.591375
19.633333	1	4.367750
19.650000	1	4.121625
19.666667	1	3.860000
19.683333	1	3.590250
19.700000	1	3.319750
19.716667	1	3.055375
19.733333	1	2.799625
19.750000	1	2.556500
19.766667	1	2.328375
19.783333	1	2.118250
19.800000	1	1.926500
19.816667	1	1.751625
19.833333	1	1.593625
19.850000	1	1.452875
19.866667	1	1.327750
19.883333	1	1.216625
19.900000	1	1.119250
19.916667	1	1.033375
19.933333	1	0.959000
19.950000	1	0.894750
19.966667	1	0.839000
19.983333	1	0.792375
20.000000	1	0.753375
20.016667	1	0.721125
20.033333	1	0.695625
20.050000	1	0.675875
20.066667	1	0.661750
20.083333	1	0.653000
20.100000	1	0.648625
20.116667	1	0.648750
20.133333	1	0.653125
20.150000	1	0.660625
20.166667	1	0.671250
20.183333	1	0.683000
20.200000	1	0.696500
20.216667	1	0.710500
20.233333	1	0.724375
20.250000	1	0.737125
20.266667	1	0.748125
20.283333	1	0.757000
20.300000	1	0.762500
20.316667	1	0.765250
20.333333	1	0.766625
20.350000	1	0.763250
20.366667	1	0.754750
20.383333	1	0.744250
20.400000	1	0.731750
20.416667	1	0.715125
20.433333	1	0.697875
20.450000	1	0.680750
20.466667	1	0.664875
20.483333	1	0.649000
20.500000	1	0.635500
20.516667	1	0.625500
20.533333	1	0.619250
20.550000	1	0.617625
20.566667	1	0.620750
20.583333	1	0.630500
20.600000	1	0.647875
20.616667	1	0.671875
20.633333	1	0.705000
20.650000	1	0.746125
20.666667	1	0.796750
20.683333	1	0.856000
20.700000	1	0.923250
20.716667	1	0.997375
20.733333	1	1.077750
20.750000	1	1.162375
20.766667	1	1.249625
20.783333	1	1.336250
20.800000	1	1.419750
20.816667	1	1.497625
20.833333	1	1.566250
20.850000	1	1.625125
20.866667	1	1.669875
20.883333	1	1.701250
20.900000	1	1.717000
20.916667	1	1.716625
20.933333	1	1.700875
20.950000	1	1.671750
20.966667	1	1.629375
20.983333	1	1.576125
21.000000	1	1.513375
21.016667	1	1.443875
21.033333	1	1.370250
21.050000	1	1.294250
21.066667	1	1.218250
21.083333	1	1.142000
21.100000	1	1.069375
21.116667	1	1.000625
21.133333	1	0.935750
21.150000	1	0.876250
21.166667	1	0.822000
21.183333	1	0.772500
21.200000	1	0.728625
21.216667	1	0.688375
21.233333	1	0.653750
21.250000	1	0.623000
21.266667	1	0.595625
21.283333	1	0.572125
21.300000	1	0.551875
21.316667	1	0.533875
21.333333	1	0.519375
21.350000	1	0.506500
21.366667	1	0.495625
21.383333	1	0.485875
21.400000	1	0.478250
21.416667	1	0.470875
21.433333	1	0.464875
21.450000	1	0.460125
21.466667	1	0.455375
21.483333	1	0.451375
21.500000	1	0.448000
21.516667	1	0.446000
21.533333	1	0.444375
21.550000	1	0.443125
21.566667	1	0.443000
21.583333	1	0.445125
21.600000	1	0.448125
21.616667	1	0.452625
21.633333	1	0.458750
21.650000	1	0.466500
21.666667	1	0.476875
21.683333	1	0.489750
21.700000	1	0.504875
21.716667	1	0.522000
21.733333	1	0.540500
21.750000	1	0.562750
21.766667	1	0.585875
21.783333	1	0.611125
21.800000	1	0.638250
21.816667	1	0.666000
21.833333	1	0.693125
21.850000	1	0.720125
21.866667	1	0.746375
21.883333	1	0.771750
21.900000	1	0.795125
21.916667	1	0.815625
21.933333	1	0.833625
21.950000	1	0.848125
21.966667	1	0.860125
21.983333	1	0.868875
22.000000	1	0.874000
22.016667	1	0.875000
22.033333	1	0.872875
22.050000	1	0.868000
22.066667	1	0.861125
22.083333	1	0.850875
22.100000	1	0.839375
22.116667	1	0.826625
22.133333	1	0.811875
22.150000	1	0.796375
22.166667	1	0.780625
22.183333	1	0.763625
22.200000	1	0.745625
22.216667	1	0.727125
22.233333	1	0.708875
22.250000	1	0.690625
22.266667	1	0.672000
22.283333	1	0.653250
22.300000	1	0.634500
22.316667	1	0.616125
22.333333	1	0.598000
22.350000	1	0.579875
22.366667	1	0.562250
22.383333	1	0.544875
22.400000	1	0.527875
22.416667	1	0.512250
22.433333	1	0.497250
22.450000	1	0.482750
22.466667	1	0.468625
22.483333	1	0.455500
22.500000	1	0.443375
22.516667	1	0.432000
22.533333	1	0.422000
22.550000	1	0.411875
22.566667	1	0.402625
22.583333	1	0.393750
22.600000	1	0.386625
22.616667	1	0.378500
22.633333	1	0.371375
22.650000	1	0.364625
22.666667	1	0.357625
22.683333	1	0.351625
22.700000	1	0.345750
22.716667	1	0.340375
22.733333	1	0.335125
22.750000	1	0.330125
22.766667	1	0.325625
22.783333	1	0.321500
22.800000	1	0.316750
22.816667	1	0.313250
22.833333	1	0.309625
22.850000	1	0.306875
22.866667	1	0.303875
22.883333	1	0.301500
22.900000	1	0.299375
22.916667	1	0.298000
22.933333	1	0.296250
22.950000	1	0.295625
22.966667	1	0.295125
22.983333	1	0.294750
23.000000	1	0.294750
23.016667	1	0.295000
23.033333	1	0.295250
23.050000	1	0.296000
23.066667	1	0.297750
23.083333	1	0.299500
23.100000	1	0.301500
23.116667	1	0.303375
23.133333	1	0.306000
23.150000	1	0.308375
23.166667	1	0.311250
23.183333	1	0.314250
23.200000	1	0.317500
23.216667	1	0.321375
23.233333	1	0.325875
23.250000	1	0.330250
23.266667	1	0.335500
23.283333	1	0.342500
23.300000	1	0.351250
23.316667	1	0.361000
23.333333	1	0.374750
23.350000	1	0.392375
23.366667	1	0.415625
23.383333	1	0.445625
23.400000	1	0.480625
23.416667	1	0.525250
23.433333	1	0.580375
23.450000	1	0.648875
23.466667	1	0.731125
23.483333	1	0.831000
23.500000	1	0.951125
23.516667	1	1.091750
23.533333	1	1.257125
23.550000	1	1.447625
23.566667	1	1.664625
23.583333	1	1.909750
23.600000	1	2.182125
23.616667	1	2.479000
23.633333	1	2.798250
23.650000	1	3.137500
23.666667	1	3.491625
23.683333	1	3.855000
23.700000	1	4.221375
23.716667	1	4.583875
23.733333	1	4.934000
23.750000	1	5.263500
23.766667	1	5.564125
23.783333	1	5.828125
23.800000	1	6.049500
23.816667	1	6.223125
23.833333	1	6.345500
23.850000	1	6.414000
23.866667	1	6.428375
23.883333	1	6.389875
23.900000	1	6.299000
23.916667	1	6.161500
23.933333	1	5.981000
23.950000	1	5.763125
23.966667	1	5.515500
23.983333	1	5.243250
24.000000	1	4.954625
24.016667	1	4.654000
24.033333	1	4.349000
24.050000	1	4.045000
24.066667	1	3.745625
24.083333	1	3.454500
24.100000	1	3.174750
24.116667	1	2.908750
24.133333	1	2.658250
24.150000	1	2.424500
24.166667	1	2.207375
24.183333	1	2.008000
24.200000	1	1.824875
24.216667	1	1.657375
24.233333	1	1.505125
24.250000	1	1.369125
24.266667	1	1.247125
24.283333	1	1.138125
24.300000	1	1.040375
24.316667	1	0.954000
24.333333	1	0.877000
24.350000	1	0.809750
24.366667	1	0.751750
24.383333	1	0.701250
24.400000	1	0.659000
24.416667	1	0.622625
24.433333	1	0.591500
24.450000	1	0.566625
24.466667	1	0.545500
24.483333	1	0.528875
24.500000	1	0.514625
24.516667	1	0.503875
24.533333	1	0.495250
24.550000	1	0.488000
24.566667	1	0.482000
24.583333	1	0.477000
24.600000	1	0.473250
24.616667	1	0.469125
24.633333	1	0.465250
24.650000	1	0.462000
24.666667	1	0.458500
24.683333	1	0.454875
24.700000	1	0.451250
24.716667	1	0.447375
24.733333	1	0.442875
24.750000	1	0.438500
24.766667	1	0.433625
24.783333	1	0.428375
24.800000	1	0.423500
24.816667	1	0.417125
24.833333	1	0.412250
24.850000	1	0.407500
24.866667	1	0.402500
24.883333	1	0.397375
24.900000	1	0.392625
24.916667	1	0.387375
24.933333	1	0.382750
24.950000	1	0.378875
24.966667	1	0.374375
24.983333	1	0.369625
25.000000	1	0.366000
25.016667	1	0.361500
25.033333	1	0.358000
25.050000	1	0.355125
25.066667	1	0.351625
25.083333	1	0.347875
25.100000	1	0.344625
25.116667	1	0.342000
25.133333	1	0.338875
25.150000	1	0.335375
25.166667	1	0.332625
25.183333	1	0.329750
25.200000	1	0.326625
25.216667	1	0.322875
25.233333	1	0.320125
25.250000	1	0.317125
25.266667	1	0.313875
25.283333	1	0.311250
25.300000	1	0.308125
25.316667	1	0.305750
25.333333	1	0.302500
25.350000	1	0.299750
25.366667	1	0.298000
25.383333	1	0.295750
25.400000	1	0.293125
25.416667	1	0.291500
25.433333	1	0.289750
25.450000	1	0.289000
25.466667	1	0.288500
25.483333	1	0.287125
25.500000	1	0.287125
25.516667	1	0.286750
25.533333	1	0.287000
25.550000	1	0.287875
25.566667	1	0.287875
25.583333	1	0.288000
25.600000	1	0.289000
25.616667	1	0.289000
25.633333	1	0.289250
25.650000	1	0.288875
25.666667	1	0.289875
25.683333	1	0.290250
25.700000	1	0.290750
25.716667	1	0.290750
25.733333	1	0.290375
25.750000	1	0.290125
25.766667	1	0.289750
25.783333	1	0.290000
25.800000	1	0.289125
25.816667	1	0.288625
25.833333	1	0.288625
25.850000	1	0.288250
25.866667	1	0.289000
25.883333	1	0.289375
25.900000	1	0.289750
25.916667	1	0.290750
25.933333	1	0.292375
25.950000	1	0.294125
25.966667	1	0.296500
25.983333	1	0.299875
26.000000	1	0.303375
26.016667	1	0.306625
26.033333	1	0.310875
26.050000	1	0.315375
26.066667	1	0.319875
26.083333	1	0.325125
26.100000	1	0.330625
26.116667	1	0.336750
26.133333	1	0.342750
26.150000	1	0.348000
26.166667	1	0.353125
26.183333	1	0.358875
26.200000	1	0.364625
26.216667	1	0.369250
26.233333	1	0.374250
26.250000	1	0.378875
26.266667	1	0.382750
26.283333	1	0.386375
26.300000	1	0.389125
26.316667	1	0.390625
26.333333	1	0.391750
26.350000	1	0.392125
26.366667	1	0.391625
26.383333	1	0.390000
26.400000	1	0.388125
26.416667	1	0.385875
26.433333	1	0.382500
26.450000	1	0.379250
26.466667	1	0.376875
26.483333	1	0.373625
26.500000	1	0.369125
26.516667	1	0.363250
26.533333	1	0.357375
26.550000	1	0.351125
26.566667	1	0.342250
26.583333	1	0.334750
26.600000	1	0.328375
26.616667	1	0.322750
26.633333	1	0.316625
26.650000	1	0.310875
26.666667	1	0.305250
26.683333	1	0.299500
26.700000	1	0.294625
26.716667	1	0.289375
26.733333	1	0.284875
26.750000	1	0.280000
26.766667	1	0.275750
26.783333	1	0.271125
26.800000	1	0.267375
26.816667	1	0.263250
26.833333	1	0.259500
26.850000	1	0.256125
26.866667	1	0.253375
26.883333	1	0.251375
26.900000	1	0.249625
26.916667	1	0.246875
26.933333	1	0.245125
26.950000	1	0.243625
26.966667	1	0.242750
26.983333	1	0.242500
27.000000	1	0.242500
27.016667	1	0.243125
27.033333	1	0.243375
27.050000	1	0.245375
27.066667	1	0.246875
27.083333	1	0.249250
27.100000	1	0.251750
27.116667	1	0.256000
27.133333	1	0.261625
27.150000	1	0.267250
27.166667	1	0.274625
27.183333	1	0.284125
27.200000	1	0.295250
27.216667	1	0.309250
27.233333	1	0.325250
27.250000	1	0.344000
27.266667	1	0.367375
27.283333	1	0.394625
27.300000	1	0.426250
27.316667	1	0.464250
27.333333	1	0.508125
27.350000	1	0.560250
27.366667	1	0.620250
27.383333	1	0.689500
27.400000	1	0.769250
27.416667	1	0.860000
27.433333	1	0.963000
27.450000	1	1.078125
27.466667	1	1.206375
27.483333	1	1.348125
27.500000	1	1.504625
27.516667	1	1.674250
27.533333	1	1.857375
27.550000	1	2.052250
27.566667	1	2.258875
27.583333	1	2.474375
27.600000	1	2.697625
27.616667	1	2.926375
27.633333	1	3.157750
27.650000	1	3.388750
27.666667	1	3.616500
27.683333	1	3.836875
27.700000	1	4.046750
27.716667	1	4.242500
27.733333	1	4.419500
27.750000	1	4.575250
27.766667	1	4.706375
27.783333	1	4.810250
27.800000	1	4.886250
27.816667	1	4.931250
27.833333	1	4.945250
27.850000	1	4.928125
27.866667	1	4.879750
27.883333	1	4.801125
27.900000	1	4.695125
27.916667	1	4.563500
27.933333	1	4.409375
27.950000	1	4.235625
27.966667	1	4.046125
27.983333	1	3.843125
28.000000	1	3.631625
28.016667	1	3.414125
28.033333	1	3.194500
28.050000	1	2.975000
28.066667	1	2.758875
28.083333	1	2.547875
28.100000	1	2.344500
28.116667	1	2.150125
28.133333	1	1.966125
28.150000	1	1.793875
28.166667	1	1.633000
28.183333	1	1.484625
28.200000	1	1.348875
28.216667	1	1.224875
28.233333	1	1.111000
28.250000	1	1.008250
28.266667	1	0.915875
28.283333	1	0.833375
28.300000	1	0.760125
28.316667	1	0.696000
28.333333	1	0.640750
28.350000	1	0.592500
28.366667	1	0.550625
28.383333	1	0.516125
28.400000	1	0.487250
28.416667	1	0.464000
28.433333	1	0.444875
28.450000	1	0.430500
28.466667	1	0.420000
28.483333	1	0.413750
28.500000	1	0.410375
28.516667	1	0.410125
28.533333	1	0.412000
28.550000	1	0.417250
28.566667	1	0.423750
28.583333	1	0.432500
28.600000	1	0.442750
28.616667	1	0.453375
28.633333	1	0.465625
28.650000	1	0.478500
28.666667	1	0.491750
28.683333	1	0.504875
28.700000	1	0.517750
28.716667	1	0.530875
28.733333	1	0.543625
28.750000	1	0.555875
28.766667	1	0.567250
28.783333	1	0.577375
28.800000	1	0.587625
28.816667	1	0.595375
28.833333	1	0.603000
28.850000	1	0.609375
28.866667	1	0.614250
28.883333	1	0.617875
28.900000	1	0.620375
28.916667	1	0.621250
28.933333	1	0.620375
28.950000	1	0.618750
28.966667	1	0.614750
28.983333	1	0.609500
29.000000	1	0.604000
29.016667	1	0.598125
29.033333	1	0.590625
29.050000	1	0.582250
29.066667	1	0.572500
29.083333	1	0.561625
29.100000	1	0.549625
29.116667	1	0.537500
29.133333	1	0.524875
29.150000	1	0.512125
29.166667	1	0.498375
29.183333	1	0.484750
29.200000	1	0.469875
29.216667	1	0.455625
29.233333	1	0.441625
29.250000	1	0.427375
29.266667	1	0.412875
29.283333	1	0.397875
29.300000	1	0.382875
29.316667	1	0.369125
29.333333	1	0.354875
29.350000	1	0.340875
29.366667	1	0.327500
29.383333	1	0.314250
29.400000	1	0.301375
29.416667	1	0.289000
29.433333	1	0.276875
29.450000	1	0.265000
29.466667	1	0.253125
29.483333	1	0.241500
29.500000	1	0.230750
29.516667	1	0.221000
29.533333	1	0.211250
29.550000	1	0.201125
29.566667	1	0.191750
29.583333	1	0.182750
29.600000	1	0.173875
29.616667	1	0.165375
29.633333	1	0.157750
29.650000	1	0.149750
29.666667	1	0.143000
29.683333	1	0.137000
29.700000	1	0.130375
29.716667	1	0.124625
29.733333	1	0.119875
29.750000	1	0.113750
29.766667	1	0.109125
29.783333	1	0.105750
29.800000	1	0.102375
29.816667	1	0.099000
29.833333	1	0.097375
29.850000	1	0.095000
29.866667	1	0.094000
29.883333	1	0.092750
29.900000	1	0.092250
29.916667	1	0.091750
29.933333	1	0.091500
29.950000	1	0.091500
29.966667	1	0.091625
29.983333	1	0.092375
30.000000	1	0.093375
30.016667	1	0.094500
30.033333	1	0.095500
30.050000	1	0.096875
30.066667	1	0.098500
30.083333	1	0.100125
30.100000	1	0.101625
30.116667	1	0.103125
30.133333	1	0.104625
30.150000	1	0.106125
30.166667	1	0.108375
30.183333	1	0.109000
30.200000	1	0.110375
30.216667	1	0.112500
30.233333	1	0.114125
30.250000	1	0.115750
30.266667	1	0.117375
30.283333	1	0.118625
30.300000	1	0.120250
30.316667	1	0.121875
30.333333	1	0.123375
30.350000	1	0.124875
30.366667	1	0.126125
30.383333	1	0.127375
30.400000	1	0.128750
30.416667	1	0.130625
30.433333	1	0.132250
30.450000	1	0.134375
30.466667	1	0.136375
30.483333	1	0.138750
30.500000	1	0.141625
30.516667	1	0.144375
30.533333	1	0.147500
30.550000	1	0.151250
30.566667	1	0.156000
30.583333	1	0.160750
30.600000	1	0.166000
30.616667	1	0.171375
30.633333	1	0.178250
30.650000	1	0.185375
30.666667	1	0.192500
30.683333	1	0.200625
30.700000	1	0.209375
30.716667	1	0.219625
30.733333	1	0.229500
30.750000	1	0.240500
30.766667	1	0.252875
30.783333	1	0.265375
30.800000	1	0.279375
30.816667	1	0.294500
30.833333	1	0.310875
30.850000	1	0.327750
30.866667	1	0.346375
30.883333	1	0.367125
30.900000	1	0.390000
30.916667	1	0.414125
30.933333	1	0.441875
30.950000	1	0.472750
30.966667	1	0.508000
30.983333	1	0.547250
31.000000	1	0.592125
31.016667	1	0.643500
31.033333	1	0.701875
31.050000	1	0.769125
31.066667	1	0.845125
31.083333	1	0.931750
31.100000	1	1.029625
31.116667	1	1.140500
31.133333	1	1.263750
31.150000	1	1.401625
31.166667	1	1.555500
31.183333	1	1.725875
31.200000	1	1.913000
31.216667	1	2.117625
31.233333	1	2.339000
31.250000	1	2.578125
31.266667	1	2.832625
31.283333	1	3.102000
31.300000	1	3.385000
31.316667	1	3.678750
31.333333	1	3.981125
31.350000	1	4.290125
31.366667	1	4.602250
31.383333	1	4.916000
31.400000	1	5.225500
31.416667	1	5.527500
31.433333	1	5.818750
31.450000	1	6.094375
31.466667	1	6.350125
31.483333	1	6.584125
31.500000	1	6.792375
31.516667	1	6.972625
31.533333	1	7.122000
31.550000	1	7.239000
31.566667	1	7.321625
31.583333	1	7.369500
31.600000	1	7.382000
31.616667	1	7.359875
31.633333	1	7.303625
31.650000	1	7.215125
31.666667	1	7.096250
31.683333	1	6.949125
31.700000	1	6.775250
31.716667	1	6.579375
31.733333	1	6.364000
31.750000	1	6.132750
31.766667	1	5.887500
31.783333	1	5.630125
31.800000	1	5.365625
31.816667	1	5.096500
31.833333	1	4.825750
31.850000	1	4.554625
31.866667	1	4.286875
31.883333	1	4.024000
31.900000	1	3.767500
31.916667	1	3.519250
31.933333	1	3.280500
31.950000	1	3.051000
31.966667	1	2.832250
31.983333	1	2.623500
32.000000	1	2.426750
32.016667	1	2.240500
32.033333	1	2.065125
32.050000	1	1.901375
32.066667	1	1.747875
32.083333	1	1.605750
32.100000	1	1.473875
32.116667	1	1.351750
32.133333	1	1.239000
32.150000	1	1.134875
32.166667	1	1.038625
32.183333	1	0.949875
32.200000	1	0.868375
32.216667	1	0.793125
32.233333	1	0.724500
32.250000	1	0.661750
32.266667	1	0.604250
32.283333	1	0.552125
32.300000	1	0.504625
32.316667	1	0.461375
32.333333	1	0.422125
32.350000	1	0.386625
32.366667	1	0.354500
32.383333	1	0.325500
32.400000	1	0.298750
32.416667	1	0.275875
32.433333	1	0.254375
32.450000	1	0.235625
32.466667	1	0.219500
32.483333	1	0.204500
32.500000	1	0.190500
32.516667	1	0.178125
32.533333	1	0.167375
32.550000	1	0.157625
32.566667	1	0.148750
32.583333	1	0.140375
32.600000	1	0.132625
32.616667	1	0.125625
32.633333	1	0.118875
32.650000	1	0.113250
32.666667	1	0.107750
32.683333	1	0.102500
32.700000	1	0.098375
32.716667	1	0.093750
32.733333	1	0.089250
32.750000	1	0.085250
32.766667	1	0.081500
32.783333	1	0.078375
32.800000	1	0.075000
32.816667	1	0.071500
32.833333	1	0.069125
32.850000	1	0.067000
32.866667	1	0.064500
32.883333	1	0.061375
32.900000	1	0.058500
32.916667	1	0.055875
32.933333	1	0.053625
32.950000	1	0.052125
32.966667	1	0.050375
32.983333	1	0.048625
33.000000	1	0.047250
33.016667	1	0.046750
33.033333	1	0.046500
33.050000	1	0.045500
33.066667	1	0.044875
33.083333	1	0.044375
33.100000	1	0.044625
33.116667	1	0.045750
33.133333	1	0.047000
33.150000	1	0.047875
33.166667	1	0.048750
33.183333	1	0.050125
33.200000	1	0.050625
33.216667	1	0.052500
33.233333	1	0.054500
33.250000	1	0.056125
33.266667	1	0.057375
33.283333	1	0.059750
33.300000	1	0.061375
33.316667	1	0.063250
33.333333	1	0.064750
33.350000	1	0.067125
33.366667	1	0.069000
33.383333	1	0.070875
33.400000	1	0.072750
33.416667	1	0.074375
33.433333	1	0.075875
33.450000	1	0.077750
33.466667	1	0.079625
33.483333	1	0.082125
33.500000	1	0.083625
33.516667	1	0.085875
33.533333	1	0.087625
33.550000	1	0.090000
33.566667	1	0.091875
33.583333	1	0.094000
33.600000	1	0.096125
33.616667	1	0.098250
33.633333	1	0.100750
33.650000	1	0.103500
33.666667	1	0.105750
33.683333	1	0.109000
33.700000	1	0.112000
33.716667	1	0.114500
33.733333	1	0.117875
33.750000	1	0.121500
33.766667	1	0.124500
33.783333	1	0.128250
33.800000	1	0.131500
33.816667	1	0.133875
33.833333	1	0.136250
33.850000	1	0.139750
33.866667	1	0.142250
33.883333	1	0.144500
33.900000	1	0.147000
33.916667	1	0.148750
33.933333	1	0.150500
33.950000	1	0.151875
33.966667	1	0.153750
33.983333	1	0.154875
34.000000	1	0.155375
34.016667	1	0.155750
34.033333	1	0.155500
34.050000	1	0.155000
34.066667	1	0.154250
34.083333	1	0.153125
34.100000	1	0.152000
34.116667	1	0.150875
34.133333	1	0.149500
34.150000	1	0.148125
34.166667	1	0.146375
34.183333	1	0.144500
34.200000	1	0.142750
34.216667	1	0.140875
34.233333	1	0.139500
34.250000	1	0.138500
34.266667	1	0.136875
34.283333	1	0.135250
34.300000	1	0.133375
34.316667	1	0.132250
34.333333	1	0.131625
34.350000	1	0.130625
34.366667	1	0.130125
34.383333	1	0.129875
34.400000	1	0.129250
34.416667	1	0.129125
34.433333	1	0.129625
34.450000	1	0.130250
34.466667	1	0.130750
34.483333	1	0.130875
34.500000	1	0.131375
34.516667	1	0.132000
34.533333	1	0.132250
34.550000	1	0.133000
34.566667	1	0.133375
34.583333	1	0.134375
34.600000	1	0.135250
34.616667	1	0.136375
34.633333	1	0.137125
34.650000	1	0.138375
34.666667	1	0.139625
34.683333	1	0.140125
34.700000	1	0.141500
34.716667	1	0.142500
34.733333	1	0.143000
34.750000	1	0.143875
34.766667	1	0.144375
34.783333	1	0.145750
34.800000	1	0.145750
34.816667	1	0.145875
34.833333	1	0.146375
34.850000	1	0.147375
34.866667	1	0.147375
34.883333	1	0.147750
34.900000	1	0.148000
34.916667	1	0.147875
34.933333	1	0.147625
34.950000	1	0.147250
34.966667	1	0.146375
34.983333	1	0.145625
35.000000	1	0.144625
35.016667	1	0.143750
35.033333	1	0.143625
35.050000	1	0.143250
35.066667	1	0.143000
35.083333	1	0.142250
35.100000	1	0.140375
35.116667	1	0.140000
35.133333	1	0.139625
35.150000	1	0.139375
35.166667	1	0.138750
35.183333	1	0.138625
35.200000	1	0.137750
35.216667	1	0.137375
35.233333	1	0.136875
35.250000	1	0.136250
35.266667	1	0.135500
35.283333	1	0.134875
35.300000	1	0.134125
35.316667	1	0.133500
35.333333	1	0.132500
35.350000	1	0.132500
35.366667	1	0.132500
35.383333	1	0.131250
35.400000	1	0.130750
35.416667	1	0.130250
35.433333	1	0.130500
35.450000	1	0.130500
35.466667	1	0.130250
35.483333	1	0.130625
35.500000	1	0.130875
35.516667	1	0.131750
35.533333	1	0.131750
35.550000	1	0.132125
35.566667	1	0.132250
35.583333	1	0.133125
35.600000	1	0.135000
35.616667	1	0.136125
35.633333	1	0.137375
35.650000	1	0.139625
35.666667	1	0.141500
35.683333	1	0.144125
35.700000	1	0.145750
35.716667	1	0.148125
35.733333	1	0.150750
35.750000	1	0.153250
35.766667	1	0.156875
35.783333	1	0.159250
35.800000	1	0.161875
35.816667	1	0.163875
35.833333	1	0.166000
35.850000	1	0.168250
35.866667	1	0.170125
35.883333	1	0.172250
35.900000	1	0.173875
35.916667	1	0.174750
35.933333	1	0.175750
35.950000	1	0.176500
35.966667	1	0.177875
35.983333	1	0.178250
36.000000	1	0.178750
36.016667	1	0.179625
36.033333	1	0.179375
36.050000	1	0.179125
36.066667	1	0.179000
36.083333	1	0.178625
36.100000	1	0.178625
36.116667	1	0.178500
36.133333	1	0.178375
36.150000	1	0.177750
36.166667	1	0.176875
36.183333	1	0.176875
36.200000	1	0.175875
36.216667	1	0.175500
36.233333	1	0.175000
36.250000	1	0.174250
36.266667	1	0.173625
36.283333	1	0.173750
36.300000	1	0.173750
36.316667	1	0.173750
36.333333	1	0.173000
36.350000	1	0.172375
36.366667	1	0.172625
36.383333	1	0.172625
36.400000	1	0.172250
36.416667	1	0.172375
36.433333	1	0.171125
36.450000	1	0.170625
36.466667	1	0.169875
36.483333	1	0.169125
36.500000	1	0.168375
36.516667	1	0.167625
36.533333	1	0.166000
36.550000	1	0.164375
36.566667	1	0.162375
36.583333	1	0.160250
36.600000	1	0.158500
36.616667	1	0.155125
36.633333	1	0.151875
36.650000	1	0.148875
36.666667	1	0.145875
36.683333	1	0.142625
36.700000	1	0.138750
36.716667	1	0.134625
36.733333	1	0.130750
36.750000	1	0.126125
36.766667	1	0.122000
36.783333	1	0.117625
36.800000	1	0.113750
36.816667	1	0.110000
36.833333	1	0.105375
36.850000	1	0.101250
36.866667	1	0.097000
36.883333	1	0.093375
36.900000	1	0.090000
36.916667	1	0.086250
36.933333	1	0.083500
36.950000	1	0.080500
36.966667	1	0.077750
36.983333	1	0.075250
37.000000	1	0.072625
37.016667	1	0.070750
37.033333	1	0.069375
37.050000	1	0.068250
37.066667	1	0.067250
37.083333	1	0.066750
37.100000	1	0.065875
37.116667	1	0.065375
37.133333	1	0.065250
37.150000	1	0.065125
37.166667	1	0.064875
37.183333	1	0.065500
37.200000	1	0.066250
37.216667	1	0.067000
37.233333	1	0.067250
37.250000	1	0.068375
37.266667	1	0.068875
37.283333	1	0.069625
37.300000	1	0.071125
37.316667	1	0.071500
37.333333	1	0.072750
37.350000	1	0.073250
37.366667	1	0.074375
37.383333	1	0.074750
37.400000	1	0.075750
37.416667	1	0.075875
37.433333	1	0.076875
37.450000	1	0.077000
37.466667	1	0.077375
37.483333	1	0.077875
37.500000	1	0.078125
37.516667	1	0.078500
37.533333	1	0.078875
37.550000	1	0.079000
37.566667	1	0.078875
37.583333	1	0.078750
37.600000	1	0.078000
37.616667	1	0.077125
37.633333	1	0.076375
37.650000	1	0.075500
37.666667	1	0.074625
37.683333	1	0.073875
37.700000	1	0.072375
37.716667	1	0.071250
37.733333	1	0.069625
37.750000	1	0.068500
37.766667	1	0.067125
37.783333	1	0.065750
37.800000	1	0.064375
37.816667	1	0.063625
37.833333	1	0.062000
37.850000	1	0.060500
37.866667	1	0.059125
37.883333	1	0.058625
37.900000	1	0.056875
37.916667	1	0.055375
37.933333	1	0.054625
37.950000	1	0.054750
37.966667	1	0.054125
37.983333	1	0.053875
38.000000	1	0.053750
38.016667	1	0.053000
38.033333	1	0.053250
38.050000	1	0.053750
38.066667	1	0.054125
38.083333	1	0.055250
38.100000	1	0.055625
38.116667	1	0.057000
38.133333	1	0.058250
38.150000	1	0.059125
38.166667	1	0.060000
38.183333	1	0.061375
38.200000	1	0.062125
38.216667	1	0.063250
38.233333	1	0.065000
38.250000	1	0.066750
38.266667	1	0.068000
38.283333	1	0.070250
38.300000	1	0.071875
38.316667	1	0.073875
38.333333	1	0.075500
38.350000	1	0.077000
38.366667	1	0.079000
38.383333	1	0.081500
38.400000	1	0.082500
38.416667	1	0.083750
38.433333	1	0.084875
38.450000	1	0.086375
38.466667	1	0.087875
38.483333	1	0.089625
38.500000	1	0.091375
38.516667	1	0.092500
38.533333	1	0.094125
38.550000	1	0.096000
38.566667	1	0.097750
38.583333	1	0.098375
38.600000	1	0.099625
38.616667	1	0.101000
38.633333	1	0.102250
38.650000	1	0.103000
38.666667	1	0.104500
38.683333	1	0.104875
38.700000	1	0.106625
38.716667	1	0.107250
38.733333	1	0.108125
38.750000	1	0.108750
38.766667	1	0.109625
38.783333	1	0.110500
38.800000	1	0.111875
38.816667	1	0.111875
38.833333	1	0.112375
38.850000	1	0.112250
38.866667	1	0.112625
38.883333	1	0.113750
38.900000	1	0.114500
38.916667	1	0.114125
38.933333	1	0.113750
38.950000	1	0.112375
38.966667	1	0.110375
38.983333	1	0.110875
39.000000	1	0.109875
39.016667	1	0.109875
39.033333	1	0.108875
39.050000	1	0.108375
39.066667	1	0.106750
39.083333	1	0.106000
39.100000	1	0.104125
39.116667	1	0.102500
39.133333	1	0.101000
39.150000	1	0.099250
39.166667	1	0.097375
39.183333	1	0.094750
39.200000	1	0.093000
39.216667	1	0.090375
39.233333	1	0.088500
39.250000	1	0.085625
39.266667	1	0.083500
39.283333	1	0.081375
39.300000	1	0.079000
39.316667	1	0.076375
39.333333	1	0.073625
39.350000	1	0.071625
39.366667	1	0.069250
39.383333	1	0.066625
39.400000	1	0.064125
39.416667	1	0.061500
39.433333	1	0.058750
39.450000	1	0.056125
39.466667	1	0.054125
39.483333	1	0.052125
39.500000	1	0.049875
39.516667	1	0.047500
39.533333	1	0.045250
39.550000	1	0.043375
39.566667	1	0.041750
39.583333	1	0.039000
39.600000	1	0.036625
39.616667	1	0.034375
39.633333	1	0.032875
39.650000	1	0.031000
39.666667	1	0.029500
39.683333	1	0.028250
39.700000	1	0.026875
39.716667	1	0.025250
39.733333	1	0.024375
39.750000	1	0.022375
39.766667	1	0.021125
39.783333	1	0.020250
39.800000	1	0.019375
39.816667	1	0.018500
39.833333	1	0.018125
39.850000	1	0.018000
39.866667	1	0.017125
39.883333	1	0.016750
39.900000	1	0.016375
39.916667	1	0.015875
39.933333	1	0.016000
39.950000	1	0.015500
39.966667	1	0.015250
39.983333	1	0.015250
40.000000	1	0.014875
