URL	chrom://bioreactor/micro_cm7/HPLC_Ultimate_3000/Users/markusar/20240716_MA_pHrange2.seq/531.smp/RI_1.channel/RI_1.chm
Channel	RI_1

Injection Information:
Data Vault	micro_cm7
Sequence	20240716_MA_pHrange2
Name	Pv1_40H_1
Number	14
Position	BB2
Comment	
Processing Method	
Instrument Method	run_25B_method
Type	Unknown
Status	Finished
Inject Time	17.07.2024 02:59:05 +02:00
Volume (µl)	20.0000
Dilution Factor	1.0000
Weight	1.0000

Chromatogram Data Information:
Time Min. (min)	0.000000
Time Max. (min)	40.000000
Data Points	2401
Detector	RI
Generating Data System	Chromeleon 7.3.2.11814
Exporting Data System	Chromeleon 7.3.2.0
Operator	Instrument Controller
Signal Quantity	Refractive 
Signal Unit	µRIU
Signal Min.	-0.306000
Signal Max.	105.770125
Channel	RI_1
Driver Name	RID520Driver.dll
Channel Type	Evaluation
Min. Step (s)	1
Max. Step (s)	1
Average Step (s)	1

Signal Parameter Information:
Signal Info	

Chromatogram Data:
Time (min)	Step (s)	Value (µRIU)
0.000000	n.a.	-0.039375
0.016667	1	-0.042125
0.033333	1	-0.043750
0.050000	1	-0.045250
0.066667	1	-0.047000
0.083333	1	-0.048500
0.100000	1	-0.050250
0.116667	1	-0.051500
0.133333	1	-0.052250
0.150000	1	-0.053375
0.166667	1	-0.054250
0.183333	1	-0.054625
0.200000	1	-0.055375
0.216667	1	-0.055500
0.233333	1	-0.055125
0.250000	1	-0.055000
0.266667	1	-0.055125
0.283333	1	-0.055125
0.300000	1	-0.054500
0.316667	1	-0.053375
0.333333	1	-0.052875
0.350000	1	-0.053000
0.366667	1	-0.052375
0.383333	1	-0.052250
0.400000	1	-0.052375
0.416667	1	-0.052125
0.433333	1	-0.050750
0.450000	1	-0.048625
0.466667	1	-0.046500
0.483333	1	-0.044375
0.500000	1	-0.043375
0.516667	1	-0.042375
0.533333	1	-0.042750
0.550000	1	-0.043500
0.566667	1	-0.045125
0.583333	1	-0.046500
0.600000	1	-0.048750
0.616667	1	-0.050250
0.633333	1	-0.051500
0.650000	1	-0.052375
0.666667	1	-0.054000
0.683333	1	-0.055125
0.700000	1	-0.055875
0.716667	1	-0.057250
0.733333	1	-0.059125
0.750000	1	-0.060750
0.766667	1	-0.063125
0.783333	1	-0.064500
0.800000	1	-0.066125
0.816667	1	-0.067500
0.833333	1	-0.069375
0.850000	1	-0.070625
0.866667	1	-0.071750
0.883333	1	-0.073250
0.900000	1	-0.075875
0.916667	1	-0.077125
0.933333	1	-0.079375
0.950000	1	-0.081375
0.966667	1	-0.082500
0.983333	1	-0.084250
1.000000	1	-0.085875
1.016667	1	-0.087625
1.033333	1	-0.089000
1.050000	1	-0.090500
1.066667	1	-0.091625
1.083333	1	-0.092750
1.100000	1	-0.093625
1.116667	1	-0.094625
1.133333	1	-0.095125
1.150000	1	-0.096375
1.166667	1	-0.097500
1.183333	1	-0.098250
1.200000	1	-0.099250
1.216667	1	-0.100000
1.233333	1	-0.100375
1.250000	1	-0.100375
1.266667	1	-0.100625
1.283333	1	-0.100375
1.300000	1	-0.100875
1.316667	1	-0.100500
1.333333	1	-0.100625
1.350000	1	-0.100750
1.366667	1	-0.101625
1.383333	1	-0.101875
1.400000	1	-0.101875
1.416667	1	-0.101875
1.433333	1	-0.101875
1.450000	1	-0.101625
1.466667	1	-0.100875
1.483333	1	-0.100500
1.500000	1	-0.100125
1.516667	1	-0.099500
1.533333	1	-0.098375
1.550000	1	-0.097500
1.566667	1	-0.097375
1.583333	1	-0.097250
1.600000	1	-0.096375
1.616667	1	-0.095250
1.633333	1	-0.094125
1.650000	1	-0.093000
1.666667	1	-0.091625
1.683333	1	-0.090000
1.700000	1	-0.089000
1.716667	1	-0.087125
1.733333	1	-0.085375
1.750000	1	-0.083875
1.766667	1	-0.081750
1.783333	1	-0.079125
1.800000	1	-0.077000
1.816667	1	-0.075000
1.833333	1	-0.072750
1.850000	1	-0.070250
1.866667	1	-0.067375
1.883333	1	-0.065125
1.900000	1	-0.061750
1.916667	1	-0.058500
1.933333	1	-0.056000
1.950000	1	-0.052750
1.966667	1	-0.049500
1.983333	1	-0.046000
2.000000	1	-0.042750
2.016667	1	-0.039250
2.033333	1	-0.035750
2.050000	1	-0.032125
2.066667	1	-0.028375
2.083333	1	-0.024000
2.100000	1	-0.020375
2.116667	1	-0.017375
2.133333	1	-0.014250
2.150000	1	-0.011250
2.166667	1	-0.008250
2.183333	1	-0.005375
2.200000	1	-0.003375
2.216667	1	-0.000750
2.233333	1	0.000625
2.250000	1	0.002250
2.266667	1	0.003750
2.283333	1	0.004625
2.300000	1	0.005500
2.316667	1	0.006000
2.333333	1	0.005875
2.350000	1	0.005875
2.366667	1	0.005250
2.383333	1	0.004500
2.400000	1	0.003375
2.416667	1	0.002000
2.433333	1	0.000875
2.450000	1	-0.000625
2.466667	1	-0.002000
2.483333	1	-0.004375
2.500000	1	-0.006375
2.516667	1	-0.008750
2.533333	1	-0.011375
2.550000	1	-0.013750
2.566667	1	-0.016375
2.583333	1	-0.018250
2.600000	1	-0.020500
2.616667	1	-0.022750
2.633333	1	-0.025375
2.650000	1	-0.027625
2.666667	1	-0.029500
2.683333	1	-0.031625
2.700000	1	-0.033500
2.716667	1	-0.034875
2.733333	1	-0.036250
2.750000	1	-0.037125
2.766667	1	-0.037875
2.783333	1	-0.038375
2.800000	1	-0.039000
2.816667	1	-0.038750
2.833333	1	-0.038875
2.850000	1	-0.038250
2.866667	1	-0.037750
2.883333	1	-0.036875
2.900000	1	-0.036125
2.916667	1	-0.035125
2.933333	1	-0.034125
2.950000	1	-0.033625
2.966667	1	-0.032125
2.983333	1	-0.030625
3.000000	1	-0.029250
3.016667	1	-0.028500
3.033333	1	-0.026875
3.050000	1	-0.025125
3.066667	1	-0.023375
3.083333	1	-0.021500
3.100000	1	-0.019750
3.116667	1	-0.018875
3.133333	1	-0.017625
3.150000	1	-0.016500
3.166667	1	-0.015250
3.183333	1	-0.014000
3.200000	1	-0.013250
3.216667	1	-0.012625
3.233333	1	-0.011750
3.250000	1	-0.009750
3.266667	1	-0.008875
3.283333	1	-0.008000
3.300000	1	-0.007500
3.316667	1	-0.006000
3.333333	1	-0.005125
3.350000	1	-0.003625
3.366667	1	-0.002625
3.383333	1	-0.001500
3.400000	1	-0.000750
3.416667	1	0.000000
3.433333	1	0.000500
3.450000	1	0.001875
3.466667	1	0.002750
3.483333	1	0.003250
3.500000	1	0.004500
3.516667	1	0.005625
3.533333	1	0.006000
3.550000	1	0.006750
3.566667	1	0.008250
3.583333	1	0.009625
3.600000	1	0.010500
3.616667	1	0.011250
3.633333	1	0.012875
3.650000	1	0.013750
3.666667	1	0.014500
3.683333	1	0.014750
3.700000	1	0.015250
3.716667	1	0.015500
3.733333	1	0.016500
3.750000	1	0.016125
3.766667	1	0.016250
3.783333	1	0.016750
3.800000	1	0.017000
3.816667	1	0.017125
3.833333	1	0.016875
3.850000	1	0.016875
3.866667	1	0.016750
3.883333	1	0.016875
3.900000	1	0.016250
3.916667	1	0.015750
3.933333	1	0.015000
3.950000	1	0.014750
3.966667	1	0.014500
3.983333	1	0.014000
4.000000	1	0.013500
4.016667	1	0.013250
4.033333	1	0.013625
4.050000	1	0.012375
4.066667	1	0.012625
4.083333	1	0.012875
4.100000	1	0.013250
4.116667	1	0.013375
4.133333	1	0.014250
4.150000	1	0.014875
4.166667	1	0.015375
4.183333	1	0.016500
4.200000	1	0.017625
4.216667	1	0.018375
4.233333	1	0.019500
4.250000	1	0.020750
4.266667	1	0.022375
4.283333	1	0.023750
4.300000	1	0.025625
4.316667	1	0.027375
4.333333	1	0.029375
4.350000	1	0.032125
4.366667	1	0.034250
4.383333	1	0.036000
4.400000	1	0.038375
4.416667	1	0.040625
4.433333	1	0.042875
4.450000	1	0.044500
4.466667	1	0.047375
4.483333	1	0.049250
4.500000	1	0.051625
4.516667	1	0.053750
4.533333	1	0.056125
4.550000	1	0.058000
4.566667	1	0.059875
4.583333	1	0.061750
4.600000	1	0.063250
4.616667	1	0.065250
4.633333	1	0.066750
4.650000	1	0.068375
4.666667	1	0.070000
4.683333	1	0.071375
4.700000	1	0.073000
4.716667	1	0.074125
4.733333	1	0.075875
4.750000	1	0.077000
4.766667	1	0.079250
4.783333	1	0.081000
4.800000	1	0.082875
4.816667	1	0.084250
4.833333	1	0.085625
4.850000	1	0.087625
4.866667	1	0.089500
4.883333	1	0.092250
4.900000	1	0.094250
4.916667	1	0.096000
4.933333	1	0.098250
4.950000	1	0.100500
4.966667	1	0.103500
4.983333	1	0.106000
5.000000	1	0.108750
5.016667	1	0.111750
5.033333	1	0.115500
5.050000	1	0.118875
5.066667	1	0.122000
5.083333	1	0.125375
5.100000	1	0.128875
5.116667	1	0.132500
5.133333	1	0.135500
5.150000	1	0.138750
5.166667	1	0.142500
5.183333	1	0.145250
5.200000	1	0.148375
5.216667	1	0.151625
5.233333	1	0.154500
5.250000	1	0.156625
5.266667	1	0.159000
5.283333	1	0.161625
5.300000	1	0.163500
5.316667	1	0.165500
5.333333	1	0.167625
5.350000	1	0.169375
5.366667	1	0.169875
5.383333	1	0.170625
5.400000	1	0.171625
5.416667	1	0.171875
5.433333	1	0.172500
5.450000	1	0.172500
5.466667	1	0.172375
5.483333	1	0.172125
5.500000	1	0.170375
5.516667	1	0.168875
5.533333	1	0.167875
5.550000	1	0.166625
5.566667	1	0.164000
5.583333	1	0.161625
5.600000	1	0.159125
5.616667	1	0.156750
5.633333	1	0.153375
5.650000	1	0.150375
5.666667	1	0.147000
5.683333	1	0.143375
5.700000	1	0.140000
5.716667	1	0.136500
5.733333	1	0.132750
5.750000	1	0.129000
5.766667	1	0.125375
5.783333	1	0.121125
5.800000	1	0.117125
5.816667	1	0.113250
5.833333	1	0.109125
5.850000	1	0.104750
5.866667	1	0.101000
5.883333	1	0.096250
5.900000	1	0.092750
5.916667	1	0.088750
5.933333	1	0.084625
5.950000	1	0.080250
5.966667	1	0.077000
5.983333	1	0.073750
6.000000	1	0.070250
6.016667	1	0.067250
6.033333	1	0.064500
6.050000	1	0.060625
6.066667	1	0.057750
6.083333	1	0.054500
6.100000	1	0.051625
6.116667	1	0.048500
6.133333	1	0.046000
6.150000	1	0.042875
6.166667	1	0.040750
6.183333	1	0.038500
6.200000	1	0.035375
6.216667	1	0.033875
6.233333	1	0.031875
6.250000	1	0.029250
6.266667	1	0.026625
6.283333	1	0.023750
6.300000	1	0.021875
6.316667	1	0.019125
6.333333	1	0.016750
6.350000	1	0.014250
6.366667	1	0.012125
6.383333	1	0.010125
6.400000	1	0.008625
6.416667	1	0.006500
6.433333	1	0.004750
6.450000	1	0.003000
6.466667	1	0.001125
6.483333	1	-0.000125
6.500000	1	-0.001750
6.516667	1	-0.003375
6.533333	1	-0.004625
6.550000	1	-0.006125
6.566667	1	-0.006500
6.583333	1	-0.007500
6.600000	1	-0.008250
6.616667	1	-0.008500
6.633333	1	-0.009125
6.650000	1	-0.009125
6.666667	1	-0.008875
6.683333	1	-0.008750
6.700000	1	-0.007750
6.716667	1	-0.008000
6.733333	1	-0.007000
6.750000	1	-0.005625
6.766667	1	-0.004000
6.783333	1	-0.003375
6.800000	1	-0.001750
6.816667	1	-0.000750
6.833333	1	0.000875
6.850000	1	0.002750
6.866667	1	0.004750
6.883333	1	0.006375
6.900000	1	0.008125
6.916667	1	0.010125
6.933333	1	0.012375
6.950000	1	0.014625
6.966667	1	0.016625
6.983333	1	0.018250
7.000000	1	0.020875
7.016667	1	0.022875
7.033333	1	0.025250
7.050000	1	0.027375
7.066667	1	0.029875
7.083333	1	0.031375
7.100000	1	0.032375
7.116667	1	0.034625
7.133333	1	0.036250
7.150000	1	0.037750
7.166667	1	0.039125
7.183333	1	0.040625
7.200000	1	0.041250
7.216667	1	0.042250
7.233333	1	0.042875
7.250000	1	0.043625
7.266667	1	0.043375
7.283333	1	0.043500
7.300000	1	0.044125
7.316667	1	0.043875
7.333333	1	0.043875
7.350000	1	0.043250
7.366667	1	0.042250
7.383333	1	0.040750
7.400000	1	0.040375
7.416667	1	0.038750
7.433333	1	0.037750
7.450000	1	0.036250
7.466667	1	0.034125
7.483333	1	0.032500
7.500000	1	0.030500
7.516667	1	0.028750
7.533333	1	0.026375
7.550000	1	0.024375
7.566667	1	0.021750
7.583333	1	0.019375
7.600000	1	0.016500
7.616667	1	0.013750
7.633333	1	0.010750
7.650000	1	0.008000
7.666667	1	0.005625
7.683333	1	0.002875
7.700000	1	0.000000
7.716667	1	-0.002500
7.733333	1	-0.005750
7.750000	1	-0.008625
7.766667	1	-0.011625
7.783333	1	-0.014625
7.800000	1	-0.017750
7.816667	1	-0.020875
7.833333	1	-0.024000
7.850000	1	-0.026500
7.866667	1	-0.028875
7.883333	1	-0.031750
7.900000	1	-0.034375
7.916667	1	-0.036750
7.933333	1	-0.039125
7.950000	1	-0.041250
7.966667	1	-0.043375
7.983333	1	-0.045500
8.000000	1	-0.047500
8.016667	1	-0.049625
8.033333	1	-0.051875
8.050000	1	-0.053250
8.066667	1	-0.054375
8.083333	1	-0.056250
8.100000	1	-0.057625
8.116667	1	-0.058875
8.133333	1	-0.060000
8.150000	1	-0.060250
8.166667	1	-0.060500
8.183333	1	-0.061625
8.200000	1	-0.062625
8.216667	1	-0.063125
8.233333	1	-0.063375
8.250000	1	-0.063375
8.266667	1	-0.064000
8.283333	1	-0.064500
8.300000	1	-0.064000
8.316667	1	-0.064125
8.333333	1	-0.063500
8.350000	1	-0.063125
8.366667	1	-0.062250
8.383333	1	-0.061875
8.400000	1	-0.061375
8.416667	1	-0.060375
8.433333	1	-0.060625
8.450000	1	-0.060250
8.466667	1	-0.058625
8.483333	1	-0.058250
8.500000	1	-0.057250
8.516667	1	-0.056375
8.533333	1	-0.055250
8.550000	1	-0.055000
8.566667	1	-0.053750
8.583333	1	-0.052875
8.600000	1	-0.051625
8.616667	1	-0.050875
8.633333	1	-0.049625
8.650000	1	-0.048500
8.666667	1	-0.047375
8.683333	1	-0.046625
8.700000	1	-0.044875
8.716667	1	-0.043875
8.733333	1	-0.042750
8.750000	1	-0.042125
8.766667	1	-0.041375
8.783333	1	-0.040625
8.800000	1	-0.039625
8.816667	1	-0.038500
8.833333	1	-0.037500
8.850000	1	-0.037000
8.866667	1	-0.036125
8.883333	1	-0.035500
8.900000	1	-0.035875
8.916667	1	-0.035250
8.933333	1	-0.034875
8.950000	1	-0.035000
8.966667	1	-0.034875
8.983333	1	-0.034875
9.000000	1	-0.035500
9.016667	1	-0.035375
9.033333	1	-0.035500
9.050000	1	-0.035875
9.066667	1	-0.036000
9.083333	1	-0.035750
9.100000	1	-0.035625
9.116667	1	-0.035750
9.133333	1	-0.036125
9.150000	1	-0.037000
9.166667	1	-0.037875
9.183333	1	-0.039250
9.200000	1	-0.040000
9.216667	1	-0.040375
9.233333	1	-0.041250
9.250000	1	-0.041375
9.266667	1	-0.042250
9.283333	1	-0.043125
9.300000	1	-0.043625
9.316667	1	-0.044000
9.333333	1	-0.044875
9.350000	1	-0.045750
9.366667	1	-0.046500
9.383333	1	-0.047125
9.400000	1	-0.048250
9.416667	1	-0.048500
9.433333	1	-0.049000
9.450000	1	-0.049500
9.466667	1	-0.050250
9.483333	1	-0.052000
9.500000	1	-0.052375
9.516667	1	-0.053000
9.533333	1	-0.052625
9.550000	1	-0.053875
9.566667	1	-0.054625
9.583333	1	-0.055625
9.600000	1	-0.056750
9.616667	1	-0.056875
9.633333	1	-0.057500
9.650000	1	-0.057750
9.666667	1	-0.058625
9.683333	1	-0.059250
9.700000	1	-0.059500
9.716667	1	-0.059500
9.733333	1	-0.060125
9.750000	1	-0.060375
9.766667	1	-0.059375
9.783333	1	-0.059125
9.800000	1	-0.059250
9.816667	1	-0.059250
9.833333	1	-0.058750
9.850000	1	-0.058000
9.866667	1	-0.057375
9.883333	1	-0.057250
9.900000	1	-0.057250
9.916667	1	-0.056375
9.933333	1	-0.056000
9.950000	1	-0.055000
9.966667	1	-0.053625
9.983333	1	-0.053000
10.000000	1	-0.052125
10.016667	1	-0.052500
10.033333	1	-0.051500
10.050000	1	-0.050125
10.066667	1	-0.049375
10.083333	1	-0.048375
10.100000	1	-0.046625
10.116667	1	-0.044500
10.133333	1	-0.042250
10.150000	1	-0.039875
10.166667	1	-0.036500
10.183333	1	-0.032750
10.200000	1	-0.026875
10.216667	1	-0.020875
10.233333	1	-0.013625
10.250000	1	-0.005000
10.266667	1	0.004875
10.283333	1	0.016500
10.300000	1	0.029250
10.316667	1	0.043625
10.333333	1	0.058250
10.350000	1	0.072250
10.366667	1	0.083375
10.383333	1	0.088500
10.400000	1	0.082125
10.416667	1	0.058750
10.433333	1	0.014125
10.450000	1	-0.052375
10.466667	1	-0.137125
10.483333	1	-0.227125
10.500000	1	-0.296750
10.516667	1	-0.306000
10.533333	1	-0.204000
10.550000	1	0.073000
10.566667	1	0.595250
10.583333	1	1.433875
10.600000	1	2.656125
10.616667	1	4.320750
10.633333	1	6.476000
10.650000	1	9.152375
10.666667	1	12.375500
10.683333	1	16.158750
10.700000	1	20.507875
10.716667	1	25.413875
10.733333	1	30.862125
10.750000	1	36.825500
10.766667	1	43.266250
10.783333	1	50.138125
10.800000	1	57.391875
10.816667	1	64.956625
10.833333	1	72.726875
10.850000	1	80.539000
10.866667	1	88.153250
10.883333	1	95.176375
10.900000	1	101.010625
10.916667	1	104.841625
10.933333	1	105.770125
10.950000	1	103.084625
10.966667	1	96.625750
10.983333	1	86.958375
11.000000	1	75.248750
11.016667	1	62.886500
11.033333	1	51.079000
11.050000	1	40.603375
11.066667	1	31.785125
11.083333	1	24.644750
11.100000	1	19.021000
11.116667	1	14.682250
11.133333	1	11.383875
11.150000	1	8.903875
11.166667	1	7.050125
11.183333	1	5.668125
11.200000	1	4.636875
11.216667	1	3.864125
11.233333	1	3.280875
11.250000	1	2.835375
11.266667	1	2.491250
11.283333	1	2.221250
11.300000	1	2.006375
11.316667	1	1.832875
11.333333	1	1.690125
11.350000	1	1.572125
11.366667	1	1.473125
11.383333	1	1.388625
11.400000	1	1.317125
11.416667	1	1.256250
11.433333	1	1.204000
11.450000	1	1.159000
11.466667	1	1.120625
11.483333	1	1.088000
11.500000	1	1.060000
11.516667	1	1.035875
11.533333	1	1.015625
11.550000	1	0.998875
11.566667	1	0.984625
11.583333	1	0.972375
11.600000	1	0.962375
11.616667	1	0.954875
11.633333	1	0.949000
11.650000	1	0.944250
11.666667	1	0.941500
11.683333	1	0.940750
11.700000	1	0.941000
11.716667	1	0.943125
11.733333	1	0.947000
11.750000	1	0.951875
11.766667	1	0.957375
11.783333	1	0.964125
11.800000	1	0.972500
11.816667	1	0.981375
11.833333	1	0.990625
11.850000	1	1.000375
11.866667	1	1.010250
11.883333	1	1.019875
11.900000	1	1.028125
11.916667	1	1.036375
11.933333	1	1.043375
11.950000	1	1.049125
11.966667	1	1.053375
11.983333	1	1.057250
12.000000	1	1.060250
12.016667	1	1.063125
12.033333	1	1.064875
12.050000	1	1.067000
12.066667	1	1.068000
12.083333	1	1.069250
12.100000	1	1.071000
12.116667	1	1.073125
12.133333	1	1.075625
12.150000	1	1.077875
12.166667	1	1.081000
12.183333	1	1.084000
12.200000	1	1.088625
12.216667	1	1.093000
12.233333	1	1.098375
12.250000	1	1.105000
12.266667	1	1.113125
12.283333	1	1.124000
12.300000	1	1.137500
12.316667	1	1.154125
12.333333	1	1.176500
12.350000	1	1.205625
12.366667	1	1.244125
12.383333	1	1.295500
12.400000	1	1.362375
12.416667	1	1.448625
12.433333	1	1.558625
12.450000	1	1.698250
12.466667	1	1.872500
12.483333	1	2.087000
12.500000	1	2.346375
12.516667	1	2.655250
12.533333	1	3.017500
12.550000	1	3.434875
12.566667	1	3.908000
12.583333	1	4.435750
12.600000	1	5.013750
12.616667	1	5.635125
12.633333	1	6.291250
12.650000	1	6.971250
12.666667	1	7.662250
12.683333	1	8.352875
12.700000	1	9.029375
12.716667	1	9.682625
12.733333	1	10.305000
12.750000	1	10.891875
12.766667	1	11.444500
12.783333	1	11.967375
12.800000	1	12.467000
12.816667	1	12.952250
12.833333	1	13.433750
12.850000	1	13.921125
12.866667	1	14.423875
12.883333	1	14.949500
12.900000	1	15.502875
12.916667	1	16.086750
12.933333	1	16.703125
12.950000	1	17.352375
12.966667	1	18.034250
12.983333	1	18.747750
13.000000	1	19.489625
13.016667	1	20.257750
13.033333	1	21.051875
13.050000	1	21.871000
13.066667	1	22.713500
13.083333	1	23.579750
13.100000	1	24.467250
13.116667	1	25.376375
13.133333	1	26.303250
13.150000	1	27.249625
13.166667	1	28.215125
13.183333	1	29.200125
13.200000	1	30.203000
13.216667	1	31.223625
13.233333	1	32.263500
13.250000	1	33.323000
13.266667	1	34.403875
13.283333	1	35.505375
13.300000	1	36.628375
13.316667	1	37.772625
13.333333	1	38.937625
13.350000	1	40.124250
13.366667	1	41.333625
13.383333	1	42.565500
13.400000	1	43.820500
13.416667	1	45.098125
13.433333	1	46.400750
13.450000	1	47.729250
13.466667	1	49.086250
13.483333	1	50.470500
13.500000	1	51.883625
13.516667	1	53.325500
13.533333	1	54.796375
13.550000	1	56.296125
13.566667	1	57.827000
13.583333	1	59.387750
13.600000	1	60.978500
13.616667	1	62.599375
13.633333	1	64.252875
13.650000	1	65.941000
13.666667	1	67.664875
13.683333	1	69.424750
13.700000	1	71.220875
13.716667	1	73.055000
13.733333	1	74.924250
13.750000	1	76.820375
13.766667	1	78.704500
13.783333	1	80.473625
13.800000	1	81.936250
13.816667	1	82.843875
13.833333	1	82.937375
13.850000	1	81.986500
13.866667	1	79.763000
13.883333	1	76.032500
13.900000	1	70.600625
13.916667	1	63.468375
13.933333	1	55.007125
13.950000	1	45.964375
13.966667	1	37.233750
13.983333	1	29.526000
14.000000	1	23.179500
14.016667	1	18.189625
14.033333	1	14.370000
14.050000	1	11.489125
14.066667	1	9.337000
14.083333	1	7.742375
14.100000	1	6.569250
14.116667	1	5.708000
14.133333	1	5.075750
14.150000	1	4.607125
14.166667	1	4.255125
14.183333	1	3.985875
14.200000	1	3.775500
14.216667	1	3.606750
14.233333	1	3.468375
14.250000	1	3.352250
14.266667	1	3.253000
14.283333	1	3.166375
14.300000	1	3.089625
14.316667	1	3.020000
14.333333	1	2.958250
14.350000	1	2.902500
14.366667	1	2.851625
14.383333	1	2.807000
14.400000	1	2.769750
14.416667	1	2.740250
14.433333	1	2.719875
14.450000	1	2.710750
14.466667	1	2.718250
14.483333	1	2.747500
14.500000	1	2.806125
14.516667	1	2.904125
14.533333	1	3.055125
14.550000	1	3.277500
14.566667	1	3.594500
14.583333	1	4.037625
14.600000	1	4.642250
14.616667	1	5.456125
14.633333	1	6.532375
14.650000	1	7.933875
14.666667	1	9.725000
14.683333	1	11.971250
14.700000	1	14.735000
14.716667	1	18.065000
14.733333	1	21.989875
14.750000	1	26.509500
14.766667	1	31.588500
14.783333	1	37.142875
14.800000	1	43.053125
14.816667	1	49.155250
14.833333	1	55.248500
14.850000	1	61.095375
14.866667	1	66.444250
14.883333	1	71.040625
14.900000	1	74.654625
14.916667	1	77.098250
14.933333	1	78.246625
14.950000	1	78.043250
14.966667	1	76.512250
14.983333	1	73.756625
15.000000	1	69.936500
15.016667	1	65.257000
15.033333	1	59.951750
15.050000	1	54.269000
15.066667	1	48.447375
15.083333	1	42.699750
15.100000	1	37.200000
15.116667	1	32.081125
15.133333	1	27.428625
15.150000	1	23.286500
15.166667	1	19.667625
15.183333	1	16.557875
15.200000	1	13.919625
15.216667	1	11.706250
15.233333	1	9.867250
15.250000	1	8.352000
15.266667	1	7.113000
15.283333	1	6.105250
15.300000	1	5.291000
15.316667	1	4.634875
15.333333	1	4.109250
15.350000	1	3.689875
15.366667	1	3.357250
15.383333	1	3.094000
15.400000	1	2.887500
15.416667	1	2.727750
15.433333	1	2.605750
15.450000	1	2.513125
15.466667	1	2.445750
15.483333	1	2.396625
15.500000	1	2.361250
15.516667	1	2.334500
15.533333	1	2.313625
15.550000	1	2.294750
15.566667	1	2.275875
15.583333	1	2.255000
15.600000	1	2.229750
15.616667	1	2.200625
15.633333	1	2.167625
15.650000	1	2.129375
15.666667	1	2.088375
15.683333	1	2.046000
15.700000	1	2.003250
15.716667	1	1.960625
15.733333	1	1.918250
15.750000	1	1.877875
15.766667	1	1.839375
15.783333	1	1.803000
15.800000	1	1.767500
15.816667	1	1.734000
15.833333	1	1.700875
15.850000	1	1.669125
15.866667	1	1.636875
15.883333	1	1.604500
15.900000	1	1.573375
15.916667	1	1.543250
15.933333	1	1.514375
15.950000	1	1.487500
15.966667	1	1.462375
15.983333	1	1.440625
16.000000	1	1.421250
16.016667	1	1.405375
16.033333	1	1.392125
16.050000	1	1.381875
16.066667	1	1.374250
16.083333	1	1.369000
16.100000	1	1.364375
16.116667	1	1.361125
16.133333	1	1.358500
16.150000	1	1.355750
16.166667	1	1.353000
16.183333	1	1.348750
16.200000	1	1.344125
16.216667	1	1.337875
16.233333	1	1.329875
16.250000	1	1.320500
16.266667	1	1.310000
16.283333	1	1.297875
16.300000	1	1.284750
16.316667	1	1.271250
16.333333	1	1.257000
16.350000	1	1.242375
16.366667	1	1.226750
16.383333	1	1.212500
16.400000	1	1.198875
16.416667	1	1.184875
16.433333	1	1.172000
16.450000	1	1.160250
16.466667	1	1.150500
16.483333	1	1.141625
16.500000	1	1.134375
16.516667	1	1.130375
16.533333	1	1.128000
16.550000	1	1.127875
16.566667	1	1.128750
16.583333	1	1.131750
16.600000	1	1.136125
16.616667	1	1.141000
16.633333	1	1.146875
16.650000	1	1.151750
16.666667	1	1.156500
16.683333	1	1.160375
16.700000	1	1.164125
16.716667	1	1.166500
16.733333	1	1.168000
16.750000	1	1.168750
16.766667	1	1.169125
16.783333	1	1.168375
16.800000	1	1.167625
16.816667	1	1.166375
16.833333	1	1.166625
16.850000	1	1.167250
16.866667	1	1.167875
16.883333	1	1.168875
16.900000	1	1.170375
16.916667	1	1.171875
16.933333	1	1.172625
16.950000	1	1.172750
16.966667	1	1.171375
16.983333	1	1.170000
17.000000	1	1.167375
17.016667	1	1.164250
17.033333	1	1.160125
17.050000	1	1.154625
17.066667	1	1.149000
17.083333	1	1.142625
17.100000	1	1.136125
17.116667	1	1.129250
17.133333	1	1.122750
17.150000	1	1.117250
17.166667	1	1.112500
17.183333	1	1.108250
17.200000	1	1.104375
17.216667	1	1.102125
17.233333	1	1.100500
17.250000	1	1.099250
17.266667	1	1.098750
17.283333	1	1.099625
17.300000	1	1.100875
17.316667	1	1.102000
17.333333	1	1.104500
17.350000	1	1.107000
17.366667	1	1.109750
17.383333	1	1.112750
17.400000	1	1.115875
17.416667	1	1.118750
17.433333	1	1.120875
17.450000	1	1.122375
17.466667	1	1.123750
17.483333	1	1.124000
17.500000	1	1.123625
17.516667	1	1.121750
17.533333	1	1.119000
17.550000	1	1.114625
17.566667	1	1.108875
17.583333	1	1.101000
17.600000	1	1.092750
17.616667	1	1.082125
17.633333	1	1.069875
17.650000	1	1.057125
17.666667	1	1.043625
17.683333	1	1.029750
17.700000	1	1.015625
17.716667	1	1.000875
17.733333	1	0.986000
17.750000	1	0.971125
17.766667	1	0.956875
17.783333	1	0.943375
17.800000	1	0.929875
17.816667	1	0.918250
17.833333	1	0.906625
17.850000	1	0.895750
17.866667	1	0.885125
17.883333	1	0.875000
17.900000	1	0.866500
17.916667	1	0.858375
17.933333	1	0.850500
17.950000	1	0.843500
17.966667	1	0.836750
17.983333	1	0.830750
18.000000	1	0.824375
18.016667	1	0.818500
18.033333	1	0.812625
18.050000	1	0.807375
18.066667	1	0.802625
18.083333	1	0.797000
18.100000	1	0.790500
18.116667	1	0.785000
18.133333	1	0.779250
18.150000	1	0.773125
18.166667	1	0.767625
18.183333	1	0.761875
18.200000	1	0.757625
18.216667	1	0.753875
18.233333	1	0.750750
18.250000	1	0.747625
18.266667	1	0.745750
18.283333	1	0.744625
18.300000	1	0.743625
18.316667	1	0.744250
18.333333	1	0.744875
18.350000	1	0.746000
18.366667	1	0.747500
18.383333	1	0.749625
18.400000	1	0.752500
18.416667	1	0.755500
18.433333	1	0.759375
18.450000	1	0.763500
18.466667	1	0.768375
18.483333	1	0.774875
18.500000	1	0.781875
18.516667	1	0.790375
18.533333	1	0.800625
18.550000	1	0.812625
18.566667	1	0.825875
18.583333	1	0.842375
18.600000	1	0.859625
18.616667	1	0.878875
18.633333	1	0.900625
18.650000	1	0.924500
18.666667	1	0.950125
18.683333	1	0.978000
18.700000	1	1.007000
18.716667	1	1.038000
18.733333	1	1.069875
18.750000	1	1.103750
18.766667	1	1.138125
18.783333	1	1.173250
18.800000	1	1.209125
18.816667	1	1.243875
18.833333	1	1.278250
18.850000	1	1.310250
18.866667	1	1.340250
18.883333	1	1.367000
18.900000	1	1.390125
18.916667	1	1.408500
18.933333	1	1.422625
18.950000	1	1.431000
18.966667	1	1.433250
18.983333	1	1.429250
19.000000	1	1.418500
19.016667	1	1.401000
19.033333	1	1.376250
19.050000	1	1.346125
19.066667	1	1.310250
19.083333	1	1.270000
19.100000	1	1.226000
19.116667	1	1.178625
19.133333	1	1.130750
19.150000	1	1.083125
19.166667	1	1.035500
19.183333	1	0.990750
19.200000	1	0.949000
19.216667	1	0.911875
19.233333	1	0.879750
19.250000	1	0.853750
19.266667	1	0.835375
19.283333	1	0.825375
19.300000	1	0.823500
19.316667	1	0.831125
19.333333	1	0.848375
19.350000	1	0.875500
19.366667	1	0.913375
19.383333	1	0.961500
19.400000	1	1.019875
19.416667	1	1.088625
19.433333	1	1.165875
19.450000	1	1.252000
19.466667	1	1.344625
19.483333	1	1.443625
19.500000	1	1.545250
19.516667	1	1.648000
19.533333	1	1.748500
19.550000	1	1.845500
19.566667	1	1.935125
19.583333	1	2.014250
19.600000	1	2.080625
19.616667	1	2.132250
19.633333	1	2.167750
19.650000	1	2.185750
19.666667	1	2.187125
19.683333	1	2.169750
19.700000	1	2.135750
19.716667	1	2.086750
19.733333	1	2.024000
19.750000	1	1.950750
19.766667	1	1.867750
19.783333	1	1.778625
19.800000	1	1.685375
19.816667	1	1.589625
19.833333	1	1.494375
19.850000	1	1.400500
19.866667	1	1.310500
19.883333	1	1.224250
19.900000	1	1.142375
19.916667	1	1.066125
19.933333	1	0.995500
19.950000	1	0.931125
19.966667	1	0.872250
19.983333	1	0.819250
20.000000	1	0.771750
20.016667	1	0.729500
20.033333	1	0.692375
20.050000	1	0.660750
20.066667	1	0.633625
20.083333	1	0.610625
20.100000	1	0.591875
20.116667	1	0.578125
20.133333	1	0.567750
20.150000	1	0.561000
20.166667	1	0.557625
20.183333	1	0.558000
20.200000	1	0.561000
20.216667	1	0.566625
20.233333	1	0.574375
20.250000	1	0.583750
20.266667	1	0.593375
20.283333	1	0.604125
20.300000	1	0.614750
20.316667	1	0.625125
20.333333	1	0.634750
20.350000	1	0.642250
20.366667	1	0.648250
20.383333	1	0.651250
20.400000	1	0.652875
20.416667	1	0.651375
20.433333	1	0.648000
20.450000	1	0.642750
20.466667	1	0.636375
20.483333	1	0.628750
20.500000	1	0.621000
20.516667	1	0.615000
20.533333	1	0.610750
20.550000	1	0.607875
20.566667	1	0.608125
20.583333	1	0.612625
20.600000	1	0.623375
20.616667	1	0.639625
20.633333	1	0.662625
20.650000	1	0.692000
20.666667	1	0.728750
20.683333	1	0.772625
20.700000	1	0.823375
20.716667	1	0.880750
20.733333	1	0.943625
20.750000	1	1.010250
20.766667	1	1.081000
20.783333	1	1.153250
20.800000	1	1.225000
20.816667	1	1.293750
20.833333	1	1.358000
20.850000	1	1.415750
20.866667	1	1.464500
20.883333	1	1.502750
20.900000	1	1.528625
20.916667	1	1.542250
20.933333	1	1.542375
20.950000	1	1.529500
20.966667	1	1.503500
20.983333	1	1.465250
21.000000	1	1.418000
21.016667	1	1.360750
21.033333	1	1.297500
21.050000	1	1.229250
21.066667	1	1.158625
21.083333	1	1.087375
21.100000	1	1.016750
21.116667	1	0.948750
21.133333	1	0.883250
21.150000	1	0.820875
21.166667	1	0.764250
21.183333	1	0.712125
21.200000	1	0.665500
21.216667	1	0.623250
21.233333	1	0.585625
21.250000	1	0.553125
21.266667	1	0.524750
21.283333	1	0.499500
21.300000	1	0.476875
21.316667	1	0.458750
21.333333	1	0.442375
21.350000	1	0.428250
21.366667	1	0.416375
21.383333	1	0.405875
21.400000	1	0.396500
21.416667	1	0.388125
21.433333	1	0.380625
21.450000	1	0.374125
21.466667	1	0.368125
21.483333	1	0.362125
21.500000	1	0.358125
21.516667	1	0.353750
21.533333	1	0.350000
21.550000	1	0.346500
21.566667	1	0.342750
21.583333	1	0.340250
21.600000	1	0.338125
21.616667	1	0.337250
21.633333	1	0.336125
21.650000	1	0.335500
21.666667	1	0.335875
21.683333	1	0.337000
21.700000	1	0.339250
21.716667	1	0.341875
21.733333	1	0.345125
21.750000	1	0.349375
21.766667	1	0.354125
21.783333	1	0.358625
21.800000	1	0.364750
21.816667	1	0.371000
21.833333	1	0.378125
21.850000	1	0.385000
21.866667	1	0.393000
21.883333	1	0.400875
21.900000	1	0.408875
21.916667	1	0.417500
21.933333	1	0.426250
21.950000	1	0.435250
21.966667	1	0.444625
21.983333	1	0.454125
22.000000	1	0.463625
22.016667	1	0.472375
22.033333	1	0.481875
22.050000	1	0.490375
22.066667	1	0.498875
22.083333	1	0.507125
22.100000	1	0.514625
22.116667	1	0.521125
22.133333	1	0.526625
22.150000	1	0.532125
22.166667	1	0.535875
22.183333	1	0.538500
22.200000	1	0.541125
22.216667	1	0.540625
22.233333	1	0.539875
22.250000	1	0.537500
22.266667	1	0.534125
22.283333	1	0.528250
22.300000	1	0.522125
22.316667	1	0.514750
22.333333	1	0.505750
22.350000	1	0.495625
22.366667	1	0.484500
22.383333	1	0.473000
22.400000	1	0.461000
22.416667	1	0.447625
22.433333	1	0.434375
22.450000	1	0.422125
22.466667	1	0.409250
22.483333	1	0.396250
22.500000	1	0.384375
22.516667	1	0.372375
22.533333	1	0.361375
22.550000	1	0.351250
22.566667	1	0.341750
22.583333	1	0.332375
22.600000	1	0.323750
22.616667	1	0.315875
22.633333	1	0.308375
22.650000	1	0.301375
22.666667	1	0.294500
22.683333	1	0.288500
22.700000	1	0.283375
22.716667	1	0.279000
22.733333	1	0.273625
22.750000	1	0.269250
22.766667	1	0.265625
22.783333	1	0.262500
22.800000	1	0.259250
22.816667	1	0.256250
22.833333	1	0.252500
22.850000	1	0.249875
22.866667	1	0.248125
22.883333	1	0.245875
22.900000	1	0.245000
22.916667	1	0.243625
22.933333	1	0.242875
22.950000	1	0.242750
22.966667	1	0.242500
22.983333	1	0.242875
23.000000	1	0.243375
23.016667	1	0.244750
23.033333	1	0.246750
23.050000	1	0.248625
23.066667	1	0.250250
23.083333	1	0.253125
23.100000	1	0.255750
23.116667	1	0.258500
23.133333	1	0.262000
23.150000	1	0.265125
23.166667	1	0.269000
23.183333	1	0.272375
23.200000	1	0.275625
23.216667	1	0.279375
23.233333	1	0.283875
23.250000	1	0.288250
23.266667	1	0.293125
23.283333	1	0.298750
23.300000	1	0.305750
23.316667	1	0.314250
23.333333	1	0.324875
23.350000	1	0.337375
23.366667	1	0.352625
23.383333	1	0.371500
23.400000	1	0.395125
23.416667	1	0.423875
23.433333	1	0.458625
23.450000	1	0.500625
23.466667	1	0.550375
23.483333	1	0.610000
23.500000	1	0.679375
23.516667	1	0.761000
23.533333	1	0.855500
23.550000	1	0.964625
23.566667	1	1.089500
23.583333	1	1.229875
23.600000	1	1.387000
23.616667	1	1.561000
23.633333	1	1.752250
23.650000	1	1.960000
23.666667	1	2.183500
23.683333	1	2.420625
23.700000	1	2.670750
23.716667	1	2.929500
23.733333	1	3.194250
23.750000	1	3.460250
23.766667	1	3.723375
23.783333	1	3.977875
23.800000	1	4.219250
23.816667	1	4.442500
23.833333	1	4.642000
23.850000	1	4.812875
23.866667	1	4.951875
23.883333	1	5.054625
23.900000	1	5.120375
23.916667	1	5.147000
23.933333	1	5.133000
23.950000	1	5.080625
23.966667	1	4.991000
23.983333	1	4.866500
24.000000	1	4.710125
24.016667	1	4.528500
24.033333	1	4.324625
24.050000	1	4.102500
24.066667	1	3.867625
24.083333	1	3.625125
24.100000	1	3.379250
24.116667	1	3.133500
24.133333	1	2.891375
24.150000	1	2.656625
24.166667	1	2.432125
24.183333	1	2.218875
24.200000	1	2.019625
24.216667	1	1.834875
24.233333	1	1.664625
24.250000	1	1.508125
24.266667	1	1.366500
24.283333	1	1.238875
24.300000	1	1.124250
24.316667	1	1.021875
24.333333	1	0.931500
24.350000	1	0.851875
24.366667	1	0.782500
24.383333	1	0.722375
24.400000	1	0.669500
24.416667	1	0.624250
24.433333	1	0.585500
24.450000	1	0.552750
24.466667	1	0.524750
24.483333	1	0.501875
24.500000	1	0.482250
24.516667	1	0.465125
24.533333	1	0.451750
24.550000	1	0.439875
24.566667	1	0.430375
24.583333	1	0.422375
24.600000	1	0.413875
24.616667	1	0.407000
24.633333	1	0.400625
24.650000	1	0.394375
24.666667	1	0.389250
24.683333	1	0.383875
24.700000	1	0.377750
24.716667	1	0.371750
24.733333	1	0.365875
24.750000	1	0.359750
24.766667	1	0.353750
24.783333	1	0.347500
24.800000	1	0.341250
24.816667	1	0.335375
24.833333	1	0.330000
24.850000	1	0.323875
24.866667	1	0.317875
24.883333	1	0.312125
24.900000	1	0.306500
24.916667	1	0.302125
24.933333	1	0.297125
24.950000	1	0.292625
24.966667	1	0.287625
24.983333	1	0.283250
25.000000	1	0.278625
25.016667	1	0.274875
25.033333	1	0.271000
25.050000	1	0.266875
25.066667	1	0.263625
25.083333	1	0.260250
25.100000	1	0.257250
25.116667	1	0.254375
25.133333	1	0.251000
25.150000	1	0.248250
25.166667	1	0.245250
25.183333	1	0.242125
25.200000	1	0.239750
25.216667	1	0.237000
25.233333	1	0.234500
25.250000	1	0.231625
25.266667	1	0.229500
25.283333	1	0.227000
25.300000	1	0.224875
25.316667	1	0.222625
25.333333	1	0.220625
25.350000	1	0.218875
25.366667	1	0.217375
25.383333	1	0.216125
25.400000	1	0.214500
25.416667	1	0.213750
25.433333	1	0.213000
25.450000	1	0.212750
25.466667	1	0.212125
25.483333	1	0.212125
25.500000	1	0.212125
25.516667	1	0.212125
25.533333	1	0.213250
25.550000	1	0.213875
25.566667	1	0.214500
25.583333	1	0.215000
25.600000	1	0.216000
25.616667	1	0.216875
25.633333	1	0.217375
25.650000	1	0.218125
25.666667	1	0.219375
25.683333	1	0.220375
25.700000	1	0.221375
25.716667	1	0.222375
25.733333	1	0.224000
25.750000	1	0.224875
25.766667	1	0.225375
25.783333	1	0.225875
25.800000	1	0.227375
25.816667	1	0.228375
25.833333	1	0.229750
25.850000	1	0.230500
25.866667	1	0.231625
25.883333	1	0.233125
25.900000	1	0.235125
25.916667	1	0.237500
25.933333	1	0.239625
25.950000	1	0.241875
25.966667	1	0.244375
25.983333	1	0.247500
26.000000	1	0.250625
26.016667	1	0.253625
26.033333	1	0.256500
26.050000	1	0.260250
26.066667	1	0.263375
26.083333	1	0.267125
26.100000	1	0.270625
26.116667	1	0.274500
26.133333	1	0.277875
26.150000	1	0.281250
26.166667	1	0.283750
26.183333	1	0.286750
26.200000	1	0.289500
26.216667	1	0.291375
26.233333	1	0.292500
26.250000	1	0.294000
26.266667	1	0.294750
26.283333	1	0.294875
26.300000	1	0.294375
26.316667	1	0.293250
26.333333	1	0.291375
26.350000	1	0.288875
26.366667	1	0.285875
26.383333	1	0.282000
26.400000	1	0.277625
26.416667	1	0.273625
26.433333	1	0.268625
26.450000	1	0.263500
26.466667	1	0.258000
26.483333	1	0.251625
26.500000	1	0.245250
26.516667	1	0.239500
26.533333	1	0.233375
26.550000	1	0.226625
26.566667	1	0.220375
26.583333	1	0.214000
26.600000	1	0.208750
26.616667	1	0.202500
26.633333	1	0.197625
26.650000	1	0.193000
26.666667	1	0.188375
26.683333	1	0.184375
26.700000	1	0.180000
26.716667	1	0.176500
26.733333	1	0.173250
26.750000	1	0.170375
26.766667	1	0.168375
26.783333	1	0.167125
26.800000	1	0.165875
26.816667	1	0.165125
26.833333	1	0.164250
26.850000	1	0.165250
26.866667	1	0.165625
26.883333	1	0.166625
26.900000	1	0.167500
26.916667	1	0.169000
26.933333	1	0.170750
26.950000	1	0.172625
26.966667	1	0.174625
26.983333	1	0.177125
27.000000	1	0.179750
27.016667	1	0.183125
27.033333	1	0.186125
27.050000	1	0.190250
27.066667	1	0.194875
27.083333	1	0.200250
27.100000	1	0.206250
27.116667	1	0.212375
27.133333	1	0.219250
27.150000	1	0.227625
27.166667	1	0.237000
27.183333	1	0.247625
27.200000	1	0.260500
27.216667	1	0.275000
27.233333	1	0.291000
27.250000	1	0.309625
27.266667	1	0.331875
27.283333	1	0.356250
27.300000	1	0.385250
27.316667	1	0.418375
27.333333	1	0.455500
27.350000	1	0.498125
27.366667	1	0.546500
27.383333	1	0.601375
27.400000	1	0.662500
27.416667	1	0.731250
27.433333	1	0.807875
27.450000	1	0.893375
27.466667	1	0.987500
27.483333	1	1.090750
27.500000	1	1.203250
27.516667	1	1.324875
27.533333	1	1.455750
27.550000	1	1.595625
27.566667	1	1.744000
27.583333	1	1.900375
27.600000	1	2.063875
27.616667	1	2.232625
27.633333	1	2.406625
27.650000	1	2.584000
27.666667	1	2.762500
27.683333	1	2.940625
27.700000	1	3.115500
27.716667	1	3.284625
27.733333	1	3.444625
27.750000	1	3.594750
27.766667	1	3.731750
27.783333	1	3.853250
27.800000	1	3.956625
27.816667	1	4.040125
27.833333	1	4.102625
27.850000	1	4.141250
27.866667	1	4.156625
27.883333	1	4.147125
27.900000	1	4.113000
27.916667	1	4.055875
27.933333	1	3.975125
27.950000	1	3.872625
27.966667	1	3.750500
27.983333	1	3.611375
28.000000	1	3.456875
28.016667	1	3.290000
28.033333	1	3.114125
28.050000	1	2.931375
28.066667	1	2.744250
28.083333	1	2.555375
28.100000	1	2.367125
28.116667	1	2.183375
28.133333	1	2.004750
28.150000	1	1.833750
28.166667	1	1.671625
28.183333	1	1.519250
28.200000	1	1.378125
28.216667	1	1.247125
28.233333	1	1.126250
28.250000	1	1.017000
28.266667	1	0.918250
28.283333	1	0.829750
28.300000	1	0.751000
28.316667	1	0.682125
28.333333	1	0.622000
28.350000	1	0.570000
28.366667	1	0.526250
28.383333	1	0.488625
28.400000	1	0.457750
28.416667	1	0.432375
28.433333	1	0.412000
28.450000	1	0.396875
28.466667	1	0.385875
28.483333	1	0.378000
28.500000	1	0.373750
28.516667	1	0.372000
28.533333	1	0.372625
28.550000	1	0.375500
28.566667	1	0.380875
28.583333	1	0.386500
28.600000	1	0.394125
28.616667	1	0.403125
28.633333	1	0.412625
28.650000	1	0.422500
28.666667	1	0.432500
28.683333	1	0.443625
28.700000	1	0.453750
28.716667	1	0.463875
28.733333	1	0.474125
28.750000	1	0.483125
28.766667	1	0.491500
28.783333	1	0.499500
28.800000	1	0.506875
28.816667	1	0.512750
28.833333	1	0.518000
28.850000	1	0.522625
28.866667	1	0.526750
28.883333	1	0.529750
28.900000	1	0.531375
28.916667	1	0.530875
28.933333	1	0.529125
28.950000	1	0.526875
28.966667	1	0.522625
28.983333	1	0.517875
29.000000	1	0.512750
29.016667	1	0.506000
29.033333	1	0.498250
29.050000	1	0.489625
29.066667	1	0.480000
29.083333	1	0.469500
29.100000	1	0.459000
29.116667	1	0.447250
29.133333	1	0.435000
29.150000	1	0.422250
29.166667	1	0.409625
29.183333	1	0.396125
29.200000	1	0.382625
29.216667	1	0.369000
29.233333	1	0.355625
29.250000	1	0.341750
29.266667	1	0.328000
29.283333	1	0.314375
29.300000	1	0.301000
29.316667	1	0.288375
29.333333	1	0.275500
29.350000	1	0.263375
29.366667	1	0.252000
29.383333	1	0.240875
29.400000	1	0.229500
29.416667	1	0.219000
29.433333	1	0.209125
29.450000	1	0.199625
29.466667	1	0.189875
29.483333	1	0.181000
29.500000	1	0.172500
29.516667	1	0.164125
29.533333	1	0.157750
29.550000	1	0.151000
29.566667	1	0.144375
29.583333	1	0.138125
29.600000	1	0.131750
29.616667	1	0.126625
29.633333	1	0.121125
29.650000	1	0.116125
29.666667	1	0.111375
29.683333	1	0.107500
29.700000	1	0.103375
29.716667	1	0.099500
29.733333	1	0.096125
29.750000	1	0.093375
29.766667	1	0.090500
29.783333	1	0.087375
29.800000	1	0.084875
29.816667	1	0.082750
29.833333	1	0.080625
29.850000	1	0.078250
29.866667	1	0.075875
29.883333	1	0.074500
29.900000	1	0.072125
29.916667	1	0.070000
29.933333	1	0.068250
29.950000	1	0.066750
29.966667	1	0.065375
29.983333	1	0.064250
30.000000	1	0.063375
30.016667	1	0.062750
30.033333	1	0.061625
30.050000	1	0.060875
30.066667	1	0.060000
30.083333	1	0.059750
30.100000	1	0.059500
30.116667	1	0.060125
30.133333	1	0.060375
30.150000	1	0.060250
30.166667	1	0.060375
30.183333	1	0.060250
30.200000	1	0.060750
30.216667	1	0.061750
30.233333	1	0.061625
30.250000	1	0.062125
30.266667	1	0.063375
30.283333	1	0.063875
30.300000	1	0.065375
30.316667	1	0.066875
30.333333	1	0.068625
30.350000	1	0.070250
30.366667	1	0.072000
30.383333	1	0.074750
30.400000	1	0.077000
30.416667	1	0.080125
30.433333	1	0.083375
30.450000	1	0.087125
30.466667	1	0.090875
30.483333	1	0.095125
30.500000	1	0.100125
30.516667	1	0.105375
30.533333	1	0.110375
30.550000	1	0.115500
30.566667	1	0.121125
30.583333	1	0.127625
30.600000	1	0.134625
30.616667	1	0.142375
30.633333	1	0.150750
30.650000	1	0.159500
30.666667	1	0.169875
30.683333	1	0.180125
30.700000	1	0.191125
30.716667	1	0.203500
30.733333	1	0.217250
30.750000	1	0.232000
30.766667	1	0.248625
30.783333	1	0.266125
30.800000	1	0.286500
30.816667	1	0.308875
30.833333	1	0.333125
30.850000	1	0.360125
30.866667	1	0.390375
30.883333	1	0.424500
30.900000	1	0.463500
30.916667	1	0.506250
30.933333	1	0.554375
30.950000	1	0.608750
30.966667	1	0.669250
30.983333	1	0.736500
31.000000	1	0.811750
31.016667	1	0.895375
31.033333	1	0.989000
31.050000	1	1.090875
31.066667	1	1.203875
31.083333	1	1.327625
31.100000	1	1.462500
31.116667	1	1.609000
31.133333	1	1.767375
31.150000	1	1.936750
31.166667	1	2.117750
31.183333	1	2.310000
31.200000	1	2.512375
31.216667	1	2.726250
31.233333	1	2.947125
31.250000	1	3.175125
31.266667	1	3.408250
31.283333	1	3.644750
31.300000	1	3.882500
31.316667	1	4.118750
31.333333	1	4.351375
31.350000	1	4.576750
31.366667	1	4.792375
31.383333	1	4.996375
31.400000	1	5.186625
31.416667	1	5.359875
31.433333	1	5.514125
31.450000	1	5.646000
31.466667	1	5.754250
31.483333	1	5.838250
31.500000	1	5.895500
31.516667	1	5.926250
31.533333	1	5.930375
31.550000	1	5.907000
31.566667	1	5.857000
31.583333	1	5.782125
31.600000	1	5.682500
31.616667	1	5.559750
31.633333	1	5.415625
31.650000	1	5.252875
31.666667	1	5.072750
31.683333	1	4.879500
31.700000	1	4.673750
31.716667	1	4.459000
31.733333	1	4.237750
31.750000	1	4.012500
31.766667	1	3.784500
31.783333	1	3.557625
31.800000	1	3.331625
31.816667	1	3.109750
31.833333	1	2.892500
31.850000	1	2.682500
31.866667	1	2.480125
31.883333	1	2.286625
31.900000	1	2.102000
31.916667	1	1.927375
31.933333	1	1.764250
31.950000	1	1.610125
31.966667	1	1.467000
31.983333	1	1.333875
32.000000	1	1.210750
32.016667	1	1.097000
32.033333	1	0.992500
32.050000	1	0.896375
32.066667	1	0.808250
32.083333	1	0.728500
32.100000	1	0.655875
32.116667	1	0.590750
32.133333	1	0.531125
32.150000	1	0.477875
32.166667	1	0.429375
32.183333	1	0.386000
32.200000	1	0.346625
32.216667	1	0.311625
32.233333	1	0.280125
32.250000	1	0.251000
32.266667	1	0.225125
32.283333	1	0.201625
32.300000	1	0.180500
32.316667	1	0.161125
32.333333	1	0.144000
32.350000	1	0.129000
32.366667	1	0.115250
32.383333	1	0.102625
32.400000	1	0.091000
32.416667	1	0.080125
32.433333	1	0.070625
32.450000	1	0.061625
32.466667	1	0.052500
32.483333	1	0.044875
32.500000	1	0.038250
32.516667	1	0.032000
32.533333	1	0.025500
32.550000	1	0.020375
32.566667	1	0.015750
32.583333	1	0.011250
32.600000	1	0.007375
32.616667	1	0.003125
32.633333	1	-0.000125
32.650000	1	-0.003375
32.666667	1	-0.006500
32.683333	1	-0.008750
32.700000	1	-0.011250
32.716667	1	-0.013875
32.733333	1	-0.014875
32.750000	1	-0.016625
32.766667	1	-0.017625
32.783333	1	-0.018125
32.800000	1	-0.018625
32.816667	1	-0.019625
32.833333	1	-0.020625
32.850000	1	-0.021250
32.866667	1	-0.021875
32.883333	1	-0.022000
32.900000	1	-0.022125
32.916667	1	-0.022625
32.933333	1	-0.021875
32.950000	1	-0.022375
32.966667	1	-0.021375
32.983333	1	-0.020250
33.000000	1	-0.019625
33.016667	1	-0.019125
33.033333	1	-0.018500
33.050000	1	-0.018000
33.066667	1	-0.017250
33.083333	1	-0.017250
33.100000	1	-0.017000
33.116667	1	-0.016250
33.133333	1	-0.015625
33.150000	1	-0.015250
33.166667	1	-0.014250
33.183333	1	-0.013625
33.200000	1	-0.012125
33.216667	1	-0.011875
33.233333	1	-0.011625
33.250000	1	-0.010750
33.266667	1	-0.009875
33.283333	1	-0.009000
33.300000	1	-0.007250
33.316667	1	-0.006500
33.333333	1	-0.004750
33.350000	1	-0.003250
33.366667	1	-0.001500
33.383333	1	0.000250
33.400000	1	0.001750
33.416667	1	0.003250
33.433333	1	0.005875
33.450000	1	0.008000
33.466667	1	0.009750
33.483333	1	0.012500
33.500000	1	0.015000
33.516667	1	0.017125
33.533333	1	0.019375
33.550000	1	0.022000
33.566667	1	0.025000
33.583333	1	0.028125
33.600000	1	0.030875
33.616667	1	0.034125
33.633333	1	0.037375
33.650000	1	0.040625
33.666667	1	0.043250
33.683333	1	0.045875
33.700000	1	0.048250
33.716667	1	0.050625
33.733333	1	0.053500
33.750000	1	0.056375
33.766667	1	0.058625
33.783333	1	0.061000
33.800000	1	0.063125
33.816667	1	0.065000
33.833333	1	0.066750
33.850000	1	0.068500
33.866667	1	0.070250
33.883333	1	0.071500
33.900000	1	0.072875
33.916667	1	0.073750
33.933333	1	0.074875
33.950000	1	0.075625
33.966667	1	0.076250
33.983333	1	0.076500
34.000000	1	0.076625
34.016667	1	0.076375
34.033333	1	0.076250
34.050000	1	0.075500
34.066667	1	0.075250
34.083333	1	0.074875
34.100000	1	0.074375
34.116667	1	0.073750
34.133333	1	0.073250
34.150000	1	0.072625
34.166667	1	0.073250
34.183333	1	0.072750
34.200000	1	0.072750
34.216667	1	0.072000
34.233333	1	0.071750
34.250000	1	0.071875
34.266667	1	0.072125
34.283333	1	0.071500
34.300000	1	0.071875
34.316667	1	0.072375
34.333333	1	0.073375
34.350000	1	0.074750
34.366667	1	0.075500
34.383333	1	0.076375
34.400000	1	0.076625
34.416667	1	0.077750
34.433333	1	0.078875
34.450000	1	0.080125
34.466667	1	0.081000
34.483333	1	0.081750
34.500000	1	0.082875
34.516667	1	0.083625
34.533333	1	0.084750
34.550000	1	0.085250
34.566667	1	0.086250
34.583333	1	0.087250
34.600000	1	0.088000
34.616667	1	0.088250
34.633333	1	0.088750
34.650000	1	0.089125
34.666667	1	0.089625
34.683333	1	0.090750
34.700000	1	0.091125
34.716667	1	0.090625
34.733333	1	0.090875
34.750000	1	0.091125
34.766667	1	0.090875
34.783333	1	0.090625
34.800000	1	0.091125
34.816667	1	0.090625
34.833333	1	0.090750
34.850000	1	0.090625
34.866667	1	0.090500
34.883333	1	0.089750
34.900000	1	0.089875
34.916667	1	0.089625
34.933333	1	0.089375
34.950000	1	0.090125
34.966667	1	0.090625
34.983333	1	0.090125
35.000000	1	0.090250
35.016667	1	0.090750
35.033333	1	0.091625
35.050000	1	0.091625
35.066667	1	0.092000
35.083333	1	0.092875
35.100000	1	0.093625
35.116667	1	0.094625
35.133333	1	0.095500
35.150000	1	0.096625
35.166667	1	0.097125
35.183333	1	0.098750
35.200000	1	0.100250
35.216667	1	0.101500
35.233333	1	0.103250
35.250000	1	0.104750
35.266667	1	0.105625
35.283333	1	0.107125
35.300000	1	0.108625
35.316667	1	0.109625
35.333333	1	0.112000
35.350000	1	0.113375
35.366667	1	0.115000
35.383333	1	0.117250
35.400000	1	0.119250
35.416667	1	0.120375
35.433333	1	0.122250
35.450000	1	0.124125
35.466667	1	0.125125
35.483333	1	0.126625
35.500000	1	0.128000
35.516667	1	0.129125
35.533333	1	0.130000
35.550000	1	0.131250
35.566667	1	0.132000
35.583333	1	0.132125
35.600000	1	0.132625
35.616667	1	0.132250
35.633333	1	0.132625
35.650000	1	0.132375
35.666667	1	0.131875
35.683333	1	0.131875
35.700000	1	0.131000
35.716667	1	0.130000
35.733333	1	0.128875
35.750000	1	0.127250
35.766667	1	0.125625
35.783333	1	0.123625
35.800000	1	0.122000
35.816667	1	0.119500
35.833333	1	0.117750
35.850000	1	0.116000
35.866667	1	0.113500
35.883333	1	0.111125
35.900000	1	0.109875
35.916667	1	0.108125
35.933333	1	0.106000
35.950000	1	0.104000
35.966667	1	0.101250
35.983333	1	0.099125
36.000000	1	0.096750
36.016667	1	0.095500
36.033333	1	0.093375
36.050000	1	0.091375
36.066667	1	0.089750
36.083333	1	0.088375
36.100000	1	0.086500
36.116667	1	0.086000
36.133333	1	0.084875
36.150000	1	0.083500
36.166667	1	0.082625
36.183333	1	0.082500
36.200000	1	0.081625
36.216667	1	0.080500
36.233333	1	0.079125
36.250000	1	0.078375
36.266667	1	0.077250
36.283333	1	0.076250
36.300000	1	0.074875
36.316667	1	0.073500
36.333333	1	0.073125
36.350000	1	0.071625
36.366667	1	0.070000
36.383333	1	0.069000
36.400000	1	0.067500
36.416667	1	0.065375
36.433333	1	0.063125
36.450000	1	0.061000
36.466667	1	0.058875
36.483333	1	0.056625
36.500000	1	0.054875
36.516667	1	0.052625
36.533333	1	0.049875
36.550000	1	0.046875
36.566667	1	0.044625
36.583333	1	0.041750
36.600000	1	0.038625
36.616667	1	0.035500
36.633333	1	0.033375
36.650000	1	0.031000
36.666667	1	0.028500
36.683333	1	0.025500
36.700000	1	0.023125
36.716667	1	0.021000
36.733333	1	0.019250
36.750000	1	0.017250
36.766667	1	0.015125
36.783333	1	0.013500
36.800000	1	0.011750
36.816667	1	0.010250
36.833333	1	0.009500
36.850000	1	0.008500
36.866667	1	0.007500
36.883333	1	0.007250
36.900000	1	0.006875
36.916667	1	0.006625
36.933333	1	0.006750
36.950000	1	0.006750
36.966667	1	0.007000
36.983333	1	0.006750
37.000000	1	0.007125
37.016667	1	0.007375
37.033333	1	0.008000
37.050000	1	0.009250
37.066667	1	0.009500
37.083333	1	0.009875
37.100000	1	0.010375
37.116667	1	0.010625
37.133333	1	0.011000
37.150000	1	0.011375
37.166667	1	0.011250
37.183333	1	0.011000
37.200000	1	0.011125
37.216667	1	0.011500
37.233333	1	0.011250
37.250000	1	0.011125
37.266667	1	0.010875
37.283333	1	0.010750
37.300000	1	0.010375
37.316667	1	0.010000
37.333333	1	0.009625
37.350000	1	0.008375
37.366667	1	0.007500
37.383333	1	0.007125
37.400000	1	0.006375
37.416667	1	0.006000
37.433333	1	0.004750
37.450000	1	0.003500
37.466667	1	0.003500
37.483333	1	0.002000
37.500000	1	0.001250
37.516667	1	0.000125
37.533333	1	-0.000125
37.550000	1	-0.001125
37.566667	1	-0.002000
37.583333	1	-0.001875
37.600000	1	-0.002500
37.616667	1	-0.002875
37.633333	1	-0.003625
37.650000	1	-0.004000
37.666667	1	-0.004125
37.683333	1	-0.004750
37.700000	1	-0.005625
37.716667	1	-0.005875
37.733333	1	-0.007125
37.750000	1	-0.007750
37.766667	1	-0.008000
37.783333	1	-0.008750
37.800000	1	-0.009375
37.816667	1	-0.010000
37.833333	1	-0.010625
37.850000	1	-0.011125
37.866667	1	-0.011250
37.883333	1	-0.011500
37.900000	1	-0.011125
37.916667	1	-0.011250
37.933333	1	-0.012000
37.950000	1	-0.012375
37.966667	1	-0.013250
37.983333	1	-0.013625
38.000000	1	-0.013875
38.016667	1	-0.013500
38.033333	1	-0.013875
38.050000	1	-0.014375
38.066667	1	-0.014375
38.083333	1	-0.013875
38.100000	1	-0.013875
38.116667	1	-0.013125
38.133333	1	-0.012875
38.150000	1	-0.011750
38.166667	1	-0.011000
38.183333	1	-0.010500
38.200000	1	-0.008875
38.216667	1	-0.006875
38.233333	1	-0.005125
38.250000	1	-0.003375
38.266667	1	-0.001875
38.283333	1	-0.000375
38.300000	1	0.001250
38.316667	1	0.003625
38.333333	1	0.005000
38.350000	1	0.007000
38.366667	1	0.009000
38.383333	1	0.011250
38.400000	1	0.013500
38.416667	1	0.015375
38.433333	1	0.016750
38.450000	1	0.018250
38.466667	1	0.019750
38.483333	1	0.020625
38.500000	1	0.021625
38.516667	1	0.022500
38.533333	1	0.023500
38.550000	1	0.024500
38.566667	1	0.024500
38.583333	1	0.024500
38.600000	1	0.024125
38.616667	1	0.024375
38.633333	1	0.024000
38.650000	1	0.022875
38.666667	1	0.021500
38.683333	1	0.020500
38.700000	1	0.018250
38.716667	1	0.017000
38.733333	1	0.015125
38.750000	1	0.013375
38.766667	1	0.011375
38.783333	1	0.008750
38.800000	1	0.006125
38.816667	1	0.003875
38.833333	1	0.002000
38.850000	1	-0.000250
38.866667	1	-0.003125
38.883333	1	-0.005500
38.900000	1	-0.007750
38.916667	1	-0.009375
38.933333	1	-0.011375
38.950000	1	-0.012875
38.966667	1	-0.014125
38.983333	1	-0.015750
39.000000	1	-0.016875
39.016667	1	-0.017750
39.033333	1	-0.019000
39.050000	1	-0.019250
39.066667	1	-0.019750
39.083333	1	-0.019750
39.100000	1	-0.020250
39.116667	1	-0.020250
39.133333	1	-0.020125
39.150000	1	-0.020000
39.166667	1	-0.019875
39.183333	1	-0.019625
39.200000	1	-0.019500
39.216667	1	-0.020000
39.233333	1	-0.019750
39.250000	1	-0.019875
39.266667	1	-0.019500
39.283333	1	-0.020125
39.300000	1	-0.019875
39.316667	1	-0.020750
39.333333	1	-0.021500
39.350000	1	-0.022000
39.366667	1	-0.022500
39.383333	1	-0.022750
39.400000	1	-0.023875
39.416667	1	-0.024125
39.433333	1	-0.025375
39.450000	1	-0.026000
39.466667	1	-0.027000
39.483333	1	-0.028750
39.500000	1	-0.030625
39.516667	1	-0.031500
39.533333	1	-0.033000
39.550000	1	-0.034500
39.566667	1	-0.035125
39.583333	1	-0.036625
39.600000	1	-0.037500
39.616667	1	-0.038500
39.633333	1	-0.039875
39.650000	1	-0.041000
39.666667	1	-0.042125
39.683333	1	-0.042875
39.700000	1	-0.043125
39.716667	1	-0.043750
39.733333	1	-0.045125
39.750000	1	-0.045375
39.766667	1	-0.046375
39.783333	1	-0.047625
39.800000	1	-0.048625
39.816667	1	-0.049500
39.833333	1	-0.050000
39.850000	1	-0.050500
39.866667	1	-0.050625
39.883333	1	-0.051375
39.900000	1	-0.051375
39.916667	1	-0.051500
39.933333	1	-0.052375
39.950000	1	-0.051500
39.966667	1	-0.051750
39.983333	1	-0.051875
40.000000	1	-0.052125
