URL	chrom://bioreactor/micro_cm7/HPLC_Ultimate_3000/Users/markusar/20240716_MA_pHrange2.seq/809.smp/RI_1.channel/RI_1.chm
Channel	RI_1

Injection Information:
Data Vault	micro_cm7
Sequence	20240716_MA_pHrange2
Name	Pv1_25H_1
Number	2
Position	BA2
Comment	
Processing Method	
Instrument Method	run_25B_method
Type	Unknown
Status	Finished
Inject Time	16.07.2024 18:47:26 +02:00
Volume (µl)	20.0000
Dilution Factor	1.0000
Weight	1.0000

Chromatogram Data Information:
Time Min. (min)	0.000000
Time Max. (min)	40.000000
Data Points	2401
Detector	RI
Generating Data System	Chromeleon 7.3.2.11814
Exporting Data System	Chromeleon 7.3.2.0
Operator	Instrument Controller
Signal Quantity	Refractive 
Signal Unit	µRIU
Signal Min.	-0.127750
Signal Max.	84.828875
Channel	RI_1
Driver Name	RID520Driver.dll
Channel Type	Evaluation
Min. Step (s)	1
Max. Step (s)	1
Average Step (s)	1

Signal Parameter Information:
Signal Info	

Chromatogram Data:
Time (min)	Step (s)	Value (µRIU)
0.000000	n.a.	0.005750
0.016667	1	0.004500
0.033333	1	0.003000
0.050000	1	0.002000
0.066667	1	0.001375
0.083333	1	0.000125
0.100000	1	-0.000750
0.116667	1	-0.001625
0.133333	1	-0.002875
0.150000	1	-0.004500
0.166667	1	-0.005625
0.183333	1	-0.007125
0.200000	1	-0.008375
0.216667	1	-0.009750
0.233333	1	-0.010875
0.250000	1	-0.012125
0.266667	1	-0.013000
0.283333	1	-0.014125
0.300000	1	-0.014750
0.316667	1	-0.015500
0.333333	1	-0.016375
0.350000	1	-0.017125
0.366667	1	-0.018375
0.383333	1	-0.019750
0.400000	1	-0.021125
0.416667	1	-0.021250
0.433333	1	-0.020000
0.450000	1	-0.018875
0.466667	1	-0.017625
0.483333	1	-0.015625
0.500000	1	-0.014500
0.516667	1	-0.013250
0.533333	1	-0.012375
0.550000	1	-0.012625
0.566667	1	-0.013750
0.583333	1	-0.015000
0.600000	1	-0.015875
0.616667	1	-0.016500
0.633333	1	-0.017250
0.650000	1	-0.017375
0.666667	1	-0.016750
0.683333	1	-0.016625
0.700000	1	-0.016250
0.716667	1	-0.015375
0.733333	1	-0.015375
0.750000	1	-0.015875
0.766667	1	-0.015000
0.783333	1	-0.015000
0.800000	1	-0.015375
0.816667	1	-0.015125
0.833333	1	-0.015125
0.850000	1	-0.015250
0.866667	1	-0.015625
0.883333	1	-0.015875
0.900000	1	-0.016750
0.916667	1	-0.016875
0.933333	1	-0.017375
0.950000	1	-0.017625
0.966667	1	-0.018000
0.983333	1	-0.019000
1.000000	1	-0.019125
1.016667	1	-0.019875
1.033333	1	-0.020250
1.050000	1	-0.020500
1.066667	1	-0.020625
1.083333	1	-0.020875
1.100000	1	-0.021375
1.116667	1	-0.021125
1.133333	1	-0.021375
1.150000	1	-0.021125
1.166667	1	-0.021125
1.183333	1	-0.021625
1.200000	1	-0.021500
1.216667	1	-0.021125
1.233333	1	-0.020625
1.250000	1	-0.019875
1.266667	1	-0.019375
1.283333	1	-0.018375
1.300000	1	-0.018000
1.316667	1	-0.017000
1.333333	1	-0.016625
1.350000	1	-0.016000
1.366667	1	-0.016250
1.383333	1	-0.015750
1.400000	1	-0.014750
1.416667	1	-0.013500
1.433333	1	-0.012875
1.450000	1	-0.012375
1.466667	1	-0.011500
1.483333	1	-0.010125
1.500000	1	-0.009125
1.516667	1	-0.008250
1.533333	1	-0.007500
1.550000	1	-0.006125
1.566667	1	-0.004875
1.583333	1	-0.003875
1.600000	1	-0.001875
1.616667	1	-0.001000
1.633333	1	0.000500
1.650000	1	0.001750
1.666667	1	0.002875
1.683333	1	0.003875
1.700000	1	0.004875
1.716667	1	0.005750
1.733333	1	0.006250
1.750000	1	0.008125
1.766667	1	0.009125
1.783333	1	0.010125
1.800000	1	0.010500
1.816667	1	0.011000
1.833333	1	0.011500
1.850000	1	0.011875
1.866667	1	0.012000
1.883333	1	0.011875
1.900000	1	0.012000
1.916667	1	0.012000
1.933333	1	0.012125
1.950000	1	0.012000
1.966667	1	0.011375
1.983333	1	0.010250
2.000000	1	0.009500
2.016667	1	0.009375
2.033333	1	0.008375
2.050000	1	0.006750
2.066667	1	0.005375
2.083333	1	0.004750
2.100000	1	0.003750
2.116667	1	0.002625
2.133333	1	0.001625
2.150000	1	-0.000125
2.166667	1	-0.001375
2.183333	1	-0.002625
2.200000	1	-0.004375
2.216667	1	-0.006250
2.233333	1	-0.007875
2.250000	1	-0.009125
2.266667	1	-0.010500
2.283333	1	-0.012625
2.300000	1	-0.015125
2.316667	1	-0.016500
2.333333	1	-0.017625
2.350000	1	-0.019875
2.366667	1	-0.021375
2.383333	1	-0.022375
2.400000	1	-0.023125
2.416667	1	-0.024000
2.433333	1	-0.025250
2.450000	1	-0.026250
2.466667	1	-0.028000
2.483333	1	-0.029000
2.500000	1	-0.030000
2.516667	1	-0.031000
2.533333	1	-0.031750
2.550000	1	-0.033125
2.566667	1	-0.034250
2.583333	1	-0.034875
2.600000	1	-0.036125
2.616667	1	-0.036875
2.633333	1	-0.037875
2.650000	1	-0.039125
2.666667	1	-0.041000
2.683333	1	-0.041625
2.700000	1	-0.042125
2.716667	1	-0.043375
2.733333	1	-0.045000
2.750000	1	-0.046000
2.766667	1	-0.047000
2.783333	1	-0.047375
2.800000	1	-0.047875
2.816667	1	-0.048875
2.833333	1	-0.049375
2.850000	1	-0.049500
2.866667	1	-0.050000
2.883333	1	-0.050125
2.900000	1	-0.050500
2.916667	1	-0.050125
2.933333	1	-0.050375
2.950000	1	-0.050750
2.966667	1	-0.050125
2.983333	1	-0.049875
3.000000	1	-0.049000
3.016667	1	-0.048000
3.033333	1	-0.047000
3.050000	1	-0.046875
3.066667	1	-0.045625
3.083333	1	-0.045250
3.100000	1	-0.044000
3.116667	1	-0.043500
3.133333	1	-0.042375
3.150000	1	-0.041750
3.166667	1	-0.042125
3.183333	1	-0.040875
3.200000	1	-0.040000
3.216667	1	-0.039250
3.233333	1	-0.038500
3.250000	1	-0.037750
3.266667	1	-0.036625
3.283333	1	-0.036500
3.300000	1	-0.036375
3.316667	1	-0.036500
3.333333	1	-0.036000
3.350000	1	-0.036000
3.366667	1	-0.035500
3.383333	1	-0.036625
3.400000	1	-0.036625
3.416667	1	-0.037125
3.433333	1	-0.037125
3.450000	1	-0.036750
3.466667	1	-0.036625
3.483333	1	-0.036875
3.500000	1	-0.037500
3.516667	1	-0.037500
3.533333	1	-0.038375
3.550000	1	-0.038375
3.566667	1	-0.038000
3.583333	1	-0.037875
3.600000	1	-0.037875
3.616667	1	-0.036750
3.633333	1	-0.036375
3.650000	1	-0.036000
3.666667	1	-0.034750
3.683333	1	-0.034125
3.700000	1	-0.034250
3.716667	1	-0.034125
3.733333	1	-0.033250
3.750000	1	-0.032750
3.766667	1	-0.032375
3.783333	1	-0.031375
3.800000	1	-0.030375
3.816667	1	-0.029625
3.833333	1	-0.028375
3.850000	1	-0.028375
3.866667	1	-0.028875
3.883333	1	-0.028625
3.900000	1	-0.028000
3.916667	1	-0.027375
3.933333	1	-0.026250
3.950000	1	-0.025750
3.966667	1	-0.025875
3.983333	1	-0.025750
4.000000	1	-0.026000
4.016667	1	-0.025750
4.033333	1	-0.025375
4.050000	1	-0.025750
4.066667	1	-0.025625
4.083333	1	-0.025375
4.100000	1	-0.025375
4.116667	1	-0.025750
4.133333	1	-0.025250
4.150000	1	-0.024625
4.166667	1	-0.024375
4.183333	1	-0.024625
4.200000	1	-0.023625
4.216667	1	-0.022625
4.233333	1	-0.022250
4.250000	1	-0.021250
4.266667	1	-0.020625
4.283333	1	-0.019250
4.300000	1	-0.018125
4.316667	1	-0.017125
4.333333	1	-0.016125
4.350000	1	-0.014500
4.366667	1	-0.013500
4.383333	1	-0.011000
4.400000	1	-0.009500
4.416667	1	-0.008500
4.433333	1	-0.007250
4.450000	1	-0.005375
4.466667	1	-0.004000
4.483333	1	-0.002375
4.500000	1	-0.001000
4.516667	1	0.000125
4.533333	1	0.001875
4.550000	1	0.003875
4.566667	1	0.005375
4.583333	1	0.007375
4.600000	1	0.009000
4.616667	1	0.010625
4.633333	1	0.011750
4.650000	1	0.013000
4.666667	1	0.014375
4.683333	1	0.015125
4.700000	1	0.016875
4.716667	1	0.018250
4.733333	1	0.019250
4.750000	1	0.020000
4.766667	1	0.020375
4.783333	1	0.021000
4.800000	1	0.021625
4.816667	1	0.021750
4.833333	1	0.021625
4.850000	1	0.021750
4.866667	1	0.021250
4.883333	1	0.020875
4.900000	1	0.020375
4.916667	1	0.020125
4.933333	1	0.019000
4.950000	1	0.017625
4.966667	1	0.016750
4.983333	1	0.015750
5.000000	1	0.014000
5.016667	1	0.012625
5.033333	1	0.011500
5.050000	1	0.009875
5.066667	1	0.007875
5.083333	1	0.006500
5.100000	1	0.004750
5.116667	1	0.002875
5.133333	1	0.001875
5.150000	1	0.000875
5.166667	1	-0.000250
5.183333	1	-0.001500
5.200000	1	-0.003125
5.216667	1	-0.004625
5.233333	1	-0.005875
5.250000	1	-0.007750
5.266667	1	-0.009375
5.283333	1	-0.010250
5.300000	1	-0.011000
5.316667	1	-0.011875
5.333333	1	-0.012500
5.350000	1	-0.013625
5.366667	1	-0.014500
5.383333	1	-0.016375
5.400000	1	-0.017625
5.416667	1	-0.018000
5.433333	1	-0.019125
5.450000	1	-0.019750
5.466667	1	-0.021000
5.483333	1	-0.022875
5.500000	1	-0.024250
5.516667	1	-0.025250
5.533333	1	-0.026125
5.550000	1	-0.027125
5.566667	1	-0.027750
5.583333	1	-0.028875
5.600000	1	-0.029625
5.616667	1	-0.030750
5.633333	1	-0.032125
5.650000	1	-0.032750
5.666667	1	-0.033625
5.683333	1	-0.034875
5.700000	1	-0.035750
5.716667	1	-0.036500
5.733333	1	-0.037375
5.750000	1	-0.037875
5.766667	1	-0.038375
5.783333	1	-0.039000
5.800000	1	-0.039000
5.816667	1	-0.039500
5.833333	1	-0.040375
5.850000	1	-0.041500
5.866667	1	-0.042125
5.883333	1	-0.042375
5.900000	1	-0.041500
5.916667	1	-0.041500
5.933333	1	-0.041625
5.950000	1	-0.041125
5.966667	1	-0.040625
5.983333	1	-0.039875
6.000000	1	-0.038625
6.016667	1	-0.037750
6.033333	1	-0.036875
6.050000	1	-0.035500
6.066667	1	-0.034500
6.083333	1	-0.033000
6.100000	1	-0.032000
6.116667	1	-0.030500
6.133333	1	-0.029250
6.150000	1	-0.027500
6.166667	1	-0.026125
6.183333	1	-0.024625
6.200000	1	-0.023000
6.216667	1	-0.021875
6.233333	1	-0.020000
6.250000	1	-0.019500
6.266667	1	-0.018500
6.283333	1	-0.017000
6.300000	1	-0.016250
6.316667	1	-0.015500
6.333333	1	-0.015125
6.350000	1	-0.014500
6.366667	1	-0.013125
6.383333	1	-0.013125
6.400000	1	-0.012750
6.416667	1	-0.013000
6.433333	1	-0.013500
6.450000	1	-0.013250
6.466667	1	-0.013500
6.483333	1	-0.014000
6.500000	1	-0.014375
6.516667	1	-0.014750
6.533333	1	-0.015500
6.550000	1	-0.016250
6.566667	1	-0.017125
6.583333	1	-0.018625
6.600000	1	-0.019500
6.616667	1	-0.020000
6.633333	1	-0.020875
6.650000	1	-0.022125
6.666667	1	-0.023750
6.683333	1	-0.025375
6.700000	1	-0.027125
6.716667	1	-0.028125
6.733333	1	-0.028750
6.750000	1	-0.029875
6.766667	1	-0.030625
6.783333	1	-0.031375
6.800000	1	-0.032500
6.816667	1	-0.032750
6.833333	1	-0.033125
6.850000	1	-0.033625
6.866667	1	-0.033750
6.883333	1	-0.034625
6.900000	1	-0.034500
6.916667	1	-0.034500
6.933333	1	-0.034875
6.950000	1	-0.034625
6.966667	1	-0.033750
6.983333	1	-0.033250
7.000000	1	-0.033250
7.016667	1	-0.032750
7.033333	1	-0.031875
7.050000	1	-0.031000
7.066667	1	-0.030375
7.083333	1	-0.029625
7.100000	1	-0.028500
7.116667	1	-0.027250
7.133333	1	-0.027000
7.150000	1	-0.025875
7.166667	1	-0.024500
7.183333	1	-0.023250
7.200000	1	-0.021375
7.216667	1	-0.020250
7.233333	1	-0.018500
7.250000	1	-0.017625
7.266667	1	-0.016375
7.283333	1	-0.015000
7.300000	1	-0.014125
7.316667	1	-0.012250
7.333333	1	-0.011375
7.350000	1	-0.010250
7.366667	1	-0.009000
7.383333	1	-0.007375
7.400000	1	-0.006125
7.416667	1	-0.004875
7.433333	1	-0.003375
7.450000	1	-0.002500
7.466667	1	-0.001250
7.483333	1	0.000125
7.500000	1	0.001375
7.516667	1	0.002250
7.533333	1	0.003250
7.550000	1	0.004750
7.566667	1	0.006500
7.583333	1	0.008625
7.600000	1	0.010750
7.616667	1	0.012250
7.633333	1	0.013375
7.650000	1	0.015250
7.666667	1	0.016875
7.683333	1	0.019375
7.700000	1	0.020250
7.716667	1	0.022250
7.733333	1	0.024000
7.750000	1	0.025625
7.766667	1	0.026875
7.783333	1	0.028375
7.800000	1	0.029625
7.816667	1	0.031375
7.833333	1	0.032625
7.850000	1	0.033500
7.866667	1	0.035000
7.883333	1	0.035875
7.900000	1	0.037250
7.916667	1	0.038250
7.933333	1	0.038875
7.950000	1	0.039625
7.966667	1	0.040000
7.983333	1	0.040250
8.000000	1	0.040250
8.016667	1	0.040500
8.033333	1	0.041375
8.050000	1	0.041250
8.066667	1	0.041625
8.083333	1	0.041750
8.100000	1	0.042125
8.116667	1	0.042375
8.133333	1	0.041875
8.150000	1	0.042250
8.166667	1	0.042375
8.183333	1	0.042125
8.200000	1	0.041500
8.216667	1	0.041375
8.233333	1	0.040875
8.250000	1	0.040625
8.266667	1	0.040125
8.283333	1	0.039250
8.300000	1	0.038875
8.316667	1	0.038500
8.333333	1	0.038375
8.350000	1	0.037625
8.366667	1	0.037000
8.383333	1	0.036625
8.400000	1	0.036625
8.416667	1	0.036000
8.433333	1	0.035125
8.450000	1	0.034250
8.466667	1	0.032500
8.483333	1	0.030750
8.500000	1	0.029500
8.516667	1	0.028750
8.533333	1	0.026875
8.550000	1	0.025375
8.566667	1	0.024250
8.583333	1	0.022250
8.600000	1	0.020625
8.616667	1	0.019250
8.633333	1	0.017250
8.650000	1	0.014625
8.666667	1	0.012500
8.683333	1	0.010250
8.700000	1	0.008125
8.716667	1	0.005750
8.733333	1	0.002375
8.750000	1	0.000000
8.766667	1	-0.001875
8.783333	1	-0.003750
8.800000	1	-0.006250
8.816667	1	-0.008625
8.833333	1	-0.010875
8.850000	1	-0.012625
8.866667	1	-0.014500
8.883333	1	-0.016625
8.900000	1	-0.018875
8.916667	1	-0.020500
8.933333	1	-0.022500
8.950000	1	-0.023875
8.966667	1	-0.025000
8.983333	1	-0.025375
9.000000	1	-0.026250
9.016667	1	-0.027375
9.033333	1	-0.027375
9.050000	1	-0.027500
9.066667	1	-0.027750
9.083333	1	-0.027625
9.100000	1	-0.027250
9.116667	1	-0.025750
9.133333	1	-0.025000
9.150000	1	-0.024125
9.166667	1	-0.022875
9.183333	1	-0.021500
9.200000	1	-0.020125
9.216667	1	-0.018750
9.233333	1	-0.018000
9.250000	1	-0.016875
9.266667	1	-0.015500
9.283333	1	-0.014125
9.300000	1	-0.013000
9.316667	1	-0.011375
9.333333	1	-0.009750
9.350000	1	-0.008750
9.366667	1	-0.007500
9.383333	1	-0.006875
9.400000	1	-0.005625
9.416667	1	-0.004750
9.433333	1	-0.003875
9.450000	1	-0.003375
9.466667	1	-0.003250
9.483333	1	-0.002250
9.500000	1	-0.001875
9.516667	1	-0.001875
9.533333	1	-0.001500
9.550000	1	-0.000500
9.566667	1	0.000375
9.583333	1	0.000625
9.600000	1	0.000250
9.616667	1	0.000750
9.633333	1	0.001875
9.650000	1	0.001750
9.666667	1	0.001875
9.683333	1	0.002625
9.700000	1	0.003750
9.716667	1	0.005000
9.733333	1	0.005375
9.750000	1	0.006625
9.766667	1	0.008125
9.783333	1	0.009125
9.800000	1	0.010750
9.816667	1	0.011375
9.833333	1	0.013250
9.850000	1	0.014625
9.866667	1	0.016375
9.883333	1	0.018375
9.900000	1	0.019750
9.916667	1	0.021500
9.933333	1	0.022375
9.950000	1	0.023500
9.966667	1	0.025625
9.983333	1	0.026375
10.000000	1	0.026750
10.016667	1	0.027250
10.033333	1	0.027000
10.050000	1	0.026375
10.066667	1	0.025625
10.083333	1	0.025625
10.100000	1	0.025375
10.116667	1	0.025125
10.133333	1	0.025250
10.150000	1	0.025875
10.166667	1	0.027000
10.183333	1	0.029000
10.200000	1	0.032125
10.216667	1	0.036750
10.233333	1	0.042750
10.250000	1	0.050000
10.266667	1	0.059500
10.283333	1	0.070375
10.300000	1	0.083750
10.316667	1	0.099000
10.333333	1	0.115125
10.350000	1	0.131875
10.366667	1	0.147000
10.383333	1	0.156750
10.400000	1	0.157500
10.416667	1	0.143625
10.433333	1	0.110125
10.450000	1	0.057375
10.466667	1	-0.010125
10.483333	1	-0.079875
10.500000	1	-0.127750
10.516667	1	-0.116250
10.533333	1	0.004375
10.550000	1	0.294500
10.566667	1	0.819500
10.583333	1	1.645250
10.600000	1	2.834125
10.616667	1	4.438750
10.633333	1	6.501125
10.650000	1	9.049000
10.666667	1	12.104125
10.683333	1	15.673250
10.700000	1	19.756125
10.716667	1	24.338750
10.733333	1	29.401750
10.750000	1	34.908750
10.766667	1	40.815500
10.783333	1	47.056500
10.800000	1	53.546625
10.816667	1	60.161125
10.833333	1	66.710500
10.850000	1	72.900000
10.866667	1	78.317875
10.883333	1	82.388500
10.900000	1	84.439875
10.916667	1	83.856625
10.933333	1	80.324750
10.950000	1	74.031375
10.966667	1	65.678000
10.983333	1	56.257250
11.000000	1	46.760250
11.016667	1	37.944625
11.033333	1	30.251625
11.050000	1	23.830375
11.066667	1	18.636625
11.083333	1	14.537250
11.100000	1	11.359125
11.116667	1	8.930250
11.133333	1	7.090375
11.150000	1	5.707125
11.166667	1	4.667250
11.183333	1	3.886125
11.200000	1	3.294625
11.216667	1	2.844000
11.233333	1	2.497625
11.250000	1	2.227625
11.266667	1	2.014375
11.283333	1	1.842875
11.300000	1	1.702750
11.316667	1	1.586750
11.333333	1	1.489750
11.350000	1	1.408000
11.366667	1	1.338375
11.383333	1	1.278625
11.400000	1	1.227000
11.416667	1	1.182875
11.433333	1	1.144625
11.450000	1	1.110875
11.466667	1	1.082125
11.483333	1	1.056875
11.500000	1	1.034375
11.516667	1	1.015375
11.533333	1	0.998250
11.550000	1	0.983625
11.566667	1	0.971000
11.583333	1	0.960000
11.600000	1	0.950250
11.616667	1	0.941875
11.633333	1	0.934500
11.650000	1	0.928375
11.666667	1	0.923250
11.683333	1	0.920250
11.700000	1	0.917500
11.716667	1	0.916000
11.733333	1	0.915625
11.750000	1	0.916000
11.766667	1	0.917250
11.783333	1	0.919000
11.800000	1	0.922000
11.816667	1	0.925750
11.833333	1	0.929500
11.850000	1	0.933750
11.866667	1	0.937125
11.883333	1	0.940000
11.900000	1	0.942500
11.916667	1	0.944500
11.933333	1	0.945750
11.950000	1	0.945750
11.966667	1	0.945125
11.983333	1	0.944375
12.000000	1	0.942375
12.016667	1	0.940250
12.033333	1	0.938250
12.050000	1	0.936375
12.066667	1	0.934500
12.083333	1	0.933125
12.100000	1	0.932125
12.116667	1	0.932125
12.133333	1	0.932625
12.150000	1	0.933750
12.166667	1	0.936250
12.183333	1	0.939125
12.200000	1	0.943250
12.216667	1	0.948625
12.233333	1	0.956375
12.250000	1	0.965375
12.266667	1	0.976750
12.283333	1	0.992250
12.300000	1	1.011125
12.316667	1	1.036750
12.333333	1	1.069000
12.350000	1	1.111500
12.366667	1	1.167250
12.383333	1	1.238875
12.400000	1	1.330625
12.416667	1	1.446000
12.433333	1	1.590750
12.450000	1	1.769250
12.466667	1	1.985750
12.483333	1	2.246125
12.500000	1	2.554250
12.516667	1	2.913375
12.533333	1	3.327125
12.550000	1	3.795625
12.566667	1	4.318375
12.583333	1	4.893625
12.600000	1	5.516000
12.616667	1	6.177750
12.633333	1	6.868875
12.650000	1	7.578125
12.666667	1	8.292500
12.683333	1	8.998625
12.700000	1	9.686250
12.716667	1	10.344000
12.733333	1	10.966125
12.750000	1	11.551250
12.766667	1	12.101500
12.783333	1	12.621625
12.800000	1	13.120875
12.816667	1	13.608625
12.833333	1	14.096375
12.850000	1	14.593125
12.866667	1	15.108000
12.883333	1	15.647750
12.900000	1	16.216375
12.916667	1	16.817500
12.933333	1	17.452125
12.950000	1	18.119750
12.966667	1	18.818375
12.983333	1	19.547500
13.000000	1	20.304000
13.016667	1	21.087625
13.033333	1	21.895500
13.050000	1	22.728125
13.066667	1	23.583500
13.083333	1	24.461875
13.100000	1	25.360500
13.116667	1	26.281000
13.133333	1	27.220250
13.150000	1	28.178000
13.166667	1	29.155500
13.183333	1	30.151375
13.200000	1	31.166875
13.216667	1	32.200000
13.233333	1	33.252750
13.250000	1	34.324875
13.266667	1	35.419250
13.283333	1	36.534750
13.300000	1	37.671500
13.316667	1	38.829625
13.333333	1	40.009875
13.350000	1	41.211625
13.366667	1	42.435875
13.383333	1	43.684750
13.400000	1	44.956875
13.416667	1	46.251625
13.433333	1	47.572375
13.450000	1	48.919000
13.466667	1	50.294250
13.483333	1	51.697875
13.500000	1	53.130875
13.516667	1	54.592000
13.533333	1	56.084500
13.550000	1	57.606875
13.566667	1	59.160125
13.583333	1	60.743875
13.600000	1	62.358250
13.616667	1	64.003500
13.633333	1	65.683000
13.650000	1	67.397375
13.666667	1	69.147875
13.683333	1	70.936625
13.700000	1	72.762375
13.716667	1	74.626500
13.733333	1	76.527250
13.750000	1	78.458625
13.766667	1	80.387000
13.783333	1	82.216375
13.800000	1	83.753375
13.816667	1	84.727500
13.833333	1	84.828875
13.850000	1	83.749500
13.866667	1	81.194875
13.883333	1	76.905000
13.900000	1	70.744125
13.916667	1	62.866125
13.933333	1	53.815250
13.950000	1	44.442125
13.966667	1	35.639875
13.983333	1	28.036500
14.000000	1	21.868875
14.016667	1	17.058000
14.033333	1	13.388750
14.050000	1	10.623375
14.066667	1	8.559000
14.083333	1	7.032000
14.100000	1	5.910875
14.116667	1	5.091625
14.133333	1	4.493250
14.150000	1	4.052625
14.166667	1	3.723750
14.183333	1	3.475125
14.200000	1	3.282500
14.216667	1	3.130500
14.233333	1	3.006875
14.250000	1	2.905250
14.266667	1	2.818875
14.283333	1	2.745625
14.300000	1	2.681375
14.316667	1	2.624750
14.333333	1	2.575500
14.350000	1	2.531750
14.366667	1	2.494375
14.383333	1	2.462750
14.400000	1	2.438625
14.416667	1	2.421750
14.433333	1	2.415250
14.450000	1	2.423125
14.466667	1	2.448250
14.483333	1	2.496625
14.500000	1	2.577000
14.516667	1	2.700750
14.533333	1	2.882375
14.550000	1	3.143250
14.566667	1	3.507250
14.583333	1	4.008375
14.600000	1	4.686875
14.616667	1	5.592500
14.633333	1	6.783250
14.650000	1	8.325875
14.666667	1	10.289625
14.683333	1	12.741500
14.700000	1	15.742750
14.716667	1	19.341125
14.733333	1	23.558250
14.750000	1	28.383750
14.766667	1	33.766875
14.783333	1	39.605750
14.800000	1	45.759750
14.816667	1	52.042250
14.833333	1	58.231625
14.850000	1	64.070625
14.866667	1	69.292375
14.883333	1	73.639375
14.900000	1	76.884750
14.916667	1	78.858375
14.933333	1	79.459000
14.950000	1	78.665500
14.966667	1	76.535750
14.983333	1	73.210375
15.000000	1	68.881125
15.016667	1	63.778750
15.033333	1	58.152625
15.050000	1	52.259125
15.066667	1	46.332000
15.083333	1	40.574875
15.100000	1	35.144250
15.116667	1	30.153250
15.133333	1	25.668500
15.150000	1	21.715750
15.166667	1	18.291125
15.183333	1	15.369625
15.200000	1	12.906250
15.216667	1	10.850250
15.233333	1	9.149000
15.250000	1	7.750500
15.266667	1	6.608875
15.283333	1	5.680875
15.300000	1	4.930500
15.316667	1	4.326625
15.333333	1	3.841875
15.350000	1	3.454750
15.366667	1	3.147000
15.383333	1	2.904500
15.400000	1	2.715375
15.416667	1	2.568625
15.433333	1	2.456750
15.450000	1	2.373375
15.466667	1	2.312000
15.483333	1	2.267500
15.500000	1	2.234500
15.516667	1	2.209375
15.533333	1	2.188625
15.550000	1	2.169000
15.566667	1	2.148000
15.583333	1	2.123875
15.600000	1	2.096000
15.616667	1	2.063625
15.633333	1	2.026250
15.650000	1	1.985875
15.666667	1	1.943250
15.683333	1	1.898750
15.700000	1	1.854625
15.716667	1	1.812000
15.733333	1	1.770750
15.750000	1	1.731500
15.766667	1	1.695250
15.783333	1	1.660875
15.800000	1	1.627875
15.816667	1	1.596375
15.833333	1	1.566625
15.850000	1	1.537625
15.866667	1	1.509250
15.883333	1	1.481375
15.900000	1	1.455125
15.916667	1	1.429875
15.933333	1	1.406000
15.950000	1	1.384750
15.966667	1	1.365250
15.983333	1	1.348375
16.000000	1	1.334750
16.016667	1	1.323500
16.033333	1	1.315375
16.050000	1	1.309250
16.066667	1	1.305000
16.083333	1	1.303375
16.100000	1	1.301500
16.116667	1	1.300250
16.133333	1	1.299500
16.150000	1	1.298375
16.166667	1	1.296250
16.183333	1	1.292500
16.200000	1	1.287375
16.216667	1	1.280625
16.233333	1	1.272375
16.250000	1	1.262625
16.266667	1	1.250875
16.283333	1	1.237875
16.300000	1	1.224125
16.316667	1	1.210000
16.333333	1	1.195500
16.350000	1	1.181000
16.366667	1	1.165625
16.383333	1	1.151000
16.400000	1	1.136500
16.416667	1	1.123500
16.433333	1	1.111750
16.450000	1	1.101250
16.466667	1	1.091875
16.483333	1	1.085250
16.500000	1	1.080875
16.516667	1	1.078000
16.533333	1	1.076875
16.550000	1	1.078375
16.566667	1	1.081125
16.583333	1	1.084750
16.600000	1	1.089750
16.616667	1	1.093750
16.633333	1	1.099500
16.650000	1	1.104000
16.666667	1	1.107875
16.683333	1	1.110125
16.700000	1	1.111125
16.716667	1	1.111625
16.733333	1	1.111750
16.750000	1	1.110375
16.766667	1	1.109500
16.783333	1	1.107875
16.800000	1	1.106875
16.816667	1	1.106375
16.833333	1	1.106125
16.850000	1	1.106625
16.866667	1	1.108250
16.883333	1	1.110625
16.900000	1	1.112250
16.916667	1	1.113750
16.933333	1	1.114375
16.950000	1	1.115375
16.966667	1	1.115000
16.983333	1	1.114125
17.000000	1	1.112000
17.016667	1	1.108375
17.033333	1	1.104000
17.050000	1	1.098750
17.066667	1	1.092750
17.083333	1	1.087000
17.100000	1	1.080750
17.116667	1	1.075500
17.133333	1	1.070125
17.150000	1	1.065875
17.166667	1	1.062250
17.183333	1	1.059875
17.200000	1	1.058000
17.216667	1	1.056875
17.233333	1	1.057000
17.250000	1	1.058000
17.266667	1	1.059375
17.283333	1	1.061375
17.300000	1	1.064250
17.316667	1	1.068250
17.333333	1	1.072125
17.350000	1	1.077250
17.366667	1	1.081375
17.383333	1	1.086000
17.400000	1	1.090250
17.416667	1	1.094500
17.433333	1	1.098250
17.450000	1	1.100750
17.466667	1	1.102875
17.483333	1	1.104500
17.500000	1	1.104500
17.516667	1	1.103125
17.533333	1	1.100750
17.550000	1	1.096625
17.566667	1	1.090375
17.583333	1	1.083750
17.600000	1	1.075000
17.616667	1	1.064625
17.633333	1	1.053375
17.650000	1	1.041000
17.666667	1	1.027500
17.683333	1	1.013625
17.700000	1	0.999125
17.716667	1	0.984625
17.733333	1	0.970500
17.750000	1	0.956750
17.766667	1	0.943500
17.783333	1	0.930750
17.800000	1	0.919125
17.816667	1	0.907750
17.833333	1	0.897250
17.850000	1	0.887625
17.866667	1	0.878625
17.883333	1	0.869750
17.900000	1	0.862125
17.916667	1	0.854750
17.933333	1	0.848000
17.950000	1	0.842500
17.966667	1	0.837000
17.983333	1	0.832500
18.000000	1	0.828125
18.016667	1	0.824375
18.033333	1	0.820000
18.050000	1	0.815500
18.066667	1	0.810625
18.083333	1	0.806250
18.100000	1	0.801625
18.116667	1	0.796500
18.133333	1	0.792250
18.150000	1	0.787375
18.166667	1	0.782500
18.183333	1	0.778375
18.200000	1	0.774875
18.216667	1	0.771375
18.233333	1	0.768750
18.250000	1	0.766375
18.266667	1	0.764125
18.283333	1	0.762500
18.300000	1	0.761500
18.316667	1	0.762125
18.333333	1	0.761625
18.350000	1	0.761250
18.366667	1	0.761875
18.383333	1	0.763625
18.400000	1	0.764500
18.416667	1	0.766000
18.433333	1	0.768125
18.450000	1	0.771125
18.466667	1	0.774500
18.483333	1	0.779250
18.500000	1	0.784875
18.516667	1	0.792500
18.533333	1	0.801000
18.550000	1	0.811375
18.566667	1	0.823625
18.583333	1	0.838125
18.600000	1	0.854000
18.616667	1	0.872375
18.633333	1	0.892625
18.650000	1	0.915125
18.666667	1	0.939625
18.683333	1	0.965625
18.700000	1	0.992750
18.716667	1	1.022375
18.733333	1	1.052250
18.750000	1	1.083250
18.766667	1	1.115375
18.783333	1	1.147625
18.800000	1	1.180375
18.816667	1	1.212000
18.833333	1	1.242875
18.850000	1	1.271375
18.866667	1	1.298125
18.883333	1	1.320625
18.900000	1	1.339750
18.916667	1	1.353625
18.933333	1	1.363125
18.950000	1	1.366500
18.966667	1	1.364125
18.983333	1	1.354250
19.000000	1	1.338375
19.016667	1	1.316125
19.033333	1	1.287750
19.050000	1	1.253500
19.066667	1	1.214750
19.083333	1	1.171250
19.100000	1	1.126000
19.116667	1	1.078625
19.133333	1	1.031000
19.150000	1	0.982875
19.166667	1	0.936500
19.183333	1	0.893250
19.200000	1	0.852625
19.216667	1	0.817250
19.233333	1	0.787375
19.250000	1	0.763250
19.266667	1	0.745250
19.283333	1	0.735375
19.300000	1	0.732875
19.316667	1	0.738875
19.333333	1	0.752750
19.350000	1	0.774625
19.366667	1	0.805875
19.383333	1	0.845375
19.400000	1	0.893375
19.416667	1	0.948875
19.433333	1	1.011375
19.450000	1	1.080125
19.466667	1	1.153500
19.483333	1	1.230125
19.500000	1	1.308750
19.516667	1	1.386500
19.533333	1	1.461750
19.550000	1	1.532625
19.566667	1	1.597125
19.583333	1	1.652750
19.600000	1	1.698625
19.616667	1	1.732750
19.633333	1	1.754500
19.650000	1	1.763000
19.666667	1	1.759125
19.683333	1	1.742750
19.700000	1	1.715000
19.716667	1	1.677000
19.733333	1	1.630000
19.750000	1	1.575000
19.766667	1	1.514000
19.783333	1	1.449625
19.800000	1	1.383125
19.816667	1	1.315125
19.833333	1	1.246375
19.850000	1	1.179250
19.866667	1	1.114750
19.883333	1	1.052500
19.900000	1	0.993000
19.916667	1	0.936500
19.933333	1	0.884125
19.950000	1	0.836375
19.966667	1	0.792250
19.983333	1	0.752000
20.000000	1	0.715125
20.016667	1	0.682500
20.033333	1	0.654125
20.050000	1	0.629500
20.066667	1	0.609250
20.083333	1	0.592875
20.100000	1	0.579750
20.116667	1	0.570250
20.133333	1	0.564000
20.150000	1	0.561250
20.166667	1	0.561250
20.183333	1	0.564875
20.200000	1	0.570000
20.216667	1	0.577125
20.233333	1	0.586875
20.250000	1	0.596875
20.266667	1	0.607250
20.283333	1	0.617500
20.300000	1	0.627250
20.316667	1	0.636750
20.333333	1	0.644750
20.350000	1	0.650250
20.366667	1	0.653375
20.383333	1	0.653750
20.400000	1	0.651625
20.416667	1	0.646750
20.433333	1	0.640375
20.450000	1	0.631875
20.466667	1	0.621750
20.483333	1	0.611000
20.500000	1	0.600875
20.516667	1	0.591875
20.533333	1	0.584250
20.550000	1	0.580250
20.566667	1	0.579250
20.583333	1	0.583875
20.600000	1	0.594000
20.616667	1	0.609875
20.633333	1	0.633750
20.650000	1	0.664750
20.666667	1	0.702625
20.683333	1	0.748375
20.700000	1	0.800875
20.716667	1	0.861250
20.733333	1	0.927375
20.750000	1	0.997875
20.766667	1	1.072000
20.783333	1	1.147625
20.800000	1	1.223000
20.816667	1	1.295000
20.833333	1	1.362375
20.850000	1	1.423000
20.866667	1	1.473875
20.883333	1	1.513500
20.900000	1	1.541625
20.916667	1	1.555750
20.933333	1	1.556500
20.950000	1	1.543875
20.966667	1	1.518750
20.983333	1	1.481625
21.000000	1	1.433625
21.016667	1	1.377250
21.033333	1	1.313250
21.050000	1	1.245750
21.066667	1	1.175125
21.083333	1	1.104000
21.100000	1	1.034125
21.116667	1	0.966625
21.133333	1	0.902500
21.150000	1	0.842750
21.166667	1	0.787125
21.183333	1	0.736875
21.200000	1	0.691000
21.216667	1	0.651250
21.233333	1	0.616000
21.250000	1	0.584875
21.266667	1	0.557625
21.283333	1	0.535125
21.300000	1	0.515000
21.316667	1	0.498125
21.333333	1	0.484250
21.350000	1	0.472250
21.366667	1	0.462000
21.383333	1	0.453250
21.400000	1	0.445375
21.416667	1	0.438000
21.433333	1	0.432125
21.450000	1	0.426625
21.466667	1	0.421625
21.483333	1	0.417250
21.500000	1	0.413375
21.516667	1	0.410250
21.533333	1	0.406375
21.550000	1	0.402875
21.566667	1	0.400125
21.583333	1	0.398375
21.600000	1	0.396625
21.616667	1	0.395625
21.633333	1	0.394875
21.650000	1	0.394375
21.666667	1	0.394000
21.683333	1	0.394625
21.700000	1	0.395250
21.716667	1	0.397250
21.733333	1	0.399000
21.750000	1	0.402000
21.766667	1	0.405875
21.783333	1	0.409375
21.800000	1	0.413625
21.816667	1	0.417375
21.833333	1	0.421875
21.850000	1	0.426750
21.866667	1	0.432000
21.883333	1	0.437250
21.900000	1	0.442875
21.916667	1	0.449000
21.933333	1	0.455125
21.950000	1	0.461250
21.966667	1	0.466500
21.983333	1	0.472875
22.000000	1	0.479000
22.016667	1	0.484625
22.033333	1	0.489125
22.050000	1	0.494375
22.066667	1	0.498625
22.083333	1	0.502875
22.100000	1	0.506250
22.116667	1	0.509000
22.133333	1	0.511250
22.150000	1	0.512500
22.166667	1	0.512875
22.183333	1	0.511875
22.200000	1	0.509750
22.216667	1	0.505875
22.233333	1	0.501125
22.250000	1	0.495000
22.266667	1	0.487500
22.283333	1	0.478000
22.300000	1	0.467500
22.316667	1	0.456125
22.333333	1	0.444500
22.350000	1	0.431125
22.366667	1	0.417875
22.383333	1	0.403125
22.400000	1	0.387625
22.416667	1	0.373250
22.433333	1	0.358500
22.450000	1	0.343875
22.466667	1	0.329250
22.483333	1	0.315625
22.500000	1	0.302625
22.516667	1	0.289625
22.533333	1	0.278375
22.550000	1	0.267875
22.566667	1	0.257750
22.583333	1	0.248000
22.600000	1	0.239625
22.616667	1	0.232000
22.633333	1	0.224750
22.650000	1	0.219125
22.666667	1	0.213500
22.683333	1	0.207750
22.700000	1	0.203000
22.716667	1	0.198875
22.733333	1	0.195000
22.750000	1	0.191625
22.766667	1	0.189250
22.783333	1	0.187250
22.800000	1	0.185000
22.816667	1	0.182875
22.833333	1	0.181875
22.850000	1	0.181000
22.866667	1	0.180375
22.883333	1	0.180000
22.900000	1	0.180125
22.916667	1	0.180750
22.933333	1	0.181750
22.950000	1	0.182875
22.966667	1	0.185000
22.983333	1	0.187375
23.000000	1	0.189500
23.016667	1	0.192125
23.033333	1	0.194375
23.050000	1	0.197375
23.066667	1	0.201000
23.083333	1	0.204750
23.100000	1	0.209250
23.116667	1	0.214125
23.133333	1	0.218750
23.150000	1	0.223000
23.166667	1	0.227250
23.183333	1	0.231875
23.200000	1	0.237375
23.216667	1	0.242250
23.233333	1	0.247875
23.250000	1	0.253625
23.266667	1	0.260375
23.283333	1	0.268000
23.300000	1	0.276875
23.316667	1	0.287500
23.333333	1	0.299875
23.350000	1	0.314875
23.366667	1	0.332750
23.383333	1	0.355000
23.400000	1	0.381375
23.416667	1	0.413875
23.433333	1	0.452250
23.450000	1	0.498000
23.466667	1	0.552875
23.483333	1	0.617000
23.500000	1	0.691500
23.516667	1	0.778625
23.533333	1	0.879375
23.550000	1	0.995250
23.566667	1	1.126375
23.583333	1	1.273250
23.600000	1	1.437250
23.616667	1	1.618625
23.633333	1	1.816375
23.650000	1	2.030000
23.666667	1	2.258500
23.683333	1	2.500000
23.700000	1	2.752625
23.716667	1	3.012500
23.733333	1	3.276500
23.750000	1	3.540250
23.766667	1	3.798250
23.783333	1	4.045625
23.800000	1	4.277125
23.816667	1	4.488125
23.833333	1	4.673125
23.850000	1	4.828875
23.866667	1	4.950000
23.883333	1	5.035250
23.900000	1	5.081875
23.916667	1	5.088750
23.933333	1	5.057250
23.950000	1	4.987250
23.966667	1	4.882000
23.983333	1	4.743750
24.000000	1	4.576125
24.016667	1	4.384750
24.033333	1	4.173625
24.050000	1	3.948500
24.066667	1	3.712875
24.083333	1	3.471875
24.100000	1	3.228500
24.116667	1	2.987625
24.133333	1	2.752500
24.150000	1	2.525750
24.166667	1	2.310125
24.183333	1	2.106125
24.200000	1	1.915250
24.216667	1	1.739625
24.233333	1	1.578000
24.250000	1	1.431125
24.266667	1	1.298250
24.283333	1	1.178375
24.300000	1	1.071375
24.316667	1	0.975375
24.333333	1	0.889875
24.350000	1	0.815625
24.366667	1	0.750500
24.383333	1	0.693875
24.400000	1	0.644000
24.416667	1	0.601500
24.433333	1	0.564500
24.450000	1	0.533750
24.466667	1	0.507500
24.483333	1	0.484875
24.500000	1	0.465875
24.516667	1	0.450000
24.533333	1	0.436875
24.550000	1	0.425750
24.566667	1	0.415875
24.583333	1	0.407000
24.600000	1	0.399375
24.616667	1	0.392000
24.633333	1	0.385375
24.650000	1	0.379125
24.666667	1	0.373500
24.683333	1	0.367625
24.700000	1	0.362250
24.716667	1	0.355500
24.733333	1	0.350125
24.750000	1	0.343750
24.766667	1	0.337375
24.783333	1	0.331750
24.800000	1	0.325750
24.816667	1	0.320250
24.833333	1	0.314250
24.850000	1	0.308750
24.866667	1	0.302875
24.883333	1	0.298125
24.900000	1	0.293125
24.916667	1	0.288250
24.933333	1	0.283875
24.950000	1	0.280500
24.966667	1	0.277000
24.983333	1	0.272625
25.000000	1	0.269250
25.016667	1	0.266125
25.033333	1	0.262625
25.050000	1	0.259625
25.066667	1	0.256750
25.083333	1	0.253375
25.100000	1	0.250500
25.116667	1	0.247500
25.133333	1	0.244500
25.150000	1	0.242250
25.166667	1	0.239500
25.183333	1	0.236875
25.200000	1	0.234000
25.216667	1	0.231250
25.233333	1	0.229000
25.250000	1	0.226750
25.266667	1	0.224250
25.283333	1	0.222000
25.300000	1	0.219500
25.316667	1	0.217875
25.333333	1	0.215625
25.350000	1	0.213125
25.366667	1	0.211125
25.383333	1	0.209125
25.400000	1	0.206625
25.416667	1	0.205000
25.433333	1	0.203750
25.450000	1	0.202500
25.466667	1	0.201125
25.483333	1	0.200000
25.500000	1	0.198500
25.516667	1	0.197625
25.533333	1	0.196750
25.550000	1	0.196375
25.566667	1	0.195625
25.583333	1	0.195375
25.600000	1	0.195000
25.616667	1	0.194000
25.633333	1	0.193875
25.650000	1	0.193375
25.666667	1	0.192625
25.683333	1	0.191875
25.700000	1	0.190875
25.716667	1	0.189500
25.733333	1	0.189250
25.750000	1	0.187750
25.766667	1	0.187750
25.783333	1	0.186500
25.800000	1	0.186000
25.816667	1	0.185500
25.833333	1	0.185500
25.850000	1	0.185125
25.866667	1	0.185250
25.883333	1	0.184750
25.900000	1	0.185500
25.916667	1	0.185375
25.933333	1	0.186500
25.950000	1	0.187500
25.966667	1	0.188750
25.983333	1	0.188875
26.000000	1	0.190375
26.016667	1	0.192500
26.033333	1	0.194625
26.050000	1	0.197625
26.066667	1	0.200750
26.083333	1	0.203875
26.100000	1	0.206250
26.116667	1	0.209375
26.133333	1	0.211875
26.150000	1	0.214500
26.166667	1	0.216875
26.183333	1	0.219125
26.200000	1	0.221500
26.216667	1	0.223250
26.233333	1	0.224625
26.250000	1	0.225375
26.266667	1	0.226125
26.283333	1	0.226625
26.300000	1	0.226375
26.316667	1	0.225125
26.333333	1	0.223375
26.350000	1	0.222000
26.366667	1	0.219250
26.383333	1	0.216375
26.400000	1	0.213250
26.416667	1	0.210000
26.433333	1	0.206125
26.450000	1	0.202250
26.466667	1	0.197500
26.483333	1	0.192875
26.500000	1	0.187500
26.516667	1	0.182125
26.533333	1	0.176750
26.550000	1	0.171625
26.566667	1	0.166500
26.583333	1	0.161250
26.600000	1	0.154875
26.616667	1	0.149250
26.633333	1	0.144125
26.650000	1	0.138875
26.666667	1	0.133625
26.683333	1	0.128375
26.700000	1	0.123625
26.716667	1	0.120125
26.733333	1	0.115875
26.750000	1	0.111875
26.766667	1	0.107375
26.783333	1	0.104125
26.800000	1	0.101000
26.816667	1	0.098500
26.833333	1	0.096625
26.850000	1	0.094875
26.866667	1	0.093000
26.883333	1	0.091500
26.900000	1	0.090750
26.916667	1	0.090625
26.933333	1	0.090375
26.950000	1	0.090250
26.966667	1	0.090125
26.983333	1	0.091625
27.000000	1	0.093500
27.016667	1	0.095625
27.033333	1	0.098375
27.050000	1	0.101625
27.066667	1	0.106125
27.083333	1	0.111625
27.100000	1	0.117750
27.116667	1	0.124500
27.133333	1	0.132750
27.150000	1	0.142000
27.166667	1	0.153625
27.183333	1	0.166000
27.200000	1	0.181125
27.216667	1	0.198625
27.233333	1	0.218625
27.250000	1	0.240750
27.266667	1	0.267250
27.283333	1	0.297250
27.300000	1	0.331250
27.316667	1	0.369500
27.333333	1	0.413250
27.350000	1	0.462500
27.366667	1	0.517625
27.383333	1	0.579250
27.400000	1	0.648375
27.416667	1	0.724625
27.433333	1	0.810250
27.450000	1	0.904000
27.466667	1	1.006625
27.483333	1	1.118750
27.500000	1	1.241000
27.516667	1	1.372000
27.533333	1	1.512375
27.550000	1	1.661250
27.566667	1	1.818500
27.583333	1	1.983250
27.600000	1	2.154375
27.616667	1	2.329875
27.633333	1	2.509625
27.650000	1	2.691000
27.666667	1	2.872125
27.683333	1	3.050125
27.700000	1	3.223375
27.716667	1	3.388625
27.733333	1	3.543875
27.750000	1	3.686250
27.766667	1	3.813500
27.783333	1	3.922750
27.800000	1	4.012750
27.816667	1	4.081000
27.833333	1	4.126750
27.850000	1	4.147875
27.866667	1	4.145000
27.883333	1	4.117250
27.900000	1	4.065250
27.916667	1	3.989375
27.933333	1	3.891250
27.950000	1	3.772250
27.966667	1	3.635625
27.983333	1	3.482875
28.000000	1	3.317000
28.016667	1	3.141125
28.033333	1	2.958125
28.050000	1	2.770125
28.066667	1	2.580875
28.083333	1	2.391500
28.100000	1	2.205000
28.116667	1	2.024125
28.133333	1	1.850375
28.150000	1	1.684125
28.166667	1	1.527750
28.183333	1	1.382500
28.200000	1	1.247875
28.216667	1	1.124125
28.233333	1	1.010250
28.250000	1	0.907750
28.266667	1	0.814750
28.283333	1	0.732500
28.300000	1	0.660500
28.316667	1	0.597125
28.333333	1	0.542250
28.350000	1	0.495000
28.366667	1	0.455000
28.383333	1	0.421000
28.400000	1	0.394250
28.416667	1	0.371500
28.433333	1	0.353875
28.450000	1	0.340750
28.466667	1	0.331875
28.483333	1	0.326250
28.500000	1	0.323375
28.516667	1	0.323000
28.533333	1	0.325250
28.550000	1	0.330375
28.566667	1	0.337250
28.583333	1	0.344375
28.600000	1	0.353000
28.616667	1	0.362750
28.633333	1	0.373375
28.650000	1	0.384500
28.666667	1	0.395750
28.683333	1	0.407125
28.700000	1	0.418750
28.716667	1	0.429625
28.733333	1	0.440375
28.750000	1	0.451125
28.766667	1	0.460375
28.783333	1	0.469375
28.800000	1	0.477375
28.816667	1	0.484500
28.833333	1	0.490250
28.850000	1	0.495250
28.866667	1	0.499125
28.883333	1	0.502250
28.900000	1	0.504125
28.916667	1	0.504125
28.933333	1	0.502375
28.950000	1	0.500000
28.966667	1	0.497000
28.983333	1	0.493125
29.000000	1	0.487500
29.016667	1	0.480750
29.033333	1	0.473125
29.050000	1	0.464750
29.066667	1	0.455750
29.083333	1	0.445250
29.100000	1	0.433625
29.116667	1	0.422250
29.133333	1	0.410375
29.150000	1	0.397375
29.166667	1	0.384250
29.183333	1	0.371125
29.200000	1	0.357500
29.216667	1	0.343500
29.233333	1	0.329750
29.250000	1	0.315875
29.266667	1	0.302750
29.283333	1	0.289250
29.300000	1	0.275750
29.316667	1	0.262875
29.333333	1	0.249875
29.350000	1	0.238000
29.366667	1	0.226125
29.383333	1	0.214500
29.400000	1	0.203750
29.416667	1	0.192875
29.433333	1	0.182375
29.450000	1	0.172375
29.466667	1	0.163500
29.483333	1	0.154625
29.500000	1	0.146375
29.516667	1	0.139000
29.533333	1	0.130750
29.550000	1	0.123250
29.566667	1	0.116750
29.583333	1	0.111125
29.600000	1	0.105375
29.616667	1	0.100125
29.633333	1	0.095500
29.650000	1	0.091125
29.666667	1	0.086000
29.683333	1	0.082000
29.700000	1	0.078375
29.716667	1	0.075250
29.733333	1	0.071375
29.750000	1	0.068375
29.766667	1	0.065875
29.783333	1	0.063875
29.800000	1	0.061250
29.816667	1	0.059375
29.833333	1	0.057375
29.850000	1	0.055250
29.866667	1	0.053375
29.883333	1	0.051625
29.900000	1	0.050250
29.916667	1	0.049250
29.933333	1	0.047625
29.950000	1	0.046625
29.966667	1	0.045500
29.983333	1	0.044750
30.000000	1	0.043500
30.016667	1	0.042625
30.033333	1	0.042250
30.050000	1	0.041500
30.066667	1	0.040500
30.083333	1	0.040000
30.100000	1	0.039875
30.116667	1	0.039000
30.133333	1	0.038500
30.150000	1	0.038250
30.166667	1	0.038125
30.183333	1	0.037750
30.200000	1	0.037375
30.216667	1	0.037750
30.233333	1	0.037625
30.250000	1	0.037750
30.266667	1	0.038375
30.283333	1	0.039250
30.300000	1	0.040500
30.316667	1	0.041625
30.333333	1	0.042625
30.350000	1	0.044250
30.366667	1	0.045375
30.383333	1	0.047500
30.400000	1	0.049625
30.416667	1	0.052500
30.433333	1	0.055500
30.450000	1	0.059000
30.466667	1	0.062875
30.483333	1	0.067375
30.500000	1	0.072500
30.516667	1	0.078000
30.533333	1	0.084250
30.550000	1	0.090875
30.566667	1	0.097875
30.583333	1	0.105750
30.600000	1	0.114500
30.616667	1	0.123375
30.633333	1	0.132875
30.650000	1	0.143625
30.666667	1	0.155000
30.683333	1	0.168000
30.700000	1	0.181375
30.716667	1	0.196500
30.733333	1	0.212750
30.750000	1	0.230375
30.766667	1	0.249875
30.783333	1	0.270625
30.800000	1	0.294250
30.816667	1	0.319750
30.833333	1	0.348750
30.850000	1	0.379625
30.866667	1	0.414500
30.883333	1	0.454000
30.900000	1	0.497875
30.916667	1	0.547750
30.933333	1	0.602875
30.950000	1	0.664625
30.966667	1	0.734125
30.983333	1	0.812125
31.000000	1	0.899000
31.016667	1	0.996750
31.033333	1	1.105125
31.050000	1	1.225875
31.066667	1	1.359250
31.083333	1	1.506250
31.100000	1	1.667375
31.116667	1	1.842500
31.133333	1	2.033125
31.150000	1	2.237875
31.166667	1	2.458000
31.183333	1	2.693250
31.200000	1	2.943250
31.216667	1	3.207125
31.233333	1	3.482875
31.250000	1	3.768750
31.266667	1	4.062125
31.283333	1	4.362250
31.300000	1	4.666000
31.316667	1	4.970250
31.333333	1	5.271625
31.350000	1	5.567125
31.366667	1	5.853250
31.383333	1	6.127625
31.400000	1	6.385750
31.416667	1	6.625750
31.433333	1	6.841500
31.450000	1	7.031375
31.466667	1	7.193500
31.483333	1	7.324250
31.500000	1	7.422750
31.516667	1	7.487625
31.533333	1	7.518000
31.550000	1	7.514250
31.566667	1	7.476250
31.583333	1	7.404750
31.600000	1	7.300625
31.616667	1	7.166375
31.633333	1	7.003250
31.650000	1	6.814750
31.666667	1	6.602750
31.683333	1	6.371250
31.700000	1	6.121625
31.716667	1	5.859250
31.733333	1	5.586125
31.750000	1	5.305500
31.766667	1	5.020375
31.783333	1	4.733125
31.800000	1	4.446875
31.816667	1	4.163750
31.833333	1	3.885000
31.850000	1	3.614000
31.866667	1	3.352000
31.883333	1	3.100000
31.900000	1	2.859500
31.916667	1	2.630750
31.933333	1	2.414375
31.950000	1	2.210375
31.966667	1	2.019875
31.983333	1	1.842000
32.000000	1	1.676000
32.016667	1	1.522625
32.033333	1	1.380375
32.050000	1	1.250125
32.066667	1	1.130750
32.083333	1	1.022375
32.100000	1	0.923375
32.116667	1	0.832375
32.133333	1	0.750000
32.150000	1	0.676125
32.166667	1	0.608750
32.183333	1	0.548625
32.200000	1	0.493875
32.216667	1	0.444500
32.233333	1	0.400125
32.250000	1	0.360625
32.266667	1	0.324250
32.283333	1	0.292250
32.300000	1	0.263375
32.316667	1	0.237500
32.333333	1	0.213875
32.350000	1	0.192875
32.366667	1	0.174875
32.383333	1	0.159125
32.400000	1	0.144375
32.416667	1	0.131125
32.433333	1	0.119125
32.450000	1	0.109000
32.466667	1	0.100000
32.483333	1	0.092375
32.500000	1	0.085125
32.516667	1	0.078250
32.533333	1	0.073375
32.550000	1	0.068375
32.566667	1	0.064000
32.583333	1	0.060250
32.600000	1	0.057500
32.616667	1	0.055000
32.633333	1	0.052750
32.650000	1	0.050375
32.666667	1	0.048750
32.683333	1	0.047750
32.700000	1	0.047125
32.716667	1	0.046250
32.733333	1	0.045500
32.750000	1	0.044250
32.766667	1	0.043250
32.783333	1	0.042750
32.800000	1	0.043125
32.816667	1	0.042500
32.833333	1	0.042000
32.850000	1	0.041375
32.866667	1	0.041500
32.883333	1	0.040500
32.900000	1	0.040000
32.916667	1	0.040000
32.933333	1	0.039000
32.950000	1	0.038875
32.966667	1	0.038625
32.983333	1	0.038625
33.000000	1	0.038375
33.016667	1	0.037375
33.033333	1	0.037000
33.050000	1	0.036625
33.066667	1	0.036125
33.083333	1	0.036250
33.100000	1	0.036000
33.116667	1	0.036250
33.133333	1	0.036250
33.150000	1	0.036750
33.166667	1	0.037750
33.183333	1	0.039125
33.200000	1	0.039750
33.216667	1	0.040625
33.233333	1	0.042250
33.250000	1	0.043500
33.266667	1	0.044750
33.283333	1	0.046625
33.300000	1	0.047625
33.316667	1	0.048875
33.333333	1	0.051125
33.350000	1	0.053000
33.366667	1	0.055625
33.383333	1	0.058375
33.400000	1	0.061375
33.416667	1	0.063625
33.433333	1	0.066750
33.450000	1	0.069250
33.466667	1	0.071375
33.483333	1	0.073750
33.500000	1	0.076750
33.516667	1	0.079750
33.533333	1	0.083250
33.550000	1	0.086375
33.566667	1	0.089125
33.583333	1	0.091875
33.600000	1	0.094875
33.616667	1	0.097375
33.633333	1	0.099750
33.650000	1	0.102125
33.666667	1	0.104000
33.683333	1	0.106750
33.700000	1	0.108750
33.716667	1	0.111000
33.733333	1	0.113625
33.750000	1	0.115875
33.766667	1	0.118000
33.783333	1	0.119750
33.800000	1	0.122000
33.816667	1	0.122875
33.833333	1	0.124000
33.850000	1	0.124875
33.866667	1	0.126250
33.883333	1	0.126875
33.900000	1	0.127750
33.916667	1	0.127875
33.933333	1	0.129000
33.950000	1	0.128875
33.966667	1	0.129000
33.983333	1	0.128500
34.000000	1	0.128500
34.016667	1	0.127750
34.033333	1	0.127375
34.050000	1	0.126250
34.066667	1	0.125375
34.083333	1	0.123750
34.100000	1	0.123375
34.116667	1	0.122250
34.133333	1	0.121000
34.150000	1	0.119125
34.166667	1	0.118750
34.183333	1	0.117875
34.200000	1	0.116875
34.216667	1	0.115625
34.233333	1	0.114500
34.250000	1	0.113625
34.266667	1	0.112375
34.283333	1	0.111375
34.300000	1	0.110750
34.316667	1	0.110000
34.333333	1	0.109125
34.350000	1	0.108375
34.366667	1	0.107875
34.383333	1	0.107250
34.400000	1	0.107125
34.416667	1	0.107000
34.433333	1	0.107000
34.450000	1	0.106625
34.466667	1	0.106250
34.483333	1	0.106125
34.500000	1	0.106250
34.516667	1	0.105625
34.533333	1	0.105000
34.550000	1	0.105000
34.566667	1	0.105375
34.583333	1	0.105125
34.600000	1	0.105000
34.616667	1	0.104625
34.633333	1	0.104500
34.650000	1	0.103625
34.666667	1	0.103250
34.683333	1	0.102625
34.700000	1	0.102375
34.716667	1	0.102375
34.733333	1	0.101875
34.750000	1	0.101250
34.766667	1	0.100875
34.783333	1	0.100000
34.800000	1	0.099125
34.816667	1	0.098500
34.833333	1	0.098375
34.850000	1	0.096750
34.866667	1	0.095750
34.883333	1	0.095000
34.900000	1	0.094375
34.916667	1	0.093625
34.933333	1	0.093125
34.950000	1	0.092750
34.966667	1	0.092000
34.983333	1	0.092375
35.000000	1	0.091250
35.016667	1	0.090500
35.033333	1	0.089625
35.050000	1	0.088750
35.066667	1	0.088375
35.083333	1	0.088250
35.100000	1	0.088125
35.116667	1	0.088000
35.133333	1	0.088125
35.150000	1	0.088750
35.166667	1	0.088625
35.183333	1	0.088875
35.200000	1	0.089250
35.216667	1	0.089500
35.233333	1	0.089250
35.250000	1	0.090250
35.266667	1	0.090875
35.283333	1	0.091000
35.300000	1	0.090750
35.316667	1	0.091250
35.333333	1	0.091750
35.350000	1	0.091875
35.366667	1	0.092750
35.383333	1	0.093125
35.400000	1	0.093625
35.416667	1	0.093875
35.433333	1	0.094250
35.450000	1	0.094125
35.466667	1	0.094625
35.483333	1	0.095125
35.500000	1	0.095000
35.516667	1	0.094500
35.533333	1	0.094000
35.550000	1	0.093250
35.566667	1	0.092375
35.583333	1	0.092375
35.600000	1	0.091500
35.616667	1	0.090500
35.633333	1	0.089750
35.650000	1	0.088875
35.666667	1	0.087250
35.683333	1	0.086125
35.700000	1	0.085000
35.716667	1	0.083750
35.733333	1	0.082250
35.750000	1	0.080875
35.766667	1	0.079250
35.783333	1	0.077625
35.800000	1	0.076000
35.816667	1	0.074750
35.833333	1	0.073375
35.850000	1	0.072625
35.866667	1	0.071000
35.883333	1	0.069875
35.900000	1	0.069250
35.916667	1	0.068875
35.933333	1	0.068750
35.950000	1	0.068250
35.966667	1	0.068500
35.983333	1	0.069375
36.000000	1	0.069750
36.016667	1	0.070250
36.033333	1	0.070875
36.050000	1	0.072375
36.066667	1	0.073250
36.083333	1	0.074625
36.100000	1	0.076250
36.116667	1	0.078125
36.133333	1	0.080250
36.150000	1	0.082250
36.166667	1	0.084250
36.183333	1	0.086250
36.200000	1	0.089125
36.216667	1	0.091625
36.233333	1	0.093375
36.250000	1	0.095750
36.266667	1	0.098625
36.283333	1	0.100875
36.300000	1	0.103125
36.316667	1	0.105500
36.333333	1	0.107625
36.350000	1	0.109500
36.366667	1	0.111375
36.383333	1	0.112500
36.400000	1	0.114375
36.416667	1	0.116125
36.433333	1	0.116875
36.450000	1	0.117625
36.466667	1	0.118250
36.483333	1	0.119000
36.500000	1	0.119375
36.516667	1	0.120500
36.533333	1	0.120875
36.550000	1	0.121375
36.566667	1	0.121500
36.583333	1	0.121500
36.600000	1	0.120875
36.616667	1	0.120625
36.633333	1	0.119750
36.650000	1	0.119125
36.666667	1	0.118375
36.683333	1	0.117250
36.700000	1	0.115750
36.716667	1	0.113750
36.733333	1	0.112375
36.750000	1	0.111250
36.766667	1	0.109625
36.783333	1	0.108625
36.800000	1	0.107000
36.816667	1	0.105750
36.833333	1	0.104625
36.850000	1	0.103000
36.866667	1	0.101375
36.883333	1	0.099750
36.900000	1	0.097875
36.916667	1	0.096125
36.933333	1	0.094125
36.950000	1	0.092125
36.966667	1	0.090250
36.983333	1	0.088875
37.000000	1	0.087125
37.016667	1	0.085375
37.033333	1	0.083750
37.050000	1	0.082250
37.066667	1	0.080750
37.083333	1	0.080125
37.100000	1	0.079000
37.116667	1	0.077125
37.133333	1	0.076250
37.150000	1	0.074500
37.166667	1	0.072875
37.183333	1	0.071250
37.200000	1	0.069875
37.216667	1	0.068625
37.233333	1	0.066625
37.250000	1	0.065375
37.266667	1	0.063875
37.283333	1	0.062250
37.300000	1	0.061000
37.316667	1	0.060250
37.333333	1	0.059375
37.350000	1	0.058125
37.366667	1	0.056625
37.383333	1	0.055000
37.400000	1	0.054000
37.416667	1	0.053500
37.433333	1	0.052625
37.450000	1	0.051500
37.466667	1	0.051125
37.483333	1	0.051250
37.500000	1	0.051000
37.516667	1	0.049875
37.533333	1	0.049750
37.550000	1	0.048750
37.566667	1	0.047250
37.583333	1	0.046250
37.600000	1	0.045500
37.616667	1	0.044625
37.633333	1	0.043125
37.650000	1	0.041750
37.666667	1	0.041375
37.683333	1	0.040250
37.700000	1	0.039000
37.716667	1	0.037875
37.733333	1	0.037000
37.750000	1	0.036625
37.766667	1	0.035750
37.783333	1	0.034500
37.800000	1	0.033625
37.816667	1	0.031875
37.833333	1	0.030125
37.850000	1	0.029375
37.866667	1	0.028875
37.883333	1	0.028250
37.900000	1	0.027375
37.916667	1	0.026625
37.933333	1	0.026750
37.950000	1	0.025625
37.966667	1	0.024500
37.983333	1	0.024500
38.000000	1	0.024000
38.016667	1	0.023875
38.033333	1	0.023375
38.050000	1	0.023375
38.066667	1	0.023875
38.083333	1	0.025250
38.100000	1	0.026000
38.116667	1	0.027250
38.133333	1	0.028375
38.150000	1	0.029750
38.166667	1	0.030500
38.183333	1	0.031875
38.200000	1	0.033125
38.216667	1	0.034250
38.233333	1	0.036375
38.250000	1	0.037875
38.266667	1	0.039625
38.283333	1	0.042000
38.300000	1	0.043875
38.316667	1	0.045125
38.333333	1	0.047250
38.350000	1	0.049125
38.366667	1	0.051250
38.383333	1	0.053125
38.400000	1	0.054500
38.416667	1	0.055500
38.433333	1	0.056750
38.450000	1	0.057750
38.466667	1	0.058875
38.483333	1	0.059000
38.500000	1	0.060250
38.516667	1	0.061000
38.533333	1	0.061125
38.550000	1	0.061000
38.566667	1	0.060875
38.583333	1	0.060875
38.600000	1	0.060000
38.616667	1	0.060125
38.633333	1	0.059875
38.650000	1	0.059625
38.666667	1	0.059750
38.683333	1	0.059500
38.700000	1	0.059000
38.716667	1	0.058375
38.733333	1	0.058000
38.750000	1	0.057375
38.766667	1	0.057000
38.783333	1	0.056375
38.800000	1	0.055875
38.816667	1	0.055875
38.833333	1	0.056500
38.850000	1	0.056750
38.866667	1	0.056625
38.883333	1	0.057500
38.900000	1	0.058000
38.916667	1	0.058250
38.933333	1	0.059125
38.950000	1	0.059625
38.966667	1	0.060375
38.983333	1	0.061125
39.000000	1	0.061750
39.016667	1	0.062375
39.033333	1	0.062750
39.050000	1	0.063250
39.066667	1	0.063875
39.083333	1	0.064500
39.100000	1	0.064500
39.116667	1	0.064750
39.133333	1	0.064625
39.150000	1	0.065375
39.166667	1	0.065125
39.183333	1	0.065000
39.200000	1	0.065000
39.216667	1	0.064000
39.233333	1	0.063750
39.250000	1	0.063625
39.266667	1	0.062875
39.283333	1	0.062250
39.300000	1	0.060875
39.316667	1	0.060625
39.333333	1	0.059625
39.350000	1	0.058500
39.366667	1	0.057250
39.383333	1	0.056375
39.400000	1	0.055500
39.416667	1	0.054250
39.433333	1	0.053125
39.450000	1	0.052500
39.466667	1	0.051625
39.483333	1	0.050750
39.500000	1	0.050250
39.516667	1	0.050500
39.533333	1	0.050375
39.550000	1	0.049750
39.566667	1	0.049375
39.583333	1	0.049750
39.600000	1	0.049125
39.616667	1	0.048875
39.633333	1	0.048375
39.650000	1	0.048125
39.666667	1	0.048750
39.683333	1	0.048500
39.700000	1	0.048875
39.716667	1	0.049250
39.733333	1	0.049375
39.750000	1	0.049375
39.766667	1	0.049625
39.783333	1	0.049125
39.800000	1	0.049500
39.816667	1	0.049625
39.833333	1	0.049875
39.850000	1	0.050125
39.866667	1	0.051250
39.883333	1	0.051750
39.900000	1	0.051750
39.916667	1	0.051500
39.933333	1	0.051125
39.950000	1	0.051250
39.966667	1	0.051125
39.983333	1	0.051625
40.000000	1	0.051875
