URL	chrom://bioreactor/micro_cm7/HPLC_Ultimate_3000/Users/markusar/20240716_MA_pHrange2.seq/872.smp/RI_1.channel/RI_1.chm
Channel	RI_1

Injection Information:
Data Vault	micro_cm7
Sequence	20240716_MA_pHrange2
Name	Pv1_40H_2
Number	15
Position	BB3
Comment	
Processing Method	
Instrument Method	run_25B_method
Type	Unknown
Status	Finished
Inject Time	17.07.2024 03:40:04 +02:00
Volume (µl)	20.0000
Dilution Factor	1.0000
Weight	1.0000

Chromatogram Data Information:
Time Min. (min)	0.000000
Time Max. (min)	40.000000
Data Points	2401
Detector	RI
Generating Data System	Chromeleon 7.3.2.11814
Exporting Data System	Chromeleon 7.3.2.0
Operator	Instrument Controller
Signal Quantity	Refractive 
Signal Unit	µRIU
Signal Min.	-0.213500
Signal Max.	105.419625
Channel	RI_1
Driver Name	RID520Driver.dll
Channel Type	Evaluation
Min. Step (s)	1
Max. Step (s)	1
Average Step (s)	1

Signal Parameter Information:
Signal Info	

Chromatogram Data:
Time (min)	Step (s)	Value (µRIU)
0.000000	n.a.	0.007375
0.016667	1	0.006750
0.033333	1	0.005875
0.050000	1	0.005125
0.066667	1	0.004875
0.083333	1	0.004500
0.100000	1	0.003875
0.116667	1	0.003250
0.133333	1	0.003250
0.150000	1	0.003125
0.166667	1	0.002375
0.183333	1	0.002250
0.200000	1	0.002125
0.216667	1	0.001875
0.233333	1	0.002125
0.250000	1	0.002125
0.266667	1	0.002625
0.283333	1	0.002875
0.300000	1	0.003875
0.316667	1	0.004250
0.333333	1	0.004375
0.350000	1	0.004125
0.366667	1	0.004500
0.383333	1	0.004375
0.400000	1	0.004375
0.416667	1	0.005000
0.433333	1	0.007000
0.450000	1	0.008750
0.466667	1	0.011500
0.483333	1	0.014375
0.500000	1	0.016250
0.516667	1	0.018375
0.533333	1	0.020250
0.550000	1	0.021250
0.566667	1	0.021375
0.583333	1	0.021250
0.600000	1	0.021375
0.616667	1	0.022125
0.633333	1	0.023125
0.650000	1	0.024000
0.666667	1	0.025625
0.683333	1	0.027125
0.700000	1	0.029125
0.716667	1	0.030500
0.733333	1	0.031500
0.750000	1	0.033250
0.766667	1	0.034500
0.783333	1	0.036250
0.800000	1	0.037125
0.816667	1	0.038125
0.833333	1	0.039500
0.850000	1	0.041625
0.866667	1	0.042000
0.883333	1	0.042625
0.900000	1	0.043875
0.916667	1	0.044875
0.933333	1	0.045125
0.950000	1	0.045000
0.966667	1	0.045000
0.983333	1	0.045125
1.000000	1	0.044875
1.016667	1	0.044375
1.033333	1	0.043750
1.050000	1	0.043375
1.066667	1	0.042125
1.083333	1	0.041250
1.100000	1	0.040875
1.116667	1	0.040000
1.133333	1	0.038750
1.150000	1	0.037875
1.166667	1	0.037000
1.183333	1	0.035500
1.200000	1	0.034375
1.216667	1	0.033250
1.233333	1	0.032375
1.250000	1	0.030500
1.266667	1	0.029625
1.283333	1	0.028250
1.300000	1	0.026750
1.316667	1	0.025375
1.333333	1	0.024375
1.350000	1	0.022500
1.366667	1	0.020625
1.383333	1	0.019125
1.400000	1	0.017625
1.416667	1	0.016125
1.433333	1	0.014375
1.450000	1	0.013000
1.466667	1	0.011500
1.483333	1	0.010750
1.500000	1	0.008875
1.516667	1	0.007875
1.533333	1	0.006500
1.550000	1	0.005125
1.566667	1	0.003375
1.583333	1	0.002375
1.600000	1	0.001000
1.616667	1	-0.000750
1.633333	1	-0.001875
1.650000	1	-0.002625
1.666667	1	-0.003375
1.683333	1	-0.004125
1.700000	1	-0.004875
1.716667	1	-0.005500
1.733333	1	-0.006000
1.750000	1	-0.006625
1.766667	1	-0.007375
1.783333	1	-0.008125
1.800000	1	-0.008125
1.816667	1	-0.007750
1.833333	1	-0.007000
1.850000	1	-0.007250
1.866667	1	-0.007125
1.883333	1	-0.006375
1.900000	1	-0.006000
1.916667	1	-0.005500
1.933333	1	-0.005250
1.950000	1	-0.003875
1.966667	1	-0.003375
1.983333	1	-0.003125
2.000000	1	-0.002000
2.016667	1	-0.001000
2.033333	1	0.000000
2.050000	1	0.000875
2.066667	1	0.001125
2.083333	1	0.001750
2.100000	1	0.003250
2.116667	1	0.004500
2.133333	1	0.005625
2.150000	1	0.006875
2.166667	1	0.008375
2.183333	1	0.009375
2.200000	1	0.010750
2.216667	1	0.011125
2.233333	1	0.011625
2.250000	1	0.013750
2.266667	1	0.014000
2.283333	1	0.015375
2.300000	1	0.015875
2.316667	1	0.016625
2.333333	1	0.017000
2.350000	1	0.018000
2.366667	1	0.018750
2.383333	1	0.018625
2.400000	1	0.019500
2.416667	1	0.020375
2.433333	1	0.021125
2.450000	1	0.021875
2.466667	1	0.023000
2.483333	1	0.024125
2.500000	1	0.024875
2.516667	1	0.025250
2.533333	1	0.025375
2.550000	1	0.025875
2.566667	1	0.026500
2.583333	1	0.027125
2.600000	1	0.027750
2.616667	1	0.028250
2.633333	1	0.028750
2.650000	1	0.029875
2.666667	1	0.031000
2.683333	1	0.032000
2.700000	1	0.033125
2.716667	1	0.033625
2.733333	1	0.033500
2.750000	1	0.033500
2.766667	1	0.034375
2.783333	1	0.035125
2.800000	1	0.035750
2.816667	1	0.035875
2.833333	1	0.036125
2.850000	1	0.036500
2.866667	1	0.037125
2.883333	1	0.037125
2.900000	1	0.037000
2.916667	1	0.037250
2.933333	1	0.037000
2.950000	1	0.036875
2.966667	1	0.036875
2.983333	1	0.037625
3.000000	1	0.038125
3.016667	1	0.037875
3.033333	1	0.037375
3.050000	1	0.037125
3.066667	1	0.037375
3.083333	1	0.038000
3.100000	1	0.038500
3.116667	1	0.039125
3.133333	1	0.039875
3.150000	1	0.040625
3.166667	1	0.041125
3.183333	1	0.041375
3.200000	1	0.042375
3.216667	1	0.043625
3.233333	1	0.045250
3.250000	1	0.045750
3.266667	1	0.047125
3.283333	1	0.048750
3.300000	1	0.050500
3.316667	1	0.052250
3.333333	1	0.053875
3.350000	1	0.056125
3.366667	1	0.057625
3.383333	1	0.059125
3.400000	1	0.061000
3.416667	1	0.062375
3.433333	1	0.064000
3.450000	1	0.065625
3.466667	1	0.066750
3.483333	1	0.067750
3.500000	1	0.068750
3.516667	1	0.069125
3.533333	1	0.069875
3.550000	1	0.069500
3.566667	1	0.069500
3.583333	1	0.069875
3.600000	1	0.069625
3.616667	1	0.069875
3.633333	1	0.069250
3.650000	1	0.068250
3.666667	1	0.067750
3.683333	1	0.066625
3.700000	1	0.065625
3.716667	1	0.064250
3.733333	1	0.062625
3.750000	1	0.061250
3.766667	1	0.059250
3.783333	1	0.057125
3.800000	1	0.055375
3.816667	1	0.053375
3.833333	1	0.051125
3.850000	1	0.049000
3.866667	1	0.047375
3.883333	1	0.045875
3.900000	1	0.044500
3.916667	1	0.043750
3.933333	1	0.042375
3.950000	1	0.040375
3.966667	1	0.039000
3.983333	1	0.038250
4.000000	1	0.037000
4.016667	1	0.036625
4.033333	1	0.035750
4.050000	1	0.035250
4.066667	1	0.035500
4.083333	1	0.036125
4.100000	1	0.036500
4.116667	1	0.037000
4.133333	1	0.037125
4.150000	1	0.038000
4.166667	1	0.039750
4.183333	1	0.041375
4.200000	1	0.043500
4.216667	1	0.046000
4.233333	1	0.048625
4.250000	1	0.051250
4.266667	1	0.053875
4.283333	1	0.056875
4.300000	1	0.060125
4.316667	1	0.062250
4.333333	1	0.065500
4.350000	1	0.069250
4.366667	1	0.072625
4.383333	1	0.076375
4.400000	1	0.079750
4.416667	1	0.083500
4.433333	1	0.087750
4.450000	1	0.091625
4.466667	1	0.095000
4.483333	1	0.098250
4.500000	1	0.102000
4.516667	1	0.105125
4.533333	1	0.109000
4.550000	1	0.112125
4.566667	1	0.116250
4.583333	1	0.119875
4.600000	1	0.123875
4.616667	1	0.127125
4.633333	1	0.130875
4.650000	1	0.134375
4.666667	1	0.137500
4.683333	1	0.140750
4.700000	1	0.144125
4.716667	1	0.148125
4.733333	1	0.152000
4.750000	1	0.155125
4.766667	1	0.158875
4.783333	1	0.162250
4.800000	1	0.166000
4.816667	1	0.169250
4.833333	1	0.172375
4.850000	1	0.176000
4.866667	1	0.178875
4.883333	1	0.182625
4.900000	1	0.185500
4.916667	1	0.188625
4.933333	1	0.192250
4.950000	1	0.195625
4.966667	1	0.198625
4.983333	1	0.202125
5.000000	1	0.205500
5.016667	1	0.208750
5.033333	1	0.211875
5.050000	1	0.214500
5.066667	1	0.217375
5.083333	1	0.220875
5.100000	1	0.223500
5.116667	1	0.226000
5.133333	1	0.228500
5.150000	1	0.231875
5.166667	1	0.234000
5.183333	1	0.236875
5.200000	1	0.238750
5.216667	1	0.240750
5.233333	1	0.243625
5.250000	1	0.245250
5.266667	1	0.246750
5.283333	1	0.248250
5.300000	1	0.249875
5.316667	1	0.250875
5.333333	1	0.252250
5.350000	1	0.253000
5.366667	1	0.253625
5.383333	1	0.254250
5.400000	1	0.254125
5.416667	1	0.253250
5.433333	1	0.252375
5.450000	1	0.251875
5.466667	1	0.250375
5.483333	1	0.249000
5.500000	1	0.247000
5.516667	1	0.244625
5.533333	1	0.242250
5.550000	1	0.239625
5.566667	1	0.237250
5.583333	1	0.234375
5.600000	1	0.230500
5.616667	1	0.227375
5.633333	1	0.223000
5.650000	1	0.219250
5.666667	1	0.215125
5.683333	1	0.210875
5.700000	1	0.206625
5.716667	1	0.202000
5.733333	1	0.197375
5.750000	1	0.192750
5.766667	1	0.188500
5.783333	1	0.184125
5.800000	1	0.180250
5.816667	1	0.176875
5.833333	1	0.173000
5.850000	1	0.168750
5.866667	1	0.164500
5.883333	1	0.160375
5.900000	1	0.156375
5.916667	1	0.152625
5.933333	1	0.148625
5.950000	1	0.145375
5.966667	1	0.143000
5.983333	1	0.140125
6.000000	1	0.136625
6.016667	1	0.134375
6.033333	1	0.132250
6.050000	1	0.129875
6.066667	1	0.126625
6.083333	1	0.124500
6.100000	1	0.121875
6.116667	1	0.118875
6.133333	1	0.116750
6.150000	1	0.114375
6.166667	1	0.112375
6.183333	1	0.110000
6.200000	1	0.108375
6.216667	1	0.106125
6.233333	1	0.104000
6.250000	1	0.102000
6.266667	1	0.100625
6.283333	1	0.098500
6.300000	1	0.096875
6.316667	1	0.095125
6.333333	1	0.093375
6.350000	1	0.091625
6.366667	1	0.090250
6.383333	1	0.088500
6.400000	1	0.086750
6.416667	1	0.085250
6.433333	1	0.084000
6.450000	1	0.082375
6.466667	1	0.080875
6.483333	1	0.079375
6.500000	1	0.077375
6.516667	1	0.076000
6.533333	1	0.075500
6.550000	1	0.074625
6.566667	1	0.073750
6.583333	1	0.073500
6.600000	1	0.072625
6.616667	1	0.071875
6.633333	1	0.071500
6.650000	1	0.071250
6.666667	1	0.071250
6.683333	1	0.071250
6.700000	1	0.071625
6.716667	1	0.072625
6.733333	1	0.073000
6.750000	1	0.074125
6.766667	1	0.074875
6.783333	1	0.076250
6.800000	1	0.077625
6.816667	1	0.079250
6.833333	1	0.081375
6.850000	1	0.083375
6.866667	1	0.085875
6.883333	1	0.088125
6.900000	1	0.090125
6.916667	1	0.092375
6.933333	1	0.095625
6.950000	1	0.098000
6.966667	1	0.101125
6.983333	1	0.103250
7.000000	1	0.106375
7.016667	1	0.109125
7.033333	1	0.111750
7.050000	1	0.113750
7.066667	1	0.116375
7.083333	1	0.119000
7.100000	1	0.121125
7.116667	1	0.123375
7.133333	1	0.125375
7.150000	1	0.126875
7.166667	1	0.129500
7.183333	1	0.131000
7.200000	1	0.132125
7.216667	1	0.133875
7.233333	1	0.135250
7.250000	1	0.135625
7.266667	1	0.135500
7.283333	1	0.135250
7.300000	1	0.134875
7.316667	1	0.134625
7.333333	1	0.134000
7.350000	1	0.132875
7.366667	1	0.131750
7.383333	1	0.129875
7.400000	1	0.127750
7.416667	1	0.126000
7.433333	1	0.123625
7.450000	1	0.121125
7.466667	1	0.117750
7.483333	1	0.114750
7.500000	1	0.111625
7.516667	1	0.108375
7.533333	1	0.105750
7.550000	1	0.101875
7.566667	1	0.098625
7.583333	1	0.094875
7.600000	1	0.090750
7.616667	1	0.086875
7.633333	1	0.082625
7.650000	1	0.079250
7.666667	1	0.075375
7.683333	1	0.071125
7.700000	1	0.067500
7.716667	1	0.063750
7.733333	1	0.060000
7.750000	1	0.056500
7.766667	1	0.053125
7.783333	1	0.049875
7.800000	1	0.046375
7.816667	1	0.042625
7.833333	1	0.038875
7.850000	1	0.036000
7.866667	1	0.032750
7.883333	1	0.029500
7.900000	1	0.027000
7.916667	1	0.025000
7.933333	1	0.022500
7.950000	1	0.020000
7.966667	1	0.016875
7.983333	1	0.014250
8.000000	1	0.012000
8.016667	1	0.010125
8.033333	1	0.008000
8.050000	1	0.005750
8.066667	1	0.003375
8.083333	1	0.001250
8.100000	1	-0.001125
8.116667	1	-0.002875
8.133333	1	-0.003625
8.150000	1	-0.005500
8.166667	1	-0.007625
8.183333	1	-0.008875
8.200000	1	-0.010625
8.216667	1	-0.012125
8.233333	1	-0.012875
8.250000	1	-0.014125
8.266667	1	-0.014625
8.283333	1	-0.015750
8.300000	1	-0.016500
8.316667	1	-0.016625
8.333333	1	-0.016375
8.350000	1	-0.016750
8.366667	1	-0.016375
8.383333	1	-0.016000
8.400000	1	-0.016375
8.416667	1	-0.016000
8.433333	1	-0.016250
8.450000	1	-0.015625
8.466667	1	-0.015375
8.483333	1	-0.014500
8.500000	1	-0.013375
8.516667	1	-0.012625
8.533333	1	-0.012125
8.550000	1	-0.011750
8.566667	1	-0.010750
8.583333	1	-0.009500
8.600000	1	-0.007500
8.616667	1	-0.006000
8.633333	1	-0.005000
8.650000	1	-0.003125
8.666667	1	-0.001750
8.683333	1	0.000000
8.700000	1	0.001125
8.716667	1	0.002625
8.733333	1	0.004250
8.750000	1	0.005875
8.766667	1	0.007625
8.783333	1	0.008875
8.800000	1	0.010125
8.816667	1	0.012125
8.833333	1	0.013750
8.850000	1	0.014875
8.866667	1	0.015750
8.883333	1	0.017000
8.900000	1	0.017875
8.916667	1	0.019250
8.933333	1	0.020000
8.950000	1	0.020875
8.966667	1	0.021125
8.983333	1	0.022250
9.000000	1	0.023375
9.016667	1	0.023375
9.033333	1	0.024250
9.050000	1	0.024000
9.066667	1	0.024375
9.083333	1	0.024000
9.100000	1	0.024125
9.116667	1	0.024625
9.133333	1	0.025000
9.150000	1	0.025125
9.166667	1	0.025500
9.183333	1	0.024875
9.200000	1	0.025250
9.216667	1	0.025000
9.233333	1	0.024625
9.250000	1	0.024625
9.266667	1	0.023750
9.283333	1	0.023750
9.300000	1	0.023000
9.316667	1	0.022250
9.333333	1	0.021750
9.350000	1	0.021250
9.366667	1	0.021125
9.383333	1	0.021125
9.400000	1	0.020750
9.416667	1	0.020625
9.433333	1	0.020000
9.450000	1	0.019375
9.466667	1	0.017750
9.483333	1	0.017500
9.500000	1	0.017125
9.516667	1	0.017125
9.533333	1	0.017250
9.550000	1	0.016625
9.566667	1	0.016750
9.583333	1	0.015875
9.600000	1	0.015750
9.616667	1	0.016000
9.633333	1	0.016500
9.650000	1	0.017250
9.666667	1	0.017500
9.683333	1	0.017375
9.700000	1	0.018250
9.716667	1	0.019125
9.733333	1	0.019875
9.750000	1	0.020750
9.766667	1	0.022375
9.783333	1	0.023750
9.800000	1	0.025125
9.816667	1	0.025625
9.833333	1	0.026875
9.850000	1	0.027375
9.866667	1	0.028375
9.883333	1	0.029625
9.900000	1	0.030625
9.916667	1	0.031625
9.933333	1	0.032500
9.950000	1	0.033000
9.966667	1	0.033625
9.983333	1	0.033750
10.000000	1	0.033375
10.016667	1	0.033000
10.033333	1	0.033125
10.050000	1	0.032500
10.066667	1	0.032125
10.083333	1	0.032250
10.100000	1	0.032625
10.116667	1	0.033125
10.133333	1	0.033875
10.150000	1	0.035875
10.166667	1	0.038625
10.183333	1	0.042125
10.200000	1	0.047125
10.216667	1	0.053625
10.233333	1	0.060625
10.250000	1	0.069875
10.266667	1	0.080375
10.283333	1	0.092750
10.300000	1	0.106875
10.316667	1	0.122750
10.333333	1	0.138375
10.350000	1	0.153125
10.366667	1	0.165500
10.383333	1	0.170625
10.400000	1	0.164500
10.416667	1	0.141500
10.433333	1	0.097125
10.450000	1	0.030000
10.466667	1	-0.054750
10.483333	1	-0.143625
10.500000	1	-0.209500
10.516667	1	-0.213500
10.533333	1	-0.102125
10.550000	1	0.188375
10.566667	1	0.728625
10.583333	1	1.590125
10.600000	1	2.838750
10.616667	1	4.533375
10.633333	1	6.719625
10.650000	1	9.427375
10.666667	1	12.682625
10.683333	1	16.496125
10.700000	1	20.873250
10.716667	1	25.804875
10.733333	1	31.273375
10.750000	1	37.253625
10.766667	1	43.702750
10.783333	1	50.580250
10.800000	1	57.834250
10.816667	1	65.391750
10.833333	1	73.141875
10.850000	1	80.919500
10.866667	1	88.473375
10.883333	1	95.398625
10.900000	1	101.087250
10.916667	1	104.724500
10.933333	1	105.419625
10.950000	1	102.494375
10.966667	1	95.834625
10.983333	1	86.049500
11.000000	1	74.318875
11.016667	1	62.019750
11.033333	1	50.332125
11.050000	1	39.995875
11.066667	1	31.315250
11.083333	1	24.297125
11.100000	1	18.775875
11.116667	1	14.518000
11.133333	1	11.284000
11.150000	1	8.852625
11.166667	1	7.036125
11.183333	1	5.682625
11.200000	1	4.673375
11.216667	1	3.917000
11.233333	1	3.345000
11.250000	1	2.909000
11.266667	1	2.572375
11.283333	1	2.308500
11.300000	1	2.098500
11.316667	1	1.929125
11.333333	1	1.790250
11.350000	1	1.675500
11.366667	1	1.578625
11.383333	1	1.497125
11.400000	1	1.428875
11.416667	1	1.370000
11.433333	1	1.319375
11.450000	1	1.275625
11.466667	1	1.238750
11.483333	1	1.206875
11.500000	1	1.179250
11.516667	1	1.156125
11.533333	1	1.136625
11.550000	1	1.120250
11.566667	1	1.104875
11.583333	1	1.091875
11.600000	1	1.081250
11.616667	1	1.073250
11.633333	1	1.065625
11.650000	1	1.059875
11.666667	1	1.054625
11.683333	1	1.051125
11.700000	1	1.049000
11.716667	1	1.049125
11.733333	1	1.050250
11.750000	1	1.052250
11.766667	1	1.055750
11.783333	1	1.059500
11.800000	1	1.064000
11.816667	1	1.068250
11.833333	1	1.073875
11.850000	1	1.080000
11.866667	1	1.086250
11.883333	1	1.092375
11.900000	1	1.097250
11.916667	1	1.101500
11.933333	1	1.104875
11.950000	1	1.106625
11.966667	1	1.108125
11.983333	1	1.108625
12.000000	1	1.108375
12.016667	1	1.107750
12.033333	1	1.106500
12.050000	1	1.105125
12.066667	1	1.104000
12.083333	1	1.103000
12.100000	1	1.102000
12.116667	1	1.101875
12.133333	1	1.101875
12.150000	1	1.102500
12.166667	1	1.103750
12.183333	1	1.106250
12.200000	1	1.109000
12.216667	1	1.112875
12.233333	1	1.116750
12.250000	1	1.122875
12.266667	1	1.130875
12.283333	1	1.140875
12.300000	1	1.154500
12.316667	1	1.171750
12.333333	1	1.194250
12.350000	1	1.224125
12.366667	1	1.263625
12.383333	1	1.315750
12.400000	1	1.384125
12.416667	1	1.472375
12.433333	1	1.584375
12.450000	1	1.726500
12.466667	1	1.903750
12.483333	1	2.121500
12.500000	1	2.383875
12.516667	1	2.696500
12.533333	1	3.062125
12.550000	1	3.482625
12.566667	1	3.959750
12.583333	1	4.490625
12.600000	1	5.071625
12.616667	1	5.696000
12.633333	1	6.353500
12.650000	1	7.033625
12.666667	1	7.726250
12.683333	1	8.415875
12.700000	1	9.093375
12.716667	1	9.746750
12.733333	1	10.368750
12.750000	1	10.955375
12.766667	1	11.508500
12.783333	1	12.033250
12.800000	1	12.534625
12.816667	1	13.022000
12.833333	1	13.506000
12.850000	1	13.996625
12.866667	1	14.502000
12.883333	1	15.030375
12.900000	1	15.586750
12.916667	1	16.173625
12.933333	1	16.792625
12.950000	1	17.444500
12.966667	1	18.129125
12.983333	1	18.844375
13.000000	1	19.588125
13.016667	1	20.358500
13.033333	1	21.154125
13.050000	1	21.975250
13.066667	1	22.820875
13.083333	1	23.687500
13.100000	1	24.576625
13.116667	1	25.487000
13.133333	1	26.417625
13.150000	1	27.366875
13.166667	1	28.336125
13.183333	1	29.324625
13.200000	1	30.330500
13.216667	1	31.354250
13.233333	1	32.396000
13.250000	1	33.458375
13.266667	1	34.541125
13.283333	1	35.644875
13.300000	1	36.768375
13.316667	1	37.914250
13.333333	1	39.080750
13.350000	1	40.268875
13.366667	1	41.478750
13.383333	1	42.712125
13.400000	1	43.967000
13.416667	1	45.245750
13.433333	1	46.549625
13.450000	1	47.880250
13.466667	1	49.238000
13.483333	1	50.624875
13.500000	1	52.038625
13.516667	1	53.482125
13.533333	1	54.955625
13.550000	1	56.457375
13.566667	1	57.989625
13.583333	1	59.551625
13.600000	1	61.143125
13.616667	1	62.764375
13.633333	1	64.419500
13.650000	1	66.109125
13.666667	1	67.835250
13.683333	1	69.598125
13.700000	1	71.397750
13.716667	1	73.233125
13.733333	1	75.103625
13.750000	1	76.999375
13.766667	1	78.882125
13.783333	1	80.642250
13.800000	1	82.084500
13.816667	1	82.954500
13.833333	1	82.989625
13.850000	1	81.948000
13.866667	1	79.596125
13.883333	1	75.690750
13.900000	1	70.044500
13.916667	1	62.695125
13.933333	1	54.072250
13.950000	1	44.971125
13.966667	1	36.288000
13.983333	1	28.703000
14.000000	1	22.509000
14.016667	1	17.664125
14.033333	1	13.969250
14.050000	1	11.188125
14.066667	1	9.113875
14.083333	1	7.580250
14.100000	1	6.452875
14.116667	1	5.626750
14.133333	1	5.018375
14.150000	1	4.566250
14.166667	1	4.226625
14.183333	1	3.966000
14.200000	1	3.761500
14.216667	1	3.597500
14.233333	1	3.462375
14.250000	1	3.348125
14.266667	1	3.250125
14.283333	1	3.165000
14.300000	1	3.089375
14.316667	1	3.021750
14.333333	1	2.960625
14.350000	1	2.905750
14.366667	1	2.855250
14.383333	1	2.811000
14.400000	1	2.774625
14.416667	1	2.745500
14.433333	1	2.726375
14.450000	1	2.718500
14.466667	1	2.726875
14.483333	1	2.756750
14.500000	1	2.815375
14.516667	1	2.913125
14.533333	1	3.063750
14.550000	1	3.284250
14.566667	1	3.599375
14.583333	1	4.037625
14.600000	1	4.635750
14.616667	1	5.437625
14.633333	1	6.496500
14.650000	1	7.872500
14.666667	1	9.627625
14.683333	1	11.825875
14.700000	1	14.522750
14.716667	1	17.759625
14.733333	1	21.564625
14.750000	1	25.938875
14.766667	1	30.846625
14.783333	1	36.206250
14.800000	1	41.901875
14.816667	1	47.775875
14.833333	1	53.632375
14.850000	1	59.242125
14.866667	1	64.357000
14.883333	1	68.736250
14.900000	1	72.159625
14.916667	1	74.450750
14.933333	1	75.491625
14.950000	1	75.233625
14.966667	1	73.702125
14.983333	1	70.997375
15.000000	1	67.277250
15.016667	1	62.742000
15.033333	1	57.616625
15.050000	1	52.139000
15.066667	1	46.539375
15.083333	1	41.016750
15.100000	1	35.738125
15.116667	1	30.827125
15.133333	1	26.365750
15.150000	1	22.397375
15.166667	1	18.930125
15.183333	1	15.950250
15.200000	1	13.421875
15.216667	1	11.301125
15.233333	1	9.539500
15.250000	1	8.087375
15.266667	1	6.899625
15.283333	1	5.933375
15.300000	1	5.151625
15.316667	1	4.522875
15.333333	1	4.018625
15.350000	1	3.617125
15.366667	1	3.297500
15.383333	1	3.045375
15.400000	1	2.847875
15.416667	1	2.695000
15.433333	1	2.578250
15.450000	1	2.490625
15.466667	1	2.426000
15.483333	1	2.379625
15.500000	1	2.346125
15.516667	1	2.321000
15.533333	1	2.301375
15.550000	1	2.284500
15.566667	1	2.265750
15.583333	1	2.245375
15.600000	1	2.220875
15.616667	1	2.192625
15.633333	1	2.159625
15.650000	1	2.122875
15.666667	1	2.083375
15.683333	1	2.041625
15.700000	1	1.999750
15.716667	1	1.957875
15.733333	1	1.917375
15.750000	1	1.879000
15.766667	1	1.842250
15.783333	1	1.807250
15.800000	1	1.773750
15.816667	1	1.742375
15.833333	1	1.711250
15.850000	1	1.680750
15.866667	1	1.650625
15.883333	1	1.621250
15.900000	1	1.592500
15.916667	1	1.564750
15.933333	1	1.538500
15.950000	1	1.513625
15.966667	1	1.490625
15.983333	1	1.470750
16.000000	1	1.453500
16.016667	1	1.439750
16.033333	1	1.428500
16.050000	1	1.419750
16.066667	1	1.413125
16.083333	1	1.408500
16.100000	1	1.405250
16.116667	1	1.403500
16.133333	1	1.401125
16.150000	1	1.398500
16.166667	1	1.395375
16.183333	1	1.391500
16.200000	1	1.386375
16.216667	1	1.379750
16.233333	1	1.370500
16.250000	1	1.360000
16.266667	1	1.347750
16.283333	1	1.335125
16.300000	1	1.320000
16.316667	1	1.305750
16.333333	1	1.289750
16.350000	1	1.274125
16.366667	1	1.258250
16.383333	1	1.242750
16.400000	1	1.228500
16.416667	1	1.215500
16.433333	1	1.202000
16.450000	1	1.189750
16.466667	1	1.179625
16.483333	1	1.171750
16.500000	1	1.165125
16.516667	1	1.160625
16.533333	1	1.158625
16.550000	1	1.158000
16.566667	1	1.160375
16.583333	1	1.164000
16.600000	1	1.168750
16.616667	1	1.175000
16.633333	1	1.181125
16.650000	1	1.187000
16.666667	1	1.192375
16.683333	1	1.196875
16.700000	1	1.201125
16.716667	1	1.203625
16.733333	1	1.205625
16.750000	1	1.206750
16.766667	1	1.207625
16.783333	1	1.208125
16.800000	1	1.208000
16.816667	1	1.208625
16.833333	1	1.209250
16.850000	1	1.210875
16.866667	1	1.211875
16.883333	1	1.214000
16.900000	1	1.215750
16.916667	1	1.217625
16.933333	1	1.219125
16.950000	1	1.219500
16.966667	1	1.219750
16.983333	1	1.218875
17.000000	1	1.217375
17.016667	1	1.214250
17.033333	1	1.211000
17.050000	1	1.206750
17.066667	1	1.201000
17.083333	1	1.193875
17.100000	1	1.188375
17.116667	1	1.182250
17.133333	1	1.176625
17.150000	1	1.172000
17.166667	1	1.167000
17.183333	1	1.163750
17.200000	1	1.161375
17.216667	1	1.159750
17.233333	1	1.159125
17.250000	1	1.158375
17.266667	1	1.157875
17.283333	1	1.158250
17.300000	1	1.159125
17.316667	1	1.160375
17.333333	1	1.163000
17.350000	1	1.165625
17.366667	1	1.167750
17.383333	1	1.170125
17.400000	1	1.172500
17.416667	1	1.175250
17.433333	1	1.176750
17.450000	1	1.178250
17.466667	1	1.178750
17.483333	1	1.178875
17.500000	1	1.178000
17.516667	1	1.175625
17.533333	1	1.172250
17.550000	1	1.167000
17.566667	1	1.160125
17.583333	1	1.151625
17.600000	1	1.142750
17.616667	1	1.133000
17.633333	1	1.120750
17.650000	1	1.108125
17.666667	1	1.093875
17.683333	1	1.079750
17.700000	1	1.065000
17.716667	1	1.050500
17.733333	1	1.035625
17.750000	1	1.020750
17.766667	1	1.006000
17.783333	1	0.993000
17.800000	1	0.980250
17.816667	1	0.967375
17.833333	1	0.956125
17.850000	1	0.944875
17.866667	1	0.934750
17.883333	1	0.925125
17.900000	1	0.915875
17.916667	1	0.907500
17.933333	1	0.899500
17.950000	1	0.892625
17.966667	1	0.886125
17.983333	1	0.880000
18.000000	1	0.874750
18.016667	1	0.868875
18.033333	1	0.863875
18.050000	1	0.858875
18.066667	1	0.853250
18.083333	1	0.847750
18.100000	1	0.841750
18.116667	1	0.835875
18.133333	1	0.830500
18.150000	1	0.825125
18.166667	1	0.820375
18.183333	1	0.816125
18.200000	1	0.812250
18.216667	1	0.809250
18.233333	1	0.805875
18.250000	1	0.803750
18.266667	1	0.802000
18.283333	1	0.801500
18.300000	1	0.801125
18.316667	1	0.801125
18.333333	1	0.802250
18.350000	1	0.803500
18.366667	1	0.805250
18.383333	1	0.807750
18.400000	1	0.810500
18.416667	1	0.814125
18.433333	1	0.818250
18.450000	1	0.822250
18.466667	1	0.826875
18.483333	1	0.833375
18.500000	1	0.840375
18.516667	1	0.848500
18.533333	1	0.858500
18.550000	1	0.870875
18.566667	1	0.884125
18.583333	1	0.899125
18.600000	1	0.917000
18.616667	1	0.936500
18.633333	1	0.958250
18.650000	1	0.981500
18.666667	1	1.007000
18.683333	1	1.034125
18.700000	1	1.063750
18.716667	1	1.094500
18.733333	1	1.127750
18.750000	1	1.161875
18.766667	1	1.196500
18.783333	1	1.232000
18.800000	1	1.268375
18.816667	1	1.303625
18.833333	1	1.338250
18.850000	1	1.371375
18.866667	1	1.401375
18.883333	1	1.429125
18.900000	1	1.453625
18.916667	1	1.473250
18.933333	1	1.488000
18.950000	1	1.496375
18.966667	1	1.499375
18.983333	1	1.495625
19.000000	1	1.486125
19.016667	1	1.469250
19.033333	1	1.445250
19.050000	1	1.416000
19.066667	1	1.381375
19.083333	1	1.341375
19.100000	1	1.298625
19.116667	1	1.253750
19.133333	1	1.207500
19.150000	1	1.161500
19.166667	1	1.117250
19.183333	1	1.075625
19.200000	1	1.039000
19.216667	1	1.007125
19.233333	1	0.982625
19.250000	1	0.966125
19.266667	1	0.957625
19.283333	1	0.959750
19.300000	1	0.972250
19.316667	1	0.996250
19.333333	1	1.033000
19.350000	1	1.083125
19.366667	1	1.146375
19.383333	1	1.223875
19.400000	1	1.315250
19.416667	1	1.420500
19.433333	1	1.537500
19.450000	1	1.665250
19.466667	1	1.802000
19.483333	1	1.945125
19.500000	1	2.092375
19.516667	1	2.239000
19.533333	1	2.381875
19.550000	1	2.517125
19.566667	1	2.640750
19.583333	1	2.748250
19.600000	1	2.837000
19.616667	1	2.903250
19.633333	1	2.945375
19.650000	1	2.961250
19.666667	1	2.950875
19.683333	1	2.915750
19.700000	1	2.856000
19.716667	1	2.776125
19.733333	1	2.677000
19.750000	1	2.562500
19.766667	1	2.435750
19.783333	1	2.301250
19.800000	1	2.162000
19.816667	1	2.021375
19.833333	1	1.882750
19.850000	1	1.747375
19.866667	1	1.618375
19.883333	1	1.496125
19.900000	1	1.382250
19.916667	1	1.276750
19.933333	1	1.180750
19.950000	1	1.093750
19.966667	1	1.015875
19.983333	1	0.945750
20.000000	1	0.883875
20.016667	1	0.829375
20.033333	1	0.782000
20.050000	1	0.741250
20.066667	1	0.706375
20.083333	1	0.677000
20.100000	1	0.653000
20.116667	1	0.634125
20.133333	1	0.620250
20.150000	1	0.610625
20.166667	1	0.604750
20.183333	1	0.602625
20.200000	1	0.603000
20.216667	1	0.606500
20.233333	1	0.612375
20.250000	1	0.619875
20.266667	1	0.628125
20.283333	1	0.637750
20.300000	1	0.647500
20.316667	1	0.656625
20.333333	1	0.664500
20.350000	1	0.671000
20.366667	1	0.676250
20.383333	1	0.679750
20.400000	1	0.680500
20.416667	1	0.679875
20.433333	1	0.676750
20.450000	1	0.672250
20.466667	1	0.666000
20.483333	1	0.659250
20.500000	1	0.653000
20.516667	1	0.646625
20.533333	1	0.642750
20.550000	1	0.641625
20.566667	1	0.644625
20.583333	1	0.651375
20.600000	1	0.663500
20.616667	1	0.682125
20.633333	1	0.706500
20.650000	1	0.737500
20.666667	1	0.775625
20.683333	1	0.821500
20.700000	1	0.873500
20.716667	1	0.932250
20.733333	1	0.996625
20.750000	1	1.064875
20.766667	1	1.136500
20.783333	1	1.209250
20.800000	1	1.281750
20.816667	1	1.350500
20.833333	1	1.414875
20.850000	1	1.471375
20.866667	1	1.518375
20.883333	1	1.555750
20.900000	1	1.580750
20.916667	1	1.592750
20.933333	1	1.591500
20.950000	1	1.577125
20.966667	1	1.549625
20.983333	1	1.511000
21.000000	1	1.461625
21.016667	1	1.404000
21.033333	1	1.339750
21.050000	1	1.271125
21.066667	1	1.198750
21.083333	1	1.126875
21.100000	1	1.055500
21.116667	1	0.986125
21.133333	1	0.919875
21.150000	1	0.857125
21.166667	1	0.799125
21.183333	1	0.746750
21.200000	1	0.699375
21.216667	1	0.656500
21.233333	1	0.617625
21.250000	1	0.583500
21.266667	1	0.554125
21.283333	1	0.528625
21.300000	1	0.506250
21.316667	1	0.487000
21.333333	1	0.470125
21.350000	1	0.455500
21.366667	1	0.442875
21.383333	1	0.432250
21.400000	1	0.422250
21.416667	1	0.412875
21.433333	1	0.405375
21.450000	1	0.398250
21.466667	1	0.392875
21.483333	1	0.388000
21.500000	1	0.383500
21.516667	1	0.379500
21.533333	1	0.376750
21.550000	1	0.374875
21.566667	1	0.373000
21.583333	1	0.372375
21.600000	1	0.371375
21.616667	1	0.372375
21.633333	1	0.373500
21.650000	1	0.375375
21.666667	1	0.378000
21.683333	1	0.382000
21.700000	1	0.386625
21.716667	1	0.391125
21.733333	1	0.397125
21.750000	1	0.404625
21.766667	1	0.412500
21.783333	1	0.420875
21.800000	1	0.429875
21.816667	1	0.439750
21.833333	1	0.450250
21.850000	1	0.461625
21.866667	1	0.472250
21.883333	1	0.483625
21.900000	1	0.495125
21.916667	1	0.506750
21.933333	1	0.518625
21.950000	1	0.529500
21.966667	1	0.540500
21.983333	1	0.551125
22.000000	1	0.560750
22.016667	1	0.570500
22.033333	1	0.579625
22.050000	1	0.588250
22.066667	1	0.595625
22.083333	1	0.602000
22.100000	1	0.607875
22.116667	1	0.612375
22.133333	1	0.616250
22.150000	1	0.618750
22.166667	1	0.620375
22.183333	1	0.620875
22.200000	1	0.619000
22.216667	1	0.615875
22.233333	1	0.611375
22.250000	1	0.605625
22.266667	1	0.599500
22.283333	1	0.591750
22.300000	1	0.583375
22.316667	1	0.572625
22.333333	1	0.561875
22.350000	1	0.550000
22.366667	1	0.537500
22.383333	1	0.524250
22.400000	1	0.510375
22.416667	1	0.496500
22.433333	1	0.482625
22.450000	1	0.468375
22.466667	1	0.455000
22.483333	1	0.442500
22.500000	1	0.430750
22.516667	1	0.419500
22.533333	1	0.408000
22.550000	1	0.397750
22.566667	1	0.387875
22.583333	1	0.378750
22.600000	1	0.371125
22.616667	1	0.362500
22.633333	1	0.354875
22.650000	1	0.348500
22.666667	1	0.342000
22.683333	1	0.336375
22.700000	1	0.331125
22.716667	1	0.326375
22.733333	1	0.321250
22.750000	1	0.316375
22.766667	1	0.312250
22.783333	1	0.308125
22.800000	1	0.304625
22.816667	1	0.300875
22.833333	1	0.298000
22.850000	1	0.295000
22.866667	1	0.292375
22.883333	1	0.289375
22.900000	1	0.287000
22.916667	1	0.284875
22.933333	1	0.282500
22.950000	1	0.281250
22.966667	1	0.280000
22.983333	1	0.278625
23.000000	1	0.278000
23.016667	1	0.277250
23.033333	1	0.276750
23.050000	1	0.277000
23.066667	1	0.277375
23.083333	1	0.278375
23.100000	1	0.279500
23.116667	1	0.280500
23.133333	1	0.282250
23.150000	1	0.283750
23.166667	1	0.285875
23.183333	1	0.288375
23.200000	1	0.291000
23.216667	1	0.293125
23.233333	1	0.296500
23.250000	1	0.300250
23.266667	1	0.304875
23.283333	1	0.310000
23.300000	1	0.317000
23.316667	1	0.325375
23.333333	1	0.335625
23.350000	1	0.348375
23.366667	1	0.365375
23.383333	1	0.385375
23.400000	1	0.409875
23.416667	1	0.440125
23.433333	1	0.477125
23.450000	1	0.521375
23.466667	1	0.574875
23.483333	1	0.638125
23.500000	1	0.712375
23.516667	1	0.799375
23.533333	1	0.899625
23.550000	1	1.015000
23.566667	1	1.145750
23.583333	1	1.293500
23.600000	1	1.459000
23.616667	1	1.642500
23.633333	1	1.843625
23.650000	1	2.061375
23.666667	1	2.295125
23.683333	1	2.543750
23.700000	1	2.805125
23.716667	1	3.075750
23.733333	1	3.351000
23.750000	1	3.628000
23.766667	1	3.900875
23.783333	1	4.165750
23.800000	1	4.416000
23.816667	1	4.646500
23.833333	1	4.853000
23.850000	1	5.030500
23.866667	1	5.174125
23.883333	1	5.280125
23.900000	1	5.347250
23.916667	1	5.373125
23.933333	1	5.357750
23.950000	1	5.302250
23.966667	1	5.208250
23.983333	1	5.077750
24.000000	1	4.916250
24.016667	1	4.726875
24.033333	1	4.514500
24.050000	1	4.283875
24.066667	1	4.041000
24.083333	1	3.790000
24.100000	1	3.535000
24.116667	1	3.280625
24.133333	1	3.031000
24.150000	1	2.788375
24.166667	1	2.557000
24.183333	1	2.337875
24.200000	1	2.131750
24.216667	1	1.940125
24.233333	1	1.764500
24.250000	1	1.603875
24.266667	1	1.457375
24.283333	1	1.325250
24.300000	1	1.207125
24.316667	1	1.102500
24.333333	1	1.009250
24.350000	1	0.927000
24.366667	1	0.854875
24.383333	1	0.792375
24.400000	1	0.738125
24.416667	1	0.690750
24.433333	1	0.650000
24.450000	1	0.615625
24.466667	1	0.586250
24.483333	1	0.561000
24.500000	1	0.540000
24.516667	1	0.522375
24.533333	1	0.507000
24.550000	1	0.494125
24.566667	1	0.482000
24.583333	1	0.471750
24.600000	1	0.462500
24.616667	1	0.453625
24.633333	1	0.446250
24.650000	1	0.439750
24.666667	1	0.433125
24.683333	1	0.426625
24.700000	1	0.419125
24.716667	1	0.412750
24.733333	1	0.405875
24.750000	1	0.399000
24.766667	1	0.392375
24.783333	1	0.385250
24.800000	1	0.379250
24.816667	1	0.372375
24.833333	1	0.366250
24.850000	1	0.359875
24.866667	1	0.354125
24.883333	1	0.348750
24.900000	1	0.343250
24.916667	1	0.338250
24.933333	1	0.333125
24.950000	1	0.328625
24.966667	1	0.323875
24.983333	1	0.319500
25.000000	1	0.315625
25.016667	1	0.311750
25.033333	1	0.308375
25.050000	1	0.304875
25.066667	1	0.301500
25.083333	1	0.298750
25.100000	1	0.296375
25.116667	1	0.293875
25.133333	1	0.290875
25.150000	1	0.287125
25.166667	1	0.284750
25.183333	1	0.281625
25.200000	1	0.279125
25.216667	1	0.276375
25.233333	1	0.274000
25.250000	1	0.271875
25.266667	1	0.269875
25.283333	1	0.267375
25.300000	1	0.264625
25.316667	1	0.262250
25.333333	1	0.260500
25.350000	1	0.258125
25.366667	1	0.256375
25.383333	1	0.254875
25.400000	1	0.253250
25.416667	1	0.251375
25.433333	1	0.250250
25.450000	1	0.249125
25.466667	1	0.248125
25.483333	1	0.247625
25.500000	1	0.247625
25.516667	1	0.246875
25.533333	1	0.247125
25.550000	1	0.248000
25.566667	1	0.248625
25.583333	1	0.249125
25.600000	1	0.250125
25.616667	1	0.251250
25.633333	1	0.252375
25.650000	1	0.253375
25.666667	1	0.254375
25.683333	1	0.256250
25.700000	1	0.258000
25.716667	1	0.259500
25.733333	1	0.261875
25.750000	1	0.263375
25.766667	1	0.265375
25.783333	1	0.267750
25.800000	1	0.270000
25.816667	1	0.273125
25.833333	1	0.276125
25.850000	1	0.279250
25.866667	1	0.282625
25.883333	1	0.286375
25.900000	1	0.290375
25.916667	1	0.293875
25.933333	1	0.298250
25.950000	1	0.302500
25.966667	1	0.307250
25.983333	1	0.312375
26.000000	1	0.317000
26.016667	1	0.322250
26.033333	1	0.326750
26.050000	1	0.331875
26.066667	1	0.337500
26.083333	1	0.342625
26.100000	1	0.347625
26.116667	1	0.352625
26.133333	1	0.357625
26.150000	1	0.362500
26.166667	1	0.366875
26.183333	1	0.371250
26.200000	1	0.375250
26.216667	1	0.378125
26.233333	1	0.380875
26.250000	1	0.383000
26.266667	1	0.384875
26.283333	1	0.386125
26.300000	1	0.387250
26.316667	1	0.387625
26.333333	1	0.387375
26.350000	1	0.385750
26.366667	1	0.383500
26.383333	1	0.381125
26.400000	1	0.378875
26.416667	1	0.376125
26.433333	1	0.372500
26.450000	1	0.368375
26.466667	1	0.363375
26.483333	1	0.358000
26.500000	1	0.353125
26.516667	1	0.348000
26.533333	1	0.342000
26.550000	1	0.334875
26.566667	1	0.329375
26.583333	1	0.324000
26.600000	1	0.317250
26.616667	1	0.311625
26.633333	1	0.305000
26.650000	1	0.299250
26.666667	1	0.294125
26.683333	1	0.288500
26.700000	1	0.282875
26.716667	1	0.277000
26.733333	1	0.271875
26.750000	1	0.267250
26.766667	1	0.262875
26.783333	1	0.258750
26.800000	1	0.254750
26.816667	1	0.251125
26.833333	1	0.248250
26.850000	1	0.245250
26.866667	1	0.242875
26.883333	1	0.241000
26.900000	1	0.240000
26.916667	1	0.238875
26.933333	1	0.237250
26.950000	1	0.235875
26.966667	1	0.235875
26.983333	1	0.236250
27.000000	1	0.236875
27.016667	1	0.238375
27.033333	1	0.239875
27.050000	1	0.242625
27.066667	1	0.245750
27.083333	1	0.250000
27.100000	1	0.255000
27.116667	1	0.260750
27.133333	1	0.267625
27.150000	1	0.275250
27.166667	1	0.284625
27.183333	1	0.295875
27.200000	1	0.308000
27.216667	1	0.322375
27.233333	1	0.340125
27.250000	1	0.359750
27.266667	1	0.382000
27.283333	1	0.407875
27.300000	1	0.438500
27.316667	1	0.472625
27.333333	1	0.511250
27.350000	1	0.555000
27.366667	1	0.604125
27.383333	1	0.660375
27.400000	1	0.723000
27.416667	1	0.793250
27.433333	1	0.870875
27.450000	1	0.957750
27.466667	1	1.053750
27.483333	1	1.159000
27.500000	1	1.273000
27.516667	1	1.396625
27.533333	1	1.529375
27.550000	1	1.671125
27.566667	1	1.822875
27.583333	1	1.981500
27.600000	1	2.146500
27.616667	1	2.318500
27.633333	1	2.495875
27.650000	1	2.675125
27.666667	1	2.855125
27.683333	1	3.034250
27.700000	1	3.211375
27.716667	1	3.381750
27.733333	1	3.543375
27.750000	1	3.693500
27.766667	1	3.831000
27.783333	1	3.952750
27.800000	1	4.055875
27.816667	1	4.139250
27.833333	1	4.201000
27.850000	1	4.239750
27.866667	1	4.253875
27.883333	1	4.243500
27.900000	1	4.208500
27.916667	1	4.149000
27.933333	1	4.066125
27.950000	1	3.961625
27.966667	1	3.837125
27.983333	1	3.695625
28.000000	1	3.539625
28.016667	1	3.371000
28.033333	1	3.192125
28.050000	1	3.006250
28.066667	1	2.816750
28.083333	1	2.625875
28.100000	1	2.436375
28.116667	1	2.250000
28.133333	1	2.070000
28.150000	1	1.896375
28.166667	1	1.731750
28.183333	1	1.577500
28.200000	1	1.433375
28.216667	1	1.300125
28.233333	1	1.178250
28.250000	1	1.067125
28.266667	1	0.966750
28.283333	1	0.877125
28.300000	1	0.797125
28.316667	1	0.726250
28.333333	1	0.664125
28.350000	1	0.610875
28.366667	1	0.564875
28.383333	1	0.525875
28.400000	1	0.493125
28.416667	1	0.466000
28.433333	1	0.444625
28.450000	1	0.428750
28.466667	1	0.415750
28.483333	1	0.407000
28.500000	1	0.401500
28.516667	1	0.399500
28.533333	1	0.399125
28.550000	1	0.401250
28.566667	1	0.406250
28.583333	1	0.412125
28.600000	1	0.420000
28.616667	1	0.428625
28.633333	1	0.438125
28.650000	1	0.447875
28.666667	1	0.458750
28.683333	1	0.469625
28.700000	1	0.481000
28.716667	1	0.492125
28.733333	1	0.502375
28.750000	1	0.512000
28.766667	1	0.521375
28.783333	1	0.530125
28.800000	1	0.538250
28.816667	1	0.544875
28.833333	1	0.550750
28.850000	1	0.556125
28.866667	1	0.560125
28.883333	1	0.562500
28.900000	1	0.564500
28.916667	1	0.565125
28.933333	1	0.564375
28.950000	1	0.563250
28.966667	1	0.560750
28.983333	1	0.556000
29.000000	1	0.550875
29.016667	1	0.544750
29.033333	1	0.537000
29.050000	1	0.529375
29.066667	1	0.520750
29.083333	1	0.511250
29.100000	1	0.501500
29.116667	1	0.490000
29.133333	1	0.478875
29.150000	1	0.466875
29.166667	1	0.455000
29.183333	1	0.442125
29.200000	1	0.429125
29.216667	1	0.416250
29.233333	1	0.403125
29.250000	1	0.390625
29.266667	1	0.377625
29.283333	1	0.365375
29.300000	1	0.352625
29.316667	1	0.339625
29.333333	1	0.327125
29.350000	1	0.315250
29.366667	1	0.303875
29.383333	1	0.292375
29.400000	1	0.281625
29.416667	1	0.271000
29.433333	1	0.261000
29.450000	1	0.251500
29.466667	1	0.241000
29.483333	1	0.231875
29.500000	1	0.222625
29.516667	1	0.214375
29.533333	1	0.206625
29.550000	1	0.198875
29.566667	1	0.191500
29.583333	1	0.184375
29.600000	1	0.178375
29.616667	1	0.172750
29.633333	1	0.166375
29.650000	1	0.161250
29.666667	1	0.155875
29.683333	1	0.151250
29.700000	1	0.147250
29.716667	1	0.142750
29.733333	1	0.138375
29.750000	1	0.134625
29.766667	1	0.131375
29.783333	1	0.128625
29.800000	1	0.125500
29.816667	1	0.123000
29.833333	1	0.120125
29.850000	1	0.118125
29.866667	1	0.116125
29.883333	1	0.114250
29.900000	1	0.112500
29.916667	1	0.111125
29.933333	1	0.110500
29.950000	1	0.109625
29.966667	1	0.108250
29.983333	1	0.107750
30.000000	1	0.107500
30.016667	1	0.107500
30.033333	1	0.107375
30.050000	1	0.107250
30.066667	1	0.107125
30.083333	1	0.107625
30.100000	1	0.107625
30.116667	1	0.107875
30.133333	1	0.108125
30.150000	1	0.108000
30.166667	1	0.108250
30.183333	1	0.108625
30.200000	1	0.109625
30.216667	1	0.110500
30.233333	1	0.110750
30.250000	1	0.111125
30.266667	1	0.111375
30.283333	1	0.112500
30.300000	1	0.113625
30.316667	1	0.114125
30.333333	1	0.115500
30.350000	1	0.116250
30.366667	1	0.117750
30.383333	1	0.119500
30.400000	1	0.120750
30.416667	1	0.122750
30.433333	1	0.124250
30.450000	1	0.126500
30.466667	1	0.129500
30.483333	1	0.132625
30.500000	1	0.136250
30.516667	1	0.139500
30.533333	1	0.143375
30.550000	1	0.147625
30.566667	1	0.152875
30.583333	1	0.158750
30.600000	1	0.165000
30.616667	1	0.171500
30.633333	1	0.179500
30.650000	1	0.187625
30.666667	1	0.197000
30.683333	1	0.207125
30.700000	1	0.218000
30.716667	1	0.230375
30.733333	1	0.243250
30.750000	1	0.258500
30.766667	1	0.275250
30.783333	1	0.293375
30.800000	1	0.314125
30.816667	1	0.336750
30.833333	1	0.362375
30.850000	1	0.390875
30.866667	1	0.423125
30.883333	1	0.459000
30.900000	1	0.499125
30.916667	1	0.544625
30.933333	1	0.595125
30.950000	1	0.651875
30.966667	1	0.715375
30.983333	1	0.785625
31.000000	1	0.864875
31.016667	1	0.952875
31.033333	1	1.050625
31.050000	1	1.158250
31.066667	1	1.277125
31.083333	1	1.407000
31.100000	1	1.548500
31.116667	1	1.702375
31.133333	1	1.867125
31.150000	1	2.043750
31.166667	1	2.232000
31.183333	1	2.431750
31.200000	1	2.642500
31.216667	1	2.863375
31.233333	1	3.093125
31.250000	1	3.330000
31.266667	1	3.570625
31.283333	1	3.815375
31.300000	1	4.060500
31.316667	1	4.303875
31.333333	1	4.542125
31.350000	1	4.773375
31.366667	1	4.994500
31.383333	1	5.204250
31.400000	1	5.398250
31.416667	1	5.574500
31.433333	1	5.730000
31.450000	1	5.863750
31.466667	1	5.972625
31.483333	1	6.056000
31.500000	1	6.111875
31.516667	1	6.140000
31.533333	1	6.140875
31.550000	1	6.113500
31.566667	1	6.058875
31.583333	1	5.978375
31.600000	1	5.872500
31.616667	1	5.742875
31.633333	1	5.592125
31.650000	1	5.422375
31.666667	1	5.235250
31.683333	1	5.034625
31.700000	1	4.821625
31.716667	1	4.599625
31.733333	1	4.370750
31.750000	1	4.138375
31.766667	1	3.903625
31.783333	1	3.669125
31.800000	1	3.437625
31.816667	1	3.209875
31.833333	1	2.987000
31.850000	1	2.771625
31.866667	1	2.564000
31.883333	1	2.365000
31.900000	1	2.176375
31.916667	1	1.998375
31.933333	1	1.831125
31.950000	1	1.674125
31.966667	1	1.527750
31.983333	1	1.392375
32.000000	1	1.266500
32.016667	1	1.150750
32.033333	1	1.044250
32.050000	1	0.947250
32.066667	1	0.859250
32.083333	1	0.778625
32.100000	1	0.706125
32.116667	1	0.640375
32.133333	1	0.580500
32.150000	1	0.526875
32.166667	1	0.478750
32.183333	1	0.435625
32.200000	1	0.397500
32.216667	1	0.363000
32.233333	1	0.331875
32.250000	1	0.304125
32.266667	1	0.279500
32.283333	1	0.257250
32.300000	1	0.237500
32.316667	1	0.220375
32.333333	1	0.205250
32.350000	1	0.191250
32.366667	1	0.179250
32.383333	1	0.168500
32.400000	1	0.158875
32.416667	1	0.150125
32.433333	1	0.142125
32.450000	1	0.135500
32.466667	1	0.129125
32.483333	1	0.123375
32.500000	1	0.119000
32.516667	1	0.114125
32.533333	1	0.110500
32.550000	1	0.107125
32.566667	1	0.104500
32.583333	1	0.102250
32.600000	1	0.100375
32.616667	1	0.098500
32.633333	1	0.096375
32.650000	1	0.095125
32.666667	1	0.093625
32.683333	1	0.091625
32.700000	1	0.090125
32.716667	1	0.089000
32.733333	1	0.087500
32.750000	1	0.086875
32.766667	1	0.085750
32.783333	1	0.084750
32.800000	1	0.084125
32.816667	1	0.083250
32.833333	1	0.082500
32.850000	1	0.080875
32.866667	1	0.078875
32.883333	1	0.077375
32.900000	1	0.075500
32.916667	1	0.073375
32.933333	1	0.072000
32.950000	1	0.070750
32.966667	1	0.068875
32.983333	1	0.067375
33.000000	1	0.065625
33.016667	1	0.063125
33.033333	1	0.061250
33.050000	1	0.058625
33.066667	1	0.056625
33.083333	1	0.055000
33.100000	1	0.052375
33.116667	1	0.050000
33.133333	1	0.048000
33.150000	1	0.046375
33.166667	1	0.044125
33.183333	1	0.042625
33.200000	1	0.041375
33.216667	1	0.040375
33.233333	1	0.038375
33.250000	1	0.037750
33.266667	1	0.036875
33.283333	1	0.036250
33.300000	1	0.035000
33.316667	1	0.034375
33.333333	1	0.033250
33.350000	1	0.033625
33.366667	1	0.033875
33.383333	1	0.033625
33.400000	1	0.034000
33.416667	1	0.034500
33.433333	1	0.034750
33.450000	1	0.035250
33.466667	1	0.036250
33.483333	1	0.037625
33.500000	1	0.038000
33.516667	1	0.039500
33.533333	1	0.041125
33.550000	1	0.041875
33.566667	1	0.043500
33.583333	1	0.045625
33.600000	1	0.047000
33.616667	1	0.048875
33.633333	1	0.050875
33.650000	1	0.052375
33.666667	1	0.054500
33.683333	1	0.057000
33.700000	1	0.059375
33.716667	1	0.061250
33.733333	1	0.063750
33.750000	1	0.066250
33.766667	1	0.068625
33.783333	1	0.071500
33.800000	1	0.074750
33.816667	1	0.077250
33.833333	1	0.080000
33.850000	1	0.083000
33.866667	1	0.086625
33.883333	1	0.089625
33.900000	1	0.093125
33.916667	1	0.096875
33.933333	1	0.100375
33.950000	1	0.103750
33.966667	1	0.107125
33.983333	1	0.111000
34.000000	1	0.114625
34.016667	1	0.118500
34.033333	1	0.121750
34.050000	1	0.125000
34.066667	1	0.128250
34.083333	1	0.131250
34.100000	1	0.134625
34.116667	1	0.137250
34.133333	1	0.141250
34.150000	1	0.144750
34.166667	1	0.147500
34.183333	1	0.149500
34.200000	1	0.151875
34.216667	1	0.154250
34.233333	1	0.156875
34.250000	1	0.158750
34.266667	1	0.161250
34.283333	1	0.164000
34.300000	1	0.166250
34.316667	1	0.167875
34.333333	1	0.169500
34.350000	1	0.170875
34.366667	1	0.172750
34.383333	1	0.174125
34.400000	1	0.175250
34.416667	1	0.176625
34.433333	1	0.177875
34.450000	1	0.179000
34.466667	1	0.179875
34.483333	1	0.181500
34.500000	1	0.182375
34.516667	1	0.183500
34.533333	1	0.184125
34.550000	1	0.184500
34.566667	1	0.184750
34.583333	1	0.184875
34.600000	1	0.185250
34.616667	1	0.185625
34.633333	1	0.185375
34.650000	1	0.184750
34.666667	1	0.183750
34.683333	1	0.182875
34.700000	1	0.182250
34.716667	1	0.181125
34.733333	1	0.179125
34.750000	1	0.177625
34.766667	1	0.175375
34.783333	1	0.173375
34.800000	1	0.170875
34.816667	1	0.168000
34.833333	1	0.165375
34.850000	1	0.162625
34.866667	1	0.160125
34.883333	1	0.157125
34.900000	1	0.154125
34.916667	1	0.151250
34.933333	1	0.148375
34.950000	1	0.146125
34.966667	1	0.143250
34.983333	1	0.139750
35.000000	1	0.137000
35.016667	1	0.134375
35.033333	1	0.132375
35.050000	1	0.130250
35.066667	1	0.128375
35.083333	1	0.126125
35.100000	1	0.124250
35.116667	1	0.122500
35.133333	1	0.120625
35.150000	1	0.120000
35.166667	1	0.119000
35.183333	1	0.118125
35.200000	1	0.117375
35.216667	1	0.117000
35.233333	1	0.117500
35.250000	1	0.117125
35.266667	1	0.116625
35.283333	1	0.116375
35.300000	1	0.116500
35.316667	1	0.117250
35.333333	1	0.117875
35.350000	1	0.118375
35.366667	1	0.118750
35.383333	1	0.119250
35.400000	1	0.120625
35.416667	1	0.121250
35.433333	1	0.121125
35.450000	1	0.121750
35.466667	1	0.122500
35.483333	1	0.123625
35.500000	1	0.124625
35.516667	1	0.124750
35.533333	1	0.125125
35.550000	1	0.126125
35.566667	1	0.126375
35.583333	1	0.126250
35.600000	1	0.126875
35.616667	1	0.127250
35.633333	1	0.127375
35.650000	1	0.127875
35.666667	1	0.128500
35.683333	1	0.128625
35.700000	1	0.128875
35.716667	1	0.129875
35.733333	1	0.130625
35.750000	1	0.131875
35.766667	1	0.132250
35.783333	1	0.132125
35.800000	1	0.132625
35.816667	1	0.133125
35.833333	1	0.133125
35.850000	1	0.133625
35.866667	1	0.133875
35.883333	1	0.134375
35.900000	1	0.135125
35.916667	1	0.135875
35.933333	1	0.136875
35.950000	1	0.136625
35.966667	1	0.137125
35.983333	1	0.136750
36.000000	1	0.136750
36.016667	1	0.135500
36.033333	1	0.135375
36.050000	1	0.134625
36.066667	1	0.134875
36.083333	1	0.134250
36.100000	1	0.133500
36.116667	1	0.132500
36.133333	1	0.131625
36.150000	1	0.130750
36.166667	1	0.129375
36.183333	1	0.127500
36.200000	1	0.126250
36.216667	1	0.125000
36.233333	1	0.122875
36.250000	1	0.121000
36.266667	1	0.119250
36.283333	1	0.117375
36.300000	1	0.115750
36.316667	1	0.113500
36.333333	1	0.111125
36.350000	1	0.109250
36.366667	1	0.107375
36.383333	1	0.105250
36.400000	1	0.103125
36.416667	1	0.100125
36.433333	1	0.097625
36.450000	1	0.094750
36.466667	1	0.092250
36.483333	1	0.089625
36.500000	1	0.087250
36.516667	1	0.084000
36.533333	1	0.081000
36.550000	1	0.078000
36.566667	1	0.075375
36.583333	1	0.072250
36.600000	1	0.068750
36.616667	1	0.065375
36.633333	1	0.062375
36.650000	1	0.059750
36.666667	1	0.056625
36.683333	1	0.053625
36.700000	1	0.050875
36.716667	1	0.047250
36.733333	1	0.044750
36.750000	1	0.042000
36.766667	1	0.038750
36.783333	1	0.036500
36.800000	1	0.034000
36.816667	1	0.031500
36.833333	1	0.027875
36.850000	1	0.025125
36.866667	1	0.023250
36.883333	1	0.020875
36.900000	1	0.018875
36.916667	1	0.017375
36.933333	1	0.016000
36.950000	1	0.014625
36.966667	1	0.013000
36.983333	1	0.012000
37.000000	1	0.011750
37.016667	1	0.011125
37.033333	1	0.010625
37.050000	1	0.010500
37.066667	1	0.010250
37.083333	1	0.010125
37.100000	1	0.010500
37.116667	1	0.011125
37.133333	1	0.011250
37.150000	1	0.011875
37.166667	1	0.013125
37.183333	1	0.013750
37.200000	1	0.015000
37.216667	1	0.016625
37.233333	1	0.017375
37.250000	1	0.019000
37.266667	1	0.020500
37.283333	1	0.022250
37.300000	1	0.024500
37.316667	1	0.026125
37.333333	1	0.027875
37.350000	1	0.029250
37.366667	1	0.030625
37.383333	1	0.032875
37.400000	1	0.034625
37.416667	1	0.036500
37.433333	1	0.038125
37.450000	1	0.039625
37.466667	1	0.042000
37.483333	1	0.044000
37.500000	1	0.045625
37.516667	1	0.047750
37.533333	1	0.049875
37.550000	1	0.051625
37.566667	1	0.053375
37.583333	1	0.054500
37.600000	1	0.056500
37.616667	1	0.058250
37.633333	1	0.060625
37.650000	1	0.063000
37.666667	1	0.064625
37.683333	1	0.066625
37.700000	1	0.068375
37.716667	1	0.071000
37.733333	1	0.073625
37.750000	1	0.075500
37.766667	1	0.077250
37.783333	1	0.078750
37.800000	1	0.080000
37.816667	1	0.081750
37.833333	1	0.083625
37.850000	1	0.085500
37.866667	1	0.087125
37.883333	1	0.089375
37.900000	1	0.090250
37.916667	1	0.091125
37.933333	1	0.092750
37.950000	1	0.092875
37.966667	1	0.093750
37.983333	1	0.094875
38.000000	1	0.095500
38.016667	1	0.095625
38.033333	1	0.095750
38.050000	1	0.095875
38.066667	1	0.096125
38.083333	1	0.096125
38.100000	1	0.095250
38.116667	1	0.094750
38.133333	1	0.094500
38.150000	1	0.093250
38.166667	1	0.092375
38.183333	1	0.091625
38.200000	1	0.091000
38.216667	1	0.089875
38.233333	1	0.088250
38.250000	1	0.086875
38.266667	1	0.085500
38.283333	1	0.084125
38.300000	1	0.082500
38.316667	1	0.080625
38.333333	1	0.079375
38.350000	1	0.078125
38.366667	1	0.076750
38.383333	1	0.075750
38.400000	1	0.074375
38.416667	1	0.073250
38.433333	1	0.072875
38.450000	1	0.071875
38.466667	1	0.070875
38.483333	1	0.069750
38.500000	1	0.069000
38.516667	1	0.068625
38.533333	1	0.068125
38.550000	1	0.067750
38.566667	1	0.067500
38.583333	1	0.067625
38.600000	1	0.067375
38.616667	1	0.067375
38.633333	1	0.067250
38.650000	1	0.067000
38.666667	1	0.067500
38.683333	1	0.067500
38.700000	1	0.068125
38.716667	1	0.068375
38.733333	1	0.068750
38.750000	1	0.069125
38.766667	1	0.068875
38.783333	1	0.069375
38.800000	1	0.069500
38.816667	1	0.069375
38.833333	1	0.068625
38.850000	1	0.069000
38.866667	1	0.069125
38.883333	1	0.068625
38.900000	1	0.068375
38.916667	1	0.067500
38.933333	1	0.066125
38.950000	1	0.064750
38.966667	1	0.064250
38.983333	1	0.062250
39.000000	1	0.060625
39.016667	1	0.058875
39.033333	1	0.056875
39.050000	1	0.055250
39.066667	1	0.053875
39.083333	1	0.051750
39.100000	1	0.049750
39.116667	1	0.047750
39.133333	1	0.045875
39.150000	1	0.043375
39.166667	1	0.040875
39.183333	1	0.038625
39.200000	1	0.036750
39.216667	1	0.034250
39.233333	1	0.031625
39.250000	1	0.029250
39.266667	1	0.026875
39.283333	1	0.024250
39.300000	1	0.022625
39.316667	1	0.020625
39.333333	1	0.017750
39.350000	1	0.015500
39.366667	1	0.012875
39.383333	1	0.011125
39.400000	1	0.009500
39.416667	1	0.007625
39.433333	1	0.005625
39.450000	1	0.004000
39.466667	1	0.002000
39.483333	1	0.000375
39.500000	1	-0.000500
39.516667	1	-0.002000
39.533333	1	-0.003000
39.550000	1	-0.004750
39.566667	1	-0.006250
39.583333	1	-0.007625
39.600000	1	-0.009000
39.616667	1	-0.010250
39.633333	1	-0.011125
39.650000	1	-0.011625
39.666667	1	-0.012000
39.683333	1	-0.013000
39.700000	1	-0.014000
39.716667	1	-0.014625
39.733333	1	-0.015000
39.750000	1	-0.015375
39.766667	1	-0.016000
39.783333	1	-0.016125
39.800000	1	-0.016625
39.816667	1	-0.017000
39.833333	1	-0.017000
39.850000	1	-0.016875
39.866667	1	-0.016125
39.883333	1	-0.015625
39.900000	1	-0.015125
39.916667	1	-0.014875
39.933333	1	-0.014500
39.950000	1	-0.013500
39.966667	1	-0.013000
39.983333	1	-0.011500
40.000000	1	-0.011750
