URL	chrom://bioreactor/micro_cm7/HPLC_Ultimate_3000/Users/markusar/20240708_MA_pHrange1.seq/645.smp/RI_1.channel/RI_1.chm
Channel	RI_1

Injection Information:
Data Vault	micro_cm7
Sequence	20240708_MA_pHrange1
Name	Pv1_20H_1
Number	32
Position	BC8
Comment	
Processing Method	
Instrument Method	run_25B_method
Type	Unknown
Status	Finished
Inject Time	09.07.2024 12:44:38 +02:00
Volume (µl)	20.0000
Dilution Factor	1.0000
Weight	1.0000

Chromatogram Data Information:
Time Min. (min)	0.000000
Time Max. (min)	40.000000
Data Points	2401
Detector	RI
Generating Data System	Chromeleon 7.3.2.11814
Exporting Data System	Chromeleon 7.3.2.0
Operator	Instrument Controller
Signal Quantity	Refractive 
Signal Unit	µRIU
Signal Min.	-0.100500
Signal Max.	83.099000
Channel	RI_1
Driver Name	RID520Driver.dll
Channel Type	Evaluation
Min. Step (s)	1
Max. Step (s)	1
Average Step (s)	1

Signal Parameter Information:
Signal Info	

Chromatogram Data:
Time (min)	Step (s)	Value (µRIU)
0.000000	n.a.	0.061625
0.016667	1	0.062125
0.033333	1	0.062125
0.050000	1	0.062250
0.066667	1	0.062375
0.083333	1	0.062500
0.100000	1	0.062625
0.116667	1	0.061625
0.133333	1	0.061875
0.150000	1	0.061750
0.166667	1	0.061875
0.183333	1	0.061625
0.200000	1	0.060750
0.216667	1	0.060375
0.233333	1	0.060375
0.250000	1	0.060500
0.266667	1	0.060375
0.283333	1	0.060125
0.300000	1	0.059500
0.316667	1	0.059125
0.333333	1	0.058750
0.350000	1	0.057250
0.366667	1	0.055875
0.383333	1	0.054250
0.400000	1	0.053125
0.416667	1	0.052375
0.433333	1	0.053000
0.450000	1	0.054500
0.466667	1	0.055250
0.483333	1	0.055625
0.500000	1	0.055750
0.516667	1	0.055125
0.533333	1	0.054000
0.550000	1	0.052625
0.566667	1	0.050250
0.583333	1	0.047375
0.600000	1	0.044875
0.616667	1	0.043375
0.633333	1	0.041625
0.650000	1	0.040125
0.666667	1	0.038875
0.683333	1	0.038250
0.700000	1	0.037500
0.716667	1	0.036500
0.733333	1	0.035250
0.750000	1	0.034875
0.766667	1	0.034500
0.783333	1	0.034500
0.800000	1	0.034125
0.816667	1	0.033750
0.833333	1	0.033500
0.850000	1	0.033750
0.866667	1	0.033500
0.883333	1	0.032875
0.900000	1	0.033000
0.916667	1	0.033250
0.933333	1	0.033875
0.950000	1	0.034000
0.966667	1	0.034125
0.983333	1	0.034500
1.000000	1	0.034750
1.016667	1	0.035625
1.033333	1	0.036125
1.050000	1	0.036500
1.066667	1	0.037000
1.083333	1	0.037625
1.100000	1	0.037875
1.116667	1	0.037375
1.133333	1	0.038625
1.150000	1	0.039250
1.166667	1	0.039875
1.183333	1	0.040500
1.200000	1	0.041125
1.216667	1	0.041625
1.233333	1	0.042750
1.250000	1	0.043250
1.266667	1	0.043750
1.283333	1	0.043875
1.300000	1	0.043750
1.316667	1	0.042625
1.333333	1	0.042375
1.350000	1	0.042500
1.366667	1	0.042750
1.383333	1	0.042125
1.400000	1	0.042000
1.416667	1	0.041875
1.433333	1	0.041750
1.450000	1	0.041375
1.466667	1	0.040375
1.483333	1	0.040500
1.500000	1	0.039875
1.516667	1	0.039375
1.533333	1	0.038875
1.550000	1	0.037875
1.566667	1	0.036750
1.583333	1	0.036000
1.600000	1	0.035250
1.616667	1	0.033875
1.633333	1	0.032625
1.650000	1	0.031625
1.666667	1	0.030375
1.683333	1	0.029375
1.700000	1	0.028125
1.716667	1	0.026750
1.733333	1	0.025875
1.750000	1	0.025000
1.766667	1	0.024125
1.783333	1	0.023000
1.800000	1	0.022375
1.816667	1	0.021625
1.833333	1	0.020625
1.850000	1	0.019625
1.866667	1	0.018750
1.883333	1	0.017875
1.900000	1	0.016875
1.916667	1	0.015375
1.933333	1	0.014500
1.950000	1	0.013125
1.966667	1	0.012500
1.983333	1	0.011500
2.000000	1	0.009375
2.016667	1	0.007875
2.033333	1	0.006875
2.050000	1	0.005625
2.066667	1	0.005375
2.083333	1	0.004625
2.100000	1	0.004000
2.116667	1	0.002625
2.133333	1	0.001375
2.150000	1	0.000750
2.166667	1	0.000000
2.183333	1	-0.000125
2.200000	1	-0.001375
2.216667	1	-0.002750
2.233333	1	-0.003875
2.250000	1	-0.004000
2.266667	1	-0.005250
2.283333	1	-0.005750
2.300000	1	-0.006750
2.316667	1	-0.007750
2.333333	1	-0.008625
2.350000	1	-0.009750
2.366667	1	-0.010750
2.383333	1	-0.011250
2.400000	1	-0.012250
2.416667	1	-0.012875
2.433333	1	-0.013125
2.450000	1	-0.012875
2.466667	1	-0.013750
2.483333	1	-0.014125
2.500000	1	-0.014000
2.516667	1	-0.014375
2.533333	1	-0.013875
2.550000	1	-0.013625
2.566667	1	-0.013375
2.583333	1	-0.013375
2.600000	1	-0.013000
2.616667	1	-0.012875
2.633333	1	-0.012125
2.650000	1	-0.012000
2.666667	1	-0.011000
2.683333	1	-0.010500
2.700000	1	-0.009625
2.716667	1	-0.008750
2.733333	1	-0.007375
2.750000	1	-0.007125
2.766667	1	-0.005500
2.783333	1	-0.004250
2.800000	1	-0.003125
2.816667	1	-0.002250
2.833333	1	-0.000625
2.850000	1	0.000500
2.866667	1	0.001750
2.883333	1	0.003375
2.900000	1	0.004625
2.916667	1	0.005750
2.933333	1	0.006750
2.950000	1	0.007875
2.966667	1	0.008875
2.983333	1	0.010125
3.000000	1	0.011375
3.016667	1	0.012750
3.033333	1	0.014875
3.050000	1	0.016250
3.066667	1	0.018250
3.083333	1	0.019625
3.100000	1	0.021625
3.116667	1	0.022625
3.133333	1	0.024125
3.150000	1	0.025625
3.166667	1	0.026500
3.183333	1	0.027500
3.200000	1	0.029250
3.216667	1	0.030375
3.233333	1	0.032000
3.250000	1	0.033750
3.266667	1	0.035000
3.283333	1	0.036000
3.300000	1	0.037375
3.316667	1	0.038250
3.333333	1	0.039625
3.350000	1	0.039875
3.366667	1	0.040750
3.383333	1	0.041750
3.400000	1	0.043250
3.416667	1	0.045125
3.433333	1	0.046125
3.450000	1	0.046250
3.466667	1	0.047375
3.483333	1	0.049125
3.500000	1	0.050625
3.516667	1	0.051500
3.533333	1	0.052250
3.550000	1	0.053375
3.566667	1	0.053375
3.583333	1	0.054500
3.600000	1	0.055000
3.616667	1	0.055625
3.633333	1	0.057000
3.650000	1	0.057750
3.666667	1	0.058000
3.683333	1	0.058625
3.700000	1	0.059125
3.716667	1	0.058750
3.733333	1	0.059375
3.750000	1	0.059750
3.766667	1	0.059750
3.783333	1	0.060375
3.800000	1	0.059875
3.816667	1	0.059750
3.833333	1	0.060250
3.850000	1	0.060500
3.866667	1	0.060500
3.883333	1	0.060375
3.900000	1	0.060375
3.916667	1	0.060250
3.933333	1	0.060000
3.950000	1	0.059750
3.966667	1	0.059750
3.983333	1	0.060375
4.000000	1	0.061125
4.016667	1	0.061625
4.033333	1	0.062500
4.050000	1	0.062875
4.066667	1	0.063375
4.083333	1	0.063500
4.100000	1	0.064625
4.116667	1	0.065625
4.133333	1	0.066875
4.150000	1	0.067375
4.166667	1	0.068750
4.183333	1	0.070000
4.200000	1	0.071250
4.216667	1	0.072625
4.233333	1	0.074250
4.250000	1	0.075625
4.266667	1	0.077125
4.283333	1	0.078750
4.300000	1	0.080000
4.316667	1	0.081500
4.333333	1	0.083000
4.350000	1	0.084250
4.366667	1	0.086125
4.383333	1	0.087750
4.400000	1	0.089250
4.416667	1	0.090375
4.433333	1	0.091625
4.450000	1	0.093625
4.466667	1	0.094875
4.483333	1	0.096000
4.500000	1	0.097000
4.516667	1	0.097750
4.533333	1	0.099125
4.550000	1	0.100125
4.566667	1	0.102125
4.583333	1	0.103375
4.600000	1	0.104875
4.616667	1	0.106250
4.633333	1	0.107250
4.650000	1	0.107875
4.666667	1	0.108750
4.683333	1	0.109500
4.700000	1	0.110125
4.716667	1	0.111500
4.733333	1	0.112750
4.750000	1	0.114500
4.766667	1	0.116000
4.783333	1	0.117250
4.800000	1	0.118750
4.816667	1	0.120125
4.833333	1	0.122000
4.850000	1	0.123000
4.866667	1	0.125375
4.883333	1	0.127375
4.900000	1	0.129250
4.916667	1	0.132000
4.933333	1	0.134625
4.950000	1	0.136875
4.966667	1	0.139875
4.983333	1	0.142625
5.000000	1	0.145875
5.016667	1	0.148750
5.033333	1	0.152125
5.050000	1	0.155875
5.066667	1	0.159625
5.083333	1	0.163750
5.100000	1	0.167875
5.116667	1	0.171500
5.133333	1	0.175750
5.150000	1	0.180500
5.166667	1	0.184750
5.183333	1	0.189875
5.200000	1	0.194500
5.216667	1	0.199000
5.233333	1	0.203625
5.250000	1	0.208250
5.266667	1	0.213125
5.283333	1	0.217500
5.300000	1	0.222500
5.316667	1	0.227250
5.333333	1	0.231875
5.350000	1	0.236125
5.366667	1	0.240375
5.383333	1	0.243750
5.400000	1	0.247125
5.416667	1	0.251000
5.433333	1	0.254625
5.450000	1	0.258250
5.466667	1	0.261750
5.483333	1	0.263750
5.500000	1	0.266750
5.516667	1	0.268500
5.533333	1	0.270750
5.550000	1	0.273250
5.566667	1	0.274750
5.583333	1	0.275500
5.600000	1	0.276125
5.616667	1	0.277250
5.633333	1	0.277750
5.650000	1	0.277750
5.666667	1	0.276875
5.683333	1	0.276000
5.700000	1	0.275250
5.716667	1	0.273625
5.733333	1	0.271750
5.750000	1	0.270375
5.766667	1	0.268125
5.783333	1	0.265750
5.800000	1	0.262875
5.816667	1	0.260500
5.833333	1	0.257250
5.850000	1	0.254125
5.866667	1	0.251000
5.883333	1	0.247875
5.900000	1	0.243875
5.916667	1	0.240125
5.933333	1	0.236250
5.950000	1	0.232625
5.966667	1	0.228500
5.983333	1	0.225125
6.000000	1	0.220625
6.016667	1	0.216125
6.033333	1	0.211625
6.050000	1	0.207125
6.066667	1	0.203125
6.083333	1	0.199000
6.100000	1	0.195125
6.116667	1	0.190875
6.133333	1	0.186500
6.150000	1	0.182625
6.166667	1	0.179000
6.183333	1	0.174375
6.200000	1	0.170875
6.216667	1	0.167250
6.233333	1	0.163000
6.250000	1	0.159250
6.266667	1	0.155500
6.283333	1	0.151625
6.300000	1	0.147250
6.316667	1	0.143500
6.333333	1	0.140000
6.350000	1	0.136750
6.366667	1	0.134000
6.383333	1	0.130250
6.400000	1	0.127000
6.416667	1	0.124250
6.433333	1	0.120875
6.450000	1	0.118000
6.466667	1	0.114875
6.483333	1	0.112125
6.500000	1	0.109500
6.516667	1	0.107625
6.533333	1	0.105750
6.550000	1	0.103750
6.566667	1	0.101250
6.583333	1	0.099250
6.600000	1	0.098125
6.616667	1	0.096375
6.633333	1	0.095125
6.650000	1	0.094250
6.666667	1	0.093000
6.683333	1	0.092375
6.700000	1	0.091000
6.716667	1	0.090375
6.733333	1	0.089750
6.750000	1	0.089375
6.766667	1	0.088875
6.783333	1	0.089375
6.800000	1	0.089750
6.816667	1	0.089250
6.833333	1	0.088625
6.850000	1	0.088625
6.866667	1	0.089000
6.883333	1	0.089000
6.900000	1	0.089250
6.916667	1	0.089750
6.933333	1	0.090125
6.950000	1	0.090125
6.966667	1	0.090125
6.983333	1	0.090875
7.000000	1	0.091625
7.016667	1	0.092125
7.033333	1	0.092625
7.050000	1	0.094250
7.066667	1	0.095250
7.083333	1	0.096500
7.100000	1	0.097250
7.116667	1	0.098500
7.133333	1	0.099375
7.150000	1	0.101125
7.166667	1	0.102500
7.183333	1	0.104125
7.200000	1	0.105375
7.216667	1	0.107000
7.233333	1	0.107875
7.250000	1	0.109625
7.266667	1	0.110625
7.283333	1	0.112000
7.300000	1	0.113250
7.316667	1	0.114125
7.333333	1	0.115125
7.350000	1	0.116000
7.366667	1	0.116500
7.383333	1	0.116875
7.400000	1	0.116625
7.416667	1	0.116625
7.433333	1	0.116875
7.450000	1	0.115250
7.466667	1	0.113875
7.483333	1	0.113125
7.500000	1	0.112875
7.516667	1	0.111875
7.533333	1	0.110375
7.550000	1	0.109000
7.566667	1	0.107375
7.583333	1	0.105625
7.600000	1	0.103625
7.616667	1	0.101625
7.633333	1	0.099375
7.650000	1	0.097250
7.666667	1	0.095000
7.683333	1	0.092500
7.700000	1	0.089625
7.716667	1	0.086375
7.733333	1	0.083750
7.750000	1	0.080500
7.766667	1	0.077375
7.783333	1	0.074125
7.800000	1	0.071500
7.816667	1	0.068500
7.833333	1	0.065750
7.850000	1	0.063375
7.866667	1	0.061500
7.883333	1	0.058750
7.900000	1	0.056500
7.916667	1	0.054000
7.933333	1	0.051625
7.950000	1	0.049750
7.966667	1	0.047125
7.983333	1	0.045000
8.000000	1	0.043500
8.016667	1	0.041750
8.033333	1	0.040625
8.050000	1	0.038750
8.066667	1	0.037375
8.083333	1	0.035875
8.100000	1	0.034125
8.116667	1	0.033000
8.133333	1	0.031750
8.150000	1	0.030750
8.166667	1	0.029750
8.183333	1	0.029375
8.200000	1	0.028375
8.216667	1	0.027250
8.233333	1	0.026375
8.250000	1	0.025125
8.266667	1	0.024375
8.283333	1	0.023250
8.300000	1	0.022750
8.316667	1	0.022250
8.333333	1	0.021625
8.350000	1	0.020875
8.366667	1	0.020375
8.383333	1	0.019625
8.400000	1	0.019000
8.416667	1	0.018500
8.433333	1	0.017500
8.450000	1	0.017375
8.466667	1	0.016625
8.483333	1	0.016125
8.500000	1	0.016125
8.516667	1	0.016250
8.533333	1	0.016000
8.550000	1	0.016000
8.566667	1	0.015750
8.583333	1	0.016000
8.600000	1	0.016125
8.616667	1	0.016125
8.633333	1	0.016625
8.650000	1	0.017250
8.666667	1	0.017000
8.683333	1	0.017500
8.700000	1	0.018375
8.716667	1	0.019250
8.733333	1	0.020375
8.750000	1	0.021625
8.766667	1	0.022000
8.783333	1	0.023625
8.800000	1	0.023875
8.816667	1	0.025000
8.833333	1	0.026125
8.850000	1	0.028250
8.866667	1	0.029500
8.883333	1	0.030875
8.900000	1	0.032875
8.916667	1	0.034250
8.933333	1	0.035875
8.950000	1	0.037875
8.966667	1	0.039125
8.983333	1	0.039125
9.000000	1	0.040625
9.016667	1	0.042000
9.033333	1	0.043375
9.050000	1	0.044000
9.066667	1	0.044625
9.083333	1	0.045375
9.100000	1	0.045750
9.116667	1	0.046500
9.133333	1	0.047500
9.150000	1	0.047250
9.166667	1	0.047875
9.183333	1	0.048375
9.200000	1	0.048250
9.216667	1	0.048875
9.233333	1	0.048250
9.250000	1	0.047250
9.266667	1	0.046625
9.283333	1	0.046750
9.300000	1	0.046500
9.316667	1	0.046375
9.333333	1	0.045500
9.350000	1	0.044625
9.366667	1	0.043625
9.383333	1	0.043125
9.400000	1	0.042000
9.416667	1	0.041125
9.433333	1	0.039250
9.450000	1	0.038000
9.466667	1	0.036875
9.483333	1	0.036000
9.500000	1	0.035500
9.516667	1	0.035375
9.533333	1	0.034875
9.550000	1	0.034625
9.566667	1	0.033750
9.583333	1	0.033125
9.600000	1	0.032375
9.616667	1	0.032250
9.633333	1	0.032500
9.650000	1	0.032250
9.666667	1	0.032375
9.683333	1	0.032625
9.700000	1	0.033125
9.716667	1	0.033000
9.733333	1	0.033250
9.750000	1	0.034250
9.766667	1	0.035125
9.783333	1	0.034875
9.800000	1	0.035625
9.816667	1	0.035250
9.833333	1	0.035375
9.850000	1	0.035000
9.866667	1	0.035375
9.883333	1	0.035625
9.900000	1	0.036000
9.916667	1	0.036000
9.933333	1	0.035500
9.950000	1	0.034500
9.966667	1	0.033375
9.983333	1	0.032000
10.000000	1	0.030375
10.016667	1	0.029375
10.033333	1	0.028375
10.050000	1	0.027750
10.066667	1	0.027625
10.083333	1	0.027500
10.100000	1	0.027875
10.116667	1	0.030125
10.133333	1	0.032750
10.150000	1	0.036125
10.166667	1	0.041625
10.183333	1	0.047250
10.200000	1	0.055750
10.216667	1	0.065000
10.233333	1	0.076000
10.250000	1	0.088500
10.266667	1	0.103125
10.283333	1	0.119875
10.300000	1	0.139875
10.316667	1	0.161000
10.333333	1	0.182750
10.350000	1	0.204750
10.366667	1	0.224375
10.383333	1	0.238125
10.400000	1	0.242625
10.416667	1	0.231125
10.433333	1	0.200625
10.450000	1	0.146375
10.466667	1	0.072875
10.483333	1	-0.011125
10.500000	1	-0.082000
10.516667	1	-0.100500
10.533333	1	-0.011125
10.550000	1	0.257375
10.566667	1	0.785375
10.583333	1	1.654875
10.600000	1	2.944500
10.616667	1	4.719500
10.633333	1	7.028125
10.650000	1	9.902500
10.666667	1	13.366625
10.683333	1	17.426500
10.700000	1	22.077750
10.716667	1	27.303375
10.733333	1	33.070000
10.750000	1	39.326500
10.766667	1	45.988875
10.783333	1	52.942875
10.800000	1	60.000500
10.816667	1	66.870250
10.833333	1	73.108125
10.850000	1	78.122750
10.866667	1	81.207500
10.883333	1	81.691250
10.900000	1	79.184250
10.916667	1	73.795500
10.933333	1	66.152375
10.950000	1	57.214875
10.966667	1	47.979625
10.983333	1	39.242750
11.000000	1	31.490750
11.016667	1	24.930125
11.033333	1	19.572375
11.050000	1	15.306875
11.066667	1	11.979250
11.083333	1	9.421500
11.100000	1	7.477375
11.116667	1	6.009500
11.133333	1	4.905250
11.150000	1	4.072875
11.166667	1	3.443875
11.183333	1	2.964875
11.200000	1	2.596250
11.216667	1	2.309125
11.233333	1	2.082500
11.250000	1	1.900250
11.266667	1	1.752250
11.283333	1	1.630125
11.300000	1	1.527750
11.316667	1	1.441500
11.333333	1	1.367375
11.350000	1	1.304375
11.366667	1	1.250125
11.383333	1	1.203375
11.400000	1	1.163125
11.416667	1	1.128000
11.433333	1	1.097625
11.450000	1	1.071250
11.466667	1	1.048750
11.483333	1	1.029875
11.500000	1	1.013500
11.516667	1	1.000000
11.533333	1	0.988000
11.550000	1	0.978500
11.566667	1	0.970500
11.583333	1	0.963625
11.600000	1	0.958625
11.616667	1	0.954625
11.633333	1	0.953500
11.650000	1	0.953500
11.666667	1	0.955000
11.683333	1	0.957750
11.700000	1	0.962000
11.716667	1	0.967250
11.733333	1	0.973625
11.750000	1	0.981250
11.766667	1	0.990375
11.783333	1	0.999375
11.800000	1	1.009125
11.816667	1	1.019125
11.833333	1	1.028750
11.850000	1	1.037750
11.866667	1	1.046125
11.883333	1	1.053375
11.900000	1	1.060250
11.916667	1	1.066000
11.933333	1	1.070750
11.950000	1	1.074625
11.966667	1	1.078125
11.983333	1	1.080875
12.000000	1	1.083125
12.016667	1	1.085250
12.033333	1	1.087750
12.050000	1	1.089750
12.066667	1	1.092750
12.083333	1	1.095750
12.100000	1	1.098125
12.116667	1	1.102125
12.133333	1	1.106250
12.150000	1	1.110875
12.166667	1	1.115375
12.183333	1	1.120625
12.200000	1	1.126375
12.216667	1	1.134000
12.233333	1	1.143375
12.250000	1	1.154125
12.266667	1	1.168625
12.283333	1	1.187625
12.300000	1	1.210625
12.316667	1	1.241375
12.333333	1	1.281125
12.350000	1	1.332500
12.366667	1	1.400375
12.383333	1	1.488000
12.400000	1	1.600625
12.416667	1	1.742875
12.433333	1	1.921000
12.450000	1	2.141125
12.466667	1	2.409250
12.483333	1	2.729625
12.500000	1	3.107500
12.516667	1	3.546000
12.533333	1	4.045000
12.550000	1	4.604250
12.566667	1	5.218250
12.583333	1	5.879500
12.600000	1	6.575750
12.616667	1	7.292750
12.633333	1	8.017875
12.650000	1	8.735250
12.666667	1	9.432500
12.683333	1	10.098000
12.700000	1	10.724875
12.716667	1	11.310875
12.733333	1	11.856500
12.750000	1	12.369375
12.766667	1	12.857875
12.783333	1	13.333375
12.800000	1	13.806000
12.816667	1	14.285625
12.833333	1	14.782500
12.850000	1	15.303375
12.866667	1	15.853750
12.883333	1	16.435750
12.900000	1	17.051500
12.916667	1	17.700875
12.933333	1	18.381625
12.950000	1	19.094125
12.966667	1	19.834625
12.983333	1	20.603125
13.000000	1	21.395625
13.016667	1	22.211625
13.033333	1	23.050500
13.050000	1	23.911875
13.066667	1	24.795125
13.083333	1	25.698250
13.100000	1	26.624000
13.116667	1	27.568500
13.133333	1	28.532125
13.150000	1	29.512875
13.166667	1	30.513750
13.183333	1	31.534125
13.200000	1	32.572375
13.216667	1	33.628875
13.233333	1	34.704375
13.250000	1	35.801625
13.266667	1	36.920250
13.283333	1	38.060625
13.300000	1	39.222750
13.316667	1	40.407750
13.333333	1	41.615000
13.350000	1	42.845125
13.366667	1	44.097750
13.383333	1	45.374375
13.400000	1	46.675000
13.416667	1	48.001000
13.433333	1	49.353250
13.450000	1	50.733750
13.466667	1	52.142000
13.483333	1	53.581125
13.500000	1	55.050500
13.516667	1	56.550500
13.533333	1	58.079125
13.550000	1	59.639000
13.566667	1	61.229625
13.583333	1	62.852125
13.600000	1	64.506125
13.616667	1	66.193500
13.633333	1	67.916750
13.650000	1	69.676000
13.666667	1	71.474125
13.683333	1	73.311500
13.700000	1	75.187625
13.716667	1	77.092875
13.733333	1	78.989875
13.750000	1	80.775500
13.766667	1	82.245625
13.783333	1	83.099000
13.800000	1	82.989125
13.816667	1	81.568000
13.833333	1	78.531375
13.850000	1	73.686750
13.866667	1	67.076500
13.883333	1	59.085375
13.900000	1	50.401250
13.916667	1	41.820375
13.933333	1	33.988000
13.950000	1	27.265750
13.966667	1	21.748875
13.983333	1	17.354750
14.000000	1	13.919625
14.016667	1	11.271250
14.033333	1	9.253875
14.050000	1	7.735500
14.066667	1	6.605500
14.083333	1	5.770625
14.100000	1	5.153375
14.116667	1	4.695500
14.133333	1	4.352000
14.150000	1	4.089250
14.166667	1	3.884250
14.183333	1	3.720875
14.200000	1	3.587125
14.216667	1	3.474750
14.233333	1	3.379500
14.250000	1	3.295875
14.266667	1	3.223250
14.283333	1	3.158250
14.300000	1	3.099625
14.316667	1	3.047500
14.333333	1	3.001000
14.350000	1	2.959750
14.366667	1	2.924375
14.383333	1	2.895125
14.400000	1	2.873375
14.416667	1	2.861125
14.433333	1	2.861500
14.450000	1	2.877875
14.466667	1	2.916125
14.483333	1	2.984000
14.500000	1	3.092375
14.516667	1	3.258500
14.533333	1	3.503875
14.550000	1	3.857500
14.566667	1	4.359625
14.583333	1	5.056375
14.600000	1	6.006625
14.616667	1	7.282625
14.633333	1	8.961375
14.650000	1	11.125375
14.666667	1	13.850750
14.683333	1	17.202125
14.700000	1	21.214000
14.716667	1	25.886125
14.733333	1	31.178750
14.750000	1	36.997750
14.766667	1	43.181875
14.783333	1	49.523375
14.800000	1	55.778875
14.816667	1	61.673500
14.833333	1	66.924250
14.850000	1	71.260500
14.866667	1	74.451875
14.883333	1	76.331000
14.900000	1	76.811875
14.916667	1	75.893625
14.933333	1	73.664000
14.950000	1	70.282625
14.966667	1	65.968500
14.983333	1	60.970625
15.000000	1	55.541250
15.016667	1	49.918750
15.033333	1	44.317750
15.050000	1	38.914750
15.066667	1	33.845125
15.083333	1	29.198375
15.100000	1	25.028375
15.116667	1	21.349250
15.133333	1	18.152125
15.150000	1	15.408500
15.166667	1	13.078375
15.183333	1	11.119125
15.200000	1	9.481625
15.216667	1	8.122500
15.233333	1	6.998500
15.250000	1	6.075750
15.266667	1	5.320125
15.283333	1	4.705500
15.300000	1	4.207875
15.316667	1	3.808250
15.333333	1	3.489625
15.350000	1	3.238500
15.366667	1	3.042375
15.383333	1	2.892000
15.400000	1	2.778375
15.416667	1	2.694625
15.433333	1	2.634625
15.450000	1	2.591375
15.466667	1	2.561625
15.483333	1	2.538875
15.500000	1	2.520000
15.516667	1	2.501000
15.533333	1	2.479375
15.550000	1	2.453250
15.566667	1	2.423250
15.583333	1	2.389250
15.600000	1	2.350625
15.616667	1	2.308625
15.633333	1	2.265875
15.650000	1	2.223125
15.666667	1	2.180250
15.683333	1	2.139000
15.700000	1	2.099500
15.716667	1	2.062125
15.733333	1	2.027375
15.750000	1	1.994250
15.766667	1	1.960875
15.783333	1	1.928000
15.800000	1	1.894625
15.816667	1	1.860875
15.833333	1	1.827500
15.850000	1	1.794125
15.866667	1	1.761500
15.883333	1	1.729875
15.900000	1	1.700750
15.916667	1	1.673750
15.933333	1	1.649750
15.950000	1	1.628750
15.966667	1	1.612000
15.983333	1	1.598500
16.000000	1	1.587625
16.016667	1	1.580625
16.033333	1	1.575250
16.050000	1	1.572125
16.066667	1	1.569750
16.083333	1	1.567375
16.100000	1	1.564875
16.116667	1	1.561750
16.133333	1	1.558000
16.150000	1	1.552250
16.166667	1	1.545125
16.183333	1	1.536625
16.200000	1	1.526500
16.216667	1	1.514625
16.233333	1	1.501500
16.250000	1	1.487500
16.266667	1	1.472375
16.283333	1	1.456000
16.300000	1	1.440125
16.316667	1	1.423875
16.333333	1	1.407750
16.350000	1	1.391500
16.366667	1	1.375625
16.383333	1	1.360750
16.400000	1	1.348000
16.416667	1	1.336750
16.433333	1	1.327750
16.450000	1	1.320750
16.466667	1	1.316250
16.483333	1	1.314500
16.500000	1	1.314875
16.516667	1	1.317125
16.533333	1	1.321125
16.550000	1	1.327000
16.566667	1	1.332875
16.583333	1	1.339125
16.600000	1	1.345250
16.616667	1	1.350000
16.633333	1	1.352875
16.650000	1	1.354625
16.666667	1	1.355250
16.683333	1	1.354625
16.700000	1	1.352375
16.716667	1	1.349875
16.733333	1	1.347125
16.750000	1	1.345250
16.766667	1	1.343875
16.783333	1	1.342625
16.800000	1	1.342250
16.816667	1	1.342625
16.833333	1	1.345125
16.850000	1	1.347500
16.866667	1	1.349625
16.883333	1	1.351625
16.900000	1	1.353000
16.916667	1	1.353250
16.933333	1	1.352375
16.950000	1	1.350875
16.966667	1	1.347375
16.983333	1	1.343000
17.000000	1	1.337625
17.016667	1	1.331375
17.033333	1	1.323125
17.050000	1	1.315375
17.066667	1	1.307750
17.083333	1	1.300000
17.100000	1	1.292375
17.116667	1	1.285875
17.133333	1	1.280500
17.150000	1	1.276375
17.166667	1	1.272375
17.183333	1	1.269750
17.200000	1	1.269500
17.216667	1	1.269750
17.233333	1	1.270625
17.250000	1	1.271750
17.266667	1	1.274000
17.283333	1	1.277250
17.300000	1	1.280625
17.316667	1	1.284125
17.333333	1	1.288000
17.350000	1	1.292500
17.366667	1	1.296875
17.383333	1	1.301125
17.400000	1	1.305625
17.416667	1	1.308625
17.433333	1	1.311250
17.450000	1	1.312625
17.466667	1	1.313125
17.483333	1	1.312125
17.500000	1	1.309500
17.516667	1	1.305375
17.533333	1	1.298625
17.550000	1	1.291625
17.566667	1	1.281250
17.583333	1	1.269875
17.600000	1	1.257125
17.616667	1	1.243375
17.633333	1	1.228750
17.650000	1	1.213375
17.666667	1	1.197125
17.683333	1	1.181125
17.700000	1	1.164625
17.716667	1	1.148375
17.733333	1	1.132375
17.750000	1	1.116250
17.766667	1	1.101500
17.783333	1	1.086750
17.800000	1	1.072750
17.816667	1	1.059875
17.833333	1	1.048250
17.850000	1	1.036875
17.866667	1	1.026250
17.883333	1	1.016125
17.900000	1	1.007125
17.916667	1	0.998250
17.933333	1	0.990125
17.950000	1	0.982500
17.966667	1	0.974750
17.983333	1	0.967375
18.000000	1	0.959500
18.016667	1	0.951375
18.033333	1	0.944375
18.050000	1	0.936125
18.066667	1	0.927250
18.083333	1	0.919125
18.100000	1	0.911750
18.116667	1	0.903625
18.133333	1	0.896625
18.150000	1	0.890625
18.166667	1	0.883750
18.183333	1	0.879375
18.200000	1	0.875250
18.216667	1	0.871375
18.233333	1	0.869375
18.250000	1	0.867625
18.266667	1	0.865875
18.283333	1	0.864500
18.300000	1	0.863625
18.316667	1	0.863750
18.333333	1	0.864000
18.350000	1	0.864875
18.366667	1	0.865750
18.383333	1	0.867250
18.400000	1	0.870375
18.416667	1	0.873750
18.433333	1	0.877375
18.450000	1	0.882750
18.466667	1	0.889750
18.483333	1	0.898125
18.500000	1	0.908250
18.516667	1	0.920250
18.533333	1	0.934375
18.550000	1	0.950250
18.566667	1	0.968625
18.583333	1	0.988500
18.600000	1	1.010625
18.616667	1	1.034875
18.633333	1	1.060500
18.650000	1	1.088500
18.666667	1	1.118000
18.683333	1	1.149250
18.700000	1	1.182125
18.716667	1	1.215500
18.733333	1	1.250375
18.750000	1	1.286125
18.766667	1	1.322250
18.783333	1	1.358625
18.800000	1	1.394625
18.816667	1	1.429250
18.833333	1	1.461750
18.850000	1	1.491125
18.866667	1	1.518000
18.883333	1	1.539625
18.900000	1	1.556000
18.916667	1	1.566625
18.933333	1	1.570375
18.950000	1	1.567500
18.966667	1	1.557125
18.983333	1	1.539625
19.000000	1	1.515375
19.016667	1	1.484750
19.033333	1	1.448375
19.050000	1	1.407125
19.066667	1	1.362250
19.083333	1	1.314250
19.100000	1	1.266000
19.116667	1	1.217125
19.133333	1	1.170000
19.150000	1	1.125250
19.166667	1	1.084500
19.183333	1	1.049750
19.200000	1	1.020875
19.216667	1	1.000250
19.233333	1	0.988250
19.250000	1	0.986750
19.266667	1	0.996625
19.283333	1	1.018125
19.300000	1	1.052125
19.316667	1	1.098875
19.333333	1	1.159625
19.350000	1	1.233000
19.366667	1	1.318375
19.383333	1	1.415500
19.400000	1	1.521375
19.416667	1	1.635625
19.433333	1	1.754000
19.450000	1	1.873375
19.466667	1	1.989625
19.483333	1	2.100625
19.500000	1	2.201250
19.516667	1	2.289750
19.533333	1	2.362625
19.550000	1	2.417375
19.566667	1	2.452375
19.583333	1	2.466875
19.600000	1	2.460125
19.616667	1	2.433750
19.633333	1	2.389375
19.650000	1	2.328875
19.666667	1	2.254750
19.683333	1	2.169000
19.700000	1	2.075625
19.716667	1	1.977125
19.733333	1	1.875625
19.750000	1	1.773500
19.766667	1	1.672000
19.783333	1	1.572750
19.800000	1	1.477250
19.816667	1	1.386875
19.833333	1	1.301750
19.850000	1	1.221875
19.866667	1	1.148500
19.883333	1	1.080125
19.900000	1	1.018375
19.916667	1	0.962250
19.933333	1	0.911250
19.950000	1	0.865375
19.966667	1	0.825000
19.983333	1	0.789125
20.000000	1	0.758375
20.016667	1	0.732875
20.033333	1	0.711500
20.050000	1	0.693875
20.066667	1	0.682125
20.083333	1	0.673500
20.100000	1	0.668875
20.116667	1	0.668000
20.133333	1	0.671625
20.150000	1	0.678125
20.166667	1	0.687125
20.183333	1	0.698250
20.200000	1	0.711250
20.216667	1	0.725375
20.233333	1	0.740000
20.250000	1	0.754000
20.266667	1	0.767375
20.283333	1	0.779000
20.300000	1	0.788375
20.316667	1	0.794500
20.333333	1	0.797750
20.350000	1	0.797750
20.366667	1	0.794000
20.383333	1	0.786750
20.400000	1	0.776125
20.416667	1	0.763625
20.433333	1	0.749500
20.450000	1	0.733250
20.466667	1	0.717375
20.483333	1	0.702250
20.500000	1	0.689000
20.516667	1	0.677750
20.533333	1	0.669875
20.550000	1	0.666625
20.566667	1	0.669375
20.583333	1	0.678125
20.600000	1	0.693875
20.616667	1	0.717750
20.633333	1	0.749375
20.650000	1	0.789125
20.666667	1	0.838375
20.683333	1	0.895875
20.700000	1	0.961125
20.716667	1	1.033375
20.733333	1	1.111000
20.750000	1	1.193000
20.766667	1	1.277125
20.783333	1	1.361000
20.800000	1	1.441125
20.816667	1	1.514500
20.833333	1	1.580750
20.850000	1	1.636375
20.866667	1	1.679125
20.883333	1	1.706875
20.900000	1	1.721375
20.916667	1	1.720250
20.933333	1	1.704500
20.950000	1	1.674625
20.966667	1	1.631750
20.983333	1	1.578125
21.000000	1	1.515875
21.016667	1	1.447875
21.033333	1	1.374500
21.050000	1	1.298250
21.066667	1	1.221750
21.083333	1	1.146875
21.100000	1	1.074125
21.116667	1	1.006125
21.133333	1	0.942500
21.150000	1	0.883500
21.166667	1	0.829375
21.183333	1	0.780750
21.200000	1	0.736750
21.216667	1	0.698750
21.233333	1	0.664875
21.250000	1	0.635375
21.266667	1	0.610250
21.283333	1	0.588750
21.300000	1	0.569750
21.316667	1	0.553500
21.333333	1	0.540250
21.350000	1	0.528750
21.366667	1	0.518250
21.383333	1	0.509500
21.400000	1	0.502375
21.416667	1	0.496375
21.433333	1	0.491125
21.450000	1	0.486500
21.466667	1	0.482125
21.483333	1	0.478500
21.500000	1	0.476000
21.516667	1	0.473625
21.533333	1	0.471500
21.550000	1	0.470375
21.566667	1	0.469000
21.583333	1	0.468125
21.600000	1	0.468000
21.616667	1	0.468875
21.633333	1	0.469500
21.650000	1	0.470875
21.666667	1	0.473250
21.683333	1	0.476625
21.700000	1	0.480375
21.716667	1	0.484750
21.733333	1	0.489625
21.750000	1	0.495250
21.766667	1	0.501750
21.783333	1	0.508250
21.800000	1	0.514750
21.816667	1	0.522375
21.833333	1	0.530500
21.850000	1	0.538375
21.866667	1	0.546625
21.883333	1	0.555000
21.900000	1	0.563625
21.916667	1	0.571375
21.933333	1	0.578875
21.950000	1	0.586375
21.966667	1	0.593875
21.983333	1	0.600500
22.000000	1	0.607375
22.016667	1	0.613625
22.033333	1	0.619375
22.050000	1	0.623750
22.066667	1	0.627625
22.083333	1	0.631500
22.100000	1	0.634500
22.116667	1	0.636875
22.133333	1	0.638125
22.150000	1	0.638625
22.166667	1	0.637500
22.183333	1	0.635875
22.200000	1	0.633500
22.216667	1	0.629500
22.233333	1	0.624375
22.250000	1	0.618125
22.266667	1	0.610125
22.283333	1	0.601125
22.300000	1	0.590375
22.316667	1	0.579250
22.333333	1	0.567125
22.350000	1	0.555125
22.366667	1	0.542625
22.383333	1	0.529750
22.400000	1	0.516625
22.416667	1	0.503375
22.433333	1	0.490250
22.450000	1	0.477125
22.466667	1	0.464875
22.483333	1	0.453625
22.500000	1	0.442125
22.516667	1	0.432125
22.533333	1	0.422375
22.550000	1	0.413250
22.566667	1	0.404625
22.583333	1	0.397000
22.600000	1	0.388875
22.616667	1	0.381875
22.633333	1	0.374875
22.650000	1	0.368375
22.666667	1	0.362250
22.683333	1	0.356750
22.700000	1	0.351625
22.716667	1	0.346875
22.733333	1	0.342125
22.750000	1	0.337250
22.766667	1	0.333625
22.783333	1	0.329875
22.800000	1	0.326125
22.816667	1	0.322750
22.833333	1	0.319375
22.850000	1	0.316875
22.866667	1	0.314375
22.883333	1	0.312250
22.900000	1	0.309875
22.916667	1	0.308125
22.933333	1	0.307375
22.950000	1	0.307125
22.966667	1	0.307125
22.983333	1	0.307250
23.000000	1	0.308000
23.016667	1	0.308500
23.033333	1	0.309250
23.050000	1	0.310875
23.066667	1	0.312625
23.083333	1	0.314875
23.100000	1	0.317750
23.116667	1	0.319875
23.133333	1	0.322625
23.150000	1	0.324875
23.166667	1	0.328250
23.183333	1	0.330750
23.200000	1	0.333750
23.216667	1	0.336375
23.233333	1	0.339250
23.250000	1	0.342625
23.266667	1	0.346750
23.283333	1	0.352125
23.300000	1	0.358250
23.316667	1	0.366000
23.333333	1	0.375000
23.350000	1	0.386250
23.366667	1	0.401250
23.383333	1	0.420375
23.400000	1	0.445125
23.416667	1	0.475500
23.433333	1	0.512750
23.450000	1	0.557875
23.466667	1	0.613125
23.483333	1	0.680125
23.500000	1	0.759625
23.516667	1	0.853250
23.533333	1	0.962875
23.550000	1	1.090375
23.566667	1	1.235000
23.583333	1	1.398125
23.600000	1	1.579375
23.616667	1	1.778375
23.633333	1	1.993875
23.650000	1	2.224125
23.666667	1	2.467125
23.683333	1	2.718750
23.700000	1	2.975500
23.716667	1	3.233000
23.733333	1	3.486000
23.750000	1	3.728875
23.766667	1	3.956250
23.783333	1	4.163125
23.800000	1	4.344750
23.816667	1	4.496500
23.833333	1	4.615250
23.850000	1	4.697000
23.866667	1	4.741625
23.883333	1	4.748375
23.900000	1	4.717875
23.916667	1	4.651000
23.933333	1	4.551125
23.950000	1	4.421250
23.966667	1	4.265000
23.983333	1	4.087000
24.000000	1	3.892500
24.016667	1	3.684250
24.033333	1	3.468750
24.050000	1	3.249625
24.066667	1	3.030375
24.083333	1	2.813750
24.100000	1	2.602000
24.116667	1	2.397875
24.133333	1	2.204375
24.150000	1	2.022000
24.166667	1	1.850750
24.183333	1	1.692625
24.200000	1	1.546375
24.216667	1	1.413125
24.233333	1	1.291625
24.250000	1	1.182125
24.266667	1	1.082875
24.283333	1	0.994000
24.300000	1	0.915875
24.316667	1	0.846500
24.333333	1	0.785375
24.350000	1	0.731375
24.366667	1	0.685000
24.383333	1	0.644875
24.400000	1	0.611000
24.416667	1	0.582625
24.433333	1	0.558125
24.450000	1	0.538375
24.466667	1	0.522750
24.483333	1	0.509250
24.500000	1	0.498750
24.516667	1	0.490625
24.533333	1	0.484500
24.550000	1	0.479375
24.566667	1	0.475250
24.583333	1	0.471500
24.600000	1	0.468875
24.616667	1	0.466750
24.633333	1	0.463500
24.650000	1	0.460875
24.666667	1	0.458375
24.683333	1	0.454750
24.700000	1	0.451125
24.716667	1	0.447500
24.733333	1	0.443875
24.750000	1	0.439375
24.766667	1	0.434500
24.783333	1	0.429875
24.800000	1	0.425250
24.816667	1	0.420250
24.833333	1	0.415625
24.850000	1	0.410375
24.866667	1	0.405125
24.883333	1	0.400875
24.900000	1	0.395875
24.916667	1	0.391500
24.933333	1	0.388375
24.950000	1	0.384375
24.966667	1	0.379875
24.983333	1	0.376000
25.000000	1	0.372375
25.016667	1	0.368750
25.033333	1	0.365000
25.050000	1	0.361375
25.066667	1	0.358250
25.083333	1	0.355625
25.100000	1	0.352625
25.116667	1	0.350250
25.133333	1	0.346875
25.150000	1	0.343625
25.166667	1	0.340250
25.183333	1	0.337250
25.200000	1	0.334000
25.216667	1	0.331250
25.233333	1	0.328625
25.250000	1	0.326375
25.266667	1	0.323625
25.283333	1	0.321500
25.300000	1	0.319250
25.316667	1	0.317500
25.333333	1	0.315875
25.350000	1	0.314375
25.366667	1	0.312750
25.383333	1	0.311625
25.400000	1	0.311125
25.416667	1	0.311250
25.433333	1	0.310875
25.450000	1	0.310625
25.466667	1	0.310750
25.483333	1	0.311625
25.500000	1	0.311750
25.516667	1	0.312250
25.533333	1	0.313250
25.550000	1	0.313875
25.566667	1	0.314625
25.583333	1	0.315875
25.600000	1	0.316500
25.616667	1	0.317125
25.633333	1	0.318375
25.650000	1	0.319000
25.666667	1	0.319625
25.683333	1	0.319750
25.700000	1	0.320750
25.716667	1	0.320875
25.733333	1	0.320500
25.750000	1	0.319500
25.766667	1	0.318750
25.783333	1	0.318875
25.800000	1	0.318625
25.816667	1	0.318000
25.833333	1	0.317875
25.850000	1	0.318000
25.866667	1	0.318250
25.883333	1	0.318875
25.900000	1	0.320125
25.916667	1	0.321125
25.933333	1	0.322125
25.950000	1	0.324250
25.966667	1	0.326500
25.983333	1	0.329250
26.000000	1	0.332375
26.016667	1	0.335875
26.033333	1	0.340000
26.050000	1	0.344125
26.066667	1	0.349250
26.083333	1	0.354625
26.100000	1	0.359375
26.116667	1	0.364500
26.133333	1	0.369375
26.150000	1	0.373875
26.166667	1	0.379625
26.183333	1	0.384500
26.200000	1	0.388500
26.216667	1	0.392375
26.233333	1	0.396625
26.250000	1	0.400250
26.266667	1	0.402875
26.283333	1	0.404375
26.300000	1	0.406500
26.316667	1	0.406625
26.333333	1	0.406750
26.350000	1	0.406125
26.366667	1	0.404625
26.383333	1	0.402500
26.400000	1	0.399375
26.416667	1	0.396000
26.433333	1	0.392000
26.450000	1	0.386750
26.466667	1	0.381125
26.483333	1	0.375250
26.500000	1	0.368500
26.516667	1	0.362500
26.533333	1	0.355500
26.550000	1	0.348250
26.566667	1	0.340500
26.583333	1	0.333750
26.600000	1	0.326875
26.616667	1	0.319750
26.633333	1	0.312750
26.650000	1	0.306500
26.666667	1	0.299750
26.683333	1	0.292375
26.700000	1	0.285500
26.716667	1	0.280125
26.733333	1	0.274250
26.750000	1	0.269125
26.766667	1	0.263500
26.783333	1	0.258375
26.800000	1	0.254125
26.816667	1	0.250125
26.833333	1	0.246625
26.850000	1	0.243000
26.866667	1	0.240625
26.883333	1	0.238125
26.900000	1	0.235875
26.916667	1	0.234250
26.933333	1	0.233500
26.950000	1	0.232750
26.966667	1	0.232000
26.983333	1	0.232000
27.000000	1	0.232000
27.016667	1	0.232625
27.033333	1	0.234125
27.050000	1	0.235875
27.066667	1	0.238250
27.083333	1	0.241750
27.100000	1	0.246375
27.116667	1	0.251750
27.133333	1	0.258125
27.150000	1	0.265375
27.166667	1	0.274125
27.183333	1	0.285125
27.200000	1	0.298375
27.216667	1	0.313500
27.233333	1	0.332125
27.250000	1	0.352500
27.266667	1	0.377250
27.283333	1	0.406625
27.300000	1	0.440000
27.316667	1	0.478875
27.333333	1	0.523500
27.350000	1	0.575250
27.366667	1	0.634250
27.383333	1	0.701750
27.400000	1	0.778375
27.416667	1	0.865250
27.433333	1	0.963250
27.450000	1	1.072250
27.466667	1	1.193375
27.483333	1	1.326625
27.500000	1	1.472500
27.516667	1	1.631125
27.533333	1	1.801875
27.550000	1	1.984125
27.566667	1	2.177125
27.583333	1	2.378625
27.600000	1	2.588500
27.616667	1	2.803875
27.633333	1	3.022750
27.650000	1	3.242875
27.666667	1	3.461000
27.683333	1	3.674250
27.700000	1	3.879500
27.716667	1	4.072750
27.733333	1	4.251250
27.750000	1	4.410625
27.766667	1	4.549250
27.783333	1	4.664250
27.800000	1	4.753125
27.816667	1	4.814250
27.833333	1	4.847125
27.850000	1	4.850125
27.866667	1	4.822625
27.883333	1	4.766125
27.900000	1	4.681250
27.916667	1	4.570250
27.933333	1	4.435375
27.950000	1	4.279500
27.966667	1	4.105125
27.983333	1	3.916250
28.000000	1	3.716250
28.016667	1	3.508375
28.033333	1	3.295250
28.050000	1	3.080125
28.066667	1	2.866125
28.083333	1	2.656000
28.100000	1	2.451875
28.116667	1	2.255375
28.133333	1	2.067750
28.150000	1	1.890500
28.166667	1	1.724625
28.183333	1	1.571500
28.200000	1	1.430875
28.216667	1	1.300875
28.233333	1	1.182875
28.250000	1	1.075625
28.266667	1	0.978875
28.283333	1	0.892875
28.300000	1	0.816125
28.316667	1	0.749000
28.333333	1	0.690000
28.350000	1	0.639500
28.366667	1	0.596625
28.383333	1	0.560125
28.400000	1	0.529875
28.416667	1	0.505250
28.433333	1	0.486000
28.450000	1	0.470750
28.466667	1	0.459375
28.483333	1	0.452125
28.500000	1	0.448125
28.516667	1	0.448000
28.533333	1	0.450000
28.550000	1	0.453875
28.566667	1	0.459750
28.583333	1	0.467875
28.600000	1	0.476625
28.616667	1	0.487250
28.633333	1	0.498750
28.650000	1	0.510625
28.666667	1	0.522125
28.683333	1	0.533875
28.700000	1	0.545000
28.716667	1	0.556125
28.733333	1	0.567625
28.750000	1	0.577875
28.766667	1	0.587625
28.783333	1	0.597000
28.800000	1	0.604250
28.816667	1	0.611000
28.833333	1	0.617375
28.850000	1	0.621125
28.866667	1	0.624125
28.883333	1	0.625875
28.900000	1	0.627375
28.916667	1	0.627000
28.933333	1	0.625000
28.950000	1	0.621250
28.966667	1	0.616250
28.983333	1	0.609875
29.000000	1	0.602750
29.016667	1	0.594500
29.033333	1	0.584625
29.050000	1	0.574500
29.066667	1	0.562750
29.083333	1	0.549875
29.100000	1	0.536250
29.116667	1	0.522125
29.133333	1	0.508250
29.150000	1	0.493625
29.166667	1	0.478625
29.183333	1	0.463375
29.200000	1	0.448000
29.216667	1	0.432250
29.233333	1	0.416375
29.250000	1	0.401000
29.266667	1	0.384750
29.283333	1	0.369500
29.300000	1	0.354625
29.316667	1	0.339625
29.333333	1	0.325500
29.350000	1	0.311875
29.366667	1	0.299000
29.383333	1	0.286750
29.400000	1	0.274750
29.416667	1	0.263250
29.433333	1	0.252000
29.450000	1	0.242375
29.466667	1	0.232875
29.483333	1	0.223875
29.500000	1	0.214875
29.516667	1	0.207500
29.533333	1	0.200000
29.550000	1	0.193250
29.566667	1	0.187625
29.583333	1	0.181625
29.600000	1	0.177000
29.616667	1	0.172375
29.633333	1	0.167750
29.650000	1	0.163250
29.666667	1	0.160625
29.683333	1	0.157500
29.700000	1	0.154500
29.716667	1	0.152250
29.733333	1	0.150250
29.750000	1	0.147750
29.766667	1	0.145000
29.783333	1	0.144000
29.800000	1	0.142875
29.816667	1	0.141750
29.833333	1	0.140250
29.850000	1	0.139625
29.866667	1	0.138875
29.883333	1	0.138000
29.900000	1	0.137250
29.916667	1	0.136500
29.933333	1	0.135375
29.950000	1	0.134750
29.966667	1	0.134000
29.983333	1	0.133750
30.000000	1	0.133250
30.016667	1	0.132000
30.033333	1	0.131625
30.050000	1	0.131625
30.066667	1	0.131000
30.083333	1	0.130500
30.100000	1	0.129750
30.116667	1	0.129125
30.133333	1	0.128375
30.150000	1	0.127750
30.166667	1	0.126875
30.183333	1	0.125875
30.200000	1	0.125500
30.216667	1	0.125500
30.233333	1	0.124875
30.250000	1	0.123875
30.266667	1	0.123375
30.283333	1	0.123500
30.300000	1	0.122250
30.316667	1	0.122125
30.333333	1	0.122125
30.350000	1	0.122125
30.366667	1	0.122375
30.383333	1	0.122875
30.400000	1	0.124000
30.416667	1	0.125125
30.433333	1	0.126000
30.450000	1	0.127375
30.466667	1	0.128500
30.483333	1	0.131250
30.500000	1	0.133375
30.516667	1	0.136250
30.533333	1	0.139375
30.550000	1	0.143125
30.566667	1	0.147625
30.583333	1	0.152375
30.600000	1	0.157875
30.616667	1	0.163500
30.633333	1	0.170250
30.650000	1	0.177625
30.666667	1	0.185000
30.683333	1	0.192375
30.700000	1	0.200875
30.716667	1	0.209500
30.733333	1	0.218875
30.750000	1	0.229750
30.766667	1	0.241000
30.783333	1	0.253250
30.800000	1	0.265625
30.816667	1	0.279625
30.833333	1	0.294000
30.850000	1	0.309500
30.866667	1	0.325875
30.883333	1	0.344625
30.900000	1	0.364750
30.916667	1	0.387000
30.933333	1	0.411625
30.950000	1	0.438000
30.966667	1	0.468750
30.983333	1	0.502500
31.000000	1	0.539500
31.016667	1	0.581375
31.033333	1	0.628250
31.050000	1	0.680750
31.066667	1	0.739375
31.083333	1	0.804375
31.100000	1	0.877375
31.116667	1	0.957500
31.133333	1	1.046250
31.150000	1	1.142625
31.166667	1	1.247875
31.183333	1	1.362750
31.200000	1	1.485750
31.216667	1	1.618750
31.233333	1	1.759625
31.250000	1	1.908000
31.266667	1	2.063875
31.283333	1	2.225500
31.300000	1	2.393000
31.316667	1	2.563625
31.333333	1	2.735875
31.350000	1	2.908750
31.366667	1	3.079875
31.383333	1	3.247875
31.400000	1	3.409875
31.416667	1	3.565000
31.433333	1	3.709750
31.450000	1	3.843625
31.466667	1	3.963125
31.483333	1	4.067750
31.500000	1	4.155625
31.516667	1	4.225375
31.533333	1	4.275750
31.550000	1	4.307750
31.566667	1	4.320000
31.583333	1	4.312750
31.600000	1	4.286125
31.616667	1	4.240125
31.633333	1	4.176250
31.650000	1	4.095875
31.666667	1	4.000625
31.683333	1	3.889750
31.700000	1	3.767875
31.716667	1	3.635000
31.733333	1	3.494000
31.750000	1	3.346125
31.766667	1	3.193250
31.783333	1	3.036375
31.800000	1	2.877750
31.816667	1	2.718875
31.833333	1	2.560500
31.850000	1	2.404250
31.866667	1	2.252500
31.883333	1	2.104000
31.900000	1	1.961375
31.916667	1	1.824875
31.933333	1	1.694375
31.950000	1	1.570625
31.966667	1	1.453375
31.983333	1	1.343875
32.000000	1	1.240875
32.016667	1	1.143750
32.033333	1	1.053750
32.050000	1	0.969625
32.066667	1	0.892500
32.083333	1	0.821750
32.100000	1	0.756125
32.116667	1	0.695750
32.133333	1	0.640875
32.150000	1	0.590125
32.166667	1	0.543250
32.183333	1	0.500250
32.200000	1	0.460625
32.216667	1	0.424250
32.233333	1	0.391125
32.250000	1	0.361125
32.266667	1	0.334500
32.283333	1	0.309375
32.300000	1	0.286750
32.316667	1	0.266250
32.333333	1	0.247250
32.350000	1	0.230000
32.366667	1	0.214500
32.383333	1	0.201000
32.400000	1	0.188250
32.416667	1	0.176500
32.433333	1	0.165875
32.450000	1	0.156875
32.466667	1	0.147875
32.483333	1	0.139625
32.500000	1	0.132125
32.516667	1	0.125000
32.533333	1	0.118875
32.550000	1	0.113875
32.566667	1	0.108750
32.583333	1	0.104500
32.600000	1	0.099875
32.616667	1	0.096000
32.633333	1	0.092375
32.650000	1	0.089125
32.666667	1	0.085875
32.683333	1	0.083125
32.700000	1	0.080375
32.716667	1	0.078000
32.733333	1	0.075125
32.750000	1	0.072500
32.766667	1	0.070625
32.783333	1	0.068875
32.800000	1	0.067125
32.816667	1	0.064375
32.833333	1	0.062000
32.850000	1	0.060000
32.866667	1	0.058375
32.883333	1	0.056125
32.900000	1	0.054875
32.916667	1	0.053250
32.933333	1	0.052000
32.950000	1	0.050625
32.966667	1	0.049500
32.983333	1	0.048500
33.000000	1	0.047625
33.016667	1	0.047000
33.033333	1	0.046500
33.050000	1	0.046250
33.066667	1	0.045750
33.083333	1	0.045625
33.100000	1	0.046125
33.116667	1	0.046375
33.133333	1	0.046625
33.150000	1	0.047250
33.166667	1	0.047750
33.183333	1	0.048250
33.200000	1	0.049125
33.216667	1	0.050250
33.233333	1	0.051125
33.250000	1	0.051375
33.266667	1	0.052750
33.283333	1	0.053625
33.300000	1	0.054500
33.316667	1	0.055625
33.333333	1	0.056750
33.350000	1	0.058250
33.366667	1	0.059125
33.383333	1	0.060625
33.400000	1	0.061375
33.416667	1	0.062625
33.433333	1	0.063625
33.450000	1	0.065625
33.466667	1	0.066625
33.483333	1	0.067750
33.500000	1	0.068750
33.516667	1	0.069875
33.533333	1	0.070250
33.550000	1	0.071500
33.566667	1	0.072750
33.583333	1	0.074250
33.600000	1	0.075500
33.616667	1	0.076750
33.633333	1	0.078375
33.650000	1	0.080000
33.666667	1	0.081000
33.683333	1	0.082500
33.700000	1	0.085000
33.716667	1	0.087000
33.733333	1	0.089125
33.750000	1	0.090875
33.766667	1	0.093250
33.783333	1	0.095625
33.800000	1	0.097375
33.816667	1	0.099625
33.833333	1	0.101125
33.850000	1	0.102375
33.866667	1	0.104625
33.883333	1	0.106250
33.900000	1	0.107875
33.916667	1	0.109875
33.933333	1	0.111500
33.950000	1	0.113000
33.966667	1	0.114500
33.983333	1	0.115500
34.000000	1	0.116750
34.016667	1	0.117625
34.033333	1	0.118375
34.050000	1	0.118375
34.066667	1	0.118750
34.083333	1	0.119250
34.100000	1	0.119625
34.116667	1	0.120000
34.133333	1	0.120375
34.150000	1	0.120500
34.166667	1	0.120250
34.183333	1	0.120250
34.200000	1	0.120000
34.216667	1	0.119250
34.233333	1	0.117875
34.250000	1	0.117375
34.266667	1	0.117000
34.283333	1	0.117125
34.300000	1	0.117000
34.316667	1	0.116750
34.333333	1	0.116500
34.350000	1	0.116250
34.366667	1	0.117125
34.383333	1	0.117875
34.400000	1	0.118250
34.416667	1	0.118875
34.433333	1	0.119500
34.450000	1	0.119875
34.466667	1	0.120750
34.483333	1	0.122125
34.500000	1	0.123375
34.516667	1	0.124625
34.533333	1	0.126250
34.550000	1	0.127750
34.566667	1	0.129625
34.583333	1	0.130875
34.600000	1	0.132125
34.616667	1	0.134000
34.633333	1	0.135875
34.650000	1	0.136750
34.666667	1	0.138250
34.683333	1	0.139500
34.700000	1	0.140750
34.716667	1	0.142500
34.733333	1	0.143750
34.750000	1	0.145125
34.766667	1	0.145500
34.783333	1	0.147125
34.800000	1	0.147125
34.816667	1	0.147750
34.833333	1	0.147625
34.850000	1	0.148000
34.866667	1	0.147125
34.883333	1	0.146875
34.900000	1	0.146250
34.916667	1	0.146500
34.933333	1	0.146250
34.950000	1	0.145500
34.966667	1	0.144875
34.983333	1	0.144000
35.000000	1	0.143125
35.016667	1	0.142000
35.033333	1	0.140875
35.050000	1	0.139500
35.066667	1	0.138250
35.083333	1	0.136750
35.100000	1	0.136250
35.116667	1	0.135625
35.133333	1	0.134500
35.150000	1	0.133625
35.166667	1	0.133250
35.183333	1	0.132625
35.200000	1	0.132625
35.216667	1	0.132625
35.233333	1	0.132750
35.250000	1	0.132875
35.266667	1	0.132250
35.283333	1	0.132125
35.300000	1	0.132250
35.316667	1	0.133000
35.333333	1	0.133750
35.350000	1	0.134250
35.366667	1	0.135375
35.383333	1	0.136250
35.400000	1	0.137625
35.416667	1	0.138500
35.433333	1	0.139250
35.450000	1	0.140125
35.466667	1	0.141625
35.483333	1	0.142750
35.500000	1	0.144250
35.516667	1	0.146125
35.533333	1	0.147250
35.550000	1	0.148500
35.566667	1	0.150000
35.583333	1	0.151250
35.600000	1	0.152125
35.616667	1	0.153250
35.633333	1	0.154125
35.650000	1	0.154250
35.666667	1	0.154750
35.683333	1	0.155375
35.700000	1	0.156250
35.716667	1	0.156750
35.733333	1	0.156500
35.750000	1	0.157125
35.766667	1	0.156750
35.783333	1	0.155625
35.800000	1	0.154375
35.816667	1	0.152625
35.833333	1	0.151750
35.850000	1	0.150875
35.866667	1	0.149750
35.883333	1	0.148875
35.900000	1	0.147500
35.916667	1	0.146750
35.933333	1	0.145500
35.950000	1	0.144625
35.966667	1	0.143125
35.983333	1	0.142000
36.000000	1	0.141250
36.016667	1	0.140125
36.033333	1	0.139500
36.050000	1	0.138750
36.066667	1	0.138125
36.083333	1	0.137625
36.100000	1	0.137500
36.116667	1	0.137625
36.133333	1	0.137875
36.150000	1	0.138625
36.166667	1	0.138875
36.183333	1	0.139000
36.200000	1	0.139500
36.216667	1	0.140250
36.233333	1	0.140625
36.250000	1	0.141750
36.266667	1	0.141625
36.283333	1	0.142750
36.300000	1	0.143625
36.316667	1	0.144750
36.333333	1	0.145500
36.350000	1	0.146875
36.366667	1	0.147625
36.383333	1	0.148875
36.400000	1	0.149125
36.416667	1	0.148875
36.433333	1	0.149500
36.450000	1	0.149625
36.466667	1	0.149250
36.483333	1	0.149125
36.500000	1	0.149000
36.516667	1	0.148000
36.533333	1	0.147500
36.550000	1	0.146375
36.566667	1	0.145250
36.583333	1	0.144750
36.600000	1	0.143375
36.616667	1	0.141250
36.633333	1	0.138875
36.650000	1	0.136625
36.666667	1	0.134500
36.683333	1	0.132375
36.700000	1	0.129750
36.716667	1	0.126375
36.733333	1	0.123000
36.750000	1	0.120375
36.766667	1	0.117125
36.783333	1	0.114375
36.800000	1	0.111500
36.816667	1	0.108500
36.833333	1	0.105500
36.850000	1	0.103375
36.866667	1	0.101000
36.883333	1	0.098250
36.900000	1	0.095250
36.916667	1	0.092500
36.933333	1	0.089750
36.950000	1	0.087625
36.966667	1	0.085750
36.983333	1	0.084000
37.000000	1	0.082250
37.016667	1	0.080375
37.033333	1	0.078250
37.050000	1	0.077750
37.066667	1	0.077375
37.083333	1	0.077125
37.100000	1	0.076625
37.116667	1	0.076125
37.133333	1	0.075125
37.150000	1	0.074750
37.166667	1	0.074250
37.183333	1	0.074250
37.200000	1	0.073875
37.216667	1	0.073500
37.233333	1	0.073125
37.250000	1	0.072375
37.266667	1	0.072625
37.283333	1	0.072250
37.300000	1	0.072500
37.316667	1	0.072125
37.333333	1	0.071375
37.350000	1	0.070875
37.366667	1	0.070000
37.383333	1	0.068875
37.400000	1	0.068000
37.416667	1	0.067375
37.433333	1	0.066375
37.450000	1	0.065125
37.466667	1	0.063750
37.483333	1	0.062375
37.500000	1	0.060750
37.516667	1	0.059125
37.533333	1	0.058375
37.550000	1	0.056875
37.566667	1	0.055500
37.583333	1	0.054125
37.600000	1	0.052500
37.616667	1	0.051000
37.633333	1	0.048375
37.650000	1	0.047375
37.666667	1	0.046500
37.683333	1	0.044625
37.700000	1	0.042500
37.716667	1	0.041625
37.733333	1	0.040250
37.750000	1	0.039125
37.766667	1	0.037500
37.783333	1	0.036875
37.800000	1	0.036000
37.816667	1	0.034750
37.833333	1	0.033625
37.850000	1	0.032250
37.866667	1	0.030875
37.883333	1	0.029750
37.900000	1	0.029500
37.916667	1	0.028625
37.933333	1	0.027875
37.950000	1	0.027500
37.966667	1	0.027000
37.983333	1	0.027125
38.000000	1	0.026625
38.016667	1	0.026125
38.033333	1	0.026125
38.050000	1	0.026750
38.066667	1	0.026875
38.083333	1	0.027750
38.100000	1	0.028000
38.116667	1	0.028000
38.133333	1	0.028875
38.150000	1	0.030000
38.166667	1	0.031125
38.183333	1	0.032375
38.200000	1	0.033250
38.216667	1	0.034750
38.233333	1	0.036750
38.250000	1	0.037750
38.266667	1	0.039250
38.283333	1	0.040750
38.300000	1	0.042250
38.316667	1	0.042250
38.333333	1	0.043500
38.350000	1	0.045625
38.366667	1	0.047500
38.383333	1	0.048625
38.400000	1	0.050000
38.416667	1	0.052000
38.433333	1	0.053625
38.450000	1	0.055250
38.466667	1	0.056750
38.483333	1	0.057500
38.500000	1	0.058875
38.516667	1	0.060250
38.533333	1	0.061000
38.550000	1	0.062000
38.566667	1	0.063250
38.583333	1	0.064125
38.600000	1	0.064750
38.616667	1	0.065250
38.633333	1	0.066500
38.650000	1	0.067875
38.666667	1	0.068750
38.683333	1	0.069375
38.700000	1	0.069875
38.716667	1	0.070875
38.733333	1	0.071625
38.750000	1	0.072000
38.766667	1	0.072875
38.783333	1	0.073875
38.800000	1	0.074500
38.816667	1	0.075375
38.833333	1	0.076000
38.850000	1	0.077000
38.866667	1	0.077625
38.883333	1	0.078125
38.900000	1	0.078500
38.916667	1	0.078875
38.933333	1	0.079000
38.950000	1	0.080000
38.966667	1	0.080375
38.983333	1	0.081000
39.000000	1	0.081500
39.016667	1	0.082125
39.033333	1	0.083500
39.050000	1	0.083375
39.066667	1	0.083625
39.083333	1	0.083750
39.100000	1	0.084125
39.116667	1	0.084375
39.133333	1	0.084250
39.150000	1	0.084500
39.166667	1	0.084875
39.183333	1	0.085125
39.200000	1	0.084375
39.216667	1	0.083875
39.233333	1	0.083375
39.250000	1	0.082875
39.266667	1	0.082500
39.283333	1	0.081625
39.300000	1	0.080125
39.316667	1	0.079500
39.333333	1	0.078000
39.350000	1	0.075625
39.366667	1	0.074625
39.383333	1	0.072625
39.400000	1	0.070250
39.416667	1	0.068750
39.433333	1	0.067375
39.450000	1	0.066000
39.466667	1	0.063875
39.483333	1	0.062250
39.500000	1	0.061125
39.516667	1	0.058625
39.533333	1	0.056375
39.550000	1	0.054750
39.566667	1	0.053250
39.583333	1	0.051625
39.600000	1	0.050625
39.616667	1	0.049875
39.633333	1	0.048500
39.650000	1	0.047375
39.666667	1	0.045500
39.683333	1	0.044250
39.700000	1	0.043875
39.716667	1	0.043125
39.733333	1	0.043000
39.750000	1	0.042625
39.766667	1	0.042125
39.783333	1	0.041625
39.800000	1	0.041625
39.816667	1	0.042125
39.833333	1	0.042375
39.850000	1	0.041375
39.866667	1	0.040375
39.883333	1	0.039875
39.900000	1	0.039625
39.916667	1	0.039875
39.933333	1	0.039750
39.950000	1	0.039125
39.966667	1	0.039250
39.983333	1	0.038750
40.000000	1	0.038125
