URL	chrom://bioreactor/micro_cm7/HPLC_Ultimate_3000/Users/markusar/20240716_MA_pHrange2.seq/587.smp/RI_1.channel/RI_1.chm
Channel	RI_1

Injection Information:
Data Vault	micro_cm7
Sequence	20240716_MA_pHrange2
Name	Pv1_25H_2
Number	3
Position	BA3
Comment	
Processing Method	
Instrument Method	run_25B_method
Type	Unknown
Status	Finished
Inject Time	16.07.2024 19:28:24 +02:00
Volume (µl)	20.0000
Dilution Factor	1.0000
Weight	1.0000

Chromatogram Data Information:
Time Min. (min)	0.000000
Time Max. (min)	40.000000
Data Points	2401
Detector	RI
Generating Data System	Chromeleon 7.3.2.11814
Exporting Data System	Chromeleon 7.3.2.0
Operator	Instrument Controller
Signal Quantity	Refractive 
Signal Unit	µRIU
Signal Min.	-0.131750
Signal Max.	84.454250
Channel	RI_1
Driver Name	RID520Driver.dll
Channel Type	Evaluation
Min. Step (s)	1
Max. Step (s)	1
Average Step (s)	1

Signal Parameter Information:
Signal Info	

Chromatogram Data:
Time (min)	Step (s)	Value (µRIU)
0.000000	n.a.	-0.037625
0.016667	1	-0.036125
0.033333	1	-0.034750
0.050000	1	-0.033125
0.066667	1	-0.031750
0.083333	1	-0.029375
0.100000	1	-0.027625
0.116667	1	-0.025875
0.133333	1	-0.024750
0.150000	1	-0.023500
0.166667	1	-0.022375
0.183333	1	-0.020750
0.200000	1	-0.020625
0.216667	1	-0.019625
0.233333	1	-0.018625
0.250000	1	-0.017875
0.266667	1	-0.017375
0.283333	1	-0.016000
0.300000	1	-0.015000
0.316667	1	-0.014625
0.333333	1	-0.014375
0.350000	1	-0.014250
0.366667	1	-0.014750
0.383333	1	-0.015500
0.400000	1	-0.016000
0.416667	1	-0.016500
0.433333	1	-0.015250
0.450000	1	-0.013750
0.466667	1	-0.012500
0.483333	1	-0.012000
0.500000	1	-0.011250
0.516667	1	-0.010625
0.533333	1	-0.010500
0.550000	1	-0.012000
0.566667	1	-0.013875
0.583333	1	-0.015625
0.600000	1	-0.017500
0.616667	1	-0.019625
0.633333	1	-0.021375
0.650000	1	-0.021750
0.666667	1	-0.022500
0.683333	1	-0.022625
0.700000	1	-0.022750
0.716667	1	-0.023125
0.733333	1	-0.024125
0.750000	1	-0.024375
0.766667	1	-0.024375
0.783333	1	-0.023500
0.800000	1	-0.023250
0.816667	1	-0.022875
0.833333	1	-0.022375
0.850000	1	-0.022750
0.866667	1	-0.022750
0.883333	1	-0.022375
0.900000	1	-0.022375
0.916667	1	-0.022000
0.933333	1	-0.021500
0.950000	1	-0.021125
0.966667	1	-0.021375
0.983333	1	-0.020750
1.000000	1	-0.020250
1.016667	1	-0.020375
1.033333	1	-0.020000
1.050000	1	-0.020375
1.066667	1	-0.020375
1.083333	1	-0.020875
1.100000	1	-0.020875
1.116667	1	-0.020500
1.133333	1	-0.020500
1.150000	1	-0.020500
1.166667	1	-0.021125
1.183333	1	-0.022000
1.200000	1	-0.022000
1.216667	1	-0.022250
1.233333	1	-0.022375
1.250000	1	-0.023250
1.266667	1	-0.023500
1.283333	1	-0.024250
1.300000	1	-0.024750
1.316667	1	-0.026000
1.333333	1	-0.026875
1.350000	1	-0.028000
1.366667	1	-0.029125
1.383333	1	-0.030375
1.400000	1	-0.031250
1.416667	1	-0.032000
1.433333	1	-0.033125
1.450000	1	-0.034000
1.466667	1	-0.034625
1.483333	1	-0.035750
1.500000	1	-0.036125
1.516667	1	-0.037000
1.533333	1	-0.037875
1.550000	1	-0.038750
1.566667	1	-0.040125
1.583333	1	-0.040375
1.600000	1	-0.041500
1.616667	1	-0.041500
1.633333	1	-0.042250
1.650000	1	-0.042750
1.666667	1	-0.043375
1.683333	1	-0.043750
1.700000	1	-0.043625
1.716667	1	-0.043750
1.733333	1	-0.043250
1.750000	1	-0.042875
1.766667	1	-0.042500
1.783333	1	-0.042375
1.800000	1	-0.041500
1.816667	1	-0.040875
1.833333	1	-0.039375
1.850000	1	-0.037625
1.866667	1	-0.035625
1.883333	1	-0.034125
1.900000	1	-0.032375
1.916667	1	-0.030875
1.933333	1	-0.029250
1.950000	1	-0.027625
1.966667	1	-0.025875
1.983333	1	-0.024125
2.000000	1	-0.021500
2.016667	1	-0.019375
2.033333	1	-0.017000
2.050000	1	-0.014750
2.066667	1	-0.011500
2.083333	1	-0.010000
2.100000	1	-0.008000
2.116667	1	-0.005750
2.133333	1	-0.003500
2.150000	1	-0.001625
2.166667	1	0.000625
2.183333	1	0.002875
2.200000	1	0.004875
2.216667	1	0.006125
2.233333	1	0.007000
2.250000	1	0.007500
2.266667	1	0.008625
2.283333	1	0.009625
2.300000	1	0.009750
2.316667	1	0.010375
2.333333	1	0.010625
2.350000	1	0.010375
2.366667	1	0.009750
2.383333	1	0.009000
2.400000	1	0.008625
2.416667	1	0.007750
2.433333	1	0.007000
2.450000	1	0.006375
2.466667	1	0.004625
2.483333	1	0.002750
2.500000	1	0.001250
2.516667	1	0.000375
2.533333	1	-0.001000
2.550000	1	-0.003750
2.566667	1	-0.005875
2.583333	1	-0.008375
2.600000	1	-0.010250
2.616667	1	-0.012125
2.633333	1	-0.014000
2.650000	1	-0.015750
2.666667	1	-0.017750
2.683333	1	-0.019250
2.700000	1	-0.021750
2.716667	1	-0.024500
2.733333	1	-0.025875
2.750000	1	-0.027750
2.766667	1	-0.029500
2.783333	1	-0.031000
2.800000	1	-0.031875
2.816667	1	-0.032625
2.833333	1	-0.033625
2.850000	1	-0.034875
2.866667	1	-0.035875
2.883333	1	-0.036375
2.900000	1	-0.036875
2.916667	1	-0.037875
2.933333	1	-0.038375
2.950000	1	-0.038250
2.966667	1	-0.038375
2.983333	1	-0.038750
3.000000	1	-0.038750
3.016667	1	-0.039500
3.033333	1	-0.039125
3.050000	1	-0.039125
3.066667	1	-0.039125
3.083333	1	-0.039625
3.100000	1	-0.040000
3.116667	1	-0.040250
3.133333	1	-0.040125
3.150000	1	-0.040250
3.166667	1	-0.040875
3.183333	1	-0.040625
3.200000	1	-0.040500
3.216667	1	-0.040125
3.233333	1	-0.040125
3.250000	1	-0.040500
3.266667	1	-0.040500
3.283333	1	-0.039875
3.300000	1	-0.039000
3.316667	1	-0.039250
3.333333	1	-0.038625
3.350000	1	-0.038125
3.366667	1	-0.038000
3.383333	1	-0.037000
3.400000	1	-0.036250
3.416667	1	-0.035375
3.433333	1	-0.034375
3.450000	1	-0.033125
3.466667	1	-0.032125
3.483333	1	-0.031500
3.500000	1	-0.030250
3.516667	1	-0.028625
3.533333	1	-0.027500
3.550000	1	-0.026750
3.566667	1	-0.025750
3.583333	1	-0.024750
3.600000	1	-0.024000
3.616667	1	-0.022375
3.633333	1	-0.020875
3.650000	1	-0.019875
3.666667	1	-0.019500
3.683333	1	-0.019000
3.700000	1	-0.018875
3.716667	1	-0.018750
3.733333	1	-0.018250
3.750000	1	-0.018250
3.766667	1	-0.018000
3.783333	1	-0.017875
3.800000	1	-0.018125
3.816667	1	-0.018125
3.833333	1	-0.018750
3.850000	1	-0.018875
3.866667	1	-0.018875
3.883333	1	-0.019375
3.900000	1	-0.020250
3.916667	1	-0.021250
3.933333	1	-0.022125
3.950000	1	-0.022875
3.966667	1	-0.023750
3.983333	1	-0.025250
4.000000	1	-0.026500
4.016667	1	-0.027625
4.033333	1	-0.029000
4.050000	1	-0.030000
4.066667	1	-0.030875
4.083333	1	-0.032375
4.100000	1	-0.033875
4.116667	1	-0.035500
4.133333	1	-0.036875
4.150000	1	-0.038000
4.166667	1	-0.039500
4.183333	1	-0.040750
4.200000	1	-0.042000
4.216667	1	-0.043000
4.233333	1	-0.043750
4.250000	1	-0.044750
4.266667	1	-0.045250
4.283333	1	-0.046250
4.300000	1	-0.047750
4.316667	1	-0.047625
4.333333	1	-0.048750
4.350000	1	-0.049375
4.366667	1	-0.049625
4.383333	1	-0.049000
4.400000	1	-0.049250
4.416667	1	-0.049750
4.433333	1	-0.049750
4.450000	1	-0.049625
4.466667	1	-0.049250
4.483333	1	-0.048625
4.500000	1	-0.048250
4.516667	1	-0.047875
4.533333	1	-0.047250
4.550000	1	-0.046000
4.566667	1	-0.045000
4.583333	1	-0.043625
4.600000	1	-0.042750
4.616667	1	-0.041500
4.633333	1	-0.040500
4.650000	1	-0.039750
4.666667	1	-0.038750
4.683333	1	-0.036625
4.700000	1	-0.036250
4.716667	1	-0.035000
4.733333	1	-0.033750
4.750000	1	-0.032750
4.766667	1	-0.030875
4.783333	1	-0.029375
4.800000	1	-0.027750
4.816667	1	-0.025500
4.833333	1	-0.023375
4.850000	1	-0.021375
4.866667	1	-0.020000
4.883333	1	-0.018250
4.900000	1	-0.016125
4.916667	1	-0.013500
4.933333	1	-0.011000
4.950000	1	-0.008250
4.966667	1	-0.006000
4.983333	1	-0.003250
5.000000	1	0.000500
5.016667	1	0.003500
5.033333	1	0.007000
5.050000	1	0.010500
5.066667	1	0.014250
5.083333	1	0.018000
5.100000	1	0.022375
5.116667	1	0.026500
5.133333	1	0.030125
5.150000	1	0.034500
5.166667	1	0.039500
5.183333	1	0.043750
5.200000	1	0.048375
5.216667	1	0.053000
5.233333	1	0.058000
5.250000	1	0.062625
5.266667	1	0.067375
5.283333	1	0.071375
5.300000	1	0.075250
5.316667	1	0.079625
5.333333	1	0.084000
5.350000	1	0.088500
5.366667	1	0.092000
5.383333	1	0.095750
5.400000	1	0.098875
5.416667	1	0.102125
5.433333	1	0.105375
5.450000	1	0.107875
5.466667	1	0.110750
5.483333	1	0.111750
5.500000	1	0.112625
5.516667	1	0.114625
5.533333	1	0.115625
5.550000	1	0.116000
5.566667	1	0.116500
5.583333	1	0.116375
5.600000	1	0.116000
5.616667	1	0.115500
5.633333	1	0.114375
5.650000	1	0.113875
5.666667	1	0.112125
5.683333	1	0.110000
5.700000	1	0.107750
5.716667	1	0.105250
5.733333	1	0.102500
5.750000	1	0.099750
5.766667	1	0.097125
5.783333	1	0.093250
5.800000	1	0.089750
5.816667	1	0.086375
5.833333	1	0.082500
5.850000	1	0.078250
5.866667	1	0.074625
5.883333	1	0.070250
5.900000	1	0.066250
5.916667	1	0.062375
5.933333	1	0.058250
5.950000	1	0.053375
5.966667	1	0.049250
5.983333	1	0.044875
6.000000	1	0.040750
6.016667	1	0.037250
6.033333	1	0.033000
6.050000	1	0.029125
6.066667	1	0.025250
6.083333	1	0.021250
6.100000	1	0.017875
6.116667	1	0.014000
6.133333	1	0.010375
6.150000	1	0.007000
6.166667	1	0.003125
6.183333	1	-0.001000
6.200000	1	-0.004375
6.216667	1	-0.007875
6.233333	1	-0.011125
6.250000	1	-0.014625
6.266667	1	-0.017750
6.283333	1	-0.020875
6.300000	1	-0.023500
6.316667	1	-0.027375
6.333333	1	-0.030250
6.350000	1	-0.032875
6.366667	1	-0.035625
6.383333	1	-0.038000
6.400000	1	-0.040125
6.416667	1	-0.042250
6.433333	1	-0.043500
6.450000	1	-0.044875
6.466667	1	-0.045750
6.483333	1	-0.046000
6.500000	1	-0.047125
6.516667	1	-0.046750
6.533333	1	-0.046625
6.550000	1	-0.045750
6.566667	1	-0.045125
6.583333	1	-0.043750
6.600000	1	-0.042000
6.616667	1	-0.039750
6.633333	1	-0.037500
6.650000	1	-0.034625
6.666667	1	-0.031625
6.683333	1	-0.028250
6.700000	1	-0.023875
6.716667	1	-0.020250
6.733333	1	-0.016500
6.750000	1	-0.011875
6.766667	1	-0.007375
6.783333	1	-0.002125
6.800000	1	0.002750
6.816667	1	0.008000
6.833333	1	0.013375
6.850000	1	0.019125
6.866667	1	0.025000
6.883333	1	0.031000
6.900000	1	0.036875
6.916667	1	0.042875
6.933333	1	0.048000
6.950000	1	0.053500
6.966667	1	0.058625
6.983333	1	0.063750
7.000000	1	0.068875
7.016667	1	0.074375
7.033333	1	0.079875
7.050000	1	0.084125
7.066667	1	0.089000
7.083333	1	0.093000
7.100000	1	0.097250
7.116667	1	0.100875
7.133333	1	0.104500
7.150000	1	0.107625
7.166667	1	0.110500
7.183333	1	0.113500
7.200000	1	0.116125
7.216667	1	0.118625
7.233333	1	0.120250
7.250000	1	0.122000
7.266667	1	0.123125
7.283333	1	0.124125
7.300000	1	0.124500
7.316667	1	0.125375
7.333333	1	0.126250
7.350000	1	0.126250
7.366667	1	0.126625
7.383333	1	0.126500
7.400000	1	0.126125
7.416667	1	0.125375
7.433333	1	0.124375
7.450000	1	0.123000
7.466667	1	0.121500
7.483333	1	0.119375
7.500000	1	0.117750
7.516667	1	0.115750
7.533333	1	0.114125
7.550000	1	0.112250
7.566667	1	0.109875
7.583333	1	0.107000
7.600000	1	0.104500
7.616667	1	0.101500
7.633333	1	0.098625
7.650000	1	0.095250
7.666667	1	0.092625
7.683333	1	0.089875
7.700000	1	0.086125
7.716667	1	0.083125
7.733333	1	0.079750
7.750000	1	0.076625
7.766667	1	0.073625
7.783333	1	0.069125
7.800000	1	0.065500
7.816667	1	0.061375
7.833333	1	0.057125
7.850000	1	0.053375
7.866667	1	0.049250
7.883333	1	0.045875
7.900000	1	0.042125
7.916667	1	0.039375
7.933333	1	0.035875
7.950000	1	0.032375
7.966667	1	0.029000
7.983333	1	0.025875
8.000000	1	0.022500
8.016667	1	0.019625
8.033333	1	0.016625
8.050000	1	0.013750
8.066667	1	0.011625
8.083333	1	0.008500
8.100000	1	0.006000
8.116667	1	0.004375
8.133333	1	0.002500
8.150000	1	0.001125
8.166667	1	-0.000500
8.183333	1	-0.001375
8.200000	1	-0.002500
8.216667	1	-0.003625
8.233333	1	-0.004875
8.250000	1	-0.005625
8.266667	1	-0.006000
8.283333	1	-0.006875
8.300000	1	-0.006875
8.316667	1	-0.006875
8.333333	1	-0.007125
8.350000	1	-0.006625
8.366667	1	-0.006125
8.383333	1	-0.005875
8.400000	1	-0.005000
8.416667	1	-0.004625
8.433333	1	-0.004000
8.450000	1	-0.003000
8.466667	1	-0.001750
8.483333	1	-0.001000
8.500000	1	-0.000250
8.516667	1	0.000625
8.533333	1	0.002375
8.550000	1	0.003875
8.566667	1	0.006000
8.583333	1	0.007375
8.600000	1	0.008375
8.616667	1	0.009125
8.633333	1	0.010500
8.650000	1	0.011375
8.666667	1	0.013000
8.683333	1	0.014375
8.700000	1	0.015750
8.716667	1	0.018125
8.733333	1	0.018750
8.750000	1	0.020125
8.766667	1	0.021000
8.783333	1	0.021250
8.800000	1	0.022625
8.816667	1	0.023875
8.833333	1	0.024500
8.850000	1	0.025875
8.866667	1	0.026250
8.883333	1	0.026625
8.900000	1	0.027250
8.916667	1	0.028000
8.933333	1	0.029250
8.950000	1	0.030125
8.966667	1	0.031500
8.983333	1	0.032375
9.000000	1	0.033250
9.016667	1	0.033875
9.033333	1	0.034375
9.050000	1	0.034625
9.066667	1	0.034875
9.083333	1	0.035250
9.100000	1	0.034750
9.116667	1	0.035125
9.133333	1	0.034875
9.150000	1	0.034625
9.166667	1	0.034500
9.183333	1	0.034125
9.200000	1	0.033500
9.216667	1	0.032625
9.233333	1	0.031375
9.250000	1	0.030375
9.266667	1	0.029750
9.283333	1	0.028375
9.300000	1	0.027125
9.316667	1	0.025625
9.333333	1	0.024125
9.350000	1	0.022375
9.366667	1	0.020500
9.383333	1	0.018125
9.400000	1	0.015625
9.416667	1	0.013125
9.433333	1	0.011250
9.450000	1	0.008750
9.466667	1	0.006375
9.483333	1	0.003375
9.500000	1	0.000750
9.516667	1	-0.001250
9.533333	1	-0.004375
9.550000	1	-0.007125
9.566667	1	-0.009875
9.583333	1	-0.012125
9.600000	1	-0.014875
9.616667	1	-0.018375
9.633333	1	-0.021375
9.650000	1	-0.024375
9.666667	1	-0.027125
9.683333	1	-0.029250
9.700000	1	-0.031625
9.716667	1	-0.034000
9.733333	1	-0.036250
9.750000	1	-0.038625
9.766667	1	-0.040625
9.783333	1	-0.042125
9.800000	1	-0.044500
9.816667	1	-0.046000
9.833333	1	-0.047625
9.850000	1	-0.048875
9.866667	1	-0.050000
9.883333	1	-0.050750
9.900000	1	-0.051125
9.916667	1	-0.051500
9.933333	1	-0.050625
9.950000	1	-0.049875
9.966667	1	-0.049500
9.983333	1	-0.047875
10.000000	1	-0.047250
10.016667	1	-0.044750
10.033333	1	-0.042500
10.050000	1	-0.039875
10.066667	1	-0.036000
10.083333	1	-0.031625
10.100000	1	-0.026375
10.116667	1	-0.020625
10.133333	1	-0.014625
10.150000	1	-0.008500
10.166667	1	-0.001125
10.183333	1	0.006750
10.200000	1	0.015000
10.216667	1	0.023750
10.233333	1	0.033750
10.250000	1	0.044875
10.266667	1	0.057125
10.283333	1	0.070500
10.300000	1	0.086250
10.316667	1	0.103000
10.333333	1	0.121000
10.350000	1	0.138500
10.366667	1	0.152875
10.383333	1	0.162250
10.400000	1	0.160750
10.416667	1	0.144375
10.433333	1	0.109000
10.450000	1	0.054000
10.466667	1	-0.015125
10.483333	1	-0.086000
10.500000	1	-0.131750
10.516667	1	-0.114875
10.533333	1	0.015250
10.550000	1	0.320250
10.566667	1	0.865875
10.583333	1	1.717750
10.600000	1	2.938250
10.616667	1	4.580375
10.633333	1	6.685625
10.650000	1	9.280375
10.666667	1	12.385375
10.683333	1	16.008375
10.700000	1	20.148875
10.716667	1	24.791125
10.733333	1	29.910750
10.750000	1	35.474000
10.766667	1	41.425000
10.783333	1	47.702375
10.800000	1	54.221500
10.816667	1	60.849250
10.833333	1	67.383000
10.850000	1	73.518875
10.866667	1	78.818750
10.883333	1	82.689375
10.900000	1	84.454250
10.916667	1	83.521625
10.933333	1	79.633375
10.950000	1	73.045625
10.966667	1	64.511750
10.983333	1	55.038750
11.000000	1	45.601500
11.016667	1	36.916250
11.033333	1	29.384125
11.050000	1	23.122875
11.066667	1	18.077750
11.083333	1	14.105250
11.100000	1	11.032375
11.116667	1	8.686375
11.133333	1	6.913000
11.150000	1	5.579000
11.166667	1	4.577125
11.183333	1	3.824125
11.200000	1	3.254375
11.216667	1	2.820875
11.233333	1	2.486625
11.250000	1	2.226000
11.266667	1	2.019750
11.283333	1	1.854375
11.300000	1	1.719250
11.316667	1	1.608250
11.333333	1	1.515375
11.350000	1	1.437125
11.366667	1	1.370750
11.383333	1	1.313750
11.400000	1	1.265000
11.416667	1	1.223500
11.433333	1	1.186875
11.450000	1	1.155375
11.466667	1	1.129750
11.483333	1	1.106250
11.500000	1	1.086750
11.516667	1	1.069625
11.533333	1	1.054250
11.550000	1	1.041500
11.566667	1	1.031375
11.583333	1	1.021875
11.600000	1	1.014375
11.616667	1	1.007625
11.633333	1	1.003250
11.650000	1	0.999375
11.666667	1	0.996625
11.683333	1	0.995125
11.700000	1	0.994875
11.716667	1	0.996625
11.733333	1	0.998750
11.750000	1	1.001750
11.766667	1	1.005750
11.783333	1	1.010750
11.800000	1	1.016625
11.816667	1	1.022500
11.833333	1	1.029000
11.850000	1	1.035625
11.866667	1	1.042000
11.883333	1	1.048000
11.900000	1	1.052500
11.916667	1	1.056750
11.933333	1	1.060125
11.950000	1	1.062375
11.966667	1	1.063625
11.983333	1	1.064250
12.000000	1	1.064375
12.016667	1	1.064375
12.033333	1	1.063250
12.050000	1	1.062625
12.066667	1	1.061500
12.083333	1	1.060625
12.100000	1	1.059750
12.116667	1	1.060000
12.133333	1	1.060875
12.150000	1	1.061625
12.166667	1	1.063125
12.183333	1	1.065000
12.200000	1	1.068875
12.216667	1	1.073125
12.233333	1	1.078375
12.250000	1	1.086375
12.266667	1	1.095750
12.283333	1	1.109125
12.300000	1	1.126250
12.316667	1	1.148875
12.333333	1	1.179875
12.350000	1	1.220625
12.366667	1	1.273750
12.383333	1	1.343500
12.400000	1	1.432875
12.416667	1	1.547000
12.433333	1	1.690375
12.450000	1	1.867000
12.466667	1	2.083125
12.483333	1	2.343375
12.500000	1	2.651625
12.516667	1	3.011750
12.533333	1	3.426000
12.550000	1	3.895250
12.566667	1	4.419375
12.583333	1	4.995375
12.600000	1	5.619125
12.616667	1	6.280500
12.633333	1	6.970250
12.650000	1	7.676375
12.666667	1	8.386500
12.683333	1	9.087250
12.700000	1	9.767875
12.716667	1	10.419250
12.733333	1	11.034750
12.750000	1	11.613250
12.766667	1	12.157375
12.783333	1	12.673375
12.800000	1	13.169125
12.816667	1	13.654750
12.833333	1	14.141625
12.850000	1	14.639750
12.866667	1	15.155375
12.883333	1	15.696625
12.900000	1	16.267625
12.916667	1	16.871000
12.933333	1	17.507625
12.950000	1	18.176250
12.966667	1	18.877250
12.983333	1	19.607625
13.000000	1	20.366250
13.016667	1	21.149500
13.033333	1	21.958875
13.050000	1	22.792250
13.066667	1	23.649625
13.083333	1	24.528000
13.100000	1	25.428125
13.116667	1	26.349375
13.133333	1	27.289750
13.150000	1	28.249625
13.166667	1	29.227875
13.183333	1	30.226125
13.200000	1	31.242750
13.216667	1	32.277625
13.233333	1	33.331625
13.250000	1	34.407250
13.266667	1	35.502750
13.283333	1	36.620250
13.300000	1	37.759000
13.316667	1	38.919375
13.333333	1	40.101000
13.350000	1	41.304750
13.366667	1	42.532250
13.383333	1	43.783000
13.400000	1	45.055375
13.416667	1	46.352500
13.433333	1	47.675125
13.450000	1	49.024500
13.466667	1	50.401375
13.483333	1	51.806625
13.500000	1	53.241125
13.516667	1	54.705500
13.533333	1	56.199875
13.550000	1	57.723125
13.566667	1	59.277625
13.583333	1	60.861625
13.600000	1	62.476250
13.616667	1	64.122125
13.633333	1	65.801875
13.650000	1	67.518000
13.666667	1	69.269875
13.683333	1	71.059000
13.700000	1	72.887625
13.716667	1	74.752750
13.733333	1	76.652875
13.750000	1	78.572875
13.766667	1	80.456250
13.783333	1	82.168875
13.800000	1	83.493875
13.816667	1	84.166750
13.833333	1	83.916500
13.850000	1	82.481000
13.866667	1	79.585750
13.883333	1	74.972875
13.900000	1	68.517625
13.916667	1	60.432375
13.933333	1	51.333500
13.950000	1	42.110750
13.966667	1	33.624125
13.983333	1	26.413625
14.000000	1	20.627625
14.016667	1	16.142500
14.033333	1	12.734000
14.050000	1	10.171875
14.066667	1	8.262875
14.083333	1	6.853250
14.100000	1	5.819500
14.116667	1	5.064125
14.133333	1	4.509750
14.150000	1	4.100625
14.166667	1	3.794000
14.183333	1	3.559625
14.200000	1	3.376875
14.216667	1	3.231125
14.233333	1	3.111375
14.250000	1	3.011750
14.266667	1	2.927375
14.283333	1	2.853625
14.300000	1	2.788625
14.316667	1	2.730625
14.333333	1	2.679625
14.350000	1	2.634750
14.366667	1	2.595500
14.383333	1	2.561250
14.400000	1	2.535250
14.416667	1	2.517000
14.433333	1	2.508750
14.450000	1	2.513750
14.466667	1	2.536125
14.483333	1	2.582750
14.500000	1	2.661125
14.516667	1	2.783250
14.533333	1	2.963250
14.550000	1	3.221875
14.566667	1	3.586375
14.583333	1	4.088125
14.600000	1	4.766625
14.616667	1	5.672750
14.633333	1	6.865000
14.650000	1	8.407750
14.666667	1	10.368625
14.683333	1	12.815125
14.700000	1	15.807000
14.716667	1	19.386000
14.733333	1	23.570125
14.750000	1	28.346000
14.766667	1	33.657750
14.783333	1	39.399875
14.800000	1	45.431375
14.816667	1	51.565500
14.833333	1	57.578625
14.850000	1	63.218125
14.866667	1	68.226750
14.883333	1	72.353250
14.900000	1	75.384625
14.916667	1	77.161000
14.933333	1	77.595000
14.950000	1	76.671875
14.966667	1	74.460000
14.983333	1	71.104625
15.000000	1	66.794500
15.016667	1	61.758375
15.033333	1	56.241625
15.050000	1	50.489000
15.066667	1	44.727000
15.083333	1	39.147125
15.100000	1	33.897250
15.116667	1	29.081000
15.133333	1	24.759875
15.150000	1	20.957250
15.166667	1	17.667000
15.183333	1	14.862250
15.200000	1	12.497875
15.216667	1	10.525000
15.233333	1	8.892875
15.250000	1	7.551625
15.266667	1	6.456625
15.283333	1	5.567125
15.300000	1	4.847500
15.316667	1	4.268750
15.333333	1	3.804500
15.350000	1	3.434250
15.366667	1	3.140250
15.383333	1	2.908875
15.400000	1	2.728000
15.416667	1	2.588375
15.433333	1	2.482875
15.450000	1	2.404250
15.466667	1	2.346625
15.483333	1	2.304375
15.500000	1	2.274250
15.516667	1	2.250875
15.533333	1	2.231250
15.550000	1	2.212375
15.566667	1	2.192000
15.583333	1	2.167375
15.600000	1	2.138625
15.616667	1	2.105250
15.633333	1	2.068500
15.650000	1	2.028125
15.666667	1	1.984750
15.683333	1	1.940500
15.700000	1	1.896500
15.716667	1	1.853125
15.733333	1	1.812625
15.750000	1	1.773875
15.766667	1	1.737750
15.783333	1	1.702625
15.800000	1	1.669625
15.816667	1	1.638375
15.833333	1	1.607750
15.850000	1	1.578375
15.866667	1	1.549250
15.883333	1	1.521750
15.900000	1	1.495125
15.916667	1	1.469000
15.933333	1	1.445000
15.950000	1	1.423375
15.966667	1	1.403625
15.983333	1	1.387750
16.000000	1	1.373625
16.016667	1	1.362750
16.033333	1	1.354000
16.050000	1	1.348125
16.066667	1	1.344875
16.083333	1	1.343000
16.100000	1	1.342250
16.116667	1	1.341625
16.133333	1	1.341125
16.150000	1	1.339750
16.166667	1	1.337375
16.183333	1	1.333875
16.200000	1	1.328625
16.216667	1	1.321625
16.233333	1	1.312625
16.250000	1	1.302250
16.266667	1	1.290750
16.283333	1	1.277750
16.300000	1	1.264250
16.316667	1	1.248750
16.333333	1	1.234125
16.350000	1	1.218625
16.366667	1	1.203750
16.383333	1	1.189000
16.400000	1	1.174625
16.416667	1	1.161375
16.433333	1	1.149375
16.450000	1	1.138500
16.466667	1	1.128875
16.483333	1	1.121125
16.500000	1	1.116000
16.516667	1	1.113375
16.533333	1	1.112625
16.550000	1	1.113625
16.566667	1	1.115500
16.583333	1	1.119250
16.600000	1	1.123875
16.616667	1	1.129000
16.633333	1	1.133875
16.650000	1	1.138250
16.666667	1	1.142125
16.683333	1	1.144375
16.700000	1	1.146500
16.716667	1	1.146875
16.733333	1	1.146875
16.750000	1	1.146000
16.766667	1	1.144875
16.783333	1	1.144625
16.800000	1	1.144500
16.816667	1	1.145125
16.833333	1	1.146500
16.850000	1	1.148375
16.866667	1	1.151125
16.883333	1	1.153875
16.900000	1	1.157625
16.916667	1	1.160375
16.933333	1	1.163375
16.950000	1	1.165750
16.966667	1	1.167375
16.983333	1	1.167125
17.000000	1	1.165875
17.016667	1	1.164000
17.033333	1	1.161375
17.050000	1	1.157000
17.066667	1	1.152750
17.083333	1	1.147500
17.100000	1	1.143000
17.116667	1	1.138125
17.133333	1	1.133625
17.150000	1	1.129125
17.166667	1	1.125125
17.183333	1	1.122250
17.200000	1	1.120125
17.216667	1	1.119125
17.233333	1	1.119125
17.250000	1	1.119375
17.266667	1	1.119875
17.283333	1	1.120875
17.300000	1	1.123125
17.316667	1	1.125250
17.333333	1	1.127875
17.350000	1	1.130750
17.366667	1	1.133250
17.383333	1	1.135250
17.400000	1	1.137625
17.416667	1	1.140000
17.433333	1	1.141500
17.450000	1	1.143250
17.466667	1	1.143625
17.483333	1	1.143875
17.500000	1	1.142250
17.516667	1	1.139250
17.533333	1	1.134625
17.550000	1	1.129000
17.566667	1	1.122000
17.583333	1	1.113375
17.600000	1	1.104000
17.616667	1	1.091875
17.633333	1	1.079875
17.650000	1	1.066000
17.666667	1	1.051625
17.683333	1	1.036250
17.700000	1	1.021625
17.716667	1	1.006500
17.733333	1	0.991750
17.750000	1	0.977125
17.766667	1	0.963000
17.783333	1	0.949250
17.800000	1	0.937000
17.816667	1	0.923875
17.833333	1	0.912750
17.850000	1	0.900875
17.866667	1	0.890625
17.883333	1	0.880750
17.900000	1	0.872125
17.916667	1	0.864000
17.933333	1	0.857250
17.950000	1	0.850875
17.966667	1	0.844125
17.983333	1	0.838375
18.000000	1	0.831250
18.016667	1	0.825000
18.033333	1	0.819125
18.050000	1	0.813500
18.066667	1	0.808000
18.083333	1	0.802125
18.100000	1	0.796500
18.116667	1	0.791375
18.133333	1	0.785375
18.150000	1	0.779875
18.166667	1	0.774875
18.183333	1	0.770125
18.200000	1	0.765500
18.216667	1	0.761625
18.233333	1	0.758375
18.250000	1	0.756000
18.266667	1	0.753875
18.283333	1	0.753000
18.300000	1	0.752125
18.316667	1	0.752000
18.333333	1	0.752500
18.350000	1	0.753625
18.366667	1	0.755250
18.383333	1	0.757500
18.400000	1	0.759875
18.416667	1	0.762875
18.433333	1	0.766500
18.450000	1	0.771250
18.466667	1	0.776375
18.483333	1	0.782500
18.500000	1	0.790500
18.516667	1	0.799000
18.533333	1	0.809875
18.550000	1	0.822500
18.566667	1	0.837125
18.583333	1	0.853750
18.600000	1	0.872375
18.616667	1	0.892500
18.633333	1	0.915000
18.650000	1	0.938750
18.666667	1	0.965000
18.683333	1	0.993250
18.700000	1	1.023500
18.716667	1	1.053375
18.733333	1	1.085375
18.750000	1	1.118000
18.766667	1	1.151750
18.783333	1	1.186625
18.800000	1	1.220375
18.816667	1	1.253375
18.833333	1	1.285500
18.850000	1	1.315500
18.866667	1	1.343125
18.883333	1	1.367125
18.900000	1	1.386625
18.916667	1	1.401875
18.933333	1	1.411375
18.950000	1	1.415000
18.966667	1	1.412750
18.983333	1	1.403500
19.000000	1	1.388000
19.016667	1	1.366500
19.033333	1	1.337625
19.050000	1	1.304375
19.066667	1	1.265375
19.083333	1	1.223000
19.100000	1	1.178250
19.116667	1	1.132000
19.133333	1	1.085625
19.150000	1	1.039500
19.166667	1	0.995625
19.183333	1	0.954625
19.200000	1	0.918750
19.216667	1	0.887500
19.233333	1	0.862375
19.250000	1	0.844750
19.266667	1	0.835125
19.283333	1	0.834375
19.300000	1	0.842375
19.316667	1	0.861250
19.333333	1	0.890250
19.350000	1	0.929375
19.366667	1	0.980000
19.383333	1	1.041500
19.400000	1	1.112875
19.416667	1	1.194625
19.433333	1	1.285250
19.450000	1	1.383375
19.466667	1	1.487125
19.483333	1	1.594375
19.500000	1	1.702625
19.516667	1	1.809250
19.533333	1	1.911375
19.550000	1	2.006125
19.566667	1	2.091000
19.583333	1	2.162875
19.600000	1	2.219125
19.616667	1	2.258750
19.633333	1	2.280125
19.650000	1	2.282375
19.666667	1	2.266500
19.683333	1	2.233875
19.700000	1	2.185250
19.716667	1	2.123000
19.733333	1	2.049750
19.750000	1	1.966250
19.766667	1	1.876500
19.783333	1	1.782875
19.800000	1	1.686500
19.816667	1	1.590500
19.833333	1	1.496250
19.850000	1	1.405875
19.866667	1	1.318500
19.883333	1	1.235750
19.900000	1	1.158625
19.916667	1	1.087125
19.933333	1	1.021000
19.950000	1	0.961125
19.966667	1	0.906375
19.983333	1	0.858125
20.000000	1	0.814750
20.016667	1	0.776875
20.033333	1	0.743500
20.050000	1	0.715125
20.066667	1	0.691375
20.083333	1	0.672250
20.100000	1	0.657375
20.116667	1	0.646875
20.133333	1	0.639625
20.150000	1	0.636000
20.166667	1	0.634875
20.183333	1	0.637375
20.200000	1	0.642250
20.216667	1	0.649625
20.233333	1	0.658625
20.250000	1	0.669125
20.266667	1	0.680375
20.283333	1	0.691750
20.300000	1	0.702000
20.316667	1	0.711625
20.333333	1	0.719125
20.350000	1	0.724750
20.366667	1	0.727750
20.383333	1	0.728375
20.400000	1	0.727000
20.416667	1	0.722250
20.433333	1	0.715500
20.450000	1	0.706875
20.466667	1	0.696750
20.483333	1	0.686000
20.500000	1	0.674875
20.516667	1	0.665750
20.533333	1	0.658000
20.550000	1	0.653125
20.566667	1	0.652375
20.583333	1	0.656875
20.600000	1	0.665625
20.616667	1	0.681750
20.633333	1	0.703875
20.650000	1	0.733125
20.666667	1	0.769125
20.683333	1	0.812875
20.700000	1	0.864750
20.716667	1	0.922625
20.733333	1	0.986625
20.750000	1	1.055500
20.766667	1	1.127000
20.783333	1	1.199625
20.800000	1	1.271375
20.816667	1	1.340375
20.833333	1	1.403625
20.850000	1	1.459500
20.866667	1	1.505500
20.883333	1	1.540625
20.900000	1	1.563625
20.916667	1	1.573000
20.933333	1	1.568375
20.950000	1	1.550750
20.966667	1	1.520500
20.983333	1	1.477625
21.000000	1	1.424750
21.016667	1	1.363250
21.033333	1	1.296375
21.050000	1	1.224250
21.066667	1	1.150250
21.083333	1	1.075125
21.100000	1	1.001500
21.116667	1	0.930375
21.133333	1	0.863500
21.150000	1	0.800625
21.166667	1	0.742750
21.183333	1	0.689625
21.200000	1	0.641500
21.216667	1	0.598625
21.233333	1	0.561000
21.250000	1	0.527500
21.266667	1	0.499250
21.283333	1	0.474500
21.300000	1	0.453125
21.316667	1	0.434875
21.333333	1	0.419750
21.350000	1	0.406375
21.366667	1	0.394625
21.383333	1	0.385125
21.400000	1	0.376750
21.416667	1	0.369875
21.433333	1	0.364375
21.450000	1	0.359500
21.466667	1	0.355250
21.483333	1	0.351500
21.500000	1	0.348250
21.516667	1	0.346000
21.533333	1	0.343750
21.550000	1	0.342125
21.566667	1	0.341500
21.583333	1	0.341250
21.600000	1	0.341125
21.616667	1	0.341000
21.633333	1	0.342125
21.650000	1	0.343500
21.666667	1	0.346625
21.683333	1	0.349875
21.700000	1	0.353750
21.716667	1	0.358625
21.733333	1	0.364000
21.750000	1	0.369625
21.766667	1	0.376375
21.783333	1	0.384000
21.800000	1	0.392125
21.816667	1	0.400375
21.833333	1	0.408750
21.850000	1	0.418125
21.866667	1	0.427750
21.883333	1	0.437250
21.900000	1	0.447750
21.916667	1	0.458500
21.933333	1	0.469125
21.950000	1	0.479250
21.966667	1	0.490375
21.983333	1	0.500625
22.000000	1	0.511625
22.016667	1	0.521875
22.033333	1	0.531250
22.050000	1	0.540125
22.066667	1	0.547375
22.083333	1	0.555625
22.100000	1	0.561875
22.116667	1	0.568875
22.133333	1	0.573750
22.150000	1	0.578500
22.166667	1	0.580875
22.183333	1	0.582625
22.200000	1	0.583625
22.216667	1	0.583000
22.233333	1	0.580625
22.250000	1	0.577375
22.266667	1	0.572125
22.283333	1	0.566000
22.300000	1	0.558000
22.316667	1	0.548500
22.333333	1	0.538000
22.350000	1	0.527500
22.366667	1	0.516000
22.383333	1	0.503000
22.400000	1	0.489625
22.416667	1	0.476625
22.433333	1	0.462875
22.450000	1	0.449250
22.466667	1	0.436375
22.483333	1	0.422250
22.500000	1	0.410125
22.516667	1	0.397250
22.533333	1	0.384875
22.550000	1	0.373250
22.566667	1	0.362375
22.583333	1	0.351500
22.600000	1	0.341750
22.616667	1	0.332000
22.633333	1	0.322625
22.650000	1	0.313625
22.666667	1	0.305125
22.683333	1	0.297000
22.700000	1	0.289625
22.716667	1	0.282375
22.733333	1	0.275875
22.750000	1	0.268375
22.766667	1	0.261875
22.783333	1	0.255375
22.800000	1	0.248375
22.816667	1	0.242250
22.833333	1	0.236250
22.850000	1	0.231125
22.866667	1	0.226750
22.883333	1	0.221750
22.900000	1	0.217375
22.916667	1	0.213750
22.933333	1	0.210500
22.950000	1	0.208125
22.966667	1	0.205875
22.983333	1	0.203750
23.000000	1	0.202000
23.016667	1	0.201000
23.033333	1	0.200500
23.050000	1	0.200500
23.066667	1	0.201000
23.083333	1	0.202250
23.100000	1	0.203625
23.116667	1	0.205875
23.133333	1	0.208125
23.150000	1	0.210625
23.166667	1	0.213750
23.183333	1	0.216625
23.200000	1	0.219750
23.216667	1	0.223750
23.233333	1	0.227875
23.250000	1	0.232375
23.266667	1	0.238000
23.283333	1	0.243875
23.300000	1	0.252250
23.316667	1	0.261750
23.333333	1	0.273250
23.350000	1	0.288125
23.366667	1	0.306125
23.383333	1	0.328125
23.400000	1	0.354375
23.416667	1	0.386500
23.433333	1	0.426250
23.450000	1	0.473125
23.466667	1	0.528375
23.483333	1	0.594375
23.500000	1	0.672500
23.516667	1	0.762500
23.533333	1	0.866750
23.550000	1	0.985750
23.566667	1	1.121000
23.583333	1	1.273500
23.600000	1	1.443750
23.616667	1	1.632125
23.633333	1	1.837125
23.650000	1	2.058875
23.666667	1	2.296250
23.683333	1	2.546875
23.700000	1	2.809125
23.716667	1	3.078625
23.733333	1	3.352125
23.750000	1	3.625125
23.766667	1	3.892000
23.783333	1	4.147625
23.800000	1	4.386750
23.816667	1	4.604000
23.833333	1	4.794625
23.850000	1	4.953000
23.866667	1	5.077000
23.883333	1	5.164000
23.900000	1	5.211125
23.916667	1	5.217250
23.933333	1	5.182625
23.950000	1	5.108875
23.966667	1	4.997750
23.983333	1	4.854000
24.000000	1	4.681000
24.016667	1	4.482875
24.033333	1	4.264875
24.050000	1	4.032000
24.066667	1	3.789000
24.083333	1	3.540750
24.100000	1	3.290500
24.116667	1	3.043625
24.133333	1	2.802625
24.150000	1	2.570375
24.166667	1	2.347875
24.183333	1	2.138750
24.200000	1	1.943125
24.216667	1	1.762750
24.233333	1	1.597000
24.250000	1	1.446000
24.266667	1	1.309625
24.283333	1	1.186625
24.300000	1	1.076750
24.316667	1	0.978500
24.333333	1	0.891375
24.350000	1	0.815625
24.366667	1	0.748875
24.383333	1	0.691125
24.400000	1	0.640500
24.416667	1	0.596125
24.433333	1	0.558625
24.450000	1	0.527500
24.466667	1	0.500500
24.483333	1	0.478000
24.500000	1	0.458625
24.516667	1	0.442000
24.533333	1	0.429125
24.550000	1	0.418250
24.566667	1	0.409375
24.583333	1	0.401500
24.600000	1	0.395000
24.616667	1	0.388375
24.633333	1	0.382500
24.650000	1	0.377500
24.666667	1	0.373375
24.683333	1	0.369250
24.700000	1	0.365000
24.716667	1	0.360500
24.733333	1	0.356500
24.750000	1	0.352500
24.766667	1	0.348500
24.783333	1	0.344500
24.800000	1	0.341250
24.816667	1	0.337875
24.833333	1	0.334250
24.850000	1	0.330625
24.866667	1	0.328000
24.883333	1	0.325750
24.900000	1	0.323125
24.916667	1	0.320125
24.933333	1	0.317875
24.950000	1	0.315250
24.966667	1	0.313500
24.983333	1	0.311000
25.000000	1	0.309625
25.016667	1	0.307500
25.033333	1	0.305625
25.050000	1	0.304375
25.066667	1	0.303000
25.083333	1	0.300375
25.100000	1	0.298625
25.116667	1	0.296500
25.133333	1	0.294125
25.150000	1	0.291125
25.166667	1	0.289000
25.183333	1	0.285125
25.200000	1	0.282500
25.216667	1	0.279500
25.233333	1	0.275750
25.250000	1	0.272750
25.266667	1	0.269250
25.283333	1	0.265500
25.300000	1	0.261750
25.316667	1	0.257875
25.333333	1	0.254375
25.350000	1	0.250875
25.366667	1	0.247625
25.383333	1	0.245000
25.400000	1	0.241375
25.416667	1	0.238125
25.433333	1	0.235125
25.450000	1	0.232375
25.466667	1	0.230750
25.483333	1	0.229125
25.500000	1	0.227000
25.516667	1	0.225875
25.533333	1	0.224625
25.550000	1	0.224500
25.566667	1	0.223500
25.583333	1	0.223500
25.600000	1	0.224000
25.616667	1	0.224125
25.633333	1	0.224000
25.650000	1	0.224000
25.666667	1	0.224500
25.683333	1	0.225250
25.700000	1	0.225750
25.716667	1	0.226625
25.733333	1	0.227000
25.750000	1	0.227625
25.766667	1	0.228250
25.783333	1	0.229500
25.800000	1	0.230375
25.816667	1	0.231500
25.833333	1	0.233250
25.850000	1	0.234250
25.866667	1	0.236000
25.883333	1	0.237625
25.900000	1	0.240000
25.916667	1	0.241375
25.933333	1	0.243625
25.950000	1	0.245625
25.966667	1	0.248875
25.983333	1	0.251250
26.000000	1	0.254125
26.016667	1	0.257375
26.033333	1	0.260625
26.050000	1	0.263375
26.066667	1	0.267250
26.083333	1	0.271500
26.100000	1	0.275625
26.116667	1	0.279625
26.133333	1	0.283750
26.150000	1	0.286625
26.166667	1	0.289750
26.183333	1	0.292625
26.200000	1	0.295500
26.216667	1	0.297500
26.233333	1	0.299500
26.250000	1	0.301000
26.266667	1	0.302625
26.283333	1	0.302875
26.300000	1	0.302500
26.316667	1	0.302500
26.333333	1	0.301875
26.350000	1	0.300625
26.366667	1	0.298875
26.383333	1	0.296875
26.400000	1	0.293750
26.416667	1	0.291000
26.433333	1	0.287250
26.450000	1	0.282625
26.466667	1	0.278375
26.483333	1	0.273500
26.500000	1	0.268625
26.516667	1	0.263250
26.533333	1	0.258250
26.550000	1	0.253000
26.566667	1	0.247125
26.583333	1	0.241375
26.600000	1	0.235375
26.616667	1	0.230500
26.633333	1	0.224875
26.650000	1	0.219500
26.666667	1	0.214250
26.683333	1	0.208625
26.700000	1	0.204250
26.716667	1	0.200125
26.733333	1	0.196500
26.750000	1	0.192625
26.766667	1	0.189250
26.783333	1	0.185750
26.800000	1	0.182625
26.816667	1	0.180375
26.833333	1	0.178375
26.850000	1	0.176000
26.866667	1	0.174750
26.883333	1	0.173875
26.900000	1	0.173000
26.916667	1	0.172125
26.933333	1	0.171875
26.950000	1	0.172250
26.966667	1	0.172625
26.983333	1	0.174000
27.000000	1	0.175500
27.016667	1	0.177750
27.033333	1	0.180625
27.050000	1	0.183875
27.066667	1	0.187750
27.083333	1	0.192750
27.100000	1	0.198500
27.116667	1	0.204750
27.133333	1	0.212875
27.150000	1	0.221625
27.166667	1	0.232250
27.183333	1	0.244875
27.200000	1	0.259375
27.216667	1	0.276625
27.233333	1	0.295250
27.250000	1	0.317875
27.266667	1	0.343000
27.283333	1	0.372250
27.300000	1	0.406250
27.316667	1	0.444500
27.333333	1	0.486875
27.350000	1	0.535375
27.366667	1	0.590125
27.383333	1	0.651875
27.400000	1	0.720125
27.416667	1	0.796375
27.433333	1	0.881125
27.450000	1	0.975000
27.466667	1	1.078000
27.483333	1	1.189750
27.500000	1	1.311875
27.516667	1	1.443375
27.533333	1	1.584000
27.550000	1	1.733625
27.566667	1	1.891000
27.583333	1	2.055875
27.600000	1	2.227250
27.616667	1	2.403625
27.633333	1	2.583750
27.650000	1	2.765875
27.666667	1	2.947500
27.683333	1	3.126125
27.700000	1	3.300125
27.716667	1	3.467125
27.733333	1	3.623125
27.750000	1	3.766000
27.766667	1	3.893750
27.783333	1	4.004750
27.800000	1	4.094875
27.816667	1	4.163875
27.833333	1	4.210125
27.850000	1	4.232375
27.866667	1	4.229500
27.883333	1	4.201750
27.900000	1	4.149625
27.916667	1	4.073250
27.933333	1	3.975250
27.950000	1	3.856125
27.966667	1	3.718500
27.983333	1	3.566000
28.000000	1	3.400250
28.016667	1	3.223000
28.033333	1	3.038375
28.050000	1	2.848375
28.066667	1	2.656375
28.083333	1	2.465000
28.100000	1	2.276250
28.116667	1	2.093125
28.133333	1	1.916875
28.150000	1	1.748375
28.166667	1	1.589750
28.183333	1	1.441750
28.200000	1	1.303625
28.216667	1	1.177000
28.233333	1	1.061625
28.250000	1	0.957125
28.266667	1	0.862750
28.283333	1	0.778625
28.300000	1	0.704750
28.316667	1	0.639625
28.333333	1	0.582375
28.350000	1	0.533750
28.366667	1	0.491875
28.383333	1	0.456875
28.400000	1	0.427875
28.416667	1	0.404750
28.433333	1	0.386000
28.450000	1	0.372500
28.466667	1	0.362250
28.483333	1	0.355500
28.500000	1	0.352875
28.516667	1	0.352750
28.533333	1	0.355000
28.550000	1	0.359500
28.566667	1	0.365375
28.583333	1	0.373125
28.600000	1	0.382250
28.616667	1	0.392000
28.633333	1	0.402750
28.650000	1	0.414750
28.666667	1	0.426375
28.683333	1	0.437875
28.700000	1	0.448625
28.716667	1	0.459875
28.733333	1	0.470500
28.750000	1	0.480500
28.766667	1	0.490625
28.783333	1	0.500125
28.800000	1	0.508750
28.816667	1	0.516125
28.833333	1	0.523125
28.850000	1	0.527750
28.866667	1	0.531625
28.883333	1	0.534500
28.900000	1	0.536000
28.916667	1	0.537000
28.933333	1	0.535875
28.950000	1	0.534125
28.966667	1	0.530875
28.983333	1	0.526625
29.000000	1	0.521750
29.016667	1	0.514750
29.033333	1	0.507250
29.050000	1	0.498125
29.066667	1	0.488125
29.083333	1	0.478250
29.100000	1	0.466375
29.116667	1	0.454125
29.133333	1	0.441500
29.150000	1	0.428250
29.166667	1	0.414250
29.183333	1	0.400375
29.200000	1	0.385500
29.216667	1	0.371000
29.233333	1	0.355875
29.250000	1	0.341125
29.266667	1	0.326500
29.283333	1	0.311375
29.300000	1	0.296750
29.316667	1	0.281375
29.333333	1	0.267250
29.350000	1	0.253375
29.366667	1	0.239000
29.383333	1	0.224750
29.400000	1	0.211875
29.416667	1	0.198625
29.433333	1	0.186500
29.450000	1	0.175250
29.466667	1	0.164250
29.483333	1	0.153750
29.500000	1	0.144875
29.516667	1	0.134750
29.533333	1	0.126000
29.550000	1	0.116875
29.566667	1	0.109500
29.583333	1	0.102125
29.600000	1	0.095125
29.616667	1	0.088875
29.633333	1	0.083875
29.650000	1	0.078875
29.666667	1	0.074500
29.683333	1	0.070125
29.700000	1	0.067125
29.716667	1	0.064125
29.733333	1	0.062000
29.750000	1	0.060625
29.766667	1	0.058375
29.783333	1	0.057875
29.800000	1	0.056875
29.816667	1	0.057000
29.833333	1	0.056750
29.850000	1	0.057000
29.866667	1	0.057250
29.883333	1	0.057875
29.900000	1	0.058125
29.916667	1	0.059000
29.933333	1	0.059250
29.950000	1	0.060000
29.966667	1	0.060750
29.983333	1	0.062250
30.000000	1	0.063500
30.016667	1	0.065125
30.033333	1	0.066500
30.050000	1	0.067375
30.066667	1	0.068250
30.083333	1	0.069500
30.100000	1	0.070375
30.116667	1	0.072000
30.133333	1	0.072375
30.150000	1	0.073250
30.166667	1	0.073750
30.183333	1	0.074875
30.200000	1	0.075625
30.216667	1	0.076125
30.233333	1	0.077000
30.250000	1	0.078625
30.266667	1	0.079375
30.283333	1	0.080500
30.300000	1	0.081625
30.316667	1	0.082625
30.333333	1	0.084000
30.350000	1	0.085000
30.366667	1	0.086875
30.383333	1	0.088125
30.400000	1	0.088875
30.416667	1	0.090750
30.433333	1	0.093125
30.450000	1	0.095375
30.466667	1	0.098000
30.483333	1	0.101125
30.500000	1	0.103625
30.516667	1	0.107250
30.533333	1	0.110875
30.550000	1	0.115375
30.566667	1	0.119875
30.583333	1	0.124875
30.600000	1	0.131000
30.616667	1	0.137375
30.633333	1	0.144750
30.650000	1	0.152250
30.666667	1	0.160250
30.683333	1	0.169875
30.700000	1	0.180250
30.716667	1	0.192000
30.733333	1	0.204000
30.750000	1	0.218875
30.766667	1	0.234875
30.783333	1	0.252625
30.800000	1	0.272875
30.816667	1	0.295125
30.833333	1	0.320625
30.850000	1	0.349875
30.866667	1	0.382375
30.883333	1	0.418750
30.900000	1	0.459250
30.916667	1	0.505750
30.933333	1	0.558375
30.950000	1	0.617750
30.966667	1	0.685125
30.983333	1	0.760750
31.000000	1	0.845875
31.016667	1	0.941000
31.033333	1	1.046875
31.050000	1	1.164625
31.066667	1	1.295125
31.083333	1	1.439500
31.100000	1	1.597625
31.116667	1	1.770000
31.133333	1	1.957625
31.150000	1	2.159375
31.166667	1	2.375750
31.183333	1	2.607000
31.200000	1	2.852125
31.216667	1	3.111750
31.233333	1	3.382250
31.250000	1	3.662500
31.266667	1	3.951375
31.283333	1	4.245000
31.300000	1	4.542125
31.316667	1	4.839375
31.333333	1	5.133750
31.350000	1	5.422375
31.366667	1	5.701500
31.383333	1	5.968750
31.400000	1	6.219125
31.416667	1	6.450875
31.433333	1	6.659750
31.450000	1	6.843000
31.466667	1	6.998125
31.483333	1	7.122750
31.500000	1	7.216375
31.516667	1	7.276125
31.533333	1	7.302375
31.550000	1	7.295500
31.566667	1	7.254875
31.583333	1	7.181625
31.600000	1	7.076750
31.616667	1	6.942625
31.633333	1	6.780750
31.650000	1	6.594250
31.666667	1	6.385500
31.683333	1	6.157500
31.700000	1	5.913125
31.716667	1	5.656250
31.733333	1	5.389500
31.750000	1	5.115000
31.766667	1	4.837250
31.783333	1	4.557625
31.800000	1	4.278125
31.816667	1	4.001750
31.833333	1	3.731250
31.850000	1	3.467750
31.866667	1	3.212875
31.883333	1	2.967875
31.900000	1	2.734500
31.916667	1	2.513250
31.933333	1	2.304250
31.950000	1	2.108125
31.966667	1	1.923625
31.983333	1	1.751500
32.000000	1	1.591375
32.016667	1	1.443500
32.033333	1	1.307250
32.050000	1	1.181500
32.066667	1	1.066625
32.083333	1	0.961625
32.100000	1	0.865625
32.116667	1	0.778625
32.133333	1	0.699375
32.150000	1	0.628125
32.166667	1	0.562625
32.183333	1	0.503500
32.200000	1	0.450500
32.216667	1	0.402375
32.233333	1	0.359250
32.250000	1	0.320000
32.266667	1	0.284500
32.283333	1	0.252250
32.300000	1	0.223250
32.316667	1	0.197750
32.333333	1	0.174750
32.350000	1	0.154000
32.366667	1	0.134875
32.383333	1	0.117625
32.400000	1	0.102500
32.416667	1	0.088625
32.433333	1	0.076500
32.450000	1	0.065000
32.466667	1	0.054500
32.483333	1	0.045375
32.500000	1	0.037000
32.516667	1	0.029750
32.533333	1	0.023375
32.550000	1	0.016750
32.566667	1	0.012125
32.583333	1	0.008500
32.600000	1	0.004500
32.616667	1	0.001375
32.633333	1	-0.001750
32.650000	1	-0.004375
32.666667	1	-0.006875
32.683333	1	-0.008375
32.700000	1	-0.010375
32.716667	1	-0.011250
32.733333	1	-0.011750
32.750000	1	-0.013250
32.766667	1	-0.013375
32.783333	1	-0.013625
32.800000	1	-0.013875
32.816667	1	-0.014000
32.833333	1	-0.014500
32.850000	1	-0.015250
32.866667	1	-0.015375
32.883333	1	-0.015625
32.900000	1	-0.016250
32.916667	1	-0.016500
32.933333	1	-0.016875
32.950000	1	-0.017375
32.966667	1	-0.018250
32.983333	1	-0.019125
33.000000	1	-0.020250
33.016667	1	-0.020500
33.033333	1	-0.021125
33.050000	1	-0.022000
33.066667	1	-0.023000
33.083333	1	-0.024125
33.100000	1	-0.024625
33.116667	1	-0.025500
33.133333	1	-0.026375
33.150000	1	-0.026750
33.166667	1	-0.027750
33.183333	1	-0.028375
33.200000	1	-0.029750
33.216667	1	-0.030000
33.233333	1	-0.030375
33.250000	1	-0.031375
33.266667	1	-0.031500
33.283333	1	-0.031750
33.300000	1	-0.032250
33.316667	1	-0.032750
33.333333	1	-0.032500
33.350000	1	-0.032250
33.366667	1	-0.030875
33.383333	1	-0.029750
33.400000	1	-0.028500
33.416667	1	-0.027375
33.433333	1	-0.025625
33.450000	1	-0.023125
33.466667	1	-0.021750
33.483333	1	-0.020250
33.500000	1	-0.018000
33.516667	1	-0.015500
33.533333	1	-0.012125
33.550000	1	-0.009250
33.566667	1	-0.005500
33.583333	1	-0.002000
33.600000	1	0.001500
33.616667	1	0.005250
33.633333	1	0.009125
33.650000	1	0.013125
33.666667	1	0.016500
33.683333	1	0.020000
33.700000	1	0.023250
33.716667	1	0.026750
33.733333	1	0.029625
33.750000	1	0.033375
33.766667	1	0.036500
33.783333	1	0.039750
33.800000	1	0.042000
33.816667	1	0.044500
33.833333	1	0.047250
33.850000	1	0.049250
33.866667	1	0.051625
33.883333	1	0.053000
33.900000	1	0.054125
33.916667	1	0.055500
33.933333	1	0.056000
33.950000	1	0.056875
33.966667	1	0.057375
33.983333	1	0.058000
34.000000	1	0.057875
34.016667	1	0.057625
34.033333	1	0.057250
34.050000	1	0.056875
34.066667	1	0.056250
34.083333	1	0.055875
34.100000	1	0.054875
34.116667	1	0.053875
34.133333	1	0.052375
34.150000	1	0.051250
34.166667	1	0.050625
34.183333	1	0.049375
34.200000	1	0.049125
34.216667	1	0.048000
34.233333	1	0.047500
34.250000	1	0.047375
34.266667	1	0.047250
34.283333	1	0.046125
34.300000	1	0.045625
34.316667	1	0.045500
34.333333	1	0.046000
34.350000	1	0.045750
34.366667	1	0.046500
34.383333	1	0.047625
34.400000	1	0.048125
34.416667	1	0.048500
34.433333	1	0.049500
34.450000	1	0.050625
34.466667	1	0.051750
34.483333	1	0.052750
34.500000	1	0.054125
34.516667	1	0.055750
34.533333	1	0.057250
34.550000	1	0.059125
34.566667	1	0.061250
34.583333	1	0.063000
34.600000	1	0.064375
34.616667	1	0.065750
34.633333	1	0.067125
34.650000	1	0.068250
34.666667	1	0.069875
34.683333	1	0.071125
34.700000	1	0.072375
34.716667	1	0.073125
34.733333	1	0.074375
34.750000	1	0.076000
34.766667	1	0.077625
34.783333	1	0.078000
34.800000	1	0.078375
34.816667	1	0.079250
34.833333	1	0.080000
34.850000	1	0.080375
34.866667	1	0.080125
34.883333	1	0.080375
34.900000	1	0.080625
34.916667	1	0.080875
34.933333	1	0.081000
34.950000	1	0.081375
34.966667	1	0.081375
34.983333	1	0.081375
35.000000	1	0.081500
35.016667	1	0.081000
35.033333	1	0.080625
35.050000	1	0.080750
35.066667	1	0.080625
35.083333	1	0.080875
35.100000	1	0.080750
35.116667	1	0.080875
35.133333	1	0.081125
35.150000	1	0.081500
35.166667	1	0.081875
35.183333	1	0.081625
35.200000	1	0.082000
35.216667	1	0.081875
35.233333	1	0.082875
35.250000	1	0.082875
35.266667	1	0.082875
35.283333	1	0.082875
35.300000	1	0.082375
35.316667	1	0.082125
35.333333	1	0.081750
35.350000	1	0.082250
35.366667	1	0.082375
35.383333	1	0.082375
35.400000	1	0.081875
35.416667	1	0.081250
35.433333	1	0.081250
35.450000	1	0.080500
35.466667	1	0.080500
35.483333	1	0.080000
35.500000	1	0.080000
35.516667	1	0.079750
35.533333	1	0.079125
35.550000	1	0.078875
35.566667	1	0.078750
35.583333	1	0.078625
35.600000	1	0.078250
35.616667	1	0.078500
35.633333	1	0.078500
35.650000	1	0.078875
35.666667	1	0.079000
35.683333	1	0.078750
35.700000	1	0.079375
35.716667	1	0.079750
35.733333	1	0.080500
35.750000	1	0.080500
35.766667	1	0.080625
35.783333	1	0.081125
35.800000	1	0.081375
35.816667	1	0.081125
35.833333	1	0.081750
35.850000	1	0.082250
35.866667	1	0.082500
35.883333	1	0.082250
35.900000	1	0.081750
35.916667	1	0.082250
35.933333	1	0.082625
35.950000	1	0.082375
35.966667	1	0.082875
35.983333	1	0.082500
36.000000	1	0.082000
36.016667	1	0.081625
36.033333	1	0.080625
36.050000	1	0.079625
36.066667	1	0.079000
36.083333	1	0.077750
36.100000	1	0.077125
36.116667	1	0.075750
36.133333	1	0.073875
36.150000	1	0.073125
36.166667	1	0.071875
36.183333	1	0.071125
36.200000	1	0.070125
36.216667	1	0.068250
36.233333	1	0.067125
36.250000	1	0.065125
36.266667	1	0.063500
36.283333	1	0.062125
36.300000	1	0.060750
36.316667	1	0.059250
36.333333	1	0.058000
36.350000	1	0.056750
36.366667	1	0.055375
36.383333	1	0.054125
36.400000	1	0.052125
36.416667	1	0.050500
36.433333	1	0.049125
36.450000	1	0.047500
36.466667	1	0.046250
36.483333	1	0.044500
36.500000	1	0.043500
36.516667	1	0.042000
36.533333	1	0.040375
36.550000	1	0.038875
36.566667	1	0.037875
36.583333	1	0.035875
36.600000	1	0.034125
36.616667	1	0.032375
36.633333	1	0.031000
36.650000	1	0.028625
36.666667	1	0.027000
36.683333	1	0.024500
36.700000	1	0.022750
36.716667	1	0.020875
36.733333	1	0.018500
36.750000	1	0.016875
36.766667	1	0.014125
36.783333	1	0.012125
36.800000	1	0.010125
36.816667	1	0.007875
36.833333	1	0.005625
36.850000	1	0.003375
36.866667	1	0.001500
36.883333	1	0.000625
36.900000	1	-0.001125
36.916667	1	-0.002750
36.933333	1	-0.003500
36.950000	1	-0.005375
36.966667	1	-0.006375
36.983333	1	-0.008000
37.000000	1	-0.008500
37.016667	1	-0.009625
37.033333	1	-0.011250
37.050000	1	-0.011750
37.066667	1	-0.012500
37.083333	1	-0.012750
37.100000	1	-0.013000
37.116667	1	-0.012875
37.133333	1	-0.012750
37.150000	1	-0.012375
37.166667	1	-0.011875
37.183333	1	-0.011250
37.200000	1	-0.010375
37.216667	1	-0.010375
37.233333	1	-0.010000
37.250000	1	-0.009125
37.266667	1	-0.008625
37.283333	1	-0.008000
37.300000	1	-0.006750
37.316667	1	-0.005250
37.333333	1	-0.004125
37.350000	1	-0.002875
37.366667	1	-0.001750
37.383333	1	-0.000750
37.400000	1	0.000500
37.416667	1	0.002000
37.433333	1	0.002625
37.450000	1	0.003750
37.466667	1	0.005500
37.483333	1	0.007625
37.500000	1	0.008750
37.516667	1	0.010250
37.533333	1	0.011875
37.550000	1	0.012625
37.566667	1	0.013500
37.583333	1	0.014375
37.600000	1	0.016000
37.616667	1	0.016625
37.633333	1	0.017125
37.650000	1	0.017875
37.666667	1	0.018750
37.683333	1	0.019625
37.700000	1	0.019625
37.716667	1	0.020750
37.733333	1	0.021250
37.750000	1	0.021875
37.766667	1	0.021875
37.783333	1	0.021250
37.800000	1	0.020875
37.816667	1	0.020875
37.833333	1	0.020250
37.850000	1	0.019500
37.866667	1	0.019500
37.883333	1	0.018375
37.900000	1	0.017750
37.916667	1	0.017125
37.933333	1	0.016750
37.950000	1	0.015625
37.966667	1	0.014875
37.983333	1	0.013500
38.000000	1	0.012000
38.016667	1	0.010625
38.033333	1	0.008875
38.050000	1	0.007625
38.066667	1	0.006625
38.083333	1	0.004750
38.100000	1	0.002875
38.116667	1	0.002125
38.133333	1	0.000500
38.150000	1	-0.000750
38.166667	1	-0.001750
38.183333	1	-0.002875
38.200000	1	-0.004375
38.216667	1	-0.004625
38.233333	1	-0.005625
38.250000	1	-0.007000
38.266667	1	-0.007875
38.283333	1	-0.008750
38.300000	1	-0.009500
38.316667	1	-0.009375
38.333333	1	-0.010375
38.350000	1	-0.010500
38.366667	1	-0.010000
38.383333	1	-0.010750
38.400000	1	-0.010375
38.416667	1	-0.010125
38.433333	1	-0.010000
38.450000	1	-0.009875
38.466667	1	-0.009750
38.483333	1	-0.009125
38.500000	1	-0.008375
38.516667	1	-0.007500
38.533333	1	-0.006500
38.550000	1	-0.006000
38.566667	1	-0.005375
38.583333	1	-0.005000
38.600000	1	-0.003500
38.616667	1	-0.002625
38.633333	1	-0.001500
38.650000	1	-0.000375
38.666667	1	0.000250
38.683333	1	0.000625
38.700000	1	0.001500
38.716667	1	0.002375
38.733333	1	0.003125
38.750000	1	0.003625
38.766667	1	0.003875
38.783333	1	0.004375
38.800000	1	0.004125
38.816667	1	0.004625
38.833333	1	0.004500
38.850000	1	0.005125
38.866667	1	0.005500
38.883333	1	0.004750
38.900000	1	0.004750
38.916667	1	0.004875
38.933333	1	0.004750
38.950000	1	0.004875
38.966667	1	0.004250
38.983333	1	0.003750
39.000000	1	0.003125
39.016667	1	0.002875
39.033333	1	0.002000
39.050000	1	0.001625
39.066667	1	0.000625
39.083333	1	-0.000375
39.100000	1	-0.001750
39.116667	1	-0.002625
39.133333	1	-0.003375
39.150000	1	-0.005500
39.166667	1	-0.007125
39.183333	1	-0.008500
39.200000	1	-0.009875
39.216667	1	-0.011875
39.233333	1	-0.013000
39.250000	1	-0.014875
39.266667	1	-0.017000
39.283333	1	-0.019000
39.300000	1	-0.021125
39.316667	1	-0.023375
39.333333	1	-0.025500
39.350000	1	-0.027750
39.366667	1	-0.030250
39.383333	1	-0.032250
39.400000	1	-0.035250
39.416667	1	-0.037250
39.433333	1	-0.039250
39.450000	1	-0.042000
39.466667	1	-0.043875
39.483333	1	-0.045750
39.500000	1	-0.048000
39.516667	1	-0.049500
39.533333	1	-0.051125
39.550000	1	-0.052875
39.566667	1	-0.054375
39.583333	1	-0.055750
39.600000	1	-0.056250
39.616667	1	-0.057125
39.633333	1	-0.057375
39.650000	1	-0.058375
39.666667	1	-0.058125
39.683333	1	-0.058000
39.700000	1	-0.057500
39.716667	1	-0.056875
39.733333	1	-0.056375
39.750000	1	-0.055625
39.766667	1	-0.055250
39.783333	1	-0.054250
39.800000	1	-0.053000
39.816667	1	-0.051750
39.833333	1	-0.049500
39.850000	1	-0.048000
39.866667	1	-0.046750
39.883333	1	-0.045000
39.900000	1	-0.044250
39.916667	1	-0.042125
39.933333	1	-0.040500
39.950000	1	-0.039125
39.966667	1	-0.037875
39.983333	1	-0.037250
40.000000	1	-0.036000
