URL	chrom://bioreactor/micro_cm7/HPLC_Ultimate_3000/Users/markusar/20240708_MA_pHrange1.seq/950.smp/RI_1.channel/RI_1.chm
Channel	RI_1

Injection Information:
Data Vault	micro_cm7
Sequence	20240708_MA_pHrange1
Name	Pv1_20H_2
Number	33
Position	BC9
Comment	
Processing Method	
Instrument Method	run_25B_method
Type	Unknown
Status	Finished
Inject Time	09.07.2024 13:25:37 +02:00
Volume (µl)	20.0000
Dilution Factor	1.0000
Weight	1.0000

Chromatogram Data Information:
Time Min. (min)	0.000000
Time Max. (min)	40.000000
Data Points	2401
Detector	RI
Generating Data System	Chromeleon 7.3.2.11814
Exporting Data System	Chromeleon 7.3.2.0
Operator	Instrument Controller
Signal Quantity	Refractive 
Signal Unit	µRIU
Signal Min.	-0.145375
Signal Max.	83.616000
Channel	RI_1
Driver Name	RID520Driver.dll
Channel Type	Evaluation
Min. Step (s)	1
Max. Step (s)	1
Average Step (s)	1

Signal Parameter Information:
Signal Info	

Chromatogram Data:
Time (min)	Step (s)	Value (µRIU)
0.000000	n.a.	-0.002125
0.016667	1	-0.002375
0.033333	1	-0.002375
0.050000	1	-0.001750
0.066667	1	-0.001500
0.083333	1	-0.001500
0.100000	1	-0.001125
0.116667	1	-0.001000
0.133333	1	0.000000
0.150000	1	-0.000625
0.166667	1	0.000375
0.183333	1	0.000500
0.200000	1	0.000250
0.216667	1	0.000625
0.233333	1	0.000625
0.250000	1	0.001250
0.266667	1	0.001125
0.283333	1	0.001750
0.300000	1	0.001750
0.316667	1	0.001250
0.333333	1	0.001125
0.350000	1	0.000375
0.366667	1	0.000250
0.383333	1	0.000000
0.400000	1	-0.000750
0.416667	1	-0.000875
0.433333	1	0.000000
0.450000	1	0.000875
0.466667	1	0.002000
0.483333	1	0.003000
0.500000	1	0.002750
0.516667	1	0.002625
0.533333	1	0.002250
0.550000	1	0.000750
0.566667	1	-0.001125
0.583333	1	-0.003375
0.600000	1	-0.006750
0.616667	1	-0.009500
0.633333	1	-0.011375
0.650000	1	-0.013500
0.666667	1	-0.015125
0.683333	1	-0.015875
0.700000	1	-0.017125
0.716667	1	-0.018125
0.733333	1	-0.018750
0.750000	1	-0.019250
0.766667	1	-0.019875
0.783333	1	-0.020625
0.800000	1	-0.020875
0.816667	1	-0.020750
0.833333	1	-0.020625
0.850000	1	-0.021125
0.866667	1	-0.021000
0.883333	1	-0.021375
0.900000	1	-0.021250
0.916667	1	-0.020625
0.933333	1	-0.021000
0.950000	1	-0.020625
0.966667	1	-0.019625
0.983333	1	-0.019875
1.000000	1	-0.019250
1.016667	1	-0.019125
1.033333	1	-0.018750
1.050000	1	-0.017875
1.066667	1	-0.017125
1.083333	1	-0.017125
1.100000	1	-0.015875
1.116667	1	-0.016125
1.133333	1	-0.015750
1.150000	1	-0.015125
1.166667	1	-0.014750
1.183333	1	-0.014250
1.200000	1	-0.013875
1.216667	1	-0.012750
1.233333	1	-0.012000
1.250000	1	-0.011000
1.266667	1	-0.011000
1.283333	1	-0.010375
1.300000	1	-0.010375
1.316667	1	-0.009625
1.333333	1	-0.009000
1.350000	1	-0.008500
1.366667	1	-0.007750
1.383333	1	-0.007625
1.400000	1	-0.007625
1.416667	1	-0.008375
1.433333	1	-0.008125
1.450000	1	-0.008125
1.466667	1	-0.008000
1.483333	1	-0.007625
1.500000	1	-0.007375
1.516667	1	-0.007625
1.533333	1	-0.007500
1.550000	1	-0.007375
1.566667	1	-0.007250
1.583333	1	-0.007250
1.600000	1	-0.007000
1.616667	1	-0.007125
1.633333	1	-0.007375
1.650000	1	-0.006875
1.666667	1	-0.006875
1.683333	1	-0.006875
1.700000	1	-0.006125
1.716667	1	-0.006125
1.733333	1	-0.006125
1.750000	1	-0.005750
1.766667	1	-0.005750
1.783333	1	-0.006000
1.800000	1	-0.005625
1.816667	1	-0.006000
1.833333	1	-0.005875
1.850000	1	-0.005625
1.866667	1	-0.005375
1.883333	1	-0.005000
1.900000	1	-0.005000
1.916667	1	-0.004625
1.933333	1	-0.005250
1.950000	1	-0.005375
1.966667	1	-0.005500
1.983333	1	-0.005375
2.000000	1	-0.005000
2.016667	1	-0.004500
2.033333	1	-0.005000
2.050000	1	-0.004875
2.066667	1	-0.004750
2.083333	1	-0.004125
2.100000	1	-0.004000
2.116667	1	-0.004125
2.133333	1	-0.004000
2.150000	1	-0.003750
2.166667	1	-0.003250
2.183333	1	-0.003125
2.200000	1	-0.002625
2.216667	1	-0.002750
2.233333	1	-0.002375
2.250000	1	-0.002000
2.266667	1	-0.002125
2.283333	1	-0.001250
2.300000	1	-0.001375
2.316667	1	-0.000875
2.333333	1	-0.000375
2.350000	1	0.000375
2.366667	1	0.000625
2.383333	1	0.000750
2.400000	1	0.001750
2.416667	1	0.002750
2.433333	1	0.003625
2.450000	1	0.003625
2.466667	1	0.004125
2.483333	1	0.004125
2.500000	1	0.005375
2.516667	1	0.005500
2.533333	1	0.005750
2.550000	1	0.005875
2.566667	1	0.006000
2.583333	1	0.006875
2.600000	1	0.007000
2.616667	1	0.008000
2.633333	1	0.008875
2.650000	1	0.009500
2.666667	1	0.009875
2.683333	1	0.009375
2.700000	1	0.009500
2.716667	1	0.009875
2.733333	1	0.009875
2.750000	1	0.009500
2.766667	1	0.009375
2.783333	1	0.008875
2.800000	1	0.008875
2.816667	1	0.009000
2.833333	1	0.008500
2.850000	1	0.007750
2.866667	1	0.008125
2.883333	1	0.007375
2.900000	1	0.007250
2.916667	1	0.006875
2.933333	1	0.006375
2.950000	1	0.005500
2.966667	1	0.004750
2.983333	1	0.004375
3.000000	1	0.003500
3.016667	1	0.002125
3.033333	1	0.001375
3.050000	1	0.001250
3.066667	1	0.000750
3.083333	1	0.000375
3.100000	1	0.000000
3.116667	1	0.000000
3.133333	1	-0.001125
3.150000	1	-0.000250
3.166667	1	-0.000625
3.183333	1	-0.000500
3.200000	1	0.000000
3.216667	1	0.000875
3.233333	1	0.001500
3.250000	1	0.002125
3.266667	1	0.002375
3.283333	1	0.003625
3.300000	1	0.004375
3.316667	1	0.005750
3.333333	1	0.007125
3.350000	1	0.008625
3.366667	1	0.010250
3.383333	1	0.011625
3.400000	1	0.012500
3.416667	1	0.013750
3.433333	1	0.016125
3.450000	1	0.017500
3.466667	1	0.019625
3.483333	1	0.021875
3.500000	1	0.023625
3.516667	1	0.025875
3.533333	1	0.026750
3.550000	1	0.028250
3.566667	1	0.029875
3.583333	1	0.032000
3.600000	1	0.033875
3.616667	1	0.035000
3.633333	1	0.036000
3.650000	1	0.037375
3.666667	1	0.038250
3.683333	1	0.039125
3.700000	1	0.038750
3.716667	1	0.038875
3.733333	1	0.039250
3.750000	1	0.039750
3.766667	1	0.040000
3.783333	1	0.040375
3.800000	1	0.040125
3.816667	1	0.040375
3.833333	1	0.039875
3.850000	1	0.039625
3.866667	1	0.039750
3.883333	1	0.039000
3.900000	1	0.038875
3.916667	1	0.038250
3.933333	1	0.037750
3.950000	1	0.036750
3.966667	1	0.035875
3.983333	1	0.035125
4.000000	1	0.034625
4.016667	1	0.034000
4.033333	1	0.033375
4.050000	1	0.032500
4.066667	1	0.032375
4.083333	1	0.031375
4.100000	1	0.030500
4.116667	1	0.030375
4.133333	1	0.030125
4.150000	1	0.030250
4.166667	1	0.030375
4.183333	1	0.030125
4.200000	1	0.030250
4.216667	1	0.030500
4.233333	1	0.030625
4.250000	1	0.030750
4.266667	1	0.031250
4.283333	1	0.032000
4.300000	1	0.032250
4.316667	1	0.032750
4.333333	1	0.033375
4.350000	1	0.034375
4.366667	1	0.035625
4.383333	1	0.036375
4.400000	1	0.038375
4.416667	1	0.039500
4.433333	1	0.040250
4.450000	1	0.041375
4.466667	1	0.042375
4.483333	1	0.044250
4.500000	1	0.046000
4.516667	1	0.047250
4.533333	1	0.049000
4.550000	1	0.051625
4.566667	1	0.053125
4.583333	1	0.054750
4.600000	1	0.056125
4.616667	1	0.057625
4.633333	1	0.059625
4.650000	1	0.062125
4.666667	1	0.063500
4.683333	1	0.066250
4.700000	1	0.068750
4.716667	1	0.071625
4.733333	1	0.073875
4.750000	1	0.076250
4.766667	1	0.078875
4.783333	1	0.081750
4.800000	1	0.085250
4.816667	1	0.088750
4.833333	1	0.092875
4.850000	1	0.096125
4.866667	1	0.100125
4.883333	1	0.103750
4.900000	1	0.106750
4.916667	1	0.110500
4.933333	1	0.114125
4.950000	1	0.117500
4.966667	1	0.121500
4.983333	1	0.125625
5.000000	1	0.129750
5.016667	1	0.133375
5.033333	1	0.137625
5.050000	1	0.141375
5.066667	1	0.145625
5.083333	1	0.149875
5.100000	1	0.154125
5.116667	1	0.158375
5.133333	1	0.161250
5.150000	1	0.164875
5.166667	1	0.169875
5.183333	1	0.173875
5.200000	1	0.178750
5.216667	1	0.183125
5.233333	1	0.186750
5.250000	1	0.190875
5.266667	1	0.194500
5.283333	1	0.197875
5.300000	1	0.201125
5.316667	1	0.204375
5.333333	1	0.207750
5.350000	1	0.211375
5.366667	1	0.214125
5.383333	1	0.216875
5.400000	1	0.220000
5.416667	1	0.223125
5.433333	1	0.224875
5.450000	1	0.226500
5.466667	1	0.227625
5.483333	1	0.228875
5.500000	1	0.230625
5.516667	1	0.231250
5.533333	1	0.231750
5.550000	1	0.233000
5.566667	1	0.233000
5.583333	1	0.233375
5.600000	1	0.232875
5.616667	1	0.232250
5.633333	1	0.231250
5.650000	1	0.230250
5.666667	1	0.228625
5.683333	1	0.226375
5.700000	1	0.224875
5.716667	1	0.222625
5.733333	1	0.220375
5.750000	1	0.217875
5.766667	1	0.215125
5.783333	1	0.212125
5.800000	1	0.209125
5.816667	1	0.206000
5.833333	1	0.202625
5.850000	1	0.199125
5.866667	1	0.195500
5.883333	1	0.191625
5.900000	1	0.187500
5.916667	1	0.182625
5.933333	1	0.177875
5.950000	1	0.173750
5.966667	1	0.169500
5.983333	1	0.164625
6.000000	1	0.160250
6.016667	1	0.155250
6.033333	1	0.149500
6.050000	1	0.144000
6.066667	1	0.139000
6.083333	1	0.134000
6.100000	1	0.129375
6.116667	1	0.124375
6.133333	1	0.119000
6.150000	1	0.113875
6.166667	1	0.108875
6.183333	1	0.104000
6.200000	1	0.099750
6.216667	1	0.095750
6.233333	1	0.090875
6.250000	1	0.086250
6.266667	1	0.082000
6.283333	1	0.077750
6.300000	1	0.073875
6.316667	1	0.070125
6.333333	1	0.066625
6.350000	1	0.063500
6.366667	1	0.059500
6.383333	1	0.056375
6.400000	1	0.053500
6.416667	1	0.051375
6.433333	1	0.048750
6.450000	1	0.045750
6.466667	1	0.043250
6.483333	1	0.041625
6.500000	1	0.039875
6.516667	1	0.038000
6.533333	1	0.036625
6.550000	1	0.035625
6.566667	1	0.034500
6.583333	1	0.033125
6.600000	1	0.032500
6.616667	1	0.031500
6.633333	1	0.030875
6.650000	1	0.030500
6.666667	1	0.029625
6.683333	1	0.029375
6.700000	1	0.029250
6.716667	1	0.029375
6.733333	1	0.029250
6.750000	1	0.029500
6.766667	1	0.030625
6.783333	1	0.031000
6.800000	1	0.032125
6.816667	1	0.033125
6.833333	1	0.034875
6.850000	1	0.036125
6.866667	1	0.037250
6.883333	1	0.039000
6.900000	1	0.041750
6.916667	1	0.044125
6.933333	1	0.046625
6.950000	1	0.049000
6.966667	1	0.052250
6.983333	1	0.055750
7.000000	1	0.058750
7.016667	1	0.060875
7.033333	1	0.063750
7.050000	1	0.066875
7.066667	1	0.070500
7.083333	1	0.074250
7.100000	1	0.077500
7.116667	1	0.081125
7.133333	1	0.085125
7.150000	1	0.088625
7.166667	1	0.092250
7.183333	1	0.095125
7.200000	1	0.098625
7.216667	1	0.101375
7.233333	1	0.104250
7.250000	1	0.107000
7.266667	1	0.110000
7.283333	1	0.112375
7.300000	1	0.114500
7.316667	1	0.116250
7.333333	1	0.118375
7.350000	1	0.120000
7.366667	1	0.121750
7.383333	1	0.122750
7.400000	1	0.123125
7.416667	1	0.124125
7.433333	1	0.124000
7.450000	1	0.122875
7.466667	1	0.122250
7.483333	1	0.122000
7.500000	1	0.121250
7.516667	1	0.120375
7.533333	1	0.119000
7.550000	1	0.117375
7.566667	1	0.115000
7.583333	1	0.112375
7.600000	1	0.110000
7.616667	1	0.107250
7.633333	1	0.104750
7.650000	1	0.102000
7.666667	1	0.098500
7.683333	1	0.095375
7.700000	1	0.091875
7.716667	1	0.088375
7.733333	1	0.085000
7.750000	1	0.082250
7.766667	1	0.078875
7.783333	1	0.075000
7.800000	1	0.071375
7.816667	1	0.067500
7.833333	1	0.063750
7.850000	1	0.059500
7.866667	1	0.055750
7.883333	1	0.052250
7.900000	1	0.048375
7.916667	1	0.044875
7.933333	1	0.041000
7.950000	1	0.037000
7.966667	1	0.033000
7.983333	1	0.028875
8.000000	1	0.024750
8.016667	1	0.021125
8.033333	1	0.017375
8.050000	1	0.013625
8.066667	1	0.009750
8.083333	1	0.005750
8.100000	1	0.002125
8.116667	1	-0.001250
8.133333	1	-0.004125
8.150000	1	-0.007625
8.166667	1	-0.011250
8.183333	1	-0.014500
8.200000	1	-0.017750
8.216667	1	-0.020500
8.233333	1	-0.023625
8.250000	1	-0.026750
8.266667	1	-0.028875
8.283333	1	-0.031375
8.300000	1	-0.033875
8.316667	1	-0.036000
8.333333	1	-0.038125
8.350000	1	-0.039875
8.366667	1	-0.041250
8.383333	1	-0.042625
8.400000	1	-0.044375
8.416667	1	-0.046375
8.433333	1	-0.047375
8.450000	1	-0.048500
8.466667	1	-0.049375
8.483333	1	-0.050125
8.500000	1	-0.051000
8.516667	1	-0.051125
8.533333	1	-0.051000
8.550000	1	-0.050625
8.566667	1	-0.049875
8.583333	1	-0.049125
8.600000	1	-0.048375
8.616667	1	-0.047750
8.633333	1	-0.046750
8.650000	1	-0.045625
8.666667	1	-0.043875
8.683333	1	-0.042750
8.700000	1	-0.039875
8.716667	1	-0.037625
8.733333	1	-0.035625
8.750000	1	-0.032750
8.766667	1	-0.029750
8.783333	1	-0.026875
8.800000	1	-0.024625
8.816667	1	-0.022125
8.833333	1	-0.018750
8.850000	1	-0.015750
8.866667	1	-0.012250
8.883333	1	-0.009000
8.900000	1	-0.005625
8.916667	1	-0.002000
8.933333	1	0.001250
8.950000	1	0.003875
8.966667	1	0.007250
8.983333	1	0.010000
9.000000	1	0.012375
9.016667	1	0.015250
9.033333	1	0.018625
9.050000	1	0.020750
9.066667	1	0.022750
9.083333	1	0.024500
9.100000	1	0.026500
9.116667	1	0.027875
9.133333	1	0.029250
9.150000	1	0.030500
9.166667	1	0.031875
9.183333	1	0.032125
9.200000	1	0.032500
9.216667	1	0.033250
9.233333	1	0.033500
9.250000	1	0.033750
9.266667	1	0.033875
9.283333	1	0.033875
9.300000	1	0.033125
9.316667	1	0.032625
9.333333	1	0.031750
9.350000	1	0.031625
9.366667	1	0.031000
9.383333	1	0.030375
9.400000	1	0.029500
9.416667	1	0.028500
9.433333	1	0.027500
9.450000	1	0.026250
9.466667	1	0.023750
9.483333	1	0.022000
9.500000	1	0.020625
9.516667	1	0.020375
9.533333	1	0.018750
9.550000	1	0.018125
9.566667	1	0.017250
9.583333	1	0.016000
9.600000	1	0.015250
9.616667	1	0.015000
9.633333	1	0.014000
9.650000	1	0.012875
9.666667	1	0.011625
9.683333	1	0.011250
9.700000	1	0.010000
9.716667	1	0.008375
9.733333	1	0.007750
9.750000	1	0.007125
9.766667	1	0.006500
9.783333	1	0.006250
9.800000	1	0.005125
9.816667	1	0.004500
9.833333	1	0.003500
9.850000	1	0.002625
9.866667	1	0.001250
9.883333	1	0.000875
9.900000	1	0.000000
9.916667	1	-0.000250
9.933333	1	-0.000750
9.950000	1	-0.001375
9.966667	1	-0.002125
9.983333	1	-0.003125
10.000000	1	-0.003875
10.016667	1	-0.004750
10.033333	1	-0.005375
10.050000	1	-0.005125
10.066667	1	-0.005125
10.083333	1	-0.004250
10.100000	1	-0.002250
10.116667	1	-0.000125
10.133333	1	0.003000
10.150000	1	0.007375
10.166667	1	0.011625
10.183333	1	0.018250
10.200000	1	0.025625
10.216667	1	0.034375
10.233333	1	0.044375
10.250000	1	0.056375
10.266667	1	0.069875
10.283333	1	0.086500
10.300000	1	0.104875
10.316667	1	0.125375
10.333333	1	0.146875
10.350000	1	0.168375
10.366667	1	0.187250
10.383333	1	0.202125
10.400000	1	0.207375
10.416667	1	0.197875
10.433333	1	0.167875
10.450000	1	0.116125
10.466667	1	0.043750
10.483333	1	-0.040250
10.500000	1	-0.116125
10.516667	1	-0.145375
10.533333	1	-0.075875
10.550000	1	0.161750
10.566667	1	0.647125
10.583333	1	1.464500
10.600000	1	2.692125
10.616667	1	4.396625
10.633333	1	6.628625
10.650000	1	9.421250
10.666667	1	12.799375
10.683333	1	16.772750
10.700000	1	21.339125
10.716667	1	26.482125
10.733333	1	32.173250
10.750000	1	38.363500
10.766667	1	44.977875
10.783333	1	51.907875
10.800000	1	58.986000
10.816667	1	65.941125
10.833333	1	72.369125
10.850000	1	77.706000
10.866667	1	81.257750
10.883333	1	82.323500
10.900000	1	80.430125
10.916667	1	75.567250
10.933333	1	68.267625
10.950000	1	59.451250
10.966667	1	50.138125
10.983333	1	41.186125
11.000000	1	33.153000
11.016667	1	26.296500
11.033333	1	20.661250
11.050000	1	16.155000
11.066667	1	12.625500
11.083333	1	9.905500
11.100000	1	7.833875
11.116667	1	6.267750
11.133333	1	5.088875
11.150000	1	4.201375
11.166667	1	3.530625
11.183333	1	3.019625
11.200000	1	2.626875
11.216667	1	2.323000
11.233333	1	2.083500
11.250000	1	1.891625
11.266667	1	1.736000
11.283333	1	1.607375
11.300000	1	1.500500
11.316667	1	1.410125
11.333333	1	1.333375
11.350000	1	1.267375
11.366667	1	1.211000
11.383333	1	1.162250
11.400000	1	1.119750
11.416667	1	1.082375
11.433333	1	1.051125
11.450000	1	1.023375
11.466667	1	0.999500
11.483333	1	0.979250
11.500000	1	0.961375
11.516667	1	0.946750
11.533333	1	0.934625
11.550000	1	0.924750
11.566667	1	0.915625
11.583333	1	0.908500
11.600000	1	0.903125
11.616667	1	0.899750
11.633333	1	0.897625
11.650000	1	0.897750
11.666667	1	0.899125
11.683333	1	0.901750
11.700000	1	0.906625
11.716667	1	0.912750
11.733333	1	0.919375
11.750000	1	0.927500
11.766667	1	0.935875
11.783333	1	0.945000
11.800000	1	0.955250
11.816667	1	0.965875
11.833333	1	0.976625
11.850000	1	0.986375
11.866667	1	0.995125
11.883333	1	1.004500
11.900000	1	1.012000
11.916667	1	1.018375
11.933333	1	1.023875
11.950000	1	1.028250
11.966667	1	1.032875
11.983333	1	1.036625
12.000000	1	1.039375
12.016667	1	1.042125
12.033333	1	1.045125
12.050000	1	1.047625
12.066667	1	1.051125
12.083333	1	1.054625
12.100000	1	1.059000
12.116667	1	1.063000
12.133333	1	1.068000
12.150000	1	1.073375
12.166667	1	1.079125
12.183333	1	1.085250
12.200000	1	1.092375
12.216667	1	1.100375
12.233333	1	1.110500
12.250000	1	1.122625
12.266667	1	1.137500
12.283333	1	1.156250
12.300000	1	1.179625
12.316667	1	1.210000
12.333333	1	1.248500
12.350000	1	1.299750
12.366667	1	1.365625
12.383333	1	1.450875
12.400000	1	1.559625
12.416667	1	1.697750
12.433333	1	1.870625
12.450000	1	2.083875
12.466667	1	2.345375
12.483333	1	2.658375
12.500000	1	3.027375
12.516667	1	3.456250
12.533333	1	3.946250
12.550000	1	4.496500
12.566667	1	5.102500
12.583333	1	5.757875
12.600000	1	6.451250
12.616667	1	7.168375
12.633333	1	7.894500
12.650000	1	8.616625
12.666667	1	9.320625
12.683333	1	9.994625
12.700000	1	10.630750
12.716667	1	11.225125
12.733333	1	11.779125
12.750000	1	12.298000
12.766667	1	12.790000
12.783333	1	13.265750
12.800000	1	13.737250
12.816667	1	14.213625
12.833333	1	14.704375
12.850000	1	15.219000
12.866667	1	15.761750
12.883333	1	16.335250
12.900000	1	16.943000
12.916667	1	17.582750
12.933333	1	18.255875
12.950000	1	18.959875
12.966667	1	19.692500
12.983333	1	20.452000
13.000000	1	21.238375
13.016667	1	22.048500
13.033333	1	22.881250
13.050000	1	23.736750
13.066667	1	24.615125
13.083333	1	25.513500
13.100000	1	26.433250
13.116667	1	27.373875
13.133333	1	28.332875
13.150000	1	29.311125
13.166667	1	30.307875
13.183333	1	31.324500
13.200000	1	32.359875
13.216667	1	33.414000
13.233333	1	34.487375
13.250000	1	35.581125
13.266667	1	36.696125
13.283333	1	37.832750
13.300000	1	38.991500
13.316667	1	40.171875
13.333333	1	41.375125
13.350000	1	42.600875
13.366667	1	43.850625
13.383333	1	45.124000
13.400000	1	46.421625
13.416667	1	47.743750
13.433333	1	49.092125
13.450000	1	50.468500
13.466667	1	51.873875
13.483333	1	53.308750
13.500000	1	54.774125
13.516667	1	56.267750
13.533333	1	57.791875
13.550000	1	59.346750
13.566667	1	60.932875
13.583333	1	62.550750
13.600000	1	64.199625
13.616667	1	65.881625
13.633333	1	67.598375
13.650000	1	69.352625
13.666667	1	71.146000
13.683333	1	72.978000
13.700000	1	74.848250
13.716667	1	76.754375
13.733333	1	78.671250
13.750000	1	80.526875
13.766667	1	82.158875
13.783333	1	83.300250
13.800000	1	83.616000
13.816667	1	82.756125
13.833333	1	80.392875
13.850000	1	76.275000
13.866667	1	70.325625
13.883333	1	62.779000
13.900000	1	54.218250
13.916667	1	45.437500
13.933333	1	37.175500
13.950000	1	29.923000
13.966667	1	23.880500
13.983333	1	19.023000
14.000000	1	15.206250
14.016667	1	12.250875
14.033333	1	9.991250
14.050000	1	8.284375
14.066667	1	7.011125
14.083333	1	6.069000
14.100000	1	5.373750
14.116667	1	4.858750
14.133333	1	4.474125
14.150000	1	4.181625
14.166667	1	3.955125
14.183333	1	3.776500
14.200000	1	3.631375
14.216667	1	3.511250
14.233333	1	3.409000
14.250000	1	3.319750
14.266667	1	3.242375
14.283333	1	3.174125
14.300000	1	3.112125
14.316667	1	3.057000
14.333333	1	3.007250
14.350000	1	2.963625
14.366667	1	2.925000
14.383333	1	2.893500
14.400000	1	2.869875
14.416667	1	2.855250
14.433333	1	2.851375
14.450000	1	2.862500
14.466667	1	2.894000
14.483333	1	2.952625
14.500000	1	3.049875
14.516667	1	3.200250
14.533333	1	3.423875
14.550000	1	3.748625
14.566667	1	4.210375
14.583333	1	4.853375
14.600000	1	5.734500
14.616667	1	6.920750
14.633333	1	8.488750
14.650000	1	10.516625
14.666667	1	13.083125
14.683333	1	16.252250
14.700000	1	20.067500
14.716667	1	24.534750
14.733333	1	29.620875
14.750000	1	35.243750
14.766667	1	41.264125
14.783333	1	47.480250
14.800000	1	53.659625
14.816667	1	59.538000
14.833333	1	64.836750
14.850000	1	69.286375
14.866667	1	72.651500
14.883333	1	74.755250
14.900000	1	75.496375
14.916667	1	74.858625
14.933333	1	72.911250
14.950000	1	69.799000
14.966667	1	65.723875
14.983333	1	60.930000
15.000000	1	55.662875
15.016667	1	50.159875
15.033333	1	44.637625
15.050000	1	39.277125
15.066667	1	34.218625
15.083333	1	29.562500
15.100000	1	25.367375
15.116667	1	21.654750
15.133333	1	18.419875
15.150000	1	15.636500
15.166667	1	13.270250
15.183333	1	11.277375
15.200000	1	9.610250
15.216667	1	8.225750
15.233333	1	7.081000
15.250000	1	6.140750
15.266667	1	5.371250
15.283333	1	4.744250
15.300000	1	4.237125
15.316667	1	3.828875
15.333333	1	3.503125
15.350000	1	3.245875
15.366667	1	3.044500
15.383333	1	2.890000
15.400000	1	2.773875
15.416667	1	2.688125
15.433333	1	2.626875
15.450000	1	2.582750
15.466667	1	2.552375
15.483333	1	2.530000
15.500000	1	2.510625
15.516667	1	2.492125
15.533333	1	2.471750
15.550000	1	2.447500
15.566667	1	2.418500
15.583333	1	2.384750
15.600000	1	2.347250
15.616667	1	2.305625
15.633333	1	2.261875
15.650000	1	2.218500
15.666667	1	2.175375
15.683333	1	2.133500
15.700000	1	2.094000
15.716667	1	2.056125
15.733333	1	2.019750
15.750000	1	1.985375
15.766667	1	1.951125
15.783333	1	1.918500
15.800000	1	1.884375
15.816667	1	1.851125
15.833333	1	1.817625
15.850000	1	1.784625
15.866667	1	1.751000
15.883333	1	1.718625
15.900000	1	1.688125
15.916667	1	1.660000
15.933333	1	1.634625
15.950000	1	1.612375
15.966667	1	1.593500
15.983333	1	1.578625
16.000000	1	1.566875
16.016667	1	1.557625
16.033333	1	1.551125
16.050000	1	1.545750
16.066667	1	1.541750
16.083333	1	1.538375
16.100000	1	1.534500
16.116667	1	1.530125
16.133333	1	1.525125
16.150000	1	1.517875
16.166667	1	1.509250
16.183333	1	1.498875
16.200000	1	1.487375
16.216667	1	1.474125
16.233333	1	1.459875
16.250000	1	1.444375
16.266667	1	1.428500
16.283333	1	1.410875
16.300000	1	1.394250
16.316667	1	1.376625
16.333333	1	1.359000
16.350000	1	1.342625
16.366667	1	1.327000
16.383333	1	1.312000
16.400000	1	1.298250
16.416667	1	1.286625
16.433333	1	1.276875
16.450000	1	1.270125
16.466667	1	1.265375
16.483333	1	1.263250
16.500000	1	1.263875
16.516667	1	1.266500
16.533333	1	1.271375
16.550000	1	1.278000
16.566667	1	1.284375
16.583333	1	1.291000
16.600000	1	1.297625
16.616667	1	1.303750
16.633333	1	1.308375
16.650000	1	1.311125
16.666667	1	1.313250
16.683333	1	1.313250
16.700000	1	1.312750
16.716667	1	1.311375
16.733333	1	1.309375
16.750000	1	1.308250
16.766667	1	1.307125
16.783333	1	1.306875
16.800000	1	1.307500
16.816667	1	1.309500
16.833333	1	1.311500
16.850000	1	1.314875
16.866667	1	1.318000
16.883333	1	1.320500
16.900000	1	1.323000
16.916667	1	1.324500
16.933333	1	1.325250
16.950000	1	1.324250
16.966667	1	1.321750
16.983333	1	1.318750
17.000000	1	1.312875
17.016667	1	1.306875
17.033333	1	1.299750
17.050000	1	1.292250
17.066667	1	1.284625
17.083333	1	1.276750
17.100000	1	1.268875
17.116667	1	1.262250
17.133333	1	1.256125
17.150000	1	1.250875
17.166667	1	1.247000
17.183333	1	1.244375
17.200000	1	1.242125
17.216667	1	1.240750
17.233333	1	1.240750
17.250000	1	1.241500
17.266667	1	1.243375
17.283333	1	1.245625
17.300000	1	1.247500
17.316667	1	1.250625
17.333333	1	1.253375
17.350000	1	1.256625
17.366667	1	1.260625
17.383333	1	1.264625
17.400000	1	1.268125
17.416667	1	1.270750
17.433333	1	1.273125
17.450000	1	1.275000
17.466667	1	1.275250
17.483333	1	1.273250
17.500000	1	1.270875
17.516667	1	1.265750
17.533333	1	1.259500
17.550000	1	1.251625
17.566667	1	1.242875
17.583333	1	1.232250
17.600000	1	1.220375
17.616667	1	1.206375
17.633333	1	1.191625
17.650000	1	1.175875
17.666667	1	1.160125
17.683333	1	1.144000
17.700000	1	1.127625
17.716667	1	1.111000
17.733333	1	1.094875
17.750000	1	1.079250
17.766667	1	1.063625
17.783333	1	1.048875
17.800000	1	1.034125
17.816667	1	1.021375
17.833333	1	1.008875
17.850000	1	0.997375
17.866667	1	0.986250
17.883333	1	0.975750
17.900000	1	0.966625
17.916667	1	0.957875
17.933333	1	0.949750
17.950000	1	0.941625
17.966667	1	0.934125
17.983333	1	0.926625
18.000000	1	0.918875
18.016667	1	0.911875
18.033333	1	0.904250
18.050000	1	0.896750
18.066667	1	0.889125
18.083333	1	0.882625
18.100000	1	0.875500
18.116667	1	0.868875
18.133333	1	0.862875
18.150000	1	0.857875
18.166667	1	0.854000
18.183333	1	0.849750
18.200000	1	0.846375
18.216667	1	0.844500
18.233333	1	0.843625
18.250000	1	0.843875
18.266667	1	0.843875
18.283333	1	0.845000
18.300000	1	0.846625
18.316667	1	0.848500
18.333333	1	0.851000
18.350000	1	0.853500
18.366667	1	0.856625
18.383333	1	0.860875
18.400000	1	0.864875
18.416667	1	0.869750
18.433333	1	0.875500
18.450000	1	0.882000
18.466667	1	0.889875
18.483333	1	0.899000
18.500000	1	0.910000
18.516667	1	0.922750
18.533333	1	0.937125
18.550000	1	0.954000
18.566667	1	0.972250
18.583333	1	0.992375
18.600000	1	1.015000
18.616667	1	1.038625
18.633333	1	1.064000
18.650000	1	1.091875
18.666667	1	1.120750
18.683333	1	1.152000
18.700000	1	1.184125
18.716667	1	1.217625
18.733333	1	1.252000
18.750000	1	1.287000
18.766667	1	1.322625
18.783333	1	1.358125
18.800000	1	1.394000
18.816667	1	1.428250
18.833333	1	1.460125
18.850000	1	1.489375
18.866667	1	1.515500
18.883333	1	1.536125
18.900000	1	1.552625
18.916667	1	1.562750
18.933333	1	1.566875
18.950000	1	1.564125
18.966667	1	1.553875
18.983333	1	1.536750
19.000000	1	1.512375
19.016667	1	1.481375
19.033333	1	1.445000
19.050000	1	1.403750
19.066667	1	1.358375
19.083333	1	1.310250
19.100000	1	1.261125
19.116667	1	1.212750
19.133333	1	1.165500
19.150000	1	1.122000
19.166667	1	1.083250
19.183333	1	1.050500
19.200000	1	1.024875
19.216667	1	1.008750
19.233333	1	1.003500
19.250000	1	1.010125
19.266667	1	1.029500
19.283333	1	1.064000
19.300000	1	1.114000
19.316667	1	1.178750
19.333333	1	1.260000
19.350000	1	1.358125
19.366667	1	1.471250
19.383333	1	1.599250
19.400000	1	1.738875
19.416667	1	1.887125
19.433333	1	2.040750
19.450000	1	2.196250
19.466667	1	2.348500
19.483333	1	2.493125
19.500000	1	2.625375
19.516667	1	2.740375
19.533333	1	2.835250
19.550000	1	2.906625
19.566667	1	2.951625
19.583333	1	2.970000
19.600000	1	2.962500
19.616667	1	2.927500
19.633333	1	2.869000
19.650000	1	2.788000
19.666667	1	2.689625
19.683333	1	2.577000
19.700000	1	2.454625
19.716667	1	2.324500
19.733333	1	2.191000
19.750000	1	2.057000
19.766667	1	1.925375
19.783333	1	1.796875
19.800000	1	1.673750
19.816667	1	1.557875
19.833333	1	1.449625
19.850000	1	1.349000
19.866667	1	1.256250
19.883333	1	1.172125
19.900000	1	1.096375
19.916667	1	1.027625
19.933333	1	0.965500
19.950000	1	0.910625
19.966667	1	0.861500
19.983333	1	0.818625
20.000000	1	0.782375
20.016667	1	0.751375
20.033333	1	0.725375
20.050000	1	0.704000
20.066667	1	0.687875
20.083333	1	0.676750
20.100000	1	0.670125
20.116667	1	0.666875
20.133333	1	0.667625
20.150000	1	0.672000
20.166667	1	0.679500
20.183333	1	0.689750
20.200000	1	0.702125
20.216667	1	0.715250
20.233333	1	0.728750
20.250000	1	0.742375
20.266667	1	0.755875
20.283333	1	0.767625
20.300000	1	0.777125
20.316667	1	0.783875
20.333333	1	0.787125
20.350000	1	0.787125
20.366667	1	0.783750
20.383333	1	0.777250
20.400000	1	0.767250
20.416667	1	0.755375
20.433333	1	0.741000
20.450000	1	0.726000
20.466667	1	0.709875
20.483333	1	0.695125
20.500000	1	0.681000
20.516667	1	0.670375
20.533333	1	0.662375
20.550000	1	0.659000
20.566667	1	0.661000
20.583333	1	0.668750
20.600000	1	0.684000
20.616667	1	0.706375
20.633333	1	0.737375
20.650000	1	0.776000
20.666667	1	0.824250
20.683333	1	0.881000
20.700000	1	0.945750
20.716667	1	1.018250
20.733333	1	1.096000
20.750000	1	1.177375
20.766667	1	1.261375
20.783333	1	1.345625
20.800000	1	1.426000
20.816667	1	1.501250
20.833333	1	1.568375
20.850000	1	1.625250
20.866667	1	1.669250
20.883333	1	1.699625
20.900000	1	1.715250
20.916667	1	1.715875
20.933333	1	1.700750
20.950000	1	1.672000
20.966667	1	1.630000
20.983333	1	1.576500
21.000000	1	1.513375
21.016667	1	1.442875
21.033333	1	1.367750
21.050000	1	1.289375
21.066667	1	1.210875
21.083333	1	1.133000
21.100000	1	1.057250
21.116667	1	0.985375
21.133333	1	0.918375
21.150000	1	0.855625
21.166667	1	0.798500
21.183333	1	0.745875
21.200000	1	0.699375
21.216667	1	0.658000
21.233333	1	0.621500
21.250000	1	0.589250
21.266667	1	0.561750
21.283333	1	0.537125
21.300000	1	0.516500
21.316667	1	0.498250
21.333333	1	0.482750
21.350000	1	0.469125
21.366667	1	0.458250
21.383333	1	0.448500
21.400000	1	0.440125
21.416667	1	0.432875
21.433333	1	0.427125
21.450000	1	0.422250
21.466667	1	0.417875
21.483333	1	0.413375
21.500000	1	0.409375
21.516667	1	0.406125
21.533333	1	0.404375
21.550000	1	0.402375
21.566667	1	0.401500
21.583333	1	0.401500
21.600000	1	0.402125
21.616667	1	0.403250
21.633333	1	0.405125
21.650000	1	0.407750
21.666667	1	0.411250
21.683333	1	0.415250
21.700000	1	0.420875
21.716667	1	0.427250
21.733333	1	0.434375
21.750000	1	0.442625
21.766667	1	0.452125
21.783333	1	0.461000
21.800000	1	0.471375
21.816667	1	0.481750
21.833333	1	0.492625
21.850000	1	0.505125
21.866667	1	0.516875
21.883333	1	0.528750
21.900000	1	0.539625
21.916667	1	0.550750
21.933333	1	0.562000
21.950000	1	0.572250
21.966667	1	0.581125
21.983333	1	0.590375
22.000000	1	0.599500
22.016667	1	0.607000
22.033333	1	0.613500
22.050000	1	0.619500
22.066667	1	0.623875
22.083333	1	0.628250
22.100000	1	0.630875
22.116667	1	0.633375
22.133333	1	0.634875
22.150000	1	0.634875
22.166667	1	0.633875
22.183333	1	0.631875
22.200000	1	0.628500
22.216667	1	0.623625
22.233333	1	0.617000
22.250000	1	0.610250
22.266667	1	0.602000
22.283333	1	0.592500
22.300000	1	0.582625
22.316667	1	0.571125
22.333333	1	0.559750
22.350000	1	0.546750
22.366667	1	0.533625
22.383333	1	0.521000
22.400000	1	0.507625
22.416667	1	0.494500
22.433333	1	0.482125
22.450000	1	0.469875
22.466667	1	0.457500
22.483333	1	0.446125
22.500000	1	0.435250
22.516667	1	0.424875
22.533333	1	0.414750
22.550000	1	0.405875
22.566667	1	0.397500
22.583333	1	0.389625
22.600000	1	0.382000
22.616667	1	0.375000
22.633333	1	0.368125
22.650000	1	0.361750
22.666667	1	0.355125
22.683333	1	0.349750
22.700000	1	0.344625
22.716667	1	0.339250
22.733333	1	0.334375
22.750000	1	0.329125
22.766667	1	0.324250
22.783333	1	0.319625
22.800000	1	0.315500
22.816667	1	0.311250
22.833333	1	0.307250
22.850000	1	0.303625
22.866667	1	0.299875
22.883333	1	0.296125
22.900000	1	0.293375
22.916667	1	0.290500
22.933333	1	0.287625
22.950000	1	0.285875
22.966667	1	0.284500
22.983333	1	0.283500
23.000000	1	0.282875
23.016667	1	0.283000
23.033333	1	0.283250
23.050000	1	0.284625
23.066667	1	0.285625
23.083333	1	0.287125
23.100000	1	0.288625
23.116667	1	0.291125
23.133333	1	0.293250
23.150000	1	0.295625
23.166667	1	0.297875
23.183333	1	0.300250
23.200000	1	0.303125
23.216667	1	0.306125
23.233333	1	0.308625
23.250000	1	0.312875
23.266667	1	0.317625
23.283333	1	0.322250
23.300000	1	0.328750
23.316667	1	0.336000
23.333333	1	0.346250
23.350000	1	0.358500
23.366667	1	0.374250
23.383333	1	0.393500
23.400000	1	0.417875
23.416667	1	0.448750
23.433333	1	0.485625
23.450000	1	0.531375
23.466667	1	0.587625
23.483333	1	0.655750
23.500000	1	0.736125
23.516667	1	0.831000
23.533333	1	0.942750
23.550000	1	1.072500
23.566667	1	1.220875
23.583333	1	1.387875
23.600000	1	1.574500
23.616667	1	1.778125
23.633333	1	2.000750
23.650000	1	2.239250
23.666667	1	2.490375
23.683333	1	2.752250
23.700000	1	3.020125
23.716667	1	3.289750
23.733333	1	3.555875
23.750000	1	3.812750
23.766667	1	4.054250
23.783333	1	4.275375
23.800000	1	4.471125
23.816667	1	4.636625
23.833333	1	4.767125
23.850000	1	4.861000
23.866667	1	4.915625
23.883333	1	4.930625
23.900000	1	4.906000
23.916667	1	4.844000
23.933333	1	4.745875
23.950000	1	4.615125
23.966667	1	4.455750
23.983333	1	4.273625
24.000000	1	4.072000
24.016667	1	3.856375
24.033333	1	3.632125
24.050000	1	3.403750
24.066667	1	3.174250
24.083333	1	2.947375
24.100000	1	2.725625
24.116667	1	2.511125
24.133333	1	2.306500
24.150000	1	2.113750
24.166667	1	1.933375
24.183333	1	1.765500
24.200000	1	1.611125
24.216667	1	1.468875
24.233333	1	1.340125
24.250000	1	1.222875
24.266667	1	1.118000
24.283333	1	1.023375
24.300000	1	0.939000
24.316667	1	0.864125
24.333333	1	0.798625
24.350000	1	0.740875
24.366667	1	0.690500
24.383333	1	0.646500
24.400000	1	0.609125
24.416667	1	0.576750
24.433333	1	0.549875
24.450000	1	0.527000
24.466667	1	0.508250
24.483333	1	0.492250
24.500000	1	0.479625
24.516667	1	0.468750
24.533333	1	0.459375
24.550000	1	0.451000
24.566667	1	0.445125
24.583333	1	0.439500
24.600000	1	0.434875
24.616667	1	0.430250
24.633333	1	0.425250
24.650000	1	0.420625
24.666667	1	0.415250
24.683333	1	0.410750
24.700000	1	0.405750
24.716667	1	0.400250
24.733333	1	0.394625
24.750000	1	0.388875
24.766667	1	0.382375
24.783333	1	0.376250
24.800000	1	0.369375
24.816667	1	0.363125
24.833333	1	0.356625
24.850000	1	0.351125
24.866667	1	0.345000
24.883333	1	0.339000
24.900000	1	0.333375
24.916667	1	0.328625
24.933333	1	0.324125
24.950000	1	0.319375
24.966667	1	0.314500
24.983333	1	0.310375
25.000000	1	0.306250
25.016667	1	0.302500
25.033333	1	0.298625
25.050000	1	0.295000
25.066667	1	0.291500
25.083333	1	0.288250
25.100000	1	0.285000
25.116667	1	0.282125
25.133333	1	0.278750
25.150000	1	0.275250
25.166667	1	0.271875
25.183333	1	0.268625
25.200000	1	0.266000
25.216667	1	0.263625
25.233333	1	0.262125
25.250000	1	0.259625
25.266667	1	0.257375
25.283333	1	0.254250
25.300000	1	0.252875
25.316667	1	0.251500
25.333333	1	0.250125
25.350000	1	0.248750
25.366667	1	0.247750
25.383333	1	0.246750
25.400000	1	0.246375
25.416667	1	0.247500
25.433333	1	0.247875
25.450000	1	0.247750
25.466667	1	0.248875
25.483333	1	0.249750
25.500000	1	0.251250
25.516667	1	0.252625
25.533333	1	0.254875
25.550000	1	0.256500
25.566667	1	0.257875
25.583333	1	0.259625
25.600000	1	0.261250
25.616667	1	0.262625
25.633333	1	0.264250
25.650000	1	0.265750
25.666667	1	0.267375
25.683333	1	0.268625
25.700000	1	0.269875
25.716667	1	0.271000
25.733333	1	0.271625
25.750000	1	0.272375
25.766667	1	0.272875
25.783333	1	0.272625
25.800000	1	0.272500
25.816667	1	0.273000
25.833333	1	0.273500
25.850000	1	0.273500
25.866667	1	0.274500
25.883333	1	0.274375
25.900000	1	0.274625
25.916667	1	0.275625
25.933333	1	0.276625
25.950000	1	0.277000
25.966667	1	0.278500
25.983333	1	0.280000
26.000000	1	0.282000
26.016667	1	0.284375
26.033333	1	0.287500
26.050000	1	0.290875
26.066667	1	0.294375
26.083333	1	0.298000
26.100000	1	0.302500
26.116667	1	0.307250
26.133333	1	0.311250
26.150000	1	0.315750
26.166667	1	0.319375
26.183333	1	0.323625
26.200000	1	0.327125
26.216667	1	0.331250
26.233333	1	0.334500
26.250000	1	0.338000
26.266667	1	0.340625
26.283333	1	0.342250
26.300000	1	0.343375
26.316667	1	0.344000
26.333333	1	0.344500
26.350000	1	0.344375
26.366667	1	0.343125
26.383333	1	0.341250
26.400000	1	0.338875
26.416667	1	0.335000
26.433333	1	0.331500
26.450000	1	0.327500
26.466667	1	0.322500
26.483333	1	0.317500
26.500000	1	0.311375
26.516667	1	0.305500
26.533333	1	0.299250
26.550000	1	0.292500
26.566667	1	0.285375
26.583333	1	0.278750
26.600000	1	0.271875
26.616667	1	0.265250
26.633333	1	0.259375
26.650000	1	0.253000
26.666667	1	0.246875
26.683333	1	0.241375
26.700000	1	0.236375
26.716667	1	0.231875
26.733333	1	0.227250
26.750000	1	0.223375
26.766667	1	0.219125
26.783333	1	0.215500
26.800000	1	0.211750
26.816667	1	0.208750
26.833333	1	0.207000
26.850000	1	0.205000
26.866667	1	0.203250
26.883333	1	0.202250
26.900000	1	0.201500
26.916667	1	0.201750
26.933333	1	0.201625
26.950000	1	0.202500
26.966667	1	0.203500
26.983333	1	0.204500
27.000000	1	0.206250
27.016667	1	0.208875
27.033333	1	0.212000
27.050000	1	0.216000
27.066667	1	0.220375
27.083333	1	0.225625
27.100000	1	0.231625
27.116667	1	0.237750
27.133333	1	0.245125
27.150000	1	0.254000
27.166667	1	0.263750
27.183333	1	0.275875
27.200000	1	0.289250
27.216667	1	0.304750
27.233333	1	0.322875
27.250000	1	0.344375
27.266667	1	0.369125
27.283333	1	0.397875
27.300000	1	0.430500
27.316667	1	0.468125
27.333333	1	0.512125
27.350000	1	0.562250
27.366667	1	0.619750
27.383333	1	0.685750
27.400000	1	0.760375
27.416667	1	0.843750
27.433333	1	0.938625
27.450000	1	1.045125
27.466667	1	1.163375
27.483333	1	1.293875
27.500000	1	1.436500
27.516667	1	1.593000
27.533333	1	1.760875
27.550000	1	1.940875
27.566667	1	2.131125
27.583333	1	2.331000
27.600000	1	2.539500
27.616667	1	2.754000
27.633333	1	2.972000
27.650000	1	3.192125
27.666667	1	3.411250
27.683333	1	3.626375
27.700000	1	3.833500
27.716667	1	4.029250
27.733333	1	4.210250
27.750000	1	4.374875
27.766667	1	4.517625
27.783333	1	4.637875
27.800000	1	4.731625
27.816667	1	4.797875
27.833333	1	4.835500
27.850000	1	4.843500
27.866667	1	4.821375
27.883333	1	4.769250
27.900000	1	4.688500
27.916667	1	4.580875
27.933333	1	4.448125
27.950000	1	4.293375
27.966667	1	4.121000
27.983333	1	3.933000
28.000000	1	3.733750
28.016667	1	3.525500
28.033333	1	3.311750
28.050000	1	3.095750
28.066667	1	2.880125
28.083333	1	2.667625
28.100000	1	2.461000
28.116667	1	2.261875
28.133333	1	2.071875
28.150000	1	1.892875
28.166667	1	1.723875
28.183333	1	1.568250
28.200000	1	1.424750
28.216667	1	1.293125
28.233333	1	1.173000
28.250000	1	1.064875
28.266667	1	0.966875
28.283333	1	0.879375
28.300000	1	0.802000
28.316667	1	0.733625
28.333333	1	0.673625
28.350000	1	0.622500
28.366667	1	0.578125
28.383333	1	0.541000
28.400000	1	0.510125
28.416667	1	0.484375
28.433333	1	0.465000
28.450000	1	0.449000
28.466667	1	0.438125
28.483333	1	0.430500
28.500000	1	0.426250
28.516667	1	0.425000
28.533333	1	0.427375
28.550000	1	0.431875
28.566667	1	0.438000
28.583333	1	0.446000
28.600000	1	0.456000
28.616667	1	0.466750
28.633333	1	0.478750
28.650000	1	0.490750
28.666667	1	0.503375
28.683333	1	0.515750
28.700000	1	0.529125
28.716667	1	0.542000
28.733333	1	0.554500
28.750000	1	0.565625
28.766667	1	0.576125
28.783333	1	0.587125
28.800000	1	0.597375
28.816667	1	0.606250
28.833333	1	0.613500
28.850000	1	0.619750
28.866667	1	0.624375
28.883333	1	0.628250
28.900000	1	0.630625
28.916667	1	0.632125
28.933333	1	0.631750
28.950000	1	0.630250
28.966667	1	0.627000
28.983333	1	0.622375
29.000000	1	0.616250
29.016667	1	0.609500
29.033333	1	0.601500
29.050000	1	0.592250
29.066667	1	0.581625
29.083333	1	0.570875
29.100000	1	0.558750
29.116667	1	0.545125
29.133333	1	0.531875
29.150000	1	0.517375
29.166667	1	0.503000
29.183333	1	0.488125
29.200000	1	0.472250
29.216667	1	0.457000
29.233333	1	0.440750
29.250000	1	0.423625
29.266667	1	0.407375
29.283333	1	0.391250
29.300000	1	0.375375
29.316667	1	0.359500
29.333333	1	0.344250
29.350000	1	0.329125
29.366667	1	0.315125
29.383333	1	0.300875
29.400000	1	0.286875
29.416667	1	0.273000
29.433333	1	0.260000
29.450000	1	0.247625
29.466667	1	0.235625
29.483333	1	0.224000
29.500000	1	0.213125
29.516667	1	0.202375
29.533333	1	0.192500
29.550000	1	0.183625
29.566667	1	0.174500
29.583333	1	0.166250
29.600000	1	0.159375
29.616667	1	0.152250
29.633333	1	0.145375
29.650000	1	0.139500
29.666667	1	0.134250
29.683333	1	0.129750
29.700000	1	0.125500
29.716667	1	0.121250
29.733333	1	0.117625
29.750000	1	0.114250
29.766667	1	0.111250
29.783333	1	0.109000
29.800000	1	0.107375
29.816667	1	0.105625
29.833333	1	0.103750
29.850000	1	0.102000
29.866667	1	0.100750
29.883333	1	0.100375
29.900000	1	0.100250
29.916667	1	0.099625
29.933333	1	0.099000
29.950000	1	0.099500
29.966667	1	0.099375
29.983333	1	0.099500
30.000000	1	0.099375
30.016667	1	0.100125
30.033333	1	0.100625
30.050000	1	0.101000
30.066667	1	0.101375
30.083333	1	0.102375
30.100000	1	0.102625
30.116667	1	0.103500
30.133333	1	0.104250
30.150000	1	0.104625
30.166667	1	0.105375
30.183333	1	0.105625
30.200000	1	0.106625
30.216667	1	0.108000
30.233333	1	0.108750
30.250000	1	0.109875
30.266667	1	0.111250
30.283333	1	0.112250
30.300000	1	0.113750
30.316667	1	0.114750
30.333333	1	0.116250
30.350000	1	0.117500
30.366667	1	0.119125
30.383333	1	0.120875
30.400000	1	0.121500
30.416667	1	0.123500
30.433333	1	0.125625
30.450000	1	0.128250
30.466667	1	0.130125
30.483333	1	0.132625
30.500000	1	0.135250
30.516667	1	0.138250
30.533333	1	0.141625
30.550000	1	0.145375
30.566667	1	0.150000
30.583333	1	0.154125
30.600000	1	0.160000
30.616667	1	0.165750
30.633333	1	0.171250
30.650000	1	0.177500
30.666667	1	0.184000
30.683333	1	0.191500
30.700000	1	0.199625
30.716667	1	0.207750
30.733333	1	0.216750
30.750000	1	0.225750
30.766667	1	0.236000
30.783333	1	0.245750
30.800000	1	0.257250
30.816667	1	0.269000
30.833333	1	0.282500
30.850000	1	0.296125
30.866667	1	0.310250
30.883333	1	0.325125
30.900000	1	0.343000
30.916667	1	0.361750
30.933333	1	0.381750
30.950000	1	0.403750
30.966667	1	0.427625
30.983333	1	0.454625
31.000000	1	0.485250
31.016667	1	0.519500
31.033333	1	0.558125
31.050000	1	0.600625
31.066667	1	0.648125
31.083333	1	0.700875
31.100000	1	0.759750
31.116667	1	0.824625
31.133333	1	0.896375
31.150000	1	0.974625
31.166667	1	1.061125
31.183333	1	1.155000
31.200000	1	1.256250
31.216667	1	1.365375
31.233333	1	1.481500
31.250000	1	1.604375
31.266667	1	1.734125
31.283333	1	1.868875
31.300000	1	2.007500
31.316667	1	2.149375
31.333333	1	2.293500
31.350000	1	2.437750
31.366667	1	2.581000
31.383333	1	2.721750
31.400000	1	2.858750
31.416667	1	2.989250
31.433333	1	3.111875
31.450000	1	3.224375
31.466667	1	3.327375
31.483333	1	3.416750
31.500000	1	3.492000
31.516667	1	3.552250
31.533333	1	3.596750
31.550000	1	3.625125
31.566667	1	3.637625
31.583333	1	3.633375
31.600000	1	3.612625
31.616667	1	3.574875
31.633333	1	3.522875
31.650000	1	3.456500
31.666667	1	3.376750
31.683333	1	3.285250
31.700000	1	3.183375
31.716667	1	3.071750
31.733333	1	2.953125
31.750000	1	2.829000
31.766667	1	2.700125
31.783333	1	2.567750
31.800000	1	2.433250
31.816667	1	2.299000
31.833333	1	2.164625
31.850000	1	2.031875
31.866667	1	1.902625
31.883333	1	1.777500
31.900000	1	1.656625
31.916667	1	1.540875
31.933333	1	1.430000
31.950000	1	1.324875
31.966667	1	1.225500
31.983333	1	1.131500
32.000000	1	1.043250
32.016667	1	0.960750
32.033333	1	0.884000
32.050000	1	0.812875
32.066667	1	0.747250
32.083333	1	0.685875
32.100000	1	0.630375
32.116667	1	0.578125
32.133333	1	0.530250
32.150000	1	0.485375
32.166667	1	0.444750
32.183333	1	0.407750
32.200000	1	0.373000
32.216667	1	0.342125
32.233333	1	0.313250
32.250000	1	0.286625
32.266667	1	0.261750
32.283333	1	0.240250
32.300000	1	0.219125
32.316667	1	0.199875
32.333333	1	0.183250
32.350000	1	0.168125
32.366667	1	0.153875
32.383333	1	0.141000
32.400000	1	0.129125
32.416667	1	0.118125
32.433333	1	0.108500
32.450000	1	0.100000
32.466667	1	0.092000
32.483333	1	0.085000
32.500000	1	0.078500
32.516667	1	0.073500
32.533333	1	0.068625
32.550000	1	0.065125
32.566667	1	0.061250
32.583333	1	0.058000
32.600000	1	0.055125
32.616667	1	0.052875
32.633333	1	0.051250
32.650000	1	0.049375
32.666667	1	0.048125
32.683333	1	0.047000
32.700000	1	0.045750
32.716667	1	0.044250
32.733333	1	0.042375
32.750000	1	0.041750
32.766667	1	0.041000
32.783333	1	0.039750
32.800000	1	0.038500
32.816667	1	0.037500
32.833333	1	0.036625
32.850000	1	0.034750
32.866667	1	0.033750
32.883333	1	0.031625
32.900000	1	0.029000
32.916667	1	0.027000
32.933333	1	0.025375
32.950000	1	0.024000
32.966667	1	0.022125
32.983333	1	0.020375
33.000000	1	0.018375
33.016667	1	0.016500
33.033333	1	0.014875
33.050000	1	0.013000
33.066667	1	0.011125
33.083333	1	0.009750
33.100000	1	0.008125
33.116667	1	0.007125
33.133333	1	0.005750
33.150000	1	0.005125
33.166667	1	0.004000
33.183333	1	0.004375
33.200000	1	0.003750
33.216667	1	0.003375
33.233333	1	0.003000
33.250000	1	0.002875
33.266667	1	0.002875
33.283333	1	0.003125
33.300000	1	0.003750
33.316667	1	0.004000
33.333333	1	0.005000
33.350000	1	0.005500
33.366667	1	0.006875
33.383333	1	0.008250
33.400000	1	0.010000
33.416667	1	0.011375
33.433333	1	0.013000
33.450000	1	0.014500
33.466667	1	0.017000
33.483333	1	0.018375
33.500000	1	0.020625
33.516667	1	0.023000
33.533333	1	0.025250
33.550000	1	0.027625
33.566667	1	0.030000
33.583333	1	0.032875
33.600000	1	0.035750
33.616667	1	0.037875
33.633333	1	0.040875
33.650000	1	0.043750
33.666667	1	0.046375
33.683333	1	0.048875
33.700000	1	0.052375
33.716667	1	0.055500
33.733333	1	0.058250
33.750000	1	0.061375
33.766667	1	0.065000
33.783333	1	0.068500
33.800000	1	0.071250
33.816667	1	0.074375
33.833333	1	0.077125
33.850000	1	0.080250
33.866667	1	0.082875
33.883333	1	0.085875
33.900000	1	0.087875
33.916667	1	0.090750
33.933333	1	0.093000
33.950000	1	0.095500
33.966667	1	0.097625
33.983333	1	0.100875
34.000000	1	0.102750
34.016667	1	0.104375
34.033333	1	0.106250
34.050000	1	0.108000
34.066667	1	0.109625
34.083333	1	0.110500
34.100000	1	0.111375
34.116667	1	0.112000
34.133333	1	0.112875
34.150000	1	0.113750
34.166667	1	0.114500
34.183333	1	0.114500
34.200000	1	0.114750
34.216667	1	0.115125
34.233333	1	0.115125
34.250000	1	0.114250
34.266667	1	0.113875
34.283333	1	0.113500
34.300000	1	0.113375
34.316667	1	0.112125
34.333333	1	0.111250
34.350000	1	0.111000
34.366667	1	0.110250
34.383333	1	0.109250
34.400000	1	0.108750
34.416667	1	0.108375
34.433333	1	0.107500
34.450000	1	0.106625
34.466667	1	0.106375
34.483333	1	0.105625
34.500000	1	0.104875
34.516667	1	0.104750
34.533333	1	0.105250
34.550000	1	0.105250
34.566667	1	0.105125
34.583333	1	0.105250
34.600000	1	0.104500
34.616667	1	0.104500
34.633333	1	0.104125
34.650000	1	0.104125
34.666667	1	0.104500
34.683333	1	0.104875
34.700000	1	0.104500
34.716667	1	0.103875
34.733333	1	0.103250
34.750000	1	0.102875
34.766667	1	0.102625
34.783333	1	0.101750
34.800000	1	0.101875
34.816667	1	0.101000
34.833333	1	0.100750
34.850000	1	0.099875
34.866667	1	0.099000
34.883333	1	0.097750
34.900000	1	0.097125
34.916667	1	0.095875
34.933333	1	0.095000
34.950000	1	0.093875
34.966667	1	0.092625
34.983333	1	0.091875
35.000000	1	0.090250
35.016667	1	0.089125
35.033333	1	0.087500
35.050000	1	0.086625
35.066667	1	0.086000
35.083333	1	0.084875
35.100000	1	0.083500
35.116667	1	0.082500
35.133333	1	0.080875
35.150000	1	0.079875
35.166667	1	0.078875
35.183333	1	0.078625
35.200000	1	0.078250
35.216667	1	0.078000
35.233333	1	0.077500
35.250000	1	0.076750
35.266667	1	0.076625
35.283333	1	0.076875
35.300000	1	0.077000
35.316667	1	0.077625
35.333333	1	0.079000
35.350000	1	0.080625
35.366667	1	0.080875
35.383333	1	0.082625
35.400000	1	0.084000
35.416667	1	0.085125
35.433333	1	0.086375
35.450000	1	0.088250
35.466667	1	0.090125
35.483333	1	0.092000
35.500000	1	0.094375
35.516667	1	0.097125
35.533333	1	0.099750
35.550000	1	0.102250
35.566667	1	0.104125
35.583333	1	0.106125
35.600000	1	0.108500
35.616667	1	0.110875
35.633333	1	0.112750
35.650000	1	0.114375
35.666667	1	0.116125
35.683333	1	0.117875
35.700000	1	0.119625
35.716667	1	0.121000
35.733333	1	0.122750
35.750000	1	0.124250
35.766667	1	0.124250
35.783333	1	0.124625
35.800000	1	0.125125
35.816667	1	0.126125
35.833333	1	0.125500
35.850000	1	0.126250
35.866667	1	0.126250
35.883333	1	0.126375
35.900000	1	0.126375
35.916667	1	0.125500
35.933333	1	0.124750
35.950000	1	0.122750
35.966667	1	0.121875
35.983333	1	0.121125
36.000000	1	0.120750
36.016667	1	0.119250
36.033333	1	0.118000
36.050000	1	0.117500
36.066667	1	0.116750
36.083333	1	0.116125
36.100000	1	0.115500
36.116667	1	0.115250
36.133333	1	0.115250
36.150000	1	0.114375
36.166667	1	0.113625
36.183333	1	0.112750
36.200000	1	0.112625
36.216667	1	0.111750
36.233333	1	0.111000
36.250000	1	0.110125
36.266667	1	0.110375
36.283333	1	0.110125
36.300000	1	0.109625
36.316667	1	0.109375
36.333333	1	0.109500
36.350000	1	0.109375
36.366667	1	0.109750
36.383333	1	0.109375
36.400000	1	0.108750
36.416667	1	0.108625
36.433333	1	0.108500
36.450000	1	0.107625
36.466667	1	0.107625
36.483333	1	0.106500
36.500000	1	0.105250
36.516667	1	0.104750
36.533333	1	0.103750
36.550000	1	0.102375
36.566667	1	0.101125
36.583333	1	0.100500
36.600000	1	0.098375
36.616667	1	0.096375
36.633333	1	0.094375
36.650000	1	0.092000
36.666667	1	0.090000
36.683333	1	0.088000
36.700000	1	0.085250
36.716667	1	0.083250
36.733333	1	0.080125
36.750000	1	0.077375
36.766667	1	0.074625
36.783333	1	0.070875
36.800000	1	0.068125
36.816667	1	0.064625
36.833333	1	0.061250
36.850000	1	0.057750
36.866667	1	0.054500
36.883333	1	0.051000
36.900000	1	0.047500
36.916667	1	0.045375
36.933333	1	0.042375
36.950000	1	0.039500
36.966667	1	0.036625
36.983333	1	0.033750
37.000000	1	0.030875
37.016667	1	0.028500
37.033333	1	0.025500
37.050000	1	0.023375
37.066667	1	0.020750
37.083333	1	0.018875
37.100000	1	0.017125
37.116667	1	0.015500
37.133333	1	0.014125
37.150000	1	0.012625
37.166667	1	0.011125
37.183333	1	0.010750
37.200000	1	0.010125
37.216667	1	0.009375
37.233333	1	0.009750
37.250000	1	0.009125
37.266667	1	0.008875
37.283333	1	0.009000
37.300000	1	0.009250
37.316667	1	0.009500
37.333333	1	0.010250
37.350000	1	0.011000
37.366667	1	0.012125
37.383333	1	0.012750
37.400000	1	0.013750
37.416667	1	0.014875
37.433333	1	0.016250
37.450000	1	0.017250
37.466667	1	0.018250
37.483333	1	0.018500
37.500000	1	0.020375
37.516667	1	0.021375
37.533333	1	0.022125
37.550000	1	0.022625
37.566667	1	0.023125
37.583333	1	0.023500
37.600000	1	0.023500
37.616667	1	0.023750
37.633333	1	0.024125
37.650000	1	0.023875
37.666667	1	0.023750
37.683333	1	0.023500
37.700000	1	0.023500
37.716667	1	0.022625
37.733333	1	0.022625
37.750000	1	0.021875
37.766667	1	0.021375
37.783333	1	0.020375
37.800000	1	0.019875
37.816667	1	0.018625
37.833333	1	0.017875
37.850000	1	0.017125
37.866667	1	0.016250
37.883333	1	0.015875
37.900000	1	0.015375
37.916667	1	0.015125
37.933333	1	0.014625
37.950000	1	0.014375
37.966667	1	0.014000
37.983333	1	0.013500
38.000000	1	0.013250
38.016667	1	0.013625
38.033333	1	0.013875
38.050000	1	0.013875
38.066667	1	0.014625
38.083333	1	0.015500
38.100000	1	0.016125
38.116667	1	0.016750
38.133333	1	0.017875
38.150000	1	0.018250
38.166667	1	0.019125
38.183333	1	0.020000
38.200000	1	0.021250
38.216667	1	0.022000
38.233333	1	0.022625
38.250000	1	0.024750
38.266667	1	0.026125
38.283333	1	0.026500
38.300000	1	0.027875
38.316667	1	0.029125
38.333333	1	0.030750
38.350000	1	0.032250
38.366667	1	0.033750
38.383333	1	0.035625
38.400000	1	0.037250
38.416667	1	0.038625
38.433333	1	0.039750
38.450000	1	0.040375
38.466667	1	0.042000
38.483333	1	0.043750
38.500000	1	0.045250
38.516667	1	0.046750
38.533333	1	0.047375
38.550000	1	0.048500
38.566667	1	0.049500
38.583333	1	0.050125
38.600000	1	0.051375
38.616667	1	0.053000
38.633333	1	0.054125
38.650000	1	0.055000
38.666667	1	0.055875
38.683333	1	0.057750
38.700000	1	0.058000
38.716667	1	0.059250
38.733333	1	0.059500
38.750000	1	0.060625
38.766667	1	0.060875
38.783333	1	0.062625
38.800000	1	0.063250
38.816667	1	0.064125
38.833333	1	0.065000
38.850000	1	0.065500
38.866667	1	0.065750
38.883333	1	0.067000
38.900000	1	0.067500
38.916667	1	0.068375
38.933333	1	0.068625
38.950000	1	0.069000
38.966667	1	0.069250
38.983333	1	0.069125
39.000000	1	0.069250
39.016667	1	0.069250
39.033333	1	0.069375
39.050000	1	0.069625
39.066667	1	0.069500
39.083333	1	0.069250
39.100000	1	0.069125
39.116667	1	0.068000
39.133333	1	0.067000
39.150000	1	0.066250
39.166667	1	0.065125
39.183333	1	0.064500
39.200000	1	0.063375
39.216667	1	0.061875
39.233333	1	0.060875
39.250000	1	0.059500
39.266667	1	0.057500
39.283333	1	0.055750
39.300000	1	0.053625
39.316667	1	0.051625
39.333333	1	0.049500
39.350000	1	0.047375
39.366667	1	0.044750
39.383333	1	0.042375
39.400000	1	0.039875
39.416667	1	0.037125
39.433333	1	0.034500
39.450000	1	0.031375
39.466667	1	0.028625
39.483333	1	0.026000
39.500000	1	0.023000
39.516667	1	0.020250
39.533333	1	0.016750
39.550000	1	0.014000
39.566667	1	0.010625
39.583333	1	0.007750
39.600000	1	0.004875
39.616667	1	0.002250
39.633333	1	-0.000375
39.650000	1	-0.003000
39.666667	1	-0.006500
39.683333	1	-0.009875
39.700000	1	-0.013000
39.716667	1	-0.015875
39.733333	1	-0.018125
39.750000	1	-0.021000
39.766667	1	-0.023750
39.783333	1	-0.026250
39.800000	1	-0.029250
39.816667	1	-0.031625
39.833333	1	-0.033000
39.850000	1	-0.035000
39.866667	1	-0.037000
39.883333	1	-0.038500
39.900000	1	-0.040125
39.916667	1	-0.041875
39.933333	1	-0.044500
39.950000	1	-0.046000
39.966667	1	-0.047250
39.983333	1	-0.048000
40.000000	1	-0.048625
