URL	chrom://bioreactor/micro_cm7/HPLC_Ultimate_3000/Users/markusar/20240708_MA_pHrange1.seq/503.smp/RI_1.channel/RI_1.chm
Channel	RI_1

Injection Information:
Data Vault	micro_cm7
Sequence	20240708_MA_pHrange1
Name	Pv2_20H_5
Number	41
Position	BD5
Comment	
Processing Method	
Instrument Method	run_25B_method
Type	Unknown
Status	Finished
Inject Time	09.07.2024 18:53:24 +02:00
Volume (µl)	20.0000
Dilution Factor	1.0000
Weight	1.0000

Chromatogram Data Information:
Time Min. (min)	0.000000
Time Max. (min)	40.000000
Data Points	2401
Detector	RI
Generating Data System	Chromeleon 7.3.2.11814
Exporting Data System	Chromeleon 7.3.2.0
Operator	Instrument Controller
Signal Quantity	Refractive 
Signal Unit	µRIU
Signal Min.	-0.160875
Signal Max.	83.245250
Channel	RI_1
Driver Name	RID520Driver.dll
Channel Type	Evaluation
Min. Step (s)	1
Max. Step (s)	1
Average Step (s)	1

Signal Parameter Information:
Signal Info	

Chromatogram Data:
Time (min)	Step (s)	Value (µRIU)
0.000000	n.a.	-0.016750
0.016667	1	-0.017250
0.033333	1	-0.017375
0.050000	1	-0.017875
0.066667	1	-0.017875
0.083333	1	-0.018250
0.100000	1	-0.018375
0.116667	1	-0.018375
0.133333	1	-0.018250
0.150000	1	-0.018500
0.166667	1	-0.018000
0.183333	1	-0.018250
0.200000	1	-0.019000
0.216667	1	-0.019875
0.233333	1	-0.020000
0.250000	1	-0.020000
0.266667	1	-0.019875
0.283333	1	-0.020000
0.300000	1	-0.020375
0.316667	1	-0.020250
0.333333	1	-0.020875
0.350000	1	-0.021125
0.366667	1	-0.022000
0.383333	1	-0.023250
0.400000	1	-0.024000
0.416667	1	-0.024000
0.433333	1	-0.023125
0.450000	1	-0.021125
0.466667	1	-0.019875
0.483333	1	-0.019375
0.500000	1	-0.018500
0.516667	1	-0.017750
0.533333	1	-0.018500
0.550000	1	-0.019250
0.566667	1	-0.020375
0.583333	1	-0.021125
0.600000	1	-0.023000
0.616667	1	-0.024125
0.633333	1	-0.024250
0.650000	1	-0.023750
0.666667	1	-0.023125
0.683333	1	-0.022375
0.700000	1	-0.022000
0.716667	1	-0.021500
0.733333	1	-0.020000
0.750000	1	-0.019000
0.766667	1	-0.017500
0.783333	1	-0.015875
0.800000	1	-0.014875
0.816667	1	-0.014000
0.833333	1	-0.013125
0.850000	1	-0.011750
0.866667	1	-0.010875
0.883333	1	-0.009000
0.900000	1	-0.007875
0.916667	1	-0.006875
0.933333	1	-0.005500
0.950000	1	-0.005000
0.966667	1	-0.003500
0.983333	1	-0.002250
1.000000	1	-0.001625
1.016667	1	-0.000750
1.033333	1	0.000250
1.050000	1	0.001875
1.066667	1	0.002375
1.083333	1	0.003375
1.100000	1	0.003875
1.116667	1	0.004750
1.133333	1	0.004500
1.150000	1	0.004750
1.166667	1	0.005125
1.183333	1	0.005500
1.200000	1	0.005000
1.216667	1	0.005125
1.233333	1	0.004875
1.250000	1	0.005000
1.266667	1	0.004750
1.283333	1	0.004375
1.300000	1	0.004625
1.316667	1	0.004000
1.333333	1	0.003750
1.350000	1	0.002375
1.366667	1	0.001875
1.383333	1	0.000875
1.400000	1	0.000000
1.416667	1	-0.001000
1.433333	1	-0.001625
1.450000	1	-0.003125
1.466667	1	-0.004000
1.483333	1	-0.005000
1.500000	1	-0.005375
1.516667	1	-0.007125
1.533333	1	-0.008375
1.550000	1	-0.009875
1.566667	1	-0.011875
1.583333	1	-0.013750
1.600000	1	-0.015000
1.616667	1	-0.016500
1.633333	1	-0.018000
1.650000	1	-0.020000
1.666667	1	-0.021750
1.683333	1	-0.024250
1.700000	1	-0.026375
1.716667	1	-0.028125
1.733333	1	-0.030125
1.750000	1	-0.031875
1.766667	1	-0.033875
1.783333	1	-0.036000
1.800000	1	-0.038250
1.816667	1	-0.039750
1.833333	1	-0.040625
1.850000	1	-0.042125
1.866667	1	-0.043125
1.883333	1	-0.044000
1.900000	1	-0.045125
1.916667	1	-0.046375
1.933333	1	-0.047625
1.950000	1	-0.048125
1.966667	1	-0.048250
1.983333	1	-0.048375
2.000000	1	-0.048125
2.016667	1	-0.047500
2.033333	1	-0.048125
2.050000	1	-0.047750
2.066667	1	-0.047750
2.083333	1	-0.047125
2.100000	1	-0.046500
2.116667	1	-0.046000
2.133333	1	-0.045125
2.150000	1	-0.044125
2.166667	1	-0.043500
2.183333	1	-0.041500
2.200000	1	-0.040375
2.216667	1	-0.039250
2.233333	1	-0.038125
2.250000	1	-0.036875
2.266667	1	-0.036125
2.283333	1	-0.034500
2.300000	1	-0.033125
2.316667	1	-0.032125
2.333333	1	-0.030750
2.350000	1	-0.030000
2.366667	1	-0.029625
2.383333	1	-0.029125
2.400000	1	-0.028375
2.416667	1	-0.028000
2.433333	1	-0.027000
2.450000	1	-0.026000
2.466667	1	-0.025500
2.483333	1	-0.025125
2.500000	1	-0.024875
2.516667	1	-0.024750
2.533333	1	-0.024375
2.550000	1	-0.023750
2.566667	1	-0.024000
2.583333	1	-0.023000
2.600000	1	-0.022750
2.616667	1	-0.021875
2.633333	1	-0.021500
2.650000	1	-0.020250
2.666667	1	-0.020625
2.683333	1	-0.020250
2.700000	1	-0.020750
2.716667	1	-0.020250
2.733333	1	-0.020250
2.750000	1	-0.021125
2.766667	1	-0.020750
2.783333	1	-0.020000
2.800000	1	-0.020375
2.816667	1	-0.019750
2.833333	1	-0.019125
2.850000	1	-0.019000
2.866667	1	-0.018750
2.883333	1	-0.018375
2.900000	1	-0.018500
2.916667	1	-0.018750
2.933333	1	-0.018625
2.950000	1	-0.017875
2.966667	1	-0.017625
2.983333	1	-0.017750
3.000000	1	-0.017375
3.016667	1	-0.017500
3.033333	1	-0.017375
3.050000	1	-0.016500
3.066667	1	-0.016000
3.083333	1	-0.014875
3.100000	1	-0.014625
3.116667	1	-0.013625
3.133333	1	-0.012625
3.150000	1	-0.011750
3.166667	1	-0.011125
3.183333	1	-0.010250
3.200000	1	-0.010125
3.216667	1	-0.008750
3.233333	1	-0.007750
3.250000	1	-0.006000
3.266667	1	-0.003875
3.283333	1	-0.002125
3.300000	1	-0.001125
3.316667	1	0.000750
3.333333	1	0.002000
3.350000	1	0.004000
3.366667	1	0.005250
3.383333	1	0.006625
3.400000	1	0.008375
3.416667	1	0.009000
3.433333	1	0.010625
3.450000	1	0.013000
3.466667	1	0.013875
3.483333	1	0.015000
3.500000	1	0.016375
3.516667	1	0.017375
3.533333	1	0.018500
3.550000	1	0.019125
3.566667	1	0.020625
3.583333	1	0.022000
3.600000	1	0.022875
3.616667	1	0.023875
3.633333	1	0.024625
3.650000	1	0.025750
3.666667	1	0.026875
3.683333	1	0.027875
3.700000	1	0.028625
3.716667	1	0.029750
3.733333	1	0.030375
3.750000	1	0.031125
3.766667	1	0.031750
3.783333	1	0.033125
3.800000	1	0.033750
3.816667	1	0.034375
3.833333	1	0.034750
3.850000	1	0.035625
3.866667	1	0.037250
3.883333	1	0.038125
3.900000	1	0.038500
3.916667	1	0.038875
3.933333	1	0.039750
3.950000	1	0.041000
3.966667	1	0.042000
3.983333	1	0.043000
4.000000	1	0.043875
4.016667	1	0.045375
4.033333	1	0.046250
4.050000	1	0.047375
4.066667	1	0.048125
4.083333	1	0.049125
4.100000	1	0.049875
4.116667	1	0.050250
4.133333	1	0.050750
4.150000	1	0.051125
4.166667	1	0.051250
4.183333	1	0.052125
4.200000	1	0.052375
4.216667	1	0.053000
4.233333	1	0.053750
4.250000	1	0.054125
4.266667	1	0.054125
4.283333	1	0.054000
4.300000	1	0.054000
4.316667	1	0.054250
4.333333	1	0.054500
4.350000	1	0.054625
4.366667	1	0.054375
4.383333	1	0.053875
4.400000	1	0.053625
4.416667	1	0.054000
4.433333	1	0.054500
4.450000	1	0.054000
4.466667	1	0.053375
4.483333	1	0.053250
4.500000	1	0.053500
4.516667	1	0.053625
4.533333	1	0.053625
4.550000	1	0.053625
4.566667	1	0.053875
4.583333	1	0.053875
4.600000	1	0.055125
4.616667	1	0.056250
4.633333	1	0.057250
4.650000	1	0.057625
4.666667	1	0.058875
4.683333	1	0.060250
4.700000	1	0.061625
4.716667	1	0.062375
4.733333	1	0.064625
4.750000	1	0.066125
4.766667	1	0.068375
4.783333	1	0.070625
4.800000	1	0.072125
4.816667	1	0.074875
4.833333	1	0.077250
4.850000	1	0.079750
4.866667	1	0.081500
4.883333	1	0.084000
4.900000	1	0.086375
4.916667	1	0.089125
4.933333	1	0.091500
4.950000	1	0.094500
4.966667	1	0.097500
4.983333	1	0.100625
5.000000	1	0.104375
5.016667	1	0.107250
5.033333	1	0.110750
5.050000	1	0.114375
5.066667	1	0.117500
5.083333	1	0.121875
5.100000	1	0.125750
5.116667	1	0.129375
5.133333	1	0.134000
5.150000	1	0.139000
5.166667	1	0.144125
5.183333	1	0.149250
5.200000	1	0.153625
5.216667	1	0.158000
5.233333	1	0.163375
5.250000	1	0.167875
5.266667	1	0.172625
5.283333	1	0.178250
5.300000	1	0.183000
5.316667	1	0.188250
5.333333	1	0.193000
5.350000	1	0.198250
5.366667	1	0.203375
5.383333	1	0.208500
5.400000	1	0.213000
5.416667	1	0.217125
5.433333	1	0.221375
5.450000	1	0.224875
5.466667	1	0.228250
5.483333	1	0.231500
5.500000	1	0.234125
5.516667	1	0.236750
5.533333	1	0.238875
5.550000	1	0.241000
5.566667	1	0.242500
5.583333	1	0.244125
5.600000	1	0.245250
5.616667	1	0.246000
5.633333	1	0.246250
5.650000	1	0.246500
5.666667	1	0.246625
5.683333	1	0.246000
5.700000	1	0.245000
5.716667	1	0.243375
5.733333	1	0.242250
5.750000	1	0.240750
5.766667	1	0.239000
5.783333	1	0.237000
5.800000	1	0.234750
5.816667	1	0.231875
5.833333	1	0.228875
5.850000	1	0.225750
5.866667	1	0.222375
5.883333	1	0.218125
5.900000	1	0.214625
5.916667	1	0.211250
5.933333	1	0.207375
5.950000	1	0.203375
5.966667	1	0.199250
5.983333	1	0.194750
6.000000	1	0.190500
6.016667	1	0.186250
6.033333	1	0.181500
6.050000	1	0.177250
6.066667	1	0.173000
6.083333	1	0.168250
6.100000	1	0.163375
6.116667	1	0.158875
6.133333	1	0.154125
6.150000	1	0.149375
6.166667	1	0.145125
6.183333	1	0.140500
6.200000	1	0.136750
6.216667	1	0.132625
6.233333	1	0.129125
6.250000	1	0.125625
6.266667	1	0.122125
6.283333	1	0.118250
6.300000	1	0.115000
6.316667	1	0.111875
6.333333	1	0.108500
6.350000	1	0.105375
6.366667	1	0.102125
6.383333	1	0.099625
6.400000	1	0.097750
6.416667	1	0.095250
6.433333	1	0.093125
6.450000	1	0.090750
6.466667	1	0.088750
6.483333	1	0.087000
6.500000	1	0.085375
6.516667	1	0.083875
6.533333	1	0.082125
6.550000	1	0.080625
6.566667	1	0.079625
6.583333	1	0.078250
6.600000	1	0.077375
6.616667	1	0.076625
6.633333	1	0.075875
6.650000	1	0.075250
6.666667	1	0.074125
6.683333	1	0.073625
6.700000	1	0.072625
6.716667	1	0.072375
6.733333	1	0.071875
6.750000	1	0.072250
6.766667	1	0.071875
6.783333	1	0.072000
6.800000	1	0.071875
6.816667	1	0.071125
6.833333	1	0.071125
6.850000	1	0.070375
6.866667	1	0.069875
6.883333	1	0.070375
6.900000	1	0.070125
6.916667	1	0.070250
6.933333	1	0.070000
6.950000	1	0.069875
6.966667	1	0.070000
6.983333	1	0.070875
7.000000	1	0.070875
7.016667	1	0.071500
7.033333	1	0.072000
7.050000	1	0.072250
7.066667	1	0.072875
7.083333	1	0.074125
7.100000	1	0.075250
7.116667	1	0.076250
7.133333	1	0.078125
7.150000	1	0.079375
7.166667	1	0.081375
7.183333	1	0.083875
7.200000	1	0.085875
7.216667	1	0.087375
7.233333	1	0.090000
7.250000	1	0.092875
7.266667	1	0.094875
7.283333	1	0.097875
7.300000	1	0.101375
7.316667	1	0.104125
7.333333	1	0.106750
7.350000	1	0.110250
7.366667	1	0.113375
7.383333	1	0.116375
7.400000	1	0.120000
7.416667	1	0.122125
7.433333	1	0.124375
7.450000	1	0.127375
7.466667	1	0.129750
7.483333	1	0.131625
7.500000	1	0.132375
7.516667	1	0.133375
7.533333	1	0.133875
7.550000	1	0.133875
7.566667	1	0.133250
7.583333	1	0.133375
7.600000	1	0.133000
7.616667	1	0.132375
7.633333	1	0.130625
7.650000	1	0.128875
7.666667	1	0.127125
7.683333	1	0.125000
7.700000	1	0.122250
7.716667	1	0.119625
7.733333	1	0.116750
7.750000	1	0.113750
7.766667	1	0.110375
7.783333	1	0.107250
7.800000	1	0.102750
7.816667	1	0.098250
7.833333	1	0.094875
7.850000	1	0.091250
7.866667	1	0.086750
7.883333	1	0.082125
7.900000	1	0.078250
7.916667	1	0.074875
7.933333	1	0.070875
7.950000	1	0.067250
7.966667	1	0.063625
7.983333	1	0.059750
8.000000	1	0.057000
8.016667	1	0.053375
8.033333	1	0.050250
8.050000	1	0.046375
8.066667	1	0.043500
8.083333	1	0.040875
8.100000	1	0.038125
8.116667	1	0.035250
8.133333	1	0.032750
8.150000	1	0.030125
8.166667	1	0.027875
8.183333	1	0.025375
8.200000	1	0.023500
8.216667	1	0.021375
8.233333	1	0.019375
8.250000	1	0.017500
8.266667	1	0.015500
8.283333	1	0.014750
8.300000	1	0.013625
8.316667	1	0.012250
8.333333	1	0.010125
8.350000	1	0.008750
8.366667	1	0.007625
8.383333	1	0.006125
8.400000	1	0.004875
8.416667	1	0.003750
8.433333	1	0.002875
8.450000	1	0.001625
8.466667	1	0.000625
8.483333	1	-0.000500
8.500000	1	-0.001250
8.516667	1	-0.002000
8.533333	1	-0.002250
8.550000	1	-0.002875
8.566667	1	-0.003750
8.583333	1	-0.004000
8.600000	1	-0.004000
8.616667	1	-0.003750
8.633333	1	-0.004625
8.650000	1	-0.005250
8.666667	1	-0.005125
8.683333	1	-0.004750
8.700000	1	-0.004750
8.716667	1	-0.004125
8.733333	1	-0.003000
8.750000	1	-0.001875
8.766667	1	-0.001000
8.783333	1	-0.000375
8.800000	1	0.001125
8.816667	1	0.002125
8.833333	1	0.002750
8.850000	1	0.004000
8.866667	1	0.005000
8.883333	1	0.006500
8.900000	1	0.007875
8.916667	1	0.009000
8.933333	1	0.010500
8.950000	1	0.011625
8.966667	1	0.012750
8.983333	1	0.014125
9.000000	1	0.014875
9.016667	1	0.015500
9.033333	1	0.017000
9.050000	1	0.018000
9.066667	1	0.018500
9.083333	1	0.018875
9.100000	1	0.019250
9.116667	1	0.020375
9.133333	1	0.020625
9.150000	1	0.021000
9.166667	1	0.021375
9.183333	1	0.021625
9.200000	1	0.021625
9.216667	1	0.021125
9.233333	1	0.020875
9.250000	1	0.020750
9.266667	1	0.020000
9.283333	1	0.019625
9.300000	1	0.018250
9.316667	1	0.016375
9.333333	1	0.015500
9.350000	1	0.014625
9.366667	1	0.013875
9.383333	1	0.012375
9.400000	1	0.011000
9.416667	1	0.009625
9.433333	1	0.008125
9.450000	1	0.006750
9.466667	1	0.005000
9.483333	1	0.003625
9.500000	1	0.002375
9.516667	1	0.001125
9.533333	1	0.000000
9.550000	1	-0.001250
9.566667	1	-0.002750
9.583333	1	-0.003500
9.600000	1	-0.004625
9.616667	1	-0.006375
9.633333	1	-0.007500
9.650000	1	-0.008625
9.666667	1	-0.009000
9.683333	1	-0.009625
9.700000	1	-0.011000
9.716667	1	-0.011750
9.733333	1	-0.012250
9.750000	1	-0.013375
9.766667	1	-0.013875
9.783333	1	-0.014375
9.800000	1	-0.015125
9.816667	1	-0.015875
9.833333	1	-0.016375
9.850000	1	-0.017250
9.866667	1	-0.018250
9.883333	1	-0.019000
9.900000	1	-0.019375
9.916667	1	-0.020125
9.933333	1	-0.021750
9.950000	1	-0.022750
9.966667	1	-0.023625
9.983333	1	-0.024875
10.000000	1	-0.025375
10.016667	1	-0.026375
10.033333	1	-0.027000
10.050000	1	-0.027250
10.066667	1	-0.026500
10.083333	1	-0.025875
10.100000	1	-0.024375
10.116667	1	-0.022625
10.133333	1	-0.019750
10.150000	1	-0.015875
10.166667	1	-0.010875
10.183333	1	-0.005000
10.200000	1	0.002500
10.216667	1	0.011625
10.233333	1	0.021875
10.250000	1	0.033750
10.266667	1	0.047375
10.283333	1	0.063250
10.300000	1	0.082000
10.316667	1	0.101875
10.333333	1	0.123000
10.350000	1	0.144250
10.366667	1	0.163375
10.383333	1	0.177625
10.400000	1	0.182250
10.416667	1	0.173250
10.433333	1	0.145125
10.450000	1	0.094875
10.466667	1	0.024500
10.483333	1	-0.057500
10.500000	1	-0.130375
10.516667	1	-0.160875
10.533333	1	-0.096875
10.550000	1	0.127500
10.566667	1	0.589750
10.583333	1	1.370375
10.600000	1	2.546375
10.616667	1	4.185125
10.633333	1	6.336375
10.650000	1	9.034250
10.666667	1	12.305500
10.683333	1	16.159500
10.700000	1	20.594625
10.716667	1	25.596750
10.733333	1	31.137875
10.750000	1	37.173375
10.766667	1	43.631000
10.783333	1	50.412625
10.800000	1	57.366750
10.816667	1	64.250750
10.833333	1	70.695500
10.850000	1	76.188375
10.866667	1	80.075125
10.883333	1	81.660375
10.900000	1	80.413125
10.916667	1	76.212125
10.933333	1	69.460750
10.950000	1	60.995500
10.966667	1	51.820125
10.983333	1	42.826875
11.000000	1	34.634000
11.016667	1	27.562250
11.033333	1	21.697125
11.050000	1	16.974000
11.066667	1	13.255625
11.083333	1	10.379625
11.100000	1	8.184125
11.116667	1	6.523250
11.133333	1	5.272750
11.150000	1	4.332750
11.166667	1	3.623750
11.183333	1	3.086500
11.200000	1	2.675750
11.216667	1	2.357625
11.233333	1	2.108375
11.250000	1	1.910375
11.266667	1	1.750125
11.283333	1	1.618500
11.300000	1	1.508500
11.316667	1	1.416125
11.333333	1	1.337750
11.350000	1	1.270750
11.366667	1	1.213250
11.383333	1	1.163375
11.400000	1	1.121125
11.416667	1	1.084125
11.433333	1	1.052250
11.450000	1	1.025000
11.466667	1	1.002625
11.483333	1	0.983125
11.500000	1	0.966500
11.516667	1	0.952125
11.533333	1	0.940000
11.550000	1	0.929875
11.566667	1	0.922000
11.583333	1	0.916250
11.600000	1	0.912250
11.616667	1	0.909125
11.633333	1	0.907875
11.650000	1	0.907500
11.666667	1	0.909250
11.683333	1	0.912000
11.700000	1	0.916125
11.716667	1	0.921750
11.733333	1	0.928625
11.750000	1	0.936250
11.766667	1	0.944125
11.783333	1	0.952750
11.800000	1	0.962250
11.816667	1	0.971625
11.833333	1	0.981000
11.850000	1	0.989500
11.866667	1	0.997375
11.883333	1	1.004625
11.900000	1	1.011000
11.916667	1	1.016875
11.933333	1	1.021375
11.950000	1	1.024500
11.966667	1	1.026625
11.983333	1	1.028625
12.000000	1	1.029875
12.016667	1	1.030750
12.033333	1	1.032500
12.050000	1	1.033750
12.066667	1	1.035875
12.083333	1	1.038500
12.100000	1	1.042375
12.116667	1	1.045875
12.133333	1	1.050375
12.150000	1	1.055125
12.166667	1	1.061000
12.183333	1	1.068375
12.200000	1	1.076125
12.216667	1	1.084750
12.233333	1	1.096000
12.250000	1	1.109500
12.266667	1	1.126000
12.283333	1	1.145625
12.300000	1	1.170750
12.316667	1	1.202125
12.333333	1	1.242250
12.350000	1	1.293375
12.366667	1	1.359500
12.383333	1	1.443625
12.400000	1	1.549875
12.416667	1	1.684875
12.433333	1	1.852875
12.450000	1	2.059625
12.466667	1	2.311750
12.483333	1	2.614125
12.500000	1	2.971750
12.516667	1	3.388250
12.533333	1	3.864125
12.550000	1	4.399125
12.566667	1	4.991500
12.583333	1	5.634000
12.600000	1	6.316375
12.616667	1	7.026500
12.633333	1	7.750125
12.650000	1	8.473250
12.666667	1	9.182250
12.683333	1	9.863625
12.700000	1	10.510125
12.716667	1	11.114750
12.733333	1	11.678750
12.750000	1	12.204875
12.766667	1	12.702250
12.783333	1	13.179875
12.800000	1	13.649375
12.816667	1	14.121625
12.833333	1	14.606250
12.850000	1	15.112250
12.866667	1	15.644500
12.883333	1	16.207750
12.900000	1	16.805000
12.916667	1	17.436125
12.933333	1	18.099625
12.950000	1	18.794750
12.966667	1	19.520125
12.983333	1	20.274000
13.000000	1	21.054125
13.016667	1	21.858625
13.033333	1	22.686125
13.050000	1	23.536750
13.066667	1	24.408500
13.083333	1	25.302875
13.100000	1	26.217625
13.116667	1	27.152250
13.133333	1	28.106250
13.150000	1	29.078875
13.166667	1	30.070250
13.183333	1	31.081375
13.200000	1	32.109875
13.216667	1	33.157500
13.233333	1	34.224500
13.250000	1	35.312500
13.266667	1	36.421125
13.283333	1	37.551375
13.300000	1	38.703875
13.316667	1	39.878125
13.333333	1	41.074250
13.350000	1	42.294000
13.366667	1	43.536500
13.383333	1	44.801375
13.400000	1	46.090750
13.416667	1	47.403875
13.433333	1	48.745000
13.450000	1	50.112750
13.466667	1	51.510125
13.483333	1	52.935375
13.500000	1	54.390500
13.516667	1	55.876625
13.533333	1	57.391375
13.550000	1	58.936375
13.566667	1	60.512125
13.583333	1	62.119750
13.600000	1	63.757750
13.616667	1	65.428750
13.633333	1	67.133875
13.650000	1	68.877000
13.666667	1	70.658000
13.683333	1	72.476875
13.700000	1	74.334750
13.716667	1	76.224000
13.733333	1	78.123625
13.750000	1	79.971125
13.766667	1	81.615625
13.783333	1	82.811250
13.800000	1	83.245250
13.816667	1	82.593500
13.833333	1	80.552875
13.850000	1	76.877250
13.866667	1	71.440125
13.883333	1	64.365000
13.900000	1	56.108750
13.916667	1	47.402125
13.933333	1	39.008250
13.950000	1	31.501375
13.966667	1	25.166250
13.983333	1	20.036375
14.000000	1	15.990000
14.016667	1	12.849500
14.033333	1	10.445500
14.050000	1	8.627000
14.066667	1	7.268250
14.083333	1	6.261000
14.100000	1	5.519250
14.116667	1	4.971375
14.133333	1	4.562625
14.150000	1	4.252500
14.166667	1	4.013375
14.183333	1	3.824875
14.200000	1	3.673125
14.216667	1	3.546875
14.233333	1	3.440750
14.250000	1	3.348500
14.266667	1	3.267875
14.283333	1	3.196500
14.300000	1	3.131875
14.316667	1	3.074250
14.333333	1	3.022250
14.350000	1	2.976625
14.366667	1	2.935375
14.383333	1	2.900125
14.400000	1	2.872000
14.416667	1	2.851750
14.433333	1	2.841750
14.450000	1	2.843500
14.466667	1	2.862375
14.483333	1	2.904250
14.500000	1	2.977875
14.516667	1	3.094000
14.533333	1	3.268625
14.550000	1	3.522625
14.566667	1	3.885625
14.583333	1	4.393250
14.600000	1	5.090000
14.616667	1	6.030875
14.633333	1	7.278250
14.650000	1	8.898125
14.666667	1	10.956250
14.683333	1	13.511125
14.700000	1	16.601250
14.716667	1	20.241750
14.733333	1	24.419500
14.750000	1	29.076000
14.766667	1	34.107250
14.783333	1	39.360250
14.800000	1	44.649000
14.816667	1	49.757500
14.833333	1	54.452250
14.850000	1	58.497750
14.866667	1	61.683000
14.883333	1	63.838625
14.900000	1	64.857875
14.916667	1	64.701000
14.933333	1	63.402375
14.950000	1	61.062875
14.966667	1	57.838000
14.983333	1	53.924875
15.000000	1	49.528000
15.016667	1	44.855375
15.033333	1	40.100125
15.050000	1	35.430500
15.066667	1	30.981125
15.083333	1	26.850750
15.100000	1	23.103250
15.116667	1	19.768750
15.133333	1	16.849125
15.150000	1	14.329125
15.166667	1	12.181625
15.183333	1	10.370875
15.200000	1	8.855250
15.216667	1	7.595250
15.233333	1	6.555500
15.250000	1	5.701000
15.266667	1	5.004250
15.283333	1	4.438750
15.300000	1	3.981500
15.316667	1	3.615125
15.333333	1	3.324875
15.350000	1	3.096000
15.366667	1	2.918875
15.383333	1	2.783875
15.400000	1	2.683000
15.416667	1	2.611000
15.433333	1	2.561500
15.450000	1	2.529125
15.466667	1	2.508375
15.483333	1	2.495125
15.500000	1	2.485750
15.516667	1	2.476000
15.533333	1	2.463250
15.550000	1	2.447125
15.566667	1	2.425500
15.583333	1	2.398750
15.600000	1	2.366375
15.616667	1	2.330500
15.633333	1	2.291375
15.650000	1	2.250750
15.666667	1	2.209625
15.683333	1	2.169125
15.700000	1	2.130500
15.716667	1	2.092625
15.733333	1	2.056375
15.750000	1	2.022750
15.766667	1	1.990000
15.783333	1	1.958000
15.800000	1	1.925625
15.816667	1	1.894125
15.833333	1	1.862125
15.850000	1	1.830625
15.866667	1	1.799875
15.883333	1	1.770375
15.900000	1	1.742250
15.916667	1	1.716500
15.933333	1	1.693375
15.950000	1	1.673250
15.966667	1	1.656750
15.983333	1	1.644125
16.000000	1	1.634750
16.016667	1	1.628250
16.033333	1	1.623250
16.050000	1	1.620750
16.066667	1	1.618500
16.083333	1	1.616625
16.100000	1	1.612750
16.116667	1	1.608125
16.133333	1	1.601500
16.150000	1	1.592125
16.166667	1	1.580625
16.183333	1	1.566500
16.200000	1	1.550750
16.216667	1	1.533250
16.233333	1	1.514250
16.250000	1	1.493500
16.266667	1	1.472250
16.283333	1	1.451250
16.300000	1	1.428750
16.316667	1	1.406375
16.333333	1	1.385125
16.350000	1	1.364250
16.366667	1	1.344500
16.383333	1	1.325750
16.400000	1	1.309375
16.416667	1	1.294625
16.433333	1	1.281250
16.450000	1	1.271125
16.466667	1	1.263875
16.483333	1	1.259500
16.500000	1	1.257500
16.516667	1	1.258250
16.533333	1	1.260625
16.550000	1	1.265000
16.566667	1	1.270875
16.583333	1	1.277250
16.600000	1	1.283250
16.616667	1	1.288375
16.633333	1	1.292750
16.650000	1	1.297375
16.666667	1	1.299375
16.683333	1	1.300500
16.700000	1	1.300375
16.716667	1	1.299000
16.733333	1	1.297125
16.750000	1	1.295750
16.766667	1	1.294750
16.783333	1	1.293875
16.800000	1	1.294250
16.816667	1	1.295750
16.833333	1	1.298500
16.850000	1	1.301750
16.866667	1	1.305125
16.883333	1	1.308375
16.900000	1	1.312000
16.916667	1	1.314000
16.933333	1	1.314750
16.950000	1	1.314750
16.966667	1	1.314375
16.983333	1	1.311750
17.000000	1	1.308000
17.016667	1	1.302750
17.033333	1	1.297000
17.050000	1	1.291375
17.066667	1	1.284625
17.083333	1	1.278125
17.100000	1	1.272375
17.116667	1	1.266875
17.133333	1	1.261875
17.150000	1	1.258000
17.166667	1	1.255000
17.183333	1	1.253375
17.200000	1	1.252000
17.216667	1	1.251875
17.233333	1	1.253000
17.250000	1	1.254500
17.266667	1	1.257000
17.283333	1	1.259625
17.300000	1	1.263375
17.316667	1	1.267625
17.333333	1	1.272250
17.350000	1	1.277375
17.366667	1	1.282375
17.383333	1	1.287500
17.400000	1	1.292500
17.416667	1	1.296875
17.433333	1	1.301250
17.450000	1	1.304500
17.466667	1	1.306375
17.483333	1	1.306500
17.500000	1	1.304875
17.516667	1	1.302125
17.533333	1	1.297875
17.550000	1	1.292000
17.566667	1	1.284375
17.583333	1	1.274375
17.600000	1	1.264125
17.616667	1	1.252250
17.633333	1	1.239375
17.650000	1	1.225750
17.666667	1	1.211250
17.683333	1	1.196500
17.700000	1	1.181750
17.716667	1	1.166000
17.733333	1	1.151000
17.750000	1	1.137000
17.766667	1	1.122500
17.783333	1	1.107750
17.800000	1	1.095000
17.816667	1	1.081375
17.833333	1	1.068625
17.850000	1	1.056375
17.866667	1	1.044250
17.883333	1	1.032875
17.900000	1	1.021500
17.916667	1	1.010750
17.933333	1	1.000625
17.950000	1	0.990625
17.966667	1	0.980625
17.983333	1	0.970750
18.000000	1	0.961750
18.016667	1	0.952500
18.033333	1	0.942625
18.050000	1	0.932375
18.066667	1	0.923000
18.083333	1	0.913375
18.100000	1	0.904500
18.116667	1	0.895125
18.133333	1	0.887125
18.150000	1	0.880125
18.166667	1	0.873375
18.183333	1	0.867125
18.200000	1	0.862000
18.216667	1	0.857625
18.233333	1	0.853875
18.250000	1	0.850750
18.266667	1	0.848625
18.283333	1	0.846750
18.300000	1	0.845125
18.316667	1	0.844750
18.333333	1	0.844625
18.350000	1	0.844625
18.366667	1	0.845500
18.383333	1	0.846250
18.400000	1	0.847500
18.416667	1	0.849625
18.433333	1	0.852750
18.450000	1	0.856500
18.466667	1	0.861375
18.483333	1	0.868500
18.500000	1	0.877125
18.516667	1	0.886750
18.533333	1	0.898500
18.550000	1	0.912750
18.566667	1	0.929000
18.583333	1	0.947625
18.600000	1	0.968875
18.616667	1	0.992000
18.633333	1	1.017125
18.650000	1	1.044000
18.666667	1	1.073000
18.683333	1	1.103875
18.700000	1	1.136875
18.716667	1	1.170625
18.733333	1	1.206125
18.750000	1	1.243500
18.766667	1	1.281500
18.783333	1	1.319125
18.800000	1	1.356875
18.816667	1	1.393625
18.833333	1	1.428625
18.850000	1	1.460875
18.866667	1	1.490000
18.883333	1	1.514875
18.900000	1	1.535500
18.916667	1	1.549875
18.933333	1	1.558000
18.950000	1	1.560250
18.966667	1	1.555250
18.983333	1	1.542750
19.000000	1	1.524250
19.016667	1	1.498375
19.033333	1	1.467500
19.050000	1	1.431750
19.066667	1	1.392875
19.083333	1	1.351875
19.100000	1	1.310375
19.116667	1	1.270125
19.133333	1	1.233875
19.150000	1	1.203125
19.166667	1	1.180250
19.183333	1	1.167625
19.200000	1	1.168375
19.216667	1	1.183375
19.233333	1	1.216125
19.250000	1	1.270625
19.266667	1	1.349000
19.283333	1	1.453875
19.300000	1	1.587750
19.316667	1	1.751500
19.333333	1	1.947000
19.350000	1	2.176250
19.366667	1	2.437250
19.383333	1	2.728000
19.400000	1	3.044000
19.416667	1	3.380625
19.433333	1	3.729125
19.450000	1	4.081250
19.466667	1	4.428750
19.483333	1	4.760125
19.500000	1	5.063875
19.516667	1	5.330500
19.533333	1	5.550625
19.550000	1	5.717625
19.566667	1	5.825125
19.583333	1	5.869125
19.600000	1	5.849625
19.616667	1	5.768000
19.633333	1	5.627875
19.650000	1	5.436875
19.666667	1	5.201375
19.683333	1	4.931375
19.700000	1	4.635500
19.716667	1	4.322875
19.733333	1	4.002375
19.750000	1	3.682125
19.766667	1	3.367750
19.783333	1	3.064375
19.800000	1	2.777500
19.816667	1	2.510625
19.833333	1	2.264250
19.850000	1	2.040500
19.866667	1	1.838000
19.883333	1	1.657375
19.900000	1	1.496875
19.916667	1	1.355750
19.933333	1	1.232250
19.950000	1	1.125000
19.966667	1	1.031375
19.983333	1	0.951375
20.000000	1	0.883000
20.016667	1	0.826125
20.033333	1	0.778000
20.050000	1	0.738250
20.066667	1	0.706875
20.083333	1	0.683125
20.100000	1	0.666375
20.116667	1	0.655875
20.133333	1	0.649500
20.150000	1	0.648750
20.166667	1	0.651875
20.183333	1	0.658750
20.200000	1	0.668750
20.216667	1	0.680875
20.233333	1	0.695000
20.250000	1	0.708500
20.266667	1	0.722500
20.283333	1	0.735750
20.300000	1	0.747000
20.316667	1	0.756125
20.333333	1	0.763000
20.350000	1	0.767000
20.366667	1	0.767875
20.383333	1	0.765125
20.400000	1	0.759875
20.416667	1	0.751500
20.433333	1	0.740625
20.450000	1	0.728625
20.466667	1	0.716375
20.483333	1	0.703750
20.500000	1	0.692875
20.516667	1	0.684000
20.533333	1	0.677750
20.550000	1	0.675375
20.566667	1	0.678000
20.583333	1	0.687125
20.600000	1	0.702375
20.616667	1	0.725500
20.633333	1	0.756125
20.650000	1	0.795375
20.666667	1	0.842375
20.683333	1	0.897875
20.700000	1	0.961875
20.716667	1	1.032625
20.733333	1	1.109125
20.750000	1	1.190125
20.766667	1	1.273750
20.783333	1	1.357625
20.800000	1	1.439500
20.816667	1	1.516250
20.833333	1	1.584875
20.850000	1	1.644125
20.866667	1	1.691625
20.883333	1	1.724875
20.900000	1	1.743750
20.916667	1	1.746875
20.933333	1	1.735375
20.950000	1	1.710000
20.966667	1	1.671250
20.983333	1	1.620000
21.000000	1	1.558875
21.016667	1	1.489750
21.033333	1	1.416125
21.050000	1	1.338750
21.066667	1	1.260375
21.083333	1	1.182875
21.100000	1	1.107125
21.116667	1	1.034000
21.133333	1	0.965875
21.150000	1	0.902375
21.166667	1	0.844000
21.183333	1	0.791375
21.200000	1	0.744500
21.216667	1	0.702375
21.233333	1	0.664250
21.250000	1	0.631500
21.266667	1	0.602625
21.283333	1	0.578375
21.300000	1	0.556875
21.316667	1	0.538500
21.333333	1	0.522875
21.350000	1	0.509375
21.366667	1	0.498125
21.383333	1	0.488875
21.400000	1	0.480000
21.416667	1	0.472875
21.433333	1	0.466375
21.450000	1	0.460625
21.466667	1	0.455375
21.483333	1	0.451750
21.500000	1	0.448500
21.516667	1	0.445375
21.533333	1	0.443250
21.550000	1	0.442000
21.566667	1	0.440750
21.583333	1	0.440750
21.600000	1	0.441625
21.616667	1	0.443000
21.633333	1	0.446125
21.650000	1	0.450500
21.666667	1	0.456125
21.683333	1	0.462500
21.700000	1	0.471500
21.716667	1	0.481375
21.733333	1	0.493000
21.750000	1	0.506000
21.766667	1	0.521375
21.783333	1	0.537375
21.800000	1	0.555250
21.816667	1	0.573625
21.833333	1	0.592750
21.850000	1	0.612375
21.866667	1	0.632875
21.883333	1	0.653750
21.900000	1	0.673875
21.916667	1	0.693500
21.933333	1	0.712250
21.950000	1	0.728625
21.966667	1	0.744125
21.983333	1	0.757750
22.000000	1	0.769000
22.016667	1	0.777500
22.033333	1	0.783250
22.050000	1	0.787000
22.066667	1	0.788000
22.083333	1	0.787250
22.100000	1	0.784500
22.116667	1	0.780125
22.133333	1	0.773625
22.150000	1	0.765125
22.166667	1	0.754625
22.183333	1	0.743000
22.200000	1	0.730250
22.216667	1	0.716250
22.233333	1	0.701750
22.250000	1	0.687125
22.266667	1	0.669375
22.283333	1	0.652000
22.300000	1	0.634375
22.316667	1	0.616750
22.333333	1	0.598875
22.350000	1	0.580625
22.366667	1	0.561500
22.383333	1	0.542625
22.400000	1	0.524875
22.416667	1	0.507125
22.433333	1	0.490500
22.450000	1	0.473625
22.466667	1	0.457875
22.483333	1	0.443375
22.500000	1	0.428750
22.516667	1	0.414875
22.533333	1	0.402375
22.550000	1	0.390500
22.566667	1	0.379625
22.583333	1	0.369125
22.600000	1	0.358750
22.616667	1	0.349500
22.633333	1	0.340875
22.650000	1	0.333250
22.666667	1	0.326250
22.683333	1	0.319750
22.700000	1	0.314375
22.716667	1	0.308875
22.733333	1	0.303750
22.750000	1	0.299000
22.766667	1	0.294875
22.783333	1	0.291250
22.800000	1	0.287125
22.816667	1	0.283500
22.833333	1	0.281375
22.850000	1	0.279375
22.866667	1	0.277500
22.883333	1	0.276375
22.900000	1	0.275875
22.916667	1	0.275625
22.933333	1	0.277000
22.950000	1	0.277750
22.966667	1	0.280000
22.983333	1	0.282500
23.000000	1	0.285125
23.016667	1	0.288375
23.033333	1	0.292125
23.050000	1	0.296375
23.066667	1	0.300875
23.083333	1	0.306125
23.100000	1	0.310500
23.116667	1	0.315500
23.133333	1	0.320375
23.150000	1	0.325375
23.166667	1	0.330500
23.183333	1	0.335875
23.200000	1	0.341500
23.216667	1	0.346500
23.233333	1	0.351625
23.250000	1	0.357500
23.266667	1	0.363625
23.283333	1	0.370500
23.300000	1	0.378625
23.316667	1	0.388500
23.333333	1	0.400625
23.350000	1	0.415375
23.366667	1	0.433500
23.383333	1	0.456750
23.400000	1	0.485000
23.416667	1	0.520000
23.433333	1	0.563375
23.450000	1	0.615625
23.466667	1	0.680000
23.483333	1	0.756750
23.500000	1	0.849500
23.516667	1	0.958250
23.533333	1	1.084875
23.550000	1	1.232375
23.566667	1	1.401500
23.583333	1	1.592375
23.600000	1	1.805875
23.616667	1	2.042125
23.633333	1	2.298875
23.650000	1	2.574875
23.666667	1	2.868625
23.683333	1	3.176125
23.700000	1	3.491875
23.716667	1	3.811750
23.733333	1	4.130625
23.750000	1	4.439875
23.766667	1	4.734000
23.783333	1	5.005625
23.800000	1	5.249125
23.816667	1	5.458750
23.833333	1	5.628625
23.850000	1	5.755750
23.866667	1	5.837500
23.883333	1	5.872125
23.900000	1	5.859375
23.916667	1	5.800625
23.933333	1	5.697375
23.950000	1	5.553625
23.966667	1	5.374625
23.983333	1	5.165125
24.000000	1	4.930625
24.016667	1	4.676750
24.033333	1	4.410125
24.050000	1	4.134250
24.066667	1	3.855625
24.083333	1	3.578875
24.100000	1	3.307500
24.116667	1	3.044625
24.133333	1	2.793250
24.150000	1	2.553750
24.166667	1	2.330000
24.183333	1	2.122000
24.200000	1	1.929125
24.216667	1	1.752375
24.233333	1	1.591125
24.250000	1	1.445875
24.266667	1	1.314875
24.283333	1	1.197500
24.300000	1	1.092375
24.316667	1	0.999500
24.333333	1	0.918500
24.350000	1	0.847750
24.366667	1	0.785750
24.383333	1	0.731625
24.400000	1	0.685500
24.416667	1	0.645750
24.433333	1	0.610750
24.450000	1	0.581750
24.466667	1	0.558125
24.483333	1	0.538125
24.500000	1	0.521875
24.516667	1	0.508750
24.533333	1	0.498375
24.550000	1	0.489125
24.566667	1	0.481875
24.583333	1	0.475125
24.600000	1	0.470000
24.616667	1	0.465000
24.633333	1	0.461125
24.650000	1	0.456875
24.666667	1	0.452250
24.683333	1	0.448125
24.700000	1	0.443500
24.716667	1	0.439500
24.733333	1	0.435375
24.750000	1	0.430375
24.766667	1	0.425375
24.783333	1	0.421000
24.800000	1	0.416125
24.816667	1	0.411500
24.833333	1	0.407000
24.850000	1	0.401875
24.866667	1	0.397500
24.883333	1	0.392750
24.900000	1	0.388750
24.916667	1	0.384500
24.933333	1	0.380875
24.950000	1	0.376875
24.966667	1	0.373125
24.983333	1	0.369875
25.000000	1	0.367125
25.016667	1	0.364375
25.033333	1	0.361500
25.050000	1	0.358875
25.066667	1	0.356375
25.083333	1	0.353750
25.100000	1	0.351375
25.116667	1	0.348750
25.133333	1	0.346125
25.150000	1	0.343125
25.166667	1	0.340000
25.183333	1	0.337500
25.200000	1	0.335250
25.216667	1	0.332125
25.233333	1	0.329250
25.250000	1	0.326625
25.266667	1	0.324250
25.283333	1	0.321750
25.300000	1	0.318750
25.316667	1	0.316125
25.333333	1	0.312750
25.350000	1	0.310625
25.366667	1	0.308125
25.383333	1	0.305625
25.400000	1	0.303375
25.416667	1	0.301125
25.433333	1	0.299500
25.450000	1	0.297625
25.466667	1	0.295375
25.483333	1	0.294625
25.500000	1	0.293750
25.516667	1	0.293375
25.533333	1	0.292750
25.550000	1	0.292500
25.566667	1	0.291500
25.583333	1	0.290500
25.600000	1	0.290375
25.616667	1	0.290000
25.633333	1	0.290250
25.650000	1	0.290500
25.666667	1	0.290250
25.683333	1	0.290750
25.700000	1	0.291000
25.716667	1	0.290875
25.733333	1	0.291000
25.750000	1	0.291250
25.766667	1	0.291750
25.783333	1	0.292250
25.800000	1	0.292750
25.816667	1	0.293000
25.833333	1	0.293625
25.850000	1	0.295000
25.866667	1	0.295875
25.883333	1	0.296500
25.900000	1	0.298125
25.916667	1	0.300250
25.933333	1	0.303000
25.950000	1	0.305750
25.966667	1	0.308750
25.983333	1	0.312875
26.000000	1	0.315875
26.016667	1	0.320375
26.033333	1	0.325125
26.050000	1	0.329250
26.066667	1	0.334250
26.083333	1	0.339000
26.100000	1	0.344875
26.116667	1	0.350625
26.133333	1	0.356625
26.150000	1	0.362375
26.166667	1	0.367500
26.183333	1	0.372625
26.200000	1	0.377250
26.216667	1	0.381750
26.233333	1	0.385625
26.250000	1	0.389000
26.266667	1	0.390750
26.283333	1	0.392625
26.300000	1	0.394250
26.316667	1	0.395375
26.333333	1	0.395875
26.350000	1	0.395000
26.366667	1	0.393875
26.383333	1	0.391875
26.400000	1	0.388375
26.416667	1	0.384875
26.433333	1	0.380750
26.450000	1	0.376375
26.466667	1	0.371250
26.483333	1	0.366000
26.500000	1	0.359750
26.516667	1	0.353375
26.533333	1	0.346125
26.550000	1	0.339250
26.566667	1	0.332125
26.583333	1	0.324750
26.600000	1	0.317750
26.616667	1	0.310125
26.633333	1	0.303875
26.650000	1	0.297875
26.666667	1	0.291375
26.683333	1	0.283750
26.700000	1	0.276750
26.716667	1	0.270500
26.733333	1	0.265000
26.750000	1	0.259500
26.766667	1	0.254125
26.783333	1	0.249000
26.800000	1	0.244125
26.816667	1	0.240250
26.833333	1	0.236625
26.850000	1	0.233250
26.866667	1	0.229750
26.883333	1	0.227250
26.900000	1	0.224500
26.916667	1	0.222875
26.933333	1	0.221125
26.950000	1	0.219500
26.966667	1	0.219000
26.983333	1	0.218875
27.000000	1	0.218625
27.016667	1	0.219625
27.033333	1	0.220750
27.050000	1	0.223250
27.066667	1	0.225875
27.083333	1	0.229375
27.100000	1	0.233875
27.116667	1	0.239000
27.133333	1	0.245375
27.150000	1	0.252375
27.166667	1	0.261625
27.183333	1	0.271500
27.200000	1	0.284000
27.216667	1	0.298500
27.233333	1	0.315375
27.250000	1	0.335750
27.266667	1	0.359875
27.283333	1	0.387750
27.300000	1	0.420250
27.316667	1	0.457500
27.333333	1	0.500750
27.350000	1	0.550000
27.366667	1	0.607625
27.383333	1	0.673000
27.400000	1	0.747000
27.416667	1	0.830750
27.433333	1	0.925375
27.450000	1	1.032125
27.466667	1	1.150375
27.483333	1	1.281625
27.500000	1	1.425500
27.516667	1	1.581875
27.533333	1	1.751250
27.550000	1	1.932625
27.566667	1	2.124750
27.583333	1	2.327500
27.600000	1	2.538625
27.616667	1	2.757000
27.633333	1	2.980000
27.650000	1	3.205000
27.666667	1	3.430875
27.683333	1	3.652750
27.700000	1	3.867750
27.716667	1	4.072250
27.733333	1	4.263000
27.750000	1	4.436125
27.766667	1	4.589375
27.783333	1	4.718750
27.800000	1	4.823375
27.816667	1	4.900000
27.833333	1	4.947375
27.850000	1	4.964500
27.866667	1	4.951125
27.883333	1	4.907125
27.900000	1	4.834000
27.916667	1	4.732375
27.933333	1	4.605125
27.950000	1	4.454625
27.966667	1	4.283625
27.983333	1	4.095750
28.000000	1	3.894750
28.016667	1	3.683875
28.033333	1	3.465750
28.050000	1	3.243250
28.066667	1	3.020250
28.083333	1	2.800500
28.100000	1	2.584375
28.116667	1	2.376250
28.133333	1	2.177500
28.150000	1	1.989000
28.166667	1	1.811625
28.183333	1	1.646625
28.200000	1	1.493625
28.216667	1	1.352375
28.233333	1	1.224000
28.250000	1	1.107750
28.266667	1	1.002625
28.283333	1	0.908750
28.300000	1	0.825250
28.316667	1	0.751625
28.333333	1	0.686000
28.350000	1	0.629875
28.366667	1	0.581875
28.383333	1	0.540875
28.400000	1	0.507250
28.416667	1	0.479000
28.433333	1	0.456125
28.450000	1	0.438750
28.466667	1	0.425250
28.483333	1	0.415875
28.500000	1	0.410875
28.516667	1	0.408500
28.533333	1	0.409250
28.550000	1	0.411750
28.566667	1	0.417125
28.583333	1	0.423750
28.600000	1	0.431625
28.616667	1	0.441625
28.633333	1	0.451625
28.650000	1	0.463375
28.666667	1	0.475375
28.683333	1	0.486500
28.700000	1	0.498375
28.716667	1	0.509375
28.733333	1	0.521000
28.750000	1	0.531500
28.766667	1	0.541750
28.783333	1	0.551125
28.800000	1	0.559125
28.816667	1	0.566875
28.833333	1	0.572750
28.850000	1	0.578250
28.866667	1	0.582250
28.883333	1	0.585125
28.900000	1	0.587000
28.916667	1	0.587000
28.933333	1	0.585625
28.950000	1	0.584000
28.966667	1	0.580750
28.983333	1	0.576500
29.000000	1	0.571125
29.016667	1	0.564500
29.033333	1	0.556250
29.050000	1	0.546750
29.066667	1	0.536875
29.083333	1	0.526125
29.100000	1	0.515000
29.116667	1	0.502875
29.133333	1	0.490875
29.150000	1	0.478125
29.166667	1	0.464875
29.183333	1	0.452000
29.200000	1	0.438375
29.216667	1	0.424500
29.233333	1	0.410750
29.250000	1	0.397125
29.266667	1	0.383000
29.283333	1	0.369875
29.300000	1	0.357125
29.316667	1	0.344500
29.333333	1	0.332625
29.350000	1	0.321125
29.366667	1	0.310125
29.383333	1	0.299250
29.400000	1	0.289500
29.416667	1	0.280000
29.433333	1	0.271000
29.450000	1	0.262375
29.466667	1	0.254250
29.483333	1	0.245875
29.500000	1	0.239000
29.516667	1	0.232750
29.533333	1	0.226500
29.550000	1	0.221375
29.566667	1	0.216500
29.583333	1	0.212125
29.600000	1	0.208250
29.616667	1	0.203500
29.633333	1	0.200250
29.650000	1	0.197875
29.666667	1	0.194875
29.683333	1	0.192625
29.700000	1	0.189750
29.716667	1	0.187250
29.733333	1	0.185250
29.750000	1	0.183625
29.766667	1	0.181750
29.783333	1	0.180250
29.800000	1	0.179000
29.816667	1	0.177375
29.833333	1	0.176125
29.850000	1	0.174125
29.866667	1	0.172375
29.883333	1	0.170500
29.900000	1	0.168500
29.916667	1	0.167000
29.933333	1	0.164875
29.950000	1	0.162625
29.966667	1	0.160375
29.983333	1	0.157875
30.000000	1	0.155875
30.016667	1	0.153375
30.033333	1	0.150250
30.050000	1	0.147625
30.066667	1	0.145000
30.083333	1	0.141875
30.100000	1	0.139250
30.116667	1	0.136125
30.133333	1	0.134250
30.150000	1	0.132250
30.166667	1	0.130250
30.183333	1	0.128125
30.200000	1	0.125875
30.216667	1	0.124375
30.233333	1	0.122875
30.250000	1	0.121875
30.266667	1	0.120875
30.283333	1	0.120375
30.300000	1	0.120625
30.316667	1	0.120875
30.333333	1	0.121375
30.350000	1	0.122125
30.366667	1	0.124125
30.383333	1	0.125125
30.400000	1	0.126750
30.416667	1	0.129500
30.433333	1	0.131875
30.450000	1	0.135000
30.466667	1	0.139000
30.483333	1	0.143250
30.500000	1	0.147000
30.516667	1	0.151875
30.533333	1	0.157625
30.550000	1	0.163625
30.566667	1	0.169750
30.583333	1	0.176625
30.600000	1	0.183875
30.616667	1	0.191250
30.633333	1	0.198875
30.650000	1	0.207125
30.666667	1	0.215000
30.683333	1	0.223625
30.700000	1	0.232875
30.716667	1	0.241375
30.733333	1	0.251250
30.750000	1	0.261250
30.766667	1	0.271500
30.783333	1	0.282625
30.800000	1	0.293875
30.816667	1	0.305500
30.833333	1	0.317875
30.850000	1	0.330875
30.866667	1	0.344750
30.883333	1	0.360000
30.900000	1	0.376375
30.916667	1	0.393875
30.933333	1	0.413875
30.950000	1	0.435750
30.966667	1	0.459000
30.983333	1	0.486125
31.000000	1	0.515750
31.016667	1	0.549375
31.033333	1	0.586500
31.050000	1	0.627625
31.066667	1	0.673500
31.083333	1	0.724875
31.100000	1	0.781750
31.116667	1	0.844625
31.133333	1	0.914125
31.150000	1	0.990375
31.166667	1	1.073250
31.183333	1	1.163000
31.200000	1	1.260000
31.216667	1	1.364500
31.233333	1	1.475625
31.250000	1	1.591875
31.266667	1	1.714750
31.283333	1	1.842500
31.300000	1	1.973750
31.316667	1	2.107750
31.333333	1	2.244375
31.350000	1	2.380625
31.366667	1	2.515875
31.383333	1	2.648375
31.400000	1	2.777000
31.416667	1	2.899375
31.433333	1	3.014000
31.450000	1	3.120125
31.466667	1	3.215250
31.483333	1	3.298000
31.500000	1	3.367750
31.516667	1	3.423125
31.533333	1	3.462875
31.550000	1	3.488125
31.566667	1	3.498250
31.583333	1	3.492125
31.600000	1	3.469875
31.616667	1	3.433375
31.633333	1	3.381875
31.650000	1	3.316875
31.666667	1	3.239500
31.683333	1	3.150875
31.700000	1	3.052000
31.716667	1	2.945500
31.733333	1	2.831875
31.750000	1	2.712750
31.766667	1	2.589125
31.783333	1	2.462500
31.800000	1	2.334125
31.816667	1	2.205875
31.833333	1	2.078500
31.850000	1	1.953500
31.866667	1	1.831250
31.883333	1	1.712125
31.900000	1	1.598750
31.916667	1	1.489375
31.933333	1	1.385750
31.950000	1	1.286000
31.966667	1	1.192000
31.983333	1	1.103750
32.000000	1	1.021250
32.016667	1	0.944625
32.033333	1	0.873500
32.050000	1	0.806500
32.066667	1	0.744750
32.083333	1	0.687625
32.100000	1	0.635125
32.116667	1	0.587375
32.133333	1	0.543000
32.150000	1	0.501625
32.166667	1	0.463625
32.183333	1	0.428625
32.200000	1	0.396375
32.216667	1	0.366875
32.233333	1	0.339375
32.250000	1	0.314625
32.266667	1	0.291375
32.283333	1	0.270000
32.300000	1	0.250125
32.316667	1	0.232250
32.333333	1	0.215750
32.350000	1	0.201125
32.366667	1	0.187375
32.383333	1	0.175125
32.400000	1	0.163000
32.416667	1	0.152375
32.433333	1	0.142125
32.450000	1	0.133750
32.466667	1	0.125375
32.483333	1	0.118625
32.500000	1	0.112000
32.516667	1	0.106250
32.533333	1	0.101625
32.550000	1	0.097250
32.566667	1	0.093000
32.583333	1	0.090375
32.600000	1	0.087000
32.616667	1	0.084250
32.633333	1	0.081750
32.650000	1	0.080875
32.666667	1	0.079250
32.683333	1	0.078250
32.700000	1	0.077500
32.716667	1	0.076375
32.733333	1	0.076500
32.750000	1	0.076000
32.766667	1	0.075500
32.783333	1	0.075625
32.800000	1	0.075500
32.816667	1	0.074875
32.833333	1	0.075125
32.850000	1	0.074250
32.866667	1	0.074125
32.883333	1	0.073625
32.900000	1	0.073500
32.916667	1	0.073500
32.933333	1	0.073000
32.950000	1	0.072875
32.966667	1	0.072875
32.983333	1	0.072625
33.000000	1	0.072125
33.016667	1	0.072125
33.033333	1	0.071750
33.050000	1	0.071375
33.066667	1	0.071625
33.083333	1	0.071125
33.100000	1	0.071000
33.116667	1	0.071000
33.133333	1	0.070625
33.150000	1	0.070500
33.166667	1	0.070000
33.183333	1	0.069500
33.200000	1	0.068875
33.216667	1	0.068375
33.233333	1	0.067250
33.250000	1	0.066875
33.266667	1	0.066250
33.283333	1	0.065250
33.300000	1	0.064750
33.316667	1	0.064125
33.333333	1	0.063625
33.350000	1	0.063500
33.366667	1	0.063375
33.383333	1	0.062875
33.400000	1	0.062875
33.416667	1	0.062750
33.433333	1	0.062375
33.450000	1	0.061875
33.466667	1	0.062125
33.483333	1	0.061875
33.500000	1	0.062500
33.516667	1	0.062875
33.533333	1	0.063625
33.550000	1	0.064000
33.566667	1	0.064875
33.583333	1	0.065125
33.600000	1	0.065750
33.616667	1	0.067375
33.633333	1	0.068625
33.650000	1	0.069625
33.666667	1	0.070500
33.683333	1	0.071875
33.700000	1	0.072875
33.716667	1	0.075250
33.733333	1	0.077000
33.750000	1	0.078250
33.766667	1	0.079625
33.783333	1	0.081750
33.800000	1	0.083625
33.816667	1	0.085750
33.833333	1	0.087250
33.850000	1	0.089125
33.866667	1	0.091125
33.883333	1	0.093125
33.900000	1	0.094625
33.916667	1	0.096375
33.933333	1	0.097125
33.950000	1	0.098750
33.966667	1	0.099875
33.983333	1	0.101125
34.000000	1	0.101500
34.016667	1	0.101875
34.033333	1	0.102500
34.050000	1	0.103250
34.066667	1	0.103750
34.083333	1	0.103875
34.100000	1	0.104125
34.116667	1	0.104000
34.133333	1	0.103250
34.150000	1	0.102625
34.166667	1	0.102875
34.183333	1	0.102875
34.200000	1	0.103250
34.216667	1	0.102750
34.233333	1	0.102625
34.250000	1	0.102125
34.266667	1	0.102125
34.283333	1	0.102500
34.300000	1	0.103625
34.316667	1	0.104250
34.333333	1	0.104875
34.350000	1	0.105375
34.366667	1	0.106375
34.383333	1	0.107250
34.400000	1	0.108000
34.416667	1	0.109625
34.433333	1	0.110250
34.450000	1	0.111250
34.466667	1	0.112875
34.483333	1	0.114375
34.500000	1	0.116125
34.516667	1	0.117500
34.533333	1	0.118625
34.550000	1	0.120250
34.566667	1	0.121375
34.583333	1	0.121875
34.600000	1	0.121750
34.616667	1	0.122250
34.633333	1	0.122750
34.650000	1	0.123000
34.666667	1	0.123000
34.683333	1	0.123000
34.700000	1	0.123125
34.716667	1	0.122750
34.733333	1	0.122625
34.750000	1	0.121250
34.766667	1	0.121000
34.783333	1	0.120375
34.800000	1	0.119250
34.816667	1	0.118000
34.833333	1	0.117375
34.850000	1	0.116125
34.866667	1	0.114625
34.883333	1	0.113375
34.900000	1	0.112000
34.916667	1	0.110875
34.933333	1	0.109750
34.950000	1	0.108250
34.966667	1	0.106875
34.983333	1	0.106250
35.000000	1	0.105750
35.016667	1	0.104875
35.033333	1	0.104125
35.050000	1	0.103750
35.066667	1	0.102750
35.083333	1	0.103000
35.100000	1	0.103125
35.116667	1	0.103000
35.133333	1	0.103625
35.150000	1	0.103500
35.166667	1	0.103250
35.183333	1	0.103625
35.200000	1	0.103875
35.216667	1	0.103875
35.233333	1	0.103875
35.250000	1	0.104875
35.266667	1	0.105500
35.283333	1	0.106875
35.300000	1	0.107375
35.316667	1	0.108125
35.333333	1	0.108875
35.350000	1	0.109875
35.366667	1	0.110500
35.383333	1	0.111750
35.400000	1	0.112750
35.416667	1	0.114625
35.433333	1	0.115750
35.450000	1	0.116375
35.466667	1	0.117875
35.483333	1	0.118625
35.500000	1	0.119500
35.516667	1	0.120375
35.533333	1	0.122000
35.550000	1	0.123625
35.566667	1	0.124500
35.583333	1	0.125625
35.600000	1	0.126875
35.616667	1	0.127750
35.633333	1	0.128875
35.650000	1	0.130125
35.666667	1	0.131250
35.683333	1	0.131875
35.700000	1	0.132875
35.716667	1	0.134000
35.733333	1	0.134250
35.750000	1	0.135250
35.766667	1	0.135875
35.783333	1	0.135750
35.800000	1	0.136250
35.816667	1	0.136625
35.833333	1	0.136250
35.850000	1	0.136125
35.866667	1	0.135875
35.883333	1	0.135750
35.900000	1	0.135375
35.916667	1	0.135250
35.933333	1	0.135000
35.950000	1	0.134875
35.966667	1	0.134375
35.983333	1	0.133500
36.000000	1	0.133250
36.016667	1	0.132625
36.033333	1	0.131750
36.050000	1	0.131500
36.066667	1	0.131500
36.083333	1	0.131875
36.100000	1	0.131125
36.116667	1	0.131000
36.133333	1	0.131125
36.150000	1	0.130750
36.166667	1	0.131500
36.183333	1	0.131750
36.200000	1	0.132500
36.216667	1	0.132750
36.233333	1	0.132500
36.250000	1	0.132625
36.266667	1	0.132500
36.283333	1	0.132250
36.300000	1	0.132000
36.316667	1	0.132250
36.333333	1	0.132375
36.350000	1	0.131875
36.366667	1	0.132000
36.383333	1	0.132125
36.400000	1	0.131375
36.416667	1	0.131375
36.433333	1	0.130625
36.450000	1	0.129875
36.466667	1	0.128625
36.483333	1	0.127625
36.500000	1	0.127125
36.516667	1	0.125875
36.533333	1	0.125125
36.550000	1	0.123250
36.566667	1	0.121625
36.583333	1	0.119875
36.600000	1	0.116875
36.616667	1	0.115125
36.633333	1	0.112000
36.650000	1	0.108875
36.666667	1	0.105625
36.683333	1	0.102875
36.700000	1	0.100625
36.716667	1	0.097500
36.733333	1	0.094125
36.750000	1	0.090500
36.766667	1	0.086500
36.783333	1	0.083625
36.800000	1	0.080500
36.816667	1	0.076875
36.833333	1	0.073625
36.850000	1	0.070375
36.866667	1	0.067625
36.883333	1	0.064500
36.900000	1	0.061250
36.916667	1	0.057875
36.933333	1	0.054875
36.950000	1	0.051875
36.966667	1	0.048875
36.983333	1	0.046250
37.000000	1	0.044250
37.016667	1	0.041250
37.033333	1	0.039000
37.050000	1	0.037375
37.066667	1	0.036000
37.083333	1	0.034625
37.100000	1	0.033500
37.116667	1	0.032750
37.133333	1	0.031625
37.150000	1	0.030625
37.166667	1	0.030375
37.183333	1	0.029750
37.200000	1	0.029750
37.216667	1	0.029500
37.233333	1	0.029125
37.250000	1	0.029625
37.266667	1	0.030625
37.283333	1	0.031125
37.300000	1	0.031500
37.316667	1	0.031000
37.333333	1	0.031125
37.350000	1	0.031875
37.366667	1	0.032375
37.383333	1	0.033125
37.400000	1	0.033750
37.416667	1	0.033875
37.433333	1	0.033875
37.450000	1	0.033875
37.466667	1	0.034000
37.483333	1	0.034375
37.500000	1	0.034875
37.516667	1	0.034875
37.533333	1	0.034625
37.550000	1	0.034750
37.566667	1	0.034500
37.583333	1	0.033375
37.600000	1	0.032750
37.616667	1	0.032125
37.633333	1	0.030875
37.650000	1	0.030875
37.666667	1	0.030750
37.683333	1	0.029875
37.700000	1	0.028750
37.716667	1	0.027875
37.733333	1	0.026500
37.750000	1	0.025125
37.766667	1	0.023250
37.783333	1	0.021500
37.800000	1	0.020000
37.816667	1	0.019000
37.833333	1	0.017375
37.850000	1	0.016375
37.866667	1	0.015875
37.883333	1	0.015500
37.900000	1	0.015250
37.916667	1	0.015125
37.933333	1	0.014625
37.950000	1	0.014000
37.966667	1	0.013375
37.983333	1	0.014000
38.000000	1	0.014250
38.016667	1	0.014125
38.033333	1	0.014625
38.050000	1	0.015375
38.066667	1	0.016500
38.083333	1	0.017000
38.100000	1	0.018250
38.116667	1	0.019625
38.133333	1	0.020875
38.150000	1	0.022250
38.166667	1	0.023125
38.183333	1	0.025125
38.200000	1	0.026875
38.216667	1	0.028375
38.233333	1	0.029750
38.250000	1	0.031750
38.266667	1	0.033375
38.283333	1	0.034125
38.300000	1	0.035125
38.316667	1	0.036125
38.333333	1	0.036875
38.350000	1	0.037250
38.366667	1	0.037875
38.383333	1	0.038500
38.400000	1	0.038750
38.416667	1	0.038375
38.433333	1	0.038250
38.450000	1	0.038375
38.466667	1	0.038125
38.483333	1	0.037875
38.500000	1	0.037500
38.516667	1	0.037000
38.533333	1	0.036375
38.550000	1	0.035750
38.566667	1	0.034875
38.583333	1	0.033750
38.600000	1	0.033000
38.616667	1	0.031750
38.633333	1	0.030875
38.650000	1	0.030500
38.666667	1	0.029875
38.683333	1	0.029250
38.700000	1	0.028250
38.716667	1	0.027125
38.733333	1	0.025875
38.750000	1	0.024875
38.766667	1	0.024875
38.783333	1	0.024500
38.800000	1	0.024125
38.816667	1	0.023875
38.833333	1	0.023875
38.850000	1	0.023500
38.866667	1	0.023000
38.883333	1	0.023625
38.900000	1	0.023750
38.916667	1	0.023625
38.933333	1	0.023875
38.950000	1	0.023500
38.966667	1	0.023250
38.983333	1	0.023000
39.000000	1	0.023000
39.016667	1	0.023250
39.033333	1	0.023750
39.050000	1	0.023125
39.066667	1	0.023375
39.083333	1	0.023250
39.100000	1	0.023125
39.116667	1	0.022250
39.133333	1	0.021500
39.150000	1	0.020875
39.166667	1	0.020250
39.183333	1	0.019750
39.200000	1	0.018875
39.216667	1	0.018375
39.233333	1	0.017125
39.250000	1	0.016250
39.266667	1	0.015500
39.283333	1	0.014500
39.300000	1	0.013750
39.316667	1	0.013375
39.333333	1	0.011500
39.350000	1	0.010875
39.366667	1	0.009625
39.383333	1	0.008125
39.400000	1	0.007125
39.416667	1	0.005750
39.433333	1	0.004750
39.450000	1	0.003875
39.466667	1	0.002375
39.483333	1	0.001750
39.500000	1	0.001125
39.516667	1	0.000125
39.533333	1	-0.000250
39.550000	1	-0.000750
39.566667	1	-0.000625
39.583333	1	-0.001250
39.600000	1	-0.001125
39.616667	1	-0.001000
39.633333	1	-0.001250
39.650000	1	-0.001375
39.666667	1	-0.001000
39.683333	1	-0.000500
39.700000	1	0.000500
39.716667	1	0.001125
39.733333	1	0.001750
39.750000	1	0.002375
39.766667	1	0.002500
39.783333	1	0.003125
39.800000	1	0.004125
39.816667	1	0.005000
39.833333	1	0.006125
39.850000	1	0.007000
39.866667	1	0.007500
39.883333	1	0.008375
39.900000	1	0.009250
39.916667	1	0.010250
39.933333	1	0.011250
39.950000	1	0.012000
39.966667	1	0.012500
39.983333	1	0.013125
40.000000	1	0.013125
