URL	chrom://bioreactor/micro_cm7/HPLC_Ultimate_3000/Users/markusar/20240708_MA_pHrange1.seq/235.smp/RI_1.channel/RI_1.chm
Channel	RI_1

Injection Information:
Data Vault	micro_cm7
Sequence	20240708_MA_pHrange1
Name	Pv2_20H_2
Number	38
Position	BD2
Comment	
Processing Method	
Instrument Method	run_25B_method
Type	Unknown
Status	Finished
Inject Time	09.07.2024 16:50:29 +02:00
Volume (µl)	20.0000
Dilution Factor	1.0000
Weight	1.0000

Chromatogram Data Information:
Time Min. (min)	0.000000
Time Max. (min)	40.000000
Data Points	2401
Detector	RI
Generating Data System	Chromeleon 7.3.2.11814
Exporting Data System	Chromeleon 7.3.2.0
Operator	Instrument Controller
Signal Quantity	Refractive 
Signal Unit	µRIU
Signal Min.	-0.065625
Signal Max.	83.417375
Channel	RI_1
Driver Name	RID520Driver.dll
Channel Type	Evaluation
Min. Step (s)	1
Max. Step (s)	1
Average Step (s)	1

Signal Parameter Information:
Signal Info	

Chromatogram Data:
Time (min)	Step (s)	Value (µRIU)
0.000000	n.a.	0.068875
0.016667	1	0.068875
0.033333	1	0.068250
0.050000	1	0.067750
0.066667	1	0.067500
0.083333	1	0.067250
0.100000	1	0.067125
0.116667	1	0.067375
0.133333	1	0.066500
0.150000	1	0.065250
0.166667	1	0.065000
0.183333	1	0.064000
0.200000	1	0.063000
0.216667	1	0.062500
0.233333	1	0.061750
0.250000	1	0.061250
0.266667	1	0.060750
0.283333	1	0.060000
0.300000	1	0.058625
0.316667	1	0.056875
0.333333	1	0.054875
0.350000	1	0.052750
0.366667	1	0.050500
0.383333	1	0.048125
0.400000	1	0.046375
0.416667	1	0.045625
0.433333	1	0.045000
0.450000	1	0.045250
0.466667	1	0.045750
0.483333	1	0.045750
0.500000	1	0.045375
0.516667	1	0.045125
0.533333	1	0.044250
0.550000	1	0.043000
0.566667	1	0.040375
0.583333	1	0.037500
0.600000	1	0.035250
0.616667	1	0.032875
0.633333	1	0.031000
0.650000	1	0.030250
0.666667	1	0.029500
0.683333	1	0.029250
0.700000	1	0.028500
0.716667	1	0.028125
0.733333	1	0.028000
0.750000	1	0.027750
0.766667	1	0.026250
0.783333	1	0.025875
0.800000	1	0.026375
0.816667	1	0.026375
0.833333	1	0.026625
0.850000	1	0.026375
0.866667	1	0.026500
0.883333	1	0.026875
0.900000	1	0.027750
0.916667	1	0.028125
0.933333	1	0.028125
0.950000	1	0.028500
0.966667	1	0.028875
0.983333	1	0.028625
1.000000	1	0.028750
1.016667	1	0.029125
1.033333	1	0.029375
1.050000	1	0.029625
1.066667	1	0.029625
1.083333	1	0.030000
1.100000	1	0.030500
1.116667	1	0.031500
1.133333	1	0.032375
1.150000	1	0.033000
1.166667	1	0.033500
1.183333	1	0.034000
1.200000	1	0.034375
1.216667	1	0.035250
1.233333	1	0.036625
1.250000	1	0.037500
1.266667	1	0.038375
1.283333	1	0.039000
1.300000	1	0.040000
1.316667	1	0.040875
1.333333	1	0.041500
1.350000	1	0.042125
1.366667	1	0.043000
1.383333	1	0.043500
1.400000	1	0.044000
1.416667	1	0.044875
1.433333	1	0.045125
1.450000	1	0.045500
1.466667	1	0.045875
1.483333	1	0.046375
1.500000	1	0.046500
1.516667	1	0.046250
1.533333	1	0.046500
1.550000	1	0.046875
1.566667	1	0.047625
1.583333	1	0.047750
1.600000	1	0.048125
1.616667	1	0.047500
1.633333	1	0.046625
1.650000	1	0.046875
1.666667	1	0.046500
1.683333	1	0.046500
1.700000	1	0.046750
1.716667	1	0.046000
1.733333	1	0.046125
1.750000	1	0.046125
1.766667	1	0.046750
1.783333	1	0.046625
1.800000	1	0.046500
1.816667	1	0.046875
1.833333	1	0.046625
1.850000	1	0.046625
1.866667	1	0.046750
1.883333	1	0.046750
1.900000	1	0.046250
1.916667	1	0.045500
1.933333	1	0.045000
1.950000	1	0.045375
1.966667	1	0.044500
1.983333	1	0.044125
2.000000	1	0.043500
2.016667	1	0.043750
2.033333	1	0.043375
2.050000	1	0.042375
2.066667	1	0.041500
2.083333	1	0.041375
2.100000	1	0.040875
2.116667	1	0.040000
2.133333	1	0.038875
2.150000	1	0.038000
2.166667	1	0.036875
2.183333	1	0.036375
2.200000	1	0.035625
2.216667	1	0.035000
2.233333	1	0.034750
2.250000	1	0.034125
2.266667	1	0.033125
2.283333	1	0.032625
2.300000	1	0.031750
2.316667	1	0.031000
2.333333	1	0.029375
2.350000	1	0.027875
2.366667	1	0.026500
2.383333	1	0.026000
2.400000	1	0.026000
2.416667	1	0.024250
2.433333	1	0.023625
2.450000	1	0.022750
2.466667	1	0.022125
2.483333	1	0.021125
2.500000	1	0.021000
2.516667	1	0.019875
2.533333	1	0.019500
2.550000	1	0.017875
2.566667	1	0.018250
2.583333	1	0.017750
2.600000	1	0.017250
2.616667	1	0.015750
2.633333	1	0.015625
2.650000	1	0.015500
2.666667	1	0.015375
2.683333	1	0.015500
2.700000	1	0.014750
2.716667	1	0.014875
2.733333	1	0.015500
2.750000	1	0.015625
2.766667	1	0.015625
2.783333	1	0.015625
2.800000	1	0.015000
2.816667	1	0.015250
2.833333	1	0.015625
2.850000	1	0.016000
2.866667	1	0.016875
2.883333	1	0.017750
2.900000	1	0.018625
2.916667	1	0.019750
2.933333	1	0.020375
2.950000	1	0.020625
2.966667	1	0.021625
2.983333	1	0.022750
3.000000	1	0.023750
3.016667	1	0.025250
3.033333	1	0.027125
3.050000	1	0.027875
3.066667	1	0.029125
3.083333	1	0.030250
3.100000	1	0.030875
3.116667	1	0.031625
3.133333	1	0.032125
3.150000	1	0.032875
3.166667	1	0.034500
3.183333	1	0.035375
3.200000	1	0.036375
3.216667	1	0.037875
3.233333	1	0.039125
3.250000	1	0.040750
3.266667	1	0.042375
3.283333	1	0.043375
3.300000	1	0.044500
3.316667	1	0.045500
3.333333	1	0.046750
3.350000	1	0.048000
3.366667	1	0.049375
3.383333	1	0.050000
3.400000	1	0.050625
3.416667	1	0.051375
3.433333	1	0.052000
3.450000	1	0.052750
3.466667	1	0.054000
3.483333	1	0.055250
3.500000	1	0.056500
3.516667	1	0.057250
3.533333	1	0.057625
3.550000	1	0.058375
3.566667	1	0.059500
3.583333	1	0.059875
3.600000	1	0.061000
3.616667	1	0.061625
3.633333	1	0.062625
3.650000	1	0.063500
3.666667	1	0.064125
3.683333	1	0.064500
3.700000	1	0.065250
3.716667	1	0.065875
3.733333	1	0.066500
3.750000	1	0.067375
3.766667	1	0.068125
3.783333	1	0.069375
3.800000	1	0.070125
3.816667	1	0.071250
3.833333	1	0.072375
3.850000	1	0.072875
3.866667	1	0.073125
3.883333	1	0.074500
3.900000	1	0.075750
3.916667	1	0.075875
3.933333	1	0.076500
3.950000	1	0.077750
3.966667	1	0.078875
3.983333	1	0.079500
4.000000	1	0.081375
4.016667	1	0.083000
4.033333	1	0.084250
4.050000	1	0.085625
4.066667	1	0.087000
4.083333	1	0.088375
4.100000	1	0.089625
4.116667	1	0.090625
4.133333	1	0.092125
4.150000	1	0.093500
4.166667	1	0.094875
4.183333	1	0.096625
4.200000	1	0.098750
4.216667	1	0.100250
4.233333	1	0.102500
4.250000	1	0.104625
4.266667	1	0.106125
4.283333	1	0.108000
4.300000	1	0.109875
4.316667	1	0.111875
4.333333	1	0.113750
4.350000	1	0.115625
4.366667	1	0.116875
4.383333	1	0.118750
4.400000	1	0.119375
4.416667	1	0.120250
4.433333	1	0.121250
4.450000	1	0.123000
4.466667	1	0.124125
4.483333	1	0.124875
4.500000	1	0.125125
4.516667	1	0.125750
4.533333	1	0.126625
4.550000	1	0.127875
4.566667	1	0.128875
4.583333	1	0.129500
4.600000	1	0.130875
4.616667	1	0.131500
4.633333	1	0.132250
4.650000	1	0.132750
4.666667	1	0.134000
4.683333	1	0.134750
4.700000	1	0.135750
4.716667	1	0.136250
4.733333	1	0.137375
4.750000	1	0.138750
4.766667	1	0.140125
4.783333	1	0.142000
4.800000	1	0.143625
4.816667	1	0.144500
4.833333	1	0.146000
4.850000	1	0.148250
4.866667	1	0.150375
4.883333	1	0.153000
4.900000	1	0.155750
4.916667	1	0.158500
4.933333	1	0.161500
4.950000	1	0.165000
4.966667	1	0.167875
4.983333	1	0.171000
5.000000	1	0.174625
5.016667	1	0.178625
5.033333	1	0.182250
5.050000	1	0.186125
5.066667	1	0.189875
5.083333	1	0.194000
5.100000	1	0.197500
5.116667	1	0.201500
5.133333	1	0.205875
5.150000	1	0.209875
5.166667	1	0.214375
5.183333	1	0.218000
5.200000	1	0.222750
5.216667	1	0.227125
5.233333	1	0.230875
5.250000	1	0.234500
5.266667	1	0.238250
5.283333	1	0.241875
5.300000	1	0.245875
5.316667	1	0.248625
5.333333	1	0.252000
5.350000	1	0.255375
5.366667	1	0.258125
5.383333	1	0.260375
5.400000	1	0.263250
5.416667	1	0.265500
5.433333	1	0.267750
5.450000	1	0.269625
5.466667	1	0.271000
5.483333	1	0.272125
5.500000	1	0.273375
5.516667	1	0.273625
5.533333	1	0.273750
5.550000	1	0.272750
5.566667	1	0.272750
5.583333	1	0.272625
5.600000	1	0.271375
5.616667	1	0.269000
5.633333	1	0.267500
5.650000	1	0.265500
5.666667	1	0.263000
5.683333	1	0.260750
5.700000	1	0.257750
5.716667	1	0.254625
5.733333	1	0.251500
5.750000	1	0.247875
5.766667	1	0.244125
5.783333	1	0.239375
5.800000	1	0.236125
5.816667	1	0.232000
5.833333	1	0.227750
5.850000	1	0.223500
5.866667	1	0.219375
5.883333	1	0.214750
5.900000	1	0.210375
5.916667	1	0.206125
5.933333	1	0.201750
5.950000	1	0.196750
5.966667	1	0.191875
5.983333	1	0.187125
6.000000	1	0.182750
6.016667	1	0.178000
6.033333	1	0.173625
6.050000	1	0.168375
6.066667	1	0.164625
6.083333	1	0.160500
6.100000	1	0.156500
6.116667	1	0.152000
6.133333	1	0.147250
6.150000	1	0.143500
6.166667	1	0.139750
6.183333	1	0.135500
6.200000	1	0.131500
6.216667	1	0.127375
6.233333	1	0.123500
6.250000	1	0.119250
6.266667	1	0.115500
6.283333	1	0.112500
6.300000	1	0.109125
6.316667	1	0.106250
6.333333	1	0.103375
6.350000	1	0.099500
6.366667	1	0.096875
6.383333	1	0.093375
6.400000	1	0.090500
6.416667	1	0.087250
6.433333	1	0.085000
6.450000	1	0.082125
6.466667	1	0.079500
6.483333	1	0.077000
6.500000	1	0.074750
6.516667	1	0.073000
6.533333	1	0.071375
6.550000	1	0.070000
6.566667	1	0.068250
6.583333	1	0.066750
6.600000	1	0.065625
6.616667	1	0.064625
6.633333	1	0.064000
6.650000	1	0.063375
6.666667	1	0.063250
6.683333	1	0.062500
6.700000	1	0.062500
6.716667	1	0.063375
6.733333	1	0.063750
6.750000	1	0.064625
6.766667	1	0.066125
6.783333	1	0.067500
6.800000	1	0.068750
6.816667	1	0.070375
6.833333	1	0.072500
6.850000	1	0.074125
6.866667	1	0.075375
6.883333	1	0.077625
6.900000	1	0.081000
6.916667	1	0.083250
6.933333	1	0.086000
6.950000	1	0.089250
6.966667	1	0.092625
6.983333	1	0.095875
7.000000	1	0.100000
7.016667	1	0.103625
7.033333	1	0.108000
7.050000	1	0.111875
7.066667	1	0.116000
7.083333	1	0.119500
7.100000	1	0.123750
7.116667	1	0.128500
7.133333	1	0.132500
7.150000	1	0.136750
7.166667	1	0.141250
7.183333	1	0.145250
7.200000	1	0.148750
7.216667	1	0.153500
7.233333	1	0.157625
7.250000	1	0.161500
7.266667	1	0.165125
7.283333	1	0.168625
7.300000	1	0.172250
7.316667	1	0.174500
7.333333	1	0.177500
7.350000	1	0.180500
7.366667	1	0.182875
7.383333	1	0.184875
7.400000	1	0.186625
7.416667	1	0.187625
7.433333	1	0.188125
7.450000	1	0.188875
7.466667	1	0.189000
7.483333	1	0.188625
7.500000	1	0.187500
7.516667	1	0.186125
7.533333	1	0.185375
7.550000	1	0.182750
7.566667	1	0.179875
7.583333	1	0.177000
7.600000	1	0.173875
7.616667	1	0.169750
7.633333	1	0.166250
7.650000	1	0.162375
7.666667	1	0.157375
7.683333	1	0.152875
7.700000	1	0.147125
7.716667	1	0.141875
7.733333	1	0.136000
7.750000	1	0.130750
7.766667	1	0.124250
7.783333	1	0.118000
7.800000	1	0.111375
7.816667	1	0.104250
7.833333	1	0.098125
7.850000	1	0.092375
7.866667	1	0.086375
7.883333	1	0.080500
7.900000	1	0.074750
7.916667	1	0.069000
7.933333	1	0.063000
7.950000	1	0.058000
7.966667	1	0.053000
7.983333	1	0.048625
8.000000	1	0.044125
8.016667	1	0.040250
8.033333	1	0.036125
8.050000	1	0.032500
8.066667	1	0.029375
8.083333	1	0.026375
8.100000	1	0.024125
8.116667	1	0.021500
8.133333	1	0.020625
8.150000	1	0.019250
8.166667	1	0.018000
8.183333	1	0.016500
8.200000	1	0.016125
8.216667	1	0.015625
8.233333	1	0.015000
8.250000	1	0.014250
8.266667	1	0.014625
8.283333	1	0.014750
8.300000	1	0.015000
8.316667	1	0.015750
8.333333	1	0.016875
8.350000	1	0.017750
8.366667	1	0.018875
8.383333	1	0.020375
8.400000	1	0.021625
8.416667	1	0.022750
8.433333	1	0.023500
8.450000	1	0.024500
8.466667	1	0.025625
8.483333	1	0.027000
8.500000	1	0.027625
8.516667	1	0.028625
8.533333	1	0.029750
8.550000	1	0.030875
8.566667	1	0.032875
8.583333	1	0.035125
8.600000	1	0.036375
8.616667	1	0.037625
8.633333	1	0.039000
8.650000	1	0.040625
8.666667	1	0.042375
8.683333	1	0.043750
8.700000	1	0.045500
8.716667	1	0.047500
8.733333	1	0.049375
8.750000	1	0.051250
8.766667	1	0.052125
8.783333	1	0.053375
8.800000	1	0.054500
8.816667	1	0.055875
8.833333	1	0.057125
8.850000	1	0.057500
8.866667	1	0.058375
8.883333	1	0.059375
8.900000	1	0.060375
8.916667	1	0.061375
8.933333	1	0.062250
8.950000	1	0.063125
8.966667	1	0.063875
8.983333	1	0.063875
9.000000	1	0.064500
9.016667	1	0.064250
9.033333	1	0.063500
9.050000	1	0.063000
9.066667	1	0.063000
9.083333	1	0.063375
9.100000	1	0.063375
9.116667	1	0.063125
9.133333	1	0.062625
9.150000	1	0.062250
9.166667	1	0.061250
9.183333	1	0.061000
9.200000	1	0.060500
9.216667	1	0.060375
9.233333	1	0.059125
9.250000	1	0.058625
9.266667	1	0.056875
9.283333	1	0.056125
9.300000	1	0.055125
9.316667	1	0.054250
9.333333	1	0.053125
9.350000	1	0.052000
9.366667	1	0.050250
9.383333	1	0.049750
9.400000	1	0.048375
9.416667	1	0.046625
9.433333	1	0.044625
9.450000	1	0.042750
9.466667	1	0.041000
9.483333	1	0.039375
9.500000	1	0.037625
9.516667	1	0.036500
9.533333	1	0.034750
9.550000	1	0.032500
9.566667	1	0.031875
9.583333	1	0.030625
9.600000	1	0.029250
9.616667	1	0.028250
9.633333	1	0.027375
9.650000	1	0.025750
9.666667	1	0.024500
9.683333	1	0.024000
9.700000	1	0.023625
9.716667	1	0.023625
9.733333	1	0.022875
9.750000	1	0.021375
9.766667	1	0.021000
9.783333	1	0.020500
9.800000	1	0.019750
9.816667	1	0.019375
9.833333	1	0.019000
9.850000	1	0.018875
9.866667	1	0.019000
9.883333	1	0.018375
9.900000	1	0.018125
9.916667	1	0.018000
9.933333	1	0.017000
9.950000	1	0.017000
9.966667	1	0.016500
9.983333	1	0.016625
10.000000	1	0.016625
10.016667	1	0.017125
10.033333	1	0.018000
10.050000	1	0.018875
10.066667	1	0.019875
10.083333	1	0.021750
10.100000	1	0.024500
10.116667	1	0.027875
10.133333	1	0.032500
10.150000	1	0.038000
10.166667	1	0.043625
10.183333	1	0.051500
10.200000	1	0.059250
10.216667	1	0.069000
10.233333	1	0.080125
10.250000	1	0.092750
10.266667	1	0.107250
10.283333	1	0.123625
10.300000	1	0.142375
10.316667	1	0.163250
10.333333	1	0.185500
10.350000	1	0.207750
10.366667	1	0.229250
10.383333	1	0.247375
10.400000	1	0.257625
10.416667	1	0.256000
10.433333	1	0.237250
10.450000	1	0.198000
10.466667	1	0.137500
10.483333	1	0.060500
10.500000	1	-0.017125
10.516667	1	-0.065625
10.533333	1	-0.040250
10.550000	1	0.120500
10.566667	1	0.491500
10.583333	1	1.153875
10.600000	1	2.188375
10.616667	1	3.666625
10.633333	1	5.645750
10.650000	1	8.165250
10.666667	1	11.254500
10.683333	1	14.928500
10.700000	1	19.189750
10.716667	1	24.027625
10.733333	1	29.419875
10.750000	1	35.328000
10.766667	1	41.690250
10.783333	1	48.418125
10.800000	1	55.378000
10.816667	1	62.360625
10.833333	1	69.038500
10.850000	1	74.939000
10.866667	1	79.442125
10.883333	1	81.838875
10.900000	1	81.515000
10.916667	1	78.195125
10.933333	1	72.123250
10.950000	1	64.030000
10.966667	1	54.910250
10.983333	1	45.726625
11.000000	1	37.196250
11.016667	1	29.728000
11.033333	1	23.473875
11.050000	1	18.403875
11.066667	1	14.391375
11.083333	1	11.273750
11.100000	1	8.886500
11.116667	1	7.077750
11.133333	1	5.714500
11.150000	1	4.688625
11.166667	1	3.915750
11.183333	1	3.330375
11.200000	1	2.883875
11.216667	1	2.539750
11.233333	1	2.271000
11.250000	1	2.058000
11.266667	1	1.886625
11.283333	1	1.745500
11.300000	1	1.629125
11.316667	1	1.531750
11.333333	1	1.448250
11.350000	1	1.377125
11.366667	1	1.315750
11.383333	1	1.263375
11.400000	1	1.217375
11.416667	1	1.177875
11.433333	1	1.143500
11.450000	1	1.113500
11.466667	1	1.087625
11.483333	1	1.066000
11.500000	1	1.047000
11.516667	1	1.031000
11.533333	1	1.017250
11.550000	1	1.005375
11.566667	1	0.995375
11.583333	1	0.987000
11.600000	1	0.980750
11.616667	1	0.976625
11.633333	1	0.973125
11.650000	1	0.970750
11.666667	1	0.970375
11.683333	1	0.971125
11.700000	1	0.974375
11.716667	1	0.979125
11.733333	1	0.984625
11.750000	1	0.991500
11.766667	1	0.999875
11.783333	1	1.008625
11.800000	1	1.017250
11.816667	1	1.026500
11.833333	1	1.036625
11.850000	1	1.046250
11.866667	1	1.055000
11.883333	1	1.064250
11.900000	1	1.072000
11.916667	1	1.079125
11.933333	1	1.084500
11.950000	1	1.088875
11.966667	1	1.093500
11.983333	1	1.097875
12.000000	1	1.101125
12.016667	1	1.103750
12.033333	1	1.107000
12.050000	1	1.111125
12.066667	1	1.114500
12.083333	1	1.119000
12.100000	1	1.123625
12.116667	1	1.127875
12.133333	1	1.133625
12.150000	1	1.139250
12.166667	1	1.144375
12.183333	1	1.150875
12.200000	1	1.159125
12.216667	1	1.168000
12.233333	1	1.177750
12.250000	1	1.189250
12.266667	1	1.203000
12.283333	1	1.220750
12.300000	1	1.242500
12.316667	1	1.269625
12.333333	1	1.304750
12.350000	1	1.350375
12.366667	1	1.408000
12.383333	1	1.483500
12.400000	1	1.580250
12.416667	1	1.702125
12.433333	1	1.856250
12.450000	1	2.048125
12.466667	1	2.283000
12.483333	1	2.566750
12.500000	1	2.905000
12.516667	1	3.301000
12.533333	1	3.757000
12.550000	1	4.273625
12.566667	1	4.847375
12.583333	1	5.473250
12.600000	1	6.144875
12.616667	1	6.847125
12.633333	1	7.567125
12.650000	1	8.291750
12.666667	1	9.005250
12.683333	1	9.695500
12.700000	1	10.352000
12.716667	1	10.969375
12.733333	1	11.545375
12.750000	1	12.084125
12.766667	1	12.590500
12.783333	1	13.074875
12.800000	1	13.547625
12.816667	1	14.020000
12.833333	1	14.502750
12.850000	1	15.003250
12.866667	1	15.529875
12.883333	1	16.085000
12.900000	1	16.673375
12.916667	1	17.294875
12.933333	1	17.950375
12.950000	1	18.638000
12.966667	1	19.356000
12.983333	1	20.102375
13.000000	1	20.875750
13.016667	1	21.672000
13.033333	1	22.493000
13.050000	1	23.336500
13.066667	1	24.202375
13.083333	1	25.089750
13.100000	1	25.999500
13.116667	1	26.928750
13.133333	1	27.877125
13.150000	1	28.843250
13.166667	1	29.828875
13.183333	1	30.833375
13.200000	1	31.857125
13.216667	1	32.897750
13.233333	1	33.957375
13.250000	1	35.037750
13.266667	1	36.138625
13.283333	1	37.261625
13.300000	1	38.406375
13.316667	1	39.573500
13.333333	1	40.762000
13.350000	1	41.973875
13.366667	1	43.208375
13.383333	1	44.466875
13.400000	1	45.748500
13.416667	1	47.054375
13.433333	1	48.385125
13.450000	1	49.743750
13.466667	1	51.130250
13.483333	1	52.546500
13.500000	1	53.992625
13.516667	1	55.468500
13.533333	1	56.974500
13.550000	1	58.510000
13.566667	1	60.075875
13.583333	1	61.673500
13.600000	1	63.302500
13.616667	1	64.962250
13.633333	1	66.657125
13.650000	1	68.388500
13.666667	1	70.157875
13.683333	1	71.965500
13.700000	1	73.812000
13.716667	1	75.696000
13.733333	1	77.605625
13.750000	1	79.494625
13.766667	1	81.248125
13.783333	1	82.654250
13.800000	1	83.417375
13.816667	1	83.210125
13.833333	1	81.715625
13.850000	1	78.651375
13.866667	1	73.830500
13.883333	1	67.274375
13.900000	1	59.331125
13.916667	1	50.667125
13.933333	1	42.070500
13.950000	1	34.198875
13.966667	1	27.432375
13.983333	1	21.876875
14.000000	1	17.453500
14.016667	1	13.997375
14.033333	1	11.334250
14.050000	1	9.308000
14.066667	1	7.785250
14.083333	1	6.653250
14.100000	1	5.816750
14.116667	1	5.199750
14.133333	1	4.741500
14.150000	1	4.396875
14.166667	1	4.133500
14.183333	1	3.927750
14.200000	1	3.762750
14.216667	1	3.628250
14.233333	1	3.515750
14.250000	1	3.419625
14.266667	1	3.335500
14.283333	1	3.262000
14.300000	1	3.197000
14.316667	1	3.138250
14.333333	1	3.085000
14.350000	1	3.037500
14.366667	1	2.996500
14.383333	1	2.961375
14.400000	1	2.933000
14.416667	1	2.912750
14.433333	1	2.901875
14.450000	1	2.904625
14.466667	1	2.924500
14.483333	1	2.967875
14.500000	1	3.043000
14.516667	1	3.162750
14.533333	1	3.343000
14.550000	1	3.608000
14.566667	1	3.989125
14.583333	1	4.524250
14.600000	1	5.263250
14.616667	1	6.265875
14.633333	1	7.604000
14.650000	1	9.353375
14.666667	1	11.593500
14.683333	1	14.393750
14.700000	1	17.809625
14.716667	1	21.868875
14.733333	1	26.566750
14.750000	1	31.853000
14.766667	1	37.621375
14.783333	1	43.707500
14.800000	1	49.904625
14.816667	1	55.971125
14.833333	1	61.639250
14.850000	1	66.632375
14.866667	1	70.691875
14.883333	1	73.602125
14.900000	1	75.213375
14.916667	1	75.455500
14.933333	1	74.343000
14.950000	1	71.969500
14.966667	1	68.500875
14.983333	1	64.155625
15.000000	1	59.173125
15.016667	1	53.796875
15.033333	1	48.258750
15.050000	1	42.765500
15.066667	1	37.486625
15.083333	1	32.549500
15.100000	1	28.040500
15.116667	1	24.004875
15.133333	1	20.453750
15.150000	1	17.374625
15.166667	1	14.739000
15.183333	1	12.506750
15.200000	1	10.632750
15.216667	1	9.070375
15.233333	1	7.776500
15.250000	1	6.710625
15.266667	1	5.837000
15.283333	1	5.125250
15.300000	1	4.548250
15.316667	1	4.082875
15.333333	1	3.709750
15.350000	1	3.414500
15.366667	1	3.182375
15.383333	1	3.002625
15.400000	1	2.865000
15.416667	1	2.763000
15.433333	1	2.688625
15.450000	1	2.636000
15.466667	1	2.599125
15.483333	1	2.573125
15.500000	1	2.554000
15.516667	1	2.536875
15.533333	1	2.519000
15.550000	1	2.498125
15.566667	1	2.473375
15.583333	1	2.443250
15.600000	1	2.409000
15.616667	1	2.370875
15.633333	1	2.329625
15.650000	1	2.286375
15.666667	1	2.243750
15.683333	1	2.200500
15.700000	1	2.158875
15.716667	1	2.119250
15.733333	1	2.082000
15.750000	1	2.046500
15.766667	1	2.011500
15.783333	1	1.978000
15.800000	1	1.944250
15.816667	1	1.910750
15.833333	1	1.876750
15.850000	1	1.842750
15.866667	1	1.808875
15.883333	1	1.776000
15.900000	1	1.743375
15.916667	1	1.713875
15.933333	1	1.686375
15.950000	1	1.661875
15.966667	1	1.641000
15.983333	1	1.623875
16.000000	1	1.610000
16.016667	1	1.599500
16.033333	1	1.591000
16.050000	1	1.584875
16.066667	1	1.580375
16.083333	1	1.577000
16.100000	1	1.574750
16.116667	1	1.572125
16.133333	1	1.568500
16.150000	1	1.564000
16.166667	1	1.557375
16.183333	1	1.548625
16.200000	1	1.538375
16.216667	1	1.526750
16.233333	1	1.514125
16.250000	1	1.500000
16.266667	1	1.484625
16.283333	1	1.468000
16.300000	1	1.450875
16.316667	1	1.433375
16.333333	1	1.415625
16.350000	1	1.398000
16.366667	1	1.382000
16.383333	1	1.366500
16.400000	1	1.351750
16.416667	1	1.338500
16.433333	1	1.326750
16.450000	1	1.317375
16.466667	1	1.310500
16.483333	1	1.306375
16.500000	1	1.305375
16.516667	1	1.306000
16.533333	1	1.308375
16.550000	1	1.312750
16.566667	1	1.317375
16.583333	1	1.323375
16.600000	1	1.329500
16.616667	1	1.334500
16.633333	1	1.338750
16.650000	1	1.342500
16.666667	1	1.344625
16.683333	1	1.345125
16.700000	1	1.344625
16.716667	1	1.343625
16.733333	1	1.340375
16.750000	1	1.338375
16.766667	1	1.337000
16.783333	1	1.335500
16.800000	1	1.334875
16.816667	1	1.336125
16.833333	1	1.338500
16.850000	1	1.341250
16.866667	1	1.344625
16.883333	1	1.347625
16.900000	1	1.350625
16.916667	1	1.352625
16.933333	1	1.353250
16.950000	1	1.353500
16.966667	1	1.352125
16.983333	1	1.349625
17.000000	1	1.345750
17.016667	1	1.340250
17.033333	1	1.334000
17.050000	1	1.326875
17.066667	1	1.320500
17.083333	1	1.313000
17.100000	1	1.305875
17.116667	1	1.298500
17.133333	1	1.292750
17.150000	1	1.288250
17.166667	1	1.284000
17.183333	1	1.280500
17.200000	1	1.277750
17.216667	1	1.276500
17.233333	1	1.275375
17.250000	1	1.275625
17.266667	1	1.276750
17.283333	1	1.278125
17.300000	1	1.280250
17.316667	1	1.283250
17.333333	1	1.285875
17.350000	1	1.290000
17.366667	1	1.293875
17.383333	1	1.297750
17.400000	1	1.301000
17.416667	1	1.303750
17.433333	1	1.307250
17.450000	1	1.309375
17.466667	1	1.310125
17.483333	1	1.310125
17.500000	1	1.308375
17.516667	1	1.304625
17.533333	1	1.299750
17.550000	1	1.293000
17.566667	1	1.284500
17.583333	1	1.274875
17.600000	1	1.263875
17.616667	1	1.251750
17.633333	1	1.238500
17.650000	1	1.224250
17.666667	1	1.209500
17.683333	1	1.194000
17.700000	1	1.178125
17.716667	1	1.162750
17.733333	1	1.147625
17.750000	1	1.132875
17.766667	1	1.118625
17.783333	1	1.105250
17.800000	1	1.092500
17.816667	1	1.080250
17.833333	1	1.069250
17.850000	1	1.058625
17.866667	1	1.049125
17.883333	1	1.040125
17.900000	1	1.031625
17.916667	1	1.023625
17.933333	1	1.016875
17.950000	1	1.009875
17.966667	1	1.003000
17.983333	1	0.996250
18.000000	1	0.990375
18.016667	1	0.984750
18.033333	1	0.978125
18.050000	1	0.971000
18.066667	1	0.964500
18.083333	1	0.957875
18.100000	1	0.951000
18.116667	1	0.945000
18.133333	1	0.938875
18.150000	1	0.933750
18.166667	1	0.929250
18.183333	1	0.925250
18.200000	1	0.922250
18.216667	1	0.920125
18.233333	1	0.918000
18.250000	1	0.917375
18.266667	1	0.917750
18.283333	1	0.918375
18.300000	1	0.919875
18.316667	1	0.921250
18.333333	1	0.922500
18.350000	1	0.924500
18.366667	1	0.926750
18.383333	1	0.929625
18.400000	1	0.933250
18.416667	1	0.937750
18.433333	1	0.943125
18.450000	1	0.949375
18.466667	1	0.956500
18.483333	1	0.964875
18.500000	1	0.975375
18.516667	1	0.986875
18.533333	1	1.000375
18.550000	1	1.016000
18.566667	1	1.033250
18.583333	1	1.053250
18.600000	1	1.074500
18.616667	1	1.097375
18.633333	1	1.122500
18.650000	1	1.150000
18.666667	1	1.178750
18.683333	1	1.210125
18.700000	1	1.242500
18.716667	1	1.276250
18.733333	1	1.310500
18.750000	1	1.346625
18.766667	1	1.382875
18.783333	1	1.420125
18.800000	1	1.457250
18.816667	1	1.493375
18.833333	1	1.528250
18.850000	1	1.560250
18.866667	1	1.589375
18.883333	1	1.614250
18.900000	1	1.634000
18.916667	1	1.649250
18.933333	1	1.657875
18.950000	1	1.659500
18.966667	1	1.654375
18.983333	1	1.642250
19.000000	1	1.623125
19.016667	1	1.597000
19.033333	1	1.563375
19.050000	1	1.525500
19.066667	1	1.483250
19.083333	1	1.437500
19.100000	1	1.389375
19.116667	1	1.340500
19.133333	1	1.293250
19.150000	1	1.247375
19.166667	1	1.205125
19.183333	1	1.167625
19.200000	1	1.137000
19.216667	1	1.114375
19.233333	1	1.100500
19.250000	1	1.097500
19.266667	1	1.106750
19.283333	1	1.128750
19.300000	1	1.165500
19.316667	1	1.216375
19.333333	1	1.283500
19.350000	1	1.366125
19.366667	1	1.463750
19.383333	1	1.576750
19.400000	1	1.702750
19.416667	1	1.840000
19.433333	1	1.985500
19.450000	1	2.135000
19.466667	1	2.285250
19.483333	1	2.431875
19.500000	1	2.569375
19.516667	1	2.694125
19.533333	1	2.801125
19.550000	1	2.887750
19.566667	1	2.950125
19.583333	1	2.987500
19.600000	1	2.998125
19.616667	1	2.982500
19.633333	1	2.941125
19.650000	1	2.877375
19.666667	1	2.793250
19.683333	1	2.692250
19.700000	1	2.577750
19.716667	1	2.453125
19.733333	1	2.322625
19.750000	1	2.189625
19.766667	1	2.055500
19.783333	1	1.924250
19.800000	1	1.797250
19.816667	1	1.676375
19.833333	1	1.562250
19.850000	1	1.455875
19.866667	1	1.358000
19.883333	1	1.267750
19.900000	1	1.185625
19.916667	1	1.111500
19.933333	1	1.045125
19.950000	1	0.985500
19.966667	1	0.933125
19.983333	1	0.886250
20.000000	1	0.845000
20.016667	1	0.810375
20.033333	1	0.781250
20.050000	1	0.757125
20.066667	1	0.738000
20.083333	1	0.723750
20.100000	1	0.713750
20.116667	1	0.707875
20.133333	1	0.706750
20.150000	1	0.709250
20.166667	1	0.714875
20.183333	1	0.723250
20.200000	1	0.733250
20.216667	1	0.746375
20.233333	1	0.759750
20.250000	1	0.773375
20.266667	1	0.787000
20.283333	1	0.800250
20.300000	1	0.810875
20.316667	1	0.819750
20.333333	1	0.826250
20.350000	1	0.828875
20.366667	1	0.828125
20.383333	1	0.824625
20.400000	1	0.817875
20.416667	1	0.807250
20.433333	1	0.794750
20.450000	1	0.780750
20.466667	1	0.766000
20.483333	1	0.751000
20.500000	1	0.736875
20.516667	1	0.724500
20.533333	1	0.715750
20.550000	1	0.711000
20.566667	1	0.710500
20.583333	1	0.715625
20.600000	1	0.728125
20.616667	1	0.747875
20.633333	1	0.775250
20.650000	1	0.811500
20.666667	1	0.856500
20.683333	1	0.910125
20.700000	1	0.972250
20.716667	1	1.041500
20.733333	1	1.117625
20.750000	1	1.198875
20.766667	1	1.283500
20.783333	1	1.369875
20.800000	1	1.454375
20.816667	1	1.535375
20.833333	1	1.608875
20.850000	1	1.673875
20.866667	1	1.726875
20.883333	1	1.766750
20.900000	1	1.792000
20.916667	1	1.801750
20.933333	1	1.796375
20.950000	1	1.775500
20.966667	1	1.740375
20.983333	1	1.693000
21.000000	1	1.634250
21.016667	1	1.566750
21.033333	1	1.493250
21.050000	1	1.415875
21.066667	1	1.335875
21.083333	1	1.256250
21.100000	1	1.178000
21.116667	1	1.102875
21.133333	1	1.032125
21.150000	1	0.966375
21.166667	1	0.905625
21.183333	1	0.850500
21.200000	1	0.800500
21.216667	1	0.755500
21.233333	1	0.716000
21.250000	1	0.680625
21.266667	1	0.650625
21.283333	1	0.624250
21.300000	1	0.601625
21.316667	1	0.581875
21.333333	1	0.565125
21.350000	1	0.551500
21.366667	1	0.539125
21.383333	1	0.528875
21.400000	1	0.519750
21.416667	1	0.511500
21.433333	1	0.505000
21.450000	1	0.499250
21.466667	1	0.494250
21.483333	1	0.490000
21.500000	1	0.486500
21.516667	1	0.483625
21.533333	1	0.481125
21.550000	1	0.479625
21.566667	1	0.478500
21.583333	1	0.477750
21.600000	1	0.478500
21.616667	1	0.479375
21.633333	1	0.480875
21.650000	1	0.483000
21.666667	1	0.486375
21.683333	1	0.490250
21.700000	1	0.495000
21.716667	1	0.501000
21.733333	1	0.507875
21.750000	1	0.515250
21.766667	1	0.523625
21.783333	1	0.532875
21.800000	1	0.542000
21.816667	1	0.551625
21.833333	1	0.562875
21.850000	1	0.574125
21.866667	1	0.584875
21.883333	1	0.596375
21.900000	1	0.607875
21.916667	1	0.619500
21.933333	1	0.630500
21.950000	1	0.641250
21.966667	1	0.650750
21.983333	1	0.659750
22.000000	1	0.668250
22.016667	1	0.675375
22.033333	1	0.681750
22.050000	1	0.687625
22.066667	1	0.692250
22.083333	1	0.696125
22.100000	1	0.699250
22.116667	1	0.701750
22.133333	1	0.702250
22.150000	1	0.701500
22.166667	1	0.700500
22.183333	1	0.698250
22.200000	1	0.694500
22.216667	1	0.689625
22.233333	1	0.683875
22.250000	1	0.676500
22.266667	1	0.668000
22.283333	1	0.658500
22.300000	1	0.647500
22.316667	1	0.636250
22.333333	1	0.624500
22.350000	1	0.611375
22.366667	1	0.598000
22.383333	1	0.583875
22.400000	1	0.569625
22.416667	1	0.555875
22.433333	1	0.542875
22.450000	1	0.529750
22.466667	1	0.516625
22.483333	1	0.504500
22.500000	1	0.492250
22.516667	1	0.480500
22.533333	1	0.469875
22.550000	1	0.459750
22.566667	1	0.449625
22.583333	1	0.441000
22.600000	1	0.432750
22.616667	1	0.424375
22.633333	1	0.416750
22.650000	1	0.410125
22.666667	1	0.403500
22.683333	1	0.397125
22.700000	1	0.391500
22.716667	1	0.385125
22.733333	1	0.380750
22.750000	1	0.375500
22.766667	1	0.371125
22.783333	1	0.366500
22.800000	1	0.362000
22.816667	1	0.358125
22.833333	1	0.353500
22.850000	1	0.349750
22.866667	1	0.345750
22.883333	1	0.343250
22.900000	1	0.341000
22.916667	1	0.339375
22.933333	1	0.338000
22.950000	1	0.336500
22.966667	1	0.335375
22.983333	1	0.335125
23.000000	1	0.335000
23.016667	1	0.336000
23.033333	1	0.336125
23.050000	1	0.337500
23.066667	1	0.339250
23.083333	1	0.341125
23.100000	1	0.344500
23.116667	1	0.347125
23.133333	1	0.350375
23.150000	1	0.353750
23.166667	1	0.356750
23.183333	1	0.360625
23.200000	1	0.364375
23.216667	1	0.368500
23.233333	1	0.372375
23.250000	1	0.377000
23.266667	1	0.381750
23.283333	1	0.387250
23.300000	1	0.394000
23.316667	1	0.402125
23.333333	1	0.411500
23.350000	1	0.423625
23.366667	1	0.438750
23.383333	1	0.457250
23.400000	1	0.479375
23.416667	1	0.507500
23.433333	1	0.542250
23.450000	1	0.584125
23.466667	1	0.634750
23.483333	1	0.696750
23.500000	1	0.770875
23.516667	1	0.858250
23.533333	1	0.960500
23.550000	1	1.079000
23.566667	1	1.215500
23.583333	1	1.369750
23.600000	1	1.542625
23.616667	1	1.734250
23.633333	1	1.944375
23.650000	1	2.170375
23.666667	1	2.411625
23.683333	1	2.665875
23.700000	1	2.928250
23.716667	1	3.195750
23.733333	1	3.463125
23.750000	1	3.724875
23.766667	1	3.975500
23.783333	1	4.209250
23.800000	1	4.420750
23.816667	1	4.605625
23.833333	1	4.759250
23.850000	1	4.878250
23.866667	1	4.958875
23.883333	1	5.000500
23.900000	1	5.003125
23.916667	1	4.966750
23.933333	1	4.893125
23.950000	1	4.785750
23.966667	1	4.646500
23.983333	1	4.480875
24.000000	1	4.292625
24.016667	1	4.086875
24.033333	1	3.868375
24.050000	1	3.642500
24.066667	1	3.412500
24.083333	1	3.182750
24.100000	1	2.956750
24.116667	1	2.736125
24.133333	1	2.523625
24.150000	1	2.321125
24.166667	1	2.131125
24.183333	1	1.953500
24.200000	1	1.788625
24.216667	1	1.637875
24.233333	1	1.499250
24.250000	1	1.373750
24.266667	1	1.260250
24.283333	1	1.158125
24.300000	1	1.067125
24.316667	1	0.985875
24.333333	1	0.914125
24.350000	1	0.851375
24.366667	1	0.796500
24.383333	1	0.748375
24.400000	1	0.707125
24.416667	1	0.672000
24.433333	1	0.642000
24.450000	1	0.617875
24.466667	1	0.597625
24.483333	1	0.580500
24.500000	1	0.565875
24.516667	1	0.553625
24.533333	1	0.543750
24.550000	1	0.535250
24.566667	1	0.528000
24.583333	1	0.522375
24.600000	1	0.516750
24.616667	1	0.512250
24.633333	1	0.508250
24.650000	1	0.503250
24.666667	1	0.498875
24.683333	1	0.494250
24.700000	1	0.489375
24.716667	1	0.484250
24.733333	1	0.479125
24.750000	1	0.473875
24.766667	1	0.468750
24.783333	1	0.463500
24.800000	1	0.457125
24.816667	1	0.450125
24.833333	1	0.444750
24.850000	1	0.439375
24.866667	1	0.433875
24.883333	1	0.429000
24.900000	1	0.424375
24.916667	1	0.420000
24.933333	1	0.415625
24.950000	1	0.411250
24.966667	1	0.406500
24.983333	1	0.402250
25.000000	1	0.398750
25.016667	1	0.395125
25.033333	1	0.391125
25.050000	1	0.388250
25.066667	1	0.384500
25.083333	1	0.381500
25.100000	1	0.377875
25.116667	1	0.374375
25.133333	1	0.371125
25.150000	1	0.367250
25.166667	1	0.363750
25.183333	1	0.360250
25.200000	1	0.356625
25.216667	1	0.352750
25.233333	1	0.349000
25.250000	1	0.345500
25.266667	1	0.342250
25.283333	1	0.339000
25.300000	1	0.335750
25.316667	1	0.332875
25.333333	1	0.329500
25.350000	1	0.328250
25.366667	1	0.326000
25.383333	1	0.322625
25.400000	1	0.320375
25.416667	1	0.318500
25.433333	1	0.317250
25.450000	1	0.316500
25.466667	1	0.315250
25.483333	1	0.314125
25.500000	1	0.313500
25.516667	1	0.313375
25.533333	1	0.313500
25.550000	1	0.313875
25.566667	1	0.313625
25.583333	1	0.314250
25.600000	1	0.314875
25.616667	1	0.316000
25.633333	1	0.316875
25.650000	1	0.318000
25.666667	1	0.318625
25.683333	1	0.319625
25.700000	1	0.319875
25.716667	1	0.320000
25.733333	1	0.320375
25.750000	1	0.320875
25.766667	1	0.321250
25.783333	1	0.320875
25.800000	1	0.321250
25.816667	1	0.321750
25.833333	1	0.321875
25.850000	1	0.322375
25.866667	1	0.323375
25.883333	1	0.324000
25.900000	1	0.325375
25.916667	1	0.326750
25.933333	1	0.328750
25.950000	1	0.331000
25.966667	1	0.333375
25.983333	1	0.335750
26.000000	1	0.338375
26.016667	1	0.341375
26.033333	1	0.344750
26.050000	1	0.348875
26.066667	1	0.354125
26.083333	1	0.359125
26.100000	1	0.364375
26.116667	1	0.369250
26.133333	1	0.373625
26.150000	1	0.378750
26.166667	1	0.382875
26.183333	1	0.387250
26.200000	1	0.391875
26.216667	1	0.395625
26.233333	1	0.399625
26.250000	1	0.402500
26.266667	1	0.405375
26.283333	1	0.407875
26.300000	1	0.410125
26.316667	1	0.410875
26.333333	1	0.411125
26.350000	1	0.410750
26.366667	1	0.409250
26.383333	1	0.406875
26.400000	1	0.403250
26.416667	1	0.400000
26.433333	1	0.395625
26.450000	1	0.391625
26.466667	1	0.386375
26.483333	1	0.381250
26.500000	1	0.375500
26.516667	1	0.369125
26.533333	1	0.362000
26.550000	1	0.354750
26.566667	1	0.347375
26.583333	1	0.340000
26.600000	1	0.332250
26.616667	1	0.325250
26.633333	1	0.318125
26.650000	1	0.311750
26.666667	1	0.304875
26.683333	1	0.298750
26.700000	1	0.292625
26.716667	1	0.286750
26.733333	1	0.281375
26.750000	1	0.276125
26.766667	1	0.271000
26.783333	1	0.266625
26.800000	1	0.262000
26.816667	1	0.258125
26.833333	1	0.255125
26.850000	1	0.251875
26.866667	1	0.249750
26.883333	1	0.247625
26.900000	1	0.247000
26.916667	1	0.246250
26.933333	1	0.245750
26.950000	1	0.245500
26.966667	1	0.245500
26.983333	1	0.246375
27.000000	1	0.247625
27.016667	1	0.249250
27.033333	1	0.252125
27.050000	1	0.255500
27.066667	1	0.259125
27.083333	1	0.263875
27.100000	1	0.269125
27.116667	1	0.275750
27.133333	1	0.283000
27.150000	1	0.291500
27.166667	1	0.301375
27.183333	1	0.312750
27.200000	1	0.326750
27.216667	1	0.342125
27.233333	1	0.360750
27.250000	1	0.381125
27.266667	1	0.405250
27.283333	1	0.432500
27.300000	1	0.464500
27.316667	1	0.501375
27.333333	1	0.543500
27.350000	1	0.591375
27.366667	1	0.646125
27.383333	1	0.708875
27.400000	1	0.780000
27.416667	1	0.860625
27.433333	1	0.951375
27.450000	1	1.053625
27.466667	1	1.167000
27.483333	1	1.291875
27.500000	1	1.429000
27.516667	1	1.578750
27.533333	1	1.740500
27.550000	1	1.914500
27.566667	1	2.100125
27.583333	1	2.296125
27.600000	1	2.500250
27.616667	1	2.712125
27.633333	1	2.928875
27.650000	1	3.148250
27.666667	1	3.367375
27.683333	1	3.584500
27.700000	1	3.795875
27.716667	1	3.998000
27.733333	1	4.187375
27.750000	1	4.361125
27.766667	1	4.516000
27.783333	1	4.648750
27.800000	1	4.756875
27.816667	1	4.838500
27.833333	1	4.892625
27.850000	1	4.916375
27.866667	1	4.910875
27.883333	1	4.875375
27.900000	1	4.810625
27.916667	1	4.718750
27.933333	1	4.600875
27.950000	1	4.460000
27.966667	1	4.297875
27.983333	1	4.119250
28.000000	1	3.926750
28.016667	1	3.722625
28.033333	1	3.511625
28.050000	1	3.295625
28.066667	1	3.079000
28.083333	1	2.863500
28.100000	1	2.652625
28.116667	1	2.447750
28.133333	1	2.251500
28.150000	1	2.065375
28.166667	1	1.889500
28.183333	1	1.725875
28.200000	1	1.572875
28.216667	1	1.433125
28.233333	1	1.305125
28.250000	1	1.189375
28.266667	1	1.083875
28.283333	1	0.990000
28.300000	1	0.906000
28.316667	1	0.831125
28.333333	1	0.765875
28.350000	1	0.709250
28.366667	1	0.660750
28.383333	1	0.620500
28.400000	1	0.585500
28.416667	1	0.556750
28.433333	1	0.533625
28.450000	1	0.515000
28.466667	1	0.500375
28.483333	1	0.491000
28.500000	1	0.484750
28.516667	1	0.481375
28.533333	1	0.481250
28.550000	1	0.483000
28.566667	1	0.487125
28.583333	1	0.493250
28.600000	1	0.501000
28.616667	1	0.510250
28.633333	1	0.519625
28.650000	1	0.530125
28.666667	1	0.540875
28.683333	1	0.552125
28.700000	1	0.563250
28.716667	1	0.574750
28.733333	1	0.584875
28.750000	1	0.595000
28.766667	1	0.604375
28.783333	1	0.612875
28.800000	1	0.620500
28.816667	1	0.627500
28.833333	1	0.632625
28.850000	1	0.637875
28.866667	1	0.640875
28.883333	1	0.642625
28.900000	1	0.643000
28.916667	1	0.641875
28.933333	1	0.640375
28.950000	1	0.637375
28.966667	1	0.633375
28.983333	1	0.628250
29.000000	1	0.621125
29.016667	1	0.613250
29.033333	1	0.604625
29.050000	1	0.594000
29.066667	1	0.583000
29.083333	1	0.570750
29.100000	1	0.557750
29.116667	1	0.544250
29.133333	1	0.530375
29.150000	1	0.515625
29.166667	1	0.499750
29.183333	1	0.484500
29.200000	1	0.468500
29.216667	1	0.453375
29.233333	1	0.437375
29.250000	1	0.421375
29.266667	1	0.405625
29.283333	1	0.390375
29.300000	1	0.375375
29.316667	1	0.360500
29.333333	1	0.346625
29.350000	1	0.332625
29.366667	1	0.319625
29.383333	1	0.306750
29.400000	1	0.294625
29.416667	1	0.283125
29.433333	1	0.272625
29.450000	1	0.262500
29.466667	1	0.253375
29.483333	1	0.244125
29.500000	1	0.235375
29.516667	1	0.226875
29.533333	1	0.219375
29.550000	1	0.212750
29.566667	1	0.207000
29.583333	1	0.201500
29.600000	1	0.197125
29.616667	1	0.192750
29.633333	1	0.189250
29.650000	1	0.186625
29.666667	1	0.183625
29.683333	1	0.180250
29.700000	1	0.177375
29.716667	1	0.175125
29.733333	1	0.173125
29.750000	1	0.170875
29.766667	1	0.168375
29.783333	1	0.167625
29.800000	1	0.165875
29.816667	1	0.164625
29.833333	1	0.164125
29.850000	1	0.163250
29.866667	1	0.163000
29.883333	1	0.161750
29.900000	1	0.161375
29.916667	1	0.160375
29.933333	1	0.159125
29.950000	1	0.157875
29.966667	1	0.157000
29.983333	1	0.156375
30.000000	1	0.155375
30.016667	1	0.155250
30.033333	1	0.155000
30.050000	1	0.154500
30.066667	1	0.153625
30.083333	1	0.153000
30.100000	1	0.152625
30.116667	1	0.152250
30.133333	1	0.151750
30.150000	1	0.151000
30.166667	1	0.150875
30.183333	1	0.151500
30.200000	1	0.151000
30.216667	1	0.151625
30.233333	1	0.152375
30.250000	1	0.153000
30.266667	1	0.154000
30.283333	1	0.155250
30.300000	1	0.156250
30.316667	1	0.157750
30.333333	1	0.159250
30.350000	1	0.161500
30.366667	1	0.162875
30.383333	1	0.165250
30.400000	1	0.167875
30.416667	1	0.171000
30.433333	1	0.173625
30.450000	1	0.176750
30.466667	1	0.180375
30.483333	1	0.184125
30.500000	1	0.188125
30.516667	1	0.192750
30.533333	1	0.197000
30.550000	1	0.202625
30.566667	1	0.207500
30.583333	1	0.213500
30.600000	1	0.219750
30.616667	1	0.225875
30.633333	1	0.232500
30.650000	1	0.239625
30.666667	1	0.247000
30.683333	1	0.254375
30.700000	1	0.262875
30.716667	1	0.271250
30.733333	1	0.280375
30.750000	1	0.289500
30.766667	1	0.299125
30.783333	1	0.309125
30.800000	1	0.319375
30.816667	1	0.331000
30.833333	1	0.342500
30.850000	1	0.355750
30.866667	1	0.369250
30.883333	1	0.383375
30.900000	1	0.398250
30.916667	1	0.415375
30.933333	1	0.434750
30.950000	1	0.455500
30.966667	1	0.479000
30.983333	1	0.504625
31.000000	1	0.533500
31.016667	1	0.565375
31.033333	1	0.601875
31.050000	1	0.642375
31.066667	1	0.687250
31.083333	1	0.737250
31.100000	1	0.793000
31.116667	1	0.854625
31.133333	1	0.922375
31.150000	1	0.997375
31.166667	1	1.079375
31.183333	1	1.168750
31.200000	1	1.266125
31.216667	1	1.370875
31.233333	1	1.482750
31.250000	1	1.601625
31.266667	1	1.727125
31.283333	1	1.857625
31.300000	1	1.993375
31.316667	1	2.132750
31.333333	1	2.274125
31.350000	1	2.416500
31.366667	1	2.559250
31.383333	1	2.700625
31.400000	1	2.839125
31.416667	1	2.971625
31.433333	1	3.096625
31.450000	1	3.213500
31.466667	1	3.320375
31.483333	1	3.415500
31.500000	1	3.497375
31.516667	1	3.564375
31.533333	1	3.616125
31.550000	1	3.652000
31.566667	1	3.672125
31.583333	1	3.675250
31.600000	1	3.663500
31.616667	1	3.634875
31.633333	1	3.591000
31.650000	1	3.532000
31.666667	1	3.459500
31.683333	1	3.374375
31.700000	1	3.278375
31.716667	1	3.172875
31.733333	1	3.059125
31.750000	1	2.939000
31.766667	1	2.813500
31.783333	1	2.683750
31.800000	1	2.551875
31.816667	1	2.418375
31.833333	1	2.285000
31.850000	1	2.153625
31.866667	1	2.024625
31.883333	1	1.898000
31.900000	1	1.775750
31.916667	1	1.659000
31.933333	1	1.546250
31.950000	1	1.439250
31.966667	1	1.337750
31.983333	1	1.242625
32.000000	1	1.152375
32.016667	1	1.068375
32.033333	1	0.989500
32.050000	1	0.916000
32.066667	1	0.848250
32.083333	1	0.785375
32.100000	1	0.726875
32.116667	1	0.672625
32.133333	1	0.623125
32.150000	1	0.577625
32.166667	1	0.535375
32.183333	1	0.497125
32.200000	1	0.461875
32.216667	1	0.429750
32.233333	1	0.399750
32.250000	1	0.371750
32.266667	1	0.347875
32.283333	1	0.324500
32.300000	1	0.303250
32.316667	1	0.284625
32.333333	1	0.267750
32.350000	1	0.250625
32.366667	1	0.236000
32.383333	1	0.222375
32.400000	1	0.210000
32.416667	1	0.199250
32.433333	1	0.189500
32.450000	1	0.180125
32.466667	1	0.171375
32.483333	1	0.163125
32.500000	1	0.155875
32.516667	1	0.149625
32.533333	1	0.143750
32.550000	1	0.138250
32.566667	1	0.133250
32.583333	1	0.128500
32.600000	1	0.123250
32.616667	1	0.119000
32.633333	1	0.115000
32.650000	1	0.111375
32.666667	1	0.107125
32.683333	1	0.103875
32.700000	1	0.100375
32.716667	1	0.096875
32.733333	1	0.093750
32.750000	1	0.090875
32.766667	1	0.088250
32.783333	1	0.086375
32.800000	1	0.083500
32.816667	1	0.081750
32.833333	1	0.079125
32.850000	1	0.076000
32.866667	1	0.074250
32.883333	1	0.071625
32.900000	1	0.069750
32.916667	1	0.067125
32.933333	1	0.065625
32.950000	1	0.064250
32.966667	1	0.063500
32.983333	1	0.062375
33.000000	1	0.061500
33.016667	1	0.060500
33.033333	1	0.058875
33.050000	1	0.057750
33.066667	1	0.056250
33.083333	1	0.054875
33.100000	1	0.054375
33.116667	1	0.053375
33.133333	1	0.052250
33.150000	1	0.051875
33.166667	1	0.050875
33.183333	1	0.050000
33.200000	1	0.049750
33.216667	1	0.049500
33.233333	1	0.048625
33.250000	1	0.048375
33.266667	1	0.047875
33.283333	1	0.047875
33.300000	1	0.048000
33.316667	1	0.047875
33.333333	1	0.048000
33.350000	1	0.048250
33.366667	1	0.049375
33.383333	1	0.049750
33.400000	1	0.050375
33.416667	1	0.051125
33.433333	1	0.052250
33.450000	1	0.053250
33.466667	1	0.054125
33.483333	1	0.055500
33.500000	1	0.057375
33.516667	1	0.059000
33.533333	1	0.060750
33.550000	1	0.062375
33.566667	1	0.065125
33.583333	1	0.068000
33.600000	1	0.070500
33.616667	1	0.073000
33.633333	1	0.075875
33.650000	1	0.079375
33.666667	1	0.081875
33.683333	1	0.085250
33.700000	1	0.088500
33.716667	1	0.092000
33.733333	1	0.095500
33.750000	1	0.099125
33.766667	1	0.102500
33.783333	1	0.105625
33.800000	1	0.109750
33.816667	1	0.112750
33.833333	1	0.115875
33.850000	1	0.119375
33.866667	1	0.122375
33.883333	1	0.125625
33.900000	1	0.129000
33.916667	1	0.131625
33.933333	1	0.135000
33.950000	1	0.137875
33.966667	1	0.140625
33.983333	1	0.143000
34.000000	1	0.145250
34.016667	1	0.147625
34.033333	1	0.150375
34.050000	1	0.152375
34.066667	1	0.154125
34.083333	1	0.155125
34.100000	1	0.155875
34.116667	1	0.156875
34.133333	1	0.158125
34.150000	1	0.159875
34.166667	1	0.160875
34.183333	1	0.161250
34.200000	1	0.161750
34.216667	1	0.162625
34.233333	1	0.162875
34.250000	1	0.163875
34.266667	1	0.164125
34.283333	1	0.164375
34.300000	1	0.164250
34.316667	1	0.165250
34.333333	1	0.165625
34.350000	1	0.166125
34.366667	1	0.167000
34.383333	1	0.167625
34.400000	1	0.167625
34.416667	1	0.167625
34.433333	1	0.168000
34.450000	1	0.168500
34.466667	1	0.168750
34.483333	1	0.169500
34.500000	1	0.169750
34.516667	1	0.171250
34.533333	1	0.172625
34.550000	1	0.173875
34.566667	1	0.175250
34.583333	1	0.176500
34.600000	1	0.176500
34.616667	1	0.177500
34.633333	1	0.178125
34.650000	1	0.179375
34.666667	1	0.180125
34.683333	1	0.180875
34.700000	1	0.181875
34.716667	1	0.182250
34.733333	1	0.182875
34.750000	1	0.183625
34.766667	1	0.184625
34.783333	1	0.184750
34.800000	1	0.184750
34.816667	1	0.184500
34.833333	1	0.184500
34.850000	1	0.184625
34.866667	1	0.184000
34.883333	1	0.183250
34.900000	1	0.183000
34.916667	1	0.183125
34.933333	1	0.182625
34.950000	1	0.181750
34.966667	1	0.181125
34.983333	1	0.180875
35.000000	1	0.180750
35.016667	1	0.180125
35.033333	1	0.180000
35.050000	1	0.179500
35.066667	1	0.178875
35.083333	1	0.177625
35.100000	1	0.177000
35.116667	1	0.175625
35.133333	1	0.174625
35.150000	1	0.174625
35.166667	1	0.174125
35.183333	1	0.172750
35.200000	1	0.172000
35.216667	1	0.171000
35.233333	1	0.170000
35.250000	1	0.169375
35.266667	1	0.168375
35.283333	1	0.168000
35.300000	1	0.168500
35.316667	1	0.168375
35.333333	1	0.167500
35.350000	1	0.167750
35.366667	1	0.167750
35.383333	1	0.167750
35.400000	1	0.167500
35.416667	1	0.167250
35.433333	1	0.167250
35.450000	1	0.166875
35.466667	1	0.167000
35.483333	1	0.166375
35.500000	1	0.165500
35.516667	1	0.165750
35.533333	1	0.165750
35.550000	1	0.165625
35.566667	1	0.165875
35.583333	1	0.165625
35.600000	1	0.165250
35.616667	1	0.166000
35.633333	1	0.166625
35.650000	1	0.166500
35.666667	1	0.166750
35.683333	1	0.167125
35.700000	1	0.167375
35.716667	1	0.168125
35.733333	1	0.168250
35.750000	1	0.168375
35.766667	1	0.168625
35.783333	1	0.168500
35.800000	1	0.169875
35.816667	1	0.169875
35.833333	1	0.169750
35.850000	1	0.170250
35.866667	1	0.170625
35.883333	1	0.170500
35.900000	1	0.170500
35.916667	1	0.170625
35.933333	1	0.170625
35.950000	1	0.170625
35.966667	1	0.171125
35.983333	1	0.170750
36.000000	1	0.170750
36.016667	1	0.170500
36.033333	1	0.170375
36.050000	1	0.169625
36.066667	1	0.168625
36.083333	1	0.168000
36.100000	1	0.167250
36.116667	1	0.166375
36.133333	1	0.165625
36.150000	1	0.165250
36.166667	1	0.164375
36.183333	1	0.163375
36.200000	1	0.162250
36.216667	1	0.161500
36.233333	1	0.161125
36.250000	1	0.160875
36.266667	1	0.160125
36.283333	1	0.159375
36.300000	1	0.159375
36.316667	1	0.159625
36.333333	1	0.159375
36.350000	1	0.159125
36.366667	1	0.158750
36.383333	1	0.159125
36.400000	1	0.159000
36.416667	1	0.158000
36.433333	1	0.157625
36.450000	1	0.158000
36.466667	1	0.157875
36.483333	1	0.157500
36.500000	1	0.157375
36.516667	1	0.157250
36.533333	1	0.156375
36.550000	1	0.156125
36.566667	1	0.155125
36.583333	1	0.154500
36.600000	1	0.153875
36.616667	1	0.152250
36.633333	1	0.150875
36.650000	1	0.148750
36.666667	1	0.147250
36.683333	1	0.145875
36.700000	1	0.144500
36.716667	1	0.142750
36.733333	1	0.141750
36.750000	1	0.139750
36.766667	1	0.137625
36.783333	1	0.136000
36.800000	1	0.133500
36.816667	1	0.131125
36.833333	1	0.128875
36.850000	1	0.127625
36.866667	1	0.125625
36.883333	1	0.123500
36.900000	1	0.121750
36.916667	1	0.120250
36.933333	1	0.118125
36.950000	1	0.116250
36.966667	1	0.115500
36.983333	1	0.114125
37.000000	1	0.113500
37.016667	1	0.112375
37.033333	1	0.112250
37.050000	1	0.111750
37.066667	1	0.111500
37.083333	1	0.110750
37.100000	1	0.110750
37.116667	1	0.110500
37.133333	1	0.110375
37.150000	1	0.111625
37.166667	1	0.111750
37.183333	1	0.111875
37.200000	1	0.112000
37.216667	1	0.112125
37.233333	1	0.112250
37.250000	1	0.112750
37.266667	1	0.113375
37.283333	1	0.113875
37.300000	1	0.114375
37.316667	1	0.114500
37.333333	1	0.114875
37.350000	1	0.115875
37.366667	1	0.115750
37.383333	1	0.115875
37.400000	1	0.116000
37.416667	1	0.115625
37.433333	1	0.115625
37.450000	1	0.115750
37.466667	1	0.115000
37.483333	1	0.114875
37.500000	1	0.114500
37.516667	1	0.113750
37.533333	1	0.113125
37.550000	1	0.112000
37.566667	1	0.109875
37.583333	1	0.108500
37.600000	1	0.107250
37.616667	1	0.106250
37.633333	1	0.104750
37.650000	1	0.103250
37.666667	1	0.101750
37.683333	1	0.100750
37.700000	1	0.098875
37.716667	1	0.097250
37.733333	1	0.095375
37.750000	1	0.092500
37.766667	1	0.090000
37.783333	1	0.087750
37.800000	1	0.086750
37.816667	1	0.085375
37.833333	1	0.083875
37.850000	1	0.081750
37.866667	1	0.080125
37.883333	1	0.078625
37.900000	1	0.077875
37.916667	1	0.076500
37.933333	1	0.075375
37.950000	1	0.073625
37.966667	1	0.071875
37.983333	1	0.070750
38.000000	1	0.070375
38.016667	1	0.069250
38.033333	1	0.068875
38.050000	1	0.068750
38.066667	1	0.068875
38.083333	1	0.068625
38.100000	1	0.068375
38.116667	1	0.068000
38.133333	1	0.068250
38.150000	1	0.068000
38.166667	1	0.068625
38.183333	1	0.069000
38.200000	1	0.070000
38.216667	1	0.071000
38.233333	1	0.072125
38.250000	1	0.073250
38.266667	1	0.074125
38.283333	1	0.076000
38.300000	1	0.077500
38.316667	1	0.079250
38.333333	1	0.080625
38.350000	1	0.082125
38.366667	1	0.084375
38.383333	1	0.085125
38.400000	1	0.086875
38.416667	1	0.088375
38.433333	1	0.090375
38.450000	1	0.091750
38.466667	1	0.093000
38.483333	1	0.095125
38.500000	1	0.096500
38.516667	1	0.098500
38.533333	1	0.100000
38.550000	1	0.101500
38.566667	1	0.103250
38.583333	1	0.104000
38.600000	1	0.105625
38.616667	1	0.106125
38.633333	1	0.107000
38.650000	1	0.108000
38.666667	1	0.108750
38.683333	1	0.109750
38.700000	1	0.110875
38.716667	1	0.111625
38.733333	1	0.111500
38.750000	1	0.112125
38.766667	1	0.112500
38.783333	1	0.112500
38.800000	1	0.112875
38.816667	1	0.112250
38.833333	1	0.111625
38.850000	1	0.111625
38.866667	1	0.111500
38.883333	1	0.111500
38.900000	1	0.110000
38.916667	1	0.109250
38.933333	1	0.108250
38.950000	1	0.107500
38.966667	1	0.106750
38.983333	1	0.105375
39.000000	1	0.104125
39.016667	1	0.102625
39.033333	1	0.101250
39.050000	1	0.100000
39.066667	1	0.098625
39.083333	1	0.096500
39.100000	1	0.094250
39.116667	1	0.092625
39.133333	1	0.090250
39.150000	1	0.088250
39.166667	1	0.085875
39.183333	1	0.083625
39.200000	1	0.081750
39.216667	1	0.079125
39.233333	1	0.076750
39.250000	1	0.074125
39.266667	1	0.071875
39.283333	1	0.069250
39.300000	1	0.067125
39.316667	1	0.064750
39.333333	1	0.062375
39.350000	1	0.060125
39.366667	1	0.058000
39.383333	1	0.056500
39.400000	1	0.054750
39.416667	1	0.052875
39.433333	1	0.051000
39.450000	1	0.048750
39.466667	1	0.047500
39.483333	1	0.046625
39.500000	1	0.045875
39.516667	1	0.044375
39.533333	1	0.043250
39.550000	1	0.042250
39.566667	1	0.040375
39.583333	1	0.039500
39.600000	1	0.038375
39.616667	1	0.037125
39.633333	1	0.036250
39.650000	1	0.035625
39.666667	1	0.035250
39.683333	1	0.034875
39.700000	1	0.035000
39.716667	1	0.034125
39.733333	1	0.034250
39.750000	1	0.033375
39.766667	1	0.032750
39.783333	1	0.031750
39.800000	1	0.030625
39.816667	1	0.029625
39.833333	1	0.029250
39.850000	1	0.028625
39.866667	1	0.028250
39.883333	1	0.027375
39.900000	1	0.025875
39.916667	1	0.025000
39.933333	1	0.024500
39.950000	1	0.023250
39.966667	1	0.022500
39.983333	1	0.021750
40.000000	1	0.021375
