URL	chrom://bioreactor/micro_cm7/HPLC_Ultimate_3000/Users/markusar/20240708_MA_pHrange1.seq/450.smp/RI_1.channel/RI_1.chm
Channel	RI_1

Injection Information:
Data Vault	micro_cm7
Sequence	20240708_MA_pHrange1
Name	Pv2_5.7_3
Number	24
Position	BB12
Comment	
Processing Method	
Instrument Method	run_25B_method
Type	Unknown
Status	Finished
Inject Time	09.07.2024 07:16:51 +02:00
Volume (µl)	20.0000
Dilution Factor	1.0000
Weight	1.0000

Chromatogram Data Information:
Time Min. (min)	0.000000
Time Max. (min)	40.000000
Data Points	2401
Detector	RI
Generating Data System	Chromeleon 7.3.2.11814
Exporting Data System	Chromeleon 7.3.2.0
Operator	Instrument Controller
Signal Quantity	Refractive 
Signal Unit	µRIU
Signal Min.	-0.045250
Signal Max.	83.699750
Channel	RI_1
Driver Name	RID520Driver.dll
Channel Type	Evaluation
Min. Step (s)	1
Max. Step (s)	1
Average Step (s)	1

Signal Parameter Information:
Signal Info	

Chromatogram Data:
Time (min)	Step (s)	Value (µRIU)
0.000000	n.a.	0.005000
0.016667	1	0.005375
0.033333	1	0.006125
0.050000	1	0.006250
0.066667	1	0.007000
0.083333	1	0.007250
0.100000	1	0.007375
0.116667	1	0.007875
0.133333	1	0.008000
0.150000	1	0.008250
0.166667	1	0.008000
0.183333	1	0.008000
0.200000	1	0.008000
0.216667	1	0.007875
0.233333	1	0.008750
0.250000	1	0.008875
0.266667	1	0.009250
0.283333	1	0.009500
0.300000	1	0.009125
0.316667	1	0.008625
0.333333	1	0.008375
0.350000	1	0.007500
0.366667	1	0.006375
0.383333	1	0.005125
0.400000	1	0.004750
0.416667	1	0.004625
0.433333	1	0.005125
0.450000	1	0.006250
0.466667	1	0.007125
0.483333	1	0.008125
0.500000	1	0.007875
0.516667	1	0.007750
0.533333	1	0.007000
0.550000	1	0.005500
0.566667	1	0.003875
0.583333	1	0.001250
0.600000	1	-0.001875
0.616667	1	-0.004000
0.633333	1	-0.006250
0.650000	1	-0.008000
0.666667	1	-0.009625
0.683333	1	-0.010500
0.700000	1	-0.011875
0.716667	1	-0.013625
0.733333	1	-0.014375
0.750000	1	-0.015625
0.766667	1	-0.016500
0.783333	1	-0.017500
0.800000	1	-0.018875
0.816667	1	-0.019250
0.833333	1	-0.020000
0.850000	1	-0.021125
0.866667	1	-0.021125
0.883333	1	-0.021125
0.900000	1	-0.021750
0.916667	1	-0.022250
0.933333	1	-0.022625
0.950000	1	-0.022750
0.966667	1	-0.022875
0.983333	1	-0.022625
1.000000	1	-0.022750
1.016667	1	-0.022250
1.033333	1	-0.021500
1.050000	1	-0.020750
1.066667	1	-0.020000
1.083333	1	-0.018625
1.100000	1	-0.018000
1.116667	1	-0.016875
1.133333	1	-0.015875
1.150000	1	-0.014625
1.166667	1	-0.013750
1.183333	1	-0.012625
1.200000	1	-0.011000
1.216667	1	-0.008875
1.233333	1	-0.007750
1.250000	1	-0.006000
1.266667	1	-0.004125
1.283333	1	-0.002875
1.300000	1	-0.001625
1.316667	1	-0.000125
1.333333	1	0.001125
1.350000	1	0.003000
1.366667	1	0.004625
1.383333	1	0.005375
1.400000	1	0.006750
1.416667	1	0.008000
1.433333	1	0.009000
1.450000	1	0.009125
1.466667	1	0.009750
1.483333	1	0.010250
1.500000	1	0.011000
1.516667	1	0.011375
1.533333	1	0.011125
1.550000	1	0.010875
1.566667	1	0.011000
1.583333	1	0.011125
1.600000	1	0.011125
1.616667	1	0.011750
1.633333	1	0.011250
1.650000	1	0.010875
1.666667	1	0.011000
1.683333	1	0.009875
1.700000	1	0.009750
1.716667	1	0.009375
1.733333	1	0.008625
1.750000	1	0.008250
1.766667	1	0.007875
1.783333	1	0.007125
1.800000	1	0.006250
1.816667	1	0.005875
1.833333	1	0.004750
1.850000	1	0.003875
1.866667	1	0.003375
1.883333	1	0.002625
1.900000	1	0.001875
1.916667	1	0.002125
1.933333	1	0.001625
1.950000	1	0.000500
1.966667	1	-0.000375
1.983333	1	-0.001750
2.000000	1	-0.002500
2.016667	1	-0.003375
2.033333	1	-0.004250
2.050000	1	-0.004875
2.066667	1	-0.005750
2.083333	1	-0.006000
2.100000	1	-0.006750
2.116667	1	-0.007250
2.133333	1	-0.007750
2.150000	1	-0.008500
2.166667	1	-0.009375
2.183333	1	-0.009875
2.200000	1	-0.010125
2.216667	1	-0.010750
2.233333	1	-0.010750
2.250000	1	-0.011500
2.266667	1	-0.011250
2.283333	1	-0.011875
2.300000	1	-0.012500
2.316667	1	-0.012750
2.333333	1	-0.013000
2.350000	1	-0.013500
2.366667	1	-0.013875
2.383333	1	-0.013750
2.400000	1	-0.013625
2.416667	1	-0.013500
2.433333	1	-0.013625
2.450000	1	-0.013125
2.466667	1	-0.013250
2.483333	1	-0.013750
2.500000	1	-0.013750
2.516667	1	-0.013500
2.533333	1	-0.013750
2.550000	1	-0.013250
2.566667	1	-0.013375
2.583333	1	-0.014000
2.600000	1	-0.014625
2.616667	1	-0.015125
2.633333	1	-0.015500
2.650000	1	-0.016250
2.666667	1	-0.017375
2.683333	1	-0.018375
2.700000	1	-0.019375
2.716667	1	-0.020875
2.733333	1	-0.022750
2.750000	1	-0.024625
2.766667	1	-0.026000
2.783333	1	-0.027500
2.800000	1	-0.029000
2.816667	1	-0.030625
2.833333	1	-0.032625
2.850000	1	-0.034125
2.866667	1	-0.035500
2.883333	1	-0.036625
2.900000	1	-0.038125
2.916667	1	-0.039125
2.933333	1	-0.039875
2.950000	1	-0.041000
2.966667	1	-0.042125
2.983333	1	-0.042250
3.000000	1	-0.042250
3.016667	1	-0.042000
3.033333	1	-0.041875
3.050000	1	-0.041250
3.066667	1	-0.041875
3.083333	1	-0.041250
3.100000	1	-0.039875
3.116667	1	-0.038750
3.133333	1	-0.037375
3.150000	1	-0.036125
3.166667	1	-0.034125
3.183333	1	-0.031875
3.200000	1	-0.030375
3.216667	1	-0.028250
3.233333	1	-0.026125
3.250000	1	-0.024500
3.266667	1	-0.023000
3.283333	1	-0.020375
3.300000	1	-0.018875
3.316667	1	-0.016875
3.333333	1	-0.015750
3.350000	1	-0.014500
3.366667	1	-0.013125
3.383333	1	-0.011375
3.400000	1	-0.009250
3.416667	1	-0.008500
3.433333	1	-0.007375
3.450000	1	-0.006500
3.466667	1	-0.005250
3.483333	1	-0.004625
3.500000	1	-0.003625
3.516667	1	-0.003250
3.533333	1	-0.002625
3.550000	1	-0.002750
3.566667	1	-0.001750
3.583333	1	-0.001250
3.600000	1	-0.000875
3.616667	1	-0.000250
3.633333	1	0.000500
3.650000	1	0.000375
3.666667	1	0.001250
3.683333	1	0.001750
3.700000	1	0.001750
3.716667	1	0.002000
3.733333	1	0.002250
3.750000	1	0.002375
3.766667	1	0.002750
3.783333	1	0.003250
3.800000	1	0.003875
3.816667	1	0.004750
3.833333	1	0.004250
3.850000	1	0.004125
3.866667	1	0.004125
3.883333	1	0.004625
3.900000	1	0.004875
3.916667	1	0.004750
3.933333	1	0.004375
3.950000	1	0.004750
3.966667	1	0.004500
3.983333	1	0.004500
4.000000	1	0.004500
4.016667	1	0.004500
4.033333	1	0.004500
4.050000	1	0.004500
4.066667	1	0.004375
4.083333	1	0.003375
4.100000	1	0.004000
4.116667	1	0.004750
4.133333	1	0.004875
4.150000	1	0.004500
4.166667	1	0.004000
4.183333	1	0.004625
4.200000	1	0.005125
4.216667	1	0.005500
4.233333	1	0.006750
4.250000	1	0.007125
4.266667	1	0.007250
4.283333	1	0.008375
4.300000	1	0.008375
4.316667	1	0.008625
4.333333	1	0.009625
4.350000	1	0.010250
4.366667	1	0.010875
4.383333	1	0.012250
4.400000	1	0.013500
4.416667	1	0.014125
4.433333	1	0.015375
4.450000	1	0.016375
4.466667	1	0.017125
4.483333	1	0.017875
4.500000	1	0.019375
4.516667	1	0.021000
4.533333	1	0.022125
4.550000	1	0.023625
4.566667	1	0.026125
4.583333	1	0.027750
4.600000	1	0.030000
4.616667	1	0.031875
4.633333	1	0.033750
4.650000	1	0.036250
4.666667	1	0.038125
4.683333	1	0.040125
4.700000	1	0.042250
4.716667	1	0.044875
4.733333	1	0.046500
4.750000	1	0.049000
4.766667	1	0.051625
4.783333	1	0.054375
4.800000	1	0.057500
4.816667	1	0.060375
4.833333	1	0.063500
4.850000	1	0.066750
4.866667	1	0.069875
4.883333	1	0.073875
4.900000	1	0.077875
4.916667	1	0.082125
4.933333	1	0.086000
4.950000	1	0.090250
4.966667	1	0.094875
4.983333	1	0.099500
5.000000	1	0.104500
5.016667	1	0.109375
5.033333	1	0.114250
5.050000	1	0.119375
5.066667	1	0.124500
5.083333	1	0.129500
5.100000	1	0.134625
5.116667	1	0.139750
5.133333	1	0.145375
5.150000	1	0.150250
5.166667	1	0.155125
5.183333	1	0.160250
5.200000	1	0.165500
5.216667	1	0.170250
5.233333	1	0.175250
5.250000	1	0.180125
5.266667	1	0.184750
5.283333	1	0.189125
5.300000	1	0.193375
5.316667	1	0.198125
5.333333	1	0.201875
5.350000	1	0.205750
5.366667	1	0.209625
5.383333	1	0.213125
5.400000	1	0.216625
5.416667	1	0.220125
5.433333	1	0.223375
5.450000	1	0.225875
5.466667	1	0.227000
5.483333	1	0.229000
5.500000	1	0.230625
5.516667	1	0.231875
5.533333	1	0.233375
5.550000	1	0.234625
5.566667	1	0.235625
5.583333	1	0.235625
5.600000	1	0.236625
5.616667	1	0.237375
5.633333	1	0.237000
5.650000	1	0.236375
5.666667	1	0.235500
5.683333	1	0.234375
5.700000	1	0.233125
5.716667	1	0.231125
5.733333	1	0.229500
5.750000	1	0.227750
5.766667	1	0.225750
5.783333	1	0.223875
5.800000	1	0.221625
5.816667	1	0.219375
5.833333	1	0.216875
5.850000	1	0.214000
5.866667	1	0.211125
5.883333	1	0.207875
5.900000	1	0.205375
5.916667	1	0.202750
5.933333	1	0.199250
5.950000	1	0.196500
5.966667	1	0.194000
5.983333	1	0.190875
6.000000	1	0.188375
6.016667	1	0.185875
6.033333	1	0.182750
6.050000	1	0.180125
6.066667	1	0.177875
6.083333	1	0.175500
6.100000	1	0.172125
6.116667	1	0.169250
6.133333	1	0.166625
6.150000	1	0.164500
6.166667	1	0.162250
6.183333	1	0.158875
6.200000	1	0.155875
6.216667	1	0.152750
6.233333	1	0.150500
6.250000	1	0.147875
6.266667	1	0.145375
6.283333	1	0.142500
6.300000	1	0.140000
6.316667	1	0.137125
6.333333	1	0.135125
6.350000	1	0.132500
6.366667	1	0.130000
6.383333	1	0.127125
6.400000	1	0.124500
6.416667	1	0.122125
6.433333	1	0.119625
6.450000	1	0.116500
6.466667	1	0.113875
6.483333	1	0.111750
6.500000	1	0.108875
6.516667	1	0.106375
6.533333	1	0.104125
6.550000	1	0.101750
6.566667	1	0.099250
6.583333	1	0.096500
6.600000	1	0.094250
6.616667	1	0.091500
6.633333	1	0.089500
6.650000	1	0.087500
6.666667	1	0.085375
6.683333	1	0.083750
6.700000	1	0.082250
6.716667	1	0.079875
6.733333	1	0.077875
6.750000	1	0.076125
6.766667	1	0.073750
6.783333	1	0.072250
6.800000	1	0.071125
6.816667	1	0.069875
6.833333	1	0.069000
6.850000	1	0.068625
6.866667	1	0.067250
6.883333	1	0.066625
6.900000	1	0.065750
6.916667	1	0.064875
6.933333	1	0.064000
6.950000	1	0.063250
6.966667	1	0.063125
6.983333	1	0.063750
7.000000	1	0.063500
7.016667	1	0.063875
7.033333	1	0.064625
7.050000	1	0.065125
7.066667	1	0.065625
7.083333	1	0.066500
7.100000	1	0.068125
7.116667	1	0.068750
7.133333	1	0.069750
7.150000	1	0.070125
7.166667	1	0.071875
7.183333	1	0.074125
7.200000	1	0.075500
7.216667	1	0.077125
7.233333	1	0.078750
7.250000	1	0.079875
7.266667	1	0.081750
7.283333	1	0.083750
7.300000	1	0.085250
7.316667	1	0.087250
7.333333	1	0.089250
7.350000	1	0.090625
7.366667	1	0.092750
7.383333	1	0.094750
7.400000	1	0.096375
7.416667	1	0.097875
7.433333	1	0.099250
7.450000	1	0.099500
7.466667	1	0.100875
7.483333	1	0.101750
7.500000	1	0.102250
7.516667	1	0.102500
7.533333	1	0.102375
7.550000	1	0.102500
7.566667	1	0.102250
7.583333	1	0.101500
7.600000	1	0.100375
7.616667	1	0.099125
7.633333	1	0.097250
7.650000	1	0.095375
7.666667	1	0.093125
7.683333	1	0.090000
7.700000	1	0.087250
7.716667	1	0.084625
7.733333	1	0.082125
7.750000	1	0.078750
7.766667	1	0.076125
7.783333	1	0.072500
7.800000	1	0.068750
7.816667	1	0.065875
7.833333	1	0.062500
7.850000	1	0.058500
7.866667	1	0.055375
7.883333	1	0.052375
7.900000	1	0.048250
7.916667	1	0.044500
7.933333	1	0.040500
7.950000	1	0.037125
7.966667	1	0.034000
7.983333	1	0.029875
8.000000	1	0.026250
8.016667	1	0.023500
8.033333	1	0.019625
8.050000	1	0.015875
8.066667	1	0.012250
8.083333	1	0.008375
8.100000	1	0.005250
8.116667	1	0.002000
8.133333	1	-0.001125
8.150000	1	-0.004500
8.166667	1	-0.007250
8.183333	1	-0.010375
8.200000	1	-0.014625
8.216667	1	-0.017625
8.233333	1	-0.020875
8.250000	1	-0.023500
8.266667	1	-0.026500
8.283333	1	-0.029625
8.300000	1	-0.031875
8.316667	1	-0.034375
8.333333	1	-0.036125
8.350000	1	-0.038125
8.366667	1	-0.038875
8.383333	1	-0.039875
8.400000	1	-0.041250
8.416667	1	-0.042125
8.433333	1	-0.042875
8.450000	1	-0.043625
8.466667	1	-0.044625
8.483333	1	-0.045000
8.500000	1	-0.045250
8.516667	1	-0.044625
8.533333	1	-0.044375
8.550000	1	-0.043750
8.566667	1	-0.044000
8.583333	1	-0.043750
8.600000	1	-0.042875
8.616667	1	-0.041500
8.633333	1	-0.040375
8.650000	1	-0.039750
8.666667	1	-0.038875
8.683333	1	-0.037125
8.700000	1	-0.035875
8.716667	1	-0.034375
8.733333	1	-0.033750
8.750000	1	-0.032500
8.766667	1	-0.031000
8.783333	1	-0.029625
8.800000	1	-0.028375
8.816667	1	-0.027750
8.833333	1	-0.026500
8.850000	1	-0.025000
8.866667	1	-0.023875
8.883333	1	-0.023000
8.900000	1	-0.022125
8.916667	1	-0.020500
8.933333	1	-0.019500
8.950000	1	-0.017875
8.966667	1	-0.017250
8.983333	1	-0.016625
9.000000	1	-0.015375
9.016667	1	-0.014250
9.033333	1	-0.013500
9.050000	1	-0.012875
9.066667	1	-0.012375
9.083333	1	-0.011500
9.100000	1	-0.011000
9.116667	1	-0.009625
9.133333	1	-0.007875
9.150000	1	-0.007000
9.166667	1	-0.005750
9.183333	1	-0.004250
9.200000	1	-0.003625
9.216667	1	-0.003375
9.233333	1	-0.002125
9.250000	1	-0.001375
9.266667	1	-0.000375
9.283333	1	0.000625
9.300000	1	0.001500
9.316667	1	0.001750
9.333333	1	0.002375
9.350000	1	0.002750
9.366667	1	0.003000
9.383333	1	0.003125
9.400000	1	0.004125
9.416667	1	0.004125
9.433333	1	0.004250
9.450000	1	0.004500
9.466667	1	0.004750
9.483333	1	0.004875
9.500000	1	0.004500
9.516667	1	0.004125
9.533333	1	0.004250
9.550000	1	0.004500
9.566667	1	0.004125
9.583333	1	0.003750
9.600000	1	0.003500
9.616667	1	0.002500
9.633333	1	0.001000
9.650000	1	0.000250
9.666667	1	-0.000125
9.683333	1	-0.001625
9.700000	1	-0.001875
9.716667	1	-0.002125
9.733333	1	-0.003375
9.750000	1	-0.004875
9.766667	1	-0.005500
9.783333	1	-0.006250
9.800000	1	-0.007250
9.816667	1	-0.008625
9.833333	1	-0.010125
9.850000	1	-0.011875
9.866667	1	-0.013375
9.883333	1	-0.015000
9.900000	1	-0.016250
9.916667	1	-0.017500
9.933333	1	-0.018375
9.950000	1	-0.019375
9.966667	1	-0.020625
9.983333	1	-0.021000
10.000000	1	-0.020500
10.016667	1	-0.020750
10.033333	1	-0.020000
10.050000	1	-0.019000
10.066667	1	-0.016625
10.083333	1	-0.013875
10.100000	1	-0.010625
10.116667	1	-0.005875
10.133333	1	-0.000375
10.150000	1	0.006250
10.166667	1	0.013375
10.183333	1	0.021875
10.200000	1	0.031875
10.216667	1	0.043375
10.233333	1	0.055375
10.250000	1	0.069875
10.266667	1	0.086000
10.283333	1	0.105250
10.300000	1	0.125875
10.316667	1	0.149500
10.333333	1	0.175375
10.350000	1	0.203500
10.366667	1	0.232375
10.383333	1	0.260375
10.400000	1	0.284000
10.416667	1	0.301750
10.433333	1	0.309000
10.450000	1	0.303875
10.466667	1	0.282750
10.483333	1	0.249750
10.500000	1	0.213875
10.516667	1	0.193375
10.533333	1	0.223375
10.550000	1	0.355375
10.566667	1	0.651875
10.583333	1	1.186625
10.600000	1	2.034625
10.616667	1	3.263500
10.633333	1	4.927125
10.650000	1	7.062750
10.666667	1	9.691375
10.683333	1	12.815250
10.700000	1	16.420625
10.716667	1	20.468375
10.733333	1	24.894125
10.750000	1	29.596625
10.766667	1	34.420750
10.783333	1	39.151375
10.800000	1	43.490750
10.816667	1	47.063500
10.833333	1	49.457375
10.850000	1	50.311250
10.866667	1	49.421375
10.883333	1	46.824875
10.900000	1	42.819625
10.916667	1	37.889625
10.933333	1	32.569250
10.950000	1	27.324750
10.966667	1	22.482750
10.983333	1	18.226875
11.000000	1	14.622125
11.016667	1	11.657750
11.033333	1	9.274125
11.050000	1	7.394125
11.066667	1	5.930625
11.083333	1	4.802375
11.100000	1	3.938250
11.116667	1	3.278875
11.133333	1	2.774875
11.150000	1	2.388125
11.166667	1	2.090375
11.183333	1	1.858750
11.200000	1	1.676625
11.216667	1	1.531125
11.233333	1	1.414000
11.250000	1	1.318375
11.266667	1	1.240250
11.283333	1	1.173750
11.300000	1	1.117500
11.316667	1	1.069375
11.333333	1	1.028500
11.350000	1	0.993125
11.366667	1	0.962625
11.383333	1	0.936250
11.400000	1	0.912375
11.416667	1	0.891875
11.433333	1	0.874000
11.450000	1	0.859375
11.466667	1	0.846000
11.483333	1	0.835000
11.500000	1	0.824875
11.516667	1	0.816500
11.533333	1	0.809875
11.550000	1	0.804875
11.566667	1	0.801125
11.583333	1	0.798000
11.600000	1	0.796125
11.616667	1	0.795125
11.633333	1	0.795750
11.650000	1	0.797500
11.666667	1	0.800250
11.683333	1	0.804375
11.700000	1	0.809875
11.716667	1	0.816875
11.733333	1	0.824500
11.750000	1	0.833875
11.766667	1	0.843750
11.783333	1	0.853625
11.800000	1	0.863375
11.816667	1	0.873750
11.833333	1	0.884250
11.850000	1	0.894250
11.866667	1	0.903500
11.883333	1	0.911125
11.900000	1	0.918000
11.916667	1	0.923750
11.933333	1	0.929625
11.950000	1	0.934875
11.966667	1	0.939375
11.983333	1	0.943500
12.000000	1	0.947000
12.016667	1	0.950625
12.033333	1	0.954875
12.050000	1	0.958875
12.066667	1	0.963250
12.083333	1	0.967875
12.100000	1	0.972625
12.116667	1	0.978000
12.133333	1	0.983250
12.150000	1	0.989375
12.166667	1	0.996500
12.183333	1	1.003875
12.200000	1	1.013750
12.216667	1	1.024875
12.233333	1	1.038125
12.250000	1	1.054375
12.266667	1	1.075125
12.283333	1	1.102250
12.300000	1	1.136625
12.316667	1	1.180250
12.333333	1	1.236625
12.350000	1	1.308500
12.366667	1	1.399500
12.383333	1	1.515750
12.400000	1	1.658875
12.416667	1	1.835250
12.433333	1	2.049000
12.450000	1	2.305875
12.466667	1	2.609250
12.483333	1	2.964250
12.500000	1	3.373875
12.516667	1	3.841875
12.533333	1	4.367125
12.550000	1	4.949250
12.566667	1	5.584125
12.583333	1	6.263750
12.600000	1	6.978000
12.616667	1	7.712500
12.633333	1	8.454875
12.650000	1	9.190125
12.666667	1	9.904375
12.683333	1	10.587875
12.700000	1	11.233125
12.716667	1	11.835500
12.733333	1	12.398125
12.750000	1	12.925375
12.766667	1	13.427625
12.783333	1	13.913125
12.800000	1	14.394750
12.816667	1	14.880625
12.833333	1	15.381125
12.850000	1	15.903750
12.866667	1	16.454875
12.883333	1	17.036875
12.900000	1	17.651500
12.916667	1	18.298875
12.933333	1	18.979000
12.950000	1	19.689500
12.966667	1	20.429000
12.983333	1	21.196375
13.000000	1	21.987750
13.016667	1	22.803000
13.033333	1	23.641125
13.050000	1	24.501000
13.066667	1	25.382875
13.083333	1	26.286875
13.100000	1	27.211250
13.116667	1	28.155125
13.133333	1	29.118250
13.150000	1	30.099750
13.166667	1	31.101625
13.183333	1	32.122375
13.200000	1	33.161000
13.216667	1	34.217125
13.233333	1	35.294000
13.250000	1	36.390125
13.266667	1	37.508625
13.283333	1	38.648750
13.300000	1	39.811250
13.316667	1	40.995125
13.333333	1	42.202250
13.350000	1	43.432375
13.366667	1	44.686375
13.383333	1	45.964500
13.400000	1	47.266125
13.416667	1	48.592125
13.433333	1	49.944375
13.450000	1	51.324250
13.466667	1	52.733875
13.483333	1	54.173125
13.500000	1	55.643375
13.516667	1	57.143375
13.533333	1	58.673125
13.550000	1	60.233500
13.566667	1	61.825125
13.583333	1	63.449250
13.600000	1	65.104125
13.616667	1	66.791625
13.633333	1	68.513875
13.650000	1	70.275250
13.666667	1	72.073625
13.683333	1	73.912375
13.700000	1	75.789000
13.716667	1	77.695375
13.733333	1	79.593250
13.750000	1	81.378250
13.766667	1	82.845000
13.783333	1	83.699750
13.800000	1	83.607750
13.816667	1	82.251250
13.833333	1	79.345625
13.850000	1	74.692250
13.866667	1	68.284125
13.883333	1	60.434875
13.900000	1	51.781250
13.916667	1	43.113000
13.933333	1	35.111500
13.950000	1	28.187375
13.966667	1	22.473250
13.983333	1	17.904875
14.000000	1	14.327875
14.016667	1	11.564625
14.033333	1	9.456125
14.050000	1	7.867125
14.066667	1	6.683000
14.083333	1	5.807625
14.100000	1	5.161375
14.116667	1	4.682250
14.133333	1	4.323625
14.150000	1	4.050625
14.166667	1	3.838125
14.183333	1	3.669125
14.200000	1	3.532500
14.216667	1	3.417875
14.233333	1	3.320375
14.250000	1	3.236500
14.266667	1	3.162125
14.283333	1	3.095250
14.300000	1	3.035250
14.316667	1	2.981250
14.333333	1	2.932500
14.350000	1	2.889125
14.366667	1	2.851500
14.383333	1	2.820250
14.400000	1	2.795625
14.416667	1	2.779125
14.433333	1	2.775625
14.450000	1	2.786125
14.466667	1	2.816500
14.483333	1	2.873750
14.500000	1	2.969000
14.516667	1	3.117000
14.533333	1	3.337750
14.550000	1	3.659375
14.566667	1	4.116875
14.583333	1	4.758375
14.600000	1	5.637250
14.616667	1	6.822250
14.633333	1	8.389875
14.650000	1	10.419625
14.666667	1	12.987375
14.683333	1	16.159625
14.700000	1	19.974875
14.716667	1	24.437000
14.733333	1	29.511750
14.750000	1	35.111500
14.766667	1	41.091375
14.783333	1	47.249875
14.800000	1	53.347500
14.816667	1	59.120250
14.833333	1	64.293000
14.850000	1	68.598125
14.866667	1	71.809250
14.883333	1	73.761500
14.900000	1	74.361500
14.916667	1	73.604500
14.933333	1	71.567625
14.950000	1	68.403125
14.966667	1	64.315250
14.983333	1	59.547125
15.000000	1	54.342125
15.016667	1	48.933750
15.033333	1	43.527750
15.050000	1	38.296250
15.066667	1	33.371500
15.083333	1	28.846250
15.100000	1	24.772625
15.116667	1	21.169875
15.133333	1	18.031125
15.150000	1	15.329375
15.166667	1	13.030000
15.183333	1	11.090625
15.200000	1	9.465000
15.216667	1	8.110750
15.233333	1	6.987625
15.250000	1	6.061000
15.266667	1	5.300625
15.283333	1	4.678750
15.300000	1	4.173750
15.316667	1	3.766000
15.333333	1	3.439125
15.350000	1	3.180375
15.366667	1	2.977500
15.383333	1	2.821375
15.400000	1	2.703875
15.416667	1	2.616625
15.433333	1	2.553500
15.450000	1	2.508375
15.466667	1	2.476500
15.483333	1	2.451875
15.500000	1	2.432000
15.516667	1	2.412250
15.533333	1	2.390125
15.550000	1	2.365250
15.566667	1	2.335250
15.583333	1	2.302375
15.600000	1	2.265000
15.616667	1	2.226125
15.633333	1	2.186125
15.650000	1	2.145750
15.666667	1	2.106500
15.683333	1	2.068750
15.700000	1	2.032625
15.716667	1	1.999875
15.733333	1	1.968500
15.750000	1	1.938000
15.766667	1	1.908625
15.783333	1	1.880000
15.800000	1	1.850375
15.816667	1	1.821625
15.833333	1	1.792375
15.850000	1	1.762875
15.866667	1	1.734000
15.883333	1	1.705875
15.900000	1	1.679375
15.916667	1	1.655750
15.933333	1	1.635625
15.950000	1	1.618125
15.966667	1	1.603375
15.983333	1	1.592250
16.000000	1	1.584250
16.016667	1	1.578500
16.033333	1	1.574625
16.050000	1	1.573125
16.066667	1	1.571125
16.083333	1	1.569750
16.100000	1	1.567875
16.116667	1	1.564250
16.133333	1	1.558875
16.150000	1	1.550750
16.166667	1	1.541625
16.183333	1	1.530750
16.200000	1	1.518000
16.216667	1	1.503500
16.233333	1	1.487375
16.250000	1	1.470250
16.266667	1	1.453125
16.283333	1	1.434750
16.300000	1	1.416125
16.316667	1	1.396875
16.333333	1	1.378125
16.350000	1	1.360000
16.366667	1	1.342125
16.383333	1	1.327000
16.400000	1	1.312250
16.416667	1	1.299250
16.433333	1	1.288250
16.450000	1	1.279500
16.466667	1	1.273875
16.483333	1	1.270625
16.500000	1	1.269750
16.516667	1	1.270250
16.533333	1	1.273000
16.550000	1	1.277000
16.566667	1	1.281625
16.583333	1	1.285875
16.600000	1	1.290000
16.616667	1	1.292125
16.633333	1	1.293500
16.650000	1	1.293500
16.666667	1	1.292625
16.683333	1	1.288750
16.700000	1	1.285000
16.716667	1	1.280250
16.733333	1	1.275375
16.750000	1	1.271375
16.766667	1	1.267875
16.783333	1	1.265125
16.800000	1	1.263250
16.816667	1	1.262750
16.833333	1	1.264000
16.850000	1	1.265625
16.866667	1	1.267000
16.883333	1	1.268250
16.900000	1	1.268125
16.916667	1	1.268250
16.933333	1	1.267500
16.950000	1	1.264875
16.966667	1	1.261625
16.983333	1	1.258125
17.000000	1	1.252375
17.016667	1	1.246500
17.033333	1	1.239250
17.050000	1	1.231000
17.066667	1	1.223125
17.083333	1	1.215875
17.100000	1	1.208625
17.116667	1	1.202875
17.133333	1	1.197625
17.150000	1	1.194000
17.166667	1	1.191500
17.183333	1	1.189875
17.200000	1	1.188750
17.216667	1	1.188875
17.233333	1	1.190375
17.250000	1	1.192000
17.266667	1	1.194750
17.283333	1	1.197750
17.300000	1	1.202000
17.316667	1	1.206250
17.333333	1	1.210375
17.350000	1	1.215125
17.366667	1	1.220625
17.383333	1	1.225750
17.400000	1	1.230875
17.416667	1	1.235000
17.433333	1	1.238875
17.450000	1	1.241375
17.466667	1	1.242250
17.483333	1	1.242125
17.500000	1	1.240250
17.516667	1	1.236875
17.533333	1	1.231625
17.550000	1	1.223875
17.566667	1	1.215375
17.583333	1	1.205000
17.600000	1	1.192875
17.616667	1	1.179750
17.633333	1	1.165500
17.650000	1	1.150250
17.666667	1	1.133500
17.683333	1	1.117750
17.700000	1	1.102375
17.716667	1	1.085250
17.733333	1	1.068250
17.750000	1	1.052625
17.766667	1	1.037375
17.783333	1	1.023125
17.800000	1	1.008500
17.816667	1	0.995375
17.833333	1	0.982250
17.850000	1	0.969875
17.866667	1	0.958625
17.883333	1	0.947375
17.900000	1	0.937125
17.916667	1	0.926875
17.933333	1	0.917625
17.950000	1	0.908500
17.966667	1	0.900375
17.983333	1	0.892250
18.000000	1	0.884125
18.016667	1	0.876250
18.033333	1	0.868375
18.050000	1	0.859750
18.066667	1	0.851875
18.083333	1	0.843750
18.100000	1	0.836000
18.116667	1	0.829500
18.133333	1	0.822875
18.150000	1	0.816500
18.166667	1	0.811500
18.183333	1	0.807375
18.200000	1	0.805500
18.216667	1	0.803875
18.233333	1	0.802375
18.250000	1	0.801375
18.266667	1	0.801750
18.283333	1	0.802375
18.300000	1	0.803250
18.316667	1	0.804125
18.333333	1	0.805750
18.350000	1	0.807625
18.366667	1	0.810375
18.383333	1	0.813875
18.400000	1	0.817750
18.416667	1	0.822625
18.433333	1	0.828125
18.450000	1	0.834500
18.466667	1	0.842375
18.483333	1	0.852375
18.500000	1	0.863250
18.516667	1	0.876375
18.533333	1	0.890875
18.550000	1	0.907875
18.566667	1	0.926875
18.583333	1	0.947000
18.600000	1	0.969000
18.616667	1	0.993750
18.633333	1	1.019875
18.650000	1	1.047875
18.666667	1	1.077500
18.683333	1	1.109125
18.700000	1	1.141875
18.716667	1	1.174875
18.733333	1	1.210125
18.750000	1	1.245875
18.766667	1	1.282500
18.783333	1	1.319000
18.800000	1	1.355250
18.816667	1	1.390125
18.833333	1	1.423500
18.850000	1	1.453750
18.866667	1	1.480375
18.883333	1	1.502875
18.900000	1	1.520375
18.916667	1	1.533250
18.933333	1	1.538500
18.950000	1	1.537750
18.966667	1	1.530250
18.983333	1	1.515125
19.000000	1	1.493500
19.016667	1	1.464875
19.033333	1	1.431000
19.050000	1	1.392875
19.066667	1	1.350750
19.083333	1	1.306875
19.100000	1	1.262375
19.116667	1	1.219625
19.133333	1	1.178750
19.150000	1	1.142750
19.166667	1	1.111625
19.183333	1	1.089125
19.200000	1	1.077250
19.216667	1	1.077000
19.233333	1	1.090750
19.250000	1	1.120750
19.266667	1	1.168000
19.283333	1	1.234750
19.300000	1	1.322250
19.316667	1	1.431500
19.333333	1	1.562625
19.350000	1	1.715250
19.366667	1	1.889000
19.383333	1	2.080750
19.400000	1	2.287250
19.416667	1	2.504000
19.433333	1	2.725500
19.450000	1	2.944875
19.466667	1	3.156250
19.483333	1	3.352875
19.500000	1	3.527750
19.516667	1	3.674250
19.533333	1	3.788375
19.550000	1	3.866125
19.566667	1	3.905000
19.583333	1	3.904250
19.600000	1	3.865125
19.616667	1	3.789375
19.633333	1	3.681000
19.650000	1	3.544500
19.666667	1	3.384375
19.683333	1	3.208000
19.700000	1	3.019375
19.716667	1	2.824875
19.733333	1	2.629250
19.750000	1	2.435875
19.766667	1	2.248625
19.783333	1	2.069000
19.800000	1	1.900125
19.816667	1	1.742500
19.833333	1	1.598000
19.850000	1	1.466375
19.866667	1	1.346375
19.883333	1	1.238750
19.900000	1	1.142375
19.916667	1	1.056625
19.933333	1	0.980375
19.950000	1	0.913250
19.966667	1	0.854750
19.983333	1	0.804250
20.000000	1	0.760875
20.016667	1	0.724375
20.033333	1	0.694500
20.050000	1	0.670750
20.066667	1	0.652000
20.083333	1	0.638000
20.100000	1	0.629875
20.116667	1	0.626000
20.133333	1	0.626500
20.150000	1	0.630375
20.166667	1	0.638250
20.183333	1	0.647875
20.200000	1	0.660000
20.216667	1	0.673125
20.233333	1	0.687125
20.250000	1	0.701125
20.266667	1	0.714000
20.283333	1	0.724750
20.300000	1	0.734375
20.316667	1	0.740750
20.333333	1	0.742875
20.350000	1	0.743125
20.366667	1	0.738625
20.383333	1	0.731250
20.400000	1	0.721250
20.416667	1	0.708250
20.433333	1	0.693500
20.450000	1	0.677750
20.466667	1	0.661500
20.483333	1	0.646250
20.500000	1	0.632375
20.516667	1	0.621125
20.533333	1	0.613000
20.550000	1	0.608750
20.566667	1	0.609625
20.583333	1	0.617000
20.600000	1	0.631125
20.616667	1	0.653125
20.633333	1	0.683000
20.650000	1	0.720750
20.666667	1	0.767875
20.683333	1	0.822875
20.700000	1	0.887000
20.716667	1	0.957875
20.733333	1	1.035000
20.750000	1	1.115625
20.766667	1	1.200125
20.783333	1	1.284500
20.800000	1	1.366375
20.816667	1	1.443625
20.833333	1	1.513000
20.850000	1	1.572500
20.866667	1	1.620125
20.883333	1	1.654375
20.900000	1	1.673625
20.916667	1	1.678875
20.933333	1	1.668000
20.950000	1	1.643125
20.966667	1	1.605125
20.983333	1	1.555125
21.000000	1	1.496125
21.016667	1	1.429375
21.033333	1	1.357375
21.050000	1	1.282500
21.066667	1	1.206500
21.083333	1	1.131500
21.100000	1	1.058375
21.116667	1	0.988625
21.133333	1	0.922875
21.150000	1	0.862875
21.166667	1	0.807125
21.183333	1	0.756625
21.200000	1	0.711125
21.216667	1	0.669875
21.233333	1	0.632875
21.250000	1	0.601625
21.266667	1	0.573750
21.283333	1	0.550500
21.300000	1	0.530250
21.316667	1	0.512375
21.333333	1	0.496500
21.350000	1	0.482750
21.366667	1	0.471500
21.383333	1	0.462250
21.400000	1	0.453375
21.416667	1	0.446750
21.433333	1	0.440875
21.450000	1	0.435500
21.466667	1	0.431500
21.483333	1	0.428375
21.500000	1	0.425000
21.516667	1	0.423125
21.533333	1	0.421750
21.550000	1	0.421500
21.566667	1	0.421000
21.583333	1	0.421750
21.600000	1	0.424000
21.616667	1	0.427000
21.633333	1	0.430875
21.650000	1	0.436500
21.666667	1	0.442750
21.683333	1	0.450750
21.700000	1	0.459625
21.716667	1	0.469750
21.733333	1	0.482125
21.750000	1	0.495250
21.766667	1	0.509875
21.783333	1	0.525250
21.800000	1	0.542000
21.816667	1	0.559625
21.833333	1	0.577250
21.850000	1	0.595500
21.866667	1	0.613250
21.883333	1	0.631375
21.900000	1	0.648375
21.916667	1	0.664375
21.933333	1	0.678750
21.950000	1	0.692000
21.966667	1	0.703375
21.983333	1	0.713500
22.000000	1	0.720875
22.016667	1	0.726625
22.033333	1	0.730625
22.050000	1	0.732125
22.066667	1	0.732125
22.083333	1	0.729625
22.100000	1	0.726000
22.116667	1	0.722000
22.133333	1	0.716125
22.150000	1	0.708750
22.166667	1	0.699500
22.183333	1	0.690000
22.200000	1	0.679500
22.216667	1	0.667875
22.233333	1	0.655625
22.250000	1	0.642125
22.266667	1	0.628375
22.283333	1	0.613875
22.300000	1	0.598625
22.316667	1	0.582875
22.333333	1	0.567625
22.350000	1	0.551625
22.366667	1	0.536125
22.383333	1	0.520500
22.400000	1	0.504625
22.416667	1	0.490000
22.433333	1	0.475625
22.450000	1	0.461875
22.466667	1	0.448625
22.483333	1	0.436500
22.500000	1	0.425125
22.516667	1	0.414750
22.533333	1	0.404875
22.550000	1	0.395500
22.566667	1	0.386750
22.583333	1	0.378750
22.600000	1	0.372000
22.616667	1	0.366125
22.633333	1	0.360250
22.650000	1	0.354500
22.666667	1	0.348750
22.683333	1	0.344000
22.700000	1	0.339250
22.716667	1	0.335250
22.733333	1	0.331250
22.750000	1	0.327625
22.766667	1	0.323500
22.783333	1	0.319750
22.800000	1	0.316625
22.816667	1	0.313250
22.833333	1	0.310000
22.850000	1	0.306875
22.866667	1	0.304000
22.883333	1	0.301750
22.900000	1	0.300000
22.916667	1	0.298500
22.933333	1	0.297625
22.950000	1	0.296875
22.966667	1	0.296625
22.983333	1	0.296000
23.000000	1	0.296500
23.016667	1	0.296875
23.033333	1	0.298000
23.050000	1	0.299250
23.066667	1	0.300375
23.083333	1	0.302875
23.100000	1	0.304875
23.116667	1	0.307750
23.133333	1	0.310375
23.150000	1	0.313125
23.166667	1	0.315375
23.183333	1	0.318375
23.200000	1	0.320500
23.216667	1	0.323750
23.233333	1	0.326875
23.250000	1	0.330250
23.266667	1	0.334875
23.283333	1	0.340625
23.300000	1	0.347250
23.316667	1	0.355875
23.333333	1	0.367125
23.350000	1	0.381250
23.366667	1	0.400000
23.383333	1	0.423500
23.400000	1	0.454125
23.416667	1	0.491500
23.433333	1	0.537625
23.450000	1	0.594375
23.466667	1	0.663125
23.483333	1	0.746625
23.500000	1	0.846375
23.516667	1	0.964500
23.533333	1	1.102125
23.550000	1	1.261500
23.566667	1	1.444125
23.583333	1	1.650000
23.600000	1	1.880375
23.616667	1	2.133750
23.633333	1	2.409750
23.650000	1	2.704750
23.666667	1	3.015375
23.683333	1	3.338750
23.700000	1	3.668875
23.716667	1	4.002000
23.733333	1	4.329625
23.750000	1	4.644625
23.766667	1	4.940500
23.783333	1	5.210125
23.800000	1	5.446875
23.816667	1	5.645375
23.833333	1	5.800500
23.850000	1	5.908375
23.866667	1	5.968750
23.883333	1	5.980250
23.900000	1	5.943125
23.916667	1	5.859500
23.933333	1	5.732000
23.950000	1	5.565125
23.966667	1	5.364375
23.983333	1	5.135000
24.000000	1	4.883250
24.016667	1	4.615250
24.033333	1	4.337250
24.050000	1	4.053875
24.066667	1	3.770750
24.083333	1	3.491875
24.100000	1	3.219750
24.116667	1	2.958375
24.133333	1	2.708750
24.150000	1	2.474625
24.166667	1	2.256000
24.183333	1	2.053250
24.200000	1	1.865500
24.216667	1	1.694875
24.233333	1	1.539375
24.250000	1	1.398125
24.266667	1	1.271125
24.283333	1	1.157500
24.300000	1	1.055625
24.316667	1	0.966000
24.333333	1	0.887875
24.350000	1	0.817500
24.366667	1	0.756375
24.383333	1	0.703750
24.400000	1	0.658000
24.416667	1	0.619250
24.433333	1	0.586000
24.450000	1	0.557625
24.466667	1	0.534500
24.483333	1	0.514750
24.500000	1	0.499000
24.516667	1	0.485500
24.533333	1	0.473875
24.550000	1	0.465125
24.566667	1	0.457250
24.583333	1	0.450625
24.600000	1	0.444250
24.616667	1	0.438750
24.633333	1	0.433375
24.650000	1	0.428500
24.666667	1	0.423750
24.683333	1	0.417875
24.700000	1	0.412250
24.716667	1	0.406125
24.733333	1	0.400375
24.750000	1	0.394625
24.766667	1	0.388125
24.783333	1	0.381375
24.800000	1	0.374625
24.816667	1	0.368125
24.833333	1	0.361875
24.850000	1	0.355375
24.866667	1	0.349500
24.883333	1	0.343125
24.900000	1	0.337750
24.916667	1	0.332375
24.933333	1	0.326750
24.950000	1	0.321250
24.966667	1	0.315625
24.983333	1	0.310125
25.000000	1	0.306250
25.016667	1	0.301875
25.033333	1	0.298250
25.050000	1	0.295250
25.066667	1	0.291125
25.083333	1	0.288250
25.100000	1	0.285875
25.116667	1	0.283125
25.133333	1	0.280125
25.150000	1	0.277125
25.166667	1	0.274250
25.183333	1	0.272000
25.200000	1	0.270250
25.216667	1	0.267500
25.233333	1	0.264750
25.250000	1	0.262875
25.266667	1	0.260625
25.283333	1	0.258750
25.300000	1	0.257000
25.316667	1	0.255250
25.333333	1	0.253625
25.350000	1	0.251875
25.366667	1	0.250750
25.383333	1	0.250250
25.400000	1	0.249625
25.416667	1	0.248875
25.433333	1	0.248500
25.450000	1	0.248625
25.466667	1	0.249500
25.483333	1	0.250250
25.500000	1	0.250875
25.516667	1	0.251875
25.533333	1	0.252625
25.550000	1	0.253500
25.566667	1	0.255000
25.583333	1	0.256500
25.600000	1	0.257750
25.616667	1	0.258750
25.633333	1	0.260250
25.650000	1	0.261625
25.666667	1	0.262875
25.683333	1	0.263750
25.700000	1	0.264875
25.716667	1	0.264875
25.733333	1	0.265375
25.750000	1	0.266500
25.766667	1	0.267375
25.783333	1	0.268250
25.800000	1	0.269625
25.816667	1	0.270875
25.833333	1	0.271000
25.850000	1	0.271625
25.866667	1	0.272625
25.883333	1	0.273750
25.900000	1	0.275125
25.916667	1	0.275500
25.933333	1	0.277500
25.950000	1	0.280500
25.966667	1	0.283125
25.983333	1	0.285875
26.000000	1	0.288250
26.016667	1	0.292125
26.033333	1	0.296125
26.050000	1	0.300875
26.066667	1	0.306000
26.083333	1	0.311125
26.100000	1	0.315875
26.116667	1	0.321625
26.133333	1	0.327125
26.150000	1	0.331875
26.166667	1	0.337125
26.183333	1	0.341750
26.200000	1	0.346500
26.216667	1	0.350625
26.233333	1	0.354500
26.250000	1	0.358750
26.266667	1	0.362625
26.283333	1	0.366375
26.300000	1	0.368875
26.316667	1	0.369875
26.333333	1	0.370125
26.350000	1	0.369625
26.366667	1	0.368750
26.383333	1	0.366875
26.400000	1	0.364250
26.416667	1	0.361625
26.433333	1	0.358000
26.450000	1	0.353750
26.466667	1	0.349250
26.483333	1	0.344875
26.500000	1	0.339625
26.516667	1	0.333375
26.533333	1	0.326625
26.550000	1	0.319875
26.566667	1	0.312625
26.583333	1	0.306375
26.600000	1	0.299250
26.616667	1	0.292250
26.633333	1	0.285500
26.650000	1	0.279000
26.666667	1	0.272625
26.683333	1	0.266625
26.700000	1	0.260125
26.716667	1	0.254375
26.733333	1	0.249500
26.750000	1	0.244500
26.766667	1	0.239500
26.783333	1	0.234875
26.800000	1	0.230750
26.816667	1	0.227375
26.833333	1	0.224250
26.850000	1	0.222000
26.866667	1	0.219500
26.883333	1	0.218625
26.900000	1	0.217000
26.916667	1	0.215750
26.933333	1	0.215250
26.950000	1	0.214625
26.966667	1	0.215375
26.983333	1	0.216500
27.000000	1	0.217875
27.016667	1	0.219625
27.033333	1	0.221875
27.050000	1	0.225000
27.066667	1	0.228125
27.083333	1	0.232250
27.100000	1	0.237500
27.116667	1	0.243750
27.133333	1	0.250750
27.150000	1	0.258750
27.166667	1	0.267750
27.183333	1	0.278125
27.200000	1	0.291750
27.216667	1	0.306875
27.233333	1	0.324125
27.250000	1	0.344000
27.266667	1	0.367875
27.283333	1	0.395250
27.300000	1	0.426500
27.316667	1	0.464000
27.333333	1	0.505875
27.350000	1	0.554375
27.366667	1	0.610000
27.383333	1	0.674250
27.400000	1	0.746250
27.416667	1	0.828000
27.433333	1	0.920000
27.450000	1	1.023250
27.466667	1	1.138250
27.483333	1	1.266375
27.500000	1	1.406250
27.516667	1	1.558875
27.533333	1	1.723750
27.550000	1	1.900625
27.566667	1	2.087875
27.583333	1	2.285125
27.600000	1	2.490625
27.616667	1	2.702625
27.633333	1	2.920000
27.650000	1	3.138875
27.666667	1	3.357625
27.683333	1	3.572250
27.700000	1	3.779875
27.716667	1	3.976500
27.733333	1	4.160000
27.750000	1	4.325375
27.766667	1	4.471375
27.783333	1	4.592875
27.800000	1	4.690625
27.816667	1	4.762375
27.833333	1	4.804625
27.850000	1	4.817500
27.866667	1	4.800750
27.883333	1	4.754750
27.900000	1	4.679875
27.916667	1	4.578250
27.933333	1	4.451625
27.950000	1	4.301375
27.966667	1	4.134000
27.983333	1	3.950375
28.000000	1	3.754875
28.016667	1	3.549875
28.033333	1	3.338000
28.050000	1	3.124125
28.066667	1	2.909125
28.083333	1	2.697375
28.100000	1	2.490875
28.116667	1	2.291875
28.133333	1	2.101000
28.150000	1	1.920375
28.166667	1	1.751250
28.183333	1	1.593375
28.200000	1	1.446875
28.216667	1	1.312375
28.233333	1	1.190000
28.250000	1	1.077875
28.266667	1	0.977500
28.283333	1	0.886500
28.300000	1	0.805750
28.316667	1	0.733875
28.333333	1	0.670625
28.350000	1	0.615875
28.366667	1	0.568125
28.383333	1	0.527625
28.400000	1	0.494500
28.416667	1	0.465875
28.433333	1	0.442375
28.450000	1	0.425125
28.466667	1	0.411750
28.483333	1	0.401375
28.500000	1	0.394750
28.516667	1	0.390500
28.533333	1	0.389625
28.550000	1	0.391000
28.566667	1	0.395625
28.583333	1	0.401375
28.600000	1	0.408625
28.616667	1	0.417750
28.633333	1	0.427250
28.650000	1	0.438000
28.666667	1	0.449375
28.683333	1	0.461375
28.700000	1	0.473000
28.716667	1	0.483875
28.733333	1	0.494500
28.750000	1	0.505875
28.766667	1	0.516500
28.783333	1	0.525875
28.800000	1	0.534875
28.816667	1	0.543250
28.833333	1	0.550750
28.850000	1	0.556875
28.866667	1	0.561125
28.883333	1	0.565000
28.900000	1	0.567000
28.916667	1	0.568125
28.933333	1	0.568875
28.950000	1	0.567625
28.966667	1	0.565250
28.983333	1	0.562000
29.000000	1	0.557250
29.016667	1	0.552000
29.033333	1	0.546000
29.050000	1	0.537750
29.066667	1	0.529125
29.083333	1	0.519875
29.100000	1	0.510125
29.116667	1	0.498125
29.133333	1	0.486625
29.150000	1	0.474250
29.166667	1	0.461750
29.183333	1	0.448625
29.200000	1	0.435125
29.216667	1	0.421500
29.233333	1	0.408000
29.250000	1	0.394000
29.266667	1	0.380625
29.283333	1	0.366500
29.300000	1	0.352375
29.316667	1	0.338125
29.333333	1	0.324375
29.350000	1	0.311500
29.366667	1	0.298250
29.383333	1	0.285750
29.400000	1	0.273875
29.416667	1	0.261875
29.433333	1	0.251125
29.450000	1	0.240625
29.466667	1	0.230375
29.483333	1	0.220375
29.500000	1	0.210875
29.516667	1	0.202375
29.533333	1	0.193750
29.550000	1	0.185875
29.566667	1	0.179250
29.583333	1	0.173000
29.600000	1	0.166625
29.616667	1	0.161625
29.633333	1	0.156750
29.650000	1	0.152625
29.666667	1	0.148375
29.683333	1	0.144250
29.700000	1	0.140750
29.716667	1	0.138250
29.733333	1	0.135875
29.750000	1	0.133125
29.766667	1	0.131250
29.783333	1	0.129625
29.800000	1	0.129375
29.816667	1	0.128000
29.833333	1	0.127750
29.850000	1	0.127000
29.866667	1	0.126375
29.883333	1	0.125875
29.900000	1	0.124000
29.916667	1	0.123875
29.933333	1	0.123125
29.950000	1	0.122250
29.966667	1	0.122250
29.983333	1	0.122125
30.000000	1	0.121750
30.016667	1	0.121625
30.033333	1	0.121875
30.050000	1	0.122000
30.066667	1	0.121000
30.083333	1	0.120875
30.100000	1	0.121250
30.116667	1	0.120875
30.133333	1	0.120875
30.150000	1	0.120250
30.166667	1	0.120375
30.183333	1	0.120000
30.200000	1	0.120375
30.216667	1	0.120625
30.233333	1	0.120125
30.250000	1	0.120250
30.266667	1	0.119750
30.283333	1	0.119750
30.300000	1	0.119000
30.316667	1	0.119125
30.333333	1	0.118875
30.350000	1	0.119250
30.366667	1	0.118875
30.383333	1	0.118875
30.400000	1	0.119750
30.416667	1	0.120000
30.433333	1	0.120500
30.450000	1	0.121125
30.466667	1	0.122125
30.483333	1	0.123125
30.500000	1	0.124750
30.516667	1	0.127625
30.533333	1	0.129625
30.550000	1	0.132750
30.566667	1	0.136875
30.583333	1	0.141625
30.600000	1	0.146750
30.616667	1	0.151875
30.633333	1	0.157500
30.650000	1	0.163875
30.666667	1	0.171125
30.683333	1	0.179625
30.700000	1	0.187875
30.716667	1	0.197000
30.733333	1	0.206500
30.750000	1	0.217875
30.766667	1	0.229250
30.783333	1	0.241375
30.800000	1	0.254625
30.816667	1	0.269125
30.833333	1	0.284625
30.850000	1	0.301000
30.866667	1	0.318500
30.883333	1	0.337250
30.900000	1	0.357500
30.916667	1	0.380250
30.933333	1	0.404250
30.950000	1	0.431125
30.966667	1	0.462125
30.983333	1	0.496125
31.000000	1	0.534000
31.016667	1	0.575875
31.033333	1	0.622375
31.050000	1	0.674750
31.066667	1	0.733500
31.083333	1	0.799625
31.100000	1	0.872750
31.116667	1	0.953125
31.133333	1	1.041625
31.150000	1	1.139125
31.166667	1	1.247250
31.183333	1	1.364375
31.200000	1	1.491750
31.216667	1	1.628500
31.233333	1	1.775625
31.250000	1	1.931875
31.266667	1	2.096375
31.283333	1	2.269125
31.300000	1	2.448125
31.316667	1	2.632125
31.333333	1	2.819250
31.350000	1	3.009125
31.366667	1	3.198750
31.383333	1	3.386750
31.400000	1	3.569750
31.416667	1	3.745750
31.433333	1	3.913250
31.450000	1	4.069250
31.466667	1	4.212000
31.483333	1	4.339500
31.500000	1	4.450000
31.516667	1	4.541375
31.533333	1	4.612750
31.550000	1	4.663500
31.566667	1	4.692875
31.583333	1	4.701375
31.600000	1	4.687750
31.616667	1	4.652875
31.633333	1	4.597625
31.650000	1	4.522750
31.666667	1	4.430000
31.683333	1	4.320750
31.700000	1	4.196875
31.716667	1	4.060250
31.733333	1	3.913250
31.750000	1	3.756750
31.766667	1	3.593625
31.783333	1	3.424375
31.800000	1	3.252250
31.816667	1	3.078500
31.833333	1	2.904750
31.850000	1	2.731875
31.866667	1	2.562375
31.883333	1	2.397000
31.900000	1	2.235875
31.916667	1	2.082000
31.933333	1	1.934875
31.950000	1	1.793750
31.966667	1	1.659875
31.983333	1	1.532875
32.000000	1	1.414500
32.016667	1	1.303250
32.033333	1	1.197875
32.050000	1	1.100125
32.066667	1	1.008750
32.083333	1	0.924000
32.100000	1	0.846250
32.116667	1	0.775125
32.133333	1	0.708500
32.150000	1	0.647625
32.166667	1	0.592250
32.183333	1	0.541625
32.200000	1	0.494500
32.216667	1	0.450625
32.233333	1	0.410875
32.250000	1	0.375000
32.266667	1	0.342125
32.283333	1	0.312125
32.300000	1	0.284875
32.316667	1	0.259500
32.333333	1	0.237125
32.350000	1	0.216625
32.366667	1	0.197750
32.383333	1	0.181375
32.400000	1	0.165750
32.416667	1	0.152000
32.433333	1	0.139875
32.450000	1	0.129250
32.466667	1	0.119375
32.483333	1	0.110125
32.500000	1	0.102375
32.516667	1	0.095875
32.533333	1	0.090250
32.550000	1	0.085125
32.566667	1	0.080000
32.583333	1	0.075125
32.600000	1	0.071875
32.616667	1	0.068750
32.633333	1	0.066375
32.650000	1	0.064250
32.666667	1	0.061125
32.683333	1	0.059875
32.700000	1	0.058250
32.716667	1	0.057000
32.733333	1	0.055750
32.750000	1	0.055250
32.766667	1	0.054000
32.783333	1	0.053250
32.800000	1	0.051750
32.816667	1	0.050875
32.833333	1	0.050250
32.850000	1	0.049875
32.866667	1	0.049375
32.883333	1	0.048500
32.900000	1	0.048375
32.916667	1	0.048125
32.933333	1	0.047000
32.950000	1	0.047250
32.966667	1	0.047125
32.983333	1	0.046500
33.000000	1	0.046375
33.016667	1	0.046000
33.033333	1	0.045750
33.050000	1	0.045250
33.066667	1	0.045375
33.083333	1	0.045375
33.100000	1	0.044500
33.116667	1	0.044750
33.133333	1	0.045000
33.150000	1	0.046250
33.166667	1	0.046375
33.183333	1	0.046750
33.200000	1	0.046875
33.216667	1	0.047250
33.233333	1	0.047625
33.250000	1	0.048000
33.266667	1	0.048750
33.283333	1	0.049000
33.300000	1	0.050000
33.316667	1	0.050250
33.333333	1	0.051375
33.350000	1	0.052625
33.366667	1	0.053500
33.383333	1	0.054500
33.400000	1	0.055625
33.416667	1	0.056500
33.433333	1	0.057375
33.450000	1	0.058125
33.466667	1	0.059000
33.483333	1	0.059500
33.500000	1	0.061250
33.516667	1	0.062625
33.533333	1	0.064125
33.550000	1	0.065375
33.566667	1	0.066750
33.583333	1	0.067625
33.600000	1	0.069250
33.616667	1	0.070750
33.633333	1	0.072125
33.650000	1	0.073375
33.666667	1	0.074625
33.683333	1	0.076000
33.700000	1	0.077250
33.716667	1	0.079250
33.733333	1	0.079750
33.750000	1	0.081750
33.766667	1	0.083250
33.783333	1	0.084875
33.800000	1	0.085875
33.816667	1	0.087625
33.833333	1	0.089000
33.850000	1	0.089500
33.866667	1	0.089500
33.883333	1	0.089500
33.900000	1	0.089625
33.916667	1	0.090250
33.933333	1	0.090875
33.950000	1	0.090875
33.966667	1	0.090500
33.983333	1	0.090250
34.000000	1	0.090000
34.016667	1	0.089000
34.033333	1	0.088375
34.050000	1	0.087500
34.066667	1	0.086750
34.083333	1	0.086000
34.100000	1	0.084625
34.116667	1	0.083375
34.133333	1	0.082500
34.150000	1	0.081250
34.166667	1	0.080375
34.183333	1	0.079250
34.200000	1	0.078750
34.216667	1	0.077625
34.233333	1	0.078125
34.250000	1	0.077750
34.266667	1	0.077875
34.283333	1	0.077750
34.300000	1	0.078125
34.316667	1	0.078750
34.333333	1	0.079625
34.350000	1	0.080875
34.366667	1	0.082250
34.383333	1	0.083750
34.400000	1	0.085125
34.416667	1	0.086625
34.433333	1	0.088750
34.450000	1	0.091500
34.466667	1	0.093500
34.483333	1	0.095625
34.500000	1	0.098000
34.516667	1	0.100500
34.533333	1	0.102875
34.550000	1	0.105750
34.566667	1	0.107750
34.583333	1	0.109875
34.600000	1	0.112625
34.616667	1	0.114250
34.633333	1	0.116500
34.650000	1	0.118000
34.666667	1	0.119250
34.683333	1	0.120875
34.700000	1	0.121875
34.716667	1	0.122375
34.733333	1	0.123500
34.750000	1	0.124000
34.766667	1	0.124125
34.783333	1	0.124250
34.800000	1	0.123375
34.816667	1	0.123125
34.833333	1	0.122375
34.850000	1	0.122125
34.866667	1	0.120750
34.883333	1	0.119500
34.900000	1	0.118625
34.916667	1	0.117125
34.933333	1	0.115750
34.950000	1	0.114500
34.966667	1	0.113500
34.983333	1	0.111750
35.000000	1	0.110125
35.016667	1	0.108375
35.033333	1	0.107125
35.050000	1	0.105500
35.066667	1	0.103625
35.083333	1	0.101875
35.100000	1	0.100000
35.116667	1	0.099125
35.133333	1	0.097000
35.150000	1	0.095875
35.166667	1	0.095125
35.183333	1	0.093500
35.200000	1	0.092625
35.216667	1	0.092500
35.233333	1	0.092125
35.250000	1	0.091125
35.266667	1	0.090750
35.283333	1	0.090750
35.300000	1	0.091000
35.316667	1	0.090500
35.333333	1	0.090250
35.350000	1	0.090625
35.366667	1	0.091250
35.383333	1	0.091375
35.400000	1	0.092125
35.416667	1	0.092500
35.433333	1	0.093875
35.450000	1	0.094500
35.466667	1	0.095125
35.483333	1	0.096125
35.500000	1	0.097500
35.516667	1	0.099500
35.533333	1	0.101125
35.550000	1	0.102625
35.566667	1	0.104625
35.583333	1	0.106625
35.600000	1	0.108375
35.616667	1	0.109875
35.633333	1	0.111625
35.650000	1	0.113875
35.666667	1	0.116250
35.683333	1	0.119000
35.700000	1	0.121000
35.716667	1	0.123500
35.733333	1	0.125000
35.750000	1	0.126375
35.766667	1	0.128500
35.783333	1	0.130000
35.800000	1	0.131500
35.816667	1	0.132875
35.833333	1	0.134500
35.850000	1	0.136000
35.866667	1	0.136625
35.883333	1	0.136875
35.900000	1	0.137625
35.916667	1	0.138875
35.933333	1	0.139375
35.950000	1	0.139000
35.966667	1	0.139125
35.983333	1	0.139250
36.000000	1	0.139625
36.016667	1	0.138375
36.033333	1	0.137875
36.050000	1	0.137625
36.066667	1	0.137500
36.083333	1	0.136625
36.100000	1	0.136125
36.116667	1	0.135375
36.133333	1	0.134500
36.150000	1	0.134125
36.166667	1	0.133750
36.183333	1	0.133250
36.200000	1	0.132375
36.216667	1	0.131625
36.233333	1	0.130750
36.250000	1	0.131250
36.266667	1	0.131125
36.283333	1	0.130750
36.300000	1	0.130375
36.316667	1	0.130375
36.333333	1	0.131500
36.350000	1	0.130750
36.366667	1	0.130250
36.383333	1	0.131000
36.400000	1	0.130750
36.416667	1	0.131125
36.433333	1	0.130000
36.450000	1	0.129125
36.466667	1	0.128875
36.483333	1	0.129375
36.500000	1	0.129000
36.516667	1	0.129125
36.533333	1	0.128500
36.550000	1	0.127750
36.566667	1	0.127375
36.583333	1	0.125625
36.600000	1	0.124625
36.616667	1	0.123000
36.633333	1	0.120375
36.650000	1	0.118250
36.666667	1	0.116000
36.683333	1	0.113625
36.700000	1	0.111375
36.716667	1	0.108250
36.733333	1	0.105375
36.750000	1	0.102375
36.766667	1	0.099250
36.783333	1	0.096250
36.800000	1	0.092500
36.816667	1	0.089625
36.833333	1	0.087125
36.850000	1	0.084500
36.866667	1	0.081375
36.883333	1	0.078250
36.900000	1	0.075875
36.916667	1	0.073875
36.933333	1	0.071750
36.950000	1	0.069875
36.966667	1	0.067750
36.983333	1	0.065750
37.000000	1	0.064125
37.016667	1	0.062875
37.033333	1	0.062500
37.050000	1	0.061000
37.066667	1	0.060125
37.083333	1	0.059750
37.100000	1	0.059250
37.116667	1	0.059000
37.133333	1	0.058500
37.150000	1	0.058625
37.166667	1	0.058875
37.183333	1	0.058250
37.200000	1	0.059000
37.216667	1	0.059500
37.233333	1	0.059875
37.250000	1	0.061250
37.266667	1	0.061500
37.283333	1	0.062375
37.300000	1	0.062750
37.316667	1	0.063375
37.333333	1	0.064250
37.350000	1	0.065125
37.366667	1	0.065375
37.383333	1	0.066375
37.400000	1	0.067125
37.416667	1	0.068000
37.433333	1	0.069125
37.450000	1	0.069250
37.466667	1	0.069375
37.483333	1	0.069625
37.500000	1	0.069250
37.516667	1	0.069125
37.533333	1	0.069000
37.550000	1	0.068875
37.566667	1	0.068875
37.583333	1	0.068500
37.600000	1	0.068125
37.616667	1	0.067500
37.633333	1	0.066875
37.650000	1	0.065750
37.666667	1	0.064125
37.683333	1	0.063250
37.700000	1	0.062875
37.716667	1	0.061125
37.733333	1	0.060000
37.750000	1	0.058250
37.766667	1	0.056750
37.783333	1	0.055625
37.800000	1	0.053250
37.816667	1	0.051375
37.833333	1	0.050000
37.850000	1	0.049125
37.866667	1	0.047750
37.883333	1	0.045625
37.900000	1	0.043625
37.916667	1	0.042625
37.933333	1	0.041750
37.950000	1	0.041000
37.966667	1	0.039875
37.983333	1	0.038250
38.000000	1	0.036375
38.016667	1	0.035125
38.033333	1	0.033750
38.050000	1	0.032875
38.066667	1	0.031875
38.083333	1	0.031125
38.100000	1	0.030375
38.116667	1	0.029250
38.133333	1	0.029250
38.150000	1	0.029000
38.166667	1	0.028625
38.183333	1	0.028125
38.200000	1	0.028375
38.216667	1	0.028500
38.233333	1	0.029250
38.250000	1	0.029000
38.266667	1	0.028500
38.283333	1	0.028375
38.300000	1	0.028750
38.316667	1	0.028625
38.333333	1	0.028625
38.350000	1	0.029000
38.366667	1	0.028875
38.383333	1	0.029000
38.400000	1	0.029000
38.416667	1	0.029500
38.433333	1	0.029500
38.450000	1	0.030125
38.466667	1	0.030125
38.483333	1	0.029750
38.500000	1	0.029125
38.516667	1	0.029375
38.533333	1	0.029875
38.550000	1	0.029875
38.566667	1	0.029625
38.583333	1	0.030500
38.600000	1	0.029750
38.616667	1	0.030000
38.633333	1	0.031000
38.650000	1	0.031625
38.666667	1	0.031500
38.683333	1	0.031625
38.700000	1	0.032250
38.716667	1	0.032500
38.733333	1	0.032625
38.750000	1	0.032750
38.766667	1	0.033250
38.783333	1	0.034125
38.800000	1	0.034750
38.816667	1	0.035625
38.833333	1	0.036500
38.850000	1	0.036625
38.866667	1	0.037250
38.883333	1	0.038750
38.900000	1	0.039500
38.916667	1	0.040750
38.933333	1	0.041750
38.950000	1	0.042125
38.966667	1	0.043375
38.983333	1	0.044250
39.000000	1	0.045625
39.016667	1	0.046750
39.033333	1	0.047250
39.050000	1	0.048625
39.066667	1	0.049125
39.083333	1	0.049375
39.100000	1	0.049750
39.116667	1	0.050500
39.133333	1	0.050375
39.150000	1	0.050125
39.166667	1	0.050500
39.183333	1	0.049750
39.200000	1	0.050250
39.216667	1	0.049125
39.233333	1	0.048375
39.250000	1	0.047125
39.266667	1	0.047250
39.283333	1	0.046625
39.300000	1	0.045625
39.316667	1	0.044625
39.333333	1	0.043750
39.350000	1	0.042375
39.366667	1	0.041375
39.383333	1	0.040000
39.400000	1	0.039375
39.416667	1	0.038500
39.433333	1	0.037875
39.450000	1	0.037250
39.466667	1	0.036375
39.483333	1	0.035875
39.500000	1	0.035250
39.516667	1	0.035000
39.533333	1	0.034500
39.550000	1	0.033750
39.566667	1	0.033625
39.583333	1	0.033375
39.600000	1	0.032750
39.616667	1	0.032500
39.633333	1	0.032250
39.650000	1	0.032250
39.666667	1	0.031625
39.683333	1	0.031000
39.700000	1	0.031375
39.716667	1	0.030875
39.733333	1	0.030375
39.750000	1	0.030750
39.766667	1	0.030625
39.783333	1	0.031000
39.800000	1	0.031125
39.816667	1	0.031250
39.833333	1	0.031000
39.850000	1	0.031000
39.866667	1	0.030125
39.883333	1	0.030000
39.900000	1	0.029500
39.916667	1	0.028125
39.933333	1	0.027875
39.950000	1	0.027250
39.966667	1	0.026500
39.983333	1	0.026375
40.000000	1	0.025750
