URL	chrom://bioreactor/micro_cm7/HPLC_Ultimate_3000/Users/markusar/20240708_MA_pHrange1.seq/654.smp/RI_1.channel/RI_1.chm
Channel	RI_1

Injection Information:
Data Vault	micro_cm7
Sequence	20240708_MA_pHrange1
Name	Pv2_5.7_4
Number	25
Position	BC1
Comment	
Processing Method	
Instrument Method	run_25B_method
Type	Unknown
Status	Finished
Inject Time	09.07.2024 07:57:49 +02:00
Volume (µl)	20.0000
Dilution Factor	1.0000
Weight	1.0000

Chromatogram Data Information:
Time Min. (min)	0.000000
Time Max. (min)	40.000000
Data Points	2401
Detector	RI
Generating Data System	Chromeleon 7.3.2.11814
Exporting Data System	Chromeleon 7.3.2.0
Operator	Instrument Controller
Signal Quantity	Refractive 
Signal Unit	µRIU
Signal Min.	-0.062125
Signal Max.	84.246750
Channel	RI_1
Driver Name	RID520Driver.dll
Channel Type	Evaluation
Min. Step (s)	1
Max. Step (s)	1
Average Step (s)	1

Signal Parameter Information:
Signal Info	

Chromatogram Data:
Time (min)	Step (s)	Value (µRIU)
0.000000	n.a.	-0.034625
0.016667	1	-0.034250
0.033333	1	-0.033625
0.050000	1	-0.032750
0.066667	1	-0.032000
0.083333	1	-0.030500
0.100000	1	-0.029500
0.116667	1	-0.028000
0.133333	1	-0.026625
0.150000	1	-0.025375
0.166667	1	-0.023875
0.183333	1	-0.022625
0.200000	1	-0.020750
0.216667	1	-0.018750
0.233333	1	-0.017625
0.250000	1	-0.015875
0.266667	1	-0.015125
0.283333	1	-0.014250
0.300000	1	-0.012250
0.316667	1	-0.010750
0.333333	1	-0.009125
0.350000	1	-0.008250
0.366667	1	-0.008625
0.383333	1	-0.008750
0.400000	1	-0.008375
0.416667	1	-0.007250
0.433333	1	-0.005250
0.450000	1	-0.003125
0.466667	1	-0.000375
0.483333	1	0.001125
0.500000	1	0.003000
0.516667	1	0.004000
0.533333	1	0.004625
0.550000	1	0.004750
0.566667	1	0.003875
0.583333	1	0.002125
0.600000	1	-0.000625
0.616667	1	-0.002500
0.633333	1	-0.003375
0.650000	1	-0.004000
0.666667	1	-0.004375
0.683333	1	-0.005625
0.700000	1	-0.005750
0.716667	1	-0.005875
0.733333	1	-0.006250
0.750000	1	-0.006375
0.766667	1	-0.007500
0.783333	1	-0.008125
0.800000	1	-0.008375
0.816667	1	-0.008875
0.833333	1	-0.008375
0.850000	1	-0.008625
0.866667	1	-0.009125
0.883333	1	-0.009625
0.900000	1	-0.009875
0.916667	1	-0.010500
0.933333	1	-0.011250
0.950000	1	-0.011125
0.966667	1	-0.011000
0.983333	1	-0.011250
1.000000	1	-0.012125
1.016667	1	-0.012500
1.033333	1	-0.012500
1.050000	1	-0.012625
1.066667	1	-0.013625
1.083333	1	-0.014000
1.100000	1	-0.014125
1.116667	1	-0.014875
1.133333	1	-0.014625
1.150000	1	-0.014000
1.166667	1	-0.014375
1.183333	1	-0.014750
1.200000	1	-0.014500
1.216667	1	-0.014500
1.233333	1	-0.014375
1.250000	1	-0.014750
1.266667	1	-0.014250
1.283333	1	-0.014125
1.300000	1	-0.014250
1.316667	1	-0.014125
1.333333	1	-0.013750
1.350000	1	-0.013500
1.366667	1	-0.012625
1.383333	1	-0.013500
1.400000	1	-0.013000
1.416667	1	-0.013750
1.433333	1	-0.013250
1.450000	1	-0.013250
1.466667	1	-0.012625
1.483333	1	-0.012500
1.500000	1	-0.012500
1.516667	1	-0.012750
1.533333	1	-0.013250
1.550000	1	-0.013000
1.566667	1	-0.013250
1.583333	1	-0.014125
1.600000	1	-0.014125
1.616667	1	-0.014250
1.633333	1	-0.014500
1.650000	1	-0.014625
1.666667	1	-0.014750
1.683333	1	-0.015250
1.700000	1	-0.015500
1.716667	1	-0.016625
1.733333	1	-0.016875
1.750000	1	-0.017750
1.766667	1	-0.018875
1.783333	1	-0.019500
1.800000	1	-0.020625
1.816667	1	-0.021250
1.833333	1	-0.021875
1.850000	1	-0.022250
1.866667	1	-0.022125
1.883333	1	-0.022750
1.900000	1	-0.022875
1.916667	1	-0.023500
1.933333	1	-0.024500
1.950000	1	-0.025000
1.966667	1	-0.025250
1.983333	1	-0.025875
2.000000	1	-0.026125
2.016667	1	-0.026500
2.033333	1	-0.026875
2.050000	1	-0.027250
2.066667	1	-0.027500
2.083333	1	-0.027875
2.100000	1	-0.028250
2.116667	1	-0.028750
2.133333	1	-0.029250
2.150000	1	-0.029375
2.166667	1	-0.029250
2.183333	1	-0.029750
2.200000	1	-0.031250
2.216667	1	-0.032250
2.233333	1	-0.032750
2.250000	1	-0.033625
2.266667	1	-0.034750
2.283333	1	-0.035375
2.300000	1	-0.035625
2.316667	1	-0.036875
2.333333	1	-0.038000
2.350000	1	-0.039250
2.366667	1	-0.039625
2.383333	1	-0.040750
2.400000	1	-0.042375
2.416667	1	-0.043625
2.433333	1	-0.044500
2.450000	1	-0.045500
2.466667	1	-0.046625
2.483333	1	-0.048000
2.500000	1	-0.049125
2.516667	1	-0.051000
2.533333	1	-0.052000
2.550000	1	-0.052875
2.566667	1	-0.053500
2.583333	1	-0.054750
2.600000	1	-0.055500
2.616667	1	-0.057000
2.633333	1	-0.057750
2.650000	1	-0.058125
2.666667	1	-0.059250
2.683333	1	-0.059875
2.700000	1	-0.060000
2.716667	1	-0.060250
2.733333	1	-0.061000
2.750000	1	-0.061625
2.766667	1	-0.062000
2.783333	1	-0.061500
2.800000	1	-0.062125
2.816667	1	-0.062000
2.833333	1	-0.061625
2.850000	1	-0.061375
2.866667	1	-0.061250
2.883333	1	-0.060375
2.900000	1	-0.060375
2.916667	1	-0.060125
2.933333	1	-0.059500
2.950000	1	-0.059625
2.966667	1	-0.059500
2.983333	1	-0.058625
3.000000	1	-0.057625
3.016667	1	-0.056000
3.033333	1	-0.054625
3.050000	1	-0.053250
3.066667	1	-0.051625
3.083333	1	-0.050625
3.100000	1	-0.049250
3.116667	1	-0.047750
3.133333	1	-0.046250
3.150000	1	-0.044750
3.166667	1	-0.043625
3.183333	1	-0.041625
3.200000	1	-0.039250
3.216667	1	-0.037000
3.233333	1	-0.035000
3.250000	1	-0.032500
3.266667	1	-0.030250
3.283333	1	-0.028250
3.300000	1	-0.025750
3.316667	1	-0.023125
3.333333	1	-0.020500
3.350000	1	-0.018250
3.366667	1	-0.015500
3.383333	1	-0.013000
3.400000	1	-0.011250
3.416667	1	-0.008500
3.433333	1	-0.005625
3.450000	1	-0.002875
3.466667	1	-0.000625
3.483333	1	0.001500
3.500000	1	0.003375
3.516667	1	0.005375
3.533333	1	0.007625
3.550000	1	0.008750
3.566667	1	0.011125
3.583333	1	0.013250
3.600000	1	0.014500
3.616667	1	0.016250
3.633333	1	0.017750
3.650000	1	0.019500
3.666667	1	0.020750
3.683333	1	0.022625
3.700000	1	0.024500
3.716667	1	0.025500
3.733333	1	0.026500
3.750000	1	0.027875
3.766667	1	0.028625
3.783333	1	0.029375
3.800000	1	0.030125
3.816667	1	0.031125
3.833333	1	0.032375
3.850000	1	0.033000
3.866667	1	0.034250
3.883333	1	0.035000
3.900000	1	0.034375
3.916667	1	0.035375
3.933333	1	0.035625
3.950000	1	0.036125
3.966667	1	0.037125
3.983333	1	0.037500
4.000000	1	0.037625
4.016667	1	0.037125
4.033333	1	0.038000
4.050000	1	0.038500
4.066667	1	0.039625
4.083333	1	0.039500
4.100000	1	0.039750
4.116667	1	0.040125
4.133333	1	0.039875
4.150000	1	0.039750
4.166667	1	0.040625
4.183333	1	0.040875
4.200000	1	0.040875
4.216667	1	0.041375
4.233333	1	0.041500
4.250000	1	0.041875
4.266667	1	0.042000
4.283333	1	0.041625
4.300000	1	0.042500
4.316667	1	0.042750
4.333333	1	0.042875
4.350000	1	0.042000
4.366667	1	0.042125
4.383333	1	0.042250
4.400000	1	0.042125
4.416667	1	0.042625
4.433333	1	0.043000
4.450000	1	0.043500
4.466667	1	0.043500
4.483333	1	0.043875
4.500000	1	0.045000
4.516667	1	0.045625
4.533333	1	0.046750
4.550000	1	0.047500
4.566667	1	0.048875
4.583333	1	0.049875
4.600000	1	0.050875
4.616667	1	0.052125
4.633333	1	0.053375
4.650000	1	0.055875
4.666667	1	0.057250
4.683333	1	0.059250
4.700000	1	0.061500
4.716667	1	0.063250
4.733333	1	0.065250
4.750000	1	0.067750
4.766667	1	0.070500
4.783333	1	0.073375
4.800000	1	0.076250
4.816667	1	0.080000
4.833333	1	0.083000
4.850000	1	0.085625
4.866667	1	0.089250
4.883333	1	0.093500
4.900000	1	0.097000
4.916667	1	0.101750
4.933333	1	0.106000
4.950000	1	0.110875
4.966667	1	0.115250
4.983333	1	0.120500
5.000000	1	0.125250
5.016667	1	0.129875
5.033333	1	0.134875
5.050000	1	0.139625
5.066667	1	0.144625
5.083333	1	0.149750
5.100000	1	0.155125
5.116667	1	0.160625
5.133333	1	0.166125
5.150000	1	0.171250
5.166667	1	0.176875
5.183333	1	0.182250
5.200000	1	0.187500
5.216667	1	0.192000
5.233333	1	0.197500
5.250000	1	0.201875
5.266667	1	0.206500
5.283333	1	0.212000
5.300000	1	0.216000
5.316667	1	0.220750
5.333333	1	0.224375
5.350000	1	0.228125
5.366667	1	0.232000
5.383333	1	0.235125
5.400000	1	0.238500
5.416667	1	0.241000
5.433333	1	0.243750
5.450000	1	0.246750
5.466667	1	0.249125
5.483333	1	0.250875
5.500000	1	0.252250
5.516667	1	0.253125
5.533333	1	0.253875
5.550000	1	0.254250
5.566667	1	0.254375
5.583333	1	0.255125
5.600000	1	0.254875
5.616667	1	0.254000
5.633333	1	0.253250
5.650000	1	0.252000
5.666667	1	0.250625
5.683333	1	0.249125
5.700000	1	0.246625
5.716667	1	0.244625
5.733333	1	0.241875
5.750000	1	0.239500
5.766667	1	0.237000
5.783333	1	0.234375
5.800000	1	0.231125
5.816667	1	0.228000
5.833333	1	0.224750
5.850000	1	0.220625
5.866667	1	0.217000
5.883333	1	0.212625
5.900000	1	0.208125
5.916667	1	0.203875
5.933333	1	0.199625
5.950000	1	0.194625
5.966667	1	0.190000
5.983333	1	0.184875
6.000000	1	0.179875
6.016667	1	0.174250
6.033333	1	0.169250
6.050000	1	0.164250
6.066667	1	0.159125
6.083333	1	0.154750
6.100000	1	0.149625
6.116667	1	0.144750
6.133333	1	0.139875
6.150000	1	0.135000
6.166667	1	0.130125
6.183333	1	0.125875
6.200000	1	0.121250
6.216667	1	0.116375
6.233333	1	0.112250
6.250000	1	0.108375
6.266667	1	0.104125
6.283333	1	0.099875
6.300000	1	0.095875
6.316667	1	0.092000
6.333333	1	0.088500
6.350000	1	0.084875
6.366667	1	0.082375
6.383333	1	0.079375
6.400000	1	0.075500
6.416667	1	0.072875
6.433333	1	0.070000
6.450000	1	0.066875
6.466667	1	0.064375
6.483333	1	0.061625
6.500000	1	0.059125
6.516667	1	0.056875
6.533333	1	0.054625
6.550000	1	0.053500
6.566667	1	0.051750
6.583333	1	0.050750
6.600000	1	0.048625
6.616667	1	0.046875
6.633333	1	0.044750
6.650000	1	0.043250
6.666667	1	0.041500
6.683333	1	0.039875
6.700000	1	0.038500
6.716667	1	0.037750
6.733333	1	0.036875
6.750000	1	0.035500
6.766667	1	0.034250
6.783333	1	0.032750
6.800000	1	0.031625
6.816667	1	0.030125
6.833333	1	0.029250
6.850000	1	0.028625
6.866667	1	0.028375
6.883333	1	0.027500
6.900000	1	0.027250
6.916667	1	0.027000
6.933333	1	0.027125
6.950000	1	0.028000
6.966667	1	0.028500
6.983333	1	0.028375
7.000000	1	0.029250
7.016667	1	0.029625
7.033333	1	0.031375
7.050000	1	0.032875
7.066667	1	0.034125
7.083333	1	0.036000
7.100000	1	0.037250
7.116667	1	0.039250
7.133333	1	0.041875
7.150000	1	0.043875
7.166667	1	0.046500
7.183333	1	0.049625
7.200000	1	0.052000
7.216667	1	0.054500
7.233333	1	0.056250
7.250000	1	0.059125
7.266667	1	0.062250
7.283333	1	0.065375
7.300000	1	0.067875
7.316667	1	0.070875
7.333333	1	0.072875
7.350000	1	0.075125
7.366667	1	0.077625
7.383333	1	0.079500
7.400000	1	0.081125
7.416667	1	0.082375
7.433333	1	0.083375
7.450000	1	0.084375
7.466667	1	0.085375
7.483333	1	0.085500
7.500000	1	0.086000
7.516667	1	0.086375
7.533333	1	0.086000
7.550000	1	0.085625
7.566667	1	0.084750
7.583333	1	0.083625
7.600000	1	0.082000
7.616667	1	0.080375
7.633333	1	0.078875
7.650000	1	0.076375
7.666667	1	0.073875
7.683333	1	0.070750
7.700000	1	0.068125
7.716667	1	0.065000
7.733333	1	0.061750
7.750000	1	0.058125
7.766667	1	0.054375
7.783333	1	0.050500
7.800000	1	0.046625
7.816667	1	0.043500
7.833333	1	0.039500
7.850000	1	0.035250
7.866667	1	0.030875
7.883333	1	0.026375
7.900000	1	0.022500
7.916667	1	0.019000
7.933333	1	0.015125
7.950000	1	0.011375
7.966667	1	0.007375
7.983333	1	0.004000
8.000000	1	0.000375
8.016667	1	-0.002875
8.033333	1	-0.006125
8.050000	1	-0.008875
8.066667	1	-0.011750
8.083333	1	-0.015250
8.100000	1	-0.017625
8.116667	1	-0.020250
8.133333	1	-0.022750
8.150000	1	-0.024125
8.166667	1	-0.026375
8.183333	1	-0.029500
8.200000	1	-0.031500
8.216667	1	-0.033750
8.233333	1	-0.034875
8.250000	1	-0.035125
8.266667	1	-0.036750
8.283333	1	-0.037750
8.300000	1	-0.039000
8.316667	1	-0.039875
8.333333	1	-0.040750
8.350000	1	-0.040500
8.366667	1	-0.039875
8.383333	1	-0.039750
8.400000	1	-0.040000
8.416667	1	-0.039750
8.433333	1	-0.039750
8.450000	1	-0.039125
8.466667	1	-0.039000
8.483333	1	-0.038125
8.500000	1	-0.037125
8.516667	1	-0.036375
8.533333	1	-0.035000
8.550000	1	-0.034250
8.566667	1	-0.033250
8.583333	1	-0.031625
8.600000	1	-0.030500
8.616667	1	-0.030125
8.633333	1	-0.028250
8.650000	1	-0.027375
8.666667	1	-0.026750
8.683333	1	-0.024875
8.700000	1	-0.023750
8.716667	1	-0.022250
8.733333	1	-0.020875
8.750000	1	-0.019125
8.766667	1	-0.018125
8.783333	1	-0.017250
8.800000	1	-0.015875
8.816667	1	-0.014500
8.833333	1	-0.013750
8.850000	1	-0.012625
8.866667	1	-0.011250
8.883333	1	-0.011000
8.900000	1	-0.010000
8.916667	1	-0.009250
8.933333	1	-0.008625
8.950000	1	-0.008750
8.966667	1	-0.008000
8.983333	1	-0.007875
9.000000	1	-0.007375
9.016667	1	-0.007500
9.033333	1	-0.007750
9.050000	1	-0.007875
9.066667	1	-0.008500
9.083333	1	-0.009000
9.100000	1	-0.009500
9.116667	1	-0.009625
9.133333	1	-0.010625
9.150000	1	-0.011250
9.166667	1	-0.012250
9.183333	1	-0.013125
9.200000	1	-0.014000
9.216667	1	-0.015250
9.233333	1	-0.016625
9.250000	1	-0.017875
9.266667	1	-0.019250
9.283333	1	-0.020625
9.300000	1	-0.022750
9.316667	1	-0.024250
9.333333	1	-0.025375
9.350000	1	-0.026625
9.366667	1	-0.027875
9.383333	1	-0.029000
9.400000	1	-0.029875
9.416667	1	-0.030750
9.433333	1	-0.032375
9.450000	1	-0.033500
9.466667	1	-0.034000
9.483333	1	-0.034500
9.500000	1	-0.035000
9.516667	1	-0.035375
9.533333	1	-0.036125
9.550000	1	-0.036625
9.566667	1	-0.036625
9.583333	1	-0.037125
9.600000	1	-0.036875
9.616667	1	-0.036375
9.633333	1	-0.036000
9.650000	1	-0.035500
9.666667	1	-0.034875
9.683333	1	-0.034500
9.700000	1	-0.033750
9.716667	1	-0.033000
9.733333	1	-0.032250
9.750000	1	-0.030500
9.766667	1	-0.028875
9.783333	1	-0.027625
9.800000	1	-0.026125
9.816667	1	-0.024750
9.833333	1	-0.023375
9.850000	1	-0.021875
9.866667	1	-0.020375
9.883333	1	-0.018625
9.900000	1	-0.016750
9.916667	1	-0.015375
9.933333	1	-0.014250
9.950000	1	-0.013000
9.966667	1	-0.011875
9.983333	1	-0.010875
10.000000	1	-0.010000
10.016667	1	-0.009125
10.033333	1	-0.008750
10.050000	1	-0.007750
10.066667	1	-0.005875
10.083333	1	-0.003375
10.100000	1	-0.001625
10.116667	1	0.001000
10.133333	1	0.004625
10.150000	1	0.009000
10.166667	1	0.015125
10.183333	1	0.022000
10.200000	1	0.030250
10.216667	1	0.039375
10.233333	1	0.050375
10.250000	1	0.063750
10.266667	1	0.078375
10.283333	1	0.095875
10.300000	1	0.116000
10.316667	1	0.139625
10.333333	1	0.165250
10.350000	1	0.193375
10.366667	1	0.221625
10.383333	1	0.248750
10.400000	1	0.272125
10.416667	1	0.288750
10.433333	1	0.294375
10.450000	1	0.287375
10.466667	1	0.264250
10.483333	1	0.228750
10.500000	1	0.191625
10.516667	1	0.173000
10.533333	1	0.208500
10.550000	1	0.349750
10.566667	1	0.661375
10.583333	1	1.217250
10.600000	1	2.092625
10.616667	1	3.352500
10.633333	1	5.051375
10.650000	1	7.223250
10.666667	1	9.889125
10.683333	1	13.051500
10.700000	1	16.694875
10.716667	1	20.780500
10.733333	1	25.242375
10.750000	1	29.977875
10.766667	1	34.831500
10.783333	1	39.585000
10.800000	1	43.938000
10.816667	1	47.513500
10.833333	1	49.896625
10.850000	1	50.726500
10.866667	1	49.800250
10.883333	1	47.161125
10.900000	1	43.111500
10.916667	1	38.138875
10.933333	1	32.783125
10.950000	1	27.507125
10.966667	1	22.636750
10.983333	1	18.356250
11.000000	1	14.730500
11.016667	1	11.745625
11.033333	1	9.345750
11.050000	1	7.452250
11.066667	1	5.977000
11.083333	1	4.840000
11.100000	1	3.969125
11.116667	1	3.304750
11.133333	1	2.796875
11.150000	1	2.407500
11.166667	1	2.108125
11.183333	1	1.875750
11.200000	1	1.692875
11.216667	1	1.548125
11.233333	1	1.431625
11.250000	1	1.337500
11.266667	1	1.259750
11.283333	1	1.194625
11.300000	1	1.140750
11.316667	1	1.094375
11.333333	1	1.055500
11.350000	1	1.021875
11.366667	1	0.992625
11.383333	1	0.967125
11.400000	1	0.945625
11.416667	1	0.927000
11.433333	1	0.911000
11.450000	1	0.897875
11.466667	1	0.886625
11.483333	1	0.876500
11.500000	1	0.867875
11.516667	1	0.861250
11.533333	1	0.856375
11.550000	1	0.852500
11.566667	1	0.849000
11.583333	1	0.846625
11.600000	1	0.846375
11.616667	1	0.846750
11.633333	1	0.848500
11.650000	1	0.851375
11.666667	1	0.855000
11.683333	1	0.859000
11.700000	1	0.866000
11.716667	1	0.872625
11.733333	1	0.880375
11.750000	1	0.889500
11.766667	1	0.899750
11.783333	1	0.910125
11.800000	1	0.920375
11.816667	1	0.931125
11.833333	1	0.941375
11.850000	1	0.951250
11.866667	1	0.960125
11.883333	1	0.968000
11.900000	1	0.975375
11.916667	1	0.981750
11.933333	1	0.986875
11.950000	1	0.991625
11.966667	1	0.996125
11.983333	1	1.000125
12.000000	1	1.003375
12.016667	1	1.007125
12.033333	1	1.010750
12.050000	1	1.014875
12.066667	1	1.018875
12.083333	1	1.023750
12.100000	1	1.028625
12.116667	1	1.033875
12.133333	1	1.040250
12.150000	1	1.046875
12.166667	1	1.054125
12.183333	1	1.062125
12.200000	1	1.071625
12.216667	1	1.082625
12.233333	1	1.096500
12.250000	1	1.113000
12.266667	1	1.134500
12.283333	1	1.161500
12.300000	1	1.196000
12.316667	1	1.240125
12.333333	1	1.297375
12.350000	1	1.370625
12.366667	1	1.463250
12.383333	1	1.578875
12.400000	1	1.723375
12.416667	1	1.900625
12.433333	1	2.115375
12.450000	1	2.372500
12.466667	1	2.678500
12.483333	1	3.036125
12.500000	1	3.448875
12.516667	1	3.919125
12.533333	1	4.448125
12.550000	1	5.033250
12.566667	1	5.671250
12.583333	1	6.353625
12.600000	1	7.070125
12.616667	1	7.807375
12.633333	1	8.551000
12.650000	1	9.287000
12.666667	1	10.000625
12.683333	1	10.682625
12.700000	1	11.325125
12.716667	1	11.925750
12.733333	1	12.485750
12.750000	1	13.010750
12.766667	1	13.510375
12.783333	1	13.994000
12.800000	1	14.472875
12.816667	1	14.958125
12.833333	1	15.457625
12.850000	1	15.979875
12.866667	1	16.530875
12.883333	1	17.113250
12.900000	1	17.728875
12.916667	1	18.377750
12.933333	1	19.059000
12.950000	1	19.770875
12.966667	1	20.512000
12.983333	1	21.280375
13.000000	1	22.073500
13.016667	1	22.890375
13.033333	1	23.730125
13.050000	1	24.592000
13.066667	1	25.476375
13.083333	1	26.381750
13.100000	1	27.307250
13.116667	1	28.253125
13.133333	1	29.217750
13.150000	1	30.201125
13.166667	1	31.204000
13.183333	1	32.225375
13.200000	1	33.265250
13.216667	1	34.324000
13.233333	1	35.401625
13.250000	1	36.500250
13.266667	1	37.619875
13.283333	1	38.762250
13.300000	1	39.926375
13.316667	1	41.113125
13.333333	1	42.322000
13.350000	1	43.553500
13.366667	1	44.810250
13.383333	1	46.090500
13.400000	1	47.393875
13.416667	1	48.721625
13.433333	1	50.076250
13.450000	1	51.459000
13.466667	1	52.870750
13.483333	1	54.312750
13.500000	1	55.785250
13.516667	1	57.287625
13.533333	1	58.819875
13.550000	1	60.383750
13.566667	1	61.979250
13.583333	1	63.605625
13.600000	1	65.263375
13.616667	1	66.952875
13.633333	1	68.678500
13.650000	1	70.441375
13.666667	1	72.243375
13.683333	1	74.085000
13.700000	1	75.965125
13.716667	1	77.876000
13.733333	1	79.786750
13.750000	1	81.606500
13.766667	1	83.149250
13.783333	1	84.135750
13.800000	1	84.246750
13.816667	1	83.161000
13.833333	1	80.582750
13.850000	1	76.276875
13.866667	1	70.172500
13.883333	1	62.503500
13.900000	1	53.857625
13.916667	1	45.036000
13.933333	1	36.778000
13.950000	1	29.564375
13.966667	1	23.575625
13.983333	1	18.772875
14.000000	1	15.005625
14.016667	1	12.092750
14.033333	1	9.867625
14.050000	1	8.188125
14.066667	1	6.934875
14.083333	1	6.008375
14.100000	1	5.324375
14.116667	1	4.817500
14.133333	1	4.438375
14.150000	1	4.150250
14.166667	1	3.926625
14.183333	1	3.750000
14.200000	1	3.607125
14.216667	1	3.487000
14.233333	1	3.385625
14.250000	1	3.298000
14.266667	1	3.220750
14.283333	1	3.152000
14.300000	1	3.090625
14.316667	1	3.035750
14.333333	1	2.985875
14.350000	1	2.941750
14.366667	1	2.904250
14.383333	1	2.873250
14.400000	1	2.848500
14.416667	1	2.833250
14.433333	1	2.829625
14.450000	1	2.840625
14.466667	1	2.870375
14.483333	1	2.927000
14.500000	1	3.021125
14.516667	1	3.167250
14.533333	1	3.384375
14.550000	1	3.699375
14.566667	1	4.147625
14.583333	1	4.774000
14.600000	1	5.632500
14.616667	1	6.787250
14.633333	1	8.312875
14.650000	1	10.284875
14.666667	1	12.778000
14.683333	1	15.853625
14.700000	1	19.547875
14.716667	1	23.862125
14.733333	1	28.761375
14.750000	1	34.160250
14.766667	1	39.915500
14.783333	1	45.829625
14.800000	1	51.675125
14.816667	1	57.198250
14.833333	1	62.133875
14.850000	1	66.228875
14.866667	1	69.266375
14.883333	1	71.087875
14.900000	1	71.610500
14.916667	1	70.831250
14.933333	1	68.828500
14.950000	1	65.746500
14.966667	1	61.785875
14.983333	1	57.180750
15.000000	1	52.164750
15.016667	1	46.959625
15.033333	1	41.762250
15.050000	1	36.737750
15.066667	1	32.012875
15.083333	1	27.673375
15.100000	1	23.771375
15.116667	1	20.324375
15.133333	1	17.322625
15.150000	1	14.741500
15.166667	1	12.546375
15.183333	1	10.696250
15.200000	1	9.146750
15.216667	1	7.857500
15.233333	1	6.788250
15.250000	1	5.906750
15.266667	1	5.183250
15.283333	1	4.593250
15.300000	1	4.114625
15.316667	1	3.728875
15.333333	1	3.420500
15.350000	1	3.177000
15.366667	1	2.986500
15.383333	1	2.841625
15.400000	1	2.732125
15.416667	1	2.652375
15.433333	1	2.595625
15.450000	1	2.555625
15.466667	1	2.528000
15.483333	1	2.507750
15.500000	1	2.491500
15.516667	1	2.475125
15.533333	1	2.456750
15.550000	1	2.433875
15.566667	1	2.407125
15.583333	1	2.375875
15.600000	1	2.340500
15.616667	1	2.303000
15.633333	1	2.263625
15.650000	1	2.224000
15.666667	1	2.184250
15.683333	1	2.147125
15.700000	1	2.112000
15.716667	1	2.079250
15.733333	1	2.047500
15.750000	1	2.017625
15.766667	1	1.988125
15.783333	1	1.959250
15.800000	1	1.930125
15.816667	1	1.900750
15.833333	1	1.871000
15.850000	1	1.841375
15.866667	1	1.811625
15.883333	1	1.782375
15.900000	1	1.755625
15.916667	1	1.731500
15.933333	1	1.709500
15.950000	1	1.691000
15.966667	1	1.676125
15.983333	1	1.664750
16.000000	1	1.656250
16.016667	1	1.651125
16.033333	1	1.646625
16.050000	1	1.643500
16.066667	1	1.640125
16.083333	1	1.636375
16.100000	1	1.631875
16.116667	1	1.624625
16.133333	1	1.615875
16.150000	1	1.604625
16.166667	1	1.591875
16.183333	1	1.577250
16.200000	1	1.560875
16.216667	1	1.542250
16.233333	1	1.523250
16.250000	1	1.502625
16.266667	1	1.481875
16.283333	1	1.461250
16.300000	1	1.439625
16.316667	1	1.418250
16.333333	1	1.397875
16.350000	1	1.377375
16.366667	1	1.358625
16.383333	1	1.341125
16.400000	1	1.325250
16.416667	1	1.311375
16.433333	1	1.300250
16.450000	1	1.291875
16.466667	1	1.285375
16.483333	1	1.281875
16.500000	1	1.280625
16.516667	1	1.281625
16.533333	1	1.284125
16.550000	1	1.288500
16.566667	1	1.293500
16.583333	1	1.298500
16.600000	1	1.302750
16.616667	1	1.306375
16.633333	1	1.308125
16.650000	1	1.308875
16.666667	1	1.307500
16.683333	1	1.305000
16.700000	1	1.301375
16.716667	1	1.297000
16.733333	1	1.291625
16.750000	1	1.287500
16.766667	1	1.283375
16.783333	1	1.280875
16.800000	1	1.279125
16.816667	1	1.278125
16.833333	1	1.278250
16.850000	1	1.278750
16.866667	1	1.279625
16.883333	1	1.280250
16.900000	1	1.280250
16.916667	1	1.278500
16.933333	1	1.277000
16.950000	1	1.274375
16.966667	1	1.270250
16.983333	1	1.264250
17.000000	1	1.257500
17.016667	1	1.249375
17.033333	1	1.241500
17.050000	1	1.232000
17.066667	1	1.223000
17.083333	1	1.214250
17.100000	1	1.206375
17.116667	1	1.199250
17.133333	1	1.193250
17.150000	1	1.188750
17.166667	1	1.185000
17.183333	1	1.182625
17.200000	1	1.181000
17.216667	1	1.181375
17.233333	1	1.181375
17.250000	1	1.183625
17.266667	1	1.187000
17.283333	1	1.190750
17.300000	1	1.195000
17.316667	1	1.201250
17.333333	1	1.206750
17.350000	1	1.212750
17.366667	1	1.219750
17.383333	1	1.227125
17.400000	1	1.233750
17.416667	1	1.240000
17.433333	1	1.245875
17.450000	1	1.250750
17.466667	1	1.254625
17.483333	1	1.256625
17.500000	1	1.257125
17.516667	1	1.255625
17.533333	1	1.252625
17.550000	1	1.248500
17.566667	1	1.242750
17.583333	1	1.235500
17.600000	1	1.227000
17.616667	1	1.216750
17.633333	1	1.206000
17.650000	1	1.193875
17.666667	1	1.181000
17.683333	1	1.167125
17.700000	1	1.153500
17.716667	1	1.139125
17.733333	1	1.125625
17.750000	1	1.112875
17.766667	1	1.100000
17.783333	1	1.087000
17.800000	1	1.074875
17.816667	1	1.063250
17.833333	1	1.051750
17.850000	1	1.041375
17.866667	1	1.031000
17.883333	1	1.021875
17.900000	1	1.012625
17.916667	1	1.003875
17.933333	1	0.994750
17.950000	1	0.986125
17.966667	1	0.978250
17.983333	1	0.969875
18.000000	1	0.961750
18.016667	1	0.953000
18.033333	1	0.944125
18.050000	1	0.935625
18.066667	1	0.927125
18.083333	1	0.919750
18.100000	1	0.911500
18.116667	1	0.904125
18.133333	1	0.897000
18.150000	1	0.890125
18.166667	1	0.884000
18.183333	1	0.878750
18.200000	1	0.874375
18.216667	1	0.870875
18.233333	1	0.867875
18.250000	1	0.866000
18.266667	1	0.864250
18.283333	1	0.862750
18.300000	1	0.862250
18.316667	1	0.861875
18.333333	1	0.861625
18.350000	1	0.861500
18.366667	1	0.863375
18.383333	1	0.864750
18.400000	1	0.867625
18.416667	1	0.870125
18.433333	1	0.874125
18.450000	1	0.879375
18.466667	1	0.885875
18.483333	1	0.893750
18.500000	1	0.903500
18.516667	1	0.915250
18.533333	1	0.928875
18.550000	1	0.944125
18.566667	1	0.961875
18.583333	1	0.981250
18.600000	1	1.002500
18.616667	1	1.026250
18.633333	1	1.051875
18.650000	1	1.079000
18.666667	1	1.107500
18.683333	1	1.138625
18.700000	1	1.170875
18.716667	1	1.204125
18.733333	1	1.238500
18.750000	1	1.274000
18.766667	1	1.310000
18.783333	1	1.345875
18.800000	1	1.381250
18.816667	1	1.415125
18.833333	1	1.447375
18.850000	1	1.477375
18.866667	1	1.503375
18.883333	1	1.525500
18.900000	1	1.542375
18.916667	1	1.553125
18.933333	1	1.558000
18.950000	1	1.556125
18.966667	1	1.547125
18.983333	1	1.530375
19.000000	1	1.508000
19.016667	1	1.478750
19.033333	1	1.444875
19.050000	1	1.405875
19.066667	1	1.364375
19.083333	1	1.321000
19.100000	1	1.277125
19.116667	1	1.234750
19.133333	1	1.196375
19.150000	1	1.163875
19.166667	1	1.139250
19.183333	1	1.124500
19.200000	1	1.122500
19.216667	1	1.135250
19.233333	1	1.164875
19.250000	1	1.213375
19.266667	1	1.285000
19.283333	1	1.380375
19.300000	1	1.502750
19.316667	1	1.652000
19.333333	1	1.829125
19.350000	1	2.033750
19.366667	1	2.263500
19.383333	1	2.515750
19.400000	1	2.786375
19.416667	1	3.069875
19.433333	1	3.358500
19.450000	1	3.643125
19.466667	1	3.915875
19.483333	1	4.168000
19.500000	1	4.390625
19.516667	1	4.576500
19.533333	1	4.718750
19.550000	1	4.813125
19.566667	1	4.856500
19.583333	1	4.848500
19.600000	1	4.790250
19.616667	1	4.684875
19.633333	1	4.536875
19.650000	1	4.352750
19.666667	1	4.140000
19.683333	1	3.906250
19.700000	1	3.658625
19.716667	1	3.403625
19.733333	1	3.148750
19.750000	1	2.898875
19.766667	1	2.657375
19.783333	1	2.427750
19.800000	1	2.213375
19.816667	1	2.015125
19.833333	1	1.833375
19.850000	1	1.668875
19.866667	1	1.520625
19.883333	1	1.388250
19.900000	1	1.271125
19.916667	1	1.167250
19.933333	1	1.076625
19.950000	1	0.997625
19.966667	1	0.929125
19.983333	1	0.869500
20.000000	1	0.819500
20.016667	1	0.777375
20.033333	1	0.742750
20.050000	1	0.715250
20.066667	1	0.693125
20.083333	1	0.677375
20.100000	1	0.666625
20.116667	1	0.660875
20.133333	1	0.659375
20.150000	1	0.661875
20.166667	1	0.667500
20.183333	1	0.676500
20.200000	1	0.687625
20.216667	1	0.699375
20.233333	1	0.712125
20.250000	1	0.725000
20.266667	1	0.736250
20.283333	1	0.746875
20.300000	1	0.755000
20.316667	1	0.760125
20.333333	1	0.762500
20.350000	1	0.760875
20.366667	1	0.756750
20.383333	1	0.749250
20.400000	1	0.738750
20.416667	1	0.726000
20.433333	1	0.710750
20.450000	1	0.694750
20.466667	1	0.678125
20.483333	1	0.662750
20.500000	1	0.648750
20.516667	1	0.637125
20.533333	1	0.628875
20.550000	1	0.624875
20.566667	1	0.626500
20.583333	1	0.634375
20.600000	1	0.649000
20.616667	1	0.671000
20.633333	1	0.701875
20.650000	1	0.741750
20.666667	1	0.789375
20.683333	1	0.844875
20.700000	1	0.909375
20.716667	1	0.980875
20.733333	1	1.058625
20.750000	1	1.140750
20.766667	1	1.225250
20.783333	1	1.309750
20.800000	1	1.391750
20.816667	1	1.468875
20.833333	1	1.538000
20.850000	1	1.597125
20.866667	1	1.643625
20.883333	1	1.676625
20.900000	1	1.695375
20.916667	1	1.698500
20.933333	1	1.687375
20.950000	1	1.661125
20.966667	1	1.622125
20.983333	1	1.572125
21.000000	1	1.512125
21.016667	1	1.445000
21.033333	1	1.372750
21.050000	1	1.297125
21.066667	1	1.220750
21.083333	1	1.145500
21.100000	1	1.072750
21.116667	1	1.003250
21.133333	1	0.937500
21.150000	1	0.876500
21.166667	1	0.820875
21.183333	1	0.770125
21.200000	1	0.724875
21.216667	1	0.684125
21.233333	1	0.648500
21.250000	1	0.616875
21.266667	1	0.589125
21.283333	1	0.565500
21.300000	1	0.545000
21.316667	1	0.527625
21.333333	1	0.512625
21.350000	1	0.500250
21.366667	1	0.489000
21.383333	1	0.480375
21.400000	1	0.472250
21.416667	1	0.465500
21.433333	1	0.460500
21.450000	1	0.455750
21.466667	1	0.451500
21.483333	1	0.447250
21.500000	1	0.444625
21.516667	1	0.443000
21.533333	1	0.441875
21.550000	1	0.441625
21.566667	1	0.441375
21.583333	1	0.443500
21.600000	1	0.445750
21.616667	1	0.449125
21.633333	1	0.454125
21.650000	1	0.460250
21.666667	1	0.468250
21.683333	1	0.478375
21.700000	1	0.489500
21.716667	1	0.502250
21.733333	1	0.517875
21.750000	1	0.533875
21.766667	1	0.552250
21.783333	1	0.571625
21.800000	1	0.591375
21.816667	1	0.613125
21.833333	1	0.635500
21.850000	1	0.658625
21.866667	1	0.680875
21.883333	1	0.702625
21.900000	1	0.723250
21.916667	1	0.742250
21.933333	1	0.759125
21.950000	1	0.774875
21.966667	1	0.788125
21.983333	1	0.799125
22.000000	1	0.807875
22.016667	1	0.813250
22.033333	1	0.815125
22.050000	1	0.815000
22.066667	1	0.813375
22.083333	1	0.808625
22.100000	1	0.801750
22.116667	1	0.792875
22.133333	1	0.783000
22.150000	1	0.771500
22.166667	1	0.758500
22.183333	1	0.745250
22.200000	1	0.730250
22.216667	1	0.714875
22.233333	1	0.699125
22.250000	1	0.682625
22.266667	1	0.664625
22.283333	1	0.646875
22.300000	1	0.628125
22.316667	1	0.609625
22.333333	1	0.591500
22.350000	1	0.573250
22.366667	1	0.555375
22.383333	1	0.537375
22.400000	1	0.520250
22.416667	1	0.503375
22.433333	1	0.487000
22.450000	1	0.471625
22.466667	1	0.457750
22.483333	1	0.444375
22.500000	1	0.431375
22.516667	1	0.420000
22.533333	1	0.408875
22.550000	1	0.398500
22.566667	1	0.389625
22.583333	1	0.380625
22.600000	1	0.372250
22.616667	1	0.364125
22.633333	1	0.357125
22.650000	1	0.350375
22.666667	1	0.343875
22.683333	1	0.338750
22.700000	1	0.332750
22.716667	1	0.327375
22.733333	1	0.321625
22.750000	1	0.316750
22.766667	1	0.312000
22.783333	1	0.307500
22.800000	1	0.302875
22.816667	1	0.298625
22.833333	1	0.294750
22.850000	1	0.290500
22.866667	1	0.287125
22.883333	1	0.283875
22.900000	1	0.281125
22.916667	1	0.278500
22.933333	1	0.276500
22.950000	1	0.275000
22.966667	1	0.273125
22.983333	1	0.272125
23.000000	1	0.272125
23.016667	1	0.272500
23.033333	1	0.273000
23.050000	1	0.273500
23.066667	1	0.274625
23.083333	1	0.276750
23.100000	1	0.279125
23.116667	1	0.281625
23.133333	1	0.284500
23.150000	1	0.286875
23.166667	1	0.289625
23.183333	1	0.292750
23.200000	1	0.295625
23.216667	1	0.299500
23.233333	1	0.303500
23.250000	1	0.307625
23.266667	1	0.312875
23.283333	1	0.319250
23.300000	1	0.327625
23.316667	1	0.337875
23.333333	1	0.350750
23.350000	1	0.367375
23.366667	1	0.388875
23.383333	1	0.415250
23.400000	1	0.448500
23.416667	1	0.490125
23.433333	1	0.541000
23.450000	1	0.603000
23.466667	1	0.678625
23.483333	1	0.770000
23.500000	1	0.878250
23.516667	1	1.006000
23.533333	1	1.154250
23.550000	1	1.327000
23.566667	1	1.523625
23.583333	1	1.745500
23.600000	1	1.992750
23.616667	1	2.264750
23.633333	1	2.559500
23.650000	1	2.875000
23.666667	1	3.206500
23.683333	1	3.550500
23.700000	1	3.902625
23.716667	1	4.255875
23.733333	1	4.603500
23.750000	1	4.937875
23.766667	1	5.250750
23.783333	1	5.535125
23.800000	1	5.783625
23.816667	1	5.990875
23.833333	1	6.152500
23.850000	1	6.264375
23.866667	1	6.323750
23.883333	1	6.331875
23.900000	1	6.288000
23.916667	1	6.194500
23.933333	1	6.055250
23.950000	1	5.874500
23.966667	1	5.658625
23.983333	1	5.412125
24.000000	1	5.142375
24.016667	1	4.855625
24.033333	1	4.559375
24.050000	1	4.257375
24.066667	1	3.955375
24.083333	1	3.657875
24.100000	1	3.368750
24.116667	1	3.090500
24.133333	1	2.825625
24.150000	1	2.576750
24.166667	1	2.343625
24.183333	1	2.127875
24.200000	1	1.930000
24.216667	1	1.749000
24.233333	1	1.584500
24.250000	1	1.435375
24.266667	1	1.301625
24.283333	1	1.181625
24.300000	1	1.075125
24.316667	1	0.980000
24.333333	1	0.896625
24.350000	1	0.822625
24.366667	1	0.759000
24.383333	1	0.703500
24.400000	1	0.655125
24.416667	1	0.614250
24.433333	1	0.578625
24.450000	1	0.548875
24.466667	1	0.524250
24.483333	1	0.503875
24.500000	1	0.486000
24.516667	1	0.470875
24.533333	1	0.458875
24.550000	1	0.448375
24.566667	1	0.439500
24.583333	1	0.432500
24.600000	1	0.425875
24.616667	1	0.419875
24.633333	1	0.413750
24.650000	1	0.408125
24.666667	1	0.402500
24.683333	1	0.397250
24.700000	1	0.391500
24.716667	1	0.384875
24.733333	1	0.378500
24.750000	1	0.372000
24.766667	1	0.366125
24.783333	1	0.360125
24.800000	1	0.353125
24.816667	1	0.346500
24.833333	1	0.339875
24.850000	1	0.333750
24.866667	1	0.328000
24.883333	1	0.322125
24.900000	1	0.317000
24.916667	1	0.311000
24.933333	1	0.306125
24.950000	1	0.301875
24.966667	1	0.298000
24.983333	1	0.295125
25.000000	1	0.291875
25.016667	1	0.288500
25.033333	1	0.286125
25.050000	1	0.283625
25.066667	1	0.282125
25.083333	1	0.280500
25.100000	1	0.278875
25.116667	1	0.277875
25.133333	1	0.277000
25.150000	1	0.276250
25.166667	1	0.275625
25.183333	1	0.274625
25.200000	1	0.274250
25.216667	1	0.273500
25.233333	1	0.273750
25.250000	1	0.273250
25.266667	1	0.273500
25.283333	1	0.273125
25.300000	1	0.273375
25.316667	1	0.273250
25.333333	1	0.273875
25.350000	1	0.273625
25.366667	1	0.274375
25.383333	1	0.274500
25.400000	1	0.275125
25.416667	1	0.275500
25.433333	1	0.276250
25.450000	1	0.277625
25.466667	1	0.278500
25.483333	1	0.280000
25.500000	1	0.281625
25.516667	1	0.283250
25.533333	1	0.284500
25.550000	1	0.286000
25.566667	1	0.286875
25.583333	1	0.288250
25.600000	1	0.289625
25.616667	1	0.290625
25.633333	1	0.291500
25.650000	1	0.292250
25.666667	1	0.293000
25.683333	1	0.294000
25.700000	1	0.294625
25.716667	1	0.294750
25.733333	1	0.294625
25.750000	1	0.294125
25.766667	1	0.294125
25.783333	1	0.293875
25.800000	1	0.293375
25.816667	1	0.292625
25.833333	1	0.292375
25.850000	1	0.291375
25.866667	1	0.290500
25.883333	1	0.290500
25.900000	1	0.290875
25.916667	1	0.291625
25.933333	1	0.292375
25.950000	1	0.292875
25.966667	1	0.294125
25.983333	1	0.296500
26.000000	1	0.298375
26.016667	1	0.300375
26.033333	1	0.303250
26.050000	1	0.306250
26.066667	1	0.310125
26.083333	1	0.314125
26.100000	1	0.317875
26.116667	1	0.321875
26.133333	1	0.325875
26.150000	1	0.329500
26.166667	1	0.333750
26.183333	1	0.338375
26.200000	1	0.342000
26.216667	1	0.344750
26.233333	1	0.347625
26.250000	1	0.350000
26.266667	1	0.351500
26.283333	1	0.353250
26.300000	1	0.354250
26.316667	1	0.353625
26.333333	1	0.352625
26.350000	1	0.351625
26.366667	1	0.350125
26.383333	1	0.347125
26.400000	1	0.343250
26.416667	1	0.339250
26.433333	1	0.335125
26.450000	1	0.329250
26.466667	1	0.323625
26.483333	1	0.318125
26.500000	1	0.311000
26.516667	1	0.304375
26.533333	1	0.297500
26.550000	1	0.289750
26.566667	1	0.282125
26.583333	1	0.274625
26.600000	1	0.267000
26.616667	1	0.259000
26.633333	1	0.252000
26.650000	1	0.244750
26.666667	1	0.237625
26.683333	1	0.231250
26.700000	1	0.225000
26.716667	1	0.219000
26.733333	1	0.213625
26.750000	1	0.209000
26.766667	1	0.204250
26.783333	1	0.200125
26.800000	1	0.196750
26.816667	1	0.193000
26.833333	1	0.191125
26.850000	1	0.189000
26.866667	1	0.188125
26.883333	1	0.187875
26.900000	1	0.187125
26.916667	1	0.186000
26.933333	1	0.186125
26.950000	1	0.187250
26.966667	1	0.188625
26.983333	1	0.190250
27.000000	1	0.192000
27.016667	1	0.194500
27.033333	1	0.198125
27.050000	1	0.201500
27.066667	1	0.206125
27.083333	1	0.211500
27.100000	1	0.217375
27.116667	1	0.224500
27.133333	1	0.232000
27.150000	1	0.240750
27.166667	1	0.251500
27.183333	1	0.264000
27.200000	1	0.278250
27.216667	1	0.293250
27.233333	1	0.311875
27.250000	1	0.333125
27.266667	1	0.357625
27.283333	1	0.386125
27.300000	1	0.419125
27.316667	1	0.456250
27.333333	1	0.500500
27.350000	1	0.550000
27.366667	1	0.607625
27.383333	1	0.673250
27.400000	1	0.747500
27.416667	1	0.831375
27.433333	1	0.926375
27.450000	1	1.032875
27.466667	1	1.151125
27.483333	1	1.281500
27.500000	1	1.424375
27.516667	1	1.580000
27.533333	1	1.747875
27.550000	1	1.927875
27.566667	1	2.118500
27.583333	1	2.319125
27.600000	1	2.528000
27.616667	1	2.743375
27.633333	1	2.963125
27.650000	1	3.185250
27.666667	1	3.405875
27.683333	1	3.623250
27.700000	1	3.832250
27.716667	1	4.029875
27.733333	1	4.213750
27.750000	1	4.379875
27.766667	1	4.526000
27.783333	1	4.648875
27.800000	1	4.745500
27.816667	1	4.813875
27.833333	1	4.853875
27.850000	1	4.864750
27.866667	1	4.843750
27.883333	1	4.793875
27.900000	1	4.714875
27.916667	1	4.608500
27.933333	1	4.477375
27.950000	1	4.323875
27.966667	1	4.151750
27.983333	1	3.963625
28.000000	1	3.763375
28.016667	1	3.554125
28.033333	1	3.338875
28.050000	1	3.119875
28.066667	1	2.901500
28.083333	1	2.686750
28.100000	1	2.477625
28.116667	1	2.277125
28.133333	1	2.085375
28.150000	1	1.903500
28.166667	1	1.733375
28.183333	1	1.575375
28.200000	1	1.429500
28.216667	1	1.295500
28.233333	1	1.173625
28.250000	1	1.063375
28.266667	1	0.963500
28.283333	1	0.874125
28.300000	1	0.795000
28.316667	1	0.725750
28.333333	1	0.664500
28.350000	1	0.611875
28.366667	1	0.566125
28.383333	1	0.527500
28.400000	1	0.494500
28.416667	1	0.468125
28.433333	1	0.447125
28.450000	1	0.431125
28.466667	1	0.419125
28.483333	1	0.410375
28.500000	1	0.405125
28.516667	1	0.403375
28.533333	1	0.404375
28.550000	1	0.407375
28.566667	1	0.413000
28.583333	1	0.420125
28.600000	1	0.428750
28.616667	1	0.437625
28.633333	1	0.448250
28.650000	1	0.459250
28.666667	1	0.472125
28.683333	1	0.484625
28.700000	1	0.497500
28.716667	1	0.509125
28.733333	1	0.520375
28.750000	1	0.531500
28.766667	1	0.542625
28.783333	1	0.552500
28.800000	1	0.561750
28.816667	1	0.569875
28.833333	1	0.577125
28.850000	1	0.583125
28.866667	1	0.588375
28.883333	1	0.591750
28.900000	1	0.594500
28.916667	1	0.595625
28.933333	1	0.595625
28.950000	1	0.593875
28.966667	1	0.591375
28.983333	1	0.587625
29.000000	1	0.582375
29.016667	1	0.576000
29.033333	1	0.568750
29.050000	1	0.560375
29.066667	1	0.550500
29.083333	1	0.540375
29.100000	1	0.529125
29.116667	1	0.517125
29.133333	1	0.504250
29.150000	1	0.491250
29.166667	1	0.477250
29.183333	1	0.463250
29.200000	1	0.449125
29.216667	1	0.434500
29.233333	1	0.419625
29.250000	1	0.404750
29.266667	1	0.390375
29.283333	1	0.375375
29.300000	1	0.360625
29.316667	1	0.346000
29.333333	1	0.331875
29.350000	1	0.317500
29.366667	1	0.304250
29.383333	1	0.291500
29.400000	1	0.279250
29.416667	1	0.267250
29.433333	1	0.255625
29.450000	1	0.244250
29.466667	1	0.233500
29.483333	1	0.223250
29.500000	1	0.212875
29.516667	1	0.203500
29.533333	1	0.195500
29.550000	1	0.187625
29.566667	1	0.179625
29.583333	1	0.173000
29.600000	1	0.166125
29.616667	1	0.160000
29.633333	1	0.155000
29.650000	1	0.150250
29.666667	1	0.145500
29.683333	1	0.141250
29.700000	1	0.137000
29.716667	1	0.133125
29.733333	1	0.129875
29.750000	1	0.126500
29.766667	1	0.123625
29.783333	1	0.121500
29.800000	1	0.119500
29.816667	1	0.117500
29.833333	1	0.116375
29.850000	1	0.114500
29.866667	1	0.113375
29.883333	1	0.111875
29.900000	1	0.111125
29.916667	1	0.109875
29.933333	1	0.108875
29.950000	1	0.108250
29.966667	1	0.108000
29.983333	1	0.108000
30.000000	1	0.108125
30.016667	1	0.107250
30.033333	1	0.107125
30.050000	1	0.106875
30.066667	1	0.106875
30.083333	1	0.106875
30.100000	1	0.106750
30.116667	1	0.106875
30.133333	1	0.106500
30.150000	1	0.107000
30.166667	1	0.107375
30.183333	1	0.107750
30.200000	1	0.108000
30.216667	1	0.108625
30.233333	1	0.108875
30.250000	1	0.109750
30.266667	1	0.109875
30.283333	1	0.110625
30.300000	1	0.112125
30.316667	1	0.113375
30.333333	1	0.115000
30.350000	1	0.116125
30.366667	1	0.117250
30.383333	1	0.117750
30.400000	1	0.119625
30.416667	1	0.121625
30.433333	1	0.122875
30.450000	1	0.124125
30.466667	1	0.126250
30.483333	1	0.128375
30.500000	1	0.130875
30.516667	1	0.134375
30.533333	1	0.137375
30.550000	1	0.139875
30.566667	1	0.143625
30.583333	1	0.146875
30.600000	1	0.151000
30.616667	1	0.155375
30.633333	1	0.159625
30.650000	1	0.165625
30.666667	1	0.171750
30.683333	1	0.178500
30.700000	1	0.184875
30.716667	1	0.192125
30.733333	1	0.198875
30.750000	1	0.206625
30.766667	1	0.215125
30.783333	1	0.224000
30.800000	1	0.233750
30.816667	1	0.244250
30.833333	1	0.255750
30.850000	1	0.268125
30.866667	1	0.280750
30.883333	1	0.294500
30.900000	1	0.310000
30.916667	1	0.326375
30.933333	1	0.343875
30.950000	1	0.363625
30.966667	1	0.385250
30.983333	1	0.409750
31.000000	1	0.436375
31.016667	1	0.466000
31.033333	1	0.498875
31.050000	1	0.536000
31.066667	1	0.576500
31.083333	1	0.621750
31.100000	1	0.671750
31.116667	1	0.727000
31.133333	1	0.787875
31.150000	1	0.854125
31.166667	1	0.926500
31.183333	1	1.005375
31.200000	1	1.090750
31.216667	1	1.183000
31.233333	1	1.281750
31.250000	1	1.386250
31.266667	1	1.495875
31.283333	1	1.610750
31.300000	1	1.729125
31.316667	1	1.850625
31.333333	1	1.973625
31.350000	1	2.098625
31.366667	1	2.223375
31.383333	1	2.346250
31.400000	1	2.466875
31.416667	1	2.582875
31.433333	1	2.693125
31.450000	1	2.795250
31.466667	1	2.889250
31.483333	1	2.972250
31.500000	1	3.044250
31.516667	1	3.103125
31.533333	1	3.148750
31.550000	1	3.181375
31.566667	1	3.200000
31.583333	1	3.203750
31.600000	1	3.193375
31.616667	1	3.168500
31.633333	1	3.131000
31.650000	1	3.080625
31.666667	1	3.018375
31.683333	1	2.945625
31.700000	1	2.863375
31.716667	1	2.772375
31.733333	1	2.675000
31.750000	1	2.571625
31.766667	1	2.464375
31.783333	1	2.354000
31.800000	1	2.241000
31.816667	1	2.127500
31.833333	1	2.014125
31.850000	1	1.900500
31.866667	1	1.790375
31.883333	1	1.683125
31.900000	1	1.579375
31.916667	1	1.479375
31.933333	1	1.383625
31.950000	1	1.292875
31.966667	1	1.207125
31.983333	1	1.126125
32.000000	1	1.049250
32.016667	1	0.977750
32.033333	1	0.910375
32.050000	1	0.847875
32.066667	1	0.789750
32.083333	1	0.734625
32.100000	1	0.684250
32.116667	1	0.637000
32.133333	1	0.593750
32.150000	1	0.552750
32.166667	1	0.515000
32.183333	1	0.479875
32.200000	1	0.447750
32.216667	1	0.417500
32.233333	1	0.389125
32.250000	1	0.362750
32.266667	1	0.338125
32.283333	1	0.314375
32.300000	1	0.293000
32.316667	1	0.272500
32.333333	1	0.252500
32.350000	1	0.234375
32.366667	1	0.218375
32.383333	1	0.204000
32.400000	1	0.189750
32.416667	1	0.177000
32.433333	1	0.165375
32.450000	1	0.154125
32.466667	1	0.142875
32.483333	1	0.133000
32.500000	1	0.124000
32.516667	1	0.115625
32.533333	1	0.107875
32.550000	1	0.101500
32.566667	1	0.095000
32.583333	1	0.089000
32.600000	1	0.084250
32.616667	1	0.079000
32.633333	1	0.073375
32.650000	1	0.068375
32.666667	1	0.063625
32.683333	1	0.059375
32.700000	1	0.055625
32.716667	1	0.051750
32.733333	1	0.047500
32.750000	1	0.043875
32.766667	1	0.040000
32.783333	1	0.036375
32.800000	1	0.033375
32.816667	1	0.029625
32.833333	1	0.026000
32.850000	1	0.021875
32.866667	1	0.018875
32.883333	1	0.015625
32.900000	1	0.012000
32.916667	1	0.008750
32.933333	1	0.005875
32.950000	1	0.002500
32.966667	1	0.000000
32.983333	1	-0.003000
33.000000	1	-0.006000
33.016667	1	-0.008625
33.033333	1	-0.011125
33.050000	1	-0.013625
33.066667	1	-0.016250
33.083333	1	-0.019125
33.100000	1	-0.020750
33.116667	1	-0.022375
33.133333	1	-0.024000
33.150000	1	-0.025000
33.166667	1	-0.026750
33.183333	1	-0.027875
33.200000	1	-0.028000
33.216667	1	-0.028750
33.233333	1	-0.029250
33.250000	1	-0.029000
33.266667	1	-0.028625
33.283333	1	-0.027875
33.300000	1	-0.026750
33.316667	1	-0.025000
33.333333	1	-0.023750
33.350000	1	-0.022250
33.366667	1	-0.020250
33.383333	1	-0.017875
33.400000	1	-0.014875
33.416667	1	-0.012250
33.433333	1	-0.009625
33.450000	1	-0.007000
33.466667	1	-0.003875
33.483333	1	-0.000500
33.500000	1	0.003000
33.516667	1	0.006875
33.533333	1	0.011000
33.550000	1	0.014875
33.566667	1	0.019000
33.583333	1	0.023000
33.600000	1	0.027000
33.616667	1	0.031625
33.633333	1	0.036000
33.650000	1	0.039375
33.666667	1	0.043250
33.683333	1	0.047750
33.700000	1	0.052125
33.716667	1	0.056500
33.733333	1	0.060500
33.750000	1	0.064125
33.766667	1	0.067875
33.783333	1	0.071375
33.800000	1	0.075250
33.816667	1	0.078250
33.833333	1	0.081125
33.850000	1	0.084000
33.866667	1	0.087000
33.883333	1	0.089625
33.900000	1	0.092000
33.916667	1	0.094500
33.933333	1	0.096000
33.950000	1	0.098000
33.966667	1	0.098875
33.983333	1	0.100625
34.000000	1	0.101125
34.016667	1	0.101750
34.033333	1	0.103000
34.050000	1	0.103250
34.066667	1	0.103000
34.083333	1	0.102875
34.100000	1	0.102750
34.116667	1	0.102500
34.133333	1	0.102500
34.150000	1	0.102125
34.166667	1	0.101375
34.183333	1	0.100875
34.200000	1	0.100250
34.216667	1	0.099125
34.233333	1	0.097875
34.250000	1	0.097125
34.266667	1	0.095625
34.283333	1	0.095000
34.300000	1	0.094625
34.316667	1	0.094000
34.333333	1	0.093875
34.350000	1	0.093750
34.366667	1	0.094375
34.383333	1	0.094875
34.400000	1	0.095125
34.416667	1	0.095500
34.433333	1	0.096125
34.450000	1	0.096500
34.466667	1	0.097250
34.483333	1	0.098125
34.500000	1	0.097625
34.516667	1	0.098250
34.533333	1	0.099125
34.550000	1	0.099375
34.566667	1	0.101375
34.583333	1	0.102750
34.600000	1	0.103500
34.616667	1	0.104375
34.633333	1	0.104875
34.650000	1	0.105750
34.666667	1	0.106750
34.683333	1	0.107625
34.700000	1	0.107875
34.716667	1	0.108125
34.733333	1	0.108500
34.750000	1	0.109875
34.766667	1	0.109625
34.783333	1	0.109750
34.800000	1	0.109000
34.816667	1	0.108750
34.833333	1	0.107875
34.850000	1	0.107750
34.866667	1	0.107125
34.883333	1	0.106750
34.900000	1	0.106375
34.916667	1	0.105125
34.933333	1	0.104250
34.950000	1	0.104000
34.966667	1	0.103125
34.983333	1	0.102500
35.000000	1	0.101750
35.016667	1	0.100375
35.033333	1	0.099625
35.050000	1	0.098875
35.066667	1	0.098125
35.083333	1	0.097500
35.100000	1	0.097250
35.116667	1	0.097250
35.133333	1	0.097000
35.150000	1	0.096875
35.166667	1	0.096750
35.183333	1	0.097375
35.200000	1	0.097375
35.216667	1	0.097375
35.233333	1	0.097750
35.250000	1	0.099000
35.266667	1	0.100125
35.283333	1	0.100750
35.300000	1	0.102000
35.316667	1	0.103500
35.333333	1	0.104875
35.350000	1	0.105875
35.366667	1	0.108000
35.383333	1	0.109375
35.400000	1	0.110750
35.416667	1	0.112250
35.433333	1	0.114625
35.450000	1	0.116375
35.466667	1	0.117500
35.483333	1	0.119500
35.500000	1	0.121375
35.516667	1	0.123500
35.533333	1	0.126250
35.550000	1	0.127875
35.566667	1	0.129875
35.583333	1	0.132750
35.600000	1	0.134125
35.616667	1	0.136250
35.633333	1	0.137750
35.650000	1	0.139250
35.666667	1	0.140500
35.683333	1	0.141875
35.700000	1	0.143500
35.716667	1	0.145000
35.733333	1	0.146500
35.750000	1	0.147750
35.766667	1	0.149125
35.783333	1	0.150000
35.800000	1	0.150750
35.816667	1	0.151375
35.833333	1	0.152250
35.850000	1	0.152750
35.866667	1	0.152875
35.883333	1	0.153250
35.900000	1	0.152375
35.916667	1	0.152000
35.933333	1	0.151625
35.950000	1	0.151500
35.966667	1	0.151375
35.983333	1	0.150500
36.000000	1	0.149500
36.016667	1	0.149375
36.033333	1	0.148125
36.050000	1	0.146750
36.066667	1	0.145750
36.083333	1	0.145125
36.100000	1	0.143750
36.116667	1	0.142375
36.133333	1	0.141000
36.150000	1	0.139500
36.166667	1	0.137750
36.183333	1	0.135875
36.200000	1	0.134750
36.216667	1	0.133500
36.233333	1	0.132625
36.250000	1	0.130750
36.266667	1	0.129000
36.283333	1	0.127375
36.300000	1	0.126500
36.316667	1	0.124625
36.333333	1	0.123250
36.350000	1	0.121250
36.366667	1	0.119625
36.383333	1	0.118125
36.400000	1	0.116625
36.416667	1	0.115375
36.433333	1	0.113750
36.450000	1	0.112625
36.466667	1	0.110750
36.483333	1	0.108875
36.500000	1	0.107000
36.516667	1	0.105625
36.533333	1	0.103125
36.550000	1	0.102000
36.566667	1	0.100500
36.583333	1	0.096625
36.600000	1	0.094500
36.616667	1	0.092125
36.633333	1	0.089500
36.650000	1	0.087750
36.666667	1	0.085750
36.683333	1	0.083250
36.700000	1	0.081000
36.716667	1	0.078875
36.733333	1	0.076125
36.750000	1	0.073625
36.766667	1	0.070875
36.783333	1	0.068375
36.800000	1	0.066750
36.816667	1	0.063625
36.833333	1	0.061000
36.850000	1	0.058875
36.866667	1	0.056875
36.883333	1	0.055125
36.900000	1	0.053375
36.916667	1	0.051375
36.933333	1	0.049750
36.950000	1	0.048000
36.966667	1	0.046500
36.983333	1	0.045125
37.000000	1	0.044000
37.016667	1	0.043250
37.033333	1	0.042375
37.050000	1	0.041125
37.066667	1	0.040000
37.083333	1	0.039500
37.100000	1	0.040000
37.116667	1	0.039875
37.133333	1	0.040250
37.150000	1	0.041000
37.166667	1	0.040750
37.183333	1	0.041375
37.200000	1	0.041000
37.216667	1	0.041250
37.233333	1	0.041750
37.250000	1	0.042500
37.266667	1	0.042500
37.283333	1	0.042875
37.300000	1	0.044000
37.316667	1	0.044875
37.333333	1	0.045500
37.350000	1	0.045500
37.366667	1	0.046125
37.383333	1	0.046625
37.400000	1	0.046500
37.416667	1	0.047000
37.433333	1	0.046750
37.450000	1	0.046625
37.466667	1	0.046000
37.483333	1	0.045750
37.500000	1	0.044750
37.516667	1	0.044000
37.533333	1	0.043250
37.550000	1	0.043125
37.566667	1	0.042375
37.583333	1	0.041625
37.600000	1	0.040250
37.616667	1	0.038625
37.633333	1	0.037375
37.650000	1	0.036750
37.666667	1	0.035500
37.683333	1	0.033750
37.700000	1	0.032375
37.716667	1	0.030875
37.733333	1	0.029500
37.750000	1	0.027875
37.766667	1	0.026125
37.783333	1	0.024250
37.800000	1	0.022250
37.816667	1	0.020125
37.833333	1	0.018625
37.850000	1	0.016375
37.866667	1	0.015500
37.883333	1	0.014000
37.900000	1	0.012750
37.916667	1	0.011750
37.933333	1	0.010125
37.950000	1	0.008625
37.966667	1	0.006625
37.983333	1	0.005000
38.000000	1	0.003625
38.016667	1	0.002750
38.033333	1	0.001500
38.050000	1	0.000125
38.066667	1	0.000000
38.083333	1	0.000000
38.100000	1	-0.000250
38.116667	1	-0.000625
38.133333	1	-0.000375
38.150000	1	-0.000500
38.166667	1	-0.000625
38.183333	1	-0.000625
38.200000	1	0.000000
38.216667	1	0.000625
38.233333	1	0.000750
38.250000	1	0.001375
38.266667	1	0.003000
38.283333	1	0.004125
38.300000	1	0.004750
38.316667	1	0.005500
38.333333	1	0.006375
38.350000	1	0.008500
38.366667	1	0.009625
38.383333	1	0.010500
38.400000	1	0.011750
38.416667	1	0.013625
38.433333	1	0.015500
38.450000	1	0.016875
38.466667	1	0.017750
38.483333	1	0.019125
38.500000	1	0.021250
38.516667	1	0.022125
38.533333	1	0.023250
38.550000	1	0.024750
38.566667	1	0.026500
38.583333	1	0.027875
38.600000	1	0.029000
38.616667	1	0.031250
38.633333	1	0.032375
38.650000	1	0.033750
38.666667	1	0.034750
38.683333	1	0.036000
38.700000	1	0.037750
38.716667	1	0.039000
38.733333	1	0.040250
38.750000	1	0.041625
38.766667	1	0.042625
38.783333	1	0.043250
38.800000	1	0.044375
38.816667	1	0.045625
38.833333	1	0.047375
38.850000	1	0.048875
38.866667	1	0.050125
38.883333	1	0.051625
38.900000	1	0.052375
38.916667	1	0.053125
38.933333	1	0.053750
38.950000	1	0.054750
38.966667	1	0.055000
38.983333	1	0.055375
39.000000	1	0.055750
39.016667	1	0.056250
39.033333	1	0.056625
39.050000	1	0.057375
39.066667	1	0.057250
39.083333	1	0.056750
39.100000	1	0.056375
39.116667	1	0.056500
39.133333	1	0.055750
39.150000	1	0.055000
39.166667	1	0.053625
39.183333	1	0.053750
39.200000	1	0.053000
39.216667	1	0.051375
39.233333	1	0.050250
39.250000	1	0.048500
39.266667	1	0.047500
39.283333	1	0.046375
39.300000	1	0.045625
39.316667	1	0.044375
39.333333	1	0.042375
39.350000	1	0.040750
39.366667	1	0.039000
39.383333	1	0.037875
39.400000	1	0.036250
39.416667	1	0.034625
39.433333	1	0.033125
39.450000	1	0.032000
39.466667	1	0.030750
39.483333	1	0.029375
39.500000	1	0.028375
39.516667	1	0.027500
39.533333	1	0.026125
39.550000	1	0.025000
39.566667	1	0.023625
39.583333	1	0.022750
39.600000	1	0.021500
39.616667	1	0.020250
39.633333	1	0.019625
39.650000	1	0.018375
39.666667	1	0.017750
39.683333	1	0.017625
39.700000	1	0.017375
39.716667	1	0.016375
39.733333	1	0.015500
39.750000	1	0.015500
39.766667	1	0.014750
39.783333	1	0.014125
39.800000	1	0.013500
39.816667	1	0.013125
39.833333	1	0.013000
39.850000	1	0.013750
39.866667	1	0.013625
39.883333	1	0.013625
39.900000	1	0.012875
39.916667	1	0.011875
39.933333	1	0.011500
39.950000	1	0.011375
39.966667	1	0.010625
39.983333	1	0.009375
40.000000	1	0.008500
