URL	chrom://bioreactor/micro_cm7/HPLC_Ultimate_3000/Users/markusar/20240716_MA_pHrange2.seq/654.smp/RI_1.channel/RI_1.chm
Channel	RI_1

Injection Information:
Data Vault	micro_cm7
Sequence	20240716_MA_pHrange2
Name	Pv2_40H_4
Number	21
Position	BB9
Comment	
Processing Method	
Instrument Method	run_25B_method
Type	Unknown
Status	Finished
Inject Time	17.07.2024 07:45:53 +02:00
Volume (µl)	20.0000
Dilution Factor	1.0000
Weight	1.0000

Chromatogram Data Information:
Time Min. (min)	0.000000
Time Max. (min)	40.000000
Data Points	2401
Detector	RI
Generating Data System	Chromeleon 7.3.2.11814
Exporting Data System	Chromeleon 7.3.2.0
Operator	Instrument Controller
Signal Quantity	Refractive 
Signal Unit	µRIU
Signal Min.	-0.246125
Signal Max.	105.451375
Channel	RI_1
Driver Name	RID520Driver.dll
Channel Type	Evaluation
Min. Step (s)	1
Max. Step (s)	1
Average Step (s)	1

Signal Parameter Information:
Signal Info	

Chromatogram Data:
Time (min)	Step (s)	Value (µRIU)
0.000000	n.a.	0.078750
0.016667	1	0.078625
0.033333	1	0.079375
0.050000	1	0.079750
0.066667	1	0.080125
0.083333	1	0.080750
0.100000	1	0.080500
0.116667	1	0.081375
0.133333	1	0.081875
0.150000	1	0.082625
0.166667	1	0.083250
0.183333	1	0.083625
0.200000	1	0.084375
0.216667	1	0.084625
0.233333	1	0.085125
0.250000	1	0.085875
0.266667	1	0.086500
0.283333	1	0.087000
0.300000	1	0.088125
0.316667	1	0.088750
0.333333	1	0.089625
0.350000	1	0.090250
0.366667	1	0.090250
0.383333	1	0.090625
0.400000	1	0.090750
0.416667	1	0.091500
0.433333	1	0.092750
0.450000	1	0.094500
0.466667	1	0.097375
0.483333	1	0.099625
0.500000	1	0.101250
0.516667	1	0.101875
0.533333	1	0.102875
0.550000	1	0.102000
0.566667	1	0.100375
0.583333	1	0.098250
0.600000	1	0.096125
0.616667	1	0.094500
0.633333	1	0.092625
0.650000	1	0.091250
0.666667	1	0.090375
0.683333	1	0.088875
0.700000	1	0.087375
0.716667	1	0.085250
0.733333	1	0.083250
0.750000	1	0.081125
0.766667	1	0.078500
0.783333	1	0.075375
0.800000	1	0.072500
0.816667	1	0.069125
0.833333	1	0.065625
0.850000	1	0.062125
0.866667	1	0.058500
0.883333	1	0.055375
0.900000	1	0.052125
0.916667	1	0.049000
0.933333	1	0.045375
0.950000	1	0.042000
0.966667	1	0.038750
0.983333	1	0.035625
1.000000	1	0.032625
1.016667	1	0.029625
1.033333	1	0.027000
1.050000	1	0.024625
1.066667	1	0.022125
1.083333	1	0.019625
1.100000	1	0.018125
1.116667	1	0.017000
1.133333	1	0.016000
1.150000	1	0.015625
1.166667	1	0.014750
1.183333	1	0.014125
1.200000	1	0.013875
1.216667	1	0.013875
1.233333	1	0.013500
1.250000	1	0.014875
1.266667	1	0.015500
1.283333	1	0.016625
1.300000	1	0.017375
1.316667	1	0.018625
1.333333	1	0.020375
1.350000	1	0.021125
1.366667	1	0.021625
1.383333	1	0.022625
1.400000	1	0.024125
1.416667	1	0.025375
1.433333	1	0.026375
1.450000	1	0.027000
1.466667	1	0.027000
1.483333	1	0.026875
1.500000	1	0.027375
1.516667	1	0.027875
1.533333	1	0.027000
1.550000	1	0.026750
1.566667	1	0.025500
1.583333	1	0.024500
1.600000	1	0.022500
1.616667	1	0.021125
1.633333	1	0.019125
1.650000	1	0.017250
1.666667	1	0.014750
1.683333	1	0.012500
1.700000	1	0.009125
1.716667	1	0.005875
1.733333	1	0.003000
1.750000	1	0.000000
1.766667	1	-0.002875
1.783333	1	-0.005875
1.800000	1	-0.008125
1.816667	1	-0.011250
1.833333	1	-0.013750
1.850000	1	-0.016000
1.866667	1	-0.017750
1.883333	1	-0.019375
1.900000	1	-0.020625
1.916667	1	-0.022875
1.933333	1	-0.024000
1.950000	1	-0.025250
1.966667	1	-0.026625
1.983333	1	-0.026750
2.000000	1	-0.026750
2.016667	1	-0.026375
2.033333	1	-0.026000
2.050000	1	-0.025500
2.066667	1	-0.024000
2.083333	1	-0.023125
2.100000	1	-0.021250
2.116667	1	-0.019750
2.133333	1	-0.018875
2.150000	1	-0.018500
2.166667	1	-0.016750
2.183333	1	-0.015125
2.200000	1	-0.013625
2.216667	1	-0.012500
2.233333	1	-0.011125
2.250000	1	-0.009000
2.266667	1	-0.007375
2.283333	1	-0.006500
2.300000	1	-0.005125
2.316667	1	-0.004250
2.333333	1	-0.003750
2.350000	1	-0.003625
2.366667	1	-0.003500
2.383333	1	-0.003500
2.400000	1	-0.003375
2.416667	1	-0.003125
2.433333	1	-0.003500
2.450000	1	-0.004125
2.466667	1	-0.004750
2.483333	1	-0.005000
2.500000	1	-0.005750
2.516667	1	-0.006250
2.533333	1	-0.007375
2.550000	1	-0.007750
2.566667	1	-0.008375
2.583333	1	-0.009000
2.600000	1	-0.009625
2.616667	1	-0.010125
2.633333	1	-0.009875
2.650000	1	-0.009750
2.666667	1	-0.009875
2.683333	1	-0.009000
2.700000	1	-0.008125
2.716667	1	-0.008125
2.733333	1	-0.007500
2.750000	1	-0.007625
2.766667	1	-0.006625
2.783333	1	-0.005625
2.800000	1	-0.004125
2.816667	1	-0.002750
2.833333	1	-0.001125
2.850000	1	0.001000
2.866667	1	0.003750
2.883333	1	0.006000
2.900000	1	0.008500
2.916667	1	0.010625
2.933333	1	0.012375
2.950000	1	0.014625
2.966667	1	0.016875
2.983333	1	0.019625
3.000000	1	0.022000
3.016667	1	0.024375
3.033333	1	0.026500
3.050000	1	0.029250
3.066667	1	0.031750
3.083333	1	0.034500
3.100000	1	0.036500
3.116667	1	0.038250
3.133333	1	0.040625
3.150000	1	0.042375
3.166667	1	0.044250
3.183333	1	0.046000
3.200000	1	0.048375
3.216667	1	0.050125
3.233333	1	0.051875
3.250000	1	0.053750
3.266667	1	0.055000
3.283333	1	0.056875
3.300000	1	0.057875
3.316667	1	0.059000
3.333333	1	0.060500
3.350000	1	0.061875
3.366667	1	0.063000
3.383333	1	0.064000
3.400000	1	0.065250
3.416667	1	0.066250
3.433333	1	0.067875
3.450000	1	0.069125
3.466667	1	0.070500
3.483333	1	0.071625
3.500000	1	0.072625
3.516667	1	0.073375
3.533333	1	0.074500
3.550000	1	0.076000
3.566667	1	0.077375
3.583333	1	0.078375
3.600000	1	0.080125
3.616667	1	0.081875
3.633333	1	0.083250
3.650000	1	0.084500
3.666667	1	0.086000
3.683333	1	0.087625
3.700000	1	0.089875
3.716667	1	0.091500
3.733333	1	0.092875
3.750000	1	0.094750
3.766667	1	0.096500
3.783333	1	0.098625
3.800000	1	0.101250
3.816667	1	0.103625
3.833333	1	0.105375
3.850000	1	0.107375
3.866667	1	0.108500
3.883333	1	0.110250
3.900000	1	0.112500
3.916667	1	0.114250
3.933333	1	0.115500
3.950000	1	0.116625
3.966667	1	0.118000
3.983333	1	0.119000
4.000000	1	0.120250
4.016667	1	0.121125
4.033333	1	0.122250
4.050000	1	0.122750
4.066667	1	0.122750
4.083333	1	0.123125
4.100000	1	0.123500
4.116667	1	0.122875
4.133333	1	0.122250
4.150000	1	0.121500
4.166667	1	0.120750
4.183333	1	0.120250
4.200000	1	0.119000
4.216667	1	0.117875
4.233333	1	0.116875
4.250000	1	0.115500
4.266667	1	0.114125
4.283333	1	0.112250
4.300000	1	0.111250
4.316667	1	0.109750
4.333333	1	0.108250
4.350000	1	0.107750
4.366667	1	0.107000
4.383333	1	0.105875
4.400000	1	0.105125
4.416667	1	0.105000
4.433333	1	0.104625
4.450000	1	0.105250
4.466667	1	0.106125
4.483333	1	0.106875
4.500000	1	0.107625
4.516667	1	0.108500
4.533333	1	0.109250
4.550000	1	0.110750
4.566667	1	0.112375
4.583333	1	0.114875
4.600000	1	0.117125
4.616667	1	0.120375
4.633333	1	0.123125
4.650000	1	0.125000
4.666667	1	0.128250
4.683333	1	0.131375
4.700000	1	0.133875
4.716667	1	0.137375
4.733333	1	0.140750
4.750000	1	0.144125
4.766667	1	0.147375
4.783333	1	0.150625
4.800000	1	0.154750
4.816667	1	0.157875
4.833333	1	0.160875
4.850000	1	0.164375
4.866667	1	0.167875
4.883333	1	0.172000
4.900000	1	0.175500
4.916667	1	0.178875
4.933333	1	0.182000
4.950000	1	0.185375
4.966667	1	0.189625
4.983333	1	0.193750
5.000000	1	0.198000
5.016667	1	0.202125
5.033333	1	0.206250
5.050000	1	0.210625
5.066667	1	0.214750
5.083333	1	0.218875
5.100000	1	0.223500
5.116667	1	0.228375
5.133333	1	0.231750
5.150000	1	0.236250
5.166667	1	0.240125
5.183333	1	0.244000
5.200000	1	0.247500
5.216667	1	0.251500
5.233333	1	0.254250
5.250000	1	0.257250
5.266667	1	0.260250
5.283333	1	0.262125
5.300000	1	0.263500
5.316667	1	0.265375
5.333333	1	0.266375
5.350000	1	0.267625
5.366667	1	0.268000
5.383333	1	0.267875
5.400000	1	0.267500
5.416667	1	0.266625
5.433333	1	0.265500
5.450000	1	0.263750
5.466667	1	0.261375
5.483333	1	0.259250
5.500000	1	0.256250
5.516667	1	0.253375
5.533333	1	0.250125
5.550000	1	0.246750
5.566667	1	0.242750
5.583333	1	0.238625
5.600000	1	0.234750
5.616667	1	0.230125
5.633333	1	0.225625
5.650000	1	0.221375
5.666667	1	0.216500
5.683333	1	0.211500
5.700000	1	0.206375
5.716667	1	0.201375
5.733333	1	0.196625
5.750000	1	0.191750
5.766667	1	0.187500
5.783333	1	0.182875
5.800000	1	0.178000
5.816667	1	0.173625
5.833333	1	0.168875
5.850000	1	0.164250
5.866667	1	0.160500
5.883333	1	0.156625
5.900000	1	0.153125
5.916667	1	0.148625
5.933333	1	0.144875
5.950000	1	0.141375
5.966667	1	0.139125
5.983333	1	0.136375
6.000000	1	0.133500
6.016667	1	0.131000
6.033333	1	0.128625
6.050000	1	0.126125
6.066667	1	0.123750
6.083333	1	0.121500
6.100000	1	0.119500
6.116667	1	0.118000
6.133333	1	0.116750
6.150000	1	0.115250
6.166667	1	0.113250
6.183333	1	0.111375
6.200000	1	0.109625
6.216667	1	0.107500
6.233333	1	0.105750
6.250000	1	0.103625
6.266667	1	0.101750
6.283333	1	0.099625
6.300000	1	0.098250
6.316667	1	0.096750
6.333333	1	0.095000
6.350000	1	0.093375
6.366667	1	0.092125
6.383333	1	0.090125
6.400000	1	0.088500
6.416667	1	0.088250
6.433333	1	0.087375
6.450000	1	0.086125
6.466667	1	0.085375
6.483333	1	0.084500
6.500000	1	0.084125
6.516667	1	0.084000
6.533333	1	0.084250
6.550000	1	0.085125
6.566667	1	0.086000
6.583333	1	0.087125
6.600000	1	0.088375
6.616667	1	0.089875
6.633333	1	0.091750
6.650000	1	0.094375
6.666667	1	0.096625
6.683333	1	0.099625
6.700000	1	0.102750
6.716667	1	0.106750
6.733333	1	0.110125
6.750000	1	0.113875
6.766667	1	0.117750
6.783333	1	0.121500
6.800000	1	0.125375
6.816667	1	0.130625
6.833333	1	0.134375
6.850000	1	0.138500
6.866667	1	0.142500
6.883333	1	0.146375
6.900000	1	0.149875
6.916667	1	0.152375
6.933333	1	0.155875
6.950000	1	0.159250
6.966667	1	0.161625
6.983333	1	0.164125
7.000000	1	0.166375
7.016667	1	0.167750
7.033333	1	0.169750
7.050000	1	0.170875
7.066667	1	0.171750
7.083333	1	0.172375
7.100000	1	0.172250
7.116667	1	0.171875
7.133333	1	0.171125
7.150000	1	0.170125
7.166667	1	0.169250
7.183333	1	0.167500
7.200000	1	0.165625
7.216667	1	0.163250
7.233333	1	0.160250
7.250000	1	0.157250
7.266667	1	0.154125
7.283333	1	0.151125
7.300000	1	0.147625
7.316667	1	0.144750
7.333333	1	0.140625
7.350000	1	0.137500
7.366667	1	0.134000
7.383333	1	0.130250
7.400000	1	0.126250
7.416667	1	0.122250
7.433333	1	0.118625
7.450000	1	0.115000
7.466667	1	0.111000
7.483333	1	0.106750
7.500000	1	0.102875
7.516667	1	0.098750
7.533333	1	0.095375
7.550000	1	0.091125
7.566667	1	0.087375
7.583333	1	0.083375
7.600000	1	0.079500
7.616667	1	0.075500
7.633333	1	0.072000
7.650000	1	0.068125
7.666667	1	0.065625
7.683333	1	0.061625
7.700000	1	0.057875
7.716667	1	0.053750
7.733333	1	0.050375
7.750000	1	0.047500
7.766667	1	0.044375
7.783333	1	0.041500
7.800000	1	0.039000
7.816667	1	0.036250
7.833333	1	0.033375
7.850000	1	0.030625
7.866667	1	0.028250
7.883333	1	0.025750
7.900000	1	0.024125
7.916667	1	0.022500
7.933333	1	0.020875
7.950000	1	0.019125
7.966667	1	0.018125
7.983333	1	0.016875
8.000000	1	0.016125
8.016667	1	0.015875
8.033333	1	0.015625
8.050000	1	0.016125
8.066667	1	0.016625
8.083333	1	0.017000
8.100000	1	0.017375
8.116667	1	0.018375
8.133333	1	0.019625
8.150000	1	0.021375
8.166667	1	0.022375
8.183333	1	0.023750
8.200000	1	0.025500
8.216667	1	0.027250
8.233333	1	0.028875
8.250000	1	0.030875
8.266667	1	0.032875
8.283333	1	0.034375
8.300000	1	0.035875
8.316667	1	0.037375
8.333333	1	0.039125
8.350000	1	0.040625
8.366667	1	0.042000
8.383333	1	0.043875
8.400000	1	0.044875
8.416667	1	0.045375
8.433333	1	0.045625
8.450000	1	0.046125
8.466667	1	0.045750
8.483333	1	0.045250
8.500000	1	0.044625
8.516667	1	0.043750
8.533333	1	0.043250
8.550000	1	0.042500
8.566667	1	0.041375
8.583333	1	0.040625
8.600000	1	0.039000
8.616667	1	0.037750
8.633333	1	0.036500
8.650000	1	0.034375
8.666667	1	0.032625
8.683333	1	0.031500
8.700000	1	0.030375
8.716667	1	0.029250
8.733333	1	0.028250
8.750000	1	0.028000
8.766667	1	0.027000
8.783333	1	0.026875
8.800000	1	0.026000
8.816667	1	0.026500
8.833333	1	0.026625
8.850000	1	0.026750
8.866667	1	0.026625
8.883333	1	0.026875
8.900000	1	0.026875
8.916667	1	0.028000
8.933333	1	0.029625
8.950000	1	0.030625
8.966667	1	0.031500
8.983333	1	0.032875
9.000000	1	0.034375
9.016667	1	0.036125
9.033333	1	0.037625
9.050000	1	0.039000
9.066667	1	0.039875
9.083333	1	0.040875
9.100000	1	0.042750
9.116667	1	0.043625
9.133333	1	0.045250
9.150000	1	0.045875
9.166667	1	0.046375
9.183333	1	0.046500
9.200000	1	0.047125
9.216667	1	0.048000
9.233333	1	0.048375
9.250000	1	0.048125
9.266667	1	0.048125
9.283333	1	0.047625
9.300000	1	0.047125
9.316667	1	0.046500
9.333333	1	0.045500
9.350000	1	0.045125
9.366667	1	0.044375
9.383333	1	0.043500
9.400000	1	0.041625
9.416667	1	0.040500
9.433333	1	0.039000
9.450000	1	0.036875
9.466667	1	0.036125
9.483333	1	0.035375
9.500000	1	0.033500
9.516667	1	0.031125
9.533333	1	0.029375
9.550000	1	0.027750
9.566667	1	0.025750
9.583333	1	0.023500
9.600000	1	0.022000
9.616667	1	0.020000
9.633333	1	0.018500
9.650000	1	0.016250
9.666667	1	0.014375
9.683333	1	0.012000
9.700000	1	0.010125
9.716667	1	0.008375
9.733333	1	0.006500
9.750000	1	0.005000
9.766667	1	0.003125
9.783333	1	0.001375
9.800000	1	-0.000125
9.816667	1	-0.002625
9.833333	1	-0.003750
9.850000	1	-0.005250
9.866667	1	-0.006375
9.883333	1	-0.007750
9.900000	1	-0.008125
9.916667	1	-0.008625
9.933333	1	-0.008750
9.950000	1	-0.009125
9.966667	1	-0.009000
9.983333	1	-0.008250
10.000000	1	-0.007375
10.016667	1	-0.006375
10.033333	1	-0.005125
10.050000	1	-0.003375
10.066667	1	-0.000750
10.083333	1	0.001375
10.100000	1	0.004875
10.116667	1	0.009500
10.133333	1	0.014250
10.150000	1	0.019500
10.166667	1	0.024375
10.183333	1	0.030000
10.200000	1	0.036625
10.216667	1	0.043875
10.233333	1	0.051625
10.250000	1	0.061000
10.266667	1	0.071625
10.283333	1	0.083125
10.300000	1	0.095750
10.316667	1	0.109000
10.333333	1	0.123250
10.350000	1	0.135875
10.366667	1	0.145500
10.383333	1	0.147625
10.400000	1	0.138125
10.416667	1	0.111375
10.433333	1	0.063375
10.450000	1	-0.006500
10.466667	1	-0.093500
10.483333	1	-0.182500
10.500000	1	-0.246125
10.516667	1	-0.245000
10.533333	1	-0.126000
10.550000	1	0.172375
10.566667	1	0.721625
10.583333	1	1.589875
10.600000	1	2.844875
10.616667	1	4.543500
10.633333	1	6.730500
10.650000	1	9.435250
10.666667	1	12.683000
10.683333	1	16.484500
10.700000	1	20.844000
10.716667	1	25.753500
10.733333	1	31.196125
10.750000	1	37.145875
10.766667	1	43.560375
10.783333	1	50.394750
10.800000	1	57.600125
10.816667	1	65.106625
10.833333	1	72.806625
10.850000	1	80.538875
10.866667	1	88.065625
10.883333	1	94.997875
10.900000	1	100.748250
10.916667	1	104.525500
10.933333	1	105.451375
10.950000	1	102.826875
10.966667	1	96.480500
10.983333	1	86.948125
11.000000	1	75.360125
11.016667	1	63.082500
11.033333	1	51.322500
11.050000	1	40.857750
11.066667	1	32.027750
11.083333	1	24.862875
11.100000	1	19.209500
11.116667	1	14.842250
11.133333	1	11.520000
11.150000	1	9.020000
11.166667	1	7.152000
11.183333	1	5.760625
11.200000	1	4.724250
11.216667	1	3.949000
11.233333	1	3.363750
11.250000	1	2.918875
11.266667	1	2.575875
11.283333	1	2.308375
11.300000	1	2.096125
11.316667	1	1.925625
11.333333	1	1.786375
11.350000	1	1.670875
11.366667	1	1.575125
11.383333	1	1.495125
11.400000	1	1.426750
11.416667	1	1.369125
11.433333	1	1.319625
11.450000	1	1.277375
11.466667	1	1.241375
11.483333	1	1.210625
11.500000	1	1.185000
11.516667	1	1.163750
11.533333	1	1.143875
11.550000	1	1.127125
11.566667	1	1.113500
11.583333	1	1.101625
11.600000	1	1.091125
11.616667	1	1.082750
11.633333	1	1.075625
11.650000	1	1.070000
11.666667	1	1.064875
11.683333	1	1.062125
11.700000	1	1.059875
11.716667	1	1.058875
11.733333	1	1.058750
11.750000	1	1.061000
11.766667	1	1.063875
11.783333	1	1.067750
11.800000	1	1.072500
11.816667	1	1.077875
11.833333	1	1.083750
11.850000	1	1.090125
11.866667	1	1.097000
11.883333	1	1.103750
11.900000	1	1.109500
11.916667	1	1.115375
11.933333	1	1.120250
11.950000	1	1.124000
11.966667	1	1.126625
11.983333	1	1.128125
12.000000	1	1.129625
12.016667	1	1.130125
12.033333	1	1.130250
12.050000	1	1.130750
12.066667	1	1.130500
12.083333	1	1.130875
12.100000	1	1.131125
12.116667	1	1.131375
12.133333	1	1.132250
12.150000	1	1.133625
12.166667	1	1.135125
12.183333	1	1.137500
12.200000	1	1.140250
12.216667	1	1.143250
12.233333	1	1.146750
12.250000	1	1.152500
12.266667	1	1.159375
12.283333	1	1.168000
12.300000	1	1.180125
12.316667	1	1.195875
12.333333	1	1.216125
12.350000	1	1.243625
12.366667	1	1.281250
12.383333	1	1.331125
12.400000	1	1.397250
12.416667	1	1.482375
12.433333	1	1.591750
12.450000	1	1.731000
12.466667	1	1.905000
12.483333	1	2.119125
12.500000	1	2.378750
12.516667	1	2.688000
12.533333	1	3.050125
12.550000	1	3.467250
12.566667	1	3.939875
12.583333	1	4.466375
12.600000	1	5.043250
12.616667	1	5.663500
12.633333	1	6.318875
12.650000	1	6.997125
12.666667	1	7.688375
12.683333	1	8.379250
12.700000	1	9.057625
12.716667	1	9.713250
12.733333	1	10.338375
12.750000	1	10.929000
12.766667	1	11.486125
12.783333	1	12.013625
12.800000	1	12.517375
12.816667	1	13.006375
12.833333	1	13.490625
12.850000	1	13.981000
12.866667	1	14.486000
12.883333	1	15.013250
12.900000	1	15.568375
12.916667	1	16.153500
12.933333	1	16.771625
12.950000	1	17.422125
12.966667	1	18.105000
12.983333	1	18.819000
13.000000	1	19.562500
13.016667	1	20.332500
13.033333	1	21.127625
13.050000	1	21.948625
13.066667	1	22.793750
13.083333	1	23.661375
13.100000	1	24.550750
13.116667	1	25.461375
13.133333	1	26.390500
13.150000	1	27.338500
13.166667	1	28.306875
13.183333	1	29.294125
13.200000	1	30.299875
13.216667	1	31.323000
13.233333	1	32.366250
13.250000	1	33.429375
13.266667	1	34.513000
13.283333	1	35.617375
13.300000	1	36.743250
13.316667	1	37.889875
13.333333	1	39.057000
13.350000	1	40.245750
13.366667	1	41.457500
13.383333	1	42.692000
13.400000	1	43.949250
13.416667	1	45.229125
13.433333	1	46.534125
13.450000	1	47.865750
13.466667	1	49.224375
13.483333	1	50.611000
13.500000	1	52.025875
13.516667	1	53.469125
13.533333	1	54.942500
13.550000	1	56.444875
13.566667	1	57.976625
13.583333	1	59.539000
13.600000	1	61.130500
13.616667	1	62.751875
13.633333	1	64.405750
13.650000	1	66.094750
13.666667	1	67.819250
13.683333	1	69.580000
13.700000	1	71.377875
13.716667	1	73.212250
13.733333	1	75.081000
13.750000	1	76.974875
13.766667	1	78.854625
13.783333	1	80.613875
13.800000	1	82.064000
13.816667	1	82.964000
13.833333	1	83.078375
13.850000	1	82.206750
13.866667	1	80.167250
13.883333	1	76.753750
13.900000	1	71.755625
13.916667	1	65.088250
13.933333	1	56.991125
13.950000	1	48.097250
13.966667	1	39.274750
13.983333	1	31.305625
14.000000	1	24.632500
14.016667	1	19.326875
14.033333	1	15.241375
14.050000	1	12.148625
14.066667	1	9.832750
14.083333	1	8.113000
14.100000	1	6.844250
14.116667	1	5.912625
14.133333	1	5.227875
14.150000	1	4.721500
14.166667	1	4.341875
14.183333	1	4.053000
14.200000	1	3.827750
14.216667	1	3.647750
14.233333	1	3.500375
14.250000	1	3.377125
14.266667	1	3.272625
14.283333	1	3.182125
14.300000	1	3.101375
14.316667	1	3.029000
14.333333	1	2.963500
14.350000	1	2.904625
14.366667	1	2.852625
14.383333	1	2.806875
14.400000	1	2.767875
14.416667	1	2.736750
14.433333	1	2.715125
14.450000	1	2.704750
14.466667	1	2.709875
14.483333	1	2.734750
14.500000	1	2.787125
14.516667	1	2.876500
14.533333	1	3.015125
14.550000	1	3.218875
14.566667	1	3.509625
14.583333	1	3.913500
14.600000	1	4.463125
14.616667	1	5.198250
14.633333	1	6.167500
14.650000	1	7.422375
14.666667	1	9.020125
14.683333	1	11.015000
14.700000	1	13.461250
14.716667	1	16.396625
14.733333	1	19.846375
14.750000	1	23.810375
14.766667	1	28.256375
14.783333	1	33.111750
14.800000	1	38.271375
14.816667	1	43.596500
14.833333	1	48.912125
14.850000	1	54.016125
14.866667	1	58.687750
14.883333	1	62.709250
14.900000	1	65.878250
14.916667	1	68.031875
14.933333	1	69.060500
14.950000	1	68.913875
14.966667	1	67.608750
14.983333	1	65.232625
15.000000	1	61.919000
15.016667	1	57.846000
15.033333	1	53.216625
15.050000	1	48.245375
15.066667	1	43.140875
15.083333	1	38.089250
15.100000	1	33.245750
15.116667	1	28.726875
15.133333	1	24.611500
15.150000	1	20.941875
15.166667	1	17.730125
15.183333	1	14.964375
15.200000	1	12.615125
15.216667	1	10.641875
15.233333	1	9.001250
15.250000	1	7.650000
15.266667	1	6.544375
15.283333	1	5.645375
15.300000	1	4.919000
15.316667	1	4.334625
15.333333	1	3.867375
15.350000	1	3.495625
15.366667	1	3.200250
15.383333	1	2.967750
15.400000	1	2.787375
15.416667	1	2.648125
15.433333	1	2.542500
15.450000	1	2.464375
15.466667	1	2.408125
15.483333	1	2.369125
15.500000	1	2.341000
15.516667	1	2.322125
15.533333	1	2.306875
15.550000	1	2.294750
15.566667	1	2.279500
15.583333	1	2.263250
15.600000	1	2.241875
15.616667	1	2.216375
15.633333	1	2.186375
15.650000	1	2.151625
15.666667	1	2.113875
15.683333	1	2.073250
15.700000	1	2.032000
15.716667	1	1.990625
15.733333	1	1.950250
15.750000	1	1.911250
15.766667	1	1.873625
15.783333	1	1.838125
15.800000	1	1.804625
15.816667	1	1.772125
15.833333	1	1.740250
15.850000	1	1.709500
15.866667	1	1.680375
15.883333	1	1.650625
15.900000	1	1.621750
15.916667	1	1.593750
15.933333	1	1.567750
15.950000	1	1.543875
15.966667	1	1.521500
15.983333	1	1.501625
16.000000	1	1.484875
16.016667	1	1.471500
16.033333	1	1.460750
16.050000	1	1.453625
16.066667	1	1.449125
16.083333	1	1.446625
16.100000	1	1.445375
16.116667	1	1.444000
16.133333	1	1.443125
16.150000	1	1.442500
16.166667	1	1.440875
16.183333	1	1.437125
16.200000	1	1.432250
16.216667	1	1.425500
16.233333	1	1.416375
16.250000	1	1.405375
16.266667	1	1.392875
16.283333	1	1.378625
16.300000	1	1.363375
16.316667	1	1.347375
16.333333	1	1.330375
16.350000	1	1.313875
16.366667	1	1.297125
16.383333	1	1.280250
16.400000	1	1.264750
16.416667	1	1.250125
16.433333	1	1.237500
16.450000	1	1.225125
16.466667	1	1.215000
16.483333	1	1.206500
16.500000	1	1.200000
16.516667	1	1.195500
16.533333	1	1.193750
16.550000	1	1.193625
16.566667	1	1.195500
16.583333	1	1.199500
16.600000	1	1.204625
16.616667	1	1.209750
16.633333	1	1.216000
16.650000	1	1.222125
16.666667	1	1.228375
16.683333	1	1.233250
16.700000	1	1.237000
16.716667	1	1.240000
16.733333	1	1.242500
16.750000	1	1.243375
16.766667	1	1.244250
16.783333	1	1.244500
16.800000	1	1.245000
16.816667	1	1.245250
16.833333	1	1.245500
16.850000	1	1.246375
16.866667	1	1.248125
16.883333	1	1.249625
16.900000	1	1.250750
16.916667	1	1.252250
16.933333	1	1.254250
16.950000	1	1.255625
16.966667	1	1.255875
16.983333	1	1.255625
17.000000	1	1.254375
17.016667	1	1.252375
17.033333	1	1.249375
17.050000	1	1.245625
17.066667	1	1.241000
17.083333	1	1.236000
17.100000	1	1.230875
17.116667	1	1.225375
17.133333	1	1.220875
17.150000	1	1.216500
17.166667	1	1.212875
17.183333	1	1.209625
17.200000	1	1.207000
17.216667	1	1.205250
17.233333	1	1.204000
17.250000	1	1.202875
17.266667	1	1.202875
17.283333	1	1.202375
17.300000	1	1.202750
17.316667	1	1.203375
17.333333	1	1.203875
17.350000	1	1.204125
17.366667	1	1.204125
17.383333	1	1.204500
17.400000	1	1.204000
17.416667	1	1.203125
17.433333	1	1.202750
17.450000	1	1.201375
17.466667	1	1.198625
17.483333	1	1.195375
17.500000	1	1.191000
17.516667	1	1.185625
17.533333	1	1.178625
17.550000	1	1.169875
17.566667	1	1.160500
17.583333	1	1.149625
17.600000	1	1.137000
17.616667	1	1.123375
17.633333	1	1.108500
17.650000	1	1.092875
17.666667	1	1.076375
17.683333	1	1.059750
17.700000	1	1.043500
17.716667	1	1.026625
17.733333	1	1.010625
17.750000	1	0.994500
17.766667	1	0.979125
17.783333	1	0.964125
17.800000	1	0.950000
17.816667	1	0.937250
17.833333	1	0.925500
17.850000	1	0.914375
17.866667	1	0.903750
17.883333	1	0.894000
17.900000	1	0.885500
17.916667	1	0.877500
17.933333	1	0.870500
17.950000	1	0.864250
17.966667	1	0.858750
17.983333	1	0.854250
18.000000	1	0.849375
18.016667	1	0.845250
18.033333	1	0.841250
18.050000	1	0.837500
18.066667	1	0.834125
18.083333	1	0.830125
18.100000	1	0.826625
18.116667	1	0.823375
18.133333	1	0.819500
18.150000	1	0.816875
18.166667	1	0.814500
18.183333	1	0.812000
18.200000	1	0.809750
18.216667	1	0.808000
18.233333	1	0.807125
18.250000	1	0.806750
18.266667	1	0.805875
18.283333	1	0.806000
18.300000	1	0.805750
18.316667	1	0.806875
18.333333	1	0.808250
18.350000	1	0.809375
18.366667	1	0.811000
18.383333	1	0.812250
18.400000	1	0.814625
18.416667	1	0.816500
18.433333	1	0.818375
18.450000	1	0.821625
18.466667	1	0.825250
18.483333	1	0.829250
18.500000	1	0.834125
18.516667	1	0.839875
18.533333	1	0.847500
18.550000	1	0.856250
18.566667	1	0.867250
18.583333	1	0.880375
18.600000	1	0.894500
18.616667	1	0.911625
18.633333	1	0.930500
18.650000	1	0.951500
18.666667	1	0.974250
18.683333	1	0.999125
18.700000	1	1.025625
18.716667	1	1.053750
18.733333	1	1.084000
18.750000	1	1.116000
18.766667	1	1.149000
18.783333	1	1.182750
18.800000	1	1.216500
18.816667	1	1.250000
18.833333	1	1.282625
18.850000	1	1.314125
18.866667	1	1.343125
18.883333	1	1.369000
18.900000	1	1.391875
18.916667	1	1.410125
18.933333	1	1.423500
18.950000	1	1.432125
18.966667	1	1.433875
18.983333	1	1.430250
19.000000	1	1.420125
19.016667	1	1.404000
19.033333	1	1.381125
19.050000	1	1.352500
19.066667	1	1.320125
19.083333	1	1.283125
19.100000	1	1.243375
19.116667	1	1.203125
19.133333	1	1.161750
19.150000	1	1.122500
19.166667	1	1.087500
19.183333	1	1.056375
19.200000	1	1.032250
19.216667	1	1.015375
19.233333	1	1.008250
19.250000	1	1.012375
19.266667	1	1.030000
19.283333	1	1.061250
19.300000	1	1.109125
19.316667	1	1.174750
19.333333	1	1.259500
19.350000	1	1.364750
19.366667	1	1.490750
19.383333	1	1.638500
19.400000	1	1.808500
19.416667	1	2.000250
19.433333	1	2.211750
19.450000	1	2.440500
19.466667	1	2.683750
19.483333	1	2.937500
19.500000	1	3.197375
19.516667	1	3.456375
19.533333	1	3.708875
19.550000	1	3.947625
19.566667	1	4.165625
19.583333	1	4.355625
19.600000	1	4.512375
19.616667	1	4.629625
19.633333	1	4.703375
19.650000	1	4.731500
19.666667	1	4.712625
19.683333	1	4.648625
19.700000	1	4.541625
19.716667	1	4.396625
19.733333	1	4.218875
19.750000	1	4.013750
19.766667	1	3.787250
19.783333	1	3.547000
19.800000	1	3.300125
19.816667	1	3.052000
19.833333	1	2.807250
19.850000	1	2.571375
19.866667	1	2.347375
19.883333	1	2.137875
19.900000	1	1.943750
19.916667	1	1.767375
19.933333	1	1.607750
19.950000	1	1.465375
19.966667	1	1.339000
19.983333	1	1.227750
20.000000	1	1.130750
20.016667	1	1.046750
20.033333	1	0.974500
20.050000	1	0.912750
20.066667	1	0.860875
20.083333	1	0.817625
20.100000	1	0.782250
20.116667	1	0.753875
20.133333	1	0.732250
20.150000	1	0.715875
20.166667	1	0.704625
20.183333	1	0.698125
20.200000	1	0.695250
20.216667	1	0.695750
20.233333	1	0.699375
20.250000	1	0.705625
20.266667	1	0.713125
20.283333	1	0.721875
20.300000	1	0.730875
20.316667	1	0.740125
20.333333	1	0.748750
20.350000	1	0.756750
20.366667	1	0.762000
20.383333	1	0.766375
20.400000	1	0.768875
20.416667	1	0.769875
20.433333	1	0.768625
20.450000	1	0.766750
20.466667	1	0.762500
20.483333	1	0.757875
20.500000	1	0.754000
20.516667	1	0.751000
20.533333	1	0.749000
20.550000	1	0.749875
20.566667	1	0.754750
20.583333	1	0.763125
20.600000	1	0.776500
20.616667	1	0.795125
20.633333	1	0.820625
20.650000	1	0.852250
20.666667	1	0.890500
20.683333	1	0.935375
20.700000	1	0.986750
20.716667	1	1.044000
20.733333	1	1.107000
20.750000	1	1.173625
20.766667	1	1.243250
20.783333	1	1.313125
20.800000	1	1.382625
20.816667	1	1.449125
20.833333	1	1.510625
20.850000	1	1.564250
20.866667	1	1.609250
20.883333	1	1.643250
20.900000	1	1.665125
20.916667	1	1.673625
20.933333	1	1.668875
20.950000	1	1.651125
20.966667	1	1.621125
20.983333	1	1.579750
21.000000	1	1.527625
21.016667	1	1.467500
21.033333	1	1.399750
21.050000	1	1.328375
21.066667	1	1.253875
21.083333	1	1.179375
21.100000	1	1.106250
21.116667	1	1.035000
21.133333	1	0.966875
21.150000	1	0.903500
21.166667	1	0.844500
21.183333	1	0.790125
21.200000	1	0.741125
21.216667	1	0.696875
21.233333	1	0.658000
21.250000	1	0.623000
21.266667	1	0.592625
21.283333	1	0.565750
21.300000	1	0.543000
21.316667	1	0.523125
21.333333	1	0.506125
21.350000	1	0.490750
21.366667	1	0.477750
21.383333	1	0.465625
21.400000	1	0.456000
21.416667	1	0.447625
21.433333	1	0.440750
21.450000	1	0.435125
21.466667	1	0.430750
21.483333	1	0.427125
21.500000	1	0.423500
21.516667	1	0.420000
21.533333	1	0.417875
21.550000	1	0.416500
21.566667	1	0.416500
21.583333	1	0.416875
21.600000	1	0.418375
21.616667	1	0.420625
21.633333	1	0.423250
21.650000	1	0.426750
21.666667	1	0.431125
21.683333	1	0.436750
21.700000	1	0.443500
21.716667	1	0.451000
21.733333	1	0.459125
21.750000	1	0.468000
21.766667	1	0.477875
21.783333	1	0.488625
21.800000	1	0.500000
21.816667	1	0.513000
21.833333	1	0.524875
21.850000	1	0.538000
21.866667	1	0.551125
21.883333	1	0.565000
21.900000	1	0.579250
21.916667	1	0.593375
21.933333	1	0.607125
21.950000	1	0.621125
21.966667	1	0.633625
21.983333	1	0.645875
22.000000	1	0.657625
22.016667	1	0.668125
22.033333	1	0.677875
22.050000	1	0.685375
22.066667	1	0.692875
22.083333	1	0.697625
22.100000	1	0.701500
22.116667	1	0.704000
22.133333	1	0.704750
22.150000	1	0.703750
22.166667	1	0.700500
22.183333	1	0.695375
22.200000	1	0.689375
22.216667	1	0.681125
22.233333	1	0.672125
22.250000	1	0.660750
22.266667	1	0.648625
22.283333	1	0.635500
22.300000	1	0.620875
22.316667	1	0.605250
22.333333	1	0.589125
22.350000	1	0.572375
22.366667	1	0.554375
22.383333	1	0.536625
22.400000	1	0.518125
22.416667	1	0.500625
22.433333	1	0.482750
22.450000	1	0.465500
22.466667	1	0.448875
22.483333	1	0.433375
22.500000	1	0.417500
22.516667	1	0.403750
22.533333	1	0.390500
22.550000	1	0.378000
22.566667	1	0.366375
22.583333	1	0.355875
22.600000	1	0.346500
22.616667	1	0.338000
22.633333	1	0.330500
22.650000	1	0.322125
22.666667	1	0.315875
22.683333	1	0.310500
22.700000	1	0.305375
22.716667	1	0.300750
22.733333	1	0.296875
22.750000	1	0.292750
22.766667	1	0.289875
22.783333	1	0.287125
22.800000	1	0.284750
22.816667	1	0.281875
22.833333	1	0.279750
22.850000	1	0.278375
22.866667	1	0.276750
22.883333	1	0.275625
22.900000	1	0.275750
22.916667	1	0.274875
22.933333	1	0.274875
22.950000	1	0.274875
22.966667	1	0.275375
22.983333	1	0.276125
23.000000	1	0.276875
23.016667	1	0.278125
23.033333	1	0.280250
23.050000	1	0.282375
23.066667	1	0.285000
23.083333	1	0.287875
23.100000	1	0.290500
23.116667	1	0.293750
23.133333	1	0.297125
23.150000	1	0.300875
23.166667	1	0.305125
23.183333	1	0.308875
23.200000	1	0.313000
23.216667	1	0.317500
23.233333	1	0.323125
23.250000	1	0.328625
23.266667	1	0.335125
23.283333	1	0.342000
23.300000	1	0.350375
23.316667	1	0.360875
23.333333	1	0.373500
23.350000	1	0.389750
23.366667	1	0.409000
23.383333	1	0.431875
23.400000	1	0.459750
23.416667	1	0.494000
23.433333	1	0.535375
23.450000	1	0.584500
23.466667	1	0.643250
23.483333	1	0.712625
23.500000	1	0.794250
23.516667	1	0.889750
23.533333	1	0.999375
23.550000	1	1.125250
23.566667	1	1.268375
23.583333	1	1.429625
23.600000	1	1.610000
23.616667	1	1.810000
23.633333	1	2.028750
23.650000	1	2.265750
23.666667	1	2.520125
23.683333	1	2.790000
23.700000	1	3.073625
23.716667	1	3.367375
23.733333	1	3.667500
23.750000	1	3.968875
23.766667	1	4.266500
23.783333	1	4.554875
23.800000	1	4.828000
23.816667	1	5.080125
23.833333	1	5.305375
23.850000	1	5.499000
23.866667	1	5.656000
23.883333	1	5.773000
23.900000	1	5.846625
23.916667	1	5.875000
23.933333	1	5.858750
23.950000	1	5.798125
23.966667	1	5.694750
23.983333	1	5.551875
24.000000	1	5.374125
24.016667	1	5.165125
24.033333	1	4.931750
24.050000	1	4.678125
24.066667	1	4.410125
24.083333	1	4.132875
24.100000	1	3.851125
24.116667	1	3.569375
24.133333	1	3.292375
24.150000	1	3.022875
24.166667	1	2.765125
24.183333	1	2.521250
24.200000	1	2.292625
24.216667	1	2.080000
24.233333	1	1.884750
24.250000	1	1.706250
24.266667	1	1.544375
24.283333	1	1.398125
24.300000	1	1.267875
24.316667	1	1.151625
24.333333	1	1.048250
24.350000	1	0.957750
24.366667	1	0.879000
24.383333	1	0.810125
24.400000	1	0.751500
24.416667	1	0.700625
24.433333	1	0.656750
24.450000	1	0.619500
24.466667	1	0.588250
24.483333	1	0.561875
24.500000	1	0.540375
24.516667	1	0.523000
24.533333	1	0.508250
24.550000	1	0.495250
24.566667	1	0.484500
24.583333	1	0.475000
24.600000	1	0.466750
24.616667	1	0.460125
24.633333	1	0.454000
24.650000	1	0.448125
24.666667	1	0.442875
24.683333	1	0.438000
24.700000	1	0.433250
24.716667	1	0.428500
24.733333	1	0.423375
24.750000	1	0.418375
24.766667	1	0.413500
24.783333	1	0.408000
24.800000	1	0.403000
24.816667	1	0.398250
24.833333	1	0.393000
24.850000	1	0.387750
24.866667	1	0.383250
24.883333	1	0.378125
24.900000	1	0.374000
24.916667	1	0.369875
24.933333	1	0.365250
24.950000	1	0.361250
24.966667	1	0.357625
24.983333	1	0.354000
25.000000	1	0.350750
25.016667	1	0.347375
25.033333	1	0.343625
25.050000	1	0.340125
25.066667	1	0.337500
25.083333	1	0.335000
25.100000	1	0.332125
25.116667	1	0.329250
25.133333	1	0.326875
25.150000	1	0.324125
25.166667	1	0.322000
25.183333	1	0.319250
25.200000	1	0.316000
25.216667	1	0.313375
25.233333	1	0.311250
25.250000	1	0.308500
25.266667	1	0.306375
25.283333	1	0.303375
25.300000	1	0.300625
25.316667	1	0.298250
25.333333	1	0.296000
25.350000	1	0.294000
25.366667	1	0.291750
25.383333	1	0.289625
25.400000	1	0.288125
25.416667	1	0.286000
25.433333	1	0.284750
25.450000	1	0.283000
25.466667	1	0.282375
25.483333	1	0.281750
25.500000	1	0.281625
25.516667	1	0.281750
25.533333	1	0.281250
25.550000	1	0.281000
25.566667	1	0.281875
25.583333	1	0.283125
25.600000	1	0.284250
25.616667	1	0.285250
25.633333	1	0.286625
25.650000	1	0.288250
25.666667	1	0.289750
25.683333	1	0.290625
25.700000	1	0.292250
25.716667	1	0.294500
25.733333	1	0.296500
25.750000	1	0.298375
25.766667	1	0.299500
25.783333	1	0.301375
25.800000	1	0.303625
25.816667	1	0.306375
25.833333	1	0.308750
25.850000	1	0.311500
25.866667	1	0.314375
25.883333	1	0.317625
25.900000	1	0.320875
25.916667	1	0.324250
25.933333	1	0.326875
25.950000	1	0.330750
25.966667	1	0.334250
25.983333	1	0.338000
26.000000	1	0.342750
26.016667	1	0.347250
26.033333	1	0.351375
26.050000	1	0.355125
26.066667	1	0.359500
26.083333	1	0.363625
26.100000	1	0.367875
26.116667	1	0.371750
26.133333	1	0.376000
26.150000	1	0.379625
26.166667	1	0.382875
26.183333	1	0.385500
26.200000	1	0.387750
26.216667	1	0.389375
26.233333	1	0.390750
26.250000	1	0.391750
26.266667	1	0.391625
26.283333	1	0.391750
26.300000	1	0.390625
26.316667	1	0.388000
26.333333	1	0.385125
26.350000	1	0.382125
26.366667	1	0.378500
26.383333	1	0.373625
26.400000	1	0.368625
26.416667	1	0.363375
26.433333	1	0.357375
26.450000	1	0.350875
26.466667	1	0.344500
26.483333	1	0.337500
26.500000	1	0.330000
26.516667	1	0.322750
26.533333	1	0.315125
26.550000	1	0.307875
26.566667	1	0.299500
26.583333	1	0.291500
26.600000	1	0.283875
26.616667	1	0.276875
26.633333	1	0.269625
26.650000	1	0.263000
26.666667	1	0.256375
26.683333	1	0.250000
26.700000	1	0.243625
26.716667	1	0.238875
26.733333	1	0.234000
26.750000	1	0.228250
26.766667	1	0.223500
26.783333	1	0.219875
26.800000	1	0.216375
26.816667	1	0.213000
26.833333	1	0.210000
26.850000	1	0.207625
26.866667	1	0.205625
26.883333	1	0.204125
26.900000	1	0.203625
26.916667	1	0.203000
26.933333	1	0.203000
26.950000	1	0.203375
26.966667	1	0.204250
26.983333	1	0.205500
27.000000	1	0.206750
27.016667	1	0.209125
27.033333	1	0.212500
27.050000	1	0.216250
27.066667	1	0.220625
27.083333	1	0.225500
27.100000	1	0.231375
27.116667	1	0.237500
27.133333	1	0.246625
27.150000	1	0.255875
27.166667	1	0.266750
27.183333	1	0.279375
27.200000	1	0.292625
27.216667	1	0.309375
27.233333	1	0.328250
27.250000	1	0.350250
27.266667	1	0.374875
27.283333	1	0.403625
27.300000	1	0.436625
27.316667	1	0.473625
27.333333	1	0.515375
27.350000	1	0.563750
27.366667	1	0.617500
27.383333	1	0.677625
27.400000	1	0.745250
27.416667	1	0.820250
27.433333	1	0.903375
27.450000	1	0.995750
27.466667	1	1.097125
27.483333	1	1.208750
27.500000	1	1.329875
27.516667	1	1.460750
27.533333	1	1.601125
27.550000	1	1.751000
27.566667	1	1.910375
27.583333	1	2.077500
27.600000	1	2.252375
27.616667	1	2.433750
27.633333	1	2.619500
27.650000	1	2.808875
27.666667	1	2.999625
27.683333	1	3.189375
27.700000	1	3.376000
27.716667	1	3.557125
27.733333	1	3.729625
27.750000	1	3.890500
27.766667	1	4.037375
27.783333	1	4.167625
27.800000	1	4.279375
27.816667	1	4.370125
27.833333	1	4.438750
27.850000	1	4.483250
27.866667	1	4.501875
27.883333	1	4.494750
27.900000	1	4.462250
27.916667	1	4.403750
27.933333	1	4.320625
27.950000	1	4.214750
27.966667	1	4.088000
27.983333	1	3.943125
28.000000	1	3.781125
28.016667	1	3.606250
28.033333	1	3.420125
28.050000	1	3.226375
28.066667	1	3.028500
28.083333	1	2.828250
28.100000	1	2.628875
28.116667	1	2.433625
28.133333	1	2.243250
28.150000	1	2.060625
28.166667	1	1.886875
28.183333	1	1.723250
28.200000	1	1.570750
28.216667	1	1.429000
28.233333	1	1.299625
28.250000	1	1.181750
28.266667	1	1.074625
28.283333	1	0.978375
28.300000	1	0.893125
28.316667	1	0.818250
28.333333	1	0.752750
28.350000	1	0.695125
28.366667	1	0.646375
28.383333	1	0.605250
28.400000	1	0.571625
28.416667	1	0.543875
28.433333	1	0.521125
28.450000	1	0.504125
28.466667	1	0.491125
28.483333	1	0.482125
28.500000	1	0.476250
28.516667	1	0.473500
28.533333	1	0.474125
28.550000	1	0.476500
28.566667	1	0.481125
28.583333	1	0.487625
28.600000	1	0.495125
28.616667	1	0.503250
28.633333	1	0.512375
28.650000	1	0.522625
28.666667	1	0.532250
28.683333	1	0.543125
28.700000	1	0.554000
28.716667	1	0.563750
28.733333	1	0.573375
28.750000	1	0.582000
28.766667	1	0.589875
28.783333	1	0.597375
28.800000	1	0.603500
28.816667	1	0.609250
28.833333	1	0.613625
28.850000	1	0.617000
28.866667	1	0.619000
28.883333	1	0.620125
28.900000	1	0.620250
28.916667	1	0.619250
28.933333	1	0.617000
28.950000	1	0.613125
28.966667	1	0.607750
28.983333	1	0.601875
29.000000	1	0.595500
29.016667	1	0.587625
29.033333	1	0.578625
29.050000	1	0.569000
29.066667	1	0.558750
29.083333	1	0.547375
29.100000	1	0.535625
29.116667	1	0.523125
29.133333	1	0.510000
29.150000	1	0.496500
29.166667	1	0.482625
29.183333	1	0.469750
29.200000	1	0.455500
29.216667	1	0.441500
29.233333	1	0.427625
29.250000	1	0.414000
29.266667	1	0.399750
29.283333	1	0.386875
29.300000	1	0.374125
29.316667	1	0.360750
29.333333	1	0.348750
29.350000	1	0.337125
29.366667	1	0.325500
29.383333	1	0.314250
29.400000	1	0.303250
29.416667	1	0.293000
29.433333	1	0.282750
29.450000	1	0.273875
29.466667	1	0.264750
29.483333	1	0.256375
29.500000	1	0.248375
29.516667	1	0.240375
29.533333	1	0.233250
29.550000	1	0.227000
29.566667	1	0.221375
29.583333	1	0.216000
29.600000	1	0.211500
29.616667	1	0.206750
29.633333	1	0.202375
29.650000	1	0.198625
29.666667	1	0.194875
29.683333	1	0.191875
29.700000	1	0.188875
29.716667	1	0.185750
29.733333	1	0.183250
29.750000	1	0.181250
29.766667	1	0.178875
29.783333	1	0.177125
29.800000	1	0.175125
29.816667	1	0.173500
29.833333	1	0.171625
29.850000	1	0.169500
29.866667	1	0.166625
29.883333	1	0.164375
29.900000	1	0.162125
29.916667	1	0.160125
29.933333	1	0.158500
29.950000	1	0.156000
29.966667	1	0.152875
29.983333	1	0.150375
30.000000	1	0.147250
30.016667	1	0.144875
30.033333	1	0.141375
30.050000	1	0.138250
30.066667	1	0.135375
30.083333	1	0.131625
30.100000	1	0.128500
30.116667	1	0.125000
30.133333	1	0.121750
30.150000	1	0.117875
30.166667	1	0.114750
30.183333	1	0.111500
30.200000	1	0.108000
30.216667	1	0.105375
30.233333	1	0.102375
30.250000	1	0.099000
30.266667	1	0.096750
30.283333	1	0.094750
30.300000	1	0.092750
30.316667	1	0.091250
30.333333	1	0.089250
30.350000	1	0.088375
30.366667	1	0.087500
30.383333	1	0.087375
30.400000	1	0.087875
30.416667	1	0.088125
30.433333	1	0.089500
30.450000	1	0.092000
30.466667	1	0.094625
30.483333	1	0.097750
30.500000	1	0.101250
30.516667	1	0.105250
30.533333	1	0.110500
30.550000	1	0.115875
30.566667	1	0.122125
30.583333	1	0.129625
30.600000	1	0.137750
30.616667	1	0.146250
30.633333	1	0.156000
30.650000	1	0.166750
30.666667	1	0.178250
30.683333	1	0.190625
30.700000	1	0.204500
30.716667	1	0.219000
30.733333	1	0.234875
30.750000	1	0.252250
30.766667	1	0.270750
30.783333	1	0.292000
30.800000	1	0.315000
30.816667	1	0.340875
30.833333	1	0.369250
30.850000	1	0.400625
30.866667	1	0.434875
30.883333	1	0.472375
30.900000	1	0.515250
30.916667	1	0.562125
30.933333	1	0.614875
30.950000	1	0.673375
30.966667	1	0.738500
30.983333	1	0.810750
31.000000	1	0.890750
31.016667	1	0.979500
31.033333	1	1.078000
31.050000	1	1.185125
31.066667	1	1.303250
31.083333	1	1.431625
31.100000	1	1.571250
31.116667	1	1.721000
31.133333	1	1.882000
31.150000	1	2.054500
31.166667	1	2.237250
31.183333	1	2.430625
31.200000	1	2.633875
31.216667	1	2.845000
31.233333	1	3.063625
31.250000	1	3.286750
31.266667	1	3.513750
31.283333	1	3.742250
31.300000	1	3.971250
31.316667	1	4.197000
31.333333	1	4.416625
31.350000	1	4.628000
31.366667	1	4.830500
31.383333	1	5.019500
31.400000	1	5.193250
31.416667	1	5.349500
31.433333	1	5.485500
31.450000	1	5.599125
31.466667	1	5.688750
31.483333	1	5.754125
31.500000	1	5.793000
31.516667	1	5.807375
31.533333	1	5.794500
31.550000	1	5.756625
31.566667	1	5.694000
31.583333	1	5.606875
31.600000	1	5.496500
31.616667	1	5.365625
31.633333	1	5.216000
31.650000	1	5.049250
31.666667	1	4.867875
31.683333	1	4.673625
31.700000	1	4.470000
31.716667	1	4.258625
31.733333	1	4.043375
31.750000	1	3.824750
31.766667	1	3.605625
31.783333	1	3.387625
31.800000	1	3.172500
31.816667	1	2.960750
31.833333	1	2.755625
31.850000	1	2.557375
31.866667	1	2.367125
31.883333	1	2.185500
31.900000	1	2.013875
31.916667	1	1.851625
31.933333	1	1.699000
31.950000	1	1.556125
31.966667	1	1.423375
31.983333	1	1.300125
32.000000	1	1.186125
32.016667	1	1.081375
32.033333	1	0.984750
32.050000	1	0.897000
32.066667	1	0.816125
32.083333	1	0.742750
32.100000	1	0.676375
32.116667	1	0.616250
32.133333	1	0.561500
32.150000	1	0.512750
32.166667	1	0.468250
32.183333	1	0.428625
32.200000	1	0.392375
32.216667	1	0.359625
32.233333	1	0.330125
32.250000	1	0.303625
32.266667	1	0.279625
32.283333	1	0.258125
32.300000	1	0.239000
32.316667	1	0.221500
32.333333	1	0.206125
32.350000	1	0.192375
32.366667	1	0.179000
32.383333	1	0.167875
32.400000	1	0.157500
32.416667	1	0.147500
32.433333	1	0.138125
32.450000	1	0.130500
32.466667	1	0.124000
32.483333	1	0.117250
32.500000	1	0.111250
32.516667	1	0.105625
32.533333	1	0.100625
32.550000	1	0.095375
32.566667	1	0.092000
32.583333	1	0.088625
32.600000	1	0.085750
32.616667	1	0.083125
32.633333	1	0.080750
32.650000	1	0.078375
32.666667	1	0.076375
32.683333	1	0.075625
32.700000	1	0.074375
32.716667	1	0.073000
32.733333	1	0.073000
32.750000	1	0.072750
32.766667	1	0.072875
32.783333	1	0.073250
32.800000	1	0.073375
32.816667	1	0.074750
32.833333	1	0.075750
32.850000	1	0.076375
32.866667	1	0.078375
32.883333	1	0.079250
32.900000	1	0.081125
32.916667	1	0.083375
32.933333	1	0.086500
32.950000	1	0.089250
32.966667	1	0.091625
32.983333	1	0.094250
33.000000	1	0.096875
33.016667	1	0.099500
33.033333	1	0.102625
33.050000	1	0.106375
33.066667	1	0.109750
33.083333	1	0.112125
33.100000	1	0.115625
33.116667	1	0.119250
33.133333	1	0.122250
33.150000	1	0.125250
33.166667	1	0.128250
33.183333	1	0.131625
33.200000	1	0.135125
33.216667	1	0.137750
33.233333	1	0.140875
33.250000	1	0.144000
33.266667	1	0.146500
33.283333	1	0.148750
33.300000	1	0.150875
33.316667	1	0.153875
33.333333	1	0.155750
33.350000	1	0.158250
33.366667	1	0.160500
33.383333	1	0.163000
33.400000	1	0.164875
33.416667	1	0.166625
33.433333	1	0.169750
33.450000	1	0.172000
33.466667	1	0.174375
33.483333	1	0.175875
33.500000	1	0.178000
33.516667	1	0.179875
33.533333	1	0.182250
33.550000	1	0.184625
33.566667	1	0.186625
33.583333	1	0.189125
33.600000	1	0.191000
33.616667	1	0.192250
33.633333	1	0.194125
33.650000	1	0.195625
33.666667	1	0.197375
33.683333	1	0.198625
33.700000	1	0.200125
33.716667	1	0.201500
33.733333	1	0.202750
33.750000	1	0.203500
33.766667	1	0.204625
33.783333	1	0.204875
33.800000	1	0.204500
33.816667	1	0.203875
33.833333	1	0.203250
33.850000	1	0.202375
33.866667	1	0.201375
33.883333	1	0.199750
33.900000	1	0.198125
33.916667	1	0.196000
33.933333	1	0.194125
33.950000	1	0.191375
33.966667	1	0.188500
33.983333	1	0.185625
34.000000	1	0.182875
34.016667	1	0.178875
34.033333	1	0.175125
34.050000	1	0.171750
34.066667	1	0.168500
34.083333	1	0.165000
34.100000	1	0.161000
34.116667	1	0.157625
34.133333	1	0.154250
34.150000	1	0.151500
34.166667	1	0.149000
34.183333	1	0.146500
34.200000	1	0.144000
34.216667	1	0.141625
34.233333	1	0.139125
34.250000	1	0.137125
34.266667	1	0.134750
34.283333	1	0.133125
34.300000	1	0.131625
34.316667	1	0.130250
34.333333	1	0.129000
34.350000	1	0.128125
34.366667	1	0.127250
34.383333	1	0.127250
34.400000	1	0.126500
34.416667	1	0.126625
34.433333	1	0.126000
34.450000	1	0.125875
34.466667	1	0.126250
34.483333	1	0.126125
34.500000	1	0.126625
34.516667	1	0.127000
34.533333	1	0.126750
34.550000	1	0.126625
34.566667	1	0.127500
34.583333	1	0.128125
34.600000	1	0.128875
34.616667	1	0.129875
34.633333	1	0.130375
34.650000	1	0.131250
34.666667	1	0.132125
34.683333	1	0.132500
34.700000	1	0.133625
34.716667	1	0.135500
34.733333	1	0.137125
34.750000	1	0.138625
34.766667	1	0.140375
34.783333	1	0.141875
34.800000	1	0.143750
34.816667	1	0.146125
34.833333	1	0.148875
34.850000	1	0.151250
34.866667	1	0.153500
34.883333	1	0.156500
34.900000	1	0.158625
34.916667	1	0.161000
34.933333	1	0.163375
34.950000	1	0.166250
34.966667	1	0.168125
34.983333	1	0.171250
35.000000	1	0.174125
35.016667	1	0.175625
35.033333	1	0.177625
35.050000	1	0.179875
35.066667	1	0.181875
35.083333	1	0.183125
35.100000	1	0.185000
35.116667	1	0.186750
35.133333	1	0.188000
35.150000	1	0.188750
35.166667	1	0.189000
35.183333	1	0.189250
35.200000	1	0.189125
35.216667	1	0.188375
35.233333	1	0.188000
35.250000	1	0.187500
35.266667	1	0.186625
35.283333	1	0.185500
35.300000	1	0.184500
35.316667	1	0.183750
35.333333	1	0.181750
35.350000	1	0.180625
35.366667	1	0.179625
35.383333	1	0.178375
35.400000	1	0.177125
35.416667	1	0.175500
35.433333	1	0.174500
35.450000	1	0.172750
35.466667	1	0.171000
35.483333	1	0.170375
35.500000	1	0.169750
35.516667	1	0.169500
35.533333	1	0.168875
35.550000	1	0.168250
35.566667	1	0.168375
35.583333	1	0.168375
35.600000	1	0.168625
35.616667	1	0.168500
35.633333	1	0.168125
35.650000	1	0.168625
35.666667	1	0.169125
35.683333	1	0.169750
35.700000	1	0.170750
35.716667	1	0.171750
35.733333	1	0.172750
35.750000	1	0.173125
35.766667	1	0.174625
35.783333	1	0.175375
35.800000	1	0.176625
35.816667	1	0.177250
35.833333	1	0.177875
35.850000	1	0.178125
35.866667	1	0.178500
35.883333	1	0.179125
35.900000	1	0.179750
35.916667	1	0.180375
35.933333	1	0.180375
35.950000	1	0.180625
35.966667	1	0.180875
35.983333	1	0.180500
36.000000	1	0.180125
36.016667	1	0.178750
36.033333	1	0.177375
36.050000	1	0.175750
36.066667	1	0.174375
36.083333	1	0.172375
36.100000	1	0.171125
36.116667	1	0.168375
36.133333	1	0.165750
36.150000	1	0.163375
36.166667	1	0.160625
36.183333	1	0.157875
36.200000	1	0.155000
36.216667	1	0.151500
36.233333	1	0.147875
36.250000	1	0.144500
36.266667	1	0.141000
36.283333	1	0.137500
36.300000	1	0.133125
36.316667	1	0.129625
36.333333	1	0.126250
36.350000	1	0.122375
36.366667	1	0.117875
36.383333	1	0.114000
36.400000	1	0.110250
36.416667	1	0.106375
36.433333	1	0.102250
36.450000	1	0.098125
36.466667	1	0.094250
36.483333	1	0.090750
36.500000	1	0.087625
36.516667	1	0.084750
36.533333	1	0.081750
36.550000	1	0.078875
36.566667	1	0.076000
36.583333	1	0.073750
36.600000	1	0.071000
36.616667	1	0.068250
36.633333	1	0.066625
36.650000	1	0.065000
36.666667	1	0.064000
36.683333	1	0.062875
36.700000	1	0.062250
36.716667	1	0.061250
36.733333	1	0.060625
36.750000	1	0.060250
36.766667	1	0.059750
36.783333	1	0.059250
36.800000	1	0.059250
36.816667	1	0.060000
36.833333	1	0.060125
36.850000	1	0.060625
36.866667	1	0.060750
36.883333	1	0.061750
36.900000	1	0.062375
36.916667	1	0.063875
36.933333	1	0.064875
36.950000	1	0.065875
36.966667	1	0.066750
36.983333	1	0.067375
37.000000	1	0.068125
37.016667	1	0.069125
37.033333	1	0.069625
37.050000	1	0.070875
37.066667	1	0.071875
37.083333	1	0.072625
37.100000	1	0.073000
37.116667	1	0.075000
37.133333	1	0.075750
37.150000	1	0.076750
37.166667	1	0.077125
37.183333	1	0.078875
37.200000	1	0.079875
37.216667	1	0.081250
37.233333	1	0.082625
37.250000	1	0.083625
37.266667	1	0.085125
37.283333	1	0.086500
37.300000	1	0.088875
37.316667	1	0.090750
37.333333	1	0.092750
37.350000	1	0.094250
37.366667	1	0.096125
37.383333	1	0.098000
37.400000	1	0.100125
37.416667	1	0.102625
37.433333	1	0.104500
37.450000	1	0.106125
37.466667	1	0.109250
37.483333	1	0.112000
37.500000	1	0.114375
37.516667	1	0.116000
37.533333	1	0.117875
37.550000	1	0.119000
37.566667	1	0.120250
37.583333	1	0.121750
37.600000	1	0.122375
37.616667	1	0.122500
37.633333	1	0.123625
37.650000	1	0.123875
37.666667	1	0.124250
37.683333	1	0.124375
37.700000	1	0.123375
37.716667	1	0.123000
37.733333	1	0.122625
37.750000	1	0.122000
37.766667	1	0.120375
37.783333	1	0.118625
37.800000	1	0.116375
37.816667	1	0.114750
37.833333	1	0.112875
37.850000	1	0.110375
37.866667	1	0.108625
37.883333	1	0.106500
37.900000	1	0.104000
37.916667	1	0.101875
37.933333	1	0.099875
37.950000	1	0.097250
37.966667	1	0.095875
37.983333	1	0.094125
38.000000	1	0.091750
38.016667	1	0.089625
38.033333	1	0.087875
38.050000	1	0.086875
38.066667	1	0.085375
38.083333	1	0.083375
38.100000	1	0.082125
38.116667	1	0.081000
38.133333	1	0.079250
38.150000	1	0.077750
38.166667	1	0.075625
38.183333	1	0.073875
38.200000	1	0.072375
38.216667	1	0.070375
38.233333	1	0.068625
38.250000	1	0.066375
38.266667	1	0.064875
38.283333	1	0.063250
38.300000	1	0.061750
38.316667	1	0.059125
38.333333	1	0.056875
38.350000	1	0.054500
38.366667	1	0.052625
38.383333	1	0.050625
38.400000	1	0.048125
38.416667	1	0.046750
38.433333	1	0.045000
38.450000	1	0.043250
38.466667	1	0.040750
38.483333	1	0.038750
38.500000	1	0.037125
38.516667	1	0.034500
38.533333	1	0.033000
38.550000	1	0.031125
38.566667	1	0.029375
38.583333	1	0.028000
38.600000	1	0.026500
38.616667	1	0.025000
38.633333	1	0.023125
38.650000	1	0.021375
38.666667	1	0.020250
38.683333	1	0.019500
38.700000	1	0.018000
38.716667	1	0.016375
38.733333	1	0.015625
38.750000	1	0.014125
38.766667	1	0.012500
38.783333	1	0.012250
38.800000	1	0.011375
38.816667	1	0.009875
38.833333	1	0.008500
38.850000	1	0.007000
38.866667	1	0.005500
38.883333	1	0.004125
38.900000	1	0.003875
38.916667	1	0.003000
38.933333	1	0.002125
38.950000	1	0.001125
38.966667	1	0.000125
38.983333	1	0.000000
39.000000	1	-0.000625
39.016667	1	-0.001625
39.033333	1	-0.002125
39.050000	1	-0.002125
39.066667	1	-0.002625
39.083333	1	-0.002250
39.100000	1	-0.002250
39.116667	1	-0.002375
39.133333	1	-0.001875
39.150000	1	-0.001750
39.166667	1	-0.001000
39.183333	1	-0.001000
39.200000	1	-0.000250
39.216667	1	0.001000
39.233333	1	0.001875
39.250000	1	0.003875
39.266667	1	0.005750
39.283333	1	0.008000
39.300000	1	0.010000
39.316667	1	0.011750
39.333333	1	0.013250
39.350000	1	0.015625
39.366667	1	0.018125
39.383333	1	0.020125
39.400000	1	0.022500
39.416667	1	0.024375
39.433333	1	0.025875
39.450000	1	0.027625
39.466667	1	0.029750
39.483333	1	0.031125
39.500000	1	0.033000
39.516667	1	0.034375
39.533333	1	0.036875
39.550000	1	0.037750
39.566667	1	0.038500
39.583333	1	0.039750
39.600000	1	0.041125
39.616667	1	0.040875
39.633333	1	0.041000
39.650000	1	0.042125
39.666667	1	0.042375
39.683333	1	0.042500
39.700000	1	0.041750
39.716667	1	0.041750
39.733333	1	0.041625
39.750000	1	0.041000
39.766667	1	0.040500
39.783333	1	0.039625
39.800000	1	0.038500
39.816667	1	0.037875
39.833333	1	0.037250
39.850000	1	0.036250
39.866667	1	0.035500
39.883333	1	0.034250
39.900000	1	0.033250
39.916667	1	0.032500
39.933333	1	0.031125
39.950000	1	0.030375
39.966667	1	0.030250
39.983333	1	0.028875
40.000000	1	0.027750
