URL	chrom://bioreactor/micro_cm7/HPLC_Ultimate_3000/Users/markusar/20240708_MA_pHrange1.seq/591.smp/RI_1.channel/RI_1.chm
Channel	RI_1

Injection Information:
Data Vault	micro_cm7
Sequence	20240708_MA_pHrange1
Name	Pv2_5.7_2
Number	23
Position	BB11
Comment	
Processing Method	
Instrument Method	run_25B_method
Type	Unknown
Status	Finished
Inject Time	09.07.2024 06:35:52 +02:00
Volume (µl)	20.0000
Dilution Factor	1.0000
Weight	1.0000

Chromatogram Data Information:
Time Min. (min)	0.000000
Time Max. (min)	40.000000
Data Points	2401
Detector	RI
Generating Data System	Chromeleon 7.3.2.11814
Exporting Data System	Chromeleon 7.3.2.0
Operator	Instrument Controller
Signal Quantity	Refractive 
Signal Unit	µRIU
Signal Min.	-0.034750
Signal Max.	83.417500
Channel	RI_1
Driver Name	RID520Driver.dll
Channel Type	Evaluation
Min. Step (s)	1
Max. Step (s)	1
Average Step (s)	1

Signal Parameter Information:
Signal Info	

Chromatogram Data:
Time (min)	Step (s)	Value (µRIU)
0.000000	n.a.	0.028000
0.016667	1	0.029500
0.033333	1	0.030250
0.050000	1	0.031250
0.066667	1	0.033000
0.083333	1	0.035000
0.100000	1	0.036125
0.116667	1	0.036750
0.133333	1	0.037500
0.150000	1	0.038375
0.166667	1	0.039750
0.183333	1	0.040125
0.200000	1	0.040625
0.216667	1	0.041375
0.233333	1	0.042250
0.250000	1	0.042750
0.266667	1	0.043000
0.283333	1	0.043750
0.300000	1	0.044500
0.316667	1	0.045000
0.333333	1	0.044875
0.350000	1	0.044250
0.366667	1	0.043875
0.383333	1	0.043125
0.400000	1	0.041875
0.416667	1	0.041500
0.433333	1	0.042875
0.450000	1	0.043750
0.466667	1	0.044875
0.483333	1	0.046125
0.500000	1	0.046000
0.516667	1	0.046375
0.533333	1	0.045625
0.550000	1	0.044125
0.566667	1	0.042000
0.583333	1	0.039125
0.600000	1	0.036750
0.616667	1	0.033875
0.633333	1	0.030750
0.650000	1	0.028250
0.666667	1	0.026750
0.683333	1	0.025125
0.700000	1	0.024000
0.716667	1	0.022500
0.733333	1	0.020750
0.750000	1	0.019125
0.766667	1	0.017750
0.783333	1	0.016250
0.800000	1	0.015000
0.816667	1	0.014000
0.833333	1	0.012375
0.850000	1	0.011500
0.866667	1	0.009500
0.883333	1	0.008125
0.900000	1	0.006375
0.916667	1	0.005250
0.933333	1	0.003375
0.950000	1	0.002000
0.966667	1	0.001625
0.983333	1	0.000375
1.000000	1	-0.000250
1.016667	1	-0.001500
1.033333	1	-0.002125
1.050000	1	-0.003250
1.066667	1	-0.004875
1.083333	1	-0.005500
1.100000	1	-0.006250
1.116667	1	-0.007125
1.133333	1	-0.007875
1.150000	1	-0.008625
1.166667	1	-0.008500
1.183333	1	-0.008750
1.200000	1	-0.009625
1.216667	1	-0.010250
1.233333	1	-0.011125
1.250000	1	-0.011000
1.266667	1	-0.011750
1.283333	1	-0.011500
1.300000	1	-0.012125
1.316667	1	-0.012250
1.333333	1	-0.012375
1.350000	1	-0.012875
1.366667	1	-0.013500
1.383333	1	-0.013250
1.400000	1	-0.013625
1.416667	1	-0.014125
1.433333	1	-0.013375
1.450000	1	-0.013375
1.466667	1	-0.013375
1.483333	1	-0.013375
1.500000	1	-0.013125
1.516667	1	-0.012875
1.533333	1	-0.013500
1.550000	1	-0.013625
1.566667	1	-0.014125
1.583333	1	-0.014125
1.600000	1	-0.013625
1.616667	1	-0.013125
1.633333	1	-0.013375
1.650000	1	-0.013875
1.666667	1	-0.014250
1.683333	1	-0.014250
1.700000	1	-0.014000
1.716667	1	-0.014125
1.733333	1	-0.014750
1.750000	1	-0.015125
1.766667	1	-0.015875
1.783333	1	-0.016750
1.800000	1	-0.016500
1.816667	1	-0.016375
1.833333	1	-0.016500
1.850000	1	-0.016500
1.866667	1	-0.017000
1.883333	1	-0.018000
1.900000	1	-0.018000
1.916667	1	-0.018125
1.933333	1	-0.019125
1.950000	1	-0.019500
1.966667	1	-0.019750
1.983333	1	-0.020750
2.000000	1	-0.021125
2.016667	1	-0.021500
2.033333	1	-0.022375
2.050000	1	-0.023625
2.066667	1	-0.024250
2.083333	1	-0.024750
2.100000	1	-0.026000
2.116667	1	-0.027000
2.133333	1	-0.027875
2.150000	1	-0.028250
2.166667	1	-0.029000
2.183333	1	-0.029875
2.200000	1	-0.030375
2.216667	1	-0.030375
2.233333	1	-0.031625
2.250000	1	-0.032000
2.266667	1	-0.032500
2.283333	1	-0.033625
2.300000	1	-0.034250
2.316667	1	-0.034750
2.333333	1	-0.034750
2.350000	1	-0.034375
2.366667	1	-0.034500
2.383333	1	-0.034625
2.400000	1	-0.034500
2.416667	1	-0.034125
2.433333	1	-0.033500
2.450000	1	-0.032625
2.466667	1	-0.032125
2.483333	1	-0.031125
2.500000	1	-0.030500
2.516667	1	-0.031000
2.533333	1	-0.030250
2.550000	1	-0.029250
2.566667	1	-0.027750
2.583333	1	-0.026875
2.600000	1	-0.025375
2.616667	1	-0.023500
2.633333	1	-0.021500
2.650000	1	-0.019875
2.666667	1	-0.018125
2.683333	1	-0.016500
2.700000	1	-0.015000
2.716667	1	-0.013500
2.733333	1	-0.011625
2.750000	1	-0.010250
2.766667	1	-0.008625
2.783333	1	-0.007000
2.800000	1	-0.005625
2.816667	1	-0.004000
2.833333	1	-0.002500
2.850000	1	-0.001125
2.866667	1	0.000125
2.883333	1	0.001375
2.900000	1	0.003750
2.916667	1	0.005625
2.933333	1	0.006625
2.950000	1	0.007875
2.966667	1	0.009000
2.983333	1	0.010250
3.000000	1	0.011875
3.016667	1	0.012750
3.033333	1	0.014250
3.050000	1	0.015500
3.066667	1	0.017000
3.083333	1	0.018250
3.100000	1	0.018875
3.116667	1	0.019875
3.133333	1	0.020000
3.150000	1	0.020875
3.166667	1	0.021875
3.183333	1	0.022750
3.200000	1	0.023500
3.216667	1	0.024250
3.233333	1	0.025500
3.250000	1	0.026250
3.266667	1	0.026875
3.283333	1	0.027875
3.300000	1	0.029000
3.316667	1	0.029250
3.333333	1	0.029375
3.350000	1	0.029875
3.366667	1	0.030250
3.383333	1	0.030750
3.400000	1	0.030875
3.416667	1	0.031500
3.433333	1	0.031750
3.450000	1	0.031750
3.466667	1	0.031875
3.483333	1	0.031875
3.500000	1	0.031375
3.516667	1	0.031125
3.533333	1	0.030875
3.550000	1	0.030000
3.566667	1	0.029625
3.583333	1	0.028875
3.600000	1	0.028625
3.616667	1	0.028250
3.633333	1	0.027250
3.650000	1	0.026500
3.666667	1	0.025250
3.683333	1	0.024500
3.700000	1	0.023250
3.716667	1	0.022250
3.733333	1	0.021375
3.750000	1	0.020250
3.766667	1	0.019625
3.783333	1	0.018750
3.800000	1	0.017125
3.816667	1	0.015625
3.833333	1	0.015000
3.850000	1	0.014125
3.866667	1	0.013125
3.883333	1	0.012000
3.900000	1	0.011625
3.916667	1	0.011250
3.933333	1	0.010375
3.950000	1	0.010125
3.966667	1	0.009125
3.983333	1	0.008250
4.000000	1	0.008500
4.016667	1	0.008000
4.033333	1	0.007250
4.050000	1	0.007250
4.066667	1	0.007375
4.083333	1	0.007750
4.100000	1	0.007625
4.116667	1	0.007375
4.133333	1	0.007750
4.150000	1	0.008875
4.166667	1	0.009375
4.183333	1	0.010500
4.200000	1	0.011125
4.216667	1	0.012000
4.233333	1	0.013375
4.250000	1	0.014500
4.266667	1	0.015500
4.283333	1	0.016875
4.300000	1	0.018500
4.316667	1	0.019375
4.333333	1	0.021125
4.350000	1	0.022750
4.366667	1	0.024500
4.383333	1	0.026250
4.400000	1	0.027875
4.416667	1	0.030125
4.433333	1	0.031750
4.450000	1	0.034125
4.466667	1	0.036250
4.483333	1	0.037500
4.500000	1	0.039500
4.516667	1	0.042000
4.533333	1	0.043625
4.550000	1	0.045500
4.566667	1	0.047000
4.583333	1	0.048375
4.600000	1	0.050375
4.616667	1	0.052250
4.633333	1	0.054125
4.650000	1	0.056375
4.666667	1	0.058250
4.683333	1	0.060250
4.700000	1	0.062625
4.716667	1	0.064375
4.733333	1	0.067500
4.750000	1	0.070250
4.766667	1	0.073000
4.783333	1	0.075250
4.800000	1	0.078250
4.816667	1	0.080875
4.833333	1	0.083875
4.850000	1	0.087250
4.866667	1	0.091250
4.883333	1	0.094250
4.900000	1	0.097500
4.916667	1	0.100500
4.933333	1	0.104375
4.950000	1	0.108875
4.966667	1	0.113625
4.983333	1	0.117625
5.000000	1	0.121500
5.016667	1	0.126000
5.033333	1	0.130000
5.050000	1	0.134875
5.066667	1	0.139750
5.083333	1	0.144750
5.100000	1	0.149125
5.116667	1	0.154000
5.133333	1	0.157875
5.150000	1	0.163000
5.166667	1	0.167375
5.183333	1	0.172000
5.200000	1	0.176625
5.216667	1	0.181000
5.233333	1	0.185000
5.250000	1	0.188750
5.266667	1	0.192375
5.283333	1	0.195875
5.300000	1	0.199625
5.316667	1	0.202875
5.333333	1	0.207000
5.350000	1	0.209750
5.366667	1	0.212500
5.383333	1	0.215375
5.400000	1	0.218000
5.416667	1	0.220625
5.433333	1	0.222750
5.450000	1	0.225000
5.466667	1	0.226875
5.483333	1	0.228750
5.500000	1	0.230125
5.516667	1	0.231250
5.533333	1	0.232750
5.550000	1	0.233375
5.566667	1	0.234625
5.583333	1	0.235000
5.600000	1	0.236125
5.616667	1	0.236500
5.633333	1	0.236000
5.650000	1	0.236125
5.666667	1	0.235500
5.683333	1	0.234750
5.700000	1	0.233875
5.716667	1	0.232625
5.733333	1	0.231875
5.750000	1	0.230625
5.766667	1	0.229500
5.783333	1	0.228125
5.800000	1	0.226875
5.816667	1	0.225375
5.833333	1	0.222750
5.850000	1	0.220500
5.866667	1	0.217875
5.883333	1	0.214375
5.900000	1	0.211125
5.916667	1	0.208375
5.933333	1	0.204375
5.950000	1	0.200875
5.966667	1	0.197375
5.983333	1	0.193500
6.000000	1	0.189750
6.016667	1	0.185750
6.033333	1	0.182250
6.050000	1	0.178500
6.066667	1	0.173875
6.083333	1	0.170000
6.100000	1	0.165750
6.116667	1	0.161750
6.133333	1	0.157375
6.150000	1	0.153750
6.166667	1	0.149875
6.183333	1	0.146125
6.200000	1	0.141250
6.216667	1	0.137000
6.233333	1	0.132875
6.250000	1	0.128500
6.266667	1	0.124375
6.283333	1	0.120500
6.300000	1	0.116625
6.316667	1	0.113000
6.333333	1	0.108500
6.350000	1	0.104375
6.366667	1	0.101125
6.383333	1	0.097875
6.400000	1	0.094750
6.416667	1	0.091875
6.433333	1	0.089125
6.450000	1	0.086250
6.466667	1	0.083625
6.483333	1	0.082125
6.500000	1	0.079875
6.516667	1	0.079000
6.533333	1	0.077375
6.550000	1	0.076250
6.566667	1	0.074500
6.583333	1	0.073750
6.600000	1	0.073250
6.616667	1	0.072375
6.633333	1	0.072125
6.650000	1	0.071250
6.666667	1	0.070750
6.683333	1	0.070500
6.700000	1	0.070750
6.716667	1	0.071250
6.733333	1	0.071625
6.750000	1	0.071750
6.766667	1	0.073375
6.783333	1	0.074250
6.800000	1	0.075000
6.816667	1	0.075625
6.833333	1	0.076750
6.850000	1	0.077500
6.866667	1	0.077625
6.883333	1	0.078000
6.900000	1	0.078875
6.916667	1	0.079000
6.933333	1	0.080250
6.950000	1	0.082125
6.966667	1	0.083750
6.983333	1	0.084625
7.000000	1	0.086250
7.016667	1	0.087750
7.033333	1	0.089125
7.050000	1	0.090125
7.066667	1	0.091375
7.083333	1	0.092500
7.100000	1	0.094625
7.116667	1	0.097125
7.133333	1	0.100000
7.150000	1	0.101500
7.166667	1	0.103625
7.183333	1	0.105625
7.200000	1	0.107875
7.216667	1	0.109750
7.233333	1	0.111250
7.250000	1	0.113125
7.266667	1	0.115250
7.283333	1	0.117250
7.300000	1	0.119000
7.316667	1	0.121125
7.333333	1	0.122625
7.350000	1	0.124000
7.366667	1	0.125625
7.383333	1	0.126375
7.400000	1	0.126625
7.416667	1	0.127250
7.433333	1	0.127875
7.450000	1	0.127625
7.466667	1	0.127250
7.483333	1	0.127250
7.500000	1	0.125750
7.516667	1	0.124375
7.533333	1	0.122875
7.550000	1	0.121375
7.566667	1	0.119125
7.583333	1	0.117375
7.600000	1	0.115750
7.616667	1	0.113000
7.633333	1	0.110000
7.650000	1	0.106375
7.666667	1	0.103500
7.683333	1	0.100250
7.700000	1	0.096750
7.716667	1	0.093000
7.733333	1	0.090000
7.750000	1	0.086375
7.766667	1	0.083375
7.783333	1	0.079750
7.800000	1	0.076125
7.816667	1	0.072625
7.833333	1	0.069000
7.850000	1	0.065750
7.866667	1	0.062375
7.883333	1	0.059875
7.900000	1	0.056500
7.916667	1	0.053375
7.933333	1	0.050125
7.950000	1	0.047125
7.966667	1	0.043750
7.983333	1	0.041000
8.000000	1	0.038625
8.016667	1	0.036000
8.033333	1	0.033125
8.050000	1	0.031125
8.066667	1	0.028750
8.083333	1	0.026250
8.100000	1	0.024250
8.116667	1	0.022125
8.133333	1	0.020625
8.150000	1	0.019000
8.166667	1	0.017500
8.183333	1	0.016000
8.200000	1	0.014375
8.216667	1	0.013250
8.233333	1	0.011875
8.250000	1	0.010500
8.266667	1	0.008750
8.283333	1	0.007250
8.300000	1	0.005875
8.316667	1	0.004500
8.333333	1	0.004000
8.350000	1	0.002375
8.366667	1	0.001750
8.383333	1	0.000875
8.400000	1	-0.000375
8.416667	1	-0.001375
8.433333	1	-0.002125
8.450000	1	-0.003125
8.466667	1	-0.004250
8.483333	1	-0.005000
8.500000	1	-0.005375
8.516667	1	-0.005750
8.533333	1	-0.005500
8.550000	1	-0.005750
8.566667	1	-0.006250
8.583333	1	-0.006250
8.600000	1	-0.006375
8.616667	1	-0.006125
8.633333	1	-0.006125
8.650000	1	-0.005625
8.666667	1	-0.006125
8.683333	1	-0.005875
8.700000	1	-0.005750
8.716667	1	-0.004875
8.733333	1	-0.004375
8.750000	1	-0.003375
8.766667	1	-0.002375
8.783333	1	-0.001250
8.800000	1	-0.000500
8.816667	1	0.000500
8.833333	1	0.001500
8.850000	1	0.002500
8.866667	1	0.003875
8.883333	1	0.004875
8.900000	1	0.005875
8.916667	1	0.007125
8.933333	1	0.008500
8.950000	1	0.009750
8.966667	1	0.011000
8.983333	1	0.011500
9.000000	1	0.012250
9.016667	1	0.012375
9.033333	1	0.013125
9.050000	1	0.013625
9.066667	1	0.014375
9.083333	1	0.015000
9.100000	1	0.015250
9.116667	1	0.014750
9.133333	1	0.014875
9.150000	1	0.014250
9.166667	1	0.014000
9.183333	1	0.013500
9.200000	1	0.012875
9.216667	1	0.013000
9.233333	1	0.012250
9.250000	1	0.011500
9.266667	1	0.010375
9.283333	1	0.009625
9.300000	1	0.008250
9.316667	1	0.006625
9.333333	1	0.006000
9.350000	1	0.005375
9.366667	1	0.003625
9.383333	1	0.002625
9.400000	1	0.001875
9.416667	1	0.000500
9.433333	1	-0.000250
9.450000	1	-0.001375
9.466667	1	-0.002875
9.483333	1	-0.003500
9.500000	1	-0.004375
9.516667	1	-0.005125
9.533333	1	-0.005250
9.550000	1	-0.005875
9.566667	1	-0.006375
9.583333	1	-0.006000
9.600000	1	-0.007000
9.616667	1	-0.006500
9.633333	1	-0.007000
9.650000	1	-0.007875
9.666667	1	-0.008250
9.683333	1	-0.008375
9.700000	1	-0.008750
9.716667	1	-0.008625
9.733333	1	-0.008125
9.750000	1	-0.007375
9.766667	1	-0.007375
9.783333	1	-0.007375
9.800000	1	-0.008000
9.816667	1	-0.007625
9.833333	1	-0.007125
9.850000	1	-0.006625
9.866667	1	-0.005875
9.883333	1	-0.005125
9.900000	1	-0.004875
9.916667	1	-0.004625
9.933333	1	-0.004250
9.950000	1	-0.004125
9.966667	1	-0.003375
9.983333	1	-0.003000
10.000000	1	-0.003125
10.016667	1	-0.002750
10.033333	1	-0.002500
10.050000	1	-0.000875
10.066667	1	0.000875
10.083333	1	0.002875
10.100000	1	0.005875
10.116667	1	0.008750
10.133333	1	0.012625
10.150000	1	0.018750
10.166667	1	0.025000
10.183333	1	0.032625
10.200000	1	0.041125
10.216667	1	0.051625
10.233333	1	0.062875
10.250000	1	0.076625
10.266667	1	0.092625
10.283333	1	0.111500
10.300000	1	0.133250
10.316667	1	0.156625
10.333333	1	0.183000
10.350000	1	0.211250
10.366667	1	0.239625
10.383333	1	0.267500
10.400000	1	0.292000
10.416667	1	0.308750
10.433333	1	0.315875
10.450000	1	0.309625
10.466667	1	0.289000
10.483333	1	0.257125
10.500000	1	0.224625
10.516667	1	0.213375
10.533333	1	0.261125
10.550000	1	0.419000
10.566667	1	0.753000
10.583333	1	1.337375
10.600000	1	2.245125
10.616667	1	3.542500
10.633333	1	5.280500
10.650000	1	7.493250
10.666667	1	10.197125
10.683333	1	13.394000
10.700000	1	17.063875
10.716667	1	21.165125
10.733333	1	25.623875
10.750000	1	30.333125
10.766667	1	35.125500
10.783333	1	39.771250
10.800000	1	43.957750
10.816667	1	47.301500
10.833333	1	49.393875
10.850000	1	49.902500
10.866667	1	48.667625
10.883333	1	45.780125
10.900000	1	41.580500
10.916667	1	36.569250
10.933333	1	31.272375
10.950000	1	26.127125
10.966667	1	21.428875
10.983333	1	17.332750
11.000000	1	13.886875
11.016667	1	11.066375
11.033333	1	8.809750
11.050000	1	7.033875
11.066667	1	5.654000
11.083333	1	4.592375
11.100000	1	3.780125
11.116667	1	3.158750
11.133333	1	2.684000
11.150000	1	2.320250
11.166667	1	2.038625
11.183333	1	1.819000
11.200000	1	1.646125
11.216667	1	1.507500
11.233333	1	1.395625
11.250000	1	1.303375
11.266667	1	1.227000
11.283333	1	1.162750
11.300000	1	1.108125
11.316667	1	1.061500
11.333333	1	1.021000
11.350000	1	0.985250
11.366667	1	0.955125
11.383333	1	0.928750
11.400000	1	0.905250
11.416667	1	0.885125
11.433333	1	0.866750
11.450000	1	0.852000
11.466667	1	0.838750
11.483333	1	0.826875
11.500000	1	0.816875
11.516667	1	0.809000
11.533333	1	0.801750
11.550000	1	0.795625
11.566667	1	0.790875
11.583333	1	0.787250
11.600000	1	0.785625
11.616667	1	0.784625
11.633333	1	0.785250
11.650000	1	0.786000
11.666667	1	0.788125
11.683333	1	0.791375
11.700000	1	0.796750
11.716667	1	0.802375
11.733333	1	0.809250
11.750000	1	0.817250
11.766667	1	0.826750
11.783333	1	0.836000
11.800000	1	0.845375
11.816667	1	0.853500
11.833333	1	0.861750
11.850000	1	0.870375
11.866667	1	0.878125
11.883333	1	0.885250
11.900000	1	0.890875
11.916667	1	0.896625
11.933333	1	0.900875
11.950000	1	0.905625
11.966667	1	0.909000
11.983333	1	0.912500
12.000000	1	0.914875
12.016667	1	0.917500
12.033333	1	0.921250
12.050000	1	0.924375
12.066667	1	0.928250
12.083333	1	0.932750
12.100000	1	0.937250
12.116667	1	0.942000
12.133333	1	0.947625
12.150000	1	0.953625
12.166667	1	0.960500
12.183333	1	0.968500
12.200000	1	0.977125
12.216667	1	0.988625
12.233333	1	1.002250
12.250000	1	1.019250
12.266667	1	1.040750
12.283333	1	1.067875
12.300000	1	1.103375
12.316667	1	1.149375
12.333333	1	1.208125
12.350000	1	1.283750
12.366667	1	1.378875
12.383333	1	1.498625
12.400000	1	1.647625
12.416667	1	1.830625
12.433333	1	2.052500
12.450000	1	2.317500
12.466667	1	2.630375
12.483333	1	2.995125
12.500000	1	3.416125
12.516667	1	3.894125
12.533333	1	4.429625
12.550000	1	5.020875
12.566667	1	5.663375
12.583333	1	6.348625
12.600000	1	7.066250
12.616667	1	7.802375
12.633333	1	8.543750
12.650000	1	9.275125
12.666667	1	9.985500
12.683333	1	10.663375
12.700000	1	11.300875
12.716667	1	11.898625
12.733333	1	12.456375
12.750000	1	12.980500
12.766667	1	13.480625
12.783333	1	13.967375
12.800000	1	14.451250
12.816667	1	14.941500
12.833333	1	15.448000
12.850000	1	15.978500
12.866667	1	16.537250
12.883333	1	17.127000
12.900000	1	17.749875
12.916667	1	18.405250
12.933333	1	19.093375
12.950000	1	19.810625
12.966667	1	20.556500
12.983333	1	21.329375
13.000000	1	22.127250
13.016667	1	22.946875
13.033333	1	23.789875
13.050000	1	24.654000
13.066667	1	25.540625
13.083333	1	26.448375
13.100000	1	27.377125
13.116667	1	28.325500
13.133333	1	29.292625
13.150000	1	30.278750
13.166667	1	31.284500
13.183333	1	32.308750
13.200000	1	33.351750
13.216667	1	34.412375
13.233333	1	35.493250
13.250000	1	36.594000
13.266667	1	37.717125
13.283333	1	38.861250
13.300000	1	40.028000
13.316667	1	41.216375
13.333333	1	42.428375
13.350000	1	43.663125
13.366667	1	44.921875
13.383333	1	46.204000
13.400000	1	47.509875
13.416667	1	48.841250
13.433333	1	50.199375
13.450000	1	51.585625
13.466667	1	52.999750
13.483333	1	54.444500
13.500000	1	55.919250
13.516667	1	57.424125
13.533333	1	58.958875
13.550000	1	60.524125
13.566667	1	62.121000
13.583333	1	63.749500
13.600000	1	65.409125
13.616667	1	67.102750
13.633333	1	68.830875
13.650000	1	70.597125
13.666667	1	72.401500
13.683333	1	74.244875
13.700000	1	76.125125
13.716667	1	78.025875
13.733333	1	79.892250
13.750000	1	81.586750
13.766667	1	82.868125
13.783333	1	83.417500
13.800000	1	82.893750
13.816667	1	80.974625
13.833333	1	77.393250
13.850000	1	72.004625
13.866667	1	64.929750
13.883333	1	56.636625
13.900000	1	47.868250
13.916667	1	39.407125
13.933333	1	31.834750
13.950000	1	25.436500
13.966667	1	20.242500
13.983333	1	16.136625
14.000000	1	12.945375
14.016667	1	10.495625
14.033333	1	8.638000
14.050000	1	7.244750
14.066667	1	6.209875
14.083333	1	5.446125
14.100000	1	4.881625
14.116667	1	4.461375
14.133333	1	4.143625
14.150000	1	3.900000
14.166667	1	3.708500
14.183333	1	3.555625
14.200000	1	3.429375
14.216667	1	3.323625
14.233333	1	3.232250
14.250000	1	3.153500
14.266667	1	3.083375
14.283333	1	3.020250
14.300000	1	2.964000
14.316667	1	2.913375
14.333333	1	2.867875
14.350000	1	2.828500
14.366667	1	2.794000
14.383333	1	2.765875
14.400000	1	2.745875
14.416667	1	2.736000
14.433333	1	2.737625
14.450000	1	2.755000
14.466667	1	2.793250
14.483333	1	2.861000
14.500000	1	2.970500
14.516667	1	3.136625
14.533333	1	3.382000
14.550000	1	3.736000
14.566667	1	4.239000
14.583333	1	4.938000
14.600000	1	5.893625
14.616667	1	7.176625
14.633333	1	8.867875
14.650000	1	11.048250
14.666667	1	13.795875
14.683333	1	17.173750
14.700000	1	21.217125
14.716667	1	25.923500
14.733333	1	31.247500
14.750000	1	37.092375
14.766667	1	43.297500
14.783333	1	49.645000
14.800000	1	55.887125
14.816667	1	61.748875
14.833333	1	66.947875
14.850000	1	71.213375
14.866667	1	74.319875
14.883333	1	76.107500
14.900000	1	76.496750
14.916667	1	75.495750
14.933333	1	73.198500
14.950000	1	69.768875
14.966667	1	65.429625
14.983333	1	60.432750
15.000000	1	55.026000
15.016667	1	49.445500
15.033333	1	43.899250
15.050000	1	38.558375
15.066667	1	33.552875
15.083333	1	28.969125
15.100000	1	24.856500
15.116667	1	21.228375
15.133333	1	18.072750
15.150000	1	15.361750
15.166667	1	13.057750
15.183333	1	11.117125
15.200000	1	9.492125
15.216667	1	8.139625
15.233333	1	7.020000
15.250000	1	6.096125
15.266667	1	5.338125
15.283333	1	4.719125
15.300000	1	4.216875
15.316667	1	3.811625
15.333333	1	3.487750
15.350000	1	3.231375
15.366667	1	3.030750
15.383333	1	2.876625
15.400000	1	2.759750
15.416667	1	2.673250
15.433333	1	2.609875
15.450000	1	2.563625
15.466667	1	2.530500
15.483333	1	2.505250
15.500000	1	2.483250
15.516667	1	2.461500
15.533333	1	2.436875
15.550000	1	2.409500
15.566667	1	2.377250
15.583333	1	2.341750
15.600000	1	2.302750
15.616667	1	2.262125
15.633333	1	2.219875
15.650000	1	2.177500
15.666667	1	2.135875
15.683333	1	2.096125
15.700000	1	2.058875
15.716667	1	2.022250
15.733333	1	1.988250
15.750000	1	1.954625
15.766667	1	1.921500
15.783333	1	1.889250
15.800000	1	1.856750
15.816667	1	1.823125
15.833333	1	1.790000
15.850000	1	1.756000
15.866667	1	1.723250
15.883333	1	1.691000
15.900000	1	1.660875
15.916667	1	1.632250
15.933333	1	1.607375
15.950000	1	1.585750
15.966667	1	1.567500
15.983333	1	1.552500
16.000000	1	1.540500
16.016667	1	1.532500
16.033333	1	1.526375
16.050000	1	1.521125
16.066667	1	1.516875
16.083333	1	1.513250
16.100000	1	1.508250
16.116667	1	1.503125
16.133333	1	1.496625
16.150000	1	1.488875
16.166667	1	1.479250
16.183333	1	1.467625
16.200000	1	1.454375
16.216667	1	1.440125
16.233333	1	1.425125
16.250000	1	1.408625
16.266667	1	1.391250
16.283333	1	1.373750
16.300000	1	1.355500
16.316667	1	1.338000
16.333333	1	1.320375
16.350000	1	1.302875
16.366667	1	1.286000
16.383333	1	1.270375
16.400000	1	1.257250
16.416667	1	1.245125
16.433333	1	1.235125
16.450000	1	1.228125
16.466667	1	1.223375
16.483333	1	1.221125
16.500000	1	1.221500
16.516667	1	1.224375
16.533333	1	1.227750
16.550000	1	1.232625
16.566667	1	1.238750
16.583333	1	1.245125
16.600000	1	1.250125
16.616667	1	1.254625
16.633333	1	1.257875
16.650000	1	1.259125
16.666667	1	1.259125
16.683333	1	1.257625
16.700000	1	1.255375
16.716667	1	1.252750
16.733333	1	1.249500
16.750000	1	1.247000
16.766667	1	1.245000
16.783333	1	1.244625
16.800000	1	1.244625
16.816667	1	1.245875
16.833333	1	1.248125
16.850000	1	1.251500
16.866667	1	1.254500
16.883333	1	1.258000
16.900000	1	1.259625
16.916667	1	1.260625
16.933333	1	1.260125
16.950000	1	1.258500
16.966667	1	1.255875
16.983333	1	1.251625
17.000000	1	1.246000
17.016667	1	1.239625
17.033333	1	1.232750
17.050000	1	1.225000
17.066667	1	1.217375
17.083333	1	1.210250
17.100000	1	1.203875
17.116667	1	1.197750
17.133333	1	1.193750
17.150000	1	1.190625
17.166667	1	1.188125
17.183333	1	1.186625
17.200000	1	1.186250
17.216667	1	1.186000
17.233333	1	1.186375
17.250000	1	1.188250
17.266667	1	1.191250
17.283333	1	1.195000
17.300000	1	1.199375
17.316667	1	1.204000
17.333333	1	1.209375
17.350000	1	1.215000
17.366667	1	1.220750
17.383333	1	1.226125
17.400000	1	1.231375
17.416667	1	1.235875
17.433333	1	1.240000
17.450000	1	1.242500
17.466667	1	1.243750
17.483333	1	1.243750
17.500000	1	1.242000
17.516667	1	1.239000
17.533333	1	1.232875
17.550000	1	1.225875
17.566667	1	1.217250
17.583333	1	1.207125
17.600000	1	1.194625
17.616667	1	1.181375
17.633333	1	1.168000
17.650000	1	1.152625
17.666667	1	1.136375
17.683333	1	1.119500
17.700000	1	1.103000
17.716667	1	1.087000
17.733333	1	1.070500
17.750000	1	1.054500
17.766667	1	1.039125
17.783333	1	1.023625
17.800000	1	1.009250
17.816667	1	0.995250
17.833333	1	0.982750
17.850000	1	0.970375
17.866667	1	0.958625
17.883333	1	0.947375
17.900000	1	0.936750
17.916667	1	0.927250
17.933333	1	0.917750
17.950000	1	0.908750
17.966667	1	0.899750
17.983333	1	0.891375
18.000000	1	0.883500
18.016667	1	0.875000
18.033333	1	0.866625
18.050000	1	0.857750
18.066667	1	0.849000
18.083333	1	0.840625
18.100000	1	0.832625
18.116667	1	0.825750
18.133333	1	0.819000
18.150000	1	0.813625
18.166667	1	0.809125
18.183333	1	0.805500
18.200000	1	0.803375
18.216667	1	0.801000
18.233333	1	0.800250
18.250000	1	0.800250
18.266667	1	0.801125
18.283333	1	0.802750
18.300000	1	0.805000
18.316667	1	0.807250
18.333333	1	0.810000
18.350000	1	0.813750
18.366667	1	0.818500
18.383333	1	0.823250
18.400000	1	0.828750
18.416667	1	0.835000
18.433333	1	0.842250
18.450000	1	0.850250
18.466667	1	0.861125
18.483333	1	0.872875
18.500000	1	0.886375
18.516667	1	0.900500
18.533333	1	0.917375
18.550000	1	0.935500
18.566667	1	0.956125
18.583333	1	0.978375
18.600000	1	1.002500
18.616667	1	1.028750
18.633333	1	1.056500
18.650000	1	1.085625
18.666667	1	1.116375
18.683333	1	1.148125
18.700000	1	1.181250
18.716667	1	1.215125
18.733333	1	1.250125
18.750000	1	1.286250
18.766667	1	1.322250
18.783333	1	1.358000
18.800000	1	1.393375
18.816667	1	1.427125
18.833333	1	1.459000
18.850000	1	1.487625
18.866667	1	1.512875
18.883333	1	1.533000
18.900000	1	1.548375
18.916667	1	1.558000
18.933333	1	1.561250
18.950000	1	1.557500
18.966667	1	1.547250
18.983333	1	1.529875
19.000000	1	1.505750
19.016667	1	1.475000
19.033333	1	1.439500
19.050000	1	1.398875
19.066667	1	1.355375
19.083333	1	1.308875
19.100000	1	1.261750
19.116667	1	1.216125
19.133333	1	1.172000
19.150000	1	1.132500
19.166667	1	1.098000
19.183333	1	1.070125
19.200000	1	1.050500
19.216667	1	1.041000
19.233333	1	1.044000
19.250000	1	1.059875
19.266667	1	1.090125
19.283333	1	1.136500
19.300000	1	1.199000
19.316667	1	1.278875
19.333333	1	1.377125
19.350000	1	1.492125
19.366667	1	1.623375
19.383333	1	1.769125
19.400000	1	1.926125
19.416667	1	2.090375
19.433333	1	2.258000
19.450000	1	2.424500
19.466667	1	2.585375
19.483333	1	2.733875
19.500000	1	2.865250
19.516667	1	2.976375
19.533333	1	3.062500
19.550000	1	3.118625
19.566667	1	3.147625
19.583333	1	3.148000
19.600000	1	3.118875
19.616667	1	3.061875
19.633333	1	2.980250
19.650000	1	2.878625
19.666667	1	2.759750
19.683333	1	2.627750
19.700000	1	2.487500
19.716667	1	2.341750
19.733333	1	2.195375
19.750000	1	2.050000
19.766667	1	1.909250
19.783333	1	1.774000
19.800000	1	1.646750
19.816667	1	1.526125
19.833333	1	1.414625
19.850000	1	1.312250
19.866667	1	1.218625
19.883333	1	1.133500
19.900000	1	1.056875
19.916667	1	0.988375
19.933333	1	0.927625
19.950000	1	0.872250
19.966667	1	0.825500
19.983333	1	0.784875
20.000000	1	0.749375
20.016667	1	0.720000
20.033333	1	0.695375
20.050000	1	0.676250
20.066667	1	0.661250
20.083333	1	0.651125
20.100000	1	0.645375
20.116667	1	0.643625
20.133333	1	0.646000
20.150000	1	0.651875
20.166667	1	0.660375
20.183333	1	0.671250
20.200000	1	0.683375
20.216667	1	0.697500
20.233333	1	0.711250
20.250000	1	0.725375
20.266667	1	0.738500
20.283333	1	0.749250
20.300000	1	0.757750
20.316667	1	0.763250
20.333333	1	0.766500
20.350000	1	0.766875
20.366667	1	0.762375
20.383333	1	0.754250
20.400000	1	0.743625
20.416667	1	0.730000
20.433333	1	0.715000
20.450000	1	0.699125
20.466667	1	0.681875
20.483333	1	0.665375
20.500000	1	0.651500
20.516667	1	0.640250
20.533333	1	0.631875
20.550000	1	0.627875
20.566667	1	0.628625
20.583333	1	0.635250
20.600000	1	0.649375
20.616667	1	0.671125
20.633333	1	0.701875
20.650000	1	0.740625
20.666667	1	0.787875
20.683333	1	0.843375
20.700000	1	0.906125
20.716667	1	0.977125
20.733333	1	1.053750
20.750000	1	1.134625
20.766667	1	1.217500
20.783333	1	1.301125
20.800000	1	1.382000
20.816667	1	1.457250
20.833333	1	1.525250
20.850000	1	1.582750
20.866667	1	1.628375
20.883333	1	1.660000
20.900000	1	1.677375
20.916667	1	1.679750
20.933333	1	1.667000
20.950000	1	1.640250
20.966667	1	1.601500
20.983333	1	1.551250
21.000000	1	1.491375
21.016667	1	1.423875
21.033333	1	1.351750
21.050000	1	1.277000
21.066667	1	1.202125
21.083333	1	1.128625
21.100000	1	1.057125
21.116667	1	0.988125
21.133333	1	0.924000
21.150000	1	0.864000
21.166667	1	0.809375
21.183333	1	0.759375
21.200000	1	0.715250
21.216667	1	0.675500
21.233333	1	0.640375
21.250000	1	0.609250
21.266667	1	0.582000
21.283333	1	0.558625
21.300000	1	0.538625
21.316667	1	0.520750
21.333333	1	0.505625
21.350000	1	0.492125
21.366667	1	0.480750
21.383333	1	0.470875
21.400000	1	0.462125
21.416667	1	0.455000
21.433333	1	0.448375
21.450000	1	0.442625
21.466667	1	0.438125
21.483333	1	0.433250
21.500000	1	0.429875
21.516667	1	0.426625
21.533333	1	0.424375
21.550000	1	0.422625
21.566667	1	0.421250
21.583333	1	0.421000
21.600000	1	0.421000
21.616667	1	0.422000
21.633333	1	0.424125
21.650000	1	0.427125
21.666667	1	0.431500
21.683333	1	0.437375
21.700000	1	0.444250
21.716667	1	0.451750
21.733333	1	0.460375
21.750000	1	0.470125
21.766667	1	0.481750
21.783333	1	0.493500
21.800000	1	0.505875
21.816667	1	0.519000
21.833333	1	0.533250
21.850000	1	0.547000
21.866667	1	0.561375
21.883333	1	0.575500
21.900000	1	0.589375
21.916667	1	0.602250
21.933333	1	0.614625
21.950000	1	0.625500
21.966667	1	0.635250
21.983333	1	0.644000
22.000000	1	0.651875
22.016667	1	0.658125
22.033333	1	0.663750
22.050000	1	0.668000
22.066667	1	0.670875
22.083333	1	0.671875
22.100000	1	0.672750
22.116667	1	0.672625
22.133333	1	0.670375
22.150000	1	0.668000
22.166667	1	0.663875
22.183333	1	0.658625
22.200000	1	0.652625
22.216667	1	0.645125
22.233333	1	0.637000
22.250000	1	0.628000
22.266667	1	0.617375
22.283333	1	0.605750
22.300000	1	0.592875
22.316667	1	0.580250
22.333333	1	0.567000
22.350000	1	0.552875
22.366667	1	0.539000
22.383333	1	0.524500
22.400000	1	0.510000
22.416667	1	0.496500
22.433333	1	0.482000
22.450000	1	0.468750
22.466667	1	0.456375
22.483333	1	0.443625
22.500000	1	0.431250
22.516667	1	0.420625
22.533333	1	0.410500
22.550000	1	0.400750
22.566667	1	0.391375
22.583333	1	0.382625
22.600000	1	0.374500
22.616667	1	0.367250
22.633333	1	0.359875
22.650000	1	0.353250
22.666667	1	0.346500
22.683333	1	0.340375
22.700000	1	0.333750
22.716667	1	0.328250
22.733333	1	0.322500
22.750000	1	0.317000
22.766667	1	0.312000
22.783333	1	0.306750
22.800000	1	0.302000
22.816667	1	0.296500
22.833333	1	0.291625
22.850000	1	0.287000
22.866667	1	0.283125
22.883333	1	0.279750
22.900000	1	0.276625
22.916667	1	0.273250
22.933333	1	0.271000
22.950000	1	0.269000
22.966667	1	0.266875
22.983333	1	0.266000
23.000000	1	0.264875
23.016667	1	0.264625
23.033333	1	0.264500
23.050000	1	0.264625
23.066667	1	0.265250
23.083333	1	0.266625
23.100000	1	0.268125
23.116667	1	0.270625
23.133333	1	0.272875
23.150000	1	0.275000
23.166667	1	0.277625
23.183333	1	0.280375
23.200000	1	0.283250
23.216667	1	0.285875
23.233333	1	0.289000
23.250000	1	0.292875
23.266667	1	0.297750
23.283333	1	0.303750
23.300000	1	0.310625
23.316667	1	0.320125
23.333333	1	0.331750
23.350000	1	0.347375
23.366667	1	0.364875
23.383333	1	0.388125
23.400000	1	0.416875
23.416667	1	0.452375
23.433333	1	0.497375
23.450000	1	0.552750
23.466667	1	0.619875
23.483333	1	0.700625
23.500000	1	0.797125
23.516667	1	0.911250
23.533333	1	1.044625
23.550000	1	1.199125
23.566667	1	1.375625
23.583333	1	1.574125
23.600000	1	1.795875
23.616667	1	2.038875
23.633333	1	2.302375
23.650000	1	2.583750
23.666667	1	2.880000
23.683333	1	3.187875
23.700000	1	3.501750
23.716667	1	3.817000
23.733333	1	4.126375
23.750000	1	4.422500
23.766667	1	4.699375
23.783333	1	4.951000
23.800000	1	5.169875
23.816667	1	5.352625
23.833333	1	5.493500
23.850000	1	5.589875
23.866667	1	5.641250
23.883333	1	5.645125
23.900000	1	5.603375
23.916667	1	5.518375
23.933333	1	5.392750
23.950000	1	5.231375
23.966667	1	5.037625
23.983333	1	4.817750
24.000000	1	4.577500
24.016667	1	4.323250
24.033333	1	4.060625
24.050000	1	3.793375
24.066667	1	3.526875
24.083333	1	3.264875
24.100000	1	3.010125
24.116667	1	2.765375
24.133333	1	2.532750
24.150000	1	2.314125
24.166667	1	2.109500
24.183333	1	1.920250
24.200000	1	1.746000
24.216667	1	1.587125
24.233333	1	1.442375
24.250000	1	1.312125
24.266667	1	1.194750
24.283333	1	1.090625
24.300000	1	0.997250
24.316667	1	0.913875
24.333333	1	0.841125
24.350000	1	0.777625
24.366667	1	0.721250
24.383333	1	0.672750
24.400000	1	0.631375
24.416667	1	0.596000
24.433333	1	0.565750
24.450000	1	0.540500
24.466667	1	0.519375
24.483333	1	0.501750
24.500000	1	0.488375
24.516667	1	0.476875
24.533333	1	0.467500
24.550000	1	0.460125
24.566667	1	0.453875
24.583333	1	0.448000
24.600000	1	0.443875
24.616667	1	0.438750
24.633333	1	0.435375
24.650000	1	0.431625
24.666667	1	0.427500
24.683333	1	0.423625
24.700000	1	0.419750
24.716667	1	0.415375
24.733333	1	0.410750
24.750000	1	0.406000
24.766667	1	0.401250
24.783333	1	0.396375
24.800000	1	0.391500
24.816667	1	0.386625
24.833333	1	0.381500
24.850000	1	0.376500
24.866667	1	0.372500
24.883333	1	0.367125
24.900000	1	0.362375
24.916667	1	0.358250
24.933333	1	0.354375
24.950000	1	0.351125
24.966667	1	0.347625
24.983333	1	0.344250
25.000000	1	0.341250
25.016667	1	0.338500
25.033333	1	0.335500
25.050000	1	0.333875
25.066667	1	0.331125
25.083333	1	0.328750
25.100000	1	0.326625
25.116667	1	0.323875
25.133333	1	0.321875
25.150000	1	0.319375
25.166667	1	0.317500
25.183333	1	0.315250
25.200000	1	0.313125
25.216667	1	0.309875
25.233333	1	0.307625
25.250000	1	0.305875
25.266667	1	0.303125
25.283333	1	0.301125
25.300000	1	0.298000
25.316667	1	0.295500
25.333333	1	0.293750
25.350000	1	0.291750
25.366667	1	0.289250
25.383333	1	0.287250
25.400000	1	0.285250
25.416667	1	0.283625
25.433333	1	0.282375
25.450000	1	0.281375
25.466667	1	0.280375
25.483333	1	0.279750
25.500000	1	0.278500
25.516667	1	0.277500
25.533333	1	0.277625
25.550000	1	0.276375
25.566667	1	0.276000
25.583333	1	0.276250
25.600000	1	0.275875
25.616667	1	0.274875
25.633333	1	0.273875
25.650000	1	0.273375
25.666667	1	0.272625
25.683333	1	0.272000
25.700000	1	0.270750
25.716667	1	0.269500
25.733333	1	0.268625
25.750000	1	0.266875
25.766667	1	0.265125
25.783333	1	0.263750
25.800000	1	0.263125
25.816667	1	0.262500
25.833333	1	0.261875
25.850000	1	0.261125
25.866667	1	0.260500
25.883333	1	0.260125
25.900000	1	0.260500
25.916667	1	0.261000
25.933333	1	0.262250
25.950000	1	0.263250
25.966667	1	0.265500
25.983333	1	0.267500
26.000000	1	0.270250
26.016667	1	0.273500
26.033333	1	0.276500
26.050000	1	0.280500
26.066667	1	0.285000
26.083333	1	0.288750
26.100000	1	0.293000
26.116667	1	0.298250
26.133333	1	0.303375
26.150000	1	0.308750
26.166667	1	0.313875
26.183333	1	0.318750
26.200000	1	0.324000
26.216667	1	0.329250
26.233333	1	0.333875
26.250000	1	0.337625
26.266667	1	0.340375
26.283333	1	0.343125
26.300000	1	0.345750
26.316667	1	0.347625
26.333333	1	0.348500
26.350000	1	0.348500
26.366667	1	0.348500
26.383333	1	0.347250
26.400000	1	0.345500
26.416667	1	0.342875
26.433333	1	0.339875
26.450000	1	0.335625
26.466667	1	0.331250
26.483333	1	0.326750
26.500000	1	0.321625
26.516667	1	0.316000
26.533333	1	0.310375
26.550000	1	0.303500
26.566667	1	0.297375
26.583333	1	0.290625
26.600000	1	0.284750
26.616667	1	0.278750
26.633333	1	0.272500
26.650000	1	0.265875
26.666667	1	0.260500
26.683333	1	0.255250
26.700000	1	0.249875
26.716667	1	0.245250
26.733333	1	0.240375
26.750000	1	0.235750
26.766667	1	0.232250
26.783333	1	0.228375
26.800000	1	0.225375
26.816667	1	0.222500
26.833333	1	0.220250
26.850000	1	0.217625
26.866667	1	0.215375
26.883333	1	0.214375
26.900000	1	0.213500
26.916667	1	0.212375
26.933333	1	0.213000
26.950000	1	0.213250
26.966667	1	0.214500
26.983333	1	0.215625
27.000000	1	0.217125
27.016667	1	0.219125
27.033333	1	0.221625
27.050000	1	0.225000
27.066667	1	0.228000
27.083333	1	0.232000
27.100000	1	0.237750
27.116667	1	0.244000
27.133333	1	0.250500
27.150000	1	0.258125
27.166667	1	0.266750
27.183333	1	0.277500
27.200000	1	0.289875
27.216667	1	0.304750
27.233333	1	0.321625
27.250000	1	0.341375
27.266667	1	0.364125
27.283333	1	0.390500
27.300000	1	0.420625
27.316667	1	0.456625
27.333333	1	0.498000
27.350000	1	0.546000
27.366667	1	0.601000
27.383333	1	0.663375
27.400000	1	0.734875
27.416667	1	0.816125
27.433333	1	0.907125
27.450000	1	1.010250
27.466667	1	1.123625
27.483333	1	1.250375
27.500000	1	1.389250
27.516667	1	1.541125
27.533333	1	1.704625
27.550000	1	1.879375
27.566667	1	2.065250
27.583333	1	2.259875
27.600000	1	2.463125
27.616667	1	2.671875
27.633333	1	2.884750
27.650000	1	3.100375
27.666667	1	3.314125
27.683333	1	3.523625
27.700000	1	3.725875
27.716667	1	3.916500
27.733333	1	4.093750
27.750000	1	4.252750
27.766667	1	4.392250
27.783333	1	4.508750
27.800000	1	4.599875
27.816667	1	4.664250
27.833333	1	4.700000
27.850000	1	4.707500
27.866667	1	4.686125
27.883333	1	4.635250
27.900000	1	4.557125
27.916667	1	4.452750
27.933333	1	4.325250
27.950000	1	4.176625
27.966667	1	4.009750
27.983333	1	3.827375
28.000000	1	3.633875
28.016667	1	3.432500
28.033333	1	3.225875
28.050000	1	3.017000
28.066667	1	2.809375
28.083333	1	2.604375
28.100000	1	2.404500
28.116667	1	2.212000
28.133333	1	2.029125
28.150000	1	1.855750
28.166667	1	1.692375
28.183333	1	1.541750
28.200000	1	1.402875
28.216667	1	1.275250
28.233333	1	1.158750
28.250000	1	1.053625
28.266667	1	0.958500
28.283333	1	0.873500
28.300000	1	0.798125
28.316667	1	0.731750
28.333333	1	0.673500
28.350000	1	0.623125
28.366667	1	0.579750
28.383333	1	0.543125
28.400000	1	0.511875
28.416667	1	0.486250
28.433333	1	0.465375
28.450000	1	0.449875
28.466667	1	0.438000
28.483333	1	0.430000
28.500000	1	0.425125
28.516667	1	0.423625
28.533333	1	0.423875
28.550000	1	0.426250
28.566667	1	0.431375
28.583333	1	0.438125
28.600000	1	0.446375
28.616667	1	0.455750
28.633333	1	0.466000
28.650000	1	0.476250
28.666667	1	0.487125
28.683333	1	0.498500
28.700000	1	0.509500
28.716667	1	0.520625
28.733333	1	0.530125
28.750000	1	0.540375
28.766667	1	0.549625
28.783333	1	0.557625
28.800000	1	0.565375
28.816667	1	0.571875
28.833333	1	0.576750
28.850000	1	0.581250
28.866667	1	0.584125
28.883333	1	0.585750
28.900000	1	0.586500
28.916667	1	0.585625
28.933333	1	0.583625
28.950000	1	0.579625
28.966667	1	0.575250
28.983333	1	0.569375
29.000000	1	0.563000
29.016667	1	0.554625
29.033333	1	0.545875
29.050000	1	0.536250
29.066667	1	0.525125
29.083333	1	0.513000
29.100000	1	0.500500
29.116667	1	0.487625
29.133333	1	0.473375
29.150000	1	0.459500
29.166667	1	0.444875
29.183333	1	0.429625
29.200000	1	0.414625
29.216667	1	0.399875
29.233333	1	0.385125
29.250000	1	0.369875
29.266667	1	0.355000
29.283333	1	0.340750
29.300000	1	0.326500
29.316667	1	0.312125
29.333333	1	0.297500
29.350000	1	0.283625
29.366667	1	0.270875
29.383333	1	0.258375
29.400000	1	0.247375
29.416667	1	0.235750
29.433333	1	0.225000
29.450000	1	0.215000
29.466667	1	0.205250
29.483333	1	0.196375
29.500000	1	0.188250
29.516667	1	0.181125
29.533333	1	0.174000
29.550000	1	0.166875
29.566667	1	0.160875
29.583333	1	0.155250
29.600000	1	0.150500
29.616667	1	0.146375
29.633333	1	0.142250
29.650000	1	0.139375
29.666667	1	0.136375
29.683333	1	0.133625
29.700000	1	0.131750
29.716667	1	0.129500
29.733333	1	0.128000
29.750000	1	0.127375
29.766667	1	0.127375
29.783333	1	0.127500
29.800000	1	0.127500
29.816667	1	0.127375
29.833333	1	0.128125
29.850000	1	0.129125
29.866667	1	0.128750
29.883333	1	0.130125
29.900000	1	0.130500
29.916667	1	0.131000
29.933333	1	0.131375
29.950000	1	0.132750
29.966667	1	0.133750
29.983333	1	0.135000
30.000000	1	0.135875
30.016667	1	0.136125
30.033333	1	0.136625
30.050000	1	0.137125
30.066667	1	0.138000
30.083333	1	0.138000
30.100000	1	0.138500
30.116667	1	0.139000
30.133333	1	0.139375
30.150000	1	0.139750
30.166667	1	0.140000
30.183333	1	0.139750
30.200000	1	0.139375
30.216667	1	0.139000
30.233333	1	0.137500
30.250000	1	0.137250
30.266667	1	0.137000
30.283333	1	0.135875
30.300000	1	0.135750
30.316667	1	0.136375
30.333333	1	0.136125
30.350000	1	0.136250
30.366667	1	0.135625
30.383333	1	0.135375
30.400000	1	0.136125
30.416667	1	0.135750
30.433333	1	0.136125
30.450000	1	0.137375
30.466667	1	0.137625
30.483333	1	0.139250
30.500000	1	0.140375
30.516667	1	0.141875
30.533333	1	0.144375
30.550000	1	0.147125
30.566667	1	0.149750
30.583333	1	0.153125
30.600000	1	0.157375
30.616667	1	0.162250
30.633333	1	0.166875
30.650000	1	0.172625
30.666667	1	0.178500
30.683333	1	0.184875
30.700000	1	0.192000
30.716667	1	0.200000
30.733333	1	0.208625
30.750000	1	0.217125
30.766667	1	0.226750
30.783333	1	0.238125
30.800000	1	0.249750
30.816667	1	0.262625
30.833333	1	0.276000
30.850000	1	0.291625
30.866667	1	0.307500
30.883333	1	0.325250
30.900000	1	0.344875
30.916667	1	0.367125
30.933333	1	0.392375
30.950000	1	0.419625
30.966667	1	0.450875
30.983333	1	0.485750
31.000000	1	0.525750
31.016667	1	0.571125
31.033333	1	0.622125
31.050000	1	0.679625
31.066667	1	0.744500
31.083333	1	0.817250
31.100000	1	0.898875
31.116667	1	0.989500
31.133333	1	1.090125
31.150000	1	1.201750
31.166667	1	1.324375
31.183333	1	1.458500
31.200000	1	1.604250
31.216667	1	1.761375
31.233333	1	1.929125
31.250000	1	2.108375
31.266667	1	2.296750
31.283333	1	2.493625
31.300000	1	2.698125
31.316667	1	2.909125
31.333333	1	3.123125
31.350000	1	3.339125
31.366667	1	3.555250
31.383333	1	3.768875
31.400000	1	3.977250
31.416667	1	4.177875
31.433333	1	4.368250
31.450000	1	4.545500
31.466667	1	4.707125
31.483333	1	4.851125
31.500000	1	4.975500
31.516667	1	5.078500
31.533333	1	5.159000
31.550000	1	5.216750
31.566667	1	5.248625
31.583333	1	5.257125
31.600000	1	5.240625
31.616667	1	5.199875
31.633333	1	5.136625
31.650000	1	5.052000
31.666667	1	4.947625
31.683333	1	4.824250
31.700000	1	4.684000
31.716667	1	4.530000
31.733333	1	4.364625
31.750000	1	4.189250
31.766667	1	4.005500
31.783333	1	3.816000
31.800000	1	3.622125
31.816667	1	3.427250
31.833333	1	3.232250
31.850000	1	3.038500
31.866667	1	2.849000
31.883333	1	2.663625
31.900000	1	2.484875
31.916667	1	2.312375
31.933333	1	2.147375
31.950000	1	1.990000
31.966667	1	1.840500
31.983333	1	1.699125
32.000000	1	1.565750
32.016667	1	1.440875
32.033333	1	1.323500
32.050000	1	1.215125
32.066667	1	1.114250
32.083333	1	1.020750
32.100000	1	0.934625
32.116667	1	0.855250
32.133333	1	0.781375
32.150000	1	0.713875
32.166667	1	0.652750
32.183333	1	0.596000
32.200000	1	0.544125
32.216667	1	0.496750
32.233333	1	0.452625
32.250000	1	0.412625
32.266667	1	0.375875
32.283333	1	0.342625
32.300000	1	0.311875
32.316667	1	0.284500
32.333333	1	0.258750
32.350000	1	0.235375
32.366667	1	0.215000
32.383333	1	0.195750
32.400000	1	0.178875
32.416667	1	0.163000
32.433333	1	0.148875
32.450000	1	0.135375
32.466667	1	0.124250
32.483333	1	0.113750
32.500000	1	0.104125
32.516667	1	0.095375
32.533333	1	0.087625
32.550000	1	0.080250
32.566667	1	0.074250
32.583333	1	0.068375
32.600000	1	0.063375
32.616667	1	0.059250
32.633333	1	0.054250
32.650000	1	0.050375
32.666667	1	0.047125
32.683333	1	0.044250
32.700000	1	0.042000
32.716667	1	0.038875
32.733333	1	0.036750
32.750000	1	0.035625
32.766667	1	0.034250
32.783333	1	0.032875
32.800000	1	0.031750
32.816667	1	0.031250
32.833333	1	0.030875
32.850000	1	0.030375
32.866667	1	0.030625
32.883333	1	0.029750
32.900000	1	0.029875
32.916667	1	0.029875
32.933333	1	0.030250
32.950000	1	0.030625
32.966667	1	0.031250
32.983333	1	0.031375
33.000000	1	0.032000
33.016667	1	0.032875
33.033333	1	0.033625
33.050000	1	0.033750
33.066667	1	0.034875
33.083333	1	0.035375
33.100000	1	0.036500
33.116667	1	0.037125
33.133333	1	0.037625
33.150000	1	0.038625
33.166667	1	0.039375
33.183333	1	0.039875
33.200000	1	0.040875
33.216667	1	0.041625
33.233333	1	0.043125
33.250000	1	0.044000
33.266667	1	0.044750
33.283333	1	0.045250
33.300000	1	0.045750
33.316667	1	0.047000
33.333333	1	0.048000
33.350000	1	0.049125
33.366667	1	0.050000
33.383333	1	0.051125
33.400000	1	0.053000
33.416667	1	0.053750
33.433333	1	0.055000
33.450000	1	0.056375
33.466667	1	0.057375
33.483333	1	0.058250
33.500000	1	0.059875
33.516667	1	0.061125
33.533333	1	0.063125
33.550000	1	0.064500
33.566667	1	0.066625
33.583333	1	0.068750
33.600000	1	0.071375
33.616667	1	0.073500
33.633333	1	0.076125
33.650000	1	0.079000
33.666667	1	0.081500
33.683333	1	0.083750
33.700000	1	0.086500
33.716667	1	0.089500
33.733333	1	0.092250
33.750000	1	0.095500
33.766667	1	0.098750
33.783333	1	0.101375
33.800000	1	0.104500
33.816667	1	0.108000
33.833333	1	0.110625
33.850000	1	0.113625
33.866667	1	0.116875
33.883333	1	0.119750
33.900000	1	0.123250
33.916667	1	0.125875
33.933333	1	0.128750
33.950000	1	0.131375
33.966667	1	0.134000
33.983333	1	0.136750
34.000000	1	0.138875
34.016667	1	0.140750
34.033333	1	0.141875
34.050000	1	0.143625
34.066667	1	0.144375
34.083333	1	0.145125
34.100000	1	0.145500
34.116667	1	0.145875
34.133333	1	0.146500
34.150000	1	0.146750
34.166667	1	0.147000
34.183333	1	0.146750
34.200000	1	0.147125
34.216667	1	0.147000
34.233333	1	0.146250
34.250000	1	0.146000
34.266667	1	0.145750
34.283333	1	0.145625
34.300000	1	0.145000
34.316667	1	0.144500
34.333333	1	0.144000
34.350000	1	0.143750
34.366667	1	0.143875
34.383333	1	0.143875
34.400000	1	0.143750
34.416667	1	0.144125
34.433333	1	0.144250
34.450000	1	0.143750
34.466667	1	0.143625
34.483333	1	0.143875
34.500000	1	0.144375
34.516667	1	0.144750
34.533333	1	0.145250
34.550000	1	0.145625
34.566667	1	0.147375
34.583333	1	0.147750
34.600000	1	0.148375
34.616667	1	0.149875
34.633333	1	0.150375
34.650000	1	0.150750
34.666667	1	0.151125
34.683333	1	0.151875
34.700000	1	0.152125
34.716667	1	0.153000
34.733333	1	0.153750
34.750000	1	0.153750
34.766667	1	0.153125
34.783333	1	0.153375
34.800000	1	0.153750
34.816667	1	0.153500
34.833333	1	0.152875
34.850000	1	0.152000
34.866667	1	0.151125
34.883333	1	0.150750
34.900000	1	0.149875
34.916667	1	0.149375
34.933333	1	0.148125
34.950000	1	0.147625
34.966667	1	0.146750
34.983333	1	0.145125
35.000000	1	0.143625
35.016667	1	0.142250
35.033333	1	0.141125
35.050000	1	0.140125
35.066667	1	0.138125
35.083333	1	0.136500
35.100000	1	0.135375
35.116667	1	0.134125
35.133333	1	0.133000
35.150000	1	0.131500
35.166667	1	0.131250
35.183333	1	0.130000
35.200000	1	0.128875
35.216667	1	0.127000
35.233333	1	0.125625
35.250000	1	0.124875
35.266667	1	0.124250
35.283333	1	0.124000
35.300000	1	0.123625
35.316667	1	0.123500
35.333333	1	0.123375
35.350000	1	0.123375
35.366667	1	0.123250
35.383333	1	0.123125
35.400000	1	0.123000
35.416667	1	0.123750
35.433333	1	0.124125
35.450000	1	0.124375
35.466667	1	0.125125
35.483333	1	0.125500
35.500000	1	0.126000
35.516667	1	0.126875
35.533333	1	0.127875
35.550000	1	0.128750
35.566667	1	0.129000
35.583333	1	0.129625
35.600000	1	0.131125
35.616667	1	0.131750
35.633333	1	0.131375
35.650000	1	0.131375
35.666667	1	0.131875
35.683333	1	0.131875
35.700000	1	0.132500
35.716667	1	0.132375
35.733333	1	0.133375
35.750000	1	0.134000
35.766667	1	0.133500
35.783333	1	0.133875
35.800000	1	0.133875
35.816667	1	0.134000
35.833333	1	0.133625
35.850000	1	0.133000
35.866667	1	0.132375
35.883333	1	0.131625
35.900000	1	0.131125
35.916667	1	0.130875
35.933333	1	0.130250
35.950000	1	0.129500
35.966667	1	0.128375
35.983333	1	0.127000
36.000000	1	0.126125
36.016667	1	0.125375
36.033333	1	0.124125
36.050000	1	0.122500
36.066667	1	0.121250
36.083333	1	0.119750
36.100000	1	0.118750
36.116667	1	0.117375
36.133333	1	0.116000
36.150000	1	0.114500
36.166667	1	0.112375
36.183333	1	0.111375
36.200000	1	0.110250
36.216667	1	0.109000
36.233333	1	0.107500
36.250000	1	0.106000
36.266667	1	0.104875
36.283333	1	0.103750
36.300000	1	0.102625
36.316667	1	0.102125
36.333333	1	0.100875
36.350000	1	0.100500
36.366667	1	0.100000
36.383333	1	0.100000
36.400000	1	0.099125
36.416667	1	0.098125
36.433333	1	0.097625
36.450000	1	0.097625
36.466667	1	0.097500
36.483333	1	0.097125
36.500000	1	0.096875
36.516667	1	0.096375
36.533333	1	0.095500
36.550000	1	0.094875
36.566667	1	0.092750
36.583333	1	0.092000
36.600000	1	0.091250
36.616667	1	0.091250
36.633333	1	0.090500
36.650000	1	0.089250
36.666667	1	0.087625
36.683333	1	0.086125
36.700000	1	0.085000
36.716667	1	0.083750
36.733333	1	0.082250
36.750000	1	0.081000
36.766667	1	0.079500
36.783333	1	0.077250
36.800000	1	0.075375
36.816667	1	0.073625
36.833333	1	0.071875
36.850000	1	0.069625
36.866667	1	0.066625
36.883333	1	0.064875
36.900000	1	0.062625
36.916667	1	0.060625
36.933333	1	0.058750
36.950000	1	0.057250
36.966667	1	0.055375
36.983333	1	0.054250
37.000000	1	0.052375
37.016667	1	0.051375
37.033333	1	0.050000
37.050000	1	0.049375
37.066667	1	0.048000
37.083333	1	0.047375
37.100000	1	0.046875
37.116667	1	0.046750
37.133333	1	0.046375
37.150000	1	0.045500
37.166667	1	0.045625
37.183333	1	0.046250
37.200000	1	0.046125
37.216667	1	0.046000
37.233333	1	0.046125
37.250000	1	0.046625
37.266667	1	0.047125
37.283333	1	0.048000
37.300000	1	0.047875
37.316667	1	0.048375
37.333333	1	0.049250
37.350000	1	0.049625
37.366667	1	0.050375
37.383333	1	0.050875
37.400000	1	0.051500
37.416667	1	0.051250
37.433333	1	0.051500
37.450000	1	0.052000
37.466667	1	0.052500
37.483333	1	0.052750
37.500000	1	0.053375
37.516667	1	0.053000
37.533333	1	0.052625
37.550000	1	0.053125
37.566667	1	0.053500
37.583333	1	0.053000
37.600000	1	0.052625
37.616667	1	0.051625
37.633333	1	0.051375
37.650000	1	0.050625
37.666667	1	0.050250
37.683333	1	0.050125
37.700000	1	0.049625
37.716667	1	0.049000
37.733333	1	0.048500
37.750000	1	0.047625
37.766667	1	0.047375
37.783333	1	0.046500
37.800000	1	0.045875
37.816667	1	0.046125
37.833333	1	0.045875
37.850000	1	0.046125
37.866667	1	0.046500
37.883333	1	0.045500
37.900000	1	0.045500
37.916667	1	0.045875
37.933333	1	0.045750
37.950000	1	0.046125
37.966667	1	0.046875
37.983333	1	0.046875
38.000000	1	0.047000
38.016667	1	0.048125
38.033333	1	0.049000
38.050000	1	0.049375
38.066667	1	0.049625
38.083333	1	0.050625
38.100000	1	0.051375
38.116667	1	0.052500
38.133333	1	0.053000
38.150000	1	0.053875
38.166667	1	0.055375
38.183333	1	0.055875
38.200000	1	0.057250
38.216667	1	0.058250
38.233333	1	0.059625
38.250000	1	0.060375
38.266667	1	0.061375
38.283333	1	0.062000
38.300000	1	0.063250
38.316667	1	0.064500
38.333333	1	0.065000
38.350000	1	0.065875
38.366667	1	0.067125
38.383333	1	0.068375
38.400000	1	0.068875
38.416667	1	0.069625
38.433333	1	0.070750
38.450000	1	0.071750
38.466667	1	0.073125
38.483333	1	0.074250
38.500000	1	0.074875
38.516667	1	0.076000
38.533333	1	0.077125
38.550000	1	0.078500
38.566667	1	0.079625
38.583333	1	0.080125
38.600000	1	0.080750
38.616667	1	0.081750
38.633333	1	0.083250
38.650000	1	0.084250
38.666667	1	0.085250
38.683333	1	0.086125
38.700000	1	0.086625
38.716667	1	0.087500
38.733333	1	0.088750
38.750000	1	0.089750
38.766667	1	0.090625
38.783333	1	0.091375
38.800000	1	0.091750
38.816667	1	0.092375
38.833333	1	0.092625
38.850000	1	0.093250
38.866667	1	0.093875
38.883333	1	0.093875
38.900000	1	0.094125
38.916667	1	0.093375
38.933333	1	0.093500
38.950000	1	0.092500
38.966667	1	0.091875
38.983333	1	0.090625
39.000000	1	0.090250
39.016667	1	0.089750
39.033333	1	0.088500
39.050000	1	0.087500
39.066667	1	0.085875
39.083333	1	0.084625
39.100000	1	0.082750
39.116667	1	0.080625
39.133333	1	0.078375
39.150000	1	0.077000
39.166667	1	0.074875
39.183333	1	0.072875
39.200000	1	0.071250
39.216667	1	0.069125
39.233333	1	0.067125
39.250000	1	0.065125
39.266667	1	0.062875
39.283333	1	0.061500
39.300000	1	0.060000
39.316667	1	0.058125
39.333333	1	0.055875
39.350000	1	0.054000
39.366667	1	0.051750
39.383333	1	0.050250
39.400000	1	0.048125
39.416667	1	0.045875
39.433333	1	0.044500
39.450000	1	0.043625
39.466667	1	0.042375
39.483333	1	0.041125
39.500000	1	0.039750
39.516667	1	0.038500
39.533333	1	0.036875
39.550000	1	0.036000
39.566667	1	0.034625
39.583333	1	0.033625
39.600000	1	0.033000
39.616667	1	0.031875
39.633333	1	0.031125
39.650000	1	0.029875
39.666667	1	0.028625
39.683333	1	0.028625
39.700000	1	0.028250
39.716667	1	0.028000
39.733333	1	0.027000
39.750000	1	0.026750
39.766667	1	0.026000
39.783333	1	0.025000
39.800000	1	0.024375
39.816667	1	0.023750
39.833333	1	0.023000
39.850000	1	0.022000
39.866667	1	0.021250
39.883333	1	0.020375
39.900000	1	0.020375
39.916667	1	0.019500
39.933333	1	0.018125
39.950000	1	0.017625
39.966667	1	0.017375
39.983333	1	0.016000
40.000000	1	0.014625
