URL	chrom://bioreactor/micro_cm7/HPLC_Ultimate_3000/Users/markusar/20240716_MA_pHrange2.seq/370.smp/RI_1.channel/RI_1.chm
Channel	RI_1

Injection Information:
Data Vault	micro_cm7
Sequence	20240716_MA_pHrange2
Name	Pv2_25H_4
Number	9
Position	BA9
Comment	
Processing Method	
Instrument Method	run_25B_method
Type	Unknown
Status	Finished
Inject Time	16.07.2024 23:34:14 +02:00
Volume (µl)	20.0000
Dilution Factor	1.0000
Weight	1.0000

Chromatogram Data Information:
Time Min. (min)	0.000000
Time Max. (min)	40.000000
Data Points	2401
Detector	RI
Generating Data System	Chromeleon 7.3.2.11814
Exporting Data System	Chromeleon 7.3.2.0
Operator	Instrument Controller
Signal Quantity	Refractive 
Signal Unit	µRIU
Signal Min.	-0.170875
Signal Max.	85.062625
Channel	RI_1
Driver Name	RID520Driver.dll
Channel Type	Evaluation
Min. Step (s)	1
Max. Step (s)	1
Average Step (s)	1

Signal Parameter Information:
Signal Info	

Chromatogram Data:
Time (min)	Step (s)	Value (µRIU)
0.000000	n.a.	-0.004500
0.016667	1	-0.004250
0.033333	1	-0.003375
0.050000	1	-0.003000
0.066667	1	-0.002625
0.083333	1	-0.001500
0.100000	1	-0.000625
0.116667	1	-0.000125
0.133333	1	0.000250
0.150000	1	0.000750
0.166667	1	0.001625
0.183333	1	0.001875
0.200000	1	0.002500
0.216667	1	0.003375
0.233333	1	0.003750
0.250000	1	0.004500
0.266667	1	0.005250
0.283333	1	0.006000
0.300000	1	0.006750
0.316667	1	0.007875
0.333333	1	0.009375
0.350000	1	0.009375
0.366667	1	0.010250
0.383333	1	0.011125
0.400000	1	0.012000
0.416667	1	0.013250
0.433333	1	0.015375
0.450000	1	0.018000
0.466667	1	0.020875
0.483333	1	0.023125
0.500000	1	0.026750
0.516667	1	0.029250
0.533333	1	0.030875
0.550000	1	0.031375
0.566667	1	0.031375
0.583333	1	0.030250
0.600000	1	0.029375
0.616667	1	0.029250
0.633333	1	0.029500
0.650000	1	0.029875
0.666667	1	0.029500
0.683333	1	0.029375
0.700000	1	0.029250
0.716667	1	0.029250
0.733333	1	0.028250
0.750000	1	0.027750
0.766667	1	0.027125
0.783333	1	0.026375
0.800000	1	0.024250
0.816667	1	0.022750
0.833333	1	0.021375
0.850000	1	0.020500
0.866667	1	0.019250
0.883333	1	0.017750
0.900000	1	0.015250
0.916667	1	0.012500
0.933333	1	0.010625
0.950000	1	0.008375
0.966667	1	0.005875
0.983333	1	0.003875
1.000000	1	0.001625
1.016667	1	-0.000750
1.033333	1	-0.002375
1.050000	1	-0.004000
1.066667	1	-0.005500
1.083333	1	-0.007250
1.100000	1	-0.008625
1.116667	1	-0.010250
1.133333	1	-0.011250
1.150000	1	-0.013125
1.166667	1	-0.015000
1.183333	1	-0.016500
1.200000	1	-0.017875
1.216667	1	-0.018750
1.233333	1	-0.019625
1.250000	1	-0.021250
1.266667	1	-0.022500
1.283333	1	-0.023875
1.300000	1	-0.024375
1.316667	1	-0.024250
1.333333	1	-0.024625
1.350000	1	-0.025000
1.366667	1	-0.026500
1.383333	1	-0.026750
1.400000	1	-0.028000
1.416667	1	-0.028625
1.433333	1	-0.029375
1.450000	1	-0.029625
1.466667	1	-0.030125
1.483333	1	-0.030875
1.500000	1	-0.031625
1.516667	1	-0.032250
1.533333	1	-0.032750
1.550000	1	-0.033125
1.566667	1	-0.033375
1.583333	1	-0.034125
1.600000	1	-0.035000
1.616667	1	-0.036000
1.633333	1	-0.036500
1.650000	1	-0.036000
1.666667	1	-0.036625
1.683333	1	-0.037375
1.700000	1	-0.037625
1.716667	1	-0.037750
1.733333	1	-0.038000
1.750000	1	-0.038875
1.766667	1	-0.039125
1.783333	1	-0.039625
1.800000	1	-0.040375
1.816667	1	-0.040250
1.833333	1	-0.040375
1.850000	1	-0.040750
1.866667	1	-0.041375
1.883333	1	-0.041500
1.900000	1	-0.041000
1.916667	1	-0.040875
1.933333	1	-0.041000
1.950000	1	-0.040875
1.966667	1	-0.040625
1.983333	1	-0.040375
2.000000	1	-0.040125
2.016667	1	-0.039750
2.033333	1	-0.039375
2.050000	1	-0.038250
2.066667	1	-0.037750
2.083333	1	-0.037000
2.100000	1	-0.036500
2.116667	1	-0.035750
2.133333	1	-0.035375
2.150000	1	-0.035000
2.166667	1	-0.034375
2.183333	1	-0.033875
2.200000	1	-0.033750
2.216667	1	-0.033625
2.233333	1	-0.033125
2.250000	1	-0.032875
2.266667	1	-0.033000
2.283333	1	-0.032875
2.300000	1	-0.032500
2.316667	1	-0.032250
2.333333	1	-0.032250
2.350000	1	-0.032000
2.366667	1	-0.032000
2.383333	1	-0.031750
2.400000	1	-0.031625
2.416667	1	-0.031500
2.433333	1	-0.030750
2.450000	1	-0.030625
2.466667	1	-0.029750
2.483333	1	-0.029250
2.500000	1	-0.029250
2.516667	1	-0.029375
2.533333	1	-0.029125
2.550000	1	-0.028125
2.566667	1	-0.027000
2.583333	1	-0.026125
2.600000	1	-0.024875
2.616667	1	-0.023875
2.633333	1	-0.021875
2.650000	1	-0.020125
2.666667	1	-0.018750
2.683333	1	-0.017000
2.700000	1	-0.014875
2.716667	1	-0.012625
2.733333	1	-0.010500
2.750000	1	-0.008250
2.766667	1	-0.006125
2.783333	1	-0.003750
2.800000	1	-0.001750
2.816667	1	0.000125
2.833333	1	0.002250
2.850000	1	0.004250
2.866667	1	0.006625
2.883333	1	0.008750
2.900000	1	0.011250
2.916667	1	0.013375
2.933333	1	0.014875
2.950000	1	0.016875
2.966667	1	0.018000
2.983333	1	0.019250
3.000000	1	0.020250
3.016667	1	0.021250
3.033333	1	0.022375
3.050000	1	0.023625
3.066667	1	0.023625
3.083333	1	0.023750
3.100000	1	0.023750
3.116667	1	0.024250
3.133333	1	0.024625
3.150000	1	0.024500
3.166667	1	0.024375
3.183333	1	0.024375
3.200000	1	0.024000
3.216667	1	0.023875
3.233333	1	0.024125
3.250000	1	0.024125
3.266667	1	0.024125
3.283333	1	0.024250
3.300000	1	0.024625
3.316667	1	0.024625
3.333333	1	0.025000
3.350000	1	0.026000
3.366667	1	0.026500
3.383333	1	0.026500
3.400000	1	0.027250
3.416667	1	0.028500
3.433333	1	0.029250
3.450000	1	0.030125
3.466667	1	0.031000
3.483333	1	0.032250
3.500000	1	0.033500
3.516667	1	0.034500
3.533333	1	0.035625
3.550000	1	0.037500
3.566667	1	0.038875
3.583333	1	0.040500
3.600000	1	0.041000
3.616667	1	0.042500
3.633333	1	0.043375
3.650000	1	0.044875
3.666667	1	0.045375
3.683333	1	0.045875
3.700000	1	0.046250
3.716667	1	0.046875
3.733333	1	0.047500
3.750000	1	0.048625
3.766667	1	0.048500
3.783333	1	0.049250
3.800000	1	0.049625
3.816667	1	0.050375
3.833333	1	0.050250
3.850000	1	0.050125
3.866667	1	0.049875
3.883333	1	0.050125
3.900000	1	0.049500
3.916667	1	0.049000
3.933333	1	0.048375
3.950000	1	0.048000
3.966667	1	0.048125
3.983333	1	0.047500
4.000000	1	0.046625
4.016667	1	0.046000
4.033333	1	0.046000
4.050000	1	0.045750
4.066667	1	0.045125
4.083333	1	0.044000
4.100000	1	0.043125
4.116667	1	0.042500
4.133333	1	0.042000
4.150000	1	0.041625
4.166667	1	0.041375
4.183333	1	0.041375
4.200000	1	0.041125
4.216667	1	0.041000
4.233333	1	0.040875
4.250000	1	0.041250
4.266667	1	0.041000
4.283333	1	0.041500
4.300000	1	0.041375
4.316667	1	0.041875
4.333333	1	0.042375
4.350000	1	0.043000
4.366667	1	0.043750
4.383333	1	0.044750
4.400000	1	0.045375
4.416667	1	0.046500
4.433333	1	0.047000
4.450000	1	0.048000
4.466667	1	0.049125
4.483333	1	0.050500
4.500000	1	0.051625
4.516667	1	0.053125
4.533333	1	0.054375
4.550000	1	0.056000
4.566667	1	0.057500
4.583333	1	0.059375
4.600000	1	0.061000
4.616667	1	0.063000
4.633333	1	0.065000
4.650000	1	0.066125
4.666667	1	0.067000
4.683333	1	0.069250
4.700000	1	0.070625
4.716667	1	0.072000
4.733333	1	0.073875
4.750000	1	0.075750
4.766667	1	0.077625
4.783333	1	0.080125
4.800000	1	0.081625
4.816667	1	0.083375
4.833333	1	0.085750
4.850000	1	0.088375
4.866667	1	0.090875
4.883333	1	0.092750
4.900000	1	0.095500
4.916667	1	0.097875
4.933333	1	0.099750
4.950000	1	0.102000
4.966667	1	0.105125
4.983333	1	0.108125
5.000000	1	0.110875
5.016667	1	0.113375
5.033333	1	0.116625
5.050000	1	0.119750
5.066667	1	0.122750
5.083333	1	0.126250
5.100000	1	0.129750
5.116667	1	0.133500
5.133333	1	0.136375
5.150000	1	0.139500
5.166667	1	0.142750
5.183333	1	0.146750
5.200000	1	0.150375
5.216667	1	0.153375
5.233333	1	0.156625
5.250000	1	0.159125
5.266667	1	0.161875
5.283333	1	0.164750
5.300000	1	0.167750
5.316667	1	0.170375
5.333333	1	0.172500
5.350000	1	0.174250
5.366667	1	0.176125
5.383333	1	0.178250
5.400000	1	0.179875
5.416667	1	0.181125
5.433333	1	0.182250
5.450000	1	0.183250
5.466667	1	0.183875
5.483333	1	0.183875
5.500000	1	0.184250
5.516667	1	0.184250
5.533333	1	0.184000
5.550000	1	0.183625
5.566667	1	0.183375
5.583333	1	0.182625
5.600000	1	0.181000
5.616667	1	0.180750
5.633333	1	0.179125
5.650000	1	0.178000
5.666667	1	0.176125
5.683333	1	0.174000
5.700000	1	0.172750
5.716667	1	0.170750
5.733333	1	0.168500
5.750000	1	0.166375
5.766667	1	0.163625
5.783333	1	0.161250
5.800000	1	0.158375
5.816667	1	0.156000
5.833333	1	0.153625
5.850000	1	0.151625
5.866667	1	0.148625
5.883333	1	0.146125
5.900000	1	0.142625
5.916667	1	0.139750
5.933333	1	0.136625
5.950000	1	0.133375
5.966667	1	0.130750
5.983333	1	0.127750
6.000000	1	0.124750
6.016667	1	0.121250
6.033333	1	0.118000
6.050000	1	0.114625
6.066667	1	0.111000
6.083333	1	0.107250
6.100000	1	0.103875
6.116667	1	0.100875
6.133333	1	0.097875
6.150000	1	0.094750
6.166667	1	0.091875
6.183333	1	0.088625
6.200000	1	0.086000
6.216667	1	0.083000
6.233333	1	0.080000
6.250000	1	0.077750
6.266667	1	0.074875
6.283333	1	0.072625
6.300000	1	0.071125
6.316667	1	0.068750
6.333333	1	0.066875
6.350000	1	0.064375
6.366667	1	0.063250
6.383333	1	0.062125
6.400000	1	0.060750
6.416667	1	0.059375
6.433333	1	0.058250
6.450000	1	0.057375
6.466667	1	0.056250
6.483333	1	0.055875
6.500000	1	0.054875
6.516667	1	0.054625
6.533333	1	0.054500
6.550000	1	0.054375
6.566667	1	0.054375
6.583333	1	0.054750
6.600000	1	0.055250
6.616667	1	0.055750
6.633333	1	0.055875
6.650000	1	0.057000
6.666667	1	0.057500
6.683333	1	0.058625
6.700000	1	0.059625
6.716667	1	0.060500
6.733333	1	0.061250
6.750000	1	0.062750
6.766667	1	0.063875
6.783333	1	0.066125
6.800000	1	0.067500
6.816667	1	0.068625
6.833333	1	0.070125
6.850000	1	0.072125
6.866667	1	0.073750
6.883333	1	0.075250
6.900000	1	0.076625
6.916667	1	0.077875
6.933333	1	0.079375
6.950000	1	0.080875
6.966667	1	0.082250
6.983333	1	0.084125
7.000000	1	0.086250
7.016667	1	0.087875
7.033333	1	0.089375
7.050000	1	0.090625
7.066667	1	0.091750
7.083333	1	0.093375
7.100000	1	0.094500
7.116667	1	0.095500
7.133333	1	0.097125
7.150000	1	0.098625
7.166667	1	0.099625
7.183333	1	0.100250
7.200000	1	0.100625
7.216667	1	0.101250
7.233333	1	0.102125
7.250000	1	0.103125
7.266667	1	0.103250
7.283333	1	0.103000
7.300000	1	0.103000
7.316667	1	0.102375
7.333333	1	0.102250
7.350000	1	0.102500
7.366667	1	0.102250
7.383333	1	0.101125
7.400000	1	0.100375
7.416667	1	0.098000
7.433333	1	0.096625
7.450000	1	0.095375
7.466667	1	0.093750
7.483333	1	0.091375
7.500000	1	0.089000
7.516667	1	0.086625
7.533333	1	0.084000
7.550000	1	0.081000
7.566667	1	0.078125
7.583333	1	0.075500
7.600000	1	0.072125
7.616667	1	0.068875
7.633333	1	0.065375
7.650000	1	0.061875
7.666667	1	0.058375
7.683333	1	0.055250
7.700000	1	0.052375
7.716667	1	0.048750
7.733333	1	0.044875
7.750000	1	0.041375
7.766667	1	0.037750
7.783333	1	0.034625
7.800000	1	0.031375
7.816667	1	0.028500
7.833333	1	0.024875
7.850000	1	0.022000
7.866667	1	0.019125
7.883333	1	0.016000
7.900000	1	0.013000
7.916667	1	0.009875
7.933333	1	0.007125
7.950000	1	0.004750
7.966667	1	0.001875
7.983333	1	-0.000375
8.000000	1	-0.002375
8.016667	1	-0.004500
8.033333	1	-0.007375
8.050000	1	-0.009125
8.066667	1	-0.010500
8.083333	1	-0.012250
8.100000	1	-0.014250
8.116667	1	-0.015500
8.133333	1	-0.017000
8.150000	1	-0.018625
8.166667	1	-0.019875
8.183333	1	-0.020750
8.200000	1	-0.021750
8.216667	1	-0.023125
8.233333	1	-0.023750
8.250000	1	-0.024500
8.266667	1	-0.025250
8.283333	1	-0.026500
8.300000	1	-0.027250
8.316667	1	-0.028125
8.333333	1	-0.028625
8.350000	1	-0.029375
8.366667	1	-0.029750
8.383333	1	-0.029750
8.400000	1	-0.030250
8.416667	1	-0.030500
8.433333	1	-0.030750
8.450000	1	-0.031625
8.466667	1	-0.031875
8.483333	1	-0.032500
8.500000	1	-0.032750
8.516667	1	-0.032750
8.533333	1	-0.033125
8.550000	1	-0.033250
8.566667	1	-0.032750
8.583333	1	-0.032750
8.600000	1	-0.032875
8.616667	1	-0.032500
8.633333	1	-0.031625
8.650000	1	-0.031375
8.666667	1	-0.030750
8.683333	1	-0.030000
8.700000	1	-0.030375
8.716667	1	-0.029500
8.733333	1	-0.028375
8.750000	1	-0.027125
8.766667	1	-0.026625
8.783333	1	-0.025500
8.800000	1	-0.024125
8.816667	1	-0.023750
8.833333	1	-0.022125
8.850000	1	-0.021000
8.866667	1	-0.020500
8.883333	1	-0.019375
8.900000	1	-0.018000
8.916667	1	-0.016875
8.933333	1	-0.015625
8.950000	1	-0.013750
8.966667	1	-0.012375
8.983333	1	-0.011125
9.000000	1	-0.009625
9.016667	1	-0.008125
9.033333	1	-0.006875
9.050000	1	-0.005500
9.066667	1	-0.004375
9.083333	1	-0.002875
9.100000	1	-0.001625
9.116667	1	-0.000500
9.133333	1	0.000750
9.150000	1	0.001750
9.166667	1	0.002125
9.183333	1	0.003500
9.200000	1	0.004375
9.216667	1	0.005625
9.233333	1	0.006500
9.250000	1	0.006875
9.266667	1	0.008000
9.283333	1	0.009250
9.300000	1	0.009875
9.316667	1	0.010750
9.333333	1	0.011250
9.350000	1	0.011500
9.366667	1	0.011875
9.383333	1	0.012000
9.400000	1	0.011875
9.416667	1	0.011875
9.433333	1	0.011250
9.450000	1	0.011000
9.466667	1	0.009875
9.483333	1	0.009000
9.500000	1	0.008125
9.516667	1	0.007375
9.533333	1	0.006250
9.550000	1	0.005500
9.566667	1	0.004000
9.583333	1	0.002375
9.600000	1	0.001375
9.616667	1	0.000000
9.633333	1	-0.001375
9.650000	1	-0.003000
9.666667	1	-0.004625
9.683333	1	-0.006875
9.700000	1	-0.009000
9.716667	1	-0.010500
9.733333	1	-0.012125
9.750000	1	-0.014000
9.766667	1	-0.015375
9.783333	1	-0.017125
9.800000	1	-0.018875
9.816667	1	-0.020125
9.833333	1	-0.021625
9.850000	1	-0.022625
9.866667	1	-0.023625
9.883333	1	-0.025500
9.900000	1	-0.026625
9.916667	1	-0.026875
9.933333	1	-0.027875
9.950000	1	-0.029125
9.966667	1	-0.029500
9.983333	1	-0.029750
10.000000	1	-0.031000
10.016667	1	-0.031750
10.033333	1	-0.032625
10.050000	1	-0.033125
10.066667	1	-0.033625
10.083333	1	-0.033625
10.100000	1	-0.032625
10.116667	1	-0.031500
10.133333	1	-0.029375
10.150000	1	-0.027500
10.166667	1	-0.023875
10.183333	1	-0.019875
10.200000	1	-0.014500
10.216667	1	-0.008500
10.233333	1	-0.000875
10.250000	1	0.008000
10.266667	1	0.018875
10.283333	1	0.031125
10.300000	1	0.046125
10.316667	1	0.062000
10.333333	1	0.079000
10.350000	1	0.097375
10.366667	1	0.114000
10.383333	1	0.125625
10.400000	1	0.129750
10.416667	1	0.120750
10.433333	1	0.094625
10.450000	1	0.048125
10.466667	1	-0.016000
10.483333	1	-0.089250
10.500000	1	-0.151125
10.516667	1	-0.170875
10.533333	1	-0.103500
10.550000	1	0.107000
10.566667	1	0.524875
10.583333	1	1.216625
10.600000	1	2.248250
10.616667	1	3.678875
10.633333	1	5.555250
10.650000	1	7.910000
10.666667	1	10.771000
10.683333	1	14.151125
10.700000	1	18.055375
10.716667	1	22.473750
10.733333	1	27.387625
10.750000	1	32.769375
10.766667	1	38.571250
10.783333	1	44.741500
10.800000	1	51.208875
10.816667	1	57.864500
10.833333	1	64.542750
10.850000	1	70.992250
10.866667	1	76.847625
10.883333	1	81.584125
10.900000	1	84.545750
10.916667	1	85.062625
10.933333	1	82.674875
10.950000	1	77.363000
10.966667	1	69.650625
10.983333	1	60.455375
11.000000	1	50.811625
11.016667	1	41.594500
11.033333	1	33.372375
11.050000	1	26.398875
11.066667	1	20.693750
11.083333	1	16.149500
11.100000	1	12.601875
11.116667	1	9.874875
11.133333	1	7.802000
11.150000	1	6.238875
11.166667	1	5.063750
11.183333	1	4.180500
11.200000	1	3.514500
11.216667	1	3.008625
11.233333	1	2.621000
11.250000	1	2.320500
11.266667	1	2.085375
11.283333	1	1.897250
11.300000	1	1.745125
11.316667	1	1.620875
11.333333	1	1.517875
11.350000	1	1.431250
11.366667	1	1.357625
11.383333	1	1.295375
11.400000	1	1.242250
11.416667	1	1.196500
11.433333	1	1.157125
11.450000	1	1.124000
11.466667	1	1.095125
11.483333	1	1.071000
11.500000	1	1.049500
11.516667	1	1.031875
11.533333	1	1.016250
11.550000	1	1.002875
11.566667	1	0.992250
11.583333	1	0.983625
11.600000	1	0.976750
11.616667	1	0.971000
11.633333	1	0.967000
11.650000	1	0.964375
11.666667	1	0.963125
11.683333	1	0.963750
11.700000	1	0.965250
11.716667	1	0.968125
11.733333	1	0.971500
11.750000	1	0.976250
11.766667	1	0.982000
11.783333	1	0.989375
11.800000	1	0.997000
11.816667	1	1.005250
11.833333	1	1.013625
11.850000	1	1.022500
11.866667	1	1.031125
11.883333	1	1.039500
11.900000	1	1.047500
11.916667	1	1.054250
11.933333	1	1.059750
11.950000	1	1.064125
11.966667	1	1.067750
11.983333	1	1.071375
12.000000	1	1.073500
12.016667	1	1.074000
12.033333	1	1.074250
12.050000	1	1.074625
12.066667	1	1.074875
12.083333	1	1.075000
12.100000	1	1.076125
12.116667	1	1.076000
12.133333	1	1.076750
12.150000	1	1.077125
12.166667	1	1.078250
12.183333	1	1.079625
12.200000	1	1.081125
12.216667	1	1.083500
12.233333	1	1.086875
12.250000	1	1.091875
12.266667	1	1.099625
12.283333	1	1.109250
12.300000	1	1.122375
12.316667	1	1.140500
12.333333	1	1.164625
12.350000	1	1.197750
12.366667	1	1.242125
12.383333	1	1.299875
12.400000	1	1.376500
12.416667	1	1.474625
12.433333	1	1.599500
12.450000	1	1.755875
12.466667	1	1.948500
12.483333	1	2.183375
12.500000	1	2.464750
12.516667	1	2.797000
12.533333	1	3.182375
12.550000	1	3.623500
12.566667	1	4.121250
12.583333	1	4.672625
12.600000	1	5.274125
12.616667	1	5.918125
12.633333	1	6.594750
12.650000	1	7.293750
12.666667	1	8.002250
12.683333	1	8.706375
12.700000	1	9.395375
12.716667	1	10.057250
12.733333	1	10.685875
12.750000	1	11.278375
12.766667	1	11.834625
12.783333	1	12.358750
12.800000	1	12.859375
12.816667	1	13.346125
12.833333	1	13.828375
12.850000	1	14.318250
12.866667	1	14.823500
12.883333	1	15.352250
12.900000	1	15.909000
12.916667	1	16.496750
12.933333	1	17.118250
12.950000	1	17.772875
12.966667	1	18.459500
12.983333	1	19.176375
13.000000	1	19.923000
13.016667	1	20.696375
13.033333	1	21.495750
13.050000	1	22.318625
13.066667	1	23.165500
13.083333	1	24.034500
13.100000	1	24.925375
13.116667	1	25.837375
13.133333	1	26.769500
13.150000	1	27.719500
13.166667	1	28.688875
13.183333	1	29.677500
13.200000	1	30.683750
13.216667	1	31.708625
13.233333	1	32.752875
13.250000	1	33.816125
13.266667	1	34.900375
13.283333	1	36.006000
13.300000	1	37.132875
13.316667	1	38.281000
13.333333	1	39.449375
13.350000	1	40.639875
13.366667	1	41.852500
13.383333	1	43.088250
13.400000	1	44.347000
13.416667	1	45.628000
13.433333	1	46.934625
13.450000	1	48.267125
13.466667	1	49.626750
13.483333	1	51.014750
13.500000	1	52.430125
13.516667	1	53.874750
13.533333	1	55.348875
13.550000	1	56.853000
13.566667	1	58.386625
13.583333	1	59.950000
13.600000	1	61.543375
13.616667	1	63.168000
13.633333	1	64.825500
13.650000	1	66.517125
13.666667	1	68.246125
13.683333	1	70.010625
13.700000	1	71.812125
13.716667	1	73.651500
13.733333	1	75.527375
13.750000	1	77.431875
13.766667	1	79.336875
13.783333	1	81.152750
13.800000	1	82.701375
13.816667	1	83.736375
13.833333	1	83.988625
13.850000	1	83.202000
13.866667	1	81.131500
13.883333	1	77.526250
13.900000	1	72.176000
13.916667	1	65.073875
13.933333	1	56.579250
13.950000	1	47.426750
13.966667	1	38.518375
13.983333	1	30.600375
14.000000	1	24.045625
14.016667	1	18.870625
14.033333	1	14.897125
14.050000	1	11.891750
14.066667	1	9.642250
14.083333	1	7.972250
14.100000	1	6.741750
14.116667	1	5.838750
14.133333	1	5.175500
14.150000	1	4.685500
14.166667	1	4.317625
14.183333	1	4.037125
14.200000	1	3.818750
14.216667	1	3.644625
14.233333	1	3.501625
14.250000	1	3.382250
14.266667	1	3.280375
14.283333	1	3.191875
14.300000	1	3.113875
14.316667	1	3.044500
14.333333	1	2.981250
14.350000	1	2.924500
14.366667	1	2.874000
14.383333	1	2.829125
14.400000	1	2.791250
14.416667	1	2.760625
14.433333	1	2.739250
14.450000	1	2.728750
14.466667	1	2.733250
14.483333	1	2.756875
14.500000	1	2.806750
14.516667	1	2.891750
14.533333	1	3.024375
14.550000	1	3.221375
14.566667	1	3.502625
14.583333	1	3.896750
14.600000	1	4.436750
14.616667	1	5.165875
14.633333	1	6.133375
14.650000	1	7.395625
14.666667	1	9.013125
14.683333	1	11.049000
14.700000	1	13.558625
14.716667	1	16.584250
14.733333	1	20.153625
14.750000	1	24.271250
14.766667	1	28.903000
14.783333	1	33.973750
14.800000	1	39.368625
14.816667	1	44.936500
14.833333	1	50.486125
14.850000	1	55.795750
14.866667	1	60.629125
14.883333	1	64.750375
14.900000	1	67.949625
14.916667	1	70.059375
14.933333	1	70.972125
14.950000	1	70.645375
14.966667	1	69.110875
14.983333	1	66.473250
15.000000	1	62.889000
15.016667	1	58.552375
15.033333	1	53.683625
15.050000	1	48.506125
15.066667	1	43.236125
15.083333	1	38.061875
15.100000	1	33.138250
15.116667	1	28.577375
15.133333	1	24.446000
15.150000	1	20.778125
15.166667	1	17.579875
15.183333	1	14.835000
15.200000	1	12.508625
15.216667	1	10.557625
15.233333	1	8.936500
15.250000	1	7.601500
15.266667	1	6.508750
15.283333	1	5.620125
15.300000	1	4.900500
15.316667	1	4.321125
15.333333	1	3.855875
15.350000	1	3.484625
15.366667	1	3.190125
15.383333	1	2.958000
15.400000	1	2.776750
15.416667	1	2.636750
15.433333	1	2.531000
15.450000	1	2.453000
15.466667	1	2.396500
15.483333	1	2.357000
15.500000	1	2.329500
15.516667	1	2.309625
15.533333	1	2.293250
15.550000	1	2.278500
15.566667	1	2.262625
15.583333	1	2.242750
15.600000	1	2.219125
15.616667	1	2.190625
15.633333	1	2.157125
15.650000	1	2.119375
15.666667	1	2.077875
15.683333	1	2.034750
15.700000	1	1.991250
15.716667	1	1.948125
15.733333	1	1.906000
15.750000	1	1.866500
15.766667	1	1.828125
15.783333	1	1.792125
15.800000	1	1.759250
15.816667	1	1.727500
15.833333	1	1.697375
15.850000	1	1.668500
15.866667	1	1.640875
15.883333	1	1.614000
15.900000	1	1.588125
15.916667	1	1.564375
15.933333	1	1.541000
15.950000	1	1.520500
15.966667	1	1.502250
15.983333	1	1.486875
16.000000	1	1.474500
16.016667	1	1.465250
16.033333	1	1.459250
16.050000	1	1.456125
16.066667	1	1.454375
16.083333	1	1.455375
16.100000	1	1.456875
16.116667	1	1.458625
16.133333	1	1.460000
16.150000	1	1.460750
16.166667	1	1.459875
16.183333	1	1.456625
16.200000	1	1.451250
16.216667	1	1.444375
16.233333	1	1.434625
16.250000	1	1.423000
16.266667	1	1.409250
16.283333	1	1.393875
16.300000	1	1.377500
16.316667	1	1.360500
16.333333	1	1.343875
16.350000	1	1.326125
16.366667	1	1.309000
16.383333	1	1.293000
16.400000	1	1.277375
16.416667	1	1.262250
16.433333	1	1.248375
16.450000	1	1.236125
16.466667	1	1.226000
16.483333	1	1.217625
16.500000	1	1.211375
16.516667	1	1.208000
16.533333	1	1.206750
16.550000	1	1.207875
16.566667	1	1.210625
16.583333	1	1.215500
16.600000	1	1.221000
16.616667	1	1.227250
16.633333	1	1.234375
16.650000	1	1.241500
16.666667	1	1.247125
16.683333	1	1.251875
16.700000	1	1.255250
16.716667	1	1.258375
16.733333	1	1.259750
16.750000	1	1.261000
16.766667	1	1.261625
16.783333	1	1.262250
16.800000	1	1.261750
16.816667	1	1.261875
16.833333	1	1.263000
16.850000	1	1.264250
16.866667	1	1.266625
16.883333	1	1.268875
16.900000	1	1.270750
16.916667	1	1.272750
16.933333	1	1.274125
16.950000	1	1.274500
16.966667	1	1.273875
16.983333	1	1.272875
17.000000	1	1.271500
17.016667	1	1.268375
17.033333	1	1.264125
17.050000	1	1.258750
17.066667	1	1.252625
17.083333	1	1.245750
17.100000	1	1.239500
17.116667	1	1.232500
17.133333	1	1.226625
17.150000	1	1.220875
17.166667	1	1.215875
17.183333	1	1.211500
17.200000	1	1.208625
17.216667	1	1.206625
17.233333	1	1.204500
17.250000	1	1.203625
17.266667	1	1.203250
17.283333	1	1.204250
17.300000	1	1.205125
17.316667	1	1.206500
17.333333	1	1.208875
17.350000	1	1.212000
17.366667	1	1.214500
17.383333	1	1.217125
17.400000	1	1.219750
17.416667	1	1.222125
17.433333	1	1.224000
17.450000	1	1.226250
17.466667	1	1.227250
17.483333	1	1.227625
17.500000	1	1.227250
17.516667	1	1.225500
17.533333	1	1.222000
17.550000	1	1.217000
17.566667	1	1.211250
17.583333	1	1.204125
17.600000	1	1.195375
17.616667	1	1.184625
17.633333	1	1.172750
17.650000	1	1.159750
17.666667	1	1.146625
17.683333	1	1.131750
17.700000	1	1.116625
17.716667	1	1.101750
17.733333	1	1.087125
17.750000	1	1.072125
17.766667	1	1.058250
17.783333	1	1.044750
17.800000	1	1.031750
17.816667	1	1.019750
17.833333	1	1.008125
17.850000	1	0.997000
17.866667	1	0.986375
17.883333	1	0.976875
17.900000	1	0.967875
17.916667	1	0.960375
17.933333	1	0.953250
17.950000	1	0.947250
17.966667	1	0.941250
17.983333	1	0.935750
18.000000	1	0.930375
18.016667	1	0.925750
18.033333	1	0.920875
18.050000	1	0.916000
18.066667	1	0.911625
18.083333	1	0.906750
18.100000	1	0.901750
18.116667	1	0.896875
18.133333	1	0.891625
18.150000	1	0.887500
18.166667	1	0.883500
18.183333	1	0.879375
18.200000	1	0.876125
18.216667	1	0.873000
18.233333	1	0.870250
18.250000	1	0.868000
18.266667	1	0.866000
18.283333	1	0.865250
18.300000	1	0.864875
18.316667	1	0.864500
18.333333	1	0.864125
18.350000	1	0.864625
18.366667	1	0.865125
18.383333	1	0.866875
18.400000	1	0.868000
18.416667	1	0.869750
18.433333	1	0.872125
18.450000	1	0.874875
18.466667	1	0.878375
18.483333	1	0.883125
18.500000	1	0.889250
18.516667	1	0.896250
18.533333	1	0.904875
18.550000	1	0.914875
18.566667	1	0.926375
18.583333	1	0.940875
18.600000	1	0.956500
18.616667	1	0.974750
18.633333	1	0.995250
18.650000	1	1.018125
18.666667	1	1.042875
18.683333	1	1.069000
18.700000	1	1.098000
18.716667	1	1.128250
18.733333	1	1.159875
18.750000	1	1.193125
18.766667	1	1.227125
18.783333	1	1.262500
18.800000	1	1.297750
18.816667	1	1.332750
18.833333	1	1.366750
18.850000	1	1.399250
18.866667	1	1.430500
18.883333	1	1.458250
18.900000	1	1.482125
18.916667	1	1.502000
18.933333	1	1.516250
18.950000	1	1.525000
18.966667	1	1.527375
18.983333	1	1.524250
19.000000	1	1.514250
19.016667	1	1.497375
19.033333	1	1.474125
19.050000	1	1.445750
19.066667	1	1.413125
19.083333	1	1.375250
19.100000	1	1.334375
19.116667	1	1.291625
19.133333	1	1.250125
19.150000	1	1.209750
19.166667	1	1.172375
19.183333	1	1.139375
19.200000	1	1.111875
19.216667	1	1.093375
19.233333	1	1.083750
19.250000	1	1.084875
19.266667	1	1.099250
19.283333	1	1.127250
19.300000	1	1.171500
19.316667	1	1.233125
19.333333	1	1.313375
19.350000	1	1.413375
19.366667	1	1.533750
19.383333	1	1.674875
19.400000	1	1.837750
19.416667	1	2.021000
19.433333	1	2.221375
19.450000	1	2.438000
19.466667	1	2.667500
19.483333	1	2.905000
19.500000	1	3.145625
19.516667	1	3.383125
19.533333	1	3.611000
19.550000	1	3.823750
19.566667	1	4.014625
19.583333	1	4.175250
19.600000	1	4.301625
19.616667	1	4.390875
19.633333	1	4.437750
19.650000	1	4.443000
19.666667	1	4.406000
19.683333	1	4.327250
19.700000	1	4.211625
19.716667	1	4.063375
19.733333	1	3.887375
19.750000	1	3.690500
19.766667	1	3.478250
19.783333	1	3.257000
19.800000	1	3.031250
19.816667	1	2.806500
19.833333	1	2.587375
19.850000	1	2.377250
19.866667	1	2.179125
19.883333	1	1.994000
19.900000	1	1.823875
19.916667	1	1.669375
19.933333	1	1.530000
19.950000	1	1.404000
19.966667	1	1.292375
19.983333	1	1.193875
20.000000	1	1.107375
20.016667	1	1.032125
20.033333	1	0.967250
20.050000	1	0.911000
20.066667	1	0.864500
20.083333	1	0.824375
20.100000	1	0.792375
20.116667	1	0.766375
20.133333	1	0.746125
20.150000	1	0.731750
20.166667	1	0.722125
20.183333	1	0.716625
20.200000	1	0.714750
20.216667	1	0.717000
20.233333	1	0.721500
20.250000	1	0.728125
20.266667	1	0.736375
20.283333	1	0.745125
20.300000	1	0.754375
20.316667	1	0.763000
20.333333	1	0.770250
20.350000	1	0.776250
20.366667	1	0.780000
20.383333	1	0.781875
20.400000	1	0.781000
20.416667	1	0.777875
20.433333	1	0.772125
20.450000	1	0.765375
20.466667	1	0.756625
20.483333	1	0.746750
20.500000	1	0.736500
20.516667	1	0.727875
20.533333	1	0.721000
20.550000	1	0.716125
20.566667	1	0.715250
20.583333	1	0.718000
20.600000	1	0.726750
20.616667	1	0.741375
20.633333	1	0.762250
20.650000	1	0.791000
20.666667	1	0.827000
20.683333	1	0.870625
20.700000	1	0.920875
20.716667	1	0.978250
20.733333	1	1.041750
20.750000	1	1.110125
20.766667	1	1.182375
20.783333	1	1.256500
20.800000	1	1.330375
20.816667	1	1.401625
20.833333	1	1.467875
20.850000	1	1.527125
20.866667	1	1.576750
20.883333	1	1.617000
20.900000	1	1.643875
20.916667	1	1.658375
20.933333	1	1.659000
20.950000	1	1.644625
20.966667	1	1.617750
20.983333	1	1.578375
21.000000	1	1.528500
21.016667	1	1.470500
21.033333	1	1.403750
21.050000	1	1.333125
21.066667	1	1.259250
21.083333	1	1.184500
21.100000	1	1.110500
21.116667	1	1.038750
21.133333	1	0.971125
21.150000	1	0.907250
21.166667	1	0.848250
21.183333	1	0.793625
21.200000	1	0.745125
21.216667	1	0.701625
21.233333	1	0.663375
21.250000	1	0.629000
21.266667	1	0.599000
21.283333	1	0.573500
21.300000	1	0.551000
21.316667	1	0.532125
21.333333	1	0.515250
21.350000	1	0.501250
21.366667	1	0.489500
21.383333	1	0.479000
21.400000	1	0.469750
21.416667	1	0.462000
21.433333	1	0.455000
21.450000	1	0.449750
21.466667	1	0.444500
21.483333	1	0.439875
21.500000	1	0.436125
21.516667	1	0.433125
21.533333	1	0.429750
21.550000	1	0.427625
21.566667	1	0.426250
21.583333	1	0.425000
21.600000	1	0.425000
21.616667	1	0.425875
21.633333	1	0.426750
21.650000	1	0.429000
21.666667	1	0.432750
21.683333	1	0.436500
21.700000	1	0.441750
21.716667	1	0.447625
21.733333	1	0.455375
21.750000	1	0.463500
21.766667	1	0.473375
21.783333	1	0.483875
21.800000	1	0.495500
21.816667	1	0.507500
21.833333	1	0.521250
21.850000	1	0.534750
21.866667	1	0.549750
21.883333	1	0.564375
21.900000	1	0.579625
21.916667	1	0.594750
21.933333	1	0.610500
21.950000	1	0.626000
21.966667	1	0.641000
21.983333	1	0.655000
22.000000	1	0.667750
22.016667	1	0.679250
22.033333	1	0.689500
22.050000	1	0.698875
22.066667	1	0.706875
22.083333	1	0.713375
22.100000	1	0.717875
22.116667	1	0.720750
22.133333	1	0.722000
22.150000	1	0.721875
22.166667	1	0.719375
22.183333	1	0.716125
22.200000	1	0.711250
22.216667	1	0.705375
22.233333	1	0.697500
22.250000	1	0.688125
22.266667	1	0.677750
22.283333	1	0.666125
22.300000	1	0.654375
22.316667	1	0.642125
22.333333	1	0.629125
22.350000	1	0.615250
22.366667	1	0.600625
22.383333	1	0.585750
22.400000	1	0.570875
22.416667	1	0.556375
22.433333	1	0.541875
22.450000	1	0.527750
22.466667	1	0.513250
22.483333	1	0.500125
22.500000	1	0.488000
22.516667	1	0.476750
22.533333	1	0.466125
22.550000	1	0.456000
22.566667	1	0.447250
22.583333	1	0.438625
22.600000	1	0.430375
22.616667	1	0.423125
22.633333	1	0.416625
22.650000	1	0.410000
22.666667	1	0.403750
22.683333	1	0.398500
22.700000	1	0.393625
22.716667	1	0.388000
22.733333	1	0.382625
22.750000	1	0.377875
22.766667	1	0.373125
22.783333	1	0.369125
22.800000	1	0.364375
22.816667	1	0.359875
22.833333	1	0.356250
22.850000	1	0.352125
22.866667	1	0.348000
22.883333	1	0.344875
22.900000	1	0.341375
22.916667	1	0.338875
22.933333	1	0.336250
22.950000	1	0.333500
22.966667	1	0.331625
22.983333	1	0.329500
23.000000	1	0.327875
23.016667	1	0.326875
23.033333	1	0.325875
23.050000	1	0.325125
23.066667	1	0.325125
23.083333	1	0.325750
23.100000	1	0.326875
23.116667	1	0.327250
23.133333	1	0.328500
23.150000	1	0.330000
23.166667	1	0.331625
23.183333	1	0.333750
23.200000	1	0.336500
23.216667	1	0.338500
23.233333	1	0.341750
23.250000	1	0.345000
23.266667	1	0.349250
23.283333	1	0.354250
23.300000	1	0.360875
23.316667	1	0.369500
23.333333	1	0.380000
23.350000	1	0.393000
23.366667	1	0.409000
23.383333	1	0.430250
23.400000	1	0.456500
23.416667	1	0.488500
23.433333	1	0.527625
23.450000	1	0.575250
23.466667	1	0.631750
23.483333	1	0.700375
23.500000	1	0.780125
23.516667	1	0.874000
23.533333	1	0.984125
23.550000	1	1.110625
23.566667	1	1.255375
23.583333	1	1.419500
23.600000	1	1.602625
23.616667	1	1.806000
23.633333	1	2.030125
23.650000	1	2.272625
23.666667	1	2.534500
23.683333	1	2.813000
23.700000	1	3.105000
23.716667	1	3.407125
23.733333	1	3.715625
23.750000	1	4.026125
23.766667	1	4.332000
23.783333	1	4.628625
23.800000	1	4.908000
23.816667	1	5.165875
23.833333	1	5.395125
23.850000	1	5.591500
23.866667	1	5.749750
23.883333	1	5.866250
23.900000	1	5.938375
23.916667	1	5.965250
23.933333	1	5.945500
23.950000	1	5.880500
23.966667	1	5.771750
23.983333	1	5.623500
24.000000	1	5.439875
24.016667	1	5.225750
24.033333	1	4.986750
24.050000	1	4.728625
24.066667	1	4.456250
24.083333	1	4.175375
24.100000	1	3.891375
24.116667	1	3.608375
24.133333	1	3.329875
24.150000	1	3.061375
24.166667	1	2.803375
24.183333	1	2.559750
24.200000	1	2.331625
24.216667	1	2.120250
24.233333	1	1.925875
24.250000	1	1.748000
24.266667	1	1.586500
24.283333	1	1.440875
24.300000	1	1.311250
24.316667	1	1.194750
24.333333	1	1.091500
24.350000	1	1.001250
24.366667	1	0.921375
24.383333	1	0.851625
24.400000	1	0.791000
24.416667	1	0.739375
24.433333	1	0.694125
24.450000	1	0.656000
24.466667	1	0.623250
24.483333	1	0.595250
24.500000	1	0.572000
24.516667	1	0.551875
24.533333	1	0.534625
24.550000	1	0.519625
24.566667	1	0.507125
24.583333	1	0.495875
24.600000	1	0.486375
24.616667	1	0.477500
24.633333	1	0.469375
24.650000	1	0.461750
24.666667	1	0.454750
24.683333	1	0.447500
24.700000	1	0.440750
24.716667	1	0.433500
24.733333	1	0.426250
24.750000	1	0.419500
24.766667	1	0.413250
24.783333	1	0.406250
24.800000	1	0.400000
24.816667	1	0.392750
24.833333	1	0.386750
24.850000	1	0.380875
24.866667	1	0.375000
24.883333	1	0.370000
24.900000	1	0.365000
24.916667	1	0.359875
24.933333	1	0.355625
24.950000	1	0.352500
24.966667	1	0.349375
24.983333	1	0.346375
25.000000	1	0.343250
25.016667	1	0.340250
25.033333	1	0.337500
25.050000	1	0.335250
25.066667	1	0.333750
25.083333	1	0.331250
25.100000	1	0.328875
25.116667	1	0.326875
25.133333	1	0.325500
25.150000	1	0.323250
25.166667	1	0.321500
25.183333	1	0.319625
25.200000	1	0.317500
25.216667	1	0.315000
25.233333	1	0.313000
25.250000	1	0.310750
25.266667	1	0.309625
25.283333	1	0.308000
25.300000	1	0.306000
25.316667	1	0.304000
25.333333	1	0.302375
25.350000	1	0.300375
25.366667	1	0.298875
25.383333	1	0.296500
25.400000	1	0.295625
25.416667	1	0.294625
25.433333	1	0.293625
25.450000	1	0.292875
25.466667	1	0.292875
25.483333	1	0.292375
25.500000	1	0.292375
25.516667	1	0.292625
25.533333	1	0.292750
25.550000	1	0.293500
25.566667	1	0.294250
25.583333	1	0.294750
25.600000	1	0.295375
25.616667	1	0.295875
25.633333	1	0.297125
25.650000	1	0.298250
25.666667	1	0.299250
25.683333	1	0.300250
25.700000	1	0.301250
25.716667	1	0.302750
25.733333	1	0.304000
25.750000	1	0.304125
25.766667	1	0.304875
25.783333	1	0.306250
25.800000	1	0.307250
25.816667	1	0.309125
25.833333	1	0.310250
25.850000	1	0.312250
25.866667	1	0.313500
25.883333	1	0.315000
25.900000	1	0.317125
25.916667	1	0.319375
25.933333	1	0.321750
25.950000	1	0.323750
25.966667	1	0.326750
25.983333	1	0.329750
26.000000	1	0.332875
26.016667	1	0.335875
26.033333	1	0.339875
26.050000	1	0.343125
26.066667	1	0.347000
26.083333	1	0.350875
26.100000	1	0.355250
26.116667	1	0.359250
26.133333	1	0.362750
26.150000	1	0.366250
26.166667	1	0.369375
26.183333	1	0.372125
26.200000	1	0.374500
26.216667	1	0.376625
26.233333	1	0.378250
26.250000	1	0.379375
26.266667	1	0.380125
26.283333	1	0.380500
26.300000	1	0.380000
26.316667	1	0.379250
26.333333	1	0.377625
26.350000	1	0.375375
26.366667	1	0.373000
26.383333	1	0.370625
26.400000	1	0.367500
26.416667	1	0.363250
26.433333	1	0.358875
26.450000	1	0.354125
26.466667	1	0.349000
26.483333	1	0.343750
26.500000	1	0.338625
26.516667	1	0.333250
26.533333	1	0.327625
26.550000	1	0.321750
26.566667	1	0.316125
26.583333	1	0.310500
26.600000	1	0.304875
26.616667	1	0.299250
26.633333	1	0.294375
26.650000	1	0.289250
26.666667	1	0.284875
26.683333	1	0.280500
26.700000	1	0.276375
26.716667	1	0.272625
26.733333	1	0.269000
26.750000	1	0.265000
26.766667	1	0.262875
26.783333	1	0.260000
26.800000	1	0.257125
26.816667	1	0.254625
26.833333	1	0.252625
26.850000	1	0.250625
26.866667	1	0.249500
26.883333	1	0.248250
26.900000	1	0.247625
26.916667	1	0.247000
26.933333	1	0.246375
26.950000	1	0.246250
26.966667	1	0.246375
26.983333	1	0.246875
27.000000	1	0.248125
27.016667	1	0.249000
27.033333	1	0.250750
27.050000	1	0.252375
27.066667	1	0.256000
27.083333	1	0.260125
27.100000	1	0.264375
27.116667	1	0.270125
27.133333	1	0.276375
27.150000	1	0.284000
27.166667	1	0.292875
27.183333	1	0.303375
27.200000	1	0.316000
27.216667	1	0.330250
27.233333	1	0.347500
27.250000	1	0.368000
27.266667	1	0.390375
27.283333	1	0.416875
27.300000	1	0.446750
27.316667	1	0.481000
27.333333	1	0.520750
27.350000	1	0.566000
27.366667	1	0.617500
27.383333	1	0.674875
27.400000	1	0.739375
27.416667	1	0.812250
27.433333	1	0.892875
27.450000	1	0.982750
27.466667	1	1.081125
27.483333	1	1.189625
27.500000	1	1.308625
27.516667	1	1.437500
27.533333	1	1.575000
27.550000	1	1.722750
27.566667	1	1.878875
27.583333	1	2.043750
27.600000	1	2.216125
27.616667	1	2.395250
27.633333	1	2.579000
27.650000	1	2.765875
27.666667	1	2.954500
27.683333	1	3.141625
27.700000	1	3.326375
27.716667	1	3.505125
27.733333	1	3.674375
27.750000	1	3.832625
27.766667	1	3.976500
27.783333	1	4.104500
27.800000	1	4.213000
27.816667	1	4.300625
27.833333	1	4.365000
27.850000	1	4.405250
27.866667	1	4.420750
27.883333	1	4.410750
27.900000	1	4.374875
27.916667	1	4.313250
27.933333	1	4.227375
27.950000	1	4.118875
27.966667	1	3.989625
27.983333	1	3.842500
28.000000	1	3.678750
28.016667	1	3.502875
28.033333	1	3.317375
28.050000	1	3.124750
28.066667	1	2.927375
28.083333	1	2.728500
28.100000	1	2.531625
28.116667	1	2.338125
28.133333	1	2.150250
28.150000	1	1.971000
28.166667	1	1.800125
28.183333	1	1.639500
28.200000	1	1.490375
28.216667	1	1.352375
28.233333	1	1.226625
28.250000	1	1.111375
28.266667	1	1.007500
28.283333	1	0.914625
28.300000	1	0.831625
28.316667	1	0.758250
28.333333	1	0.694500
28.350000	1	0.639875
28.366667	1	0.592875
28.383333	1	0.552750
28.400000	1	0.519375
28.416667	1	0.492250
28.433333	1	0.470250
28.450000	1	0.453000
28.466667	1	0.440750
28.483333	1	0.432750
28.500000	1	0.427000
28.516667	1	0.424625
28.533333	1	0.424125
28.550000	1	0.426875
28.566667	1	0.431875
28.583333	1	0.438000
28.600000	1	0.445750
28.616667	1	0.454125
28.633333	1	0.463500
28.650000	1	0.473750
28.666667	1	0.484750
28.683333	1	0.494625
28.700000	1	0.504875
28.716667	1	0.515625
28.733333	1	0.525875
28.750000	1	0.535500
28.766667	1	0.544875
28.783333	1	0.554125
28.800000	1	0.561750
28.816667	1	0.568500
28.833333	1	0.574125
28.850000	1	0.579250
28.866667	1	0.583250
28.883333	1	0.586750
28.900000	1	0.588625
28.916667	1	0.589625
28.933333	1	0.589500
28.950000	1	0.588250
28.966667	1	0.586125
28.983333	1	0.582750
29.000000	1	0.578625
29.016667	1	0.573375
29.033333	1	0.567375
29.050000	1	0.560125
29.066667	1	0.552625
29.083333	1	0.544625
29.100000	1	0.535125
29.116667	1	0.524750
29.133333	1	0.514125
29.150000	1	0.503000
29.166667	1	0.491375
29.183333	1	0.479625
29.200000	1	0.467000
29.216667	1	0.454375
29.233333	1	0.441625
29.250000	1	0.428625
29.266667	1	0.416250
29.283333	1	0.403125
29.300000	1	0.390625
29.316667	1	0.378125
29.333333	1	0.365625
29.350000	1	0.353500
29.366667	1	0.341250
29.383333	1	0.328750
29.400000	1	0.317375
29.416667	1	0.306750
29.433333	1	0.296375
29.450000	1	0.286375
29.466667	1	0.276375
29.483333	1	0.266875
29.500000	1	0.257875
29.516667	1	0.248625
29.533333	1	0.240625
29.550000	1	0.232375
29.566667	1	0.224375
29.583333	1	0.217375
29.600000	1	0.210250
29.616667	1	0.203625
29.633333	1	0.197250
29.650000	1	0.191750
29.666667	1	0.186500
29.683333	1	0.181375
29.700000	1	0.176125
29.716667	1	0.172000
29.733333	1	0.168375
29.750000	1	0.164875
29.766667	1	0.161000
29.783333	1	0.158000
29.800000	1	0.155875
29.816667	1	0.153000
29.833333	1	0.150250
29.850000	1	0.148750
29.866667	1	0.147500
29.883333	1	0.145375
29.900000	1	0.143375
29.916667	1	0.142375
29.933333	1	0.141375
29.950000	1	0.140875
29.966667	1	0.140875
29.983333	1	0.140750
30.000000	1	0.140250
30.016667	1	0.140375
30.033333	1	0.141000
30.050000	1	0.141500
30.066667	1	0.142375
30.083333	1	0.142875
30.100000	1	0.143250
30.116667	1	0.143750
30.133333	1	0.144625
30.150000	1	0.145500
30.166667	1	0.146500
30.183333	1	0.148250
30.200000	1	0.149250
30.216667	1	0.150500
30.233333	1	0.152250
30.250000	1	0.153750
30.266667	1	0.155875
30.283333	1	0.157750
30.300000	1	0.158625
30.316667	1	0.160875
30.333333	1	0.163000
30.350000	1	0.165250
30.366667	1	0.167625
30.383333	1	0.170250
30.400000	1	0.172500
30.416667	1	0.174875
30.433333	1	0.177750
30.450000	1	0.181000
30.466667	1	0.184500
30.483333	1	0.187625
30.500000	1	0.190875
30.516667	1	0.194875
30.533333	1	0.199125
30.550000	1	0.203750
30.566667	1	0.209125
30.583333	1	0.214250
30.600000	1	0.220250
30.616667	1	0.226625
30.633333	1	0.233750
30.650000	1	0.240875
30.666667	1	0.249000
30.683333	1	0.257500
30.700000	1	0.267250
30.716667	1	0.277750
30.733333	1	0.290000
30.750000	1	0.302750
30.766667	1	0.316500
30.783333	1	0.332250
30.800000	1	0.349250
30.816667	1	0.368625
30.833333	1	0.390875
30.850000	1	0.415875
30.866667	1	0.443125
30.883333	1	0.474125
30.900000	1	0.509125
30.916667	1	0.548625
30.933333	1	0.593625
30.950000	1	0.643250
30.966667	1	0.698875
30.983333	1	0.761625
31.000000	1	0.832125
31.016667	1	0.911375
31.033333	1	1.000250
31.050000	1	1.098625
31.066667	1	1.206625
31.083333	1	1.325875
31.100000	1	1.456375
31.116667	1	1.599250
31.133333	1	1.753625
31.150000	1	1.920125
31.166667	1	2.098750
31.183333	1	2.288875
31.200000	1	2.491000
31.216667	1	2.703875
31.233333	1	2.925625
31.250000	1	3.156000
31.266667	1	3.392875
31.283333	1	3.633500
31.300000	1	3.876875
31.316667	1	4.120375
31.333333	1	4.361500
31.350000	1	4.596750
31.366667	1	4.824875
31.383333	1	5.042250
31.400000	1	5.246500
31.416667	1	5.434375
31.433333	1	5.603750
31.450000	1	5.752000
31.466667	1	5.876875
31.483333	1	5.977000
31.500000	1	6.050750
31.516667	1	6.097125
31.533333	1	6.116250
31.550000	1	6.107375
31.566667	1	6.071625
31.583333	1	6.008250
31.600000	1	5.919625
31.616667	1	5.805625
31.633333	1	5.669500
31.650000	1	5.512375
31.666667	1	5.337500
31.683333	1	5.147000
31.700000	1	4.943125
31.716667	1	4.729250
31.733333	1	4.507375
31.750000	1	4.279250
31.766667	1	4.047625
31.783333	1	3.815125
31.800000	1	3.583750
31.816667	1	3.355000
31.833333	1	3.130125
31.850000	1	2.911750
31.866667	1	2.701750
31.883333	1	2.500250
31.900000	1	2.306750
31.916667	1	2.123500
31.933333	1	1.950625
31.950000	1	1.789500
31.966667	1	1.637750
31.983333	1	1.496625
32.000000	1	1.365375
32.016667	1	1.243750
32.033333	1	1.132250
32.050000	1	1.030125
32.066667	1	0.936125
32.083333	1	0.850625
32.100000	1	0.773375
32.116667	1	0.702375
32.133333	1	0.638750
32.150000	1	0.580375
32.166667	1	0.528375
32.183333	1	0.481250
32.200000	1	0.439125
32.216667	1	0.401375
32.233333	1	0.367375
32.250000	1	0.336875
32.266667	1	0.309750
32.283333	1	0.284875
32.300000	1	0.262750
32.316667	1	0.242500
32.333333	1	0.225000
32.350000	1	0.208875
32.366667	1	0.194375
32.383333	1	0.181500
32.400000	1	0.170750
32.416667	1	0.160750
32.433333	1	0.151625
32.450000	1	0.143375
32.466667	1	0.136000
32.483333	1	0.128750
32.500000	1	0.123000
32.516667	1	0.117750
32.533333	1	0.113125
32.550000	1	0.109250
32.566667	1	0.105750
32.583333	1	0.102625
32.600000	1	0.099750
32.616667	1	0.097375
32.633333	1	0.095750
32.650000	1	0.094000
32.666667	1	0.091625
32.683333	1	0.090000
32.700000	1	0.088500
32.716667	1	0.087750
32.733333	1	0.087625
32.750000	1	0.087000
32.766667	1	0.086250
32.783333	1	0.085375
32.800000	1	0.085250
32.816667	1	0.084375
32.833333	1	0.083625
32.850000	1	0.083375
32.866667	1	0.083000
32.883333	1	0.082750
32.900000	1	0.082375
32.916667	1	0.082625
32.933333	1	0.082750
32.950000	1	0.082875
32.966667	1	0.083000
32.983333	1	0.083625
33.000000	1	0.084000
33.016667	1	0.083875
33.033333	1	0.084000
33.050000	1	0.084125
33.066667	1	0.084750
33.083333	1	0.085375
33.100000	1	0.085375
33.116667	1	0.085500
33.133333	1	0.085875
33.150000	1	0.086750
33.166667	1	0.087500
33.183333	1	0.088000
33.200000	1	0.089000
33.216667	1	0.090000
33.233333	1	0.091250
33.250000	1	0.092000
33.266667	1	0.092625
33.283333	1	0.093875
33.300000	1	0.094250
33.316667	1	0.095250
33.333333	1	0.096625
33.350000	1	0.098625
33.366667	1	0.099625
33.383333	1	0.101500
33.400000	1	0.102375
33.416667	1	0.104125
33.433333	1	0.106125
33.450000	1	0.107625
33.466667	1	0.109000
33.483333	1	0.110875
33.500000	1	0.112875
33.516667	1	0.115125
33.533333	1	0.117375
33.550000	1	0.118750
33.566667	1	0.120750
33.583333	1	0.122875
33.600000	1	0.124500
33.616667	1	0.126375
33.633333	1	0.127875
33.650000	1	0.129750
33.666667	1	0.131625
33.683333	1	0.132750
33.700000	1	0.134750
33.716667	1	0.136250
33.733333	1	0.138375
33.750000	1	0.139750
33.766667	1	0.141125
33.783333	1	0.142375
33.800000	1	0.144250
33.816667	1	0.145125
33.833333	1	0.146000
33.850000	1	0.147250
33.866667	1	0.147750
33.883333	1	0.148875
33.900000	1	0.149875
33.916667	1	0.150375
33.933333	1	0.151125
33.950000	1	0.151375
33.966667	1	0.152125
33.983333	1	0.152250
34.000000	1	0.152375
34.016667	1	0.152375
34.033333	1	0.152250
34.050000	1	0.151875
34.066667	1	0.151500
34.083333	1	0.151500
34.100000	1	0.150500
34.116667	1	0.150875
34.133333	1	0.150375
34.150000	1	0.150000
34.166667	1	0.149375
34.183333	1	0.149250
34.200000	1	0.149500
34.216667	1	0.149500
34.233333	1	0.149500
34.250000	1	0.150000
34.266667	1	0.150875
34.283333	1	0.151125
34.300000	1	0.151375
34.316667	1	0.151875
34.333333	1	0.152625
34.350000	1	0.153000
34.366667	1	0.154500
34.383333	1	0.155625
34.400000	1	0.157125
34.416667	1	0.158375
34.433333	1	0.160000
34.450000	1	0.161000
34.466667	1	0.162250
34.483333	1	0.163750
34.500000	1	0.165250
34.516667	1	0.166625
34.533333	1	0.168000
34.550000	1	0.170125
34.566667	1	0.171750
34.583333	1	0.173625
34.600000	1	0.175500
34.616667	1	0.176875
34.633333	1	0.178125
34.650000	1	0.179375
34.666667	1	0.180000
34.683333	1	0.181125
34.700000	1	0.181875
34.716667	1	0.182875
34.733333	1	0.182875
34.750000	1	0.183625
34.766667	1	0.183875
34.783333	1	0.184250
34.800000	1	0.183750
34.816667	1	0.183750
34.833333	1	0.183375
34.850000	1	0.182250
34.866667	1	0.181500
34.883333	1	0.181250
34.900000	1	0.180500
34.916667	1	0.179750
34.933333	1	0.178750
34.950000	1	0.177750
34.966667	1	0.177250
34.983333	1	0.176250
35.000000	1	0.175750
35.016667	1	0.173875
35.033333	1	0.172000
35.050000	1	0.170500
35.066667	1	0.169500
35.083333	1	0.168375
35.100000	1	0.167250
35.116667	1	0.166250
35.133333	1	0.165375
35.150000	1	0.165000
35.166667	1	0.164500
35.183333	1	0.163625
35.200000	1	0.162875
35.216667	1	0.162500
35.233333	1	0.162000
35.250000	1	0.162125
35.266667	1	0.161625
35.283333	1	0.160625
35.300000	1	0.160750
35.316667	1	0.160875
35.333333	1	0.160875
35.350000	1	0.160625
35.366667	1	0.161250
35.383333	1	0.161875
35.400000	1	0.162125
35.416667	1	0.162500
35.433333	1	0.162875
35.450000	1	0.163375
35.466667	1	0.164250
35.483333	1	0.164375
35.500000	1	0.165125
35.516667	1	0.165125
35.533333	1	0.166000
35.550000	1	0.166875
35.566667	1	0.167750
35.583333	1	0.168750
35.600000	1	0.169500
35.616667	1	0.170250
35.633333	1	0.170750
35.650000	1	0.171375
35.666667	1	0.172250
35.683333	1	0.173375
35.700000	1	0.174000
35.716667	1	0.175000
35.733333	1	0.175625
35.750000	1	0.175875
35.766667	1	0.176500
35.783333	1	0.177125
35.800000	1	0.178000
35.816667	1	0.178500
35.833333	1	0.179125
35.850000	1	0.179625
35.866667	1	0.180125
35.883333	1	0.180875
35.900000	1	0.181250
35.916667	1	0.181500
35.933333	1	0.180750
35.950000	1	0.180375
35.966667	1	0.180750
35.983333	1	0.180500
36.000000	1	0.180250
36.016667	1	0.180375
36.033333	1	0.179875
36.050000	1	0.180125
36.066667	1	0.179500
36.083333	1	0.179000
36.100000	1	0.178375
36.116667	1	0.177375
36.133333	1	0.177125
36.150000	1	0.176125
36.166667	1	0.174875
36.183333	1	0.173500
36.200000	1	0.172625
36.216667	1	0.171500
36.233333	1	0.170250
36.250000	1	0.169375
36.266667	1	0.168625
36.283333	1	0.167375
36.300000	1	0.166875
36.316667	1	0.165750
36.333333	1	0.164500
36.350000	1	0.163000
36.366667	1	0.161375
36.383333	1	0.160375
36.400000	1	0.159000
36.416667	1	0.157625
36.433333	1	0.156750
36.450000	1	0.155125
36.466667	1	0.153000
36.483333	1	0.151750
36.500000	1	0.150125
36.516667	1	0.148625
36.533333	1	0.147250
36.550000	1	0.145125
36.566667	1	0.143375
36.583333	1	0.141500
36.600000	1	0.138875
36.616667	1	0.136250
36.633333	1	0.134375
36.650000	1	0.131750
36.666667	1	0.129625
36.683333	1	0.127875
36.700000	1	0.125500
36.716667	1	0.123500
36.733333	1	0.121000
36.750000	1	0.118625
36.766667	1	0.115625
36.783333	1	0.113625
36.800000	1	0.111625
36.816667	1	0.109500
36.833333	1	0.107750
36.850000	1	0.105875
36.866667	1	0.104250
36.883333	1	0.102625
36.900000	1	0.101000
36.916667	1	0.100250
36.933333	1	0.099375
36.950000	1	0.098375
36.966667	1	0.097625
36.983333	1	0.096875
37.000000	1	0.096875
37.016667	1	0.096625
37.033333	1	0.096875
37.050000	1	0.096500
37.066667	1	0.096375
37.083333	1	0.096250
37.100000	1	0.096125
37.116667	1	0.096500
37.133333	1	0.097375
37.150000	1	0.098625
37.166667	1	0.098750
37.183333	1	0.098500
37.200000	1	0.099000
37.216667	1	0.099875
37.233333	1	0.101375
37.250000	1	0.101375
37.266667	1	0.102000
37.283333	1	0.102750
37.300000	1	0.103000
37.316667	1	0.104375
37.333333	1	0.105000
37.350000	1	0.105000
37.366667	1	0.104875
37.383333	1	0.105000
37.400000	1	0.105750
37.416667	1	0.105875
37.433333	1	0.105750
37.450000	1	0.106250
37.466667	1	0.106375
37.483333	1	0.106500
37.500000	1	0.106500
37.516667	1	0.106500
37.533333	1	0.106500
37.550000	1	0.106500
37.566667	1	0.106000
37.583333	1	0.105625
37.600000	1	0.105250
37.616667	1	0.104750
37.633333	1	0.105250
37.650000	1	0.104750
37.666667	1	0.103625
37.683333	1	0.103250
37.700000	1	0.103000
37.716667	1	0.102125
37.733333	1	0.102000
37.750000	1	0.101750
37.766667	1	0.100375
37.783333	1	0.099250
37.800000	1	0.098250
37.816667	1	0.097000
37.833333	1	0.095875
37.850000	1	0.094625
37.866667	1	0.093375
37.883333	1	0.091750
37.900000	1	0.090375
37.916667	1	0.088875
37.933333	1	0.087625
37.950000	1	0.085875
37.966667	1	0.084250
37.983333	1	0.082625
38.000000	1	0.080750
38.016667	1	0.079000
38.033333	1	0.077625
38.050000	1	0.076625
38.066667	1	0.075375
38.083333	1	0.074000
38.100000	1	0.072625
38.116667	1	0.071625
38.133333	1	0.071500
38.150000	1	0.071125
38.166667	1	0.070125
38.183333	1	0.069750
38.200000	1	0.069375
38.216667	1	0.068875
38.233333	1	0.068375
38.250000	1	0.068500
38.266667	1	0.068500
38.283333	1	0.068500
38.300000	1	0.068875
38.316667	1	0.068625
38.333333	1	0.069000
38.350000	1	0.069375
38.366667	1	0.069125
38.383333	1	0.070250
38.400000	1	0.070750
38.416667	1	0.071250
38.433333	1	0.071625
38.450000	1	0.072125
38.466667	1	0.072500
38.483333	1	0.072000
38.500000	1	0.072250
38.516667	1	0.072125
38.533333	1	0.072125
38.550000	1	0.071750
38.566667	1	0.071625
38.583333	1	0.071375
38.600000	1	0.071000
38.616667	1	0.070500
38.633333	1	0.070250
38.650000	1	0.069500
38.666667	1	0.068125
38.683333	1	0.067500
38.700000	1	0.065875
38.716667	1	0.065250
38.733333	1	0.063750
38.750000	1	0.062625
38.766667	1	0.061000
38.783333	1	0.059375
38.800000	1	0.058125
38.816667	1	0.056750
38.833333	1	0.055625
38.850000	1	0.054500
38.866667	1	0.053875
38.883333	1	0.053000
38.900000	1	0.052875
38.916667	1	0.051500
38.933333	1	0.050750
38.950000	1	0.049500
38.966667	1	0.048750
38.983333	1	0.047750
39.000000	1	0.047500
39.016667	1	0.047625
39.033333	1	0.047500
39.050000	1	0.047625
39.066667	1	0.048000
39.083333	1	0.048500
39.100000	1	0.049250
39.116667	1	0.050000
39.133333	1	0.050875
39.150000	1	0.051375
39.166667	1	0.052250
39.183333	1	0.052875
39.200000	1	0.053625
39.216667	1	0.054500
39.233333	1	0.055625
39.250000	1	0.056500
39.266667	1	0.058000
39.283333	1	0.059250
39.300000	1	0.060000
39.316667	1	0.061000
39.333333	1	0.061500
39.350000	1	0.061500
39.366667	1	0.062125
39.383333	1	0.062000
39.400000	1	0.061625
39.416667	1	0.062000
39.433333	1	0.062000
39.450000	1	0.061250
39.466667	1	0.061125
39.483333	1	0.059750
39.500000	1	0.059250
39.516667	1	0.058750
39.533333	1	0.057625
39.550000	1	0.056875
39.566667	1	0.055250
39.583333	1	0.054250
39.600000	1	0.053125
39.616667	1	0.051750
39.633333	1	0.051000
39.650000	1	0.049625
39.666667	1	0.048250
39.683333	1	0.047000
39.700000	1	0.046625
39.716667	1	0.045500
39.733333	1	0.044500
39.750000	1	0.043000
39.766667	1	0.041625
39.783333	1	0.040875
39.800000	1	0.040375
39.816667	1	0.040250
39.833333	1	0.040000
39.850000	1	0.039750
39.866667	1	0.039875
39.883333	1	0.040125
39.900000	1	0.040375
39.916667	1	0.041000
39.933333	1	0.041625
39.950000	1	0.042000
39.966667	1	0.042875
39.983333	1	0.043750
40.000000	1	0.044625
