URL	chrom://bioreactor/micro_cm7/HPLC_Ultimate_3000/Users/markusar/20240708_MA_pHrange1.seq/205.smp/RI_1.channel/RI_1.chm
Channel	RI_1

Injection Information:
Data Vault	micro_cm7
Sequence	20240708_MA_pHrange1
Name	Pv2_5.7_1
Number	22
Position	BB10
Comment	
Processing Method	
Instrument Method	run_25B_method
Type	Unknown
Status	Finished
Inject Time	09.07.2024 05:54:54 +02:00
Volume (µl)	20.0000
Dilution Factor	1.0000
Weight	1.0000

Chromatogram Data Information:
Time Min. (min)	0.000000
Time Max. (min)	40.000000
Data Points	2401
Detector	RI
Generating Data System	Chromeleon 7.3.2.11814
Exporting Data System	Chromeleon 7.3.2.0
Operator	Instrument Controller
Signal Quantity	Refractive 
Signal Unit	µRIU
Signal Min.	-0.050000
Signal Max.	83.242500
Channel	RI_1
Driver Name	RID520Driver.dll
Channel Type	Evaluation
Min. Step (s)	1
Max. Step (s)	1
Average Step (s)	1

Signal Parameter Information:
Signal Info	

Chromatogram Data:
Time (min)	Step (s)	Value (µRIU)
0.000000	n.a.	-0.007750
0.016667	1	-0.007500
0.033333	1	-0.006875
0.050000	1	-0.006500
0.066667	1	-0.006500
0.083333	1	-0.005500
0.100000	1	-0.005125
0.116667	1	-0.005000
0.133333	1	-0.004000
0.150000	1	-0.003375
0.166667	1	-0.003000
0.183333	1	-0.002875
0.200000	1	-0.003000
0.216667	1	-0.002250
0.233333	1	-0.001500
0.250000	1	-0.001125
0.266667	1	-0.000375
0.283333	1	0.000000
0.300000	1	0.000375
0.316667	1	0.000500
0.333333	1	0.001125
0.350000	1	0.001000
0.366667	1	0.000750
0.383333	1	0.000625
0.400000	1	0.001000
0.416667	1	0.002125
0.433333	1	0.003750
0.450000	1	0.006125
0.466667	1	0.008125
0.483333	1	0.010000
0.500000	1	0.011375
0.516667	1	0.012375
0.533333	1	0.013125
0.550000	1	0.012750
0.566667	1	0.012125
0.583333	1	0.011250
0.600000	1	0.010000
0.616667	1	0.008625
0.633333	1	0.007625
0.650000	1	0.007875
0.666667	1	0.007000
0.683333	1	0.006625
0.700000	1	0.006625
0.716667	1	0.006625
0.733333	1	0.006875
0.750000	1	0.007125
0.766667	1	0.007000
0.783333	1	0.007000
0.800000	1	0.006375
0.816667	1	0.006250
0.833333	1	0.007000
0.850000	1	0.007375
0.866667	1	0.007750
0.883333	1	0.007375
0.900000	1	0.007125
0.916667	1	0.007500
0.933333	1	0.007750
0.950000	1	0.008000
0.966667	1	0.008125
0.983333	1	0.008375
1.000000	1	0.008750
1.016667	1	0.009375
1.033333	1	0.009625
1.050000	1	0.009625
1.066667	1	0.010250
1.083333	1	0.011000
1.100000	1	0.011375
1.116667	1	0.011875
1.133333	1	0.011375
1.150000	1	0.010875
1.166667	1	0.012000
1.183333	1	0.012375
1.200000	1	0.012750
1.216667	1	0.013375
1.233333	1	0.013875
1.250000	1	0.014375
1.266667	1	0.015625
1.283333	1	0.016250
1.300000	1	0.016625
1.316667	1	0.016750
1.333333	1	0.017000
1.350000	1	0.016875
1.366667	1	0.017375
1.383333	1	0.017500
1.400000	1	0.017875
1.416667	1	0.018625
1.433333	1	0.018750
1.450000	1	0.018875
1.466667	1	0.019250
1.483333	1	0.019750
1.500000	1	0.019250
1.516667	1	0.019500
1.533333	1	0.019000
1.550000	1	0.018375
1.566667	1	0.018500
1.583333	1	0.018375
1.600000	1	0.018000
1.616667	1	0.018000
1.633333	1	0.018375
1.650000	1	0.017500
1.666667	1	0.016875
1.683333	1	0.016125
1.700000	1	0.015125
1.716667	1	0.014375
1.733333	1	0.013625
1.750000	1	0.012625
1.766667	1	0.011250
1.783333	1	0.009250
1.800000	1	0.008000
1.816667	1	0.007500
1.833333	1	0.006625
1.850000	1	0.005500
1.866667	1	0.004500
1.883333	1	0.004125
1.900000	1	0.002375
1.916667	1	0.001625
1.933333	1	-0.000125
1.950000	1	-0.001125
1.966667	1	-0.002625
1.983333	1	-0.003500
2.000000	1	-0.005125
2.016667	1	-0.006375
2.033333	1	-0.007875
2.050000	1	-0.009250
2.066667	1	-0.010375
2.083333	1	-0.012000
2.100000	1	-0.013125
2.116667	1	-0.014875
2.133333	1	-0.016375
2.150000	1	-0.017000
2.166667	1	-0.018625
2.183333	1	-0.020375
2.200000	1	-0.022000
2.216667	1	-0.023375
2.233333	1	-0.024250
2.250000	1	-0.026000
2.266667	1	-0.027625
2.283333	1	-0.029000
2.300000	1	-0.030875
2.316667	1	-0.033250
2.333333	1	-0.034250
2.350000	1	-0.035625
2.366667	1	-0.036625
2.383333	1	-0.037875
2.400000	1	-0.039125
2.416667	1	-0.039250
2.433333	1	-0.040250
2.450000	1	-0.040250
2.466667	1	-0.040375
2.483333	1	-0.041125
2.500000	1	-0.041250
2.516667	1	-0.041000
2.533333	1	-0.040875
2.550000	1	-0.040875
2.566667	1	-0.041125
2.583333	1	-0.040625
2.600000	1	-0.039750
2.616667	1	-0.038875
2.633333	1	-0.038250
2.650000	1	-0.037250
2.666667	1	-0.036375
2.683333	1	-0.035500
2.700000	1	-0.035000
2.716667	1	-0.033875
2.733333	1	-0.033250
2.750000	1	-0.032750
2.766667	1	-0.032375
2.783333	1	-0.031875
2.800000	1	-0.031375
2.816667	1	-0.030375
2.833333	1	-0.029625
2.850000	1	-0.028750
2.866667	1	-0.028250
2.883333	1	-0.027875
2.900000	1	-0.027500
2.916667	1	-0.027250
2.933333	1	-0.027375
2.950000	1	-0.027500
2.966667	1	-0.027625
2.983333	1	-0.027375
3.000000	1	-0.027625
3.016667	1	-0.027125
3.033333	1	-0.026875
3.050000	1	-0.027000
3.066667	1	-0.027375
3.083333	1	-0.027000
3.100000	1	-0.026875
3.116667	1	-0.026875
3.133333	1	-0.026625
3.150000	1	-0.027625
3.166667	1	-0.027375
3.183333	1	-0.026875
3.200000	1	-0.026625
3.216667	1	-0.027000
3.233333	1	-0.026875
3.250000	1	-0.026000
3.266667	1	-0.025500
3.283333	1	-0.024625
3.300000	1	-0.024250
3.316667	1	-0.023125
3.333333	1	-0.022750
3.350000	1	-0.022000
3.366667	1	-0.020750
3.383333	1	-0.019625
3.400000	1	-0.018500
3.416667	1	-0.017625
3.433333	1	-0.016750
3.450000	1	-0.015375
3.466667	1	-0.014375
3.483333	1	-0.013000
3.500000	1	-0.012125
3.516667	1	-0.010625
3.533333	1	-0.009375
3.550000	1	-0.008500
3.566667	1	-0.007250
3.583333	1	-0.006250
3.600000	1	-0.005000
3.616667	1	-0.005000
3.633333	1	-0.004125
3.650000	1	-0.003500
3.666667	1	-0.002250
3.683333	1	-0.001750
3.700000	1	-0.001375
3.716667	1	-0.000750
3.733333	1	-0.000375
3.750000	1	-0.000375
3.766667	1	-0.000250
3.783333	1	0.000250
3.800000	1	0.000875
3.816667	1	0.001125
3.833333	1	0.001500
3.850000	1	0.001625
3.866667	1	0.002250
3.883333	1	0.002875
3.900000	1	0.002500
3.916667	1	0.002875
3.933333	1	0.003250
3.950000	1	0.003250
3.966667	1	0.004250
3.983333	1	0.004125
4.000000	1	0.004500
4.016667	1	0.004625
4.033333	1	0.005125
4.050000	1	0.005500
4.066667	1	0.005250
4.083333	1	0.005500
4.100000	1	0.005875
4.116667	1	0.005875
4.133333	1	0.005750
4.150000	1	0.006625
4.166667	1	0.007000
4.183333	1	0.007875
4.200000	1	0.008625
4.216667	1	0.008750
4.233333	1	0.010000
4.250000	1	0.011000
4.266667	1	0.012750
4.283333	1	0.013375
4.300000	1	0.014750
4.316667	1	0.016000
4.333333	1	0.017375
4.350000	1	0.018750
4.366667	1	0.020375
4.383333	1	0.021750
4.400000	1	0.024375
4.416667	1	0.025750
4.433333	1	0.028125
4.450000	1	0.030250
4.466667	1	0.033125
4.483333	1	0.036375
4.500000	1	0.039000
4.516667	1	0.041500
4.533333	1	0.044375
4.550000	1	0.047375
4.566667	1	0.050500
4.583333	1	0.053750
4.600000	1	0.058125
4.616667	1	0.061875
4.633333	1	0.065375
4.650000	1	0.069000
4.666667	1	0.072500
4.683333	1	0.076125
4.700000	1	0.079375
4.716667	1	0.083000
4.733333	1	0.086375
4.750000	1	0.089750
4.766667	1	0.093250
4.783333	1	0.097500
4.800000	1	0.100750
4.816667	1	0.104375
4.833333	1	0.107875
4.850000	1	0.112125
4.866667	1	0.115125
4.883333	1	0.118625
4.900000	1	0.121125
4.916667	1	0.125500
4.933333	1	0.128625
4.950000	1	0.131375
4.966667	1	0.134250
4.983333	1	0.138375
5.000000	1	0.141625
5.016667	1	0.144750
5.033333	1	0.148625
5.050000	1	0.152500
5.066667	1	0.156000
5.083333	1	0.159125
5.100000	1	0.162750
5.116667	1	0.166250
5.133333	1	0.170000
5.150000	1	0.173625
5.166667	1	0.177250
5.183333	1	0.180875
5.200000	1	0.183375
5.216667	1	0.187125
5.233333	1	0.191125
5.250000	1	0.194625
5.266667	1	0.197875
5.283333	1	0.201375
5.300000	1	0.204750
5.316667	1	0.208750
5.333333	1	0.212000
5.350000	1	0.214875
5.366667	1	0.218000
5.383333	1	0.221375
5.400000	1	0.224500
5.416667	1	0.227250
5.433333	1	0.229875
5.450000	1	0.232250
5.466667	1	0.234625
5.483333	1	0.236125
5.500000	1	0.237625
5.516667	1	0.239375
5.533333	1	0.240375
5.550000	1	0.241375
5.566667	1	0.242625
5.583333	1	0.243250
5.600000	1	0.244125
5.616667	1	0.244375
5.633333	1	0.244375
5.650000	1	0.243625
5.666667	1	0.243000
5.683333	1	0.242375
5.700000	1	0.241625
5.716667	1	0.240375
5.733333	1	0.238750
5.750000	1	0.237000
5.766667	1	0.236500
5.783333	1	0.235000
5.800000	1	0.233000
5.816667	1	0.231125
5.833333	1	0.229000
5.850000	1	0.226000
5.866667	1	0.223375
5.883333	1	0.219875
5.900000	1	0.216250
5.916667	1	0.213000
5.933333	1	0.210000
5.950000	1	0.206750
5.966667	1	0.203625
5.983333	1	0.200250
6.000000	1	0.196875
6.016667	1	0.193125
6.033333	1	0.189875
6.050000	1	0.186125
6.066667	1	0.182625
6.083333	1	0.178750
6.100000	1	0.175000
6.116667	1	0.171250
6.133333	1	0.167625
6.150000	1	0.164000
6.166667	1	0.160500
6.183333	1	0.156750
6.200000	1	0.152625
6.216667	1	0.149375
6.233333	1	0.145625
6.250000	1	0.142500
6.266667	1	0.138875
6.283333	1	0.134875
6.300000	1	0.131500
6.316667	1	0.127750
6.333333	1	0.124250
6.350000	1	0.121125
6.366667	1	0.117875
6.383333	1	0.114375
6.400000	1	0.110625
6.416667	1	0.107125
6.433333	1	0.103750
6.450000	1	0.100500
6.466667	1	0.097625
6.483333	1	0.095125
6.500000	1	0.092500
6.516667	1	0.089500
6.533333	1	0.086375
6.550000	1	0.083875
6.566667	1	0.081000
6.583333	1	0.078500
6.600000	1	0.076500
6.616667	1	0.074750
6.633333	1	0.072375
6.650000	1	0.070125
6.666667	1	0.068000
6.683333	1	0.066000
6.700000	1	0.064625
6.716667	1	0.062875
6.733333	1	0.061625
6.750000	1	0.059750
6.766667	1	0.058125
6.783333	1	0.056750
6.800000	1	0.055500
6.816667	1	0.054125
6.833333	1	0.053375
6.850000	1	0.053375
6.866667	1	0.053375
6.883333	1	0.052875
6.900000	1	0.052375
6.916667	1	0.052375
6.933333	1	0.051500
6.950000	1	0.051875
6.966667	1	0.052125
6.983333	1	0.053125
7.000000	1	0.053875
7.016667	1	0.055000
7.033333	1	0.056000
7.050000	1	0.057750
7.066667	1	0.058625
7.083333	1	0.059375
7.100000	1	0.061250
7.116667	1	0.062750
7.133333	1	0.065000
7.150000	1	0.067625
7.166667	1	0.070000
7.183333	1	0.071875
7.200000	1	0.073875
7.216667	1	0.076375
7.233333	1	0.078125
7.250000	1	0.080250
7.266667	1	0.082750
7.283333	1	0.084375
7.300000	1	0.085875
7.316667	1	0.088250
7.333333	1	0.090875
7.350000	1	0.093625
7.366667	1	0.096125
7.383333	1	0.098875
7.400000	1	0.100500
7.416667	1	0.101875
7.433333	1	0.103125
7.450000	1	0.103875
7.466667	1	0.104750
7.483333	1	0.105625
7.500000	1	0.105750
7.516667	1	0.106625
7.533333	1	0.106625
7.550000	1	0.106500
7.566667	1	0.105500
7.583333	1	0.104375
7.600000	1	0.103250
7.616667	1	0.101375
7.633333	1	0.099375
7.650000	1	0.097250
7.666667	1	0.095125
7.683333	1	0.092625
7.700000	1	0.089750
7.716667	1	0.086375
7.733333	1	0.083125
7.750000	1	0.079250
7.766667	1	0.075625
7.783333	1	0.072000
7.800000	1	0.068500
7.816667	1	0.065000
7.833333	1	0.061125
7.850000	1	0.056750
7.866667	1	0.052875
7.883333	1	0.050000
7.900000	1	0.046625
7.916667	1	0.042625
7.933333	1	0.039500
7.950000	1	0.036000
7.966667	1	0.032750
7.983333	1	0.029875
8.000000	1	0.027500
8.016667	1	0.024625
8.033333	1	0.021500
8.050000	1	0.018625
8.066667	1	0.016500
8.083333	1	0.013500
8.100000	1	0.011500
8.116667	1	0.008875
8.133333	1	0.007375
8.150000	1	0.005750
8.166667	1	0.004125
8.183333	1	0.002500
8.200000	1	0.000875
8.216667	1	-0.000625
8.233333	1	-0.002500
8.250000	1	-0.004000
8.266667	1	-0.005625
8.283333	1	-0.007000
8.300000	1	-0.008625
8.316667	1	-0.009250
8.333333	1	-0.011125
8.350000	1	-0.011875
8.366667	1	-0.012625
8.383333	1	-0.014250
8.400000	1	-0.015375
8.416667	1	-0.017125
8.433333	1	-0.019125
8.450000	1	-0.020625
8.466667	1	-0.022000
8.483333	1	-0.023500
8.500000	1	-0.025125
8.516667	1	-0.026125
8.533333	1	-0.026875
8.550000	1	-0.027500
8.566667	1	-0.028625
8.583333	1	-0.029125
8.600000	1	-0.031000
8.616667	1	-0.031500
8.633333	1	-0.032625
8.650000	1	-0.032875
8.666667	1	-0.034125
8.683333	1	-0.033750
8.700000	1	-0.034750
8.716667	1	-0.034625
8.733333	1	-0.034375
8.750000	1	-0.033625
8.766667	1	-0.033125
8.783333	1	-0.033500
8.800000	1	-0.033375
8.816667	1	-0.033125
8.833333	1	-0.033000
8.850000	1	-0.032500
8.866667	1	-0.031875
8.883333	1	-0.031000
8.900000	1	-0.030125
8.916667	1	-0.028875
8.933333	1	-0.027000
8.950000	1	-0.025375
8.966667	1	-0.024125
8.983333	1	-0.023500
9.000000	1	-0.022125
9.016667	1	-0.021000
9.033333	1	-0.019750
9.050000	1	-0.018875
9.066667	1	-0.017625
9.083333	1	-0.016250
9.100000	1	-0.014875
9.116667	1	-0.013500
9.133333	1	-0.012000
9.150000	1	-0.010500
9.166667	1	-0.009250
9.183333	1	-0.008500
9.200000	1	-0.007375
9.216667	1	-0.005625
9.233333	1	-0.005375
9.250000	1	-0.004250
9.266667	1	-0.003500
9.283333	1	-0.002875
9.300000	1	-0.002250
9.316667	1	-0.001250
9.333333	1	-0.000125
9.350000	1	0.000125
9.366667	1	0.000500
9.383333	1	0.001125
9.400000	1	0.001125
9.416667	1	0.001000
9.433333	1	0.001250
9.450000	1	0.001375
9.466667	1	0.001000
9.483333	1	0.001625
9.500000	1	0.001000
9.516667	1	0.001125
9.533333	1	0.000625
9.550000	1	0.000375
9.566667	1	0.000250
9.583333	1	-0.000375
9.600000	1	-0.001125
9.616667	1	-0.001625
9.633333	1	-0.002125
9.650000	1	-0.002750
9.666667	1	-0.003875
9.683333	1	-0.005125
9.700000	1	-0.005625
9.716667	1	-0.006250
9.733333	1	-0.007000
9.750000	1	-0.008250
9.766667	1	-0.008125
9.783333	1	-0.009250
9.800000	1	-0.010500
9.816667	1	-0.011500
9.833333	1	-0.012250
9.850000	1	-0.012625
9.866667	1	-0.014125
9.883333	1	-0.014875
9.900000	1	-0.016000
9.916667	1	-0.017000
9.933333	1	-0.017500
9.950000	1	-0.017750
9.966667	1	-0.018250
9.983333	1	-0.019125
10.000000	1	-0.019500
10.016667	1	-0.019500
10.033333	1	-0.019000
10.050000	1	-0.018000
10.066667	1	-0.016250
10.083333	1	-0.014500
10.100000	1	-0.011375
10.116667	1	-0.007750
10.133333	1	-0.002375
10.150000	1	0.002750
10.166667	1	0.009625
10.183333	1	0.018375
10.200000	1	0.027625
10.216667	1	0.038375
10.233333	1	0.051500
10.250000	1	0.066500
10.266667	1	0.082750
10.283333	1	0.101500
10.300000	1	0.123375
10.316667	1	0.147250
10.333333	1	0.174250
10.350000	1	0.202875
10.366667	1	0.231000
10.383333	1	0.258625
10.400000	1	0.282625
10.416667	1	0.299625
10.433333	1	0.305500
10.450000	1	0.298375
10.466667	1	0.276250
10.483333	1	0.242750
10.500000	1	0.209750
10.516667	1	0.198750
10.533333	1	0.248000
10.550000	1	0.411750
10.566667	1	0.754375
10.583333	1	1.349625
10.600000	1	2.272000
10.616667	1	3.587250
10.633333	1	5.344750
10.650000	1	7.578000
10.666667	1	10.305500
10.683333	1	13.525125
10.700000	1	17.216875
10.716667	1	21.335375
10.733333	1	25.808750
10.750000	1	30.522875
10.766667	1	35.306625
10.783333	1	39.926500
10.800000	1	44.063625
10.816667	1	47.329500
10.833333	1	49.320000
10.850000	1	49.708375
10.866667	1	48.352625
10.883333	1	45.364000
10.900000	1	41.099125
10.916667	1	36.065000
10.933333	1	30.782125
10.950000	1	25.677375
10.966667	1	21.034375
10.983333	1	16.999250
11.000000	1	13.612250
11.016667	1	10.844625
11.033333	1	8.633500
11.050000	1	6.896000
11.066667	1	5.547500
11.083333	1	4.510750
11.100000	1	3.717625
11.116667	1	3.110875
11.133333	1	2.648500
11.150000	1	2.293125
11.166667	1	2.018250
11.183333	1	1.804625
11.200000	1	1.635875
11.216667	1	1.501375
11.233333	1	1.392125
11.250000	1	1.303250
11.266667	1	1.229625
11.283333	1	1.168250
11.300000	1	1.116250
11.316667	1	1.071750
11.333333	1	1.033125
11.350000	1	1.000000
11.366667	1	0.972375
11.383333	1	0.947875
11.400000	1	0.927000
11.416667	1	0.909625
11.433333	1	0.894125
11.450000	1	0.881375
11.466667	1	0.870125
11.483333	1	0.860875
11.500000	1	0.853500
11.516667	1	0.846375
11.533333	1	0.841500
11.550000	1	0.838250
11.566667	1	0.835125
11.583333	1	0.833625
11.600000	1	0.834125
11.616667	1	0.833750
11.633333	1	0.835500
11.650000	1	0.838125
11.666667	1	0.841875
11.683333	1	0.847000
11.700000	1	0.853000
11.716667	1	0.859625
11.733333	1	0.867500
11.750000	1	0.876000
11.766667	1	0.885000
11.783333	1	0.894625
11.800000	1	0.904750
11.816667	1	0.914250
11.833333	1	0.923375
11.850000	1	0.931375
11.866667	1	0.939000
11.883333	1	0.945375
11.900000	1	0.951375
11.916667	1	0.956250
11.933333	1	0.960000
11.950000	1	0.963750
11.966667	1	0.967000
11.983333	1	0.969875
12.000000	1	0.972000
12.016667	1	0.975375
12.033333	1	0.977375
12.050000	1	0.980125
12.066667	1	0.983125
12.083333	1	0.987375
12.100000	1	0.991250
12.116667	1	0.996000
12.133333	1	1.001000
12.150000	1	1.006250
12.166667	1	1.012250
12.183333	1	1.018875
12.200000	1	1.027500
12.216667	1	1.038125
12.233333	1	1.050875
12.250000	1	1.067125
12.266667	1	1.088000
12.283333	1	1.115000
12.300000	1	1.149750
12.316667	1	1.194500
12.333333	1	1.252250
12.350000	1	1.325875
12.366667	1	1.421125
12.383333	1	1.539375
12.400000	1	1.687625
12.416667	1	1.869625
12.433333	1	2.089750
12.450000	1	2.353250
12.466667	1	2.665250
12.483333	1	3.029875
12.500000	1	3.449750
12.516667	1	3.927375
12.533333	1	4.461625
12.550000	1	5.053125
12.566667	1	5.695125
12.583333	1	6.380125
12.600000	1	7.096125
12.616667	1	7.830500
12.633333	1	8.569000
12.650000	1	9.298250
12.666667	1	10.004875
12.683333	1	10.679000
12.700000	1	11.315000
12.716667	1	11.909125
12.733333	1	12.464000
12.750000	1	12.986250
12.766667	1	13.486375
12.783333	1	13.973125
12.800000	1	14.457500
12.816667	1	14.949000
12.833333	1	15.457500
12.850000	1	15.988250
12.866667	1	16.548250
12.883333	1	17.139250
12.900000	1	17.762500
12.916667	1	18.419000
12.933333	1	19.108000
12.950000	1	19.826125
12.966667	1	20.572750
12.983333	1	21.345625
13.000000	1	22.142875
13.016667	1	22.963750
13.033333	1	23.807000
13.050000	1	24.672750
13.066667	1	25.560000
13.083333	1	26.468250
13.100000	1	27.397000
13.116667	1	28.345625
13.133333	1	29.312750
13.150000	1	30.299750
13.166667	1	31.306125
13.183333	1	32.330750
13.200000	1	33.374500
13.216667	1	34.436375
13.233333	1	35.517250
13.250000	1	36.619000
13.266667	1	37.743250
13.283333	1	38.889375
13.300000	1	40.056750
13.316667	1	41.247750
13.333333	1	42.461375
13.350000	1	43.698000
13.366667	1	44.957875
13.383333	1	46.242500
13.400000	1	47.550500
13.416667	1	48.883000
13.433333	1	50.241625
13.450000	1	51.628125
13.466667	1	53.043500
13.483333	1	54.488375
13.500000	1	55.963625
13.516667	1	57.467625
13.533333	1	59.003500
13.550000	1	60.569750
13.566667	1	62.168250
13.583333	1	63.798375
13.600000	1	65.458625
13.616667	1	67.152375
13.633333	1	68.882125
13.650000	1	70.649250
13.666667	1	72.454500
13.683333	1	74.298250
13.700000	1	76.178625
13.716667	1	78.076375
13.733333	1	79.928250
13.750000	1	81.586750
13.766667	1	82.799250
13.783333	1	83.242500
13.800000	1	82.576875
13.816667	1	80.478500
13.833333	1	76.680375
13.850000	1	71.063000
13.866667	1	63.789875
13.883333	1	55.383875
13.900000	1	46.612875
13.916667	1	38.250000
13.933333	1	30.838250
13.950000	1	24.617375
13.966667	1	19.590375
13.983333	1	15.627625
14.000000	1	12.554250
14.016667	1	10.197625
14.033333	1	8.412375
14.050000	1	7.076000
14.066667	1	6.084625
14.083333	1	5.353250
14.100000	1	4.812125
14.116667	1	4.409375
14.133333	1	4.105125
14.150000	1	3.871000
14.166667	1	3.687000
14.183333	1	3.538750
14.200000	1	3.416500
14.216667	1	3.314000
14.233333	1	3.225875
14.250000	1	3.148375
14.266667	1	3.080750
14.283333	1	3.020125
14.300000	1	2.965750
14.316667	1	2.916375
14.333333	1	2.872375
14.350000	1	2.833250
14.366667	1	2.799625
14.383333	1	2.773250
14.400000	1	2.753500
14.416667	1	2.744500
14.433333	1	2.747250
14.450000	1	2.765875
14.466667	1	2.806000
14.483333	1	2.876875
14.500000	1	2.989000
14.516667	1	3.160250
14.533333	1	3.412250
14.550000	1	3.777125
14.566667	1	4.295250
14.583333	1	5.015250
14.600000	1	5.999500
14.616667	1	7.321125
14.633333	1	9.061750
14.650000	1	11.305000
14.666667	1	14.130375
14.683333	1	17.600250
14.700000	1	21.749625
14.716667	1	26.575125
14.733333	1	32.028000
14.750000	1	38.006500
14.766667	1	44.345625
14.783333	1	50.819750
14.800000	1	57.177000
14.816667	1	63.131125
14.833333	1	68.396750
14.850000	1	72.699375
14.866667	1	75.812250
14.883333	1	77.575750
14.900000	1	77.913875
14.916667	1	76.836125
14.933333	1	74.443125
14.950000	1	70.906125
14.966667	1	66.450625
14.983333	1	61.334875
15.000000	1	55.812375
15.016667	1	50.122000
15.033333	1	44.474375
15.050000	1	39.043250
15.066667	1	33.958625
15.083333	1	29.306250
15.100000	1	25.132875
15.116667	1	21.453750
15.133333	1	18.255875
15.150000	1	15.508625
15.166667	1	13.172250
15.183333	1	11.205000
15.200000	1	9.558625
15.216667	1	8.188375
15.233333	1	7.053250
15.250000	1	6.117125
15.266667	1	5.348125
15.283333	1	4.720875
15.300000	1	4.211500
15.316667	1	3.800125
15.333333	1	3.472000
15.350000	1	3.211375
15.366667	1	3.007000
15.383333	1	2.850750
15.400000	1	2.731625
15.416667	1	2.642875
15.433333	1	2.578500
15.450000	1	2.532000
15.466667	1	2.498125
15.483333	1	2.472000
15.500000	1	2.450125
15.516667	1	2.427750
15.533333	1	2.403500
15.550000	1	2.375875
15.566667	1	2.344625
15.583333	1	2.309125
15.600000	1	2.270625
15.616667	1	2.229875
15.633333	1	2.189000
15.650000	1	2.148750
15.666667	1	2.108750
15.683333	1	2.070375
15.700000	1	2.034125
15.716667	1	1.999625
15.733333	1	1.966375
15.750000	1	1.934875
15.766667	1	1.904125
15.783333	1	1.873000
15.800000	1	1.841625
15.816667	1	1.809875
15.833333	1	1.778125
15.850000	1	1.745750
15.866667	1	1.713625
15.883333	1	1.683250
15.900000	1	1.653875
15.916667	1	1.627000
15.933333	1	1.603125
15.950000	1	1.582250
15.966667	1	1.564375
15.983333	1	1.550500
16.000000	1	1.539250
16.016667	1	1.530875
16.033333	1	1.525250
16.050000	1	1.520625
16.066667	1	1.517250
16.083333	1	1.514375
16.100000	1	1.510375
16.116667	1	1.505625
16.133333	1	1.499875
16.150000	1	1.493125
16.166667	1	1.484375
16.183333	1	1.473750
16.200000	1	1.462500
16.216667	1	1.449000
16.233333	1	1.435250
16.250000	1	1.419875
16.266667	1	1.403500
16.283333	1	1.386250
16.300000	1	1.368125
16.316667	1	1.350125
16.333333	1	1.333250
16.350000	1	1.316250
16.366667	1	1.299875
16.383333	1	1.285250
16.400000	1	1.271625
16.416667	1	1.260125
16.433333	1	1.250500
16.450000	1	1.243500
16.466667	1	1.238750
16.483333	1	1.236375
16.500000	1	1.236000
16.516667	1	1.237250
16.533333	1	1.240000
16.550000	1	1.244625
16.566667	1	1.249375
16.583333	1	1.253500
16.600000	1	1.257750
16.616667	1	1.260875
16.633333	1	1.261875
16.650000	1	1.262500
16.666667	1	1.260875
16.683333	1	1.258250
16.700000	1	1.254625
16.716667	1	1.250125
16.733333	1	1.246375
16.750000	1	1.243500
16.766667	1	1.241125
16.783333	1	1.239375
16.800000	1	1.239125
16.816667	1	1.239250
16.833333	1	1.240250
16.850000	1	1.242625
16.866667	1	1.245625
16.883333	1	1.248125
16.900000	1	1.249750
16.916667	1	1.251500
16.933333	1	1.251125
16.950000	1	1.249625
16.966667	1	1.247500
16.983333	1	1.244250
17.000000	1	1.239750
17.016667	1	1.233375
17.033333	1	1.226875
17.050000	1	1.219875
17.066667	1	1.213875
17.083333	1	1.207750
17.100000	1	1.202125
17.116667	1	1.196750
17.133333	1	1.192375
17.150000	1	1.189250
17.166667	1	1.187375
17.183333	1	1.186000
17.200000	1	1.185250
17.216667	1	1.185375
17.233333	1	1.186500
17.250000	1	1.188375
17.266667	1	1.191000
17.283333	1	1.193750
17.300000	1	1.197250
17.316667	1	1.200750
17.333333	1	1.205500
17.350000	1	1.210000
17.366667	1	1.214625
17.383333	1	1.218625
17.400000	1	1.222875
17.416667	1	1.226250
17.433333	1	1.229625
17.450000	1	1.231125
17.466667	1	1.231250
17.483333	1	1.230125
17.500000	1	1.227500
17.516667	1	1.222625
17.533333	1	1.216500
17.550000	1	1.208375
17.566667	1	1.199250
17.583333	1	1.188625
17.600000	1	1.176625
17.616667	1	1.163125
17.633333	1	1.148375
17.650000	1	1.133750
17.666667	1	1.118125
17.683333	1	1.101625
17.700000	1	1.086000
17.716667	1	1.069250
17.733333	1	1.053625
17.750000	1	1.038500
17.766667	1	1.023750
17.783333	1	1.009875
17.800000	1	0.996375
17.816667	1	0.983500
17.833333	1	0.972250
17.850000	1	0.961625
17.866667	1	0.950750
17.883333	1	0.941000
17.900000	1	0.931875
17.916667	1	0.923500
17.933333	1	0.916125
17.950000	1	0.908875
17.966667	1	0.902000
17.983333	1	0.894375
18.000000	1	0.887250
18.016667	1	0.879875
18.033333	1	0.872000
18.050000	1	0.865000
18.066667	1	0.857000
18.083333	1	0.849250
18.100000	1	0.841625
18.116667	1	0.834750
18.133333	1	0.828125
18.150000	1	0.821500
18.166667	1	0.816250
18.183333	1	0.812125
18.200000	1	0.808250
18.216667	1	0.804750
18.233333	1	0.802500
18.250000	1	0.801125
18.266667	1	0.799000
18.283333	1	0.798500
18.300000	1	0.798375
18.316667	1	0.798250
18.333333	1	0.798750
18.350000	1	0.799250
18.366667	1	0.799500
18.383333	1	0.801250
18.400000	1	0.803750
18.416667	1	0.807000
18.433333	1	0.811875
18.450000	1	0.817250
18.466667	1	0.824250
18.483333	1	0.832625
18.500000	1	0.843125
18.516667	1	0.855375
18.533333	1	0.869875
18.550000	1	0.885500
18.566667	1	0.903000
18.583333	1	0.922875
18.600000	1	0.944875
18.616667	1	0.969250
18.633333	1	0.995500
18.650000	1	1.023375
18.666667	1	1.052750
18.683333	1	1.083500
18.700000	1	1.115875
18.716667	1	1.150000
18.733333	1	1.184625
18.750000	1	1.220250
18.766667	1	1.256500
18.783333	1	1.292125
18.800000	1	1.327625
18.816667	1	1.361875
18.833333	1	1.394750
18.850000	1	1.424000
18.866667	1	1.450250
18.883333	1	1.471875
18.900000	1	1.488000
18.916667	1	1.498250
18.933333	1	1.503250
18.950000	1	1.501125
18.966667	1	1.492000
18.983333	1	1.476125
19.000000	1	1.453125
19.016667	1	1.423375
19.033333	1	1.388625
19.050000	1	1.349625
19.066667	1	1.307500
19.083333	1	1.262000
19.100000	1	1.215625
19.116667	1	1.169750
19.133333	1	1.125875
19.150000	1	1.084500
19.166667	1	1.048750
19.183333	1	1.018250
19.200000	1	0.995875
19.216667	1	0.981750
19.233333	1	0.978000
19.250000	1	0.985750
19.266667	1	1.005625
19.283333	1	1.039125
19.300000	1	1.085875
19.316667	1	1.148125
19.333333	1	1.224875
19.350000	1	1.315875
19.366667	1	1.420750
19.383333	1	1.537250
19.400000	1	1.663375
19.416667	1	1.796125
19.433333	1	1.932000
19.450000	1	2.066750
19.466667	1	2.196000
19.483333	1	2.317500
19.500000	1	2.425250
19.516667	1	2.516625
19.533333	1	2.587875
19.550000	1	2.637375
19.566667	1	2.663625
19.583333	1	2.666125
19.600000	1	2.645750
19.616667	1	2.603250
19.633333	1	2.541250
19.650000	1	2.463125
19.666667	1	2.370500
19.683333	1	2.267375
19.700000	1	2.156625
19.716667	1	2.041125
19.733333	1	1.923750
19.750000	1	1.808000
19.766667	1	1.694750
19.783333	1	1.585000
19.800000	1	1.481250
19.816667	1	1.382750
19.833333	1	1.289625
19.850000	1	1.205375
19.866667	1	1.127125
19.883333	1	1.055125
19.900000	1	0.989625
19.916667	1	0.930750
19.933333	1	0.878000
19.950000	1	0.831625
19.966667	1	0.790750
19.983333	1	0.754500
20.000000	1	0.723375
20.016667	1	0.697125
20.033333	1	0.675000
20.050000	1	0.658375
20.066667	1	0.646000
20.083333	1	0.638500
20.100000	1	0.635000
20.116667	1	0.635625
20.133333	1	0.639250
20.150000	1	0.646750
20.166667	1	0.656250
20.183333	1	0.668125
20.200000	1	0.682625
20.216667	1	0.697250
20.233333	1	0.711625
20.250000	1	0.726625
20.266667	1	0.740750
20.283333	1	0.752750
20.300000	1	0.762250
20.316667	1	0.768625
20.333333	1	0.771750
20.350000	1	0.771125
20.366667	1	0.767250
20.383333	1	0.760500
20.400000	1	0.750875
20.416667	1	0.738500
20.433333	1	0.724250
20.450000	1	0.709625
20.466667	1	0.694500
20.483333	1	0.679750
20.500000	1	0.666375
20.516667	1	0.655750
20.533333	1	0.648875
20.550000	1	0.646250
20.566667	1	0.648875
20.583333	1	0.658750
20.600000	1	0.674750
20.616667	1	0.698250
20.633333	1	0.730125
20.650000	1	0.770375
20.666667	1	0.819000
20.683333	1	0.876125
20.700000	1	0.940750
20.716667	1	1.011875
20.733333	1	1.089500
20.750000	1	1.171250
20.766667	1	1.255375
20.783333	1	1.339625
20.800000	1	1.420750
20.816667	1	1.496625
20.833333	1	1.564750
20.850000	1	1.623250
20.866667	1	1.669500
20.883333	1	1.701625
20.900000	1	1.719250
20.916667	1	1.721750
20.933333	1	1.709500
20.950000	1	1.683000
20.966667	1	1.644000
20.983333	1	1.594125
21.000000	1	1.535250
21.016667	1	1.468500
21.033333	1	1.396375
21.050000	1	1.322375
21.066667	1	1.247625
21.083333	1	1.173125
21.100000	1	1.101625
21.116667	1	1.033250
21.133333	1	0.968875
21.150000	1	0.908875
21.166667	1	0.854000
21.183333	1	0.804250
21.200000	1	0.759125
21.216667	1	0.718750
21.233333	1	0.682500
21.250000	1	0.651125
21.266667	1	0.623500
21.283333	1	0.599250
21.300000	1	0.578625
21.316667	1	0.560125
21.333333	1	0.543875
21.350000	1	0.530250
21.366667	1	0.518250
21.383333	1	0.508500
21.400000	1	0.499250
21.416667	1	0.491125
21.433333	1	0.484000
21.450000	1	0.477750
21.466667	1	0.471875
21.483333	1	0.466375
21.500000	1	0.462250
21.516667	1	0.458250
21.533333	1	0.455125
21.550000	1	0.452250
21.566667	1	0.450250
21.583333	1	0.448875
21.600000	1	0.448750
21.616667	1	0.449000
21.633333	1	0.449375
21.650000	1	0.450750
21.666667	1	0.453125
21.683333	1	0.456625
21.700000	1	0.461250
21.716667	1	0.467625
21.733333	1	0.473375
21.750000	1	0.481000
21.766667	1	0.489625
21.783333	1	0.498000
21.800000	1	0.506375
21.816667	1	0.516375
21.833333	1	0.527000
21.850000	1	0.537250
21.866667	1	0.547375
21.883333	1	0.558250
21.900000	1	0.568625
21.916667	1	0.578500
21.933333	1	0.588500
21.950000	1	0.597500
21.966667	1	0.605750
21.983333	1	0.613875
22.000000	1	0.621000
22.016667	1	0.627250
22.033333	1	0.631875
22.050000	1	0.637250
22.066667	1	0.640625
22.083333	1	0.643625
22.100000	1	0.645750
22.116667	1	0.647000
22.133333	1	0.647375
22.150000	1	0.646875
22.166667	1	0.645500
22.183333	1	0.642750
22.200000	1	0.639500
22.216667	1	0.634625
22.233333	1	0.629125
22.250000	1	0.622000
22.266667	1	0.614125
22.283333	1	0.604750
22.300000	1	0.594750
22.316667	1	0.583250
22.333333	1	0.571875
22.350000	1	0.560500
22.366667	1	0.547750
22.383333	1	0.535250
22.400000	1	0.522625
22.416667	1	0.510375
22.433333	1	0.498125
22.450000	1	0.486125
22.466667	1	0.474500
22.483333	1	0.463125
22.500000	1	0.453125
22.516667	1	0.443625
22.533333	1	0.434375
22.550000	1	0.425250
22.566667	1	0.417125
22.583333	1	0.408625
22.600000	1	0.400250
22.616667	1	0.393000
22.633333	1	0.385750
22.650000	1	0.378625
22.666667	1	0.371500
22.683333	1	0.365125
22.700000	1	0.359250
22.716667	1	0.352750
22.733333	1	0.346625
22.750000	1	0.340875
22.766667	1	0.335250
22.783333	1	0.330250
22.800000	1	0.324125
22.816667	1	0.318625
22.833333	1	0.313000
22.850000	1	0.308125
22.866667	1	0.304250
22.883333	1	0.301125
22.900000	1	0.297500
22.916667	1	0.294250
22.933333	1	0.291500
22.950000	1	0.288375
22.966667	1	0.286500
22.983333	1	0.284625
23.000000	1	0.283625
23.016667	1	0.283500
23.033333	1	0.283625
23.050000	1	0.284250
23.066667	1	0.285750
23.083333	1	0.287250
23.100000	1	0.289500
23.116667	1	0.291750
23.133333	1	0.294625
23.150000	1	0.297625
23.166667	1	0.300750
23.183333	1	0.304125
23.200000	1	0.307625
23.216667	1	0.310875
23.233333	1	0.315625
23.250000	1	0.320375
23.266667	1	0.325625
23.283333	1	0.332750
23.300000	1	0.341000
23.316667	1	0.351375
23.333333	1	0.363875
23.350000	1	0.379500
23.366667	1	0.399375
23.383333	1	0.422750
23.400000	1	0.452250
23.416667	1	0.489125
23.433333	1	0.534500
23.450000	1	0.590500
23.466667	1	0.657875
23.483333	1	0.738500
23.500000	1	0.833750
23.516667	1	0.946000
23.533333	1	1.077375
23.550000	1	1.229375
23.566667	1	1.401625
23.583333	1	1.596375
23.600000	1	1.812625
23.616667	1	2.050375
23.633333	1	2.307125
23.650000	1	2.580500
23.666667	1	2.868375
23.683333	1	3.166750
23.700000	1	3.471125
23.716667	1	3.774750
23.733333	1	4.073000
23.750000	1	4.358500
23.766667	1	4.625250
23.783333	1	4.866750
23.800000	1	5.077750
23.816667	1	5.251500
23.833333	1	5.384750
23.850000	1	5.474375
23.866667	1	5.520000
23.883333	1	5.520750
23.900000	1	5.477625
23.916667	1	5.392500
23.933333	1	5.267250
23.950000	1	5.107250
23.966667	1	4.917000
23.983333	1	4.702875
24.000000	1	4.468875
24.016667	1	4.219750
24.033333	1	3.962250
24.050000	1	3.701375
24.066667	1	3.441375
24.083333	1	3.186125
24.100000	1	2.937250
24.116667	1	2.698250
24.133333	1	2.471125
24.150000	1	2.257625
24.166667	1	2.057500
24.183333	1	1.872375
24.200000	1	1.702000
24.216667	1	1.545875
24.233333	1	1.404500
24.250000	1	1.275750
24.266667	1	1.161125
24.283333	1	1.058625
24.300000	1	0.966625
24.316667	1	0.884750
24.333333	1	0.812375
24.350000	1	0.749375
24.366667	1	0.694000
24.383333	1	0.645625
24.400000	1	0.604875
24.416667	1	0.569750
24.433333	1	0.540500
24.450000	1	0.515625
24.466667	1	0.495875
24.483333	1	0.478250
24.500000	1	0.463875
24.516667	1	0.451875
24.533333	1	0.442875
24.550000	1	0.435500
24.566667	1	0.429375
24.583333	1	0.423500
24.600000	1	0.418625
24.616667	1	0.414500
24.633333	1	0.410500
24.650000	1	0.406500
24.666667	1	0.402000
24.683333	1	0.398000
24.700000	1	0.393375
24.716667	1	0.388500
24.733333	1	0.383750
24.750000	1	0.378875
24.766667	1	0.373875
24.783333	1	0.368500
24.800000	1	0.361750
24.816667	1	0.355250
24.833333	1	0.349750
24.850000	1	0.344875
24.866667	1	0.339875
24.883333	1	0.335125
24.900000	1	0.330000
24.916667	1	0.325375
24.933333	1	0.320875
24.950000	1	0.316250
24.966667	1	0.312250
24.983333	1	0.308625
25.000000	1	0.305875
25.016667	1	0.301500
25.033333	1	0.298875
25.050000	1	0.296625
25.066667	1	0.294000
25.083333	1	0.292000
25.100000	1	0.290125
25.116667	1	0.287875
25.133333	1	0.286000
25.150000	1	0.284625
25.166667	1	0.282875
25.183333	1	0.281250
25.200000	1	0.280000
25.216667	1	0.278625
25.233333	1	0.277250
25.250000	1	0.275500
25.266667	1	0.273875
25.283333	1	0.272375
25.300000	1	0.271375
25.316667	1	0.271375
25.333333	1	0.271000
25.350000	1	0.270625
25.366667	1	0.269750
25.383333	1	0.269250
25.400000	1	0.268625
25.416667	1	0.268750
25.433333	1	0.268625
25.450000	1	0.268875
25.466667	1	0.268500
25.483333	1	0.269750
25.500000	1	0.270125
25.516667	1	0.270750
25.533333	1	0.272375
25.550000	1	0.273625
25.566667	1	0.274500
25.583333	1	0.275250
25.600000	1	0.275875
25.616667	1	0.276125
25.633333	1	0.276375
25.650000	1	0.276875
25.666667	1	0.277500
25.683333	1	0.278000
25.700000	1	0.277875
25.716667	1	0.277875
25.733333	1	0.277375
25.750000	1	0.277875
25.766667	1	0.277250
25.783333	1	0.276250
25.800000	1	0.275750
25.816667	1	0.275625
25.833333	1	0.275625
25.850000	1	0.275250
25.866667	1	0.275125
25.883333	1	0.275125
25.900000	1	0.275375
25.916667	1	0.276375
25.933333	1	0.277750
25.950000	1	0.278875
25.966667	1	0.281500
25.983333	1	0.283250
26.000000	1	0.285750
26.016667	1	0.289250
26.033333	1	0.293250
26.050000	1	0.296750
26.066667	1	0.301125
26.083333	1	0.305250
26.100000	1	0.309375
26.116667	1	0.314250
26.133333	1	0.318875
26.150000	1	0.323000
26.166667	1	0.326375
26.183333	1	0.330625
26.200000	1	0.334125
26.216667	1	0.337750
26.233333	1	0.340625
26.250000	1	0.343875
26.266667	1	0.345625
26.283333	1	0.347250
26.300000	1	0.348500
26.316667	1	0.347750
26.333333	1	0.347125
26.350000	1	0.345625
26.366667	1	0.343000
26.383333	1	0.340250
26.400000	1	0.335875
26.416667	1	0.331500
26.433333	1	0.326375
26.450000	1	0.320500
26.466667	1	0.314375
26.483333	1	0.307750
26.500000	1	0.300375
26.516667	1	0.292625
26.533333	1	0.284875
26.550000	1	0.276750
26.566667	1	0.269375
26.583333	1	0.260625
26.600000	1	0.252125
26.616667	1	0.244125
26.633333	1	0.236625
26.650000	1	0.228875
26.666667	1	0.221500
26.683333	1	0.214125
26.700000	1	0.207625
26.716667	1	0.201250
26.733333	1	0.194500
26.750000	1	0.189000
26.766667	1	0.182875
26.783333	1	0.177625
26.800000	1	0.173750
26.816667	1	0.169750
26.833333	1	0.165125
26.850000	1	0.161500
26.866667	1	0.159250
26.883333	1	0.156625
26.900000	1	0.154500
26.916667	1	0.153250
26.933333	1	0.152750
26.950000	1	0.152125
26.966667	1	0.153125
26.983333	1	0.153750
27.000000	1	0.154750
27.016667	1	0.156625
27.033333	1	0.159125
27.050000	1	0.162250
27.066667	1	0.165875
27.083333	1	0.170500
27.100000	1	0.175000
27.116667	1	0.181250
27.133333	1	0.189000
27.150000	1	0.197125
27.166667	1	0.207375
27.183333	1	0.219000
27.200000	1	0.231625
27.216667	1	0.247000
27.233333	1	0.265750
27.250000	1	0.286375
27.266667	1	0.310875
27.283333	1	0.338500
27.300000	1	0.370750
27.316667	1	0.408000
27.333333	1	0.450625
27.350000	1	0.500000
27.366667	1	0.556375
27.383333	1	0.620500
27.400000	1	0.693375
27.416667	1	0.774750
27.433333	1	0.867000
27.450000	1	0.970375
27.466667	1	1.084875
27.483333	1	1.210625
27.500000	1	1.349375
27.516667	1	1.500250
27.533333	1	1.663000
27.550000	1	1.838000
27.566667	1	2.022875
27.583333	1	2.216125
27.600000	1	2.417250
27.616667	1	2.624500
27.633333	1	2.835375
27.650000	1	3.048375
27.666667	1	3.260125
27.683333	1	3.467500
27.700000	1	3.667375
27.716667	1	3.855875
27.733333	1	4.030375
27.750000	1	4.187125
27.766667	1	4.324000
27.783333	1	4.438375
27.800000	1	4.527375
27.816667	1	4.589750
27.833333	1	4.623875
27.850000	1	4.629625
27.866667	1	4.606500
27.883333	1	4.555500
27.900000	1	4.476000
27.916667	1	4.371125
27.933333	1	4.242500
27.950000	1	4.093000
27.966667	1	3.925625
27.983333	1	3.744250
28.000000	1	3.551375
28.016667	1	3.349875
28.033333	1	3.144375
28.050000	1	2.936250
28.066667	1	2.728750
28.083333	1	2.524875
28.100000	1	2.325875
28.116667	1	2.134500
28.133333	1	1.952000
28.150000	1	1.779375
28.166667	1	1.617875
28.183333	1	1.467125
28.200000	1	1.327875
28.216667	1	1.200250
28.233333	1	1.083500
28.250000	1	0.977875
28.266667	1	0.882250
28.283333	1	0.796625
28.300000	1	0.721000
28.316667	1	0.653750
28.333333	1	0.594500
28.350000	1	0.543000
28.366667	1	0.499250
28.383333	1	0.462125
28.400000	1	0.430500
28.416667	1	0.404125
28.433333	1	0.382375
28.450000	1	0.365375
28.466667	1	0.352375
28.483333	1	0.344250
28.500000	1	0.338125
28.516667	1	0.335000
28.533333	1	0.335000
28.550000	1	0.337250
28.566667	1	0.341250
28.583333	1	0.347500
28.600000	1	0.354750
28.616667	1	0.363625
28.633333	1	0.373375
28.650000	1	0.383500
28.666667	1	0.394625
28.683333	1	0.405875
28.700000	1	0.416750
28.716667	1	0.427875
28.733333	1	0.438750
28.750000	1	0.449000
28.766667	1	0.458500
28.783333	1	0.467375
28.800000	1	0.475500
28.816667	1	0.483500
28.833333	1	0.490250
28.850000	1	0.495500
28.866667	1	0.499375
28.883333	1	0.502500
28.900000	1	0.503625
28.916667	1	0.503500
28.933333	1	0.503375
28.950000	1	0.501125
28.966667	1	0.498125
28.983333	1	0.494625
29.000000	1	0.489875
29.016667	1	0.483625
29.033333	1	0.476750
29.050000	1	0.468375
29.066667	1	0.459500
29.083333	1	0.450500
29.100000	1	0.440000
29.116667	1	0.429000
29.133333	1	0.417000
29.150000	1	0.404875
29.166667	1	0.392875
29.183333	1	0.379625
29.200000	1	0.366625
29.216667	1	0.353500
29.233333	1	0.340875
29.250000	1	0.327500
29.266667	1	0.313750
29.283333	1	0.301000
29.300000	1	0.288750
29.316667	1	0.276125
29.333333	1	0.264625
29.350000	1	0.252125
29.366667	1	0.241250
29.383333	1	0.230750
29.400000	1	0.220250
29.416667	1	0.210250
29.433333	1	0.200625
29.450000	1	0.191875
29.466667	1	0.183500
29.483333	1	0.176000
29.500000	1	0.168375
29.516667	1	0.161500
29.533333	1	0.154250
29.550000	1	0.148250
29.566667	1	0.143000
29.583333	1	0.138500
29.600000	1	0.134625
29.616667	1	0.130250
29.633333	1	0.126625
29.650000	1	0.122500
29.666667	1	0.119250
29.683333	1	0.116250
29.700000	1	0.113750
29.716667	1	0.111750
29.733333	1	0.109375
29.750000	1	0.106500
29.766667	1	0.104875
29.783333	1	0.104125
29.800000	1	0.103000
29.816667	1	0.102125
29.833333	1	0.101375
29.850000	1	0.100625
29.866667	1	0.099500
29.883333	1	0.098500
29.900000	1	0.097375
29.916667	1	0.096625
29.933333	1	0.095500
29.950000	1	0.094875
29.966667	1	0.095000
29.983333	1	0.094375
30.000000	1	0.093375
30.016667	1	0.092500
30.033333	1	0.092000
30.050000	1	0.091750
30.066667	1	0.091750
30.083333	1	0.091125
30.100000	1	0.090750
30.116667	1	0.090750
30.133333	1	0.090125
30.150000	1	0.090125
30.166667	1	0.090250
30.183333	1	0.090625
30.200000	1	0.090625
30.216667	1	0.090750
30.233333	1	0.090875
30.250000	1	0.090875
30.266667	1	0.090625
30.283333	1	0.091250
30.300000	1	0.091625
30.316667	1	0.091875
30.333333	1	0.092875
30.350000	1	0.093125
30.366667	1	0.093625
30.383333	1	0.094875
30.400000	1	0.095750
30.416667	1	0.096625
30.433333	1	0.098625
30.450000	1	0.100500
30.466667	1	0.103125
30.483333	1	0.105750
30.500000	1	0.108250
30.516667	1	0.111250
30.533333	1	0.114750
30.550000	1	0.118375
30.566667	1	0.122125
30.583333	1	0.127000
30.600000	1	0.131875
30.616667	1	0.137125
30.633333	1	0.143500
30.650000	1	0.149875
30.666667	1	0.156625
30.683333	1	0.164125
30.700000	1	0.172250
30.716667	1	0.180500
30.733333	1	0.190000
30.750000	1	0.199875
30.766667	1	0.210875
30.783333	1	0.222125
30.800000	1	0.234250
30.816667	1	0.247875
30.833333	1	0.262250
30.850000	1	0.277875
30.866667	1	0.295125
30.883333	1	0.314125
30.900000	1	0.335750
30.916667	1	0.358000
30.933333	1	0.383750
30.950000	1	0.412500
30.966667	1	0.444875
30.983333	1	0.481875
31.000000	1	0.523375
31.016667	1	0.570875
31.033333	1	0.625375
31.050000	1	0.686000
31.066667	1	0.754000
31.083333	1	0.830875
31.100000	1	0.916375
31.116667	1	1.012375
31.133333	1	1.118375
31.150000	1	1.235250
31.166667	1	1.363875
31.183333	1	1.504750
31.200000	1	1.658125
31.216667	1	1.824000
31.233333	1	2.001250
31.250000	1	2.190500
31.266667	1	2.389125
31.283333	1	2.597000
31.300000	1	2.813125
31.316667	1	3.035375
31.333333	1	3.262000
31.350000	1	3.490000
31.366667	1	3.718375
31.383333	1	3.944250
31.400000	1	4.165125
31.416667	1	4.376875
31.433333	1	4.578875
31.450000	1	4.766250
31.466667	1	4.937875
31.483333	1	5.089500
31.500000	1	5.221250
31.516667	1	5.329875
31.533333	1	5.414125
31.550000	1	5.473250
31.566667	1	5.507500
31.583333	1	5.515000
31.600000	1	5.496500
31.616667	1	5.453000
31.633333	1	5.385500
31.650000	1	5.294125
31.666667	1	5.181500
31.683333	1	5.049625
31.700000	1	4.900125
31.716667	1	4.735500
31.733333	1	4.558375
31.750000	1	4.372000
31.766667	1	4.176125
31.783333	1	3.974250
31.800000	1	3.768625
31.816667	1	3.561625
31.833333	1	3.354375
31.850000	1	3.149125
31.866667	1	2.947375
31.883333	1	2.751750
31.900000	1	2.562125
31.916667	1	2.379625
31.933333	1	2.204375
31.950000	1	2.037500
31.966667	1	1.878625
31.983333	1	1.729250
32.000000	1	1.588250
32.016667	1	1.455000
32.033333	1	1.332000
32.050000	1	1.216625
32.066667	1	1.110500
32.083333	1	1.011750
32.100000	1	0.920625
32.116667	1	0.837000
32.133333	1	0.760250
32.150000	1	0.689250
32.166667	1	0.623625
32.183333	1	0.564500
32.200000	1	0.510750
32.216667	1	0.461625
32.233333	1	0.416000
32.250000	1	0.374750
32.266667	1	0.336625
32.283333	1	0.302000
32.300000	1	0.271000
32.316667	1	0.242875
32.333333	1	0.217250
32.350000	1	0.194375
32.366667	1	0.173500
32.383333	1	0.154750
32.400000	1	0.137625
32.416667	1	0.122375
32.433333	1	0.108750
32.450000	1	0.096500
32.466667	1	0.085375
32.483333	1	0.075250
32.500000	1	0.066875
32.516667	1	0.058875
32.533333	1	0.051875
32.550000	1	0.045750
32.566667	1	0.040250
32.583333	1	0.035000
32.600000	1	0.030500
32.616667	1	0.026250
32.633333	1	0.022625
32.650000	1	0.019500
32.666667	1	0.016125
32.683333	1	0.012875
32.700000	1	0.009750
32.716667	1	0.007625
32.733333	1	0.006250
32.750000	1	0.004375
32.766667	1	0.001750
32.783333	1	-0.000500
32.800000	1	-0.002750
32.816667	1	-0.004250
32.833333	1	-0.005625
32.850000	1	-0.007125
32.866667	1	-0.009000
32.883333	1	-0.010875
32.900000	1	-0.012875
32.916667	1	-0.014875
32.933333	1	-0.016625
32.950000	1	-0.018375
32.966667	1	-0.020250
32.983333	1	-0.022750
33.000000	1	-0.023625
33.016667	1	-0.024750
33.033333	1	-0.025750
33.050000	1	-0.027875
33.066667	1	-0.029000
33.083333	1	-0.029125
33.100000	1	-0.029375
33.116667	1	-0.029375
33.133333	1	-0.029750
33.150000	1	-0.029875
33.166667	1	-0.029500
33.183333	1	-0.028750
33.200000	1	-0.028500
33.216667	1	-0.028000
33.233333	1	-0.027000
33.250000	1	-0.026125
33.266667	1	-0.025000
33.283333	1	-0.024250
33.300000	1	-0.023125
33.316667	1	-0.021875
33.333333	1	-0.020125
33.350000	1	-0.018625
33.366667	1	-0.017250
33.383333	1	-0.015625
33.400000	1	-0.012875
33.416667	1	-0.010875
33.433333	1	-0.009625
33.450000	1	-0.007625
33.466667	1	-0.005500
33.483333	1	-0.003500
33.500000	1	-0.001375
33.516667	1	0.000625
33.533333	1	0.002875
33.550000	1	0.005500
33.566667	1	0.007500
33.583333	1	0.009875
33.600000	1	0.012500
33.616667	1	0.014500
33.633333	1	0.016625
33.650000	1	0.019000
33.666667	1	0.021625
33.683333	1	0.024000
33.700000	1	0.026250
33.716667	1	0.029375
33.733333	1	0.031500
33.750000	1	0.034000
33.766667	1	0.036500
33.783333	1	0.039375
33.800000	1	0.041500
33.816667	1	0.043125
33.833333	1	0.044750
33.850000	1	0.047500
33.866667	1	0.049625
33.883333	1	0.051375
33.900000	1	0.053750
33.916667	1	0.055250
33.933333	1	0.056750
33.950000	1	0.058875
33.966667	1	0.060250
33.983333	1	0.062125
34.000000	1	0.063375
34.016667	1	0.064250
34.033333	1	0.065250
34.050000	1	0.066375
34.066667	1	0.067875
34.083333	1	0.068375
34.100000	1	0.068750
34.116667	1	0.069250
34.133333	1	0.070000
34.150000	1	0.070125
34.166667	1	0.070875
34.183333	1	0.071750
34.200000	1	0.072375
34.216667	1	0.073375
34.233333	1	0.074250
34.250000	1	0.075125
34.266667	1	0.075875
34.283333	1	0.076875
34.300000	1	0.077250
34.316667	1	0.078500
34.333333	1	0.080625
34.350000	1	0.082000
34.366667	1	0.083875
34.383333	1	0.085500
34.400000	1	0.086625
34.416667	1	0.088375
34.433333	1	0.090500
34.450000	1	0.092875
34.466667	1	0.094375
34.483333	1	0.095750
34.500000	1	0.097500
34.516667	1	0.099500
34.533333	1	0.101500
34.550000	1	0.103625
34.566667	1	0.104875
34.583333	1	0.106250
34.600000	1	0.107625
34.616667	1	0.109000
34.633333	1	0.109375
34.650000	1	0.110250
34.666667	1	0.111000
34.683333	1	0.112125
34.700000	1	0.112250
34.716667	1	0.112500
34.733333	1	0.112625
34.750000	1	0.112375
34.766667	1	0.112000
34.783333	1	0.110500
34.800000	1	0.110375
34.816667	1	0.109625
34.833333	1	0.107750
34.850000	1	0.106125
34.866667	1	0.104500
34.883333	1	0.102875
34.900000	1	0.101250
34.916667	1	0.099625
34.933333	1	0.097750
34.950000	1	0.095875
34.966667	1	0.093625
34.983333	1	0.091750
35.000000	1	0.089625
35.016667	1	0.088000
35.033333	1	0.086000
35.050000	1	0.083750
35.066667	1	0.081625
35.083333	1	0.079000
35.100000	1	0.076750
35.116667	1	0.074750
35.133333	1	0.073375
35.150000	1	0.070625
35.166667	1	0.068375
35.183333	1	0.067250
35.200000	1	0.065875
35.216667	1	0.063875
35.233333	1	0.062625
35.250000	1	0.062500
35.266667	1	0.062125
35.283333	1	0.060625
35.300000	1	0.059625
35.316667	1	0.059375
35.333333	1	0.059250
35.350000	1	0.059375
35.366667	1	0.059500
35.383333	1	0.059375
35.400000	1	0.059250
35.416667	1	0.059625
35.433333	1	0.059750
35.450000	1	0.059750
35.466667	1	0.060375
35.483333	1	0.061000
35.500000	1	0.061500
35.516667	1	0.062625
35.533333	1	0.063250
35.550000	1	0.064625
35.566667	1	0.065375
35.583333	1	0.065750
35.600000	1	0.066875
35.616667	1	0.068375
35.633333	1	0.069625
35.650000	1	0.070625
35.666667	1	0.071000
35.683333	1	0.071750
35.700000	1	0.073375
35.716667	1	0.074625
35.733333	1	0.075750
35.750000	1	0.077000
35.766667	1	0.078125
35.783333	1	0.079000
35.800000	1	0.078750
35.816667	1	0.079375
35.833333	1	0.080375
35.850000	1	0.081000
35.866667	1	0.081625
35.883333	1	0.082625
35.900000	1	0.083750
35.916667	1	0.085000
35.933333	1	0.085000
35.950000	1	0.085500
35.966667	1	0.085750
35.983333	1	0.085500
36.000000	1	0.086000
36.016667	1	0.086000
36.033333	1	0.085250
36.050000	1	0.085875
36.066667	1	0.085625
36.083333	1	0.085750
36.100000	1	0.085375
36.116667	1	0.084750
36.133333	1	0.084875
36.150000	1	0.084625
36.166667	1	0.084625
36.183333	1	0.085125
36.200000	1	0.084625
36.216667	1	0.084375
36.233333	1	0.083750
36.250000	1	0.082500
36.266667	1	0.081625
36.283333	1	0.081750
36.300000	1	0.081750
36.316667	1	0.081625
36.333333	1	0.082000
36.350000	1	0.082375
36.366667	1	0.081125
36.383333	1	0.080500
36.400000	1	0.080625
36.416667	1	0.080375
36.433333	1	0.079250
36.450000	1	0.078875
36.466667	1	0.078250
36.483333	1	0.078375
36.500000	1	0.078625
36.516667	1	0.078000
36.533333	1	0.077000
36.550000	1	0.076125
36.566667	1	0.075250
36.583333	1	0.074250
36.600000	1	0.073125
36.616667	1	0.071500
36.633333	1	0.069750
36.650000	1	0.068250
36.666667	1	0.067125
36.683333	1	0.065125
36.700000	1	0.062875
36.716667	1	0.062250
36.733333	1	0.060375
36.750000	1	0.057750
36.766667	1	0.055125
36.783333	1	0.052875
36.800000	1	0.050625
36.816667	1	0.048250
36.833333	1	0.045500
36.850000	1	0.042625
36.866667	1	0.040125
36.883333	1	0.037500
36.900000	1	0.035375
36.916667	1	0.032250
36.933333	1	0.029875
36.950000	1	0.026875
36.966667	1	0.024375
36.983333	1	0.021500
37.000000	1	0.018250
37.016667	1	0.016625
37.033333	1	0.015000
37.050000	1	0.012375
37.066667	1	0.010625
37.083333	1	0.009125
37.100000	1	0.008000
37.116667	1	0.006750
37.133333	1	0.006000
37.150000	1	0.005000
37.166667	1	0.003625
37.183333	1	0.003250
37.200000	1	0.002250
37.216667	1	0.001500
37.233333	1	0.001125
37.250000	1	-0.000125
37.266667	1	0.000000
37.283333	1	-0.000625
37.300000	1	-0.001000
37.316667	1	-0.000875
37.333333	1	-0.000750
37.350000	1	-0.000375
37.366667	1	-0.000750
37.383333	1	-0.000125
37.400000	1	-0.000625
37.416667	1	-0.000875
37.433333	1	-0.000750
37.450000	1	-0.000625
37.466667	1	-0.000750
37.483333	1	-0.001375
37.500000	1	-0.001250
37.516667	1	-0.001375
37.533333	1	-0.002000
37.550000	1	-0.002375
37.566667	1	-0.002500
37.583333	1	-0.002875
37.600000	1	-0.003375
37.616667	1	-0.004000
37.633333	1	-0.003875
37.650000	1	-0.004250
37.666667	1	-0.004875
37.683333	1	-0.004750
37.700000	1	-0.004875
37.716667	1	-0.006125
37.733333	1	-0.006625
37.750000	1	-0.006500
37.766667	1	-0.006250
37.783333	1	-0.006000
37.800000	1	-0.006625
37.816667	1	-0.006625
37.833333	1	-0.006875
37.850000	1	-0.006875
37.866667	1	-0.007250
37.883333	1	-0.007250
37.900000	1	-0.006750
37.916667	1	-0.007125
37.933333	1	-0.006500
37.950000	1	-0.005875
37.966667	1	-0.006250
37.983333	1	-0.006500
38.000000	1	-0.006375
38.016667	1	-0.005625
38.033333	1	-0.004750
38.050000	1	-0.003625
38.066667	1	-0.002625
38.083333	1	-0.002375
38.100000	1	-0.002375
38.116667	1	-0.001625
38.133333	1	-0.000875
38.150000	1	0.000000
38.166667	1	0.000000
38.183333	1	0.000750
38.200000	1	0.001125
38.216667	1	0.001250
38.233333	1	0.001500
38.250000	1	0.001625
38.266667	1	0.002750
38.283333	1	0.003000
38.300000	1	0.003250
38.316667	1	0.002875
38.333333	1	0.003125
38.350000	1	0.003375
38.366667	1	0.003125
38.383333	1	0.002750
38.400000	1	0.002500
38.416667	1	0.002250
38.433333	1	0.001875
38.450000	1	0.001375
38.466667	1	0.000625
38.483333	1	0.000375
38.500000	1	0.000000
38.516667	1	-0.000375
38.533333	1	-0.000875
38.550000	1	-0.002750
38.566667	1	-0.003000
38.583333	1	-0.004250
38.600000	1	-0.005125
38.616667	1	-0.006000
38.633333	1	-0.006500
38.650000	1	-0.007375
38.666667	1	-0.007875
38.683333	1	-0.009000
38.700000	1	-0.010125
38.716667	1	-0.010375
38.733333	1	-0.012000
38.750000	1	-0.012250
38.766667	1	-0.012500
38.783333	1	-0.012625
38.800000	1	-0.013000
38.816667	1	-0.013750
38.833333	1	-0.013625
38.850000	1	-0.013125
38.866667	1	-0.013125
38.883333	1	-0.013375
38.900000	1	-0.013500
38.916667	1	-0.012500
38.933333	1	-0.012625
38.950000	1	-0.012875
38.966667	1	-0.012375
38.983333	1	-0.011625
39.000000	1	-0.011500
39.016667	1	-0.011375
39.033333	1	-0.011625
39.050000	1	-0.011250
39.066667	1	-0.010500
39.083333	1	-0.010250
39.100000	1	-0.010125
39.116667	1	-0.010875
39.133333	1	-0.011000
39.150000	1	-0.011000
39.166667	1	-0.011500
39.183333	1	-0.012125
39.200000	1	-0.012125
39.216667	1	-0.012750
39.233333	1	-0.013000
39.250000	1	-0.013875
39.266667	1	-0.015000
39.283333	1	-0.016375
39.300000	1	-0.018000
39.316667	1	-0.019375
39.333333	1	-0.020750
39.350000	1	-0.022250
39.366667	1	-0.023750
39.383333	1	-0.025625
39.400000	1	-0.027000
39.416667	1	-0.028125
39.433333	1	-0.029625
39.450000	1	-0.030750
39.466667	1	-0.032625
39.483333	1	-0.034000
39.500000	1	-0.035250
39.516667	1	-0.036625
39.533333	1	-0.038000
39.550000	1	-0.039875
39.566667	1	-0.041375
39.583333	1	-0.042000
39.600000	1	-0.043250
39.616667	1	-0.044500
39.633333	1	-0.045250
39.650000	1	-0.045750
39.666667	1	-0.045750
39.683333	1	-0.046250
39.700000	1	-0.046750
39.716667	1	-0.046875
39.733333	1	-0.047000
39.750000	1	-0.047000
39.766667	1	-0.046750
39.783333	1	-0.047250
39.800000	1	-0.047625
39.816667	1	-0.048000
39.833333	1	-0.048250
39.850000	1	-0.048750
39.866667	1	-0.048125
39.883333	1	-0.048000
39.900000	1	-0.047625
39.916667	1	-0.047750
39.933333	1	-0.048375
39.950000	1	-0.049000
39.966667	1	-0.049625
39.983333	1	-0.049750
40.000000	1	-0.050000
