URL	chrom://bioreactor/micro_cm7/HPLC_Ultimate_3000/Users/markusar/20240716_MA_pHrange2.seq/205.smp/RI_1.channel/RI_1.chm
Channel	RI_1

Injection Information:
Data Vault	micro_cm7
Sequence	20240716_MA_pHrange2
Name	Pv2_40H_1
Number	18
Position	BB6
Comment	
Processing Method	
Instrument Method	run_25B_method
Type	Unknown
Status	Finished
Inject Time	17.07.2024 05:42:58 +02:00
Volume (µl)	20.0000
Dilution Factor	1.0000
Weight	1.0000

Chromatogram Data Information:
Time Min. (min)	0.000000
Time Max. (min)	40.000000
Data Points	2401
Detector	RI
Generating Data System	Chromeleon 7.3.2.11814
Exporting Data System	Chromeleon 7.3.2.0
Operator	Instrument Controller
Signal Quantity	Refractive 
Signal Unit	µRIU
Signal Min.	-0.254375
Signal Max.	105.039125
Channel	RI_1
Driver Name	RID520Driver.dll
Channel Type	Evaluation
Min. Step (s)	1
Max. Step (s)	1
Average Step (s)	1

Signal Parameter Information:
Signal Info	

Chromatogram Data:
Time (min)	Step (s)	Value (µRIU)
0.000000	n.a.	-0.031500
0.016667	1	-0.031875
0.033333	1	-0.030375
0.050000	1	-0.029500
0.066667	1	-0.028750
0.083333	1	-0.027875
0.100000	1	-0.026375
0.116667	1	-0.025250
0.133333	1	-0.023375
0.150000	1	-0.022125
0.166667	1	-0.020250
0.183333	1	-0.018250
0.200000	1	-0.016500
0.216667	1	-0.015875
0.233333	1	-0.014250
0.250000	1	-0.012500
0.266667	1	-0.011375
0.283333	1	-0.010625
0.300000	1	-0.010000
0.316667	1	-0.008875
0.333333	1	-0.008375
0.350000	1	-0.008375
0.366667	1	-0.009000
0.383333	1	-0.010125
0.400000	1	-0.011125
0.416667	1	-0.011750
0.433333	1	-0.011625
0.450000	1	-0.011500
0.466667	1	-0.011375
0.483333	1	-0.011250
0.500000	1	-0.012625
0.516667	1	-0.014000
0.533333	1	-0.016750
0.550000	1	-0.019875
0.566667	1	-0.023625
0.583333	1	-0.026875
0.600000	1	-0.030875
0.616667	1	-0.034625
0.633333	1	-0.038125
0.650000	1	-0.040875
0.666667	1	-0.043625
0.683333	1	-0.046250
0.700000	1	-0.048375
0.716667	1	-0.050625
0.733333	1	-0.052750
0.750000	1	-0.055375
0.766667	1	-0.057500
0.783333	1	-0.060000
0.800000	1	-0.062250
0.816667	1	-0.063875
0.833333	1	-0.065125
0.850000	1	-0.066875
0.866667	1	-0.068625
0.883333	1	-0.069875
0.900000	1	-0.070750
0.916667	1	-0.072125
0.933333	1	-0.073125
0.950000	1	-0.074125
0.966667	1	-0.074875
0.983333	1	-0.075000
1.000000	1	-0.076125
1.016667	1	-0.076750
1.033333	1	-0.076875
1.050000	1	-0.076250
1.066667	1	-0.076500
1.083333	1	-0.076875
1.100000	1	-0.076375
1.116667	1	-0.076000
1.133333	1	-0.075875
1.150000	1	-0.076000
1.166667	1	-0.076000
1.183333	1	-0.075500
1.200000	1	-0.075250
1.216667	1	-0.074750
1.233333	1	-0.073750
1.250000	1	-0.073375
1.266667	1	-0.072250
1.283333	1	-0.072000
1.300000	1	-0.071625
1.316667	1	-0.071250
1.333333	1	-0.070750
1.350000	1	-0.071000
1.366667	1	-0.069500
1.383333	1	-0.069250
1.400000	1	-0.068750
1.416667	1	-0.067875
1.433333	1	-0.067250
1.450000	1	-0.066875
1.466667	1	-0.066500
1.483333	1	-0.065875
1.500000	1	-0.065000
1.516667	1	-0.064125
1.533333	1	-0.063375
1.550000	1	-0.062500
1.566667	1	-0.061750
1.583333	1	-0.061375
1.600000	1	-0.060250
1.616667	1	-0.059375
1.633333	1	-0.058375
1.650000	1	-0.056750
1.666667	1	-0.055500
1.683333	1	-0.054250
1.700000	1	-0.053250
1.716667	1	-0.052750
1.733333	1	-0.051375
1.750000	1	-0.050000
1.766667	1	-0.048750
1.783333	1	-0.047250
1.800000	1	-0.046000
1.816667	1	-0.044375
1.833333	1	-0.043375
1.850000	1	-0.041500
1.866667	1	-0.039625
1.883333	1	-0.038375
1.900000	1	-0.037125
1.916667	1	-0.036125
1.933333	1	-0.035250
1.950000	1	-0.034250
1.966667	1	-0.032625
1.983333	1	-0.031625
2.000000	1	-0.030500
2.016667	1	-0.029250
2.033333	1	-0.028250
2.050000	1	-0.026500
2.066667	1	-0.025750
2.083333	1	-0.024625
2.100000	1	-0.023750
2.116667	1	-0.022625
2.133333	1	-0.021750
2.150000	1	-0.021000
2.166667	1	-0.019875
2.183333	1	-0.018875
2.200000	1	-0.017125
2.216667	1	-0.015625
2.233333	1	-0.014625
2.250000	1	-0.013500
2.266667	1	-0.012125
2.283333	1	-0.011375
2.300000	1	-0.010125
2.316667	1	-0.008750
2.333333	1	-0.006625
2.350000	1	-0.005500
2.366667	1	-0.004625
2.383333	1	-0.004125
2.400000	1	-0.003375
2.416667	1	-0.002625
2.433333	1	-0.002750
2.450000	1	-0.002000
2.466667	1	-0.001500
2.483333	1	-0.001375
2.500000	1	-0.002000
2.516667	1	-0.002250
2.533333	1	-0.002625
2.550000	1	-0.003500
2.566667	1	-0.004375
2.583333	1	-0.005000
2.600000	1	-0.005875
2.616667	1	-0.007875
2.633333	1	-0.009750
2.650000	1	-0.010875
2.666667	1	-0.012250
2.683333	1	-0.013875
2.700000	1	-0.015500
2.716667	1	-0.017625
2.733333	1	-0.018625
2.750000	1	-0.020375
2.766667	1	-0.022875
2.783333	1	-0.023875
2.800000	1	-0.026125
2.816667	1	-0.027000
2.833333	1	-0.027750
2.850000	1	-0.029000
2.866667	1	-0.030500
2.883333	1	-0.031000
2.900000	1	-0.031375
2.916667	1	-0.032375
2.933333	1	-0.033000
2.950000	1	-0.032500
2.966667	1	-0.033125
2.983333	1	-0.032875
3.000000	1	-0.032500
3.016667	1	-0.032125
3.033333	1	-0.031625
3.050000	1	-0.030250
3.066667	1	-0.029875
3.083333	1	-0.028250
3.100000	1	-0.026750
3.116667	1	-0.025250
3.133333	1	-0.023625
3.150000	1	-0.022125
3.166667	1	-0.020875
3.183333	1	-0.018500
3.200000	1	-0.016250
3.216667	1	-0.014750
3.233333	1	-0.012750
3.250000	1	-0.010500
3.266667	1	-0.008125
3.283333	1	-0.006125
3.300000	1	-0.004500
3.316667	1	-0.002500
3.333333	1	-0.000625
3.350000	1	0.001125
3.366667	1	0.003375
3.383333	1	0.005500
3.400000	1	0.007000
3.416667	1	0.008625
3.433333	1	0.010625
3.450000	1	0.012875
3.466667	1	0.014375
3.483333	1	0.015875
3.500000	1	0.017250
3.516667	1	0.019500
3.533333	1	0.021750
3.550000	1	0.023375
3.566667	1	0.025250
3.583333	1	0.026875
3.600000	1	0.028375
3.616667	1	0.029125
3.633333	1	0.030750
3.650000	1	0.032250
3.666667	1	0.033625
3.683333	1	0.035125
3.700000	1	0.036125
3.716667	1	0.037125
3.733333	1	0.038250
3.750000	1	0.038750
3.766667	1	0.039875
3.783333	1	0.040250
3.800000	1	0.040750
3.816667	1	0.041750
3.833333	1	0.042625
3.850000	1	0.043750
3.866667	1	0.044250
3.883333	1	0.044875
3.900000	1	0.045125
3.916667	1	0.045500
3.933333	1	0.045875
3.950000	1	0.045750
3.966667	1	0.046000
3.983333	1	0.045875
4.000000	1	0.046250
4.016667	1	0.046375
4.033333	1	0.047125
4.050000	1	0.047000
4.066667	1	0.047375
4.083333	1	0.047250
4.100000	1	0.047000
4.116667	1	0.047000
4.133333	1	0.047250
4.150000	1	0.047250
4.166667	1	0.047250
4.183333	1	0.046625
4.200000	1	0.047625
4.216667	1	0.047500
4.233333	1	0.047750
4.250000	1	0.048000
4.266667	1	0.048875
4.283333	1	0.048375
4.300000	1	0.048250
4.316667	1	0.048250
4.333333	1	0.048875
4.350000	1	0.048750
4.366667	1	0.049125
4.383333	1	0.048875
4.400000	1	0.049750
4.416667	1	0.049625
4.433333	1	0.050625
4.450000	1	0.051500
4.466667	1	0.052250
4.483333	1	0.052375
4.500000	1	0.052625
4.516667	1	0.053625
4.533333	1	0.054875
4.550000	1	0.056000
4.566667	1	0.057250
4.583333	1	0.058750
4.600000	1	0.059625
4.616667	1	0.061625
4.633333	1	0.063250
4.650000	1	0.065500
4.666667	1	0.067250
4.683333	1	0.068875
4.700000	1	0.070625
4.716667	1	0.072750
4.733333	1	0.075000
4.750000	1	0.076875
4.766667	1	0.079625
4.783333	1	0.081750
4.800000	1	0.084750
4.816667	1	0.088375
4.833333	1	0.090625
4.850000	1	0.093750
4.866667	1	0.097500
4.883333	1	0.100500
4.900000	1	0.103625
4.916667	1	0.106375
4.933333	1	0.110000
4.950000	1	0.113125
4.966667	1	0.116375
4.983333	1	0.119875
5.000000	1	0.123375
5.016667	1	0.127125
5.033333	1	0.131125
5.050000	1	0.134875
5.066667	1	0.138250
5.083333	1	0.141500
5.100000	1	0.145250
5.116667	1	0.148625
5.133333	1	0.151375
5.150000	1	0.154625
5.166667	1	0.158375
5.183333	1	0.162125
5.200000	1	0.165375
5.216667	1	0.169125
5.233333	1	0.172500
5.250000	1	0.174750
5.266667	1	0.177625
5.283333	1	0.179875
5.300000	1	0.181750
5.316667	1	0.184125
5.333333	1	0.186375
5.350000	1	0.188000
5.366667	1	0.189875
5.383333	1	0.191375
5.400000	1	0.192750
5.416667	1	0.192875
5.433333	1	0.192875
5.450000	1	0.193125
5.466667	1	0.192500
5.483333	1	0.193000
5.500000	1	0.192500
5.516667	1	0.191500
5.533333	1	0.190000
5.550000	1	0.188625
5.566667	1	0.186500
5.583333	1	0.184125
5.600000	1	0.182125
5.616667	1	0.179625
5.633333	1	0.177875
5.650000	1	0.175375
5.666667	1	0.172250
5.683333	1	0.169625
5.700000	1	0.166375
5.716667	1	0.163375
5.733333	1	0.159875
5.750000	1	0.156500
5.766667	1	0.153875
5.783333	1	0.150625
5.800000	1	0.146500
5.816667	1	0.143000
5.833333	1	0.140000
5.850000	1	0.136500
5.866667	1	0.132250
5.883333	1	0.128875
5.900000	1	0.125625
5.916667	1	0.122000
5.933333	1	0.118500
5.950000	1	0.115625
5.966667	1	0.112500
5.983333	1	0.109500
6.000000	1	0.106125
6.016667	1	0.103375
6.033333	1	0.100125
6.050000	1	0.097250
6.066667	1	0.094750
6.083333	1	0.091250
6.100000	1	0.088000
6.116667	1	0.085875
6.133333	1	0.082125
6.150000	1	0.079250
6.166667	1	0.076250
6.183333	1	0.073500
6.200000	1	0.070500
6.216667	1	0.067625
6.233333	1	0.064500
6.250000	1	0.061500
6.266667	1	0.058375
6.283333	1	0.055500
6.300000	1	0.052750
6.316667	1	0.050000
6.333333	1	0.046625
6.350000	1	0.043500
6.366667	1	0.041375
6.383333	1	0.039750
6.400000	1	0.037250
6.416667	1	0.034125
6.433333	1	0.031875
6.450000	1	0.029750
6.466667	1	0.028125
6.483333	1	0.025625
6.500000	1	0.024500
6.516667	1	0.023500
6.533333	1	0.023000
6.550000	1	0.022375
6.566667	1	0.022125
6.583333	1	0.021375
6.600000	1	0.022000
6.616667	1	0.022625
6.633333	1	0.023875
6.650000	1	0.025750
6.666667	1	0.027000
6.683333	1	0.029000
6.700000	1	0.031125
6.716667	1	0.033250
6.733333	1	0.035625
6.750000	1	0.038625
6.766667	1	0.041875
6.783333	1	0.046625
6.800000	1	0.050500
6.816667	1	0.055000
6.833333	1	0.059875
6.850000	1	0.064125
6.866667	1	0.067875
6.883333	1	0.072250
6.900000	1	0.077375
6.916667	1	0.083250
6.933333	1	0.088250
6.950000	1	0.092750
6.966667	1	0.098375
6.983333	1	0.103875
7.000000	1	0.109125
7.016667	1	0.114250
7.033333	1	0.119750
7.050000	1	0.124250
7.066667	1	0.128750
7.083333	1	0.133625
7.100000	1	0.137875
7.116667	1	0.141250
7.133333	1	0.144500
7.150000	1	0.148375
7.166667	1	0.151375
7.183333	1	0.154125
7.200000	1	0.156500
7.216667	1	0.158250
7.233333	1	0.159625
7.250000	1	0.161125
7.266667	1	0.162125
7.283333	1	0.163375
7.300000	1	0.163875
7.316667	1	0.163625
7.333333	1	0.163250
7.350000	1	0.162375
7.366667	1	0.161375
7.383333	1	0.159875
7.400000	1	0.157500
7.416667	1	0.156250
7.433333	1	0.153500
7.450000	1	0.151500
7.466667	1	0.149125
7.483333	1	0.145750
7.500000	1	0.141750
7.516667	1	0.137875
7.533333	1	0.133750
7.550000	1	0.129500
7.566667	1	0.125500
7.583333	1	0.121000
7.600000	1	0.116000
7.616667	1	0.111375
7.633333	1	0.106500
7.650000	1	0.101000
7.666667	1	0.094750
7.683333	1	0.088750
7.700000	1	0.082875
7.716667	1	0.077125
7.733333	1	0.071500
7.750000	1	0.065750
7.766667	1	0.058750
7.783333	1	0.052875
7.800000	1	0.046500
7.816667	1	0.040500
7.833333	1	0.034250
7.850000	1	0.028125
7.866667	1	0.022500
7.883333	1	0.016625
7.900000	1	0.011500
7.916667	1	0.006125
7.933333	1	0.001375
7.950000	1	-0.003875
7.966667	1	-0.007875
7.983333	1	-0.012625
8.000000	1	-0.017000
8.016667	1	-0.020750
8.033333	1	-0.024750
8.050000	1	-0.028625
8.066667	1	-0.031625
8.083333	1	-0.035375
8.100000	1	-0.038875
8.116667	1	-0.041625
8.133333	1	-0.043500
8.150000	1	-0.046250
8.166667	1	-0.047875
8.183333	1	-0.050000
8.200000	1	-0.052500
8.216667	1	-0.054250
8.233333	1	-0.055375
8.250000	1	-0.057000
8.266667	1	-0.058875
8.283333	1	-0.059875
8.300000	1	-0.061500
8.316667	1	-0.062000
8.333333	1	-0.062250
8.350000	1	-0.062625
8.366667	1	-0.063250
8.383333	1	-0.063750
8.400000	1	-0.063625
8.416667	1	-0.064000
8.433333	1	-0.064000
8.450000	1	-0.063750
8.466667	1	-0.063750
8.483333	1	-0.063750
8.500000	1	-0.063375
8.516667	1	-0.063625
8.533333	1	-0.062625
8.550000	1	-0.061750
8.566667	1	-0.061250
8.583333	1	-0.060500
8.600000	1	-0.058500
8.616667	1	-0.057625
8.633333	1	-0.056000
8.650000	1	-0.054500
8.666667	1	-0.052750
8.683333	1	-0.050875
8.700000	1	-0.049500
8.716667	1	-0.048250
8.733333	1	-0.045625
8.750000	1	-0.043500
8.766667	1	-0.042250
8.783333	1	-0.040250
8.800000	1	-0.038250
8.816667	1	-0.036625
8.833333	1	-0.035000
8.850000	1	-0.033750
8.866667	1	-0.032375
8.883333	1	-0.030875
8.900000	1	-0.029125
8.916667	1	-0.027375
8.933333	1	-0.026000
8.950000	1	-0.024500
8.966667	1	-0.023625
8.983333	1	-0.023625
9.000000	1	-0.023375
9.016667	1	-0.022750
9.033333	1	-0.022500
9.050000	1	-0.022750
9.066667	1	-0.022375
9.083333	1	-0.022375
9.100000	1	-0.022625
9.116667	1	-0.022750
9.133333	1	-0.023500
9.150000	1	-0.023750
9.166667	1	-0.024750
9.183333	1	-0.025625
9.200000	1	-0.026625
9.216667	1	-0.028000
9.233333	1	-0.029125
9.250000	1	-0.030000
9.266667	1	-0.031375
9.283333	1	-0.032875
9.300000	1	-0.034000
9.316667	1	-0.035250
9.333333	1	-0.037125
9.350000	1	-0.038000
9.366667	1	-0.039875
9.383333	1	-0.041000
9.400000	1	-0.042000
9.416667	1	-0.043375
9.433333	1	-0.044625
9.450000	1	-0.045375
9.466667	1	-0.047125
9.483333	1	-0.047500
9.500000	1	-0.047500
9.516667	1	-0.047625
9.533333	1	-0.047625
9.550000	1	-0.048125
9.566667	1	-0.047750
9.583333	1	-0.048125
9.600000	1	-0.048375
9.616667	1	-0.047625
9.633333	1	-0.046625
9.650000	1	-0.045625
9.666667	1	-0.044875
9.683333	1	-0.044375
9.700000	1	-0.043750
9.716667	1	-0.042625
9.733333	1	-0.040750
9.750000	1	-0.039500
9.766667	1	-0.038125
9.783333	1	-0.037125
9.800000	1	-0.036250
9.816667	1	-0.034750
9.833333	1	-0.033625
9.850000	1	-0.032875
9.866667	1	-0.031250
9.883333	1	-0.030500
9.900000	1	-0.028625
9.916667	1	-0.027625
9.933333	1	-0.027125
9.950000	1	-0.025625
9.966667	1	-0.024375
9.983333	1	-0.023125
10.000000	1	-0.021625
10.016667	1	-0.020125
10.033333	1	-0.018875
10.050000	1	-0.017250
10.066667	1	-0.015375
10.083333	1	-0.013875
10.100000	1	-0.011000
10.116667	1	-0.008250
10.133333	1	-0.004250
10.150000	1	0.000625
10.166667	1	0.006000
10.183333	1	0.012250
10.200000	1	0.019125
10.216667	1	0.026750
10.233333	1	0.035875
10.250000	1	0.046000
10.266667	1	0.056875
10.283333	1	0.070000
10.300000	1	0.084125
10.316667	1	0.099125
10.333333	1	0.114125
10.350000	1	0.127625
10.366667	1	0.136000
10.383333	1	0.136375
10.400000	1	0.123500
10.416667	1	0.091125
10.433333	1	0.037000
10.450000	1	-0.038500
10.466667	1	-0.126250
10.483333	1	-0.208750
10.500000	1	-0.254375
10.516667	1	-0.218375
10.533333	1	-0.043875
10.550000	1	0.335125
10.566667	1	0.990250
10.583333	1	1.990125
10.600000	1	3.399000
10.616667	1	5.271375
10.633333	1	7.647000
10.650000	1	10.552500
10.666667	1	14.010750
10.683333	1	18.029750
10.700000	1	22.606875
10.716667	1	27.731750
10.733333	1	33.384875
10.750000	1	39.533500
10.766667	1	46.139750
10.783333	1	53.156000
10.800000	1	60.518375
10.816667	1	68.141875
10.833333	1	75.895375
10.850000	1	83.591875
10.866667	1	90.929875
10.883333	1	97.437375
10.900000	1	102.424750
10.916667	1	105.039125
10.933333	1	104.435625
10.950000	1	100.116375
10.966667	1	92.228000
10.983333	1	81.612875
11.000000	1	69.562875
11.016667	1	57.414500
11.033333	1	46.195875
11.050000	1	36.473000
11.066667	1	28.430125
11.083333	1	21.996625
11.100000	1	16.975875
11.116667	1	13.127875
11.133333	1	10.217375
11.150000	1	8.033750
11.166667	1	6.405000
11.183333	1	5.190500
11.200000	1	4.283000
11.216667	1	3.599875
11.233333	1	3.082625
11.250000	1	2.684625
11.266667	1	2.375500
11.283333	1	2.131625
11.300000	1	1.936250
11.316667	1	1.777125
11.333333	1	1.646375
11.350000	1	1.536625
11.366667	1	1.444750
11.383333	1	1.366375
11.400000	1	1.300500
11.416667	1	1.243375
11.433333	1	1.194625
11.450000	1	1.152125
11.466667	1	1.116500
11.483333	1	1.085625
11.500000	1	1.059125
11.516667	1	1.036625
11.533333	1	1.018250
11.550000	1	1.001625
11.566667	1	0.987875
11.583333	1	0.976125
11.600000	1	0.966500
11.616667	1	0.959000
11.633333	1	0.953375
11.650000	1	0.949250
11.666667	1	0.946125
11.683333	1	0.944125
11.700000	1	0.944250
11.716667	1	0.946000
11.733333	1	0.948500
11.750000	1	0.952875
11.766667	1	0.958000
11.783333	1	0.963875
11.800000	1	0.971125
11.816667	1	0.979250
11.833333	1	0.987625
11.850000	1	0.995750
11.866667	1	1.004500
11.883333	1	1.012750
11.900000	1	1.020250
11.916667	1	1.026000
11.933333	1	1.031500
11.950000	1	1.035500
11.966667	1	1.038250
11.983333	1	1.039875
12.000000	1	1.041750
12.016667	1	1.043000
12.033333	1	1.042875
12.050000	1	1.042375
12.066667	1	1.042500
12.083333	1	1.042875
12.100000	1	1.042875
12.116667	1	1.044000
12.133333	1	1.045125
12.150000	1	1.046375
12.166667	1	1.048625
12.183333	1	1.051000
12.200000	1	1.054750
12.216667	1	1.058875
12.233333	1	1.064375
12.250000	1	1.071125
12.266667	1	1.080375
12.283333	1	1.092125
12.300000	1	1.107250
12.316667	1	1.126750
12.333333	1	1.152625
12.350000	1	1.186250
12.366667	1	1.230625
12.383333	1	1.289375
12.400000	1	1.365500
12.416667	1	1.463250
12.433333	1	1.587625
12.450000	1	1.744125
12.466667	1	1.937375
12.483333	1	2.173375
12.500000	1	2.455750
12.516667	1	2.789250
12.533333	1	3.176625
12.550000	1	3.620625
12.566667	1	4.119875
12.583333	1	4.671750
12.600000	1	5.270750
12.616667	1	5.909250
12.633333	1	6.577125
12.650000	1	7.264125
12.666667	1	7.957125
12.683333	1	8.643625
12.700000	1	9.312625
12.716667	1	9.954375
12.733333	1	10.564500
12.750000	1	11.139125
12.766667	1	11.681250
12.783333	1	12.195375
12.800000	1	12.690125
12.816667	1	13.174750
12.833333	1	13.660750
12.850000	1	14.156000
12.866667	1	14.669625
12.883333	1	15.208250
12.900000	1	15.775875
12.916667	1	16.375250
12.933333	1	17.006625
12.950000	1	17.671250
12.966667	1	18.366875
12.983333	1	19.092750
13.000000	1	19.846875
13.016667	1	20.626750
13.033333	1	21.431625
13.050000	1	22.262250
13.066667	1	23.115375
13.083333	1	23.991125
13.100000	1	24.888000
13.116667	1	25.805375
13.133333	1	26.740500
13.150000	1	27.693875
13.166667	1	28.666875
13.183333	1	29.659750
13.200000	1	30.670625
13.216667	1	31.699250
13.233333	1	32.748000
13.250000	1	33.817500
13.266667	1	34.908000
13.283333	1	36.018625
13.300000	1	37.151375
13.316667	1	38.305000
13.333333	1	39.479125
13.350000	1	40.675500
13.366667	1	41.893750
13.383333	1	43.136500
13.400000	1	44.401125
13.416667	1	45.689500
13.433333	1	47.004000
13.450000	1	48.345250
13.466667	1	49.714250
13.483333	1	51.110875
13.500000	1	52.536750
13.516667	1	53.991500
13.533333	1	55.475000
13.550000	1	56.988125
13.566667	1	58.532375
13.583333	1	60.106250
13.600000	1	61.709125
13.616667	1	63.343250
13.633333	1	65.010750
13.650000	1	66.714125
13.666667	1	68.453500
13.683333	1	70.230000
13.700000	1	72.043625
13.716667	1	73.891875
13.733333	1	75.772000
13.750000	1	77.662125
13.766667	1	79.492375
13.783333	1	81.109625
13.800000	1	82.290250
13.816667	1	82.782500
13.833333	1	82.358750
13.850000	1	80.813250
13.866667	1	77.934000
13.883333	1	73.490375
13.900000	1	67.343125
13.916667	1	59.624750
13.933333	1	50.866500
13.950000	1	41.906625
13.966667	1	33.595250
13.983333	1	26.493125
14.000000	1	20.775375
14.016667	1	16.339750
14.033333	1	12.970125
14.050000	1	10.440750
14.066667	1	8.558500
14.083333	1	7.168500
14.100000	1	6.147500
14.116667	1	5.399375
14.133333	1	4.847250
14.150000	1	4.435375
14.166667	1	4.123500
14.183333	1	3.882250
14.200000	1	3.691125
14.216667	1	3.536375
14.233333	1	3.408125
14.250000	1	3.299625
14.266667	1	3.205125
14.283333	1	3.122000
14.300000	1	3.048500
14.316667	1	2.982375
14.333333	1	2.922000
14.350000	1	2.868250
14.366667	1	2.820625
14.383333	1	2.779125
14.400000	1	2.744875
14.416667	1	2.718875
14.433333	1	2.704250
14.450000	1	2.703500
14.466667	1	2.720375
14.483333	1	2.762250
14.500000	1	2.837375
14.516667	1	2.957500
14.533333	1	3.139000
14.550000	1	3.401000
14.566667	1	3.771250
14.583333	1	4.280000
14.600000	1	4.970250
14.616667	1	5.890250
14.633333	1	7.096375
14.650000	1	8.651125
14.666667	1	10.619125
14.683333	1	13.063750
14.700000	1	16.038625
14.716667	1	19.582375
14.733333	1	23.713625
14.750000	1	28.418750
14.766667	1	33.644125
14.783333	1	39.290625
14.800000	1	45.225875
14.816667	1	51.274250
14.833333	1	57.222125
14.850000	1	62.830125
14.866667	1	67.845125
14.883333	1	72.025125
14.900000	1	75.155000
14.916667	1	77.077000
14.933333	1	77.691750
14.950000	1	76.972250
14.966667	1	74.971750
14.983333	1	71.815375
15.000000	1	67.677875
15.016667	1	62.774500
15.033333	1	57.344000
15.050000	1	51.630000
15.066667	1	45.860250
15.083333	1	40.232625
15.100000	1	34.906125
15.116667	1	29.993125
15.133333	1	25.563375
15.150000	1	21.648250
15.166667	1	18.249625
15.183333	1	15.343375
15.200000	1	12.888875
15.216667	1	10.837500
15.233333	1	9.139125
15.250000	1	7.744250
15.266667	1	6.607000
15.283333	1	5.684250
15.300000	1	4.940625
15.316667	1	4.343000
15.333333	1	3.864750
15.350000	1	3.484125
15.366667	1	3.182500
15.383333	1	2.945500
15.400000	1	2.760375
15.416667	1	2.617500
15.433333	1	2.508250
15.450000	1	2.427250
15.466667	1	2.368250
15.483333	1	2.325250
15.500000	1	2.294500
15.516667	1	2.271625
15.533333	1	2.252875
15.550000	1	2.235875
15.566667	1	2.216625
15.583333	1	2.194875
15.600000	1	2.169000
15.616667	1	2.140250
15.633333	1	2.106375
15.650000	1	2.069125
15.666667	1	2.029625
15.683333	1	1.988125
15.700000	1	1.945750
15.716667	1	1.904500
15.733333	1	1.865000
15.750000	1	1.827250
15.766667	1	1.791000
15.783333	1	1.757000
15.800000	1	1.724375
15.816667	1	1.692625
15.833333	1	1.661000
15.850000	1	1.630375
15.866667	1	1.600750
15.883333	1	1.571250
15.900000	1	1.542000
15.916667	1	1.514375
15.933333	1	1.487625
15.950000	1	1.462125
15.966667	1	1.439125
15.983333	1	1.418750
16.000000	1	1.402000
16.016667	1	1.387000
16.033333	1	1.375750
16.050000	1	1.366250
16.066667	1	1.359125
16.083333	1	1.353750
16.100000	1	1.349875
16.116667	1	1.346625
16.133333	1	1.344875
16.150000	1	1.342625
16.166667	1	1.339375
16.183333	1	1.335125
16.200000	1	1.329000
16.216667	1	1.322125
16.233333	1	1.314375
16.250000	1	1.303750
16.266667	1	1.291750
16.283333	1	1.278375
16.300000	1	1.265125
16.316667	1	1.251625
16.333333	1	1.237500
16.350000	1	1.222750
16.366667	1	1.208250
16.383333	1	1.193500
16.400000	1	1.179750
16.416667	1	1.167125
16.433333	1	1.154750
16.450000	1	1.143875
16.466667	1	1.134875
16.483333	1	1.127500
16.500000	1	1.122000
16.516667	1	1.118625
16.533333	1	1.117000
16.550000	1	1.117500
16.566667	1	1.120250
16.583333	1	1.123875
16.600000	1	1.128500
16.616667	1	1.133750
16.633333	1	1.139250
16.650000	1	1.144250
16.666667	1	1.148875
16.683333	1	1.153500
16.700000	1	1.156500
16.716667	1	1.158125
16.733333	1	1.159625
16.750000	1	1.160000
16.766667	1	1.159875
16.783333	1	1.159500
16.800000	1	1.159000
16.816667	1	1.159125
16.833333	1	1.159500
16.850000	1	1.159750
16.866667	1	1.160125
16.883333	1	1.160875
16.900000	1	1.162000
16.916667	1	1.163375
16.933333	1	1.163625
16.950000	1	1.164000
16.966667	1	1.164375
16.983333	1	1.162750
17.000000	1	1.160625
17.016667	1	1.156750
17.033333	1	1.152625
17.050000	1	1.147000
17.066667	1	1.140375
17.083333	1	1.134125
17.100000	1	1.128125
17.116667	1	1.122500
17.133333	1	1.117375
17.150000	1	1.112375
17.166667	1	1.108250
17.183333	1	1.104875
17.200000	1	1.102125
17.216667	1	1.101000
17.233333	1	1.099750
17.250000	1	1.099875
17.266667	1	1.100125
17.283333	1	1.101125
17.300000	1	1.102375
17.316667	1	1.104375
17.333333	1	1.106750
17.350000	1	1.108750
17.366667	1	1.111500
17.383333	1	1.114000
17.400000	1	1.116250
17.416667	1	1.118625
17.433333	1	1.120125
17.450000	1	1.121125
17.466667	1	1.121375
17.483333	1	1.121250
17.500000	1	1.119500
17.516667	1	1.116750
17.533333	1	1.112125
17.550000	1	1.106500
17.566667	1	1.099125
17.583333	1	1.090000
17.600000	1	1.080250
17.616667	1	1.068500
17.633333	1	1.055500
17.650000	1	1.042250
17.666667	1	1.027875
17.683333	1	1.012750
17.700000	1	0.997750
17.716667	1	0.983125
17.733333	1	0.968125
17.750000	1	0.952750
17.766667	1	0.938500
17.783333	1	0.924625
17.800000	1	0.912375
17.816667	1	0.899625
17.833333	1	0.888125
17.850000	1	0.877250
17.866667	1	0.867375
17.883333	1	0.858250
17.900000	1	0.850000
17.916667	1	0.842125
17.933333	1	0.835125
17.950000	1	0.828750
17.966667	1	0.822500
17.983333	1	0.816500
18.000000	1	0.811000
18.016667	1	0.805625
18.033333	1	0.799750
18.050000	1	0.794375
18.066667	1	0.789250
18.083333	1	0.783875
18.100000	1	0.778125
18.116667	1	0.772375
18.133333	1	0.767750
18.150000	1	0.763000
18.166667	1	0.758500
18.183333	1	0.754375
18.200000	1	0.750875
18.216667	1	0.747875
18.233333	1	0.745125
18.250000	1	0.743750
18.266667	1	0.742625
18.283333	1	0.742125
18.300000	1	0.742375
18.316667	1	0.743125
18.333333	1	0.744625
18.350000	1	0.746625
18.366667	1	0.749375
18.383333	1	0.752875
18.400000	1	0.756125
18.416667	1	0.760625
18.433333	1	0.765375
18.450000	1	0.771500
18.466667	1	0.777875
18.483333	1	0.785500
18.500000	1	0.794250
18.516667	1	0.804625
18.533333	1	0.816500
18.550000	1	0.830500
18.566667	1	0.846375
18.583333	1	0.863625
18.600000	1	0.882875
18.616667	1	0.904375
18.633333	1	0.928000
18.650000	1	0.953125
18.666667	1	0.979750
18.683333	1	1.008750
18.700000	1	1.038250
18.716667	1	1.069625
18.733333	1	1.103250
18.750000	1	1.137000
18.766667	1	1.171625
18.783333	1	1.206500
18.800000	1	1.240875
18.816667	1	1.274500
18.833333	1	1.305875
18.850000	1	1.335375
18.866667	1	1.363125
18.883333	1	1.386625
18.900000	1	1.406375
18.916667	1	1.420875
18.933333	1	1.431000
18.950000	1	1.434500
18.966667	1	1.431625
18.983333	1	1.422000
19.000000	1	1.405625
19.016667	1	1.383500
19.033333	1	1.354875
19.050000	1	1.321250
19.066667	1	1.282125
19.083333	1	1.238625
19.100000	1	1.192000
19.116667	1	1.143500
19.133333	1	1.094875
19.150000	1	1.046875
19.166667	1	1.000500
19.183333	1	0.956500
19.200000	1	0.916750
19.216667	1	0.881875
19.233333	1	0.854125
19.250000	1	0.832875
19.266667	1	0.818625
19.283333	1	0.813250
19.300000	1	0.816375
19.316667	1	0.829750
19.333333	1	0.852625
19.350000	1	0.885875
19.366667	1	0.930625
19.383333	1	0.985500
19.400000	1	1.051500
19.416667	1	1.126875
19.433333	1	1.211375
19.450000	1	1.303750
19.466667	1	1.402875
19.483333	1	1.507250
19.500000	1	1.613625
19.516667	1	1.720250
19.533333	1	1.823750
19.550000	1	1.922000
19.566667	1	2.012750
19.583333	1	2.091000
19.600000	1	2.156250
19.616667	1	2.205375
19.633333	1	2.237125
19.650000	1	2.251125
19.666667	1	2.246000
19.683333	1	2.224000
19.700000	1	2.184500
19.716667	1	2.130500
19.733333	1	2.062750
19.750000	1	1.983625
19.766667	1	1.896500
19.783333	1	1.802750
19.800000	1	1.705375
19.816667	1	1.607375
19.833333	1	1.509750
19.850000	1	1.414250
19.866667	1	1.322000
19.883333	1	1.234000
19.900000	1	1.152250
19.916667	1	1.076375
19.933333	1	1.006000
19.950000	1	0.942000
19.966667	1	0.884375
19.983333	1	0.831875
20.000000	1	0.785875
20.016667	1	0.744750
20.033333	1	0.709375
20.050000	1	0.679125
20.066667	1	0.653750
20.083333	1	0.631875
20.100000	1	0.615125
20.116667	1	0.603000
20.133333	1	0.594250
20.150000	1	0.589250
20.166667	1	0.587500
20.183333	1	0.588625
20.200000	1	0.592875
20.216667	1	0.599125
20.233333	1	0.607625
20.250000	1	0.617250
20.266667	1	0.627625
20.283333	1	0.638125
20.300000	1	0.649000
20.316667	1	0.658500
20.333333	1	0.666875
20.350000	1	0.673875
20.366667	1	0.679375
20.383333	1	0.682000
20.400000	1	0.682750
20.416667	1	0.681125
20.433333	1	0.677375
20.450000	1	0.672000
20.466667	1	0.665750
20.483333	1	0.658875
20.500000	1	0.652250
20.516667	1	0.647125
20.533333	1	0.644250
20.550000	1	0.644375
20.566667	1	0.648625
20.583333	1	0.658125
20.600000	1	0.672500
20.616667	1	0.692500
20.633333	1	0.719000
20.650000	1	0.752875
20.666667	1	0.794250
20.683333	1	0.842000
20.700000	1	0.896750
20.716667	1	0.957250
20.733333	1	1.022250
20.750000	1	1.091500
20.766667	1	1.163000
20.783333	1	1.234875
20.800000	1	1.305625
20.816667	1	1.371750
20.833333	1	1.432500
20.850000	1	1.484875
20.866667	1	1.527875
20.883333	1	1.558875
20.900000	1	1.577875
20.916667	1	1.583625
20.933333	1	1.576000
20.950000	1	1.555375
20.966667	1	1.522375
20.983333	1	1.478875
21.000000	1	1.425625
21.016667	1	1.364250
21.033333	1	1.297875
21.050000	1	1.227500
21.066667	1	1.155125
21.083333	1	1.083250
21.100000	1	1.012125
21.116667	1	0.943375
21.133333	1	0.878375
21.150000	1	0.817750
21.166667	1	0.762250
21.183333	1	0.710875
21.200000	1	0.664500
21.216667	1	0.622500
21.233333	1	0.585375
21.250000	1	0.552625
21.266667	1	0.524375
21.283333	1	0.499125
21.300000	1	0.477625
21.316667	1	0.458500
21.333333	1	0.442125
21.350000	1	0.426875
21.366667	1	0.414000
21.383333	1	0.402000
21.400000	1	0.391875
21.416667	1	0.382375
21.433333	1	0.374875
21.450000	1	0.368125
21.466667	1	0.362000
21.483333	1	0.356000
21.500000	1	0.350875
21.516667	1	0.346250
21.533333	1	0.342250
21.550000	1	0.339375
21.566667	1	0.336250
21.583333	1	0.334250
21.600000	1	0.332500
21.616667	1	0.331750
21.633333	1	0.332375
21.650000	1	0.333500
21.666667	1	0.334625
21.683333	1	0.336500
21.700000	1	0.339250
21.716667	1	0.343375
21.733333	1	0.347875
21.750000	1	0.352625
21.766667	1	0.358250
21.783333	1	0.364000
21.800000	1	0.370750
21.816667	1	0.377625
21.833333	1	0.384750
21.850000	1	0.392500
21.866667	1	0.400750
21.883333	1	0.408625
21.900000	1	0.416750
21.916667	1	0.425625
21.933333	1	0.433625
21.950000	1	0.441500
21.966667	1	0.450125
21.983333	1	0.458625
22.000000	1	0.466500
22.016667	1	0.474500
22.033333	1	0.482125
22.050000	1	0.488875
22.066667	1	0.495500
22.083333	1	0.501750
22.100000	1	0.507250
22.116667	1	0.512125
22.133333	1	0.516250
22.150000	1	0.519000
22.166667	1	0.521375
22.183333	1	0.522125
22.200000	1	0.522250
22.216667	1	0.520750
22.233333	1	0.517750
22.250000	1	0.513625
22.266667	1	0.508875
22.283333	1	0.502250
22.300000	1	0.494125
22.316667	1	0.485500
22.333333	1	0.476000
22.350000	1	0.465625
22.366667	1	0.454500
22.383333	1	0.442500
22.400000	1	0.430250
22.416667	1	0.418125
22.433333	1	0.405625
22.450000	1	0.392750
22.466667	1	0.380500
22.483333	1	0.368750
22.500000	1	0.357125
22.516667	1	0.346250
22.533333	1	0.336250
22.550000	1	0.327750
22.566667	1	0.318875
22.583333	1	0.310125
22.600000	1	0.302875
22.616667	1	0.295875
22.633333	1	0.289375
22.650000	1	0.283250
22.666667	1	0.277375
22.683333	1	0.272750
22.700000	1	0.268375
22.716667	1	0.263875
22.733333	1	0.260250
22.750000	1	0.256125
22.766667	1	0.252500
22.783333	1	0.248875
22.800000	1	0.246000
22.816667	1	0.242750
22.833333	1	0.239875
22.850000	1	0.237625
22.866667	1	0.235625
22.883333	1	0.233750
22.900000	1	0.232250
22.916667	1	0.231125
22.933333	1	0.229875
22.950000	1	0.229125
22.966667	1	0.229125
22.983333	1	0.229375
23.000000	1	0.229750
23.016667	1	0.230500
23.033333	1	0.231875
23.050000	1	0.233500
23.066667	1	0.235875
23.083333	1	0.238625
23.100000	1	0.240500
23.116667	1	0.243500
23.133333	1	0.246875
23.150000	1	0.250625
23.166667	1	0.253625
23.183333	1	0.257250
23.200000	1	0.261500
23.216667	1	0.266750
23.233333	1	0.271500
23.250000	1	0.276750
23.266667	1	0.283875
23.283333	1	0.291625
23.300000	1	0.300750
23.316667	1	0.311625
23.333333	1	0.324875
23.350000	1	0.340000
23.366667	1	0.359250
23.383333	1	0.382375
23.400000	1	0.409750
23.416667	1	0.444125
23.433333	1	0.484500
23.450000	1	0.532625
23.466667	1	0.589500
23.483333	1	0.655875
23.500000	1	0.733875
23.516667	1	0.824000
23.533333	1	0.927750
23.550000	1	1.046250
23.566667	1	1.180500
23.583333	1	1.330625
23.600000	1	1.498000
23.616667	1	1.681750
23.633333	1	1.882125
23.650000	1	2.098750
23.666667	1	2.330000
23.683333	1	2.573875
23.700000	1	2.828625
23.716667	1	3.091250
23.733333	1	3.358250
23.750000	1	3.624250
23.766667	1	3.885125
23.783333	1	4.135500
23.800000	1	4.370125
23.816667	1	4.583750
23.833333	1	4.772250
23.850000	1	4.930750
23.866667	1	5.056125
23.883333	1	5.144875
23.900000	1	5.194250
23.916667	1	5.204500
23.933333	1	5.174625
23.950000	1	5.106875
23.966667	1	5.001875
23.983333	1	4.863750
24.000000	1	4.696000
24.016667	1	4.502875
24.033333	1	4.289250
24.050000	1	4.060125
24.066667	1	3.820375
24.083333	1	3.573500
24.100000	1	3.324500
24.116667	1	3.077625
24.133333	1	2.835875
24.150000	1	2.601375
24.166667	1	2.378875
24.183333	1	2.167625
24.200000	1	1.971500
24.216667	1	1.788375
24.233333	1	1.621250
24.250000	1	1.468125
24.266667	1	1.330375
24.283333	1	1.205875
24.300000	1	1.094375
24.316667	1	0.995125
24.333333	1	0.907250
24.350000	1	0.830125
24.366667	1	0.762500
24.383333	1	0.704250
24.400000	1	0.653500
24.416667	1	0.610000
24.433333	1	0.572625
24.450000	1	0.541500
24.466667	1	0.515375
24.483333	1	0.493500
24.500000	1	0.475375
24.516667	1	0.460000
24.533333	1	0.447000
24.550000	1	0.435875
24.566667	1	0.427125
24.583333	1	0.419625
24.600000	1	0.413375
24.616667	1	0.407500
24.633333	1	0.401750
24.650000	1	0.396750
24.666667	1	0.391875
24.683333	1	0.387250
24.700000	1	0.383750
24.716667	1	0.379375
24.733333	1	0.375500
24.750000	1	0.371250
24.766667	1	0.367125
24.783333	1	0.363125
24.800000	1	0.358750
24.816667	1	0.355125
24.833333	1	0.350875
24.850000	1	0.346500
24.866667	1	0.343000
24.883333	1	0.339250
24.900000	1	0.335000
24.916667	1	0.331250
24.933333	1	0.328250
24.950000	1	0.324250
24.966667	1	0.320375
24.983333	1	0.316875
25.000000	1	0.313250
25.016667	1	0.309125
25.033333	1	0.305375
25.050000	1	0.302000
25.066667	1	0.298250
25.083333	1	0.294500
25.100000	1	0.290125
25.116667	1	0.286250
25.133333	1	0.282125
25.150000	1	0.277500
25.166667	1	0.273375
25.183333	1	0.268750
25.200000	1	0.264125
25.216667	1	0.260000
25.233333	1	0.256000
25.250000	1	0.251375
25.266667	1	0.247375
25.283333	1	0.243875
25.300000	1	0.240375
25.316667	1	0.237000
25.333333	1	0.233125
25.350000	1	0.229750
25.366667	1	0.226375
25.383333	1	0.223125
25.400000	1	0.220125
25.416667	1	0.218250
25.433333	1	0.217125
25.450000	1	0.215125
25.466667	1	0.214125
25.483333	1	0.213500
25.500000	1	0.213250
25.516667	1	0.212375
25.533333	1	0.212250
25.550000	1	0.212000
25.566667	1	0.212125
25.583333	1	0.212000
25.600000	1	0.212375
25.616667	1	0.212875
25.633333	1	0.212750
25.650000	1	0.213125
25.666667	1	0.214625
25.683333	1	0.215750
25.700000	1	0.216500
25.716667	1	0.217500
25.733333	1	0.218500
25.750000	1	0.219125
25.766667	1	0.220375
25.783333	1	0.221375
25.800000	1	0.221875
25.816667	1	0.222875
25.833333	1	0.223625
25.850000	1	0.225250
25.866667	1	0.226625
25.883333	1	0.228250
25.900000	1	0.230125
25.916667	1	0.233000
25.933333	1	0.235250
25.950000	1	0.237375
25.966667	1	0.240250
25.983333	1	0.243000
26.000000	1	0.245750
26.016667	1	0.249000
26.033333	1	0.252250
26.050000	1	0.255875
26.066667	1	0.259250
26.083333	1	0.262875
26.100000	1	0.266375
26.116667	1	0.270375
26.133333	1	0.274875
26.150000	1	0.277250
26.166667	1	0.280750
26.183333	1	0.283750
26.200000	1	0.286125
26.216667	1	0.288875
26.233333	1	0.290375
26.250000	1	0.291125
26.266667	1	0.292500
26.283333	1	0.293500
26.300000	1	0.293500
26.316667	1	0.292625
26.333333	1	0.291750
26.350000	1	0.290250
26.366667	1	0.288250
26.383333	1	0.286250
26.400000	1	0.284000
26.416667	1	0.280500
26.433333	1	0.276625
26.450000	1	0.273500
26.466667	1	0.270125
26.483333	1	0.266000
26.500000	1	0.262250
26.516667	1	0.257750
26.533333	1	0.253000
26.550000	1	0.249000
26.566667	1	0.244250
26.583333	1	0.239750
26.600000	1	0.234625
26.616667	1	0.230875
26.633333	1	0.227000
26.650000	1	0.222375
26.666667	1	0.218875
26.683333	1	0.214750
26.700000	1	0.211000
26.716667	1	0.207750
26.733333	1	0.204375
26.750000	1	0.200875
26.766667	1	0.197875
26.783333	1	0.195000
26.800000	1	0.192500
26.816667	1	0.189875
26.833333	1	0.187750
26.850000	1	0.186000
26.866667	1	0.184000
26.883333	1	0.182375
26.900000	1	0.180875
26.916667	1	0.179750
26.933333	1	0.178750
26.950000	1	0.177500
26.966667	1	0.176750
26.983333	1	0.176875
27.000000	1	0.176875
27.016667	1	0.177625
27.033333	1	0.179000
27.050000	1	0.180750
27.066667	1	0.183000
27.083333	1	0.186125
27.100000	1	0.189750
27.116667	1	0.194375
27.133333	1	0.199500
27.150000	1	0.206625
27.166667	1	0.214500
27.183333	1	0.224625
27.200000	1	0.236375
27.216667	1	0.250500
27.233333	1	0.266500
27.250000	1	0.285750
27.266667	1	0.308875
27.283333	1	0.335000
27.300000	1	0.365875
27.316667	1	0.400125
27.333333	1	0.439625
27.350000	1	0.485375
27.366667	1	0.537125
27.383333	1	0.594875
27.400000	1	0.659875
27.416667	1	0.733000
27.433333	1	0.813875
27.450000	1	0.904000
27.466667	1	1.003125
27.483333	1	1.110625
27.500000	1	1.227875
27.516667	1	1.354625
27.533333	1	1.490250
27.550000	1	1.635625
27.566667	1	1.788250
27.583333	1	1.948000
27.600000	1	2.115250
27.616667	1	2.287250
27.633333	1	2.463000
27.650000	1	2.640875
27.666667	1	2.819000
27.683333	1	2.995375
27.700000	1	3.167375
27.716667	1	3.332125
27.733333	1	3.488375
27.750000	1	3.631875
27.766667	1	3.761375
27.783333	1	3.874000
27.800000	1	3.967625
27.816667	1	4.041000
27.833333	1	4.091750
27.850000	1	4.119000
27.866667	1	4.123000
27.883333	1	4.102250
27.900000	1	4.057500
27.916667	1	3.988625
27.933333	1	3.897500
27.950000	1	3.785500
27.966667	1	3.655000
27.983333	1	3.508375
28.000000	1	3.348625
28.016667	1	3.177875
28.033333	1	2.998375
28.050000	1	2.813125
28.066667	1	2.625125
28.083333	1	2.437000
28.100000	1	2.251750
28.116667	1	2.070625
28.133333	1	1.895625
28.150000	1	1.728750
28.166667	1	1.571750
28.183333	1	1.424750
28.200000	1	1.289125
28.216667	1	1.164125
28.233333	1	1.050000
28.250000	1	0.946375
28.266667	1	0.853625
28.283333	1	0.770625
28.300000	1	0.698375
28.316667	1	0.635250
28.333333	1	0.580375
28.350000	1	0.533125
28.366667	1	0.493500
28.383333	1	0.460500
28.400000	1	0.434000
28.416667	1	0.412000
28.433333	1	0.395375
28.450000	1	0.384125
28.466667	1	0.375875
28.483333	1	0.370375
28.500000	1	0.368375
28.516667	1	0.368750
28.533333	1	0.372000
28.550000	1	0.377250
28.566667	1	0.384000
28.583333	1	0.392375
28.600000	1	0.401000
28.616667	1	0.411250
28.633333	1	0.421500
28.650000	1	0.431625
28.666667	1	0.442625
28.683333	1	0.453375
28.700000	1	0.464000
28.716667	1	0.474375
28.733333	1	0.484750
28.750000	1	0.494250
28.766667	1	0.502875
28.783333	1	0.511875
28.800000	1	0.519000
28.816667	1	0.525750
28.833333	1	0.531250
28.850000	1	0.536500
28.866667	1	0.540750
28.883333	1	0.543375
28.900000	1	0.544875
28.916667	1	0.545625
28.933333	1	0.544875
28.950000	1	0.543875
28.966667	1	0.541125
28.983333	1	0.537875
29.000000	1	0.533375
29.016667	1	0.527625
29.033333	1	0.521500
29.050000	1	0.513500
29.066667	1	0.505000
29.083333	1	0.496000
29.100000	1	0.486500
29.116667	1	0.475625
29.133333	1	0.464500
29.150000	1	0.452500
29.166667	1	0.440750
29.183333	1	0.428125
29.200000	1	0.415500
29.216667	1	0.402500
29.233333	1	0.389500
29.250000	1	0.376500
29.266667	1	0.363750
29.283333	1	0.350500
29.300000	1	0.337625
29.316667	1	0.324375
29.333333	1	0.312250
29.350000	1	0.300500
29.366667	1	0.289000
29.383333	1	0.278500
29.400000	1	0.267750
29.416667	1	0.257875
29.433333	1	0.248500
29.450000	1	0.239375
29.466667	1	0.230750
29.483333	1	0.222375
29.500000	1	0.215250
29.516667	1	0.208625
29.533333	1	0.202375
29.550000	1	0.196625
29.566667	1	0.191000
29.583333	1	0.185500
29.600000	1	0.181000
29.616667	1	0.176125
29.633333	1	0.171250
29.650000	1	0.167125
29.666667	1	0.163875
29.683333	1	0.159875
29.700000	1	0.156375
29.716667	1	0.152750
29.733333	1	0.148875
29.750000	1	0.144875
29.766667	1	0.141750
29.783333	1	0.138375
29.800000	1	0.134875
29.816667	1	0.131375
29.833333	1	0.127500
29.850000	1	0.124000
29.866667	1	0.120625
29.883333	1	0.117000
29.900000	1	0.113250
29.916667	1	0.109375
29.933333	1	0.105625
29.950000	1	0.101625
29.966667	1	0.098125
29.983333	1	0.094750
30.000000	1	0.090875
30.016667	1	0.088000
30.033333	1	0.085000
30.050000	1	0.082000
30.066667	1	0.078375
30.083333	1	0.075000
30.100000	1	0.072500
30.116667	1	0.069500
30.133333	1	0.066750
30.150000	1	0.064500
30.166667	1	0.062250
30.183333	1	0.059750
30.200000	1	0.057625
30.216667	1	0.056500
30.233333	1	0.055250
30.250000	1	0.053875
30.266667	1	0.053125
30.283333	1	0.052875
30.300000	1	0.052750
30.316667	1	0.053125
30.333333	1	0.054250
30.350000	1	0.055625
30.366667	1	0.057250
30.383333	1	0.059250
30.400000	1	0.062000
30.416667	1	0.065125
30.433333	1	0.069250
30.450000	1	0.074375
30.466667	1	0.079000
30.483333	1	0.083875
30.500000	1	0.089250
30.516667	1	0.095375
30.533333	1	0.102000
30.550000	1	0.109250
30.566667	1	0.117000
30.583333	1	0.125375
30.600000	1	0.134000
30.616667	1	0.143125
30.633333	1	0.152750
30.650000	1	0.163375
30.666667	1	0.173875
30.683333	1	0.186375
30.700000	1	0.199500
30.716667	1	0.213375
30.733333	1	0.228000
30.750000	1	0.244375
30.766667	1	0.263000
30.783333	1	0.282750
30.800000	1	0.304125
30.816667	1	0.327625
30.833333	1	0.354750
30.850000	1	0.384250
30.866667	1	0.417500
30.883333	1	0.454750
30.900000	1	0.496500
30.916667	1	0.543250
30.933333	1	0.595750
30.950000	1	0.654375
30.966667	1	0.719875
30.983333	1	0.793125
31.000000	1	0.875375
31.016667	1	0.966750
31.033333	1	1.068000
31.050000	1	1.179625
31.066667	1	1.301625
31.083333	1	1.435125
31.100000	1	1.580625
31.116667	1	1.738250
31.133333	1	1.906750
31.150000	1	2.087250
31.166667	1	2.279250
31.183333	1	2.483000
31.200000	1	2.696875
31.216667	1	2.918500
31.233333	1	3.148500
31.250000	1	3.383250
31.266667	1	3.622750
31.283333	1	3.863750
31.300000	1	4.104500
31.316667	1	4.340500
31.333333	1	4.570625
31.350000	1	4.792875
31.366667	1	5.003250
31.383333	1	5.199125
31.400000	1	5.379875
31.416667	1	5.540625
31.433333	1	5.679750
31.450000	1	5.795750
31.466667	1	5.886750
31.483333	1	5.952125
31.500000	1	5.989500
31.516667	1	6.000250
31.533333	1	5.982875
31.550000	1	5.938500
31.566667	1	5.867375
31.583333	1	5.771875
31.600000	1	5.652875
31.616667	1	5.511875
31.633333	1	5.350500
31.650000	1	5.172000
31.666667	1	4.978500
31.683333	1	4.772500
31.700000	1	4.556750
31.716667	1	4.333875
31.733333	1	4.106625
31.750000	1	3.876125
31.766667	1	3.645625
31.783333	1	3.416125
31.800000	1	3.190000
31.816667	1	2.968750
31.833333	1	2.753875
31.850000	1	2.547500
31.866667	1	2.349750
31.883333	1	2.161750
31.900000	1	1.983750
31.916667	1	1.815750
31.933333	1	1.659125
31.950000	1	1.512125
31.966667	1	1.375500
31.983333	1	1.248875
32.000000	1	1.132000
32.016667	1	1.024750
32.033333	1	0.926750
32.050000	1	0.836750
32.066667	1	0.754875
32.083333	1	0.680875
32.100000	1	0.614000
32.116667	1	0.554000
32.133333	1	0.499625
32.150000	1	0.450625
32.166667	1	0.406500
32.183333	1	0.367625
32.200000	1	0.332000
32.216667	1	0.300125
32.233333	1	0.272250
32.250000	1	0.247250
32.266667	1	0.225375
32.283333	1	0.205625
32.300000	1	0.187500
32.316667	1	0.171375
32.333333	1	0.157875
32.350000	1	0.145500
32.366667	1	0.134625
32.383333	1	0.125750
32.400000	1	0.116875
32.416667	1	0.109000
32.433333	1	0.102250
32.450000	1	0.096250
32.466667	1	0.091500
32.483333	1	0.086375
32.500000	1	0.082500
32.516667	1	0.079250
32.533333	1	0.075750
32.550000	1	0.072500
32.566667	1	0.070625
32.583333	1	0.068125
32.600000	1	0.066875
32.616667	1	0.065250
32.633333	1	0.063375
32.650000	1	0.062125
32.666667	1	0.060375
32.683333	1	0.058875
32.700000	1	0.057625
32.716667	1	0.056500
32.733333	1	0.055625
32.750000	1	0.054875
32.766667	1	0.053500
32.783333	1	0.053000
32.800000	1	0.052375
32.816667	1	0.051375
32.833333	1	0.050750
32.850000	1	0.050000
32.866667	1	0.048875
32.883333	1	0.047875
32.900000	1	0.047125
32.916667	1	0.046500
32.933333	1	0.046125
32.950000	1	0.045500
32.966667	1	0.045250
32.983333	1	0.044375
33.000000	1	0.044500
33.016667	1	0.043750
33.033333	1	0.042750
33.050000	1	0.043000
33.066667	1	0.042125
33.083333	1	0.042000
33.100000	1	0.041625
33.116667	1	0.041500
33.133333	1	0.041250
33.150000	1	0.040625
33.166667	1	0.040500
33.183333	1	0.040000
33.200000	1	0.039750
33.216667	1	0.040000
33.233333	1	0.040000
33.250000	1	0.039375
33.266667	1	0.038625
33.283333	1	0.038500
33.300000	1	0.038625
33.316667	1	0.038750
33.333333	1	0.039250
33.350000	1	0.039625
33.366667	1	0.040500
33.383333	1	0.041125
33.400000	1	0.042250
33.416667	1	0.043625
33.433333	1	0.044750
33.450000	1	0.046000
33.466667	1	0.047750
33.483333	1	0.049125
33.500000	1	0.050500
33.516667	1	0.052625
33.533333	1	0.054875
33.550000	1	0.057625
33.566667	1	0.059250
33.583333	1	0.061750
33.600000	1	0.064375
33.616667	1	0.066750
33.633333	1	0.069000
33.650000	1	0.071000
33.666667	1	0.072875
33.683333	1	0.074750
33.700000	1	0.076250
33.716667	1	0.078375
33.733333	1	0.080000
33.750000	1	0.081625
33.766667	1	0.082875
33.783333	1	0.084250
33.800000	1	0.084750
33.816667	1	0.085250
33.833333	1	0.085125
33.850000	1	0.085125
33.866667	1	0.085500
33.883333	1	0.085250
33.900000	1	0.085125
33.916667	1	0.084375
33.933333	1	0.084000
33.950000	1	0.083250
33.966667	1	0.082625
33.983333	1	0.081125
34.000000	1	0.080625
34.016667	1	0.079500
34.033333	1	0.078375
34.050000	1	0.077625
34.066667	1	0.076125
34.083333	1	0.075500
34.100000	1	0.074875
34.116667	1	0.073750
34.133333	1	0.072500
34.150000	1	0.072375
34.166667	1	0.072125
34.183333	1	0.071625
34.200000	1	0.070500
34.216667	1	0.070250
34.233333	1	0.069375
34.250000	1	0.070250
34.266667	1	0.070500
34.283333	1	0.071000
34.300000	1	0.070625
34.316667	1	0.070750
34.333333	1	0.071625
34.350000	1	0.071500
34.366667	1	0.072000
34.383333	1	0.072500
34.400000	1	0.073000
34.416667	1	0.073625
34.433333	1	0.074625
34.450000	1	0.074875
34.466667	1	0.076250
34.483333	1	0.077625
34.500000	1	0.078750
34.516667	1	0.079000
34.533333	1	0.079500
34.550000	1	0.080000
34.566667	1	0.080875
34.583333	1	0.081375
34.600000	1	0.081500
34.616667	1	0.082125
34.633333	1	0.082500
34.650000	1	0.082750
34.666667	1	0.083000
34.683333	1	0.083125
34.700000	1	0.082875
34.716667	1	0.083000
34.733333	1	0.083250
34.750000	1	0.082750
34.766667	1	0.082750
34.783333	1	0.082250
34.800000	1	0.082000
34.816667	1	0.081875
34.833333	1	0.081625
34.850000	1	0.080875
34.866667	1	0.080375
34.883333	1	0.079875
34.900000	1	0.079250
34.916667	1	0.079375
34.933333	1	0.079750
34.950000	1	0.080500
34.966667	1	0.080625
34.983333	1	0.079750
35.000000	1	0.079250
35.016667	1	0.079875
35.033333	1	0.080250
35.050000	1	0.081250
35.066667	1	0.081500
35.083333	1	0.082500
35.100000	1	0.084000
35.116667	1	0.085125
35.133333	1	0.086000
35.150000	1	0.086000
35.166667	1	0.086875
35.183333	1	0.088375
35.200000	1	0.089000
35.216667	1	0.090250
35.233333	1	0.091250
35.250000	1	0.092625
35.266667	1	0.093875
35.283333	1	0.094375
35.300000	1	0.095500
35.316667	1	0.096500
35.333333	1	0.098250
35.350000	1	0.099000
35.366667	1	0.100750
35.383333	1	0.101375
35.400000	1	0.102125
35.416667	1	0.103250
35.433333	1	0.103875
35.450000	1	0.104125
35.466667	1	0.104375
35.483333	1	0.104875
35.500000	1	0.105625
35.516667	1	0.106000
35.533333	1	0.105875
35.550000	1	0.106125
35.566667	1	0.106250
35.583333	1	0.105625
35.600000	1	0.105125
35.616667	1	0.104125
35.633333	1	0.103000
35.650000	1	0.101750
35.666667	1	0.100250
35.683333	1	0.099250
35.700000	1	0.097625
35.716667	1	0.095500
35.733333	1	0.094000
35.750000	1	0.091875
35.766667	1	0.090375
35.783333	1	0.088375
35.800000	1	0.085750
35.816667	1	0.083500
35.833333	1	0.081125
35.850000	1	0.078500
35.866667	1	0.076000
35.883333	1	0.074375
35.900000	1	0.071500
35.916667	1	0.069250
35.933333	1	0.067375
35.950000	1	0.065000
35.966667	1	0.063500
35.983333	1	0.060875
36.000000	1	0.058750
36.016667	1	0.057125
36.033333	1	0.055250
36.050000	1	0.054125
36.066667	1	0.052875
36.083333	1	0.051250
36.100000	1	0.049750
36.116667	1	0.048250
36.133333	1	0.046750
36.150000	1	0.045375
36.166667	1	0.044250
36.183333	1	0.043000
36.200000	1	0.041875
36.216667	1	0.041250
36.233333	1	0.039625
36.250000	1	0.038250
36.266667	1	0.036750
36.283333	1	0.036000
36.300000	1	0.035750
36.316667	1	0.035500
36.333333	1	0.034500
36.350000	1	0.033250
36.366667	1	0.032000
36.383333	1	0.031500
36.400000	1	0.030500
36.416667	1	0.029500
36.433333	1	0.029125
36.450000	1	0.027875
36.466667	1	0.027750
36.483333	1	0.026625
36.500000	1	0.025375
36.516667	1	0.024875
36.533333	1	0.024000
36.550000	1	0.023375
36.566667	1	0.022875
36.583333	1	0.021750
36.600000	1	0.021000
36.616667	1	0.020125
36.633333	1	0.019375
36.650000	1	0.018625
36.666667	1	0.018625
36.683333	1	0.017375
36.700000	1	0.016875
36.716667	1	0.015625
36.733333	1	0.015500
36.750000	1	0.015000
36.766667	1	0.014625
36.783333	1	0.014875
36.800000	1	0.015250
36.816667	1	0.015375
36.833333	1	0.015250
36.850000	1	0.014625
36.866667	1	0.015375
36.883333	1	0.015500
36.900000	1	0.015625
36.916667	1	0.016375
36.933333	1	0.016375
36.950000	1	0.016875
36.966667	1	0.016875
36.983333	1	0.017625
37.000000	1	0.017875
37.016667	1	0.017750
37.033333	1	0.017750
37.050000	1	0.018000
37.066667	1	0.018750
37.083333	1	0.018750
37.100000	1	0.019000
37.116667	1	0.019750
37.133333	1	0.019875
37.150000	1	0.020375
37.166667	1	0.021125
37.183333	1	0.021250
37.200000	1	0.020625
37.216667	1	0.021125
37.233333	1	0.021125
37.250000	1	0.021750
37.266667	1	0.021750
37.283333	1	0.021500
37.300000	1	0.021750
37.316667	1	0.022250
37.333333	1	0.022125
37.350000	1	0.022500
37.366667	1	0.022750
37.383333	1	0.023000
37.400000	1	0.023000
37.416667	1	0.023625
37.433333	1	0.024125
37.450000	1	0.024625
37.466667	1	0.025000
37.483333	1	0.024750
37.500000	1	0.024875
37.516667	1	0.024625
37.533333	1	0.024750
37.550000	1	0.024625
37.566667	1	0.024750
37.583333	1	0.024750
37.600000	1	0.023750
37.616667	1	0.023125
37.633333	1	0.023000
37.650000	1	0.022375
37.666667	1	0.022250
37.683333	1	0.021625
37.700000	1	0.020750
37.716667	1	0.020125
37.733333	1	0.018875
37.750000	1	0.017500
37.766667	1	0.016500
37.783333	1	0.015875
37.800000	1	0.014000
37.816667	1	0.012375
37.833333	1	0.011375
37.850000	1	0.010000
37.866667	1	0.008625
37.883333	1	0.007125
37.900000	1	0.006000
37.916667	1	0.004875
37.933333	1	0.003875
37.950000	1	0.003000
37.966667	1	0.002000
37.983333	1	0.000875
38.000000	1	-0.000625
38.016667	1	-0.001875
38.033333	1	-0.002625
38.050000	1	-0.003875
38.066667	1	-0.004625
38.083333	1	-0.005375
38.100000	1	-0.006000
38.116667	1	-0.007000
38.133333	1	-0.007250
38.150000	1	-0.007875
38.166667	1	-0.008125
38.183333	1	-0.008500
38.200000	1	-0.009000
38.216667	1	-0.009625
38.233333	1	-0.009500
38.250000	1	-0.009875
38.266667	1	-0.009000
38.283333	1	-0.009125
38.300000	1	-0.008375
38.316667	1	-0.007750
38.333333	1	-0.007750
38.350000	1	-0.007500
38.366667	1	-0.006750
38.383333	1	-0.006125
38.400000	1	-0.005375
38.416667	1	-0.004500
38.433333	1	-0.004000
38.450000	1	-0.003125
38.466667	1	-0.002000
38.483333	1	-0.001500
38.500000	1	-0.001000
38.516667	1	-0.000625
38.533333	1	0.000000
38.550000	1	0.000875
38.566667	1	0.001250
38.583333	1	0.001375
38.600000	1	0.001125
38.616667	1	0.002000
38.633333	1	0.001750
38.650000	1	0.001625
38.666667	1	0.001625
38.683333	1	0.001500
38.700000	1	0.001000
38.716667	1	0.000500
38.733333	1	0.000375
38.750000	1	-0.000250
38.766667	1	-0.000500
38.783333	1	-0.001875
38.800000	1	-0.002375
38.816667	1	-0.003250
38.833333	1	-0.003750
38.850000	1	-0.005250
38.866667	1	-0.005250
38.883333	1	-0.006875
38.900000	1	-0.007750
38.916667	1	-0.008000
38.933333	1	-0.008625
38.950000	1	-0.010250
38.966667	1	-0.011125
38.983333	1	-0.012125
39.000000	1	-0.012875
39.016667	1	-0.013375
39.033333	1	-0.014000
39.050000	1	-0.015375
39.066667	1	-0.016375
39.083333	1	-0.017750
39.100000	1	-0.017375
39.116667	1	-0.016750
39.133333	1	-0.017750
39.150000	1	-0.018750
39.166667	1	-0.019125
39.183333	1	-0.019125
39.200000	1	-0.020000
39.216667	1	-0.020250
39.233333	1	-0.020375
39.250000	1	-0.021000
39.266667	1	-0.021250
39.283333	1	-0.021875
39.300000	1	-0.022500
39.316667	1	-0.023000
39.333333	1	-0.023250
39.350000	1	-0.023625
39.366667	1	-0.024500
39.383333	1	-0.024750
39.400000	1	-0.024875
39.416667	1	-0.025125
39.433333	1	-0.026375
39.450000	1	-0.026625
39.466667	1	-0.027000
39.483333	1	-0.027750
39.500000	1	-0.028750
39.516667	1	-0.030250
39.533333	1	-0.030625
39.550000	1	-0.031750
39.566667	1	-0.032875
39.583333	1	-0.034125
39.600000	1	-0.034375
39.616667	1	-0.035500
39.633333	1	-0.035875
39.650000	1	-0.036625
39.666667	1	-0.037500
39.683333	1	-0.038375
39.700000	1	-0.038875
39.716667	1	-0.039125
39.733333	1	-0.039875
39.750000	1	-0.040875
39.766667	1	-0.041750
39.783333	1	-0.042125
39.800000	1	-0.042875
39.816667	1	-0.043000
39.833333	1	-0.043625
39.850000	1	-0.043250
39.866667	1	-0.043000
39.883333	1	-0.043500
39.900000	1	-0.043125
39.916667	1	-0.043250
39.933333	1	-0.043875
39.950000	1	-0.043875
39.966667	1	-0.043625
39.983333	1	-0.043125
40.000000	1	-0.042625
