URL	chrom://bioreactor/micro_cm7/HPLC_Ultimate_3000/Users/markusar/20240708_MA_pHrange1.seq/687.smp/RI_1.channel/RI_1.chm
Channel	RI_1

Injection Information:
Data Vault	micro_cm7
Sequence	20240708_MA_pHrange1
Name	Pv2_20H_1
Number	37
Position	BD1
Comment	
Processing Method	
Instrument Method	run_25B_method
Type	Unknown
Status	Finished
Inject Time	09.07.2024 16:09:31 +02:00
Volume (µl)	20.0000
Dilution Factor	1.0000
Weight	1.0000

Chromatogram Data Information:
Time Min. (min)	0.000000
Time Max. (min)	40.000000
Data Points	2401
Detector	RI
Generating Data System	Chromeleon 7.3.2.11814
Exporting Data System	Chromeleon 7.3.2.0
Operator	Instrument Controller
Signal Quantity	Refractive 
Signal Unit	µRIU
Signal Min.	-0.109375
Signal Max.	84.606875
Channel	RI_1
Driver Name	RID520Driver.dll
Channel Type	Evaluation
Min. Step (s)	1
Max. Step (s)	1
Average Step (s)	1

Signal Parameter Information:
Signal Info	

Chromatogram Data:
Time (min)	Step (s)	Value (µRIU)
0.000000	n.a.	0.003500
0.016667	1	0.003250
0.033333	1	0.002625
0.050000	1	0.002750
0.066667	1	0.002750
0.083333	1	0.002625
0.100000	1	0.003750
0.116667	1	0.004125
0.133333	1	0.004500
0.150000	1	0.004250
0.166667	1	0.004625
0.183333	1	0.004750
0.200000	1	0.004000
0.216667	1	0.004000
0.233333	1	0.004250
0.250000	1	0.004500
0.266667	1	0.005000
0.283333	1	0.004875
0.300000	1	0.005125
0.316667	1	0.005000
0.333333	1	0.004500
0.350000	1	0.004125
0.366667	1	0.003250
0.383333	1	0.002375
0.400000	1	0.001625
0.416667	1	0.001375
0.433333	1	0.001875
0.450000	1	0.003125
0.466667	1	0.004625
0.483333	1	0.005250
0.500000	1	0.005750
0.516667	1	0.006125
0.533333	1	0.004375
0.550000	1	0.003000
0.566667	1	0.000875
0.583333	1	-0.001000
0.600000	1	-0.004125
0.616667	1	-0.006000
0.633333	1	-0.007125
0.650000	1	-0.008375
0.666667	1	-0.009250
0.683333	1	-0.009500
0.700000	1	-0.010000
0.716667	1	-0.011125
0.733333	1	-0.011250
0.750000	1	-0.010875
0.766667	1	-0.010500
0.783333	1	-0.010625
0.800000	1	-0.011000
0.816667	1	-0.010125
0.833333	1	-0.009875
0.850000	1	-0.010125
0.866667	1	-0.010125
0.883333	1	-0.010125
0.900000	1	-0.009375
0.916667	1	-0.008750
0.933333	1	-0.008000
0.950000	1	-0.008250
0.966667	1	-0.007875
0.983333	1	-0.007125
1.000000	1	-0.007000
1.016667	1	-0.007000
1.033333	1	-0.006875
1.050000	1	-0.005875
1.066667	1	-0.005875
1.083333	1	-0.005250
1.100000	1	-0.004375
1.116667	1	-0.003375
1.133333	1	-0.003500
1.150000	1	-0.003125
1.166667	1	-0.003875
1.183333	1	-0.004000
1.200000	1	-0.003750
1.216667	1	-0.003875
1.233333	1	-0.004375
1.250000	1	-0.004500
1.266667	1	-0.005000
1.283333	1	-0.005250
1.300000	1	-0.006125
1.316667	1	-0.006500
1.333333	1	-0.007375
1.350000	1	-0.008000
1.366667	1	-0.008625
1.383333	1	-0.009375
1.400000	1	-0.009875
1.416667	1	-0.011250
1.433333	1	-0.011875
1.450000	1	-0.012500
1.466667	1	-0.013250
1.483333	1	-0.014750
1.500000	1	-0.015250
1.516667	1	-0.015625
1.533333	1	-0.016625
1.550000	1	-0.017125
1.566667	1	-0.018125
1.583333	1	-0.019125
1.600000	1	-0.019625
1.616667	1	-0.020250
1.633333	1	-0.021500
1.650000	1	-0.021875
1.666667	1	-0.021625
1.683333	1	-0.021250
1.700000	1	-0.021125
1.716667	1	-0.021625
1.733333	1	-0.022000
1.750000	1	-0.022125
1.766667	1	-0.022125
1.783333	1	-0.021875
1.800000	1	-0.022375
1.816667	1	-0.021875
1.833333	1	-0.021125
1.850000	1	-0.020500
1.866667	1	-0.019625
1.883333	1	-0.019375
1.900000	1	-0.019250
1.916667	1	-0.017875
1.933333	1	-0.018000
1.950000	1	-0.017250
1.966667	1	-0.016750
1.983333	1	-0.016000
2.000000	1	-0.015000
2.016667	1	-0.014250
2.033333	1	-0.014250
2.050000	1	-0.013500
2.066667	1	-0.013125
2.083333	1	-0.011750
2.100000	1	-0.011875
2.116667	1	-0.011625
2.133333	1	-0.011250
2.150000	1	-0.011125
2.166667	1	-0.011375
2.183333	1	-0.012125
2.200000	1	-0.012875
2.216667	1	-0.013375
2.233333	1	-0.013250
2.250000	1	-0.013500
2.266667	1	-0.015125
2.283333	1	-0.016375
2.300000	1	-0.018125
2.316667	1	-0.019375
2.333333	1	-0.020625
2.350000	1	-0.021750
2.366667	1	-0.023250
2.383333	1	-0.025000
2.400000	1	-0.025875
2.416667	1	-0.026875
2.433333	1	-0.027750
2.450000	1	-0.029000
2.466667	1	-0.030500
2.483333	1	-0.031375
2.500000	1	-0.031875
2.516667	1	-0.032375
2.533333	1	-0.033750
2.550000	1	-0.034250
2.566667	1	-0.034625
2.583333	1	-0.034750
2.600000	1	-0.034375
2.616667	1	-0.033625
2.633333	1	-0.033250
2.650000	1	-0.032750
2.666667	1	-0.032125
2.683333	1	-0.032875
2.700000	1	-0.032250
2.716667	1	-0.030750
2.733333	1	-0.029875
2.750000	1	-0.029250
2.766667	1	-0.028000
2.783333	1	-0.026375
2.800000	1	-0.025500
2.816667	1	-0.024625
2.833333	1	-0.023750
2.850000	1	-0.022875
2.866667	1	-0.021500
2.883333	1	-0.020375
2.900000	1	-0.019250
2.916667	1	-0.018125
2.933333	1	-0.016750
2.950000	1	-0.015625
2.966667	1	-0.015000
2.983333	1	-0.013875
3.000000	1	-0.013000
3.016667	1	-0.011375
3.033333	1	-0.010125
3.050000	1	-0.009250
3.066667	1	-0.007500
3.083333	1	-0.006625
3.100000	1	-0.005125
3.116667	1	-0.003750
3.133333	1	-0.003000
3.150000	1	-0.002250
3.166667	1	-0.001000
3.183333	1	0.000625
3.200000	1	0.000625
3.216667	1	0.001750
3.233333	1	0.002875
3.250000	1	0.004250
3.266667	1	0.005250
3.283333	1	0.005500
3.300000	1	0.006750
3.316667	1	0.007875
3.333333	1	0.008875
3.350000	1	0.010375
3.366667	1	0.011625
3.383333	1	0.012625
3.400000	1	0.014250
3.416667	1	0.015500
3.433333	1	0.016875
3.450000	1	0.018500
3.466667	1	0.019500
3.483333	1	0.021125
3.500000	1	0.022000
3.516667	1	0.022750
3.533333	1	0.023750
3.550000	1	0.024625
3.566667	1	0.025750
3.583333	1	0.026250
3.600000	1	0.027625
3.616667	1	0.028625
3.633333	1	0.030125
3.650000	1	0.030500
3.666667	1	0.031000
3.683333	1	0.032000
3.700000	1	0.032875
3.716667	1	0.033000
3.733333	1	0.033500
3.750000	1	0.033750
3.766667	1	0.034250
3.783333	1	0.034500
3.800000	1	0.034500
3.816667	1	0.035000
3.833333	1	0.035375
3.850000	1	0.035375
3.866667	1	0.035750
3.883333	1	0.035625
3.900000	1	0.035500
3.916667	1	0.036000
3.933333	1	0.036000
3.950000	1	0.036500
3.966667	1	0.036250
3.983333	1	0.036125
4.000000	1	0.035875
4.016667	1	0.036625
4.033333	1	0.036750
4.050000	1	0.036875
4.066667	1	0.037250
4.083333	1	0.037750
4.100000	1	0.037750
4.116667	1	0.038250
4.133333	1	0.038125
4.150000	1	0.038500
4.166667	1	0.038375
4.183333	1	0.038750
4.200000	1	0.039000
4.216667	1	0.039000
4.233333	1	0.039250
4.250000	1	0.039500
4.266667	1	0.039750
4.283333	1	0.040000
4.300000	1	0.040375
4.316667	1	0.040625
4.333333	1	0.040875
4.350000	1	0.042125
4.366667	1	0.043000
4.383333	1	0.043375
4.400000	1	0.044375
4.416667	1	0.045750
4.433333	1	0.045875
4.450000	1	0.046125
4.466667	1	0.047625
4.483333	1	0.048875
4.500000	1	0.049625
4.516667	1	0.050125
4.533333	1	0.051250
4.550000	1	0.051875
4.566667	1	0.053250
4.583333	1	0.054375
4.600000	1	0.056250
4.616667	1	0.057750
4.633333	1	0.059125
4.650000	1	0.060125
4.666667	1	0.062000
4.683333	1	0.064250
4.700000	1	0.066000
4.716667	1	0.067750
4.733333	1	0.069500
4.750000	1	0.071250
4.766667	1	0.073000
4.783333	1	0.075625
4.800000	1	0.078125
4.816667	1	0.080875
4.833333	1	0.083500
4.850000	1	0.086250
4.866667	1	0.088250
4.883333	1	0.091250
4.900000	1	0.094750
4.916667	1	0.097625
4.933333	1	0.100500
4.950000	1	0.103750
4.966667	1	0.108375
4.983333	1	0.111625
5.000000	1	0.115125
5.016667	1	0.119250
5.033333	1	0.123375
5.050000	1	0.128000
5.066667	1	0.131875
5.083333	1	0.136000
5.100000	1	0.140625
5.116667	1	0.144625
5.133333	1	0.149125
5.150000	1	0.153625
5.166667	1	0.157750
5.183333	1	0.162250
5.200000	1	0.165750
5.216667	1	0.170125
5.233333	1	0.173625
5.250000	1	0.177875
5.266667	1	0.182625
5.283333	1	0.186750
5.300000	1	0.190625
5.316667	1	0.194375
5.333333	1	0.197625
5.350000	1	0.201625
5.366667	1	0.205375
5.383333	1	0.209250
5.400000	1	0.213125
5.416667	1	0.216750
5.433333	1	0.219750
5.450000	1	0.223000
5.466667	1	0.225625
5.483333	1	0.227875
5.500000	1	0.229750
5.516667	1	0.232125
5.533333	1	0.234000
5.550000	1	0.235750
5.566667	1	0.236750
5.583333	1	0.238000
5.600000	1	0.239000
5.616667	1	0.240125
5.633333	1	0.241375
5.650000	1	0.241750
5.666667	1	0.241125
5.683333	1	0.240250
5.700000	1	0.239375
5.716667	1	0.237875
5.733333	1	0.236250
5.750000	1	0.235250
5.766667	1	0.233500
5.783333	1	0.231500
5.800000	1	0.229000
5.816667	1	0.226500
5.833333	1	0.223750
5.850000	1	0.220375
5.866667	1	0.218000
5.883333	1	0.214125
5.900000	1	0.210250
5.916667	1	0.206750
5.933333	1	0.202750
5.950000	1	0.198125
5.966667	1	0.193625
5.983333	1	0.188125
6.000000	1	0.183000
6.016667	1	0.178500
6.033333	1	0.174875
6.050000	1	0.169750
6.066667	1	0.165250
6.083333	1	0.161000
6.100000	1	0.156250
6.116667	1	0.152000
6.133333	1	0.147125
6.150000	1	0.142500
6.166667	1	0.137500
6.183333	1	0.132625
6.200000	1	0.128250
6.216667	1	0.123375
6.233333	1	0.118875
6.250000	1	0.114625
6.266667	1	0.110250
6.283333	1	0.106125
6.300000	1	0.101875
6.316667	1	0.098750
6.333333	1	0.094500
6.350000	1	0.091250
6.366667	1	0.087375
6.383333	1	0.084000
6.400000	1	0.080500
6.416667	1	0.078000
6.433333	1	0.074125
6.450000	1	0.071375
6.466667	1	0.068500
6.483333	1	0.066000
6.500000	1	0.063375
6.516667	1	0.060750
6.533333	1	0.057875
6.550000	1	0.056125
6.566667	1	0.054000
6.583333	1	0.051750
6.600000	1	0.049625
6.616667	1	0.047250
6.633333	1	0.045500
6.650000	1	0.042875
6.666667	1	0.040625
6.683333	1	0.038750
6.700000	1	0.037375
6.716667	1	0.036375
6.733333	1	0.034750
6.750000	1	0.033625
6.766667	1	0.032250
6.783333	1	0.031250
6.800000	1	0.030625
6.816667	1	0.030500
6.833333	1	0.030000
6.850000	1	0.029875
6.866667	1	0.029625
6.883333	1	0.029875
6.900000	1	0.030125
6.916667	1	0.030250
6.933333	1	0.031000
6.950000	1	0.032250
6.966667	1	0.033125
6.983333	1	0.033875
7.000000	1	0.034375
7.016667	1	0.036000
7.033333	1	0.038000
7.050000	1	0.039750
7.066667	1	0.040750
7.083333	1	0.042000
7.100000	1	0.044250
7.116667	1	0.046250
7.133333	1	0.047750
7.150000	1	0.050625
7.166667	1	0.053000
7.183333	1	0.054750
7.200000	1	0.057000
7.216667	1	0.059125
7.233333	1	0.060875
7.250000	1	0.062250
7.266667	1	0.064125
7.283333	1	0.066375
7.300000	1	0.068375
7.316667	1	0.070250
7.333333	1	0.072375
7.350000	1	0.073375
7.366667	1	0.074375
7.383333	1	0.075750
7.400000	1	0.077250
7.416667	1	0.078375
7.433333	1	0.079125
7.450000	1	0.079625
7.466667	1	0.079375
7.483333	1	0.079750
7.500000	1	0.079875
7.516667	1	0.078625
7.533333	1	0.078000
7.550000	1	0.077250
7.566667	1	0.076000
7.583333	1	0.075250
7.600000	1	0.073375
7.616667	1	0.071500
7.633333	1	0.069250
7.650000	1	0.067250
7.666667	1	0.064375
7.683333	1	0.061625
7.700000	1	0.058625
7.716667	1	0.055875
7.733333	1	0.053000
7.750000	1	0.049750
7.766667	1	0.046375
7.783333	1	0.043125
7.800000	1	0.040125
7.816667	1	0.036625
7.833333	1	0.032875
7.850000	1	0.029375
7.866667	1	0.026375
7.883333	1	0.023000
7.900000	1	0.020250
7.916667	1	0.016625
7.933333	1	0.013250
7.950000	1	0.010125
7.966667	1	0.006250
7.983333	1	0.002875
8.000000	1	-0.000250
8.016667	1	-0.003000
8.033333	1	-0.005125
8.050000	1	-0.006750
8.066667	1	-0.008875
8.083333	1	-0.011500
8.100000	1	-0.014000
8.116667	1	-0.015875
8.133333	1	-0.018250
8.150000	1	-0.020625
8.166667	1	-0.022500
8.183333	1	-0.024625
8.200000	1	-0.026875
8.216667	1	-0.028625
8.233333	1	-0.030875
8.250000	1	-0.032250
8.266667	1	-0.034125
8.283333	1	-0.035625
8.300000	1	-0.037000
8.316667	1	-0.038125
8.333333	1	-0.040125
8.350000	1	-0.041625
8.366667	1	-0.042625
8.383333	1	-0.044375
8.400000	1	-0.046250
8.416667	1	-0.047250
8.433333	1	-0.048000
8.450000	1	-0.048500
8.466667	1	-0.048500
8.483333	1	-0.049000
8.500000	1	-0.049000
8.516667	1	-0.049000
8.533333	1	-0.049000
8.550000	1	-0.048250
8.566667	1	-0.047375
8.583333	1	-0.046125
8.600000	1	-0.045625
8.616667	1	-0.044625
8.633333	1	-0.042500
8.650000	1	-0.041375
8.666667	1	-0.040000
8.683333	1	-0.037750
8.700000	1	-0.035250
8.716667	1	-0.032500
8.733333	1	-0.030500
8.750000	1	-0.027500
8.766667	1	-0.024875
8.783333	1	-0.021625
8.800000	1	-0.019375
8.816667	1	-0.016375
8.833333	1	-0.014125
8.850000	1	-0.012125
8.866667	1	-0.009375
8.883333	1	-0.007250
8.900000	1	-0.005000
8.916667	1	-0.002625
8.933333	1	0.000000
8.950000	1	0.002250
8.966667	1	0.004000
8.983333	1	0.005125
9.000000	1	0.006375
9.016667	1	0.007750
9.033333	1	0.009125
9.050000	1	0.010125
9.066667	1	0.010875
9.083333	1	0.012125
9.100000	1	0.012250
9.116667	1	0.012500
9.133333	1	0.012625
9.150000	1	0.012375
9.166667	1	0.012375
9.183333	1	0.012375
9.200000	1	0.012000
9.216667	1	0.011375
9.233333	1	0.011000
9.250000	1	0.010000
9.266667	1	0.008750
9.283333	1	0.008500
9.300000	1	0.007875
9.316667	1	0.006250
9.333333	1	0.005000
9.350000	1	0.004000
9.366667	1	0.003625
9.383333	1	0.001500
9.400000	1	0.000875
9.416667	1	-0.000625
9.433333	1	-0.002375
9.450000	1	-0.003875
9.466667	1	-0.004750
9.483333	1	-0.006000
9.500000	1	-0.006750
9.516667	1	-0.007375
9.533333	1	-0.008375
9.550000	1	-0.010000
9.566667	1	-0.011125
9.583333	1	-0.012125
9.600000	1	-0.013500
9.616667	1	-0.014750
9.633333	1	-0.015125
9.650000	1	-0.016375
9.666667	1	-0.017125
9.683333	1	-0.018125
9.700000	1	-0.018875
9.716667	1	-0.019875
9.733333	1	-0.020625
9.750000	1	-0.021625
9.766667	1	-0.022625
9.783333	1	-0.023500
9.800000	1	-0.024000
9.816667	1	-0.025000
9.833333	1	-0.026250
9.850000	1	-0.027125
9.866667	1	-0.028250
9.883333	1	-0.029000
9.900000	1	-0.029125
9.916667	1	-0.030000
9.933333	1	-0.031500
9.950000	1	-0.031875
9.966667	1	-0.032000
9.983333	1	-0.032250
10.000000	1	-0.031750
10.016667	1	-0.030875
10.033333	1	-0.029375
10.050000	1	-0.027375
10.066667	1	-0.024500
10.083333	1	-0.021500
10.100000	1	-0.018000
10.116667	1	-0.013250
10.133333	1	-0.007250
10.150000	1	-0.000625
10.166667	1	0.006625
10.183333	1	0.015125
10.200000	1	0.025375
10.216667	1	0.035875
10.233333	1	0.049250
10.250000	1	0.063375
10.266667	1	0.079625
10.283333	1	0.097500
10.300000	1	0.116875
10.316667	1	0.138375
10.333333	1	0.160375
10.350000	1	0.182375
10.366667	1	0.202750
10.383333	1	0.217500
10.400000	1	0.222875
10.416667	1	0.212625
10.433333	1	0.183500
10.450000	1	0.132750
10.466667	1	0.062000
10.483333	1	-0.019250
10.500000	1	-0.089000
10.516667	1	-0.109375
10.533333	1	-0.028000
10.550000	1	0.225750
10.566667	1	0.730375
10.583333	1	1.569500
10.600000	1	2.820750
10.616667	1	4.549250
10.633333	1	6.805125
10.650000	1	9.622500
10.666667	1	13.023625
10.683333	1	17.017875
10.700000	1	21.602375
10.716667	1	26.763375
10.733333	1	32.471750
10.750000	1	38.678000
10.766667	1	45.309125
10.783333	1	52.265500
10.800000	1	59.386375
10.816667	1	66.416750
10.833333	1	72.967500
10.850000	1	78.496250
10.866667	1	82.314875
10.883333	1	83.703000
10.900000	1	82.133375
10.916667	1	77.527125
10.933333	1	70.354125
10.950000	1	61.514875
10.966667	1	52.053625
10.983333	1	42.871625
11.000000	1	34.574375
11.016667	1	27.460000
11.033333	1	21.593125
11.050000	1	16.889750
11.066667	1	13.199750
11.083333	1	10.353375
11.100000	1	8.185000
11.116667	1	6.545625
11.133333	1	5.312250
11.150000	1	4.384125
11.166667	1	3.684000
11.183333	1	3.151875
11.200000	1	2.744625
11.216667	1	2.428500
11.233333	1	2.179625
11.250000	1	1.980875
11.266667	1	1.819375
11.283333	1	1.686500
11.300000	1	1.575375
11.316667	1	1.481500
11.333333	1	1.401500
11.350000	1	1.332625
11.366667	1	1.273875
11.383333	1	1.221000
11.400000	1	1.176250
11.416667	1	1.137250
11.433333	1	1.103625
11.450000	1	1.074125
11.466667	1	1.049375
11.483333	1	1.028000
11.500000	1	1.009375
11.516667	1	0.992500
11.533333	1	0.978000
11.550000	1	0.965875
11.566667	1	0.955250
11.583333	1	0.947000
11.600000	1	0.940375
11.616667	1	0.934875
11.633333	1	0.930875
11.650000	1	0.928875
11.666667	1	0.927875
11.683333	1	0.929125
11.700000	1	0.931750
11.716667	1	0.935375
11.733333	1	0.940625
11.750000	1	0.946875
11.766667	1	0.955000
11.783333	1	0.963375
11.800000	1	0.972875
11.816667	1	0.983250
11.833333	1	0.993125
11.850000	1	1.002750
11.866667	1	1.011875
11.883333	1	1.020125
11.900000	1	1.027625
11.916667	1	1.034500
11.933333	1	1.040875
11.950000	1	1.045875
11.966667	1	1.050125
11.983333	1	1.054500
12.000000	1	1.058500
12.016667	1	1.061875
12.033333	1	1.065125
12.050000	1	1.069250
12.066667	1	1.073375
12.083333	1	1.077875
12.100000	1	1.082375
12.116667	1	1.087375
12.133333	1	1.093125
12.150000	1	1.098750
12.166667	1	1.105250
12.183333	1	1.112625
12.200000	1	1.120875
12.216667	1	1.130125
12.233333	1	1.140750
12.250000	1	1.153000
12.266667	1	1.168375
12.283333	1	1.187875
12.300000	1	1.210500
12.316667	1	1.240375
12.333333	1	1.278875
12.350000	1	1.328750
12.366667	1	1.393125
12.383333	1	1.476875
12.400000	1	1.584375
12.416667	1	1.720000
12.433333	1	1.889500
12.450000	1	2.099500
12.466667	1	2.356000
12.483333	1	2.664500
12.500000	1	3.029375
12.516667	1	3.454000
12.533333	1	3.940125
12.550000	1	4.486750
12.566667	1	5.089375
12.583333	1	5.741375
12.600000	1	6.432875
12.616667	1	7.149625
12.633333	1	7.877250
12.650000	1	8.601500
12.666667	1	9.308000
12.683333	1	9.983875
12.700000	1	10.622375
12.716667	1	11.219125
12.733333	1	11.773125
12.750000	1	12.291125
12.766667	1	12.781250
12.783333	1	13.253625
12.800000	1	13.720250
12.816667	1	14.190375
12.833333	1	14.675125
12.850000	1	15.182750
12.866667	1	15.718875
12.883333	1	16.287125
12.900000	1	16.888875
12.916667	1	17.524375
12.933333	1	18.193375
12.950000	1	18.894000
12.966667	1	19.623875
12.983333	1	20.382000
13.000000	1	21.165500
13.016667	1	21.972625
13.033333	1	22.803375
13.050000	1	23.657375
13.066667	1	24.533125
13.083333	1	25.430500
13.100000	1	26.348625
13.116667	1	27.286250
13.133333	1	28.243375
13.150000	1	29.219250
13.166667	1	30.214625
13.183333	1	31.228875
13.200000	1	32.260375
13.216667	1	33.311250
13.233333	1	34.381125
13.250000	1	35.472625
13.266667	1	36.584375
13.283333	1	37.718125
13.300000	1	38.874125
13.316667	1	40.052250
13.333333	1	41.253500
13.350000	1	42.476375
13.366667	1	43.722500
13.383333	1	44.992875
13.400000	1	46.285875
13.416667	1	47.604500
13.433333	1	48.949875
13.450000	1	50.323625
13.466667	1	51.725625
13.483333	1	53.157625
13.500000	1	54.619750
13.516667	1	56.110750
13.533333	1	57.632125
13.550000	1	59.183875
13.566667	1	60.766625
13.583333	1	62.381625
13.600000	1	64.027750
13.616667	1	65.706625
13.633333	1	67.421250
13.650000	1	69.174250
13.666667	1	70.964625
13.683333	1	72.795625
13.700000	1	74.664750
13.716667	1	76.573000
13.733333	1	78.507750
13.750000	1	80.432375
13.766667	1	82.240375
13.783333	1	83.729125
13.800000	1	84.606875
13.816667	1	84.538625
13.833333	1	83.193875
13.850000	1	80.275500
13.866667	1	75.575750
13.883333	1	69.087875
13.900000	1	61.128375
13.916667	1	52.353625
13.933333	1	43.561625
13.950000	1	35.446625
13.966667	1	28.433875
13.983333	1	22.660375
14.000000	1	18.056000
14.016667	1	14.455000
14.033333	1	11.679500
14.050000	1	9.567000
14.066667	1	7.978750
14.083333	1	6.798375
14.100000	1	5.926875
14.116667	1	5.283500
14.133333	1	4.805875
14.150000	1	4.448125
14.166667	1	4.174375
14.183333	1	3.961000
14.200000	1	3.791125
14.216667	1	3.652250
14.233333	1	3.536250
14.250000	1	3.437250
14.266667	1	3.351000
14.283333	1	3.274750
14.300000	1	3.207500
14.316667	1	3.147625
14.333333	1	3.093500
14.350000	1	3.045125
14.366667	1	3.003375
14.383333	1	2.968250
14.400000	1	2.940500
14.416667	1	2.922625
14.433333	1	2.915750
14.450000	1	2.924000
14.466667	1	2.953125
14.483333	1	3.010375
14.500000	1	3.105875
14.516667	1	3.256125
14.533333	1	3.479625
14.550000	1	3.806125
14.566667	1	4.269750
14.583333	1	4.917750
14.600000	1	5.807000
14.616667	1	7.006375
14.633333	1	8.593250
14.650000	1	10.649625
14.666667	1	13.255250
14.683333	1	16.478875
14.700000	1	20.364750
14.716667	1	24.926250
14.733333	1	30.138625
14.750000	1	35.921000
14.766667	1	42.135250
14.783333	1	48.584500
14.800000	1	55.036625
14.816667	1	61.220750
14.833333	1	66.849875
14.850000	1	71.639000
14.866667	1	75.337000
14.883333	1	77.747500
14.900000	1	78.751000
14.916667	1	78.315875
14.933333	1	76.499250
14.950000	1	73.437750
14.966667	1	69.334875
14.983333	1	64.435625
15.000000	1	58.996375
15.016667	1	53.267000
15.033333	1	47.478625
15.050000	1	41.829875
15.066667	1	36.476250
15.083333	1	31.528875
15.100000	1	27.058500
15.116667	1	23.093125
15.133333	1	19.630250
15.150000	1	16.647625
15.166667	1	14.109375
15.183333	1	11.969500
15.200000	1	10.179875
15.216667	1	8.692750
15.233333	1	7.464250
15.250000	1	6.454375
15.266667	1	5.629625
15.283333	1	4.958750
15.300000	1	4.415625
15.316667	1	3.980125
15.333333	1	3.632500
15.350000	1	3.358000
15.366667	1	3.143000
15.383333	1	2.977625
15.400000	1	2.853500
15.416667	1	2.760250
15.433333	1	2.693750
15.450000	1	2.647500
15.466667	1	2.613750
15.483333	1	2.589500
15.500000	1	2.570000
15.516667	1	2.551750
15.533333	1	2.531625
15.550000	1	2.507750
15.566667	1	2.479000
15.583333	1	2.445375
15.600000	1	2.407875
15.616667	1	2.366625
15.633333	1	2.324000
15.650000	1	2.279875
15.666667	1	2.236250
15.683333	1	2.193000
15.700000	1	2.151875
15.716667	1	2.112625
15.733333	1	2.076125
15.750000	1	2.040625
15.766667	1	2.006250
15.783333	1	1.971500
15.800000	1	1.937125
15.816667	1	1.903125
15.833333	1	1.868375
15.850000	1	1.834125
15.866667	1	1.800250
15.883333	1	1.767250
15.900000	1	1.736250
15.916667	1	1.707375
15.933333	1	1.681125
15.950000	1	1.658000
15.966667	1	1.638500
15.983333	1	1.621750
16.000000	1	1.609375
16.016667	1	1.599750
16.033333	1	1.592625
16.050000	1	1.587375
16.066667	1	1.584000
16.083333	1	1.581000
16.100000	1	1.578375
16.116667	1	1.575250
16.133333	1	1.571250
16.150000	1	1.565375
16.166667	1	1.557625
16.183333	1	1.548500
16.200000	1	1.538375
16.216667	1	1.526250
16.233333	1	1.512750
16.250000	1	1.497625
16.266667	1	1.482250
16.283333	1	1.465000
16.300000	1	1.447250
16.316667	1	1.429250
16.333333	1	1.411750
16.350000	1	1.394000
16.366667	1	1.376875
16.383333	1	1.361375
16.400000	1	1.346625
16.416667	1	1.333625
16.433333	1	1.321625
16.450000	1	1.312625
16.466667	1	1.305875
16.483333	1	1.301750
16.500000	1	1.300250
16.516667	1	1.301500
16.533333	1	1.304500
16.550000	1	1.309000
16.566667	1	1.313875
16.583333	1	1.318625
16.600000	1	1.323500
16.616667	1	1.328000
16.633333	1	1.330375
16.650000	1	1.331500
16.666667	1	1.331625
16.683333	1	1.329750
16.700000	1	1.326250
16.716667	1	1.322750
16.733333	1	1.318875
16.750000	1	1.315125
16.766667	1	1.311750
16.783333	1	1.308125
16.800000	1	1.306500
16.816667	1	1.305625
16.833333	1	1.306125
16.850000	1	1.308000
16.866667	1	1.309375
16.883333	1	1.310125
16.900000	1	1.311375
16.916667	1	1.311625
16.933333	1	1.310750
16.950000	1	1.308500
16.966667	1	1.305875
16.983333	1	1.301875
17.000000	1	1.296250
17.016667	1	1.289500
17.033333	1	1.282125
17.050000	1	1.274750
17.066667	1	1.267375
17.083333	1	1.259750
17.100000	1	1.252250
17.116667	1	1.246625
17.133333	1	1.241875
17.150000	1	1.237625
17.166667	1	1.234000
17.183333	1	1.232250
17.200000	1	1.231375
17.216667	1	1.231000
17.233333	1	1.232375
17.250000	1	1.234375
17.266667	1	1.236750
17.283333	1	1.239000
17.300000	1	1.242750
17.316667	1	1.246375
17.333333	1	1.250000
17.350000	1	1.253875
17.366667	1	1.258125
17.383333	1	1.262750
17.400000	1	1.267250
17.416667	1	1.270750
17.433333	1	1.273375
17.450000	1	1.275500
17.466667	1	1.275750
17.483333	1	1.275000
17.500000	1	1.272875
17.516667	1	1.268750
17.533333	1	1.263000
17.550000	1	1.255125
17.566667	1	1.245125
17.583333	1	1.234750
17.600000	1	1.222500
17.616667	1	1.209000
17.633333	1	1.194125
17.650000	1	1.178625
17.666667	1	1.163000
17.683333	1	1.146250
17.700000	1	1.130375
17.716667	1	1.114375
17.733333	1	1.098000
17.750000	1	1.082625
17.766667	1	1.068125
17.783333	1	1.053875
17.800000	1	1.040375
17.816667	1	1.027500
17.833333	1	1.015250
17.850000	1	1.004125
17.866667	1	0.994500
17.883333	1	0.984750
17.900000	1	0.975875
17.916667	1	0.967625
17.933333	1	0.959625
17.950000	1	0.952250
17.966667	1	0.945250
17.983333	1	0.939125
18.000000	1	0.932000
18.016667	1	0.925500
18.033333	1	0.918000
18.050000	1	0.911250
18.066667	1	0.904500
18.083333	1	0.897500
18.100000	1	0.891125
18.116667	1	0.884750
18.133333	1	0.878500
18.150000	1	0.873000
18.166667	1	0.869125
18.183333	1	0.865000
18.200000	1	0.862500
18.216667	1	0.859875
18.233333	1	0.858000
18.250000	1	0.856750
18.266667	1	0.856625
18.283333	1	0.857125
18.300000	1	0.857500
18.316667	1	0.858750
18.333333	1	0.860250
18.350000	1	0.863250
18.366667	1	0.865750
18.383333	1	0.868625
18.400000	1	0.872125
18.416667	1	0.876375
18.433333	1	0.881250
18.450000	1	0.887750
18.466667	1	0.894875
18.483333	1	0.903875
18.500000	1	0.914000
18.516667	1	0.926500
18.533333	1	0.940125
18.550000	1	0.956875
18.566667	1	0.974750
18.583333	1	0.994875
18.600000	1	1.017000
18.616667	1	1.040375
18.633333	1	1.066500
18.650000	1	1.093875
18.666667	1	1.122875
18.683333	1	1.153750
18.700000	1	1.186000
18.716667	1	1.220250
18.733333	1	1.254875
18.750000	1	1.290500
18.766667	1	1.327000
18.783333	1	1.363625
18.800000	1	1.399750
18.816667	1	1.434125
18.833333	1	1.467625
18.850000	1	1.497750
18.866667	1	1.524875
18.883333	1	1.547375
18.900000	1	1.564500
18.916667	1	1.576000
18.933333	1	1.581625
18.950000	1	1.579875
18.966667	1	1.571375
18.983333	1	1.554500
19.000000	1	1.530625
19.016667	1	1.500250
19.033333	1	1.464375
19.050000	1	1.422375
19.066667	1	1.376375
19.083333	1	1.327125
19.100000	1	1.275750
19.116667	1	1.225250
19.133333	1	1.175500
19.150000	1	1.128125
19.166667	1	1.084625
19.183333	1	1.046500
19.200000	1	1.014250
19.216667	1	0.990500
19.233333	1	0.974500
19.250000	1	0.968375
19.266667	1	0.972125
19.283333	1	0.987875
19.300000	1	1.015875
19.316667	1	1.057500
19.333333	1	1.112125
19.350000	1	1.180125
19.366667	1	1.261500
19.383333	1	1.354125
19.400000	1	1.457250
19.416667	1	1.568000
19.433333	1	1.684000
19.450000	1	1.802750
19.466667	1	1.920375
19.483333	1	2.033875
19.500000	1	2.139500
19.516667	1	2.233375
19.533333	1	2.312250
19.550000	1	2.374125
19.566667	1	2.417500
19.583333	1	2.439375
19.600000	1	2.440750
19.616667	1	2.421375
19.633333	1	2.383125
19.650000	1	2.326750
19.666667	1	2.255625
19.683333	1	2.172750
19.700000	1	2.079125
19.716667	1	1.979625
19.733333	1	1.875625
19.750000	1	1.769250
19.766667	1	1.663875
19.783333	1	1.560625
19.800000	1	1.459750
19.816667	1	1.363750
19.833333	1	1.273500
19.850000	1	1.189625
19.866667	1	1.111500
19.883333	1	1.039000
19.900000	1	0.973500
19.916667	1	0.914375
19.933333	1	0.860375
19.950000	1	0.812375
19.966667	1	0.769375
19.983333	1	0.732125
20.000000	1	0.699875
20.016667	1	0.672000
20.033333	1	0.649375
20.050000	1	0.632125
20.066667	1	0.618250
20.083333	1	0.609750
20.100000	1	0.605375
20.116667	1	0.604625
20.133333	1	0.608000
20.150000	1	0.614375
20.166667	1	0.624750
20.183333	1	0.637625
20.200000	1	0.651750
20.216667	1	0.667750
20.233333	1	0.684250
20.250000	1	0.701625
20.266667	1	0.718250
20.283333	1	0.733000
20.300000	1	0.745625
20.316667	1	0.755500
20.333333	1	0.762250
20.350000	1	0.765875
20.366667	1	0.765875
20.383333	1	0.762125
20.400000	1	0.755625
20.416667	1	0.746125
20.433333	1	0.734500
20.450000	1	0.720875
20.466667	1	0.706750
20.483333	1	0.692750
20.500000	1	0.680250
20.516667	1	0.669875
20.533333	1	0.662875
20.550000	1	0.660250
20.566667	1	0.662500
20.583333	1	0.670500
20.600000	1	0.685750
20.616667	1	0.709000
20.633333	1	0.741000
20.650000	1	0.780875
20.666667	1	0.829250
20.683333	1	0.887000
20.700000	1	0.952000
20.716667	1	1.024250
20.733333	1	1.103000
20.750000	1	1.186625
20.766667	1	1.272875
20.783333	1	1.358500
20.800000	1	1.441625
20.816667	1	1.519250
20.833333	1	1.589000
20.850000	1	1.648875
20.866667	1	1.696250
20.883333	1	1.730000
20.900000	1	1.748000
20.916667	1	1.751375
20.933333	1	1.739000
20.950000	1	1.711250
20.966667	1	1.671125
20.983333	1	1.618500
21.000000	1	1.556750
21.016667	1	1.486375
21.033333	1	1.411000
21.050000	1	1.332875
21.066667	1	1.253250
21.083333	1	1.173500
21.100000	1	1.096750
21.116667	1	1.024375
21.133333	1	0.955875
21.150000	1	0.892375
21.166667	1	0.833500
21.183333	1	0.779500
21.200000	1	0.731000
21.216667	1	0.687500
21.233333	1	0.649250
21.250000	1	0.615250
21.266667	1	0.585625
21.283333	1	0.559750
21.300000	1	0.536750
21.316667	1	0.517375
21.333333	1	0.500625
21.350000	1	0.486250
21.366667	1	0.473500
21.383333	1	0.462375
21.400000	1	0.452250
21.416667	1	0.443250
21.433333	1	0.435875
21.450000	1	0.429500
21.466667	1	0.424500
21.483333	1	0.419375
21.500000	1	0.415250
21.516667	1	0.411500
21.533333	1	0.408750
21.550000	1	0.406250
21.566667	1	0.404250
21.583333	1	0.402750
21.600000	1	0.402250
21.616667	1	0.401875
21.633333	1	0.402625
21.650000	1	0.404750
21.666667	1	0.406750
21.683333	1	0.409875
21.700000	1	0.414000
21.716667	1	0.418375
21.733333	1	0.423750
21.750000	1	0.429500
21.766667	1	0.435500
21.783333	1	0.444000
21.800000	1	0.451875
21.816667	1	0.460500
21.833333	1	0.469375
21.850000	1	0.479500
21.866667	1	0.489875
21.883333	1	0.499625
21.900000	1	0.509250
21.916667	1	0.520000
21.933333	1	0.529750
21.950000	1	0.539375
21.966667	1	0.548875
21.983333	1	0.557625
22.000000	1	0.566375
22.016667	1	0.574625
22.033333	1	0.582000
22.050000	1	0.589500
22.066667	1	0.596250
22.083333	1	0.602250
22.100000	1	0.607625
22.116667	1	0.612250
22.133333	1	0.615875
22.150000	1	0.618125
22.166667	1	0.619875
22.183333	1	0.620250
22.200000	1	0.619250
22.216667	1	0.616875
22.233333	1	0.613250
22.250000	1	0.607750
22.266667	1	0.601750
22.283333	1	0.594125
22.300000	1	0.585250
22.316667	1	0.575375
22.333333	1	0.564625
22.350000	1	0.553000
22.366667	1	0.541000
22.383333	1	0.528000
22.400000	1	0.515125
22.416667	1	0.502125
22.433333	1	0.489625
22.450000	1	0.477750
22.466667	1	0.465250
22.483333	1	0.453375
22.500000	1	0.441875
22.516667	1	0.432000
22.533333	1	0.422125
22.550000	1	0.412750
22.566667	1	0.403875
22.583333	1	0.395625
22.600000	1	0.386875
22.616667	1	0.379125
22.633333	1	0.371750
22.650000	1	0.365875
22.666667	1	0.359000
22.683333	1	0.353750
22.700000	1	0.348000
22.716667	1	0.342250
22.733333	1	0.337500
22.750000	1	0.332250
22.766667	1	0.327375
22.783333	1	0.322750
22.800000	1	0.318875
22.816667	1	0.314125
22.833333	1	0.309375
22.850000	1	0.306250
22.866667	1	0.302875
22.883333	1	0.299875
22.900000	1	0.297250
22.916667	1	0.294875
22.933333	1	0.292625
22.950000	1	0.290625
22.966667	1	0.289000
22.983333	1	0.287875
23.000000	1	0.286500
23.016667	1	0.286500
23.033333	1	0.286875
23.050000	1	0.287625
23.066667	1	0.288500
23.083333	1	0.289625
23.100000	1	0.291125
23.116667	1	0.292750
23.133333	1	0.293875
23.150000	1	0.295500
23.166667	1	0.297500
23.183333	1	0.299000
23.200000	1	0.300875
23.216667	1	0.303125
23.233333	1	0.304625
23.250000	1	0.307250
23.266667	1	0.311125
23.283333	1	0.315250
23.300000	1	0.320500
23.316667	1	0.326875
23.333333	1	0.335000
23.350000	1	0.345875
23.366667	1	0.359875
23.383333	1	0.378000
23.400000	1	0.400875
23.416667	1	0.429500
23.433333	1	0.463750
23.450000	1	0.507000
23.466667	1	0.559750
23.483333	1	0.624375
23.500000	1	0.701250
23.516667	1	0.792500
23.533333	1	0.899375
23.550000	1	1.023000
23.566667	1	1.164875
23.583333	1	1.324625
23.600000	1	1.503125
23.616667	1	1.700000
23.633333	1	1.914875
23.650000	1	2.145250
23.666667	1	2.390000
23.683333	1	2.644500
23.700000	1	2.906500
23.716667	1	3.171125
23.733333	1	3.433125
23.750000	1	3.687125
23.766667	1	3.927750
23.783333	1	4.150000
23.800000	1	4.347125
23.816667	1	4.515750
23.833333	1	4.652625
23.850000	1	4.753250
23.866667	1	4.816625
23.883333	1	4.841125
23.900000	1	4.826500
23.916667	1	4.774875
23.933333	1	4.687875
23.950000	1	4.568125
23.966667	1	4.420000
23.983333	1	4.246875
24.000000	1	4.054125
24.016667	1	3.846250
24.033333	1	3.628500
24.050000	1	3.405625
24.066667	1	3.180875
24.083333	1	2.956875
24.100000	1	2.737625
24.116667	1	2.525625
24.133333	1	2.323125
24.150000	1	2.131125
24.166667	1	1.950625
24.183333	1	1.782625
24.200000	1	1.627875
24.216667	1	1.485875
24.233333	1	1.356875
24.250000	1	1.239625
24.266667	1	1.133750
24.283333	1	1.038000
24.300000	1	0.953375
24.316667	1	0.877875
24.333333	1	0.811625
24.350000	1	0.753375
24.366667	1	0.701875
24.383333	1	0.656625
24.400000	1	0.619125
24.416667	1	0.587250
24.433333	1	0.559875
24.450000	1	0.536625
24.466667	1	0.517125
24.483333	1	0.501000
24.500000	1	0.488375
24.516667	1	0.477875
24.533333	1	0.468750
24.550000	1	0.461000
24.566667	1	0.455000
24.583333	1	0.449250
24.600000	1	0.444625
24.616667	1	0.440000
24.633333	1	0.435250
24.650000	1	0.431125
24.666667	1	0.426625
24.683333	1	0.421625
24.700000	1	0.417375
24.716667	1	0.412625
24.733333	1	0.407750
24.750000	1	0.402125
24.766667	1	0.395625
24.783333	1	0.390500
24.800000	1	0.384125
24.816667	1	0.378375
24.833333	1	0.372625
24.850000	1	0.366500
24.866667	1	0.360250
24.883333	1	0.354500
24.900000	1	0.348625
24.916667	1	0.343625
24.933333	1	0.338500
24.950000	1	0.333750
24.966667	1	0.329000
24.983333	1	0.324500
25.000000	1	0.319625
25.016667	1	0.315500
25.033333	1	0.311875
25.050000	1	0.308250
25.066667	1	0.304750
25.083333	1	0.301500
25.100000	1	0.298250
25.116667	1	0.295375
25.133333	1	0.293000
25.150000	1	0.289500
25.166667	1	0.286500
25.183333	1	0.283250
25.200000	1	0.280250
25.216667	1	0.277750
25.233333	1	0.275000
25.250000	1	0.272625
25.266667	1	0.270250
25.283333	1	0.268375
25.300000	1	0.265750
25.316667	1	0.264375
25.333333	1	0.262625
25.350000	1	0.260875
25.366667	1	0.259375
25.383333	1	0.257750
25.400000	1	0.256500
25.416667	1	0.254875
25.433333	1	0.253875
25.450000	1	0.252375
25.466667	1	0.252250
25.483333	1	0.252250
25.500000	1	0.252125
25.516667	1	0.252375
25.533333	1	0.253000
25.550000	1	0.252875
25.566667	1	0.252250
25.583333	1	0.252875
25.600000	1	0.253250
25.616667	1	0.253375
25.633333	1	0.253750
25.650000	1	0.254500
25.666667	1	0.254375
25.683333	1	0.253750
25.700000	1	0.253500
25.716667	1	0.252750
25.733333	1	0.252375
25.750000	1	0.251875
25.766667	1	0.251750
25.783333	1	0.251625
25.800000	1	0.251750
25.816667	1	0.251500
25.833333	1	0.251875
25.850000	1	0.252250
25.866667	1	0.252750
25.883333	1	0.253625
25.900000	1	0.255500
25.916667	1	0.257500
25.933333	1	0.259750
25.950000	1	0.261750
25.966667	1	0.265000
25.983333	1	0.268125
26.000000	1	0.271875
26.016667	1	0.275875
26.033333	1	0.280625
26.050000	1	0.285375
26.066667	1	0.290625
26.083333	1	0.296375
26.100000	1	0.302000
26.116667	1	0.308000
26.133333	1	0.313750
26.150000	1	0.319625
26.166667	1	0.325625
26.183333	1	0.331000
26.200000	1	0.336375
26.216667	1	0.341500
26.233333	1	0.345500
26.250000	1	0.349375
26.266667	1	0.352875
26.283333	1	0.356375
26.300000	1	0.358375
26.316667	1	0.360125
26.333333	1	0.361250
26.350000	1	0.361500
26.366667	1	0.360625
26.383333	1	0.359250
26.400000	1	0.357375
26.416667	1	0.354500
26.433333	1	0.351375
26.450000	1	0.347000
26.466667	1	0.343000
26.483333	1	0.338500
26.500000	1	0.333875
26.516667	1	0.327750
26.533333	1	0.321750
26.550000	1	0.315250
26.566667	1	0.308250
26.583333	1	0.301500
26.600000	1	0.294625
26.616667	1	0.288125
26.633333	1	0.281500
26.650000	1	0.275250
26.666667	1	0.269500
26.683333	1	0.263125
26.700000	1	0.256875
26.716667	1	0.251125
26.733333	1	0.246250
26.750000	1	0.241875
26.766667	1	0.237250
26.783333	1	0.232125
26.800000	1	0.227250
26.816667	1	0.223875
26.833333	1	0.220625
26.850000	1	0.217750
26.866667	1	0.215000
26.883333	1	0.213375
26.900000	1	0.211750
26.916667	1	0.210875
26.933333	1	0.209750
26.950000	1	0.209375
26.966667	1	0.209125
26.983333	1	0.209125
27.000000	1	0.210125
27.016667	1	0.210875
27.033333	1	0.212625
27.050000	1	0.214625
27.066667	1	0.217375
27.083333	1	0.221375
27.100000	1	0.226625
27.116667	1	0.233000
27.133333	1	0.239125
27.150000	1	0.246875
27.166667	1	0.256375
27.183333	1	0.267125
27.200000	1	0.280875
27.216667	1	0.296500
27.233333	1	0.314875
27.250000	1	0.336125
27.266667	1	0.360500
27.283333	1	0.389625
27.300000	1	0.423125
27.316667	1	0.461750
27.333333	1	0.506125
27.350000	1	0.557750
27.366667	1	0.616500
27.383333	1	0.683125
27.400000	1	0.758875
27.416667	1	0.844750
27.433333	1	0.941875
27.450000	1	1.050000
27.466667	1	1.169500
27.483333	1	1.301375
27.500000	1	1.445250
27.516667	1	1.602875
27.533333	1	1.773000
27.550000	1	1.954625
27.566667	1	2.147625
27.583333	1	2.350125
27.600000	1	2.560125
27.616667	1	2.777375
27.633333	1	2.998750
27.650000	1	3.221750
27.666667	1	3.443625
27.683333	1	3.661750
27.700000	1	3.871875
27.716667	1	4.071375
27.733333	1	4.256875
27.750000	1	4.424625
27.766667	1	4.570875
27.783333	1	4.694625
27.800000	1	4.792375
27.816667	1	4.861750
27.833333	1	4.903625
27.850000	1	4.914750
27.866667	1	4.895125
27.883333	1	4.845750
27.900000	1	4.767125
27.916667	1	4.661000
27.933333	1	4.530000
27.950000	1	4.376625
27.966667	1	4.204750
27.983333	1	4.015625
28.000000	1	3.814000
28.016667	1	3.602875
28.033333	1	3.385750
28.050000	1	3.164875
28.066667	1	2.944750
28.083333	1	2.727500
28.100000	1	2.514500
28.116667	1	2.309875
28.133333	1	2.113875
28.150000	1	1.929625
28.166667	1	1.755750
28.183333	1	1.594500
28.200000	1	1.445000
28.216667	1	1.308125
28.233333	1	1.183000
28.250000	1	1.069500
28.266667	1	0.966375
28.283333	1	0.875125
28.300000	1	0.793375
28.316667	1	0.721000
28.333333	1	0.657250
28.350000	1	0.602250
28.366667	1	0.555375
28.383333	1	0.515000
28.400000	1	0.481500
28.416667	1	0.453125
28.433333	1	0.430750
28.450000	1	0.413250
28.466667	1	0.400875
28.483333	1	0.391250
28.500000	1	0.385375
28.516667	1	0.382375
28.533333	1	0.383250
28.550000	1	0.386125
28.566667	1	0.391375
28.583333	1	0.398250
28.600000	1	0.406750
28.616667	1	0.416375
28.633333	1	0.427500
28.650000	1	0.439250
28.666667	1	0.451750
28.683333	1	0.464750
28.700000	1	0.477750
28.716667	1	0.491125
28.733333	1	0.503875
28.750000	1	0.516125
28.766667	1	0.527750
28.783333	1	0.538500
28.800000	1	0.548375
28.816667	1	0.557500
28.833333	1	0.566750
28.850000	1	0.574250
28.866667	1	0.580375
28.883333	1	0.585250
28.900000	1	0.589375
28.916667	1	0.592125
28.933333	1	0.592750
28.950000	1	0.592875
28.966667	1	0.591625
28.983333	1	0.589125
29.000000	1	0.585000
29.016667	1	0.580500
29.033333	1	0.573625
29.050000	1	0.565250
29.066667	1	0.556500
29.083333	1	0.546625
29.100000	1	0.534625
29.116667	1	0.522625
29.133333	1	0.509875
29.150000	1	0.497125
29.166667	1	0.484000
29.183333	1	0.469875
29.200000	1	0.455625
29.216667	1	0.440750
29.233333	1	0.425875
29.250000	1	0.410500
29.266667	1	0.395250
29.283333	1	0.379875
29.300000	1	0.363875
29.316667	1	0.349000
29.333333	1	0.333750
29.350000	1	0.318750
29.366667	1	0.304750
29.383333	1	0.290375
29.400000	1	0.276750
29.416667	1	0.264250
29.433333	1	0.251000
29.450000	1	0.239000
29.466667	1	0.227000
29.483333	1	0.215750
29.500000	1	0.203875
29.516667	1	0.193250
29.533333	1	0.183750
29.550000	1	0.174500
29.566667	1	0.165625
29.583333	1	0.157500
29.600000	1	0.150125
29.616667	1	0.143625
29.633333	1	0.136625
29.650000	1	0.130750
29.666667	1	0.125250
29.683333	1	0.119625
29.700000	1	0.114875
29.716667	1	0.110250
29.733333	1	0.106125
29.750000	1	0.103000
29.766667	1	0.100375
29.783333	1	0.097500
29.800000	1	0.095000
29.816667	1	0.092625
29.833333	1	0.090500
29.850000	1	0.088375
29.866667	1	0.087000
29.883333	1	0.085500
29.900000	1	0.084125
29.916667	1	0.082375
29.933333	1	0.081750
29.950000	1	0.080875
29.966667	1	0.080125
29.983333	1	0.080375
30.000000	1	0.080125
30.016667	1	0.079625
30.033333	1	0.078500
30.050000	1	0.078250
30.066667	1	0.077500
30.083333	1	0.077000
30.100000	1	0.076750
30.116667	1	0.076000
30.133333	1	0.076250
30.150000	1	0.075875
30.166667	1	0.075875
30.183333	1	0.075875
30.200000	1	0.076000
30.216667	1	0.076125
30.233333	1	0.076750
30.250000	1	0.076875
30.266667	1	0.078000
30.283333	1	0.078500
30.300000	1	0.078750
30.316667	1	0.079625
30.333333	1	0.081000
30.350000	1	0.082500
30.366667	1	0.083875
30.383333	1	0.085375
30.400000	1	0.087000
30.416667	1	0.089625
30.433333	1	0.092125
30.450000	1	0.094875
30.466667	1	0.098250
30.483333	1	0.100875
30.500000	1	0.104375
30.516667	1	0.109125
30.533333	1	0.114000
30.550000	1	0.118500
30.566667	1	0.123625
30.583333	1	0.129375
30.600000	1	0.135375
30.616667	1	0.141500
30.633333	1	0.147875
30.650000	1	0.155125
30.666667	1	0.162250
30.683333	1	0.169125
30.700000	1	0.176750
30.716667	1	0.184875
30.733333	1	0.192875
30.750000	1	0.201375
30.766667	1	0.210250
30.783333	1	0.219500
30.800000	1	0.229125
30.816667	1	0.239500
30.833333	1	0.250125
30.850000	1	0.261125
30.866667	1	0.272375
30.883333	1	0.284250
30.900000	1	0.297500
30.916667	1	0.311000
30.933333	1	0.326500
30.950000	1	0.343375
30.966667	1	0.361125
30.983333	1	0.381000
31.000000	1	0.402625
31.016667	1	0.427125
31.033333	1	0.453375
31.050000	1	0.482375
31.066667	1	0.514125
31.083333	1	0.549250
31.100000	1	0.588500
31.116667	1	0.631875
31.133333	1	0.679125
31.150000	1	0.729625
31.166667	1	0.785250
31.183333	1	0.845500
31.200000	1	0.911000
31.216667	1	0.980375
31.233333	1	1.054125
31.250000	1	1.131750
31.266667	1	1.213750
31.283333	1	1.298500
31.300000	1	1.386500
31.316667	1	1.476000
31.333333	1	1.567125
31.350000	1	1.657875
31.366667	1	1.748750
31.383333	1	1.837625
31.400000	1	1.923500
31.416667	1	2.005375
31.433333	1	2.083125
31.450000	1	2.154875
31.466667	1	2.218875
31.483333	1	2.274500
31.500000	1	2.321875
31.516667	1	2.359625
31.533333	1	2.387375
31.550000	1	2.404375
31.566667	1	2.411625
31.583333	1	2.408250
31.600000	1	2.394125
31.616667	1	2.370125
31.633333	1	2.336250
31.650000	1	2.293250
31.666667	1	2.241125
31.683333	1	2.181000
31.700000	1	2.114500
31.716667	1	2.042125
31.733333	1	1.965000
31.750000	1	1.883500
31.766667	1	1.798750
31.783333	1	1.712000
31.800000	1	1.624250
31.816667	1	1.536125
31.833333	1	1.448375
31.850000	1	1.362000
31.866667	1	1.277000
31.883333	1	1.194375
31.900000	1	1.114750
31.916667	1	1.038375
31.933333	1	0.964250
31.950000	1	0.895375
31.966667	1	0.829500
31.983333	1	0.767625
32.000000	1	0.708375
32.016667	1	0.653875
32.033333	1	0.603000
32.050000	1	0.556000
32.066667	1	0.511750
32.083333	1	0.470875
32.100000	1	0.432750
32.116667	1	0.397625
32.133333	1	0.365250
32.150000	1	0.336000
32.166667	1	0.308375
32.183333	1	0.283625
32.200000	1	0.260250
32.216667	1	0.238750
32.233333	1	0.219625
32.250000	1	0.202000
32.266667	1	0.184750
32.283333	1	0.169750
32.300000	1	0.155750
32.316667	1	0.143375
32.333333	1	0.132250
32.350000	1	0.122375
32.366667	1	0.113375
32.383333	1	0.105125
32.400000	1	0.097875
32.416667	1	0.091500
32.433333	1	0.085250
32.450000	1	0.080250
32.466667	1	0.076250
32.483333	1	0.072125
32.500000	1	0.068000
32.516667	1	0.064875
32.533333	1	0.062500
32.550000	1	0.061500
32.566667	1	0.059625
32.583333	1	0.058500
32.600000	1	0.056875
32.616667	1	0.055625
32.633333	1	0.055750
32.650000	1	0.055250
32.666667	1	0.054750
32.683333	1	0.053875
32.700000	1	0.053500
32.716667	1	0.053250
32.733333	1	0.053125
32.750000	1	0.053500
32.766667	1	0.053500
32.783333	1	0.053250
32.800000	1	0.053250
32.816667	1	0.053000
32.833333	1	0.053000
32.850000	1	0.052250
32.866667	1	0.051750
32.883333	1	0.050750
32.900000	1	0.049750
32.916667	1	0.048375
32.933333	1	0.048125
32.950000	1	0.046875
32.966667	1	0.045625
32.983333	1	0.045375
33.000000	1	0.043875
33.016667	1	0.043375
33.033333	1	0.042250
33.050000	1	0.041000
33.066667	1	0.040375
33.083333	1	0.039000
33.100000	1	0.037500
33.116667	1	0.036625
33.133333	1	0.035375
33.150000	1	0.033875
33.166667	1	0.032250
33.183333	1	0.030375
33.200000	1	0.029625
33.216667	1	0.029000
33.233333	1	0.027875
33.250000	1	0.027125
33.266667	1	0.026500
33.283333	1	0.025625
33.300000	1	0.025500
33.316667	1	0.026000
33.333333	1	0.026375
33.350000	1	0.026125
33.366667	1	0.026750
33.383333	1	0.027250
33.400000	1	0.027875
33.416667	1	0.028500
33.433333	1	0.029250
33.450000	1	0.030000
33.466667	1	0.031250
33.483333	1	0.032000
33.500000	1	0.033000
33.516667	1	0.034375
33.533333	1	0.035125
33.550000	1	0.036000
33.566667	1	0.037375
33.583333	1	0.038625
33.600000	1	0.040000
33.616667	1	0.040875
33.633333	1	0.042250
33.650000	1	0.043000
33.666667	1	0.044000
33.683333	1	0.046125
33.700000	1	0.047750
33.716667	1	0.049125
33.733333	1	0.050500
33.750000	1	0.051625
33.766667	1	0.053000
33.783333	1	0.054875
33.800000	1	0.055875
33.816667	1	0.058250
33.833333	1	0.059875
33.850000	1	0.062375
33.866667	1	0.064500
33.883333	1	0.066000
33.900000	1	0.067625
33.916667	1	0.069375
33.933333	1	0.071500
33.950000	1	0.073250
33.966667	1	0.074625
33.983333	1	0.076250
34.000000	1	0.077750
34.016667	1	0.080000
34.033333	1	0.081250
34.050000	1	0.083000
34.066667	1	0.084750
34.083333	1	0.086250
34.100000	1	0.087625
34.116667	1	0.088375
34.133333	1	0.090375
34.150000	1	0.091250
34.166667	1	0.092250
34.183333	1	0.093000
34.200000	1	0.094375
34.216667	1	0.095750
34.233333	1	0.096750
34.250000	1	0.097125
34.266667	1	0.098375
34.283333	1	0.099125
34.300000	1	0.100125
34.316667	1	0.101500
34.333333	1	0.102750
34.350000	1	0.104375
34.366667	1	0.105875
34.383333	1	0.106875
34.400000	1	0.108000
34.416667	1	0.109500
34.433333	1	0.110875
34.450000	1	0.111625
34.466667	1	0.112875
34.483333	1	0.114375
34.500000	1	0.115625
34.516667	1	0.116625
34.533333	1	0.117125
34.550000	1	0.118125
34.566667	1	0.118875
34.583333	1	0.118625
34.600000	1	0.119125
34.616667	1	0.118625
34.633333	1	0.118250
34.650000	1	0.117625
34.666667	1	0.116750
34.683333	1	0.116250
34.700000	1	0.115000
34.716667	1	0.113750
34.733333	1	0.112500
34.750000	1	0.111000
34.766667	1	0.109625
34.783333	1	0.108125
34.800000	1	0.106500
34.816667	1	0.104500
34.833333	1	0.102375
34.850000	1	0.100500
34.866667	1	0.098875
34.883333	1	0.096500
34.900000	1	0.094250
34.916667	1	0.092250
34.933333	1	0.090750
34.950000	1	0.089125
34.966667	1	0.088000
34.983333	1	0.085750
35.000000	1	0.083750
35.016667	1	0.082500
35.033333	1	0.081250
35.050000	1	0.080250
35.066667	1	0.079375
35.083333	1	0.078750
35.100000	1	0.078250
35.116667	1	0.077375
35.133333	1	0.076625
35.150000	1	0.076000
35.166667	1	0.075250
35.183333	1	0.075375
35.200000	1	0.075125
35.216667	1	0.075750
35.233333	1	0.075500
35.250000	1	0.075375
35.266667	1	0.075375
35.283333	1	0.076000
35.300000	1	0.076875
35.316667	1	0.077250
35.333333	1	0.078500
35.350000	1	0.079625
35.366667	1	0.080750
35.383333	1	0.082000
35.400000	1	0.083625
35.416667	1	0.085125
35.433333	1	0.086375
35.450000	1	0.087375
35.466667	1	0.088875
35.483333	1	0.090250
35.500000	1	0.092000
35.516667	1	0.093750
35.533333	1	0.096000
35.550000	1	0.097500
35.566667	1	0.099625
35.583333	1	0.101500
35.600000	1	0.102000
35.616667	1	0.103750
35.633333	1	0.105000
35.650000	1	0.106375
35.666667	1	0.108000
35.683333	1	0.110125
35.700000	1	0.111750
35.716667	1	0.113250
35.733333	1	0.114250
35.750000	1	0.115125
35.766667	1	0.116250
35.783333	1	0.116875
35.800000	1	0.117375
35.816667	1	0.117375
35.833333	1	0.117125
35.850000	1	0.116750
35.866667	1	0.117000
35.883333	1	0.117125
35.900000	1	0.116625
35.916667	1	0.116250
35.933333	1	0.115500
35.950000	1	0.115250
35.966667	1	0.114375
35.983333	1	0.113875
36.000000	1	0.113125
36.016667	1	0.112000
36.033333	1	0.110500
36.050000	1	0.109000
36.066667	1	0.108625
36.083333	1	0.108000
36.100000	1	0.107375
36.116667	1	0.106500
36.133333	1	0.105750
36.150000	1	0.104875
36.166667	1	0.104250
36.183333	1	0.103500
36.200000	1	0.102500
36.216667	1	0.101500
36.233333	1	0.100250
36.250000	1	0.099375
36.266667	1	0.097875
36.283333	1	0.097500
36.300000	1	0.096875
36.316667	1	0.096250
36.333333	1	0.095250
36.350000	1	0.094000
36.366667	1	0.093000
36.383333	1	0.092000
36.400000	1	0.091000
36.416667	1	0.090000
36.433333	1	0.088750
36.450000	1	0.087000
36.466667	1	0.085375
36.483333	1	0.084250
36.500000	1	0.083250
36.516667	1	0.082250
36.533333	1	0.080250
36.550000	1	0.078500
36.566667	1	0.076125
36.583333	1	0.074625
36.600000	1	0.072750
36.616667	1	0.070750
36.633333	1	0.068250
36.650000	1	0.066125
36.666667	1	0.063125
36.683333	1	0.061125
36.700000	1	0.058500
36.716667	1	0.056000
36.733333	1	0.053375
36.750000	1	0.051125
36.766667	1	0.048125
36.783333	1	0.045000
36.800000	1	0.042625
36.816667	1	0.039625
36.833333	1	0.037125
36.850000	1	0.035375
36.866667	1	0.033125
36.883333	1	0.030875
36.900000	1	0.029500
36.916667	1	0.028125
36.933333	1	0.027125
36.950000	1	0.025875
36.966667	1	0.023875
36.983333	1	0.023125
37.000000	1	0.022250
37.016667	1	0.021375
37.033333	1	0.020875
37.050000	1	0.020500
37.066667	1	0.020625
37.083333	1	0.021375
37.100000	1	0.021625
37.116667	1	0.021750
37.133333	1	0.022125
37.150000	1	0.022250
37.166667	1	0.022500
37.183333	1	0.023250
37.200000	1	0.023125
37.216667	1	0.023500
37.233333	1	0.023750
37.250000	1	0.024500
37.266667	1	0.024375
37.283333	1	0.025625
37.300000	1	0.025750
37.316667	1	0.026125
37.333333	1	0.026500
37.350000	1	0.027000
37.366667	1	0.027375
37.383333	1	0.027500
37.400000	1	0.027250
37.416667	1	0.027125
37.433333	1	0.026875
37.450000	1	0.026875
37.466667	1	0.027125
37.483333	1	0.027125
37.500000	1	0.027250
37.516667	1	0.027000
37.533333	1	0.026625
37.550000	1	0.027375
37.566667	1	0.027000
37.583333	1	0.027125
37.600000	1	0.027125
37.616667	1	0.027500
37.633333	1	0.026750
37.650000	1	0.026500
37.666667	1	0.027250
37.683333	1	0.027375
37.700000	1	0.028125
37.716667	1	0.028500
37.733333	1	0.028750
37.750000	1	0.028625
37.766667	1	0.027875
37.783333	1	0.028000
37.800000	1	0.028250
37.816667	1	0.028375
37.833333	1	0.028500
37.850000	1	0.028500
37.866667	1	0.028750
37.883333	1	0.028750
37.900000	1	0.029125
37.916667	1	0.028875
37.933333	1	0.029250
37.950000	1	0.028375
37.966667	1	0.028125
37.983333	1	0.028500
38.000000	1	0.028625
38.016667	1	0.028625
38.033333	1	0.028625
38.050000	1	0.029000
38.066667	1	0.029000
38.083333	1	0.029125
38.100000	1	0.029375
38.116667	1	0.029625
38.133333	1	0.029375
38.150000	1	0.029500
38.166667	1	0.029625
38.183333	1	0.029375
38.200000	1	0.029250
38.216667	1	0.029625
38.233333	1	0.029625
38.250000	1	0.029375
38.266667	1	0.029000
38.283333	1	0.029375
38.300000	1	0.029750
38.316667	1	0.029125
38.333333	1	0.028375
38.350000	1	0.028375
38.366667	1	0.028250
38.383333	1	0.027875
38.400000	1	0.028125
38.416667	1	0.027375
38.433333	1	0.026125
38.450000	1	0.025625
38.466667	1	0.025375
38.483333	1	0.025000
38.500000	1	0.024375
38.516667	1	0.024250
38.533333	1	0.024125
38.550000	1	0.023125
38.566667	1	0.021625
38.583333	1	0.021125
38.600000	1	0.020500
38.616667	1	0.019625
38.633333	1	0.019375
38.650000	1	0.020000
38.666667	1	0.019625
38.683333	1	0.019375
38.700000	1	0.018750
38.716667	1	0.018625
38.733333	1	0.017875
38.750000	1	0.018625
38.766667	1	0.018000
38.783333	1	0.017375
38.800000	1	0.016875
38.816667	1	0.016500
38.833333	1	0.017250
38.850000	1	0.017125
38.866667	1	0.016625
38.883333	1	0.016625
38.900000	1	0.016625
38.916667	1	0.016375
38.933333	1	0.015875
38.950000	1	0.015250
38.966667	1	0.014875
38.983333	1	0.013875
39.000000	1	0.013375
39.016667	1	0.012500
39.033333	1	0.012000
39.050000	1	0.011375
39.066667	1	0.010375
39.083333	1	0.009750
39.100000	1	0.009125
39.116667	1	0.008125
39.133333	1	0.005750
39.150000	1	0.004250
39.166667	1	0.002750
39.183333	1	0.001250
39.200000	1	0.000000
39.216667	1	-0.001750
39.233333	1	-0.003250
39.250000	1	-0.004875
39.266667	1	-0.007125
39.283333	1	-0.009750
39.300000	1	-0.012625
39.316667	1	-0.015375
39.333333	1	-0.017875
39.350000	1	-0.021125
39.366667	1	-0.024000
39.383333	1	-0.027125
39.400000	1	-0.030000
39.416667	1	-0.032625
39.433333	1	-0.034875
39.450000	1	-0.037625
39.466667	1	-0.039500
39.483333	1	-0.041625
39.500000	1	-0.043250
39.516667	1	-0.045375
39.533333	1	-0.046750
39.550000	1	-0.048750
39.566667	1	-0.049875
39.583333	1	-0.051750
39.600000	1	-0.053125
39.616667	1	-0.054125
39.633333	1	-0.055250
39.650000	1	-0.055750
39.666667	1	-0.056500
39.683333	1	-0.056750
39.700000	1	-0.057000
39.716667	1	-0.057875
39.733333	1	-0.058375
39.750000	1	-0.058625
39.766667	1	-0.058875
39.783333	1	-0.058250
39.800000	1	-0.058750
39.816667	1	-0.058875
39.833333	1	-0.059625
39.850000	1	-0.060125
39.866667	1	-0.060375
39.883333	1	-0.060500
39.900000	1	-0.059750
39.916667	1	-0.060125
39.933333	1	-0.061000
39.950000	1	-0.061250
39.966667	1	-0.061625
39.983333	1	-0.061250
40.000000	1	-0.060625
