URL	chrom://bioreactor/micro_cm7/HPLC_Ultimate_3000/Users/markusar/20240716_MA_pHrange2.seq/685.smp/RI_1.channel/RI_1.chm
Channel	RI_1

Injection Information:
Data Vault	micro_cm7
Sequence	20240716_MA_pHrange2
Name	Pv2_25H_2
Number	7
Position	BA7
Comment	
Processing Method	
Instrument Method	run_25B_method
Type	Unknown
Status	Finished
Inject Time	16.07.2024 22:12:17 +02:00
Volume (µl)	20.0000
Dilution Factor	1.0000
Weight	1.0000

Chromatogram Data Information:
Time Min. (min)	0.000000
Time Max. (min)	40.000000
Data Points	2401
Detector	RI
Generating Data System	Chromeleon 7.3.2.11814
Exporting Data System	Chromeleon 7.3.2.0
Operator	Instrument Controller
Signal Quantity	Refractive 
Signal Unit	µRIU
Signal Min.	-0.073500
Signal Max.	85.223125
Channel	RI_1
Driver Name	RID520Driver.dll
Channel Type	Evaluation
Min. Step (s)	1
Max. Step (s)	1
Average Step (s)	1

Signal Parameter Information:
Signal Info	

Chromatogram Data:
Time (min)	Step (s)	Value (µRIU)
0.000000	n.a.	0.001875
0.016667	1	0.003125
0.033333	1	0.005375
0.050000	1	0.007875
0.066667	1	0.010500
0.083333	1	0.013000
0.100000	1	0.015750
0.116667	1	0.017625
0.133333	1	0.020125
0.150000	1	0.022250
0.166667	1	0.024625
0.183333	1	0.027125
0.200000	1	0.029375
0.216667	1	0.031125
0.233333	1	0.033500
0.250000	1	0.035375
0.266667	1	0.038000
0.283333	1	0.040875
0.300000	1	0.043750
0.316667	1	0.045625
0.333333	1	0.047250
0.350000	1	0.048625
0.366667	1	0.049375
0.383333	1	0.050375
0.400000	1	0.051625
0.416667	1	0.053125
0.433333	1	0.055125
0.450000	1	0.057875
0.466667	1	0.060375
0.483333	1	0.062875
0.500000	1	0.064375
0.516667	1	0.065375
0.533333	1	0.065000
0.550000	1	0.064250
0.566667	1	0.063000
0.583333	1	0.060875
0.600000	1	0.059250
0.616667	1	0.057500
0.633333	1	0.056750
0.650000	1	0.056250
0.666667	1	0.056125
0.683333	1	0.055125
0.700000	1	0.054750
0.716667	1	0.054625
0.733333	1	0.054500
0.750000	1	0.054000
0.766667	1	0.052875
0.783333	1	0.052125
0.800000	1	0.051125
0.816667	1	0.050375
0.833333	1	0.050250
0.850000	1	0.050250
0.866667	1	0.049125
0.883333	1	0.048500
0.900000	1	0.047875
0.916667	1	0.047375
0.933333	1	0.047125
0.950000	1	0.046500
0.966667	1	0.046375
0.983333	1	0.046000
1.000000	1	0.045250
1.016667	1	0.045000
1.033333	1	0.045000
1.050000	1	0.045125
1.066667	1	0.044625
1.083333	1	0.044500
1.100000	1	0.044500
1.116667	1	0.044375
1.133333	1	0.044000
1.150000	1	0.044000
1.166667	1	0.043875
1.183333	1	0.044125
1.200000	1	0.044625
1.216667	1	0.044500
1.233333	1	0.044000
1.250000	1	0.043875
1.266667	1	0.043750
1.283333	1	0.043750
1.300000	1	0.043625
1.316667	1	0.043500
1.333333	1	0.043750
1.350000	1	0.043250
1.366667	1	0.043125
1.383333	1	0.042500
1.400000	1	0.041875
1.416667	1	0.041750
1.433333	1	0.040750
1.450000	1	0.040250
1.466667	1	0.039750
1.483333	1	0.039250
1.500000	1	0.038750
1.516667	1	0.037750
1.533333	1	0.036625
1.550000	1	0.035375
1.566667	1	0.034125
1.583333	1	0.033375
1.600000	1	0.032375
1.616667	1	0.030875
1.633333	1	0.030250
1.650000	1	0.028625
1.666667	1	0.027250
1.683333	1	0.027000
1.700000	1	0.025750
1.716667	1	0.025625
1.733333	1	0.024750
1.750000	1	0.023375
1.766667	1	0.021875
1.783333	1	0.020250
1.800000	1	0.019125
1.816667	1	0.018625
1.833333	1	0.018125
1.850000	1	0.017875
1.866667	1	0.016750
1.883333	1	0.016250
1.900000	1	0.015125
1.916667	1	0.014625
1.933333	1	0.013750
1.950000	1	0.013125
1.966667	1	0.012250
1.983333	1	0.011500
2.000000	1	0.010875
2.016667	1	0.010125
2.033333	1	0.009375
2.050000	1	0.008875
2.066667	1	0.008875
2.083333	1	0.008375
2.100000	1	0.007500
2.116667	1	0.006375
2.133333	1	0.005750
2.150000	1	0.005125
2.166667	1	0.004500
2.183333	1	0.004375
2.200000	1	0.004125
2.216667	1	0.003250
2.233333	1	0.003125
2.250000	1	0.003250
2.266667	1	0.001875
2.283333	1	0.000750
2.300000	1	0.000750
2.316667	1	0.000625
2.333333	1	0.000750
2.350000	1	0.000000
2.366667	1	-0.000250
2.383333	1	-0.000625
2.400000	1	-0.000625
2.416667	1	-0.001375
2.433333	1	-0.001125
2.450000	1	-0.001375
2.466667	1	-0.000875
2.483333	1	-0.001000
2.500000	1	-0.000500
2.516667	1	-0.000625
2.533333	1	-0.000875
2.550000	1	-0.001250
2.566667	1	-0.001125
2.583333	1	-0.001250
2.600000	1	-0.000750
2.616667	1	0.000000
2.633333	1	0.000125
2.650000	1	0.000875
2.666667	1	0.002000
2.683333	1	0.002250
2.700000	1	0.002875
2.716667	1	0.003125
2.733333	1	0.004250
2.750000	1	0.004750
2.766667	1	0.005875
2.783333	1	0.006125
2.800000	1	0.007000
2.816667	1	0.008375
2.833333	1	0.010125
2.850000	1	0.011250
2.866667	1	0.012000
2.883333	1	0.013375
2.900000	1	0.014875
2.916667	1	0.016500
2.933333	1	0.017750
2.950000	1	0.019000
2.966667	1	0.020500
2.983333	1	0.022375
3.000000	1	0.024625
3.016667	1	0.026375
3.033333	1	0.027875
3.050000	1	0.029375
3.066667	1	0.031375
3.083333	1	0.033125
3.100000	1	0.035375
3.116667	1	0.037500
3.133333	1	0.039500
3.150000	1	0.042125
3.166667	1	0.044375
3.183333	1	0.046125
3.200000	1	0.048375
3.216667	1	0.050750
3.233333	1	0.053250
3.250000	1	0.055375
3.266667	1	0.057000
3.283333	1	0.059000
3.300000	1	0.060500
3.316667	1	0.062625
3.333333	1	0.064500
3.350000	1	0.066000
3.366667	1	0.067625
3.383333	1	0.069500
3.400000	1	0.071000
3.416667	1	0.072000
3.433333	1	0.073125
3.450000	1	0.074000
3.466667	1	0.075000
3.483333	1	0.074875
3.500000	1	0.074500
3.516667	1	0.075250
3.533333	1	0.075875
3.550000	1	0.076000
3.566667	1	0.076250
3.583333	1	0.076125
3.600000	1	0.075125
3.616667	1	0.074875
3.633333	1	0.074625
3.650000	1	0.074625
3.666667	1	0.074625
3.683333	1	0.074375
3.700000	1	0.074250
3.716667	1	0.074250
3.733333	1	0.074000
3.750000	1	0.073875
3.766667	1	0.073375
3.783333	1	0.073625
3.800000	1	0.074500
3.816667	1	0.074875
3.833333	1	0.075125
3.850000	1	0.076000
3.866667	1	0.076000
3.883333	1	0.076500
3.900000	1	0.076875
3.916667	1	0.077375
3.933333	1	0.078250
3.950000	1	0.080000
3.966667	1	0.080375
3.983333	1	0.081375
4.000000	1	0.083125
4.016667	1	0.084250
4.033333	1	0.085500
4.050000	1	0.086625
4.066667	1	0.088125
4.083333	1	0.089500
4.100000	1	0.090750
4.116667	1	0.092250
4.133333	1	0.093375
4.150000	1	0.094875
4.166667	1	0.096625
4.183333	1	0.097375
4.200000	1	0.098750
4.216667	1	0.099750
4.233333	1	0.101625
4.250000	1	0.102625
4.266667	1	0.103875
4.283333	1	0.105000
4.300000	1	0.106250
4.316667	1	0.107250
4.333333	1	0.108625
4.350000	1	0.109625
4.366667	1	0.110125
4.383333	1	0.111000
4.400000	1	0.112125
4.416667	1	0.113125
4.433333	1	0.114250
4.450000	1	0.115625
4.466667	1	0.116750
4.483333	1	0.117750
4.500000	1	0.118750
4.516667	1	0.120000
4.533333	1	0.120875
4.550000	1	0.122375
4.566667	1	0.123875
4.583333	1	0.125000
4.600000	1	0.126125
4.616667	1	0.127375
4.633333	1	0.128000
4.650000	1	0.129500
4.666667	1	0.131250
4.683333	1	0.133125
4.700000	1	0.134250
4.716667	1	0.136000
4.733333	1	0.137625
4.750000	1	0.139125
4.766667	1	0.141250
4.783333	1	0.143000
4.800000	1	0.145750
4.816667	1	0.148500
4.833333	1	0.150125
4.850000	1	0.151625
4.866667	1	0.154625
4.883333	1	0.156500
4.900000	1	0.159000
4.916667	1	0.161625
4.933333	1	0.164750
4.950000	1	0.167500
4.966667	1	0.170250
4.983333	1	0.173750
5.000000	1	0.177500
5.016667	1	0.180375
5.033333	1	0.184375
5.050000	1	0.187750
5.066667	1	0.191500
5.083333	1	0.195625
5.100000	1	0.199125
5.116667	1	0.202625
5.133333	1	0.206750
5.150000	1	0.210375
5.166667	1	0.213375
5.183333	1	0.217500
5.200000	1	0.221250
5.216667	1	0.225000
5.233333	1	0.228875
5.250000	1	0.232625
5.266667	1	0.235875
5.283333	1	0.238000
5.300000	1	0.240125
5.316667	1	0.242750
5.333333	1	0.244000
5.350000	1	0.246250
5.366667	1	0.248250
5.383333	1	0.249875
5.400000	1	0.251000
5.416667	1	0.252125
5.433333	1	0.252500
5.450000	1	0.252625
5.466667	1	0.252250
5.483333	1	0.251875
5.500000	1	0.251125
5.516667	1	0.250375
5.533333	1	0.249125
5.550000	1	0.246750
5.566667	1	0.245125
5.583333	1	0.243000
5.600000	1	0.240875
5.616667	1	0.238625
5.633333	1	0.236625
5.650000	1	0.234125
5.666667	1	0.231625
5.683333	1	0.229000
5.700000	1	0.225875
5.716667	1	0.222375
5.733333	1	0.219375
5.750000	1	0.216250
5.766667	1	0.213000
5.783333	1	0.210125
5.800000	1	0.206625
5.816667	1	0.203250
5.833333	1	0.199500
5.850000	1	0.196875
5.866667	1	0.193250
5.883333	1	0.189250
5.900000	1	0.186125
5.916667	1	0.182125
5.933333	1	0.178500
5.950000	1	0.175125
5.966667	1	0.171625
5.983333	1	0.167750
6.000000	1	0.163625
6.016667	1	0.159625
6.033333	1	0.155750
6.050000	1	0.151500
6.066667	1	0.147250
6.083333	1	0.143125
6.100000	1	0.139125
6.116667	1	0.135250
6.133333	1	0.130875
6.150000	1	0.127000
6.166667	1	0.122250
6.183333	1	0.117625
6.200000	1	0.113000
6.216667	1	0.108625
6.233333	1	0.104500
6.250000	1	0.099750
6.266667	1	0.095250
6.283333	1	0.091000
6.300000	1	0.087000
6.316667	1	0.083125
6.333333	1	0.079500
6.350000	1	0.076125
6.366667	1	0.072750
6.383333	1	0.069750
6.400000	1	0.066000
6.416667	1	0.062625
6.433333	1	0.060125
6.450000	1	0.057500
6.466667	1	0.055125
6.483333	1	0.052625
6.500000	1	0.050750
6.516667	1	0.049500
6.533333	1	0.048375
6.550000	1	0.047375
6.566667	1	0.046625
6.583333	1	0.045875
6.600000	1	0.045125
6.616667	1	0.044875
6.633333	1	0.044750
6.650000	1	0.045250
6.666667	1	0.046000
6.683333	1	0.045875
6.700000	1	0.046875
6.716667	1	0.047125
6.733333	1	0.048375
6.750000	1	0.049625
6.766667	1	0.050625
6.783333	1	0.052000
6.800000	1	0.053250
6.816667	1	0.054125
6.833333	1	0.056000
6.850000	1	0.057875
6.866667	1	0.059125
6.883333	1	0.061625
6.900000	1	0.063875
6.916667	1	0.066500
6.933333	1	0.069250
6.950000	1	0.072625
6.966667	1	0.075375
6.983333	1	0.079250
7.000000	1	0.082750
7.016667	1	0.085500
7.033333	1	0.088875
7.050000	1	0.092750
7.066667	1	0.096625
7.083333	1	0.100500
7.100000	1	0.104875
7.116667	1	0.108750
7.133333	1	0.112750
7.150000	1	0.117375
7.166667	1	0.122125
7.183333	1	0.125375
7.200000	1	0.129125
7.216667	1	0.132750
7.233333	1	0.136125
7.250000	1	0.140000
7.266667	1	0.143375
7.283333	1	0.146375
7.300000	1	0.149125
7.316667	1	0.151750
7.333333	1	0.154500
7.350000	1	0.156875
7.366667	1	0.158750
7.383333	1	0.161000
7.400000	1	0.162000
7.416667	1	0.162750
7.433333	1	0.163000
7.450000	1	0.163625
7.466667	1	0.164000
7.483333	1	0.164000
7.500000	1	0.163875
7.516667	1	0.163375
7.533333	1	0.162875
7.550000	1	0.161500
7.566667	1	0.159750
7.583333	1	0.159250
7.600000	1	0.157875
7.616667	1	0.156250
7.633333	1	0.153750
7.650000	1	0.151000
7.666667	1	0.147875
7.683333	1	0.145250
7.700000	1	0.142625
7.716667	1	0.138875
7.733333	1	0.135125
7.750000	1	0.131000
7.766667	1	0.127625
7.783333	1	0.123250
7.800000	1	0.119375
7.816667	1	0.115000
7.833333	1	0.110375
7.850000	1	0.106125
7.866667	1	0.101500
7.883333	1	0.097625
7.900000	1	0.092375
7.916667	1	0.087500
7.933333	1	0.083000
7.950000	1	0.077875
7.966667	1	0.072500
7.983333	1	0.067750
8.000000	1	0.063125
8.016667	1	0.059000
8.033333	1	0.054250
8.050000	1	0.049625
8.066667	1	0.045375
8.083333	1	0.041375
8.100000	1	0.037625
8.116667	1	0.033500
8.133333	1	0.030250
8.150000	1	0.026500
8.166667	1	0.023125
8.183333	1	0.020125
8.200000	1	0.018000
8.216667	1	0.016000
8.233333	1	0.013750
8.250000	1	0.012250
8.266667	1	0.010750
8.283333	1	0.009125
8.300000	1	0.008500
8.316667	1	0.008500
8.333333	1	0.008875
8.350000	1	0.008625
8.366667	1	0.009250
8.383333	1	0.010000
8.400000	1	0.010250
8.416667	1	0.011125
8.433333	1	0.012750
8.450000	1	0.014500
8.466667	1	0.016250
8.483333	1	0.017875
8.500000	1	0.019375
8.516667	1	0.021750
8.533333	1	0.024250
8.550000	1	0.026625
8.566667	1	0.029500
8.583333	1	0.032000
8.600000	1	0.034625
8.616667	1	0.036875
8.633333	1	0.039125
8.650000	1	0.041625
8.666667	1	0.044500
8.683333	1	0.046750
8.700000	1	0.049125
8.716667	1	0.051625
8.733333	1	0.053875
8.750000	1	0.056000
8.766667	1	0.058375
8.783333	1	0.060750
8.800000	1	0.062750
8.816667	1	0.064500
8.833333	1	0.066125
8.850000	1	0.068250
8.866667	1	0.069625
8.883333	1	0.071250
8.900000	1	0.072250
8.916667	1	0.073625
8.933333	1	0.075125
8.950000	1	0.076000
8.966667	1	0.076875
8.983333	1	0.078125
9.000000	1	0.078750
9.016667	1	0.079500
9.033333	1	0.079750
9.050000	1	0.079875
9.066667	1	0.080125
9.083333	1	0.081125
9.100000	1	0.081875
9.116667	1	0.082750
9.133333	1	0.083250
9.150000	1	0.083500
9.166667	1	0.083375
9.183333	1	0.083750
9.200000	1	0.084750
9.216667	1	0.085750
9.233333	1	0.086125
9.250000	1	0.086125
9.266667	1	0.086000
9.283333	1	0.086250
9.300000	1	0.085875
9.316667	1	0.086125
9.333333	1	0.085750
9.350000	1	0.086375
9.366667	1	0.085875
9.383333	1	0.085875
9.400000	1	0.085875
9.416667	1	0.084625
9.433333	1	0.084375
9.450000	1	0.084000
9.466667	1	0.082875
9.483333	1	0.082250
9.500000	1	0.081000
9.516667	1	0.079875
9.533333	1	0.078875
9.550000	1	0.077375
9.566667	1	0.076125
9.583333	1	0.074125
9.600000	1	0.072000
9.616667	1	0.069625
9.633333	1	0.067375
9.650000	1	0.065000
9.666667	1	0.062875
9.683333	1	0.061125
9.700000	1	0.059500
9.716667	1	0.057375
9.733333	1	0.055250
9.750000	1	0.052750
9.766667	1	0.049625
9.783333	1	0.047125
9.800000	1	0.045000
9.816667	1	0.043625
9.833333	1	0.041875
9.850000	1	0.040500
9.866667	1	0.038125
9.883333	1	0.036750
9.900000	1	0.035000
9.916667	1	0.033625
9.933333	1	0.032625
9.950000	1	0.031625
9.966667	1	0.030750
9.983333	1	0.029750
10.000000	1	0.028875
10.016667	1	0.028000
10.033333	1	0.027875
10.050000	1	0.027875
10.066667	1	0.028125
10.083333	1	0.029250
10.100000	1	0.031625
10.116667	1	0.034000
10.133333	1	0.037375
10.150000	1	0.041250
10.166667	1	0.046250
10.183333	1	0.052125
10.200000	1	0.059125
10.216667	1	0.067750
10.233333	1	0.077375
10.250000	1	0.088875
10.266667	1	0.101500
10.283333	1	0.116125
10.300000	1	0.132625
10.316667	1	0.150500
10.333333	1	0.169875
10.350000	1	0.188125
10.366667	1	0.204375
10.383333	1	0.215000
10.400000	1	0.214875
10.416667	1	0.199875
10.433333	1	0.165625
10.450000	1	0.111750
10.466667	1	0.043000
10.483333	1	-0.027125
10.500000	1	-0.073500
10.516667	1	-0.057375
10.533333	1	0.072500
10.550000	1	0.376250
10.566667	1	0.919250
10.583333	1	1.769000
10.600000	1	2.989375
10.616667	1	4.633625
10.633333	1	6.744000
10.650000	1	9.348625
10.666667	1	12.470125
10.683333	1	16.116875
10.700000	1	20.285750
10.716667	1	24.964000
10.733333	1	30.128375
10.750000	1	35.743750
10.766667	1	41.761750
10.783333	1	48.120125
10.800000	1	54.725750
10.816667	1	61.442750
10.833333	1	68.061375
10.850000	1	74.270125
10.866667	1	79.618625
10.883333	1	83.499250
10.900000	1	85.223125
10.916667	1	84.200875
10.933333	1	80.190000
10.950000	1	73.471625
10.966667	1	64.818375
10.983333	1	55.250250
11.000000	1	45.744500
11.016667	1	37.017500
11.033333	1	29.463750
11.050000	1	23.192625
11.066667	1	18.144250
11.083333	1	14.171125
11.100000	1	11.097875
11.116667	1	8.753000
11.133333	1	6.979000
11.150000	1	5.643875
11.166667	1	4.641250
11.183333	1	3.886250
11.200000	1	3.314500
11.216667	1	2.877125
11.233333	1	2.540625
11.250000	1	2.277375
11.266667	1	2.068250
11.283333	1	1.899875
11.300000	1	1.761625
11.316667	1	1.647625
11.333333	1	1.551750
11.350000	1	1.470375
11.366667	1	1.401250
11.383333	1	1.342625
11.400000	1	1.291500
11.416667	1	1.247000
11.433333	1	1.208500
11.450000	1	1.175125
11.466667	1	1.146125
11.483333	1	1.121125
11.500000	1	1.099250
11.516667	1	1.081000
11.533333	1	1.064750
11.550000	1	1.050500
11.566667	1	1.038500
11.583333	1	1.028625
11.600000	1	1.020500
11.616667	1	1.013375
11.633333	1	1.007625
11.650000	1	1.003750
11.666667	1	1.000750
11.683333	1	1.000125
11.700000	1	1.000000
11.716667	1	1.001750
11.733333	1	1.004250
11.750000	1	1.007875
11.766667	1	1.012500
11.783333	1	1.018500
11.800000	1	1.026125
11.816667	1	1.034125
11.833333	1	1.041875
11.850000	1	1.049625
11.866667	1	1.057000
11.883333	1	1.064625
11.900000	1	1.072250
11.916667	1	1.079375
11.933333	1	1.084750
11.950000	1	1.089125
11.966667	1	1.092125
11.983333	1	1.095250
12.000000	1	1.098250
12.016667	1	1.099750
12.033333	1	1.100750
12.050000	1	1.102375
12.066667	1	1.104125
12.083333	1	1.105125
12.100000	1	1.107125
12.116667	1	1.109250
12.133333	1	1.111750
12.150000	1	1.115125
12.166667	1	1.119125
12.183333	1	1.123500
12.200000	1	1.128875
12.216667	1	1.134500
12.233333	1	1.141375
12.250000	1	1.150125
12.266667	1	1.161125
12.283333	1	1.175125
12.300000	1	1.193875
12.316667	1	1.218375
12.333333	1	1.250000
12.350000	1	1.290625
12.366667	1	1.344375
12.383333	1	1.414750
12.400000	1	1.504750
12.416667	1	1.618750
12.433333	1	1.763125
12.450000	1	1.941000
12.466667	1	2.158625
12.483333	1	2.420000
12.500000	1	2.729625
12.516667	1	3.091125
12.533333	1	3.507375
12.550000	1	3.979625
12.566667	1	4.507000
12.583333	1	5.086500
12.600000	1	5.712625
12.616667	1	6.375750
12.633333	1	7.066125
12.650000	1	7.771750
12.666667	1	8.480625
12.683333	1	9.179250
12.700000	1	9.854750
12.716667	1	10.498000
12.733333	1	11.106000
12.750000	1	11.676250
12.766667	1	12.212875
12.783333	1	12.722125
12.800000	1	13.212125
12.816667	1	13.692625
12.833333	1	14.175500
12.850000	1	14.670625
12.866667	1	15.185750
12.883333	1	15.727125
12.900000	1	16.298625
12.916667	1	16.902750
12.933333	1	17.541375
12.950000	1	18.211250
12.966667	1	18.913000
12.983333	1	19.644750
13.000000	1	20.403750
13.016667	1	21.189250
13.033333	1	21.999125
13.050000	1	22.833000
13.066667	1	23.690625
13.083333	1	24.569875
13.100000	1	25.470875
13.116667	1	26.392500
13.133333	1	27.334750
13.150000	1	28.295625
13.166667	1	29.275500
13.183333	1	30.274375
13.200000	1	31.290625
13.216667	1	32.325625
13.233333	1	33.379500
13.250000	1	34.454250
13.266667	1	35.549000
13.283333	1	36.664750
13.300000	1	37.801750
13.316667	1	38.959375
13.333333	1	40.139500
13.350000	1	41.340625
13.366667	1	42.565125
13.383333	1	43.812625
13.400000	1	45.082375
13.416667	1	46.376875
13.433333	1	47.697375
13.450000	1	49.044750
13.466667	1	50.419750
13.483333	1	51.823125
13.500000	1	53.255625
13.516667	1	54.717250
13.533333	1	56.208500
13.550000	1	57.729625
13.566667	1	59.280750
13.583333	1	60.862625
13.600000	1	62.472750
13.616667	1	64.115500
13.633333	1	65.792500
13.650000	1	67.504875
13.666667	1	69.253125
13.683333	1	71.038125
13.700000	1	72.861000
13.716667	1	74.720125
13.733333	1	76.613000
13.750000	1	78.523500
13.766667	1	80.389000
13.783333	1	82.067125
13.800000	1	83.334875
13.816667	1	83.929125
13.833333	1	83.589625
13.850000	1	82.071625
13.866667	1	79.121750
13.883333	1	74.496125
13.900000	1	68.077375
13.916667	1	60.063250
13.933333	1	51.065000
13.950000	1	41.968875
13.966667	1	33.614375
13.983333	1	26.524500
14.000000	1	20.836000
14.016667	1	16.424625
14.033333	1	13.068500
14.050000	1	10.542875
14.066667	1	8.659500
14.083333	1	7.266125
14.100000	1	6.242125
14.116667	1	5.491750
14.133333	1	4.939125
14.150000	1	4.529375
14.166667	1	4.219000
14.183333	1	3.979500
14.200000	1	3.791250
14.216667	1	3.638875
14.233333	1	3.513750
14.250000	1	3.407750
14.266667	1	3.316875
14.283333	1	3.236625
14.300000	1	3.164625
14.316667	1	3.100875
14.333333	1	3.043500
14.350000	1	2.991750
14.366667	1	2.945000
14.383333	1	2.905250
14.400000	1	2.871625
14.416667	1	2.846125
14.433333	1	2.831125
14.450000	1	2.829500
14.466667	1	2.845500
14.483333	1	2.885000
14.500000	1	2.956125
14.516667	1	3.071375
14.533333	1	3.245500
14.550000	1	3.498875
14.566667	1	3.857500
14.583333	1	4.353875
14.600000	1	5.029500
14.616667	1	5.935000
14.633333	1	7.128625
14.650000	1	8.674500
14.666667	1	10.641000
14.683333	1	13.092875
14.700000	1	16.089375
14.716667	1	19.669000
14.733333	1	23.849375
14.750000	1	28.614125
14.766667	1	33.902250
14.783333	1	39.607125
14.800000	1	45.586000
14.816667	1	51.649750
14.833333	1	57.572750
14.850000	1	63.103625
14.866667	1	67.982250
14.883333	1	71.963625
14.900000	1	74.840625
14.916667	1	76.463500
14.933333	1	76.751875
14.950000	1	75.702250
14.966667	1	73.389875
14.983333	1	69.961875
15.000000	1	65.612125
15.016667	1	60.568625
15.033333	1	55.075125
15.050000	1	49.376000
15.066667	1	43.691125
15.083333	1	38.205875
15.100000	1	33.062625
15.116667	1	28.358750
15.133333	1	24.149125
15.150000	1	20.452000
15.166667	1	17.260375
15.183333	1	14.543875
15.200000	1	12.257750
15.216667	1	10.352375
15.233333	1	8.777500
15.250000	1	7.485125
15.266667	1	6.430500
15.283333	1	5.575000
15.300000	1	4.885000
15.316667	1	4.328875
15.333333	1	3.884125
15.350000	1	3.529250
15.366667	1	3.248875
15.383333	1	3.028250
15.400000	1	2.856750
15.416667	1	2.724875
15.433333	1	2.625500
15.450000	1	2.552000
15.466667	1	2.498875
15.483333	1	2.460500
15.500000	1	2.432875
15.516667	1	2.412500
15.533333	1	2.393625
15.550000	1	2.375250
15.566667	1	2.355000
15.583333	1	2.330875
15.600000	1	2.302375
15.616667	1	2.268750
15.633333	1	2.230250
15.650000	1	2.188750
15.666667	1	2.144750
15.683333	1	2.100125
15.700000	1	2.054625
15.716667	1	2.011000
15.733333	1	1.968375
15.750000	1	1.928500
15.766667	1	1.890125
15.783333	1	1.855000
15.800000	1	1.821125
15.816667	1	1.788250
15.833333	1	1.756750
15.850000	1	1.726000
15.866667	1	1.696500
15.883333	1	1.667500
15.900000	1	1.639625
15.916667	1	1.613000
15.933333	1	1.588875
15.950000	1	1.567250
15.966667	1	1.547375
15.983333	1	1.530500
16.000000	1	1.516625
16.016667	1	1.506125
16.033333	1	1.498625
16.050000	1	1.492750
16.066667	1	1.489625
16.083333	1	1.487875
16.100000	1	1.487625
16.116667	1	1.487000
16.133333	1	1.486500
16.150000	1	1.484875
16.166667	1	1.482000
16.183333	1	1.477875
16.200000	1	1.471375
16.216667	1	1.463625
16.233333	1	1.453750
16.250000	1	1.441625
16.266667	1	1.428625
16.283333	1	1.414500
16.300000	1	1.398875
16.316667	1	1.383125
16.333333	1	1.366625
16.350000	1	1.350125
16.366667	1	1.334125
16.383333	1	1.317625
16.400000	1	1.302750
16.416667	1	1.288250
16.433333	1	1.275250
16.450000	1	1.262875
16.466667	1	1.253125
16.483333	1	1.244875
16.500000	1	1.239750
16.516667	1	1.236500
16.533333	1	1.235875
16.550000	1	1.235500
16.566667	1	1.237375
16.583333	1	1.241125
16.600000	1	1.245875
16.616667	1	1.250750
16.633333	1	1.256250
16.650000	1	1.260875
16.666667	1	1.264875
16.683333	1	1.268125
16.700000	1	1.269625
16.716667	1	1.270375
16.733333	1	1.270250
16.750000	1	1.269125
16.766667	1	1.268000
16.783333	1	1.267375
16.800000	1	1.266500
16.816667	1	1.266125
16.833333	1	1.266875
16.850000	1	1.267125
16.866667	1	1.267750
16.883333	1	1.268875
16.900000	1	1.270375
16.916667	1	1.271875
16.933333	1	1.273000
16.950000	1	1.273125
16.966667	1	1.272625
16.983333	1	1.271000
17.000000	1	1.268500
17.016667	1	1.264875
17.033333	1	1.260375
17.050000	1	1.255125
17.066667	1	1.249625
17.083333	1	1.243500
17.100000	1	1.237500
17.116667	1	1.231625
17.133333	1	1.226250
17.150000	1	1.221625
17.166667	1	1.217750
17.183333	1	1.215000
17.200000	1	1.212625
17.216667	1	1.211000
17.233333	1	1.210375
17.250000	1	1.210375
17.266667	1	1.211125
17.283333	1	1.213750
17.300000	1	1.215375
17.316667	1	1.217250
17.333333	1	1.219875
17.350000	1	1.222500
17.366667	1	1.225125
17.383333	1	1.227750
17.400000	1	1.230625
17.416667	1	1.232875
17.433333	1	1.234375
17.450000	1	1.235000
17.466667	1	1.235250
17.483333	1	1.235000
17.500000	1	1.232625
17.516667	1	1.228750
17.533333	1	1.223875
17.550000	1	1.218125
17.566667	1	1.210250
17.583333	1	1.200625
17.600000	1	1.190000
17.616667	1	1.177375
17.633333	1	1.164125
17.650000	1	1.149375
17.666667	1	1.134250
17.683333	1	1.119250
17.700000	1	1.103250
17.716667	1	1.087625
17.733333	1	1.072875
17.750000	1	1.058000
17.766667	1	1.043000
17.783333	1	1.029125
17.800000	1	1.015750
17.816667	1	1.003500
17.833333	1	0.991625
17.850000	1	0.980625
17.866667	1	0.970125
17.883333	1	0.961125
17.900000	1	0.952500
17.916667	1	0.944875
17.933333	1	0.937625
17.950000	1	0.930875
17.966667	1	0.925000
17.983333	1	0.918625
18.000000	1	0.913125
18.016667	1	0.907250
18.033333	1	0.902500
18.050000	1	0.896500
18.066667	1	0.891500
18.083333	1	0.886000
18.100000	1	0.880750
18.116667	1	0.874875
18.133333	1	0.869875
18.150000	1	0.864500
18.166667	1	0.859750
18.183333	1	0.855875
18.200000	1	0.852125
18.216667	1	0.848375
18.233333	1	0.846250
18.250000	1	0.844000
18.266667	1	0.843125
18.283333	1	0.842000
18.300000	1	0.841875
18.316667	1	0.842250
18.333333	1	0.843625
18.350000	1	0.845125
18.366667	1	0.847375
18.383333	1	0.849125
18.400000	1	0.852125
18.416667	1	0.855750
18.433333	1	0.859875
18.450000	1	0.864875
18.466667	1	0.870875
18.483333	1	0.877375
18.500000	1	0.885500
18.516667	1	0.895125
18.533333	1	0.906625
18.550000	1	0.920250
18.566667	1	0.935875
18.583333	1	0.953125
18.600000	1	0.972500
18.616667	1	0.993250
18.633333	1	1.016375
18.650000	1	1.041625
18.666667	1	1.069125
18.683333	1	1.097875
18.700000	1	1.127500
18.716667	1	1.159250
18.733333	1	1.193000
18.750000	1	1.227375
18.766667	1	1.262000
18.783333	1	1.297250
18.800000	1	1.332125
18.816667	1	1.366250
18.833333	1	1.399500
18.850000	1	1.430875
18.866667	1	1.458250
18.883333	1	1.482875
18.900000	1	1.503000
18.916667	1	1.519125
18.933333	1	1.529625
18.950000	1	1.533750
18.966667	1	1.531750
18.983333	1	1.522375
19.000000	1	1.507375
19.016667	1	1.485125
19.033333	1	1.457250
19.050000	1	1.423125
19.066667	1	1.384500
19.083333	1	1.342625
19.100000	1	1.298000
19.116667	1	1.251375
19.133333	1	1.205000
19.150000	1	1.158875
19.166667	1	1.116250
19.183333	1	1.076250
19.200000	1	1.041625
19.216667	1	1.013750
19.233333	1	0.992375
19.250000	1	0.979500
19.266667	1	0.976375
19.283333	1	0.983375
19.300000	1	1.001375
19.316667	1	1.030875
19.333333	1	1.073000
19.350000	1	1.127875
19.366667	1	1.196125
19.383333	1	1.276875
19.400000	1	1.371500
19.416667	1	1.478250
19.433333	1	1.595875
19.450000	1	1.722875
19.466667	1	1.856250
19.483333	1	1.994125
19.500000	1	2.133125
19.516667	1	2.268000
19.533333	1	2.397125
19.550000	1	2.516375
19.566667	1	2.621250
19.583333	1	2.708750
19.600000	1	2.776625
19.616667	1	2.821250
19.633333	1	2.842625
19.650000	1	2.840250
19.666667	1	2.813750
19.683333	1	2.765000
19.700000	1	2.695625
19.716667	1	2.608625
19.733333	1	2.507500
19.750000	1	2.395000
19.766667	1	2.274125
19.783333	1	2.147500
19.800000	1	2.019625
19.816667	1	1.892250
19.833333	1	1.768250
19.850000	1	1.648750
19.866667	1	1.535250
19.883333	1	1.428625
19.900000	1	1.329125
19.916667	1	1.238000
19.933333	1	1.154250
19.950000	1	1.078500
19.966667	1	1.010250
19.983333	1	0.950000
20.000000	1	0.896375
20.016667	1	0.848500
20.033333	1	0.807875
20.050000	1	0.772000
20.066667	1	0.742000
20.083333	1	0.717625
20.100000	1	0.698375
20.116667	1	0.683625
20.133333	1	0.673250
20.150000	1	0.666500
20.166667	1	0.664250
20.183333	1	0.665875
20.200000	1	0.670500
20.216667	1	0.677750
20.233333	1	0.686875
20.250000	1	0.697500
20.266667	1	0.709625
20.283333	1	0.721500
20.300000	1	0.733000
20.316667	1	0.744500
20.333333	1	0.754500
20.350000	1	0.762000
20.366667	1	0.768125
20.383333	1	0.771375
20.400000	1	0.771875
20.416667	1	0.769875
20.433333	1	0.766000
20.450000	1	0.760125
20.466667	1	0.753250
20.483333	1	0.746250
20.500000	1	0.739500
20.516667	1	0.733750
20.533333	1	0.729375
20.550000	1	0.728625
20.566667	1	0.732000
20.583333	1	0.739875
20.600000	1	0.754375
20.616667	1	0.774125
20.633333	1	0.801750
20.650000	1	0.835750
20.666667	1	0.877500
20.683333	1	0.926750
20.700000	1	0.982250
20.716667	1	1.045375
20.733333	1	1.114000
20.750000	1	1.186500
20.766667	1	1.261250
20.783333	1	1.337000
20.800000	1	1.411500
20.816667	1	1.481625
20.833333	1	1.546250
20.850000	1	1.602750
20.866667	1	1.649125
20.883333	1	1.682500
20.900000	1	1.704375
20.916667	1	1.712375
20.933333	1	1.706000
20.950000	1	1.685625
20.966667	1	1.652500
20.983333	1	1.607250
21.000000	1	1.552250
21.016667	1	1.488750
21.033333	1	1.419375
21.050000	1	1.346250
21.066667	1	1.271000
21.083333	1	1.195625
21.100000	1	1.122250
21.116667	1	1.051375
21.133333	1	0.985125
21.150000	1	0.922625
21.166667	1	0.865250
21.183333	1	0.812750
21.200000	1	0.765500
21.216667	1	0.724125
21.233333	1	0.687125
21.250000	1	0.655500
21.266667	1	0.627500
21.283333	1	0.602875
21.300000	1	0.581500
21.316667	1	0.564500
21.333333	1	0.549500
21.350000	1	0.536250
21.366667	1	0.525375
21.383333	1	0.515875
21.400000	1	0.507625
21.416667	1	0.500500
21.433333	1	0.494375
21.450000	1	0.488500
21.466667	1	0.483250
21.483333	1	0.478750
21.500000	1	0.475000
21.516667	1	0.470875
21.533333	1	0.467875
21.550000	1	0.465500
21.566667	1	0.462750
21.583333	1	0.461250
21.600000	1	0.460875
21.616667	1	0.460375
21.633333	1	0.460625
21.650000	1	0.461625
21.666667	1	0.463125
21.683333	1	0.465500
21.700000	1	0.469125
21.716667	1	0.472875
21.733333	1	0.477250
21.750000	1	0.482000
21.766667	1	0.488375
21.783333	1	0.495875
21.800000	1	0.503375
21.816667	1	0.511625
21.833333	1	0.519625
21.850000	1	0.528625
21.866667	1	0.538125
21.883333	1	0.548250
21.900000	1	0.558000
21.916667	1	0.567625
21.933333	1	0.577500
21.950000	1	0.587500
21.966667	1	0.596750
21.983333	1	0.606000
22.000000	1	0.614500
22.016667	1	0.623375
22.033333	1	0.630750
22.050000	1	0.637375
22.066667	1	0.643500
22.083333	1	0.648875
22.100000	1	0.653250
22.116667	1	0.657000
22.133333	1	0.658750
22.150000	1	0.659500
22.166667	1	0.658875
22.183333	1	0.657625
22.200000	1	0.654875
22.216667	1	0.651250
22.233333	1	0.646125
22.250000	1	0.639375
22.266667	1	0.631375
22.283333	1	0.622750
22.300000	1	0.613125
22.316667	1	0.602125
22.333333	1	0.590750
22.350000	1	0.577625
22.366667	1	0.564750
22.383333	1	0.551125
22.400000	1	0.537375
22.416667	1	0.523625
22.433333	1	0.509875
22.450000	1	0.496750
22.466667	1	0.484000
22.483333	1	0.471625
22.500000	1	0.459875
22.516667	1	0.448750
22.533333	1	0.438375
22.550000	1	0.428625
22.566667	1	0.419000
22.583333	1	0.411000
22.600000	1	0.403125
22.616667	1	0.395750
22.633333	1	0.388625
22.650000	1	0.382500
22.666667	1	0.377000
22.683333	1	0.371500
22.700000	1	0.366750
22.716667	1	0.361625
22.733333	1	0.357000
22.750000	1	0.352875
22.766667	1	0.349250
22.783333	1	0.345375
22.800000	1	0.341250
22.816667	1	0.337250
22.833333	1	0.333500
22.850000	1	0.329875
22.866667	1	0.327500
22.883333	1	0.324625
22.900000	1	0.321500
22.916667	1	0.319125
22.933333	1	0.316750
22.950000	1	0.315000
22.966667	1	0.313375
22.983333	1	0.311750
23.000000	1	0.310625
23.016667	1	0.309375
23.033333	1	0.308500
23.050000	1	0.308500
23.066667	1	0.309250
23.083333	1	0.310250
23.100000	1	0.310875
23.116667	1	0.311875
23.133333	1	0.313125
23.150000	1	0.315125
23.166667	1	0.317500
23.183333	1	0.320250
23.200000	1	0.322875
23.216667	1	0.326250
23.233333	1	0.330125
23.250000	1	0.334625
23.266667	1	0.339250
23.283333	1	0.345375
23.300000	1	0.352750
23.316667	1	0.362625
23.333333	1	0.374875
23.350000	1	0.389750
23.366667	1	0.408000
23.383333	1	0.430625
23.400000	1	0.457625
23.416667	1	0.490875
23.433333	1	0.532000
23.450000	1	0.579625
23.466667	1	0.637250
23.483333	1	0.705500
23.500000	1	0.785625
23.516667	1	0.879250
23.533333	1	0.987625
23.550000	1	1.112125
23.566667	1	1.253000
23.583333	1	1.411500
23.600000	1	1.588250
23.616667	1	1.784250
23.633333	1	1.998375
23.650000	1	2.229375
23.666667	1	2.476000
23.683333	1	2.737000
23.700000	1	3.009125
23.716667	1	3.289125
23.733333	1	3.573250
23.750000	1	3.855750
23.766667	1	4.131750
23.783333	1	4.395875
23.800000	1	4.642625
23.816667	1	4.866750
23.833333	1	5.062625
23.850000	1	5.225750
23.866667	1	5.352875
23.883333	1	5.440125
23.900000	1	5.486375
23.916667	1	5.490000
23.933333	1	5.452250
23.950000	1	5.374500
23.966667	1	5.258500
23.983333	1	5.108000
24.000000	1	4.927625
24.016667	1	4.722250
24.033333	1	4.496375
24.050000	1	4.255875
24.066667	1	4.004875
24.083333	1	3.747750
24.100000	1	3.490500
24.116667	1	3.236375
24.133333	1	2.988750
24.150000	1	2.749500
24.166667	1	2.521875
24.183333	1	2.309000
24.200000	1	2.109125
24.216667	1	1.924125
24.233333	1	1.755000
24.250000	1	1.600625
24.266667	1	1.461000
24.283333	1	1.335500
24.300000	1	1.223500
24.316667	1	1.123875
24.333333	1	1.035875
24.350000	1	0.957875
24.366667	1	0.890125
24.383333	1	0.830500
24.400000	1	0.778500
24.416667	1	0.734375
24.433333	1	0.695875
24.450000	1	0.662875
24.466667	1	0.635000
24.483333	1	0.611250
24.500000	1	0.591000
24.516667	1	0.573750
24.533333	1	0.559125
24.550000	1	0.547250
24.566667	1	0.535375
24.583333	1	0.525625
24.600000	1	0.516250
24.616667	1	0.508250
24.633333	1	0.500375
24.650000	1	0.493125
24.666667	1	0.486500
24.683333	1	0.480000
24.700000	1	0.473250
24.716667	1	0.466500
24.733333	1	0.459625
24.750000	1	0.453250
24.766667	1	0.446000
24.783333	1	0.438750
24.800000	1	0.431750
24.816667	1	0.425125
24.833333	1	0.419000
24.850000	1	0.412875
24.866667	1	0.408125
24.883333	1	0.402500
24.900000	1	0.396750
24.916667	1	0.392000
24.933333	1	0.387250
24.950000	1	0.382500
24.966667	1	0.378125
24.983333	1	0.374625
25.000000	1	0.370875
25.016667	1	0.367125
25.033333	1	0.364125
25.050000	1	0.361250
25.066667	1	0.358750
25.083333	1	0.355625
25.100000	1	0.353000
25.116667	1	0.350625
25.133333	1	0.349125
25.150000	1	0.346750
25.166667	1	0.344000
25.183333	1	0.341750
25.200000	1	0.339375
25.216667	1	0.336875
25.233333	1	0.334625
25.250000	1	0.332500
25.266667	1	0.330250
25.283333	1	0.328250
25.300000	1	0.326625
25.316667	1	0.324625
25.333333	1	0.322375
25.350000	1	0.320250
25.366667	1	0.318875
25.383333	1	0.317500
25.400000	1	0.316125
25.416667	1	0.315375
25.433333	1	0.314375
25.450000	1	0.313625
25.466667	1	0.312875
25.483333	1	0.313125
25.500000	1	0.313375
25.516667	1	0.314000
25.533333	1	0.314375
25.550000	1	0.315250
25.566667	1	0.316125
25.583333	1	0.317125
25.600000	1	0.318750
25.616667	1	0.320250
25.633333	1	0.321875
25.650000	1	0.323500
25.666667	1	0.324875
25.683333	1	0.326750
25.700000	1	0.328500
25.716667	1	0.330500
25.733333	1	0.332500
25.750000	1	0.334625
25.766667	1	0.337625
25.783333	1	0.339750
25.800000	1	0.342625
25.816667	1	0.345250
25.833333	1	0.347625
25.850000	1	0.351000
25.866667	1	0.354000
25.883333	1	0.356500
25.900000	1	0.359750
25.916667	1	0.363375
25.933333	1	0.366875
25.950000	1	0.370875
25.966667	1	0.374625
25.983333	1	0.379125
26.000000	1	0.383000
26.016667	1	0.387750
26.033333	1	0.391375
26.050000	1	0.395750
26.066667	1	0.400500
26.083333	1	0.404750
26.100000	1	0.409000
26.116667	1	0.412750
26.133333	1	0.416000
26.150000	1	0.419500
26.166667	1	0.423000
26.183333	1	0.425500
26.200000	1	0.427125
26.216667	1	0.428625
26.233333	1	0.430000
26.250000	1	0.431250
26.266667	1	0.430875
26.283333	1	0.430125
26.300000	1	0.428625
26.316667	1	0.426500
26.333333	1	0.424125
26.350000	1	0.420375
26.366667	1	0.416250
26.383333	1	0.411375
26.400000	1	0.406375
26.416667	1	0.400750
26.433333	1	0.395250
26.450000	1	0.388500
26.466667	1	0.382500
26.483333	1	0.375500
26.500000	1	0.368125
26.516667	1	0.360875
26.533333	1	0.353125
26.550000	1	0.346250
26.566667	1	0.339000
26.583333	1	0.331500
26.600000	1	0.324375
26.616667	1	0.317750
26.633333	1	0.311375
26.650000	1	0.304375
26.666667	1	0.298250
26.683333	1	0.292625
26.700000	1	0.288000
26.716667	1	0.283000
26.733333	1	0.279125
26.750000	1	0.275000
26.766667	1	0.271000
26.783333	1	0.267500
26.800000	1	0.265375
26.816667	1	0.263000
26.833333	1	0.260375
26.850000	1	0.258875
26.866667	1	0.257375
26.883333	1	0.256750
26.900000	1	0.256875
26.916667	1	0.257125
26.933333	1	0.258000
26.950000	1	0.258625
26.966667	1	0.259875
26.983333	1	0.261500
27.000000	1	0.263875
27.016667	1	0.266625
27.033333	1	0.270125
27.050000	1	0.274250
27.066667	1	0.278875
27.083333	1	0.284875
27.100000	1	0.290875
27.116667	1	0.297375
27.133333	1	0.306000
27.150000	1	0.315000
27.166667	1	0.324875
27.183333	1	0.336750
27.200000	1	0.350500
27.216667	1	0.366875
27.233333	1	0.385750
27.250000	1	0.406750
27.266667	1	0.431000
27.283333	1	0.458625
27.300000	1	0.490250
27.316667	1	0.526625
27.333333	1	0.567625
27.350000	1	0.613625
27.366667	1	0.666125
27.383333	1	0.725375
27.400000	1	0.792375
27.416667	1	0.867000
27.433333	1	0.949875
27.450000	1	1.041250
27.466667	1	1.142125
27.483333	1	1.252125
27.500000	1	1.372375
27.516667	1	1.501375
27.533333	1	1.640250
27.550000	1	1.788625
27.566667	1	1.945750
27.583333	1	2.111125
27.600000	1	2.282500
27.616667	1	2.459250
27.633333	1	2.639625
27.650000	1	2.822375
27.666667	1	3.005500
27.683333	1	3.187125
27.700000	1	3.363875
27.716667	1	3.532875
27.733333	1	3.692125
27.750000	1	3.839125
27.766667	1	3.970500
27.783333	1	4.084375
27.800000	1	4.178625
27.816667	1	4.252000
27.833333	1	4.302000
27.850000	1	4.327750
27.866667	1	4.328625
27.883333	1	4.304375
27.900000	1	4.255000
27.916667	1	4.181750
27.933333	1	4.085625
27.950000	1	3.969375
27.966667	1	3.834750
27.983333	1	3.683625
28.000000	1	3.518250
28.016667	1	3.341500
28.033333	1	3.157375
28.050000	1	2.968125
28.066667	1	2.776625
28.083333	1	2.585750
28.100000	1	2.396625
28.116667	1	2.213000
28.133333	1	2.036250
28.150000	1	1.867375
28.166667	1	1.708625
28.183333	1	1.560500
28.200000	1	1.423000
28.216667	1	1.296500
28.233333	1	1.180625
28.250000	1	1.076000
28.266667	1	0.981250
28.283333	1	0.896875
28.300000	1	0.822625
28.316667	1	0.757125
28.333333	1	0.699250
28.350000	1	0.649875
28.366667	1	0.607250
28.383333	1	0.571625
28.400000	1	0.542250
28.416667	1	0.518000
28.433333	1	0.498750
28.450000	1	0.483500
28.466667	1	0.472125
28.483333	1	0.463500
28.500000	1	0.459000
28.516667	1	0.456750
28.533333	1	0.457125
28.550000	1	0.459375
28.566667	1	0.463500
28.583333	1	0.469500
28.600000	1	0.476125
28.616667	1	0.483750
28.633333	1	0.492500
28.650000	1	0.502625
28.666667	1	0.512625
28.683333	1	0.522750
28.700000	1	0.532875
28.716667	1	0.543375
28.733333	1	0.553000
28.750000	1	0.562000
28.766667	1	0.570875
28.783333	1	0.580000
28.800000	1	0.587625
28.816667	1	0.594500
28.833333	1	0.600875
28.850000	1	0.606500
28.866667	1	0.610625
28.883333	1	0.613750
28.900000	1	0.615750
28.916667	1	0.617250
28.933333	1	0.617375
28.950000	1	0.617000
28.966667	1	0.615500
28.983333	1	0.612875
29.000000	1	0.608750
29.016667	1	0.604125
29.033333	1	0.598125
29.050000	1	0.591750
29.066667	1	0.583625
29.083333	1	0.574375
29.100000	1	0.565375
29.116667	1	0.555625
29.133333	1	0.544625
29.150000	1	0.533000
29.166667	1	0.521375
29.183333	1	0.508750
29.200000	1	0.496000
29.216667	1	0.483125
29.233333	1	0.469625
29.250000	1	0.455500
29.266667	1	0.441875
29.283333	1	0.428375
29.300000	1	0.414750
29.316667	1	0.401000
29.333333	1	0.387250
29.350000	1	0.374125
29.366667	1	0.361375
29.383333	1	0.348500
29.400000	1	0.335750
29.416667	1	0.323375
29.433333	1	0.311250
29.450000	1	0.300000
29.466667	1	0.288875
29.483333	1	0.278375
29.500000	1	0.267875
29.516667	1	0.259250
29.533333	1	0.250250
29.550000	1	0.242000
29.566667	1	0.234750
29.583333	1	0.227250
29.600000	1	0.220375
29.616667	1	0.214125
29.633333	1	0.208375
29.650000	1	0.202500
29.666667	1	0.197375
29.683333	1	0.192875
29.700000	1	0.188875
29.716667	1	0.185375
29.733333	1	0.182375
29.750000	1	0.180125
29.766667	1	0.177500
29.783333	1	0.175375
29.800000	1	0.174000
29.816667	1	0.171500
29.833333	1	0.170250
29.850000	1	0.169250
29.866667	1	0.167875
29.883333	1	0.166375
29.900000	1	0.166000
29.916667	1	0.165125
29.933333	1	0.164750
29.950000	1	0.164875
29.966667	1	0.164750
29.983333	1	0.164500
30.000000	1	0.164375
30.016667	1	0.164375
30.033333	1	0.164125
30.050000	1	0.164625
30.066667	1	0.164500
30.083333	1	0.164625
30.100000	1	0.164625
30.116667	1	0.164375
30.133333	1	0.164125
30.150000	1	0.164750
30.166667	1	0.164750
30.183333	1	0.165250
30.200000	1	0.165875
30.216667	1	0.166125
30.233333	1	0.167375
30.250000	1	0.168250
30.266667	1	0.168625
30.283333	1	0.168625
30.300000	1	0.169375
30.316667	1	0.170500
30.333333	1	0.171500
30.350000	1	0.173000
30.366667	1	0.173875
30.383333	1	0.175000
30.400000	1	0.177375
30.416667	1	0.179125
30.433333	1	0.181750
30.450000	1	0.184625
30.466667	1	0.186875
30.483333	1	0.190250
30.500000	1	0.193500
30.516667	1	0.196625
30.533333	1	0.201250
30.550000	1	0.205000
30.566667	1	0.210750
30.583333	1	0.216000
30.600000	1	0.222000
30.616667	1	0.228500
30.633333	1	0.235500
30.650000	1	0.243000
30.666667	1	0.252375
30.683333	1	0.262000
30.700000	1	0.273125
30.716667	1	0.285375
30.733333	1	0.298625
30.750000	1	0.312750
30.766667	1	0.328875
30.783333	1	0.346250
30.800000	1	0.366375
30.816667	1	0.388375
30.833333	1	0.413250
30.850000	1	0.441875
30.866667	1	0.473500
30.883333	1	0.509125
30.900000	1	0.548375
30.916667	1	0.593000
30.933333	1	0.642625
30.950000	1	0.698750
30.966667	1	0.761875
30.983333	1	0.832375
31.000000	1	0.911375
31.016667	1	0.999250
31.033333	1	1.097250
31.050000	1	1.204875
31.066667	1	1.324750
31.083333	1	1.456250
31.100000	1	1.598750
31.116667	1	1.754500
31.133333	1	1.922250
31.150000	1	2.102375
31.166667	1	2.295250
31.183333	1	2.500250
31.200000	1	2.717125
31.216667	1	2.944625
31.233333	1	3.181375
31.250000	1	3.425625
31.266667	1	3.676250
31.283333	1	3.929875
31.300000	1	4.185625
31.316667	1	4.440000
31.333333	1	4.690625
31.350000	1	4.934750
31.366667	1	5.169250
31.383333	1	5.391750
31.400000	1	5.598500
31.416667	1	5.788375
31.433333	1	5.956875
31.450000	1	6.102750
31.466667	1	6.222875
31.483333	1	6.317125
31.500000	1	6.383000
31.516667	1	6.420750
31.533333	1	6.429250
31.550000	1	6.409625
31.566667	1	6.360375
31.583333	1	6.283625
31.600000	1	6.181000
31.616667	1	6.053375
31.633333	1	5.903000
31.650000	1	5.731875
31.666667	1	5.542250
31.683333	1	5.336750
31.700000	1	5.119625
31.716667	1	4.892125
31.733333	1	4.658000
31.750000	1	4.418625
31.766667	1	4.176250
31.783333	1	3.933375
31.800000	1	3.692625
31.816667	1	3.455750
31.833333	1	3.224500
31.850000	1	2.999875
31.866667	1	2.783625
31.883333	1	2.576375
31.900000	1	2.379000
31.916667	1	2.192375
31.933333	1	2.017125
31.950000	1	1.852750
31.966667	1	1.699625
31.983333	1	1.555375
32.000000	1	1.422750
32.016667	1	1.300375
32.033333	1	1.188125
32.050000	1	1.085125
32.066667	1	0.991250
32.083333	1	0.905750
32.100000	1	0.828000
32.116667	1	0.757750
32.133333	1	0.695000
32.150000	1	0.638250
32.166667	1	0.587250
32.183333	1	0.540750
32.200000	1	0.499500
32.216667	1	0.462500
32.233333	1	0.429500
32.250000	1	0.400500
32.266667	1	0.374250
32.283333	1	0.350875
32.300000	1	0.330375
32.316667	1	0.311375
32.333333	1	0.294250
32.350000	1	0.278875
32.366667	1	0.265375
32.383333	1	0.252875
32.400000	1	0.242125
32.416667	1	0.232375
32.433333	1	0.223125
32.450000	1	0.215375
32.466667	1	0.208125
32.483333	1	0.201000
32.500000	1	0.194750
32.516667	1	0.189000
32.533333	1	0.184000
32.550000	1	0.179125
32.566667	1	0.174000
32.583333	1	0.169750
32.600000	1	0.165875
32.616667	1	0.162375
32.633333	1	0.159625
32.650000	1	0.156250
32.666667	1	0.152875
32.683333	1	0.150125
32.700000	1	0.147875
32.716667	1	0.145500
32.733333	1	0.143750
32.750000	1	0.141000
32.766667	1	0.139250
32.783333	1	0.137625
32.800000	1	0.135875
32.816667	1	0.135000
32.833333	1	0.134375
32.850000	1	0.133375
32.866667	1	0.132125
32.883333	1	0.131000
32.900000	1	0.129750
32.916667	1	0.129125
32.933333	1	0.127875
32.950000	1	0.127250
32.966667	1	0.126750
32.983333	1	0.126625
33.000000	1	0.125500
33.016667	1	0.125125
33.033333	1	0.124500
33.050000	1	0.123875
33.066667	1	0.123750
33.083333	1	0.123000
33.100000	1	0.122750
33.116667	1	0.123125
33.133333	1	0.122375
33.150000	1	0.122875
33.166667	1	0.123125
33.183333	1	0.122750
33.200000	1	0.122500
33.216667	1	0.122750
33.233333	1	0.122875
33.250000	1	0.123125
33.266667	1	0.123000
33.283333	1	0.124625
33.300000	1	0.125750
33.316667	1	0.127125
33.333333	1	0.128375
33.350000	1	0.129500
33.366667	1	0.131000
33.383333	1	0.132375
33.400000	1	0.133875
33.416667	1	0.135875
33.433333	1	0.138000
33.450000	1	0.139750
33.466667	1	0.141250
33.483333	1	0.143625
33.500000	1	0.146000
33.516667	1	0.148750
33.533333	1	0.150750
33.550000	1	0.153500
33.566667	1	0.156000
33.583333	1	0.158750
33.600000	1	0.160250
33.616667	1	0.162500
33.633333	1	0.164750
33.650000	1	0.166250
33.666667	1	0.167750
33.683333	1	0.169250
33.700000	1	0.170750
33.716667	1	0.172625
33.733333	1	0.174250
33.750000	1	0.175750
33.766667	1	0.176875
33.783333	1	0.177625
33.800000	1	0.178875
33.816667	1	0.179750
33.833333	1	0.180125
33.850000	1	0.180250
33.866667	1	0.180500
33.883333	1	0.181000
33.900000	1	0.180875
33.916667	1	0.180375
33.933333	1	0.180250
33.950000	1	0.179500
33.966667	1	0.179375
33.983333	1	0.178750
34.000000	1	0.178250
34.016667	1	0.177750
34.033333	1	0.177000
34.050000	1	0.176375
34.066667	1	0.176000
34.083333	1	0.175625
34.100000	1	0.174375
34.116667	1	0.173375
34.133333	1	0.172875
34.150000	1	0.172750
34.166667	1	0.172500
34.183333	1	0.171875
34.200000	1	0.171875
34.216667	1	0.171625
34.233333	1	0.171500
34.250000	1	0.171875
34.266667	1	0.172250
34.283333	1	0.172750
34.300000	1	0.173000
34.316667	1	0.174250
34.333333	1	0.175000
34.350000	1	0.176875
34.366667	1	0.178000
34.383333	1	0.179875
34.400000	1	0.181500
34.416667	1	0.182750
34.433333	1	0.185000
34.450000	1	0.187750
34.466667	1	0.189875
34.483333	1	0.192125
34.500000	1	0.194625
34.516667	1	0.196750
34.533333	1	0.199125
34.550000	1	0.201375
34.566667	1	0.203625
34.583333	1	0.205750
34.600000	1	0.206875
34.616667	1	0.208375
34.633333	1	0.209750
34.650000	1	0.210750
34.666667	1	0.212125
34.683333	1	0.213375
34.700000	1	0.213875
34.716667	1	0.213750
34.733333	1	0.214250
34.750000	1	0.214500
34.766667	1	0.214500
34.783333	1	0.213125
34.800000	1	0.212125
34.816667	1	0.209750
34.833333	1	0.208500
34.850000	1	0.206750
34.866667	1	0.204875
34.883333	1	0.201875
34.900000	1	0.199375
34.916667	1	0.196375
34.933333	1	0.193250
34.950000	1	0.191000
34.966667	1	0.187875
34.983333	1	0.184625
35.000000	1	0.181625
35.016667	1	0.178750
35.033333	1	0.176250
35.050000	1	0.173500
35.066667	1	0.171250
35.083333	1	0.168750
35.100000	1	0.166125
35.116667	1	0.164000
35.133333	1	0.162375
35.150000	1	0.161125
35.166667	1	0.159000
35.183333	1	0.157625
35.200000	1	0.156875
35.216667	1	0.156375
35.233333	1	0.155500
35.250000	1	0.155125
35.266667	1	0.154625
35.283333	1	0.154750
35.300000	1	0.155125
35.316667	1	0.156250
35.333333	1	0.156875
35.350000	1	0.157375
35.366667	1	0.158250
35.383333	1	0.158875
35.400000	1	0.160125
35.416667	1	0.161125
35.433333	1	0.162625
35.450000	1	0.164125
35.466667	1	0.165250
35.483333	1	0.166250
35.500000	1	0.168500
35.516667	1	0.169875
35.533333	1	0.171250
35.550000	1	0.172375
35.566667	1	0.173875
35.583333	1	0.175000
35.600000	1	0.175625
35.616667	1	0.176875
35.633333	1	0.177625
35.650000	1	0.178375
35.666667	1	0.179375
35.683333	1	0.180375
35.700000	1	0.180875
35.716667	1	0.181000
35.733333	1	0.181375
35.750000	1	0.181000
35.766667	1	0.181500
35.783333	1	0.181125
35.800000	1	0.180500
35.816667	1	0.180875
35.833333	1	0.180500
35.850000	1	0.179750
35.866667	1	0.179750
35.883333	1	0.178750
35.900000	1	0.178625
35.916667	1	0.178125
35.933333	1	0.177875
35.950000	1	0.177125
35.966667	1	0.176625
35.983333	1	0.175500
36.000000	1	0.175250
36.016667	1	0.174500
36.033333	1	0.174250
36.050000	1	0.173875
36.066667	1	0.173250
36.083333	1	0.173125
36.100000	1	0.173250
36.116667	1	0.173625
36.133333	1	0.173250
36.150000	1	0.174000
36.166667	1	0.173250
36.183333	1	0.173375
36.200000	1	0.174000
36.216667	1	0.174750
36.233333	1	0.174875
36.250000	1	0.174375
36.266667	1	0.174375
36.283333	1	0.174750
36.300000	1	0.175000
36.316667	1	0.174875
36.333333	1	0.174750
36.350000	1	0.174125
36.366667	1	0.173500
36.383333	1	0.172750
36.400000	1	0.172250
36.416667	1	0.171125
36.433333	1	0.169500
36.450000	1	0.167875
36.466667	1	0.166250
36.483333	1	0.164250
36.500000	1	0.162250
36.516667	1	0.160375
36.533333	1	0.158500
36.550000	1	0.155750
36.566667	1	0.153125
36.583333	1	0.150875
36.600000	1	0.148750
36.616667	1	0.146250
36.633333	1	0.143750
36.650000	1	0.141250
36.666667	1	0.138750
36.683333	1	0.135875
36.700000	1	0.133750
36.716667	1	0.131125
36.733333	1	0.129375
36.750000	1	0.126625
36.766667	1	0.124500
36.783333	1	0.122250
36.800000	1	0.120375
36.816667	1	0.118375
36.833333	1	0.116875
36.850000	1	0.115000
36.866667	1	0.113375
36.883333	1	0.111625
36.900000	1	0.110625
36.916667	1	0.110125
36.933333	1	0.109250
36.950000	1	0.108000
36.966667	1	0.107375
36.983333	1	0.106375
37.000000	1	0.105750
37.016667	1	0.105000
37.033333	1	0.103625
37.050000	1	0.103375
37.066667	1	0.103750
37.083333	1	0.103375
37.100000	1	0.103250
37.116667	1	0.102250
37.133333	1	0.102750
37.150000	1	0.102875
37.166667	1	0.102875
37.183333	1	0.103125
37.200000	1	0.102875
37.216667	1	0.103250
37.233333	1	0.103125
37.250000	1	0.103125
37.266667	1	0.103125
37.283333	1	0.103625
37.300000	1	0.103750
37.316667	1	0.104000
37.333333	1	0.104875
37.350000	1	0.104750
37.366667	1	0.105000
37.383333	1	0.104625
37.400000	1	0.104875
37.416667	1	0.105125
37.433333	1	0.105250
37.450000	1	0.106000
37.466667	1	0.105875
37.483333	1	0.105875
37.500000	1	0.106250
37.516667	1	0.107000
37.533333	1	0.108125
37.550000	1	0.108500
37.566667	1	0.108625
37.583333	1	0.109000
37.600000	1	0.109250
37.616667	1	0.109000
37.633333	1	0.108250
37.650000	1	0.108500
37.666667	1	0.108875
37.683333	1	0.109250
37.700000	1	0.110000
37.716667	1	0.109750
37.733333	1	0.109625
37.750000	1	0.110000
37.766667	1	0.109125
37.783333	1	0.108625
37.800000	1	0.107750
37.816667	1	0.107000
37.833333	1	0.107000
37.850000	1	0.105875
37.866667	1	0.105125
37.883333	1	0.104250
37.900000	1	0.103875
37.916667	1	0.103500
37.933333	1	0.103000
37.950000	1	0.102625
37.966667	1	0.101625
37.983333	1	0.101625
38.000000	1	0.101375
38.016667	1	0.100750
38.033333	1	0.101000
38.050000	1	0.100625
38.066667	1	0.101000
38.083333	1	0.100875
38.100000	1	0.101500
38.116667	1	0.102125
38.133333	1	0.102625
38.150000	1	0.103250
38.166667	1	0.103375
38.183333	1	0.103750
38.200000	1	0.104250
38.216667	1	0.105625
38.233333	1	0.106250
38.250000	1	0.107500
38.266667	1	0.108875
38.283333	1	0.109875
38.300000	1	0.110750
38.316667	1	0.112500
38.333333	1	0.114000
38.350000	1	0.115625
38.366667	1	0.116375
38.383333	1	0.117125
38.400000	1	0.117875
38.416667	1	0.119375
38.433333	1	0.121250
38.450000	1	0.122625
38.466667	1	0.123375
38.483333	1	0.124250
38.500000	1	0.125625
38.516667	1	0.127000
38.533333	1	0.127500
38.550000	1	0.128250
38.566667	1	0.128875
38.583333	1	0.129750
38.600000	1	0.129750
38.616667	1	0.130500
38.633333	1	0.131125
38.650000	1	0.131500
38.666667	1	0.131625
38.683333	1	0.131250
38.700000	1	0.131750
38.716667	1	0.131875
38.733333	1	0.131750
38.750000	1	0.131250
38.766667	1	0.130500
38.783333	1	0.130375
38.800000	1	0.129500
38.816667	1	0.128625
38.833333	1	0.128250
38.850000	1	0.127125
38.866667	1	0.126500
38.883333	1	0.125750
38.900000	1	0.124875
38.916667	1	0.123000
38.933333	1	0.121875
38.950000	1	0.120875
38.966667	1	0.119750
38.983333	1	0.117875
39.000000	1	0.116375
39.016667	1	0.115000
39.033333	1	0.113875
39.050000	1	0.112750
39.066667	1	0.111875
39.083333	1	0.111375
39.100000	1	0.110125
39.116667	1	0.108875
39.133333	1	0.107750
39.150000	1	0.107125
39.166667	1	0.105875
39.183333	1	0.104750
39.200000	1	0.103750
39.216667	1	0.102750
39.233333	1	0.101375
39.250000	1	0.100000
39.266667	1	0.098500
39.283333	1	0.097000
39.300000	1	0.095875
39.316667	1	0.093750
39.333333	1	0.091500
39.350000	1	0.089625
39.366667	1	0.087500
39.383333	1	0.085500
39.400000	1	0.083625
39.416667	1	0.081250
39.433333	1	0.079000
39.450000	1	0.076500
39.466667	1	0.074500
39.483333	1	0.072000
39.500000	1	0.069750
39.516667	1	0.067375
39.533333	1	0.065250
39.550000	1	0.062875
39.566667	1	0.060500
39.583333	1	0.058375
39.600000	1	0.056375
39.616667	1	0.054500
39.633333	1	0.052500
39.650000	1	0.050375
39.666667	1	0.049250
39.683333	1	0.048125
39.700000	1	0.046875
39.716667	1	0.044875
39.733333	1	0.043750
39.750000	1	0.043500
39.766667	1	0.043500
39.783333	1	0.043500
39.800000	1	0.043375
39.816667	1	0.043750
39.833333	1	0.044125
39.850000	1	0.044875
39.866667	1	0.045000
39.883333	1	0.045875
39.900000	1	0.047250
39.916667	1	0.048750
39.933333	1	0.049750
39.950000	1	0.050875
39.966667	1	0.051875
39.983333	1	0.053750
40.000000	1	0.055250
