URL	chrom://bioreactor/micro_cm7/HPLC_Ultimate_3000/Users/markusar/20240716_MA_pHrange2.seq/450.smp/RI_1.channel/RI_1.chm
Channel	RI_1

Injection Information:
Data Vault	micro_cm7
Sequence	20240716_MA_pHrange2
Name	Pv2_40H_3
Number	20
Position	BB8
Comment	
Processing Method	
Instrument Method	run_25B_method
Type	Unknown
Status	Finished
Inject Time	17.07.2024 07:04:55 +02:00
Volume (µl)	20.0000
Dilution Factor	1.0000
Weight	1.0000

Chromatogram Data Information:
Time Min. (min)	0.000000
Time Max. (min)	40.000000
Data Points	2401
Detector	RI
Generating Data System	Chromeleon 7.3.2.11814
Exporting Data System	Chromeleon 7.3.2.0
Operator	Instrument Controller
Signal Quantity	Refractive 
Signal Unit	µRIU
Signal Min.	-0.217000
Signal Max.	105.022625
Channel	RI_1
Driver Name	RID520Driver.dll
Channel Type	Evaluation
Min. Step (s)	1
Max. Step (s)	1
Average Step (s)	1

Signal Parameter Information:
Signal Info	

Chromatogram Data:
Time (min)	Step (s)	Value (µRIU)
0.000000	n.a.	0.038250
0.016667	1	0.035125
0.033333	1	0.031500
0.050000	1	0.028250
0.066667	1	0.025375
0.083333	1	0.022375
0.100000	1	0.019875
0.116667	1	0.017250
0.133333	1	0.014125
0.150000	1	0.012000
0.166667	1	0.010125
0.183333	1	0.008250
0.200000	1	0.005875
0.216667	1	0.003875
0.233333	1	0.002500
0.250000	1	0.001500
0.266667	1	0.000875
0.283333	1	0.000000
0.300000	1	-0.000500
0.316667	1	-0.001000
0.333333	1	-0.001000
0.350000	1	-0.001125
0.366667	1	-0.002000
0.383333	1	-0.002625
0.400000	1	-0.002375
0.416667	1	-0.001875
0.433333	1	-0.000500
0.450000	1	0.000750
0.466667	1	0.003375
0.483333	1	0.006000
0.500000	1	0.007125
0.516667	1	0.009250
0.533333	1	0.010625
0.550000	1	0.011500
0.566667	1	0.012125
0.583333	1	0.012375
0.600000	1	0.013250
0.616667	1	0.014250
0.633333	1	0.016250
0.650000	1	0.017875
0.666667	1	0.019625
0.683333	1	0.021625
0.700000	1	0.023500
0.716667	1	0.026250
0.733333	1	0.028000
0.750000	1	0.029875
0.766667	1	0.032000
0.783333	1	0.033625
0.800000	1	0.035000
0.816667	1	0.036875
0.833333	1	0.038625
0.850000	1	0.040125
0.866667	1	0.041375
0.883333	1	0.042500
0.900000	1	0.043625
0.916667	1	0.044125
0.933333	1	0.044000
0.950000	1	0.044250
0.966667	1	0.044250
0.983333	1	0.044625
1.000000	1	0.044375
1.016667	1	0.044500
1.033333	1	0.044000
1.050000	1	0.043625
1.066667	1	0.043625
1.083333	1	0.042375
1.100000	1	0.041625
1.116667	1	0.040750
1.133333	1	0.039125
1.150000	1	0.038625
1.166667	1	0.037375
1.183333	1	0.036625
1.200000	1	0.035625
1.216667	1	0.034500
1.233333	1	0.033750
1.250000	1	0.033000
1.266667	1	0.032125
1.283333	1	0.031750
1.300000	1	0.030250
1.316667	1	0.030375
1.333333	1	0.029500
1.350000	1	0.028625
1.366667	1	0.028125
1.383333	1	0.027875
1.400000	1	0.027250
1.416667	1	0.026625
1.433333	1	0.026125
1.450000	1	0.026375
1.466667	1	0.026250
1.483333	1	0.026250
1.500000	1	0.026125
1.516667	1	0.025500
1.533333	1	0.025375
1.550000	1	0.025500
1.566667	1	0.025875
1.583333	1	0.026625
1.600000	1	0.027000
1.616667	1	0.026875
1.633333	1	0.027375
1.650000	1	0.028000
1.666667	1	0.028875
1.683333	1	0.029875
1.700000	1	0.030375
1.716667	1	0.031375
1.733333	1	0.032250
1.750000	1	0.032750
1.766667	1	0.033500
1.783333	1	0.033750
1.800000	1	0.034250
1.816667	1	0.035125
1.833333	1	0.035750
1.850000	1	0.036375
1.866667	1	0.036875
1.883333	1	0.037125
1.900000	1	0.037500
1.916667	1	0.037250
1.933333	1	0.037250
1.950000	1	0.036750
1.966667	1	0.036125
1.983333	1	0.036250
2.000000	1	0.035875
2.016667	1	0.035375
2.033333	1	0.034500
2.050000	1	0.034375
2.066667	1	0.034125
2.083333	1	0.034125
2.100000	1	0.033125
2.116667	1	0.032125
2.133333	1	0.030875
2.150000	1	0.029625
2.166667	1	0.029250
2.183333	1	0.028375
2.200000	1	0.026875
2.216667	1	0.026250
2.233333	1	0.025500
2.250000	1	0.024250
2.266667	1	0.023375
2.283333	1	0.022625
2.300000	1	0.021750
2.316667	1	0.020875
2.333333	1	0.020125
2.350000	1	0.019000
2.366667	1	0.019125
2.383333	1	0.018500
2.400000	1	0.018000
2.416667	1	0.017625
2.433333	1	0.017125
2.450000	1	0.016375
2.466667	1	0.015625
2.483333	1	0.014750
2.500000	1	0.015250
2.516667	1	0.015125
2.533333	1	0.014125
2.550000	1	0.013625
2.566667	1	0.013500
2.583333	1	0.012625
2.600000	1	0.011625
2.616667	1	0.011125
2.633333	1	0.011000
2.650000	1	0.011250
2.666667	1	0.010125
2.683333	1	0.009875
2.700000	1	0.009375
2.716667	1	0.008500
2.733333	1	0.007875
2.750000	1	0.007375
2.766667	1	0.006500
2.783333	1	0.006375
2.800000	1	0.005625
2.816667	1	0.005000
2.833333	1	0.005000
2.850000	1	0.004750
2.866667	1	0.004875
2.883333	1	0.005000
2.900000	1	0.004875
2.916667	1	0.005000
2.933333	1	0.004875
2.950000	1	0.005375
2.966667	1	0.006250
2.983333	1	0.006375
3.000000	1	0.007250
3.016667	1	0.008500
3.033333	1	0.010125
3.050000	1	0.011000
3.066667	1	0.012875
3.083333	1	0.015125
3.100000	1	0.017500
3.116667	1	0.019500
3.133333	1	0.022000
3.150000	1	0.024125
3.166667	1	0.026250
3.183333	1	0.029250
3.200000	1	0.032375
3.216667	1	0.035375
3.233333	1	0.038250
3.250000	1	0.040625
3.266667	1	0.044000
3.283333	1	0.047125
3.300000	1	0.050375
3.316667	1	0.052875
3.333333	1	0.056375
3.350000	1	0.060000
3.366667	1	0.062875
3.383333	1	0.065750
3.400000	1	0.069125
3.416667	1	0.073000
3.433333	1	0.076000
3.450000	1	0.079500
3.466667	1	0.081875
3.483333	1	0.084625
3.500000	1	0.087875
3.516667	1	0.090750
3.533333	1	0.094000
3.550000	1	0.097125
3.566667	1	0.100125
3.583333	1	0.102750
3.600000	1	0.106750
3.616667	1	0.109875
3.633333	1	0.113125
3.650000	1	0.116250
3.666667	1	0.119875
3.683333	1	0.123625
3.700000	1	0.127000
3.716667	1	0.130125
3.733333	1	0.133250
3.750000	1	0.136625
3.766667	1	0.140125
3.783333	1	0.143625
3.800000	1	0.147125
3.816667	1	0.150375
3.833333	1	0.153750
3.850000	1	0.156750
3.866667	1	0.160000
3.883333	1	0.163875
3.900000	1	0.167375
3.916667	1	0.169875
3.933333	1	0.173125
3.950000	1	0.175875
3.966667	1	0.178500
3.983333	1	0.181000
4.000000	1	0.182875
4.016667	1	0.185125
4.033333	1	0.186250
4.050000	1	0.187500
4.066667	1	0.188875
4.083333	1	0.189875
4.100000	1	0.191125
4.116667	1	0.191875
4.133333	1	0.191875
4.150000	1	0.191250
4.166667	1	0.190250
4.183333	1	0.189625
4.200000	1	0.188750
4.216667	1	0.187875
4.233333	1	0.186125
4.250000	1	0.184625
4.266667	1	0.183125
4.283333	1	0.181750
4.300000	1	0.180000
4.316667	1	0.178250
4.333333	1	0.175500
4.350000	1	0.173375
4.366667	1	0.171750
4.383333	1	0.169500
4.400000	1	0.167250
4.416667	1	0.165250
4.433333	1	0.162875
4.450000	1	0.160250
4.466667	1	0.158250
4.483333	1	0.156750
4.500000	1	0.155500
4.516667	1	0.153625
4.533333	1	0.152250
4.550000	1	0.151125
4.566667	1	0.150125
4.583333	1	0.148750
4.600000	1	0.148500
4.616667	1	0.148250
4.633333	1	0.147750
4.650000	1	0.147875
4.666667	1	0.148125
4.683333	1	0.148625
4.700000	1	0.150125
4.716667	1	0.151375
4.733333	1	0.152125
4.750000	1	0.153125
4.766667	1	0.154500
4.783333	1	0.156625
4.800000	1	0.158375
4.816667	1	0.160250
4.833333	1	0.162500
4.850000	1	0.165000
4.866667	1	0.167375
4.883333	1	0.170250
4.900000	1	0.172625
4.916667	1	0.175375
4.933333	1	0.178125
4.950000	1	0.181000
4.966667	1	0.184750
4.983333	1	0.187625
5.000000	1	0.190125
5.016667	1	0.194000
5.033333	1	0.197500
5.050000	1	0.200000
5.066667	1	0.204125
5.083333	1	0.207250
5.100000	1	0.211000
5.116667	1	0.214625
5.133333	1	0.218750
5.150000	1	0.222750
5.166667	1	0.227000
5.183333	1	0.231500
5.200000	1	0.236250
5.216667	1	0.240500
5.233333	1	0.245250
5.250000	1	0.249500
5.266667	1	0.254125
5.283333	1	0.258000
5.300000	1	0.262625
5.316667	1	0.267500
5.333333	1	0.271625
5.350000	1	0.275875
5.366667	1	0.279375
5.383333	1	0.282250
5.400000	1	0.285875
5.416667	1	0.288250
5.433333	1	0.291000
5.450000	1	0.292500
5.466667	1	0.293875
5.483333	1	0.295125
5.500000	1	0.295500
5.516667	1	0.295625
5.533333	1	0.295625
5.550000	1	0.294750
5.566667	1	0.293375
5.583333	1	0.291250
5.600000	1	0.288500
5.616667	1	0.285250
5.633333	1	0.282000
5.650000	1	0.278625
5.666667	1	0.274375
5.683333	1	0.269375
5.700000	1	0.264875
5.716667	1	0.260000
5.733333	1	0.254500
5.750000	1	0.249500
5.766667	1	0.244250
5.783333	1	0.238250
5.800000	1	0.231875
5.816667	1	0.226125
5.833333	1	0.220875
5.850000	1	0.214875
5.866667	1	0.208625
5.883333	1	0.202375
5.900000	1	0.196125
5.916667	1	0.190375
5.933333	1	0.184125
5.950000	1	0.178000
5.966667	1	0.173125
5.983333	1	0.167125
6.000000	1	0.161250
6.016667	1	0.154625
6.033333	1	0.148625
6.050000	1	0.142750
6.066667	1	0.137500
6.083333	1	0.131250
6.100000	1	0.125500
6.116667	1	0.119625
6.133333	1	0.113750
6.150000	1	0.108250
6.166667	1	0.103125
6.183333	1	0.097625
6.200000	1	0.092750
6.216667	1	0.087375
6.233333	1	0.082375
6.250000	1	0.076750
6.266667	1	0.072125
6.283333	1	0.067125
6.300000	1	0.062000
6.316667	1	0.057625
6.333333	1	0.054125
6.350000	1	0.049625
6.366667	1	0.045375
6.383333	1	0.041250
6.400000	1	0.037750
6.416667	1	0.034125
6.433333	1	0.031000
6.450000	1	0.027875
6.466667	1	0.024625
6.483333	1	0.022000
6.500000	1	0.019125
6.516667	1	0.016375
6.533333	1	0.014750
6.550000	1	0.013000
6.566667	1	0.011375
6.583333	1	0.010000
6.600000	1	0.008625
6.616667	1	0.008375
6.633333	1	0.007125
6.650000	1	0.006500
6.666667	1	0.007125
6.683333	1	0.008250
6.700000	1	0.009625
6.716667	1	0.011625
6.733333	1	0.013625
6.750000	1	0.016125
6.766667	1	0.019250
6.783333	1	0.023625
6.800000	1	0.027625
6.816667	1	0.031500
6.833333	1	0.036500
6.850000	1	0.041375
6.866667	1	0.046875
6.883333	1	0.052125
6.900000	1	0.057375
6.916667	1	0.063500
6.933333	1	0.070125
6.950000	1	0.076000
6.966667	1	0.083000
6.983333	1	0.089125
7.000000	1	0.095625
7.016667	1	0.102750
7.033333	1	0.109250
7.050000	1	0.116000
7.066667	1	0.122250
7.083333	1	0.128250
7.100000	1	0.134375
7.116667	1	0.140875
7.133333	1	0.146625
7.150000	1	0.152000
7.166667	1	0.156750
7.183333	1	0.161625
7.200000	1	0.166375
7.216667	1	0.171125
7.233333	1	0.174625
7.250000	1	0.177875
7.266667	1	0.180750
7.283333	1	0.184000
7.300000	1	0.185875
7.316667	1	0.187625
7.333333	1	0.189250
7.350000	1	0.190375
7.366667	1	0.191500
7.383333	1	0.192875
7.400000	1	0.193000
7.416667	1	0.192250
7.433333	1	0.192125
7.450000	1	0.190875
7.466667	1	0.188500
7.483333	1	0.186375
7.500000	1	0.184625
7.516667	1	0.181750
7.533333	1	0.180375
7.550000	1	0.177875
7.566667	1	0.174500
7.583333	1	0.171250
7.600000	1	0.167250
7.616667	1	0.163750
7.633333	1	0.159000
7.650000	1	0.154125
7.666667	1	0.149250
7.683333	1	0.143875
7.700000	1	0.138625
7.716667	1	0.133875
7.733333	1	0.128375
7.750000	1	0.122750
7.766667	1	0.117125
7.783333	1	0.110750
7.800000	1	0.105375
7.816667	1	0.099625
7.833333	1	0.092750
7.850000	1	0.086750
7.866667	1	0.080750
7.883333	1	0.074375
7.900000	1	0.067750
7.916667	1	0.061500
7.933333	1	0.055500
7.950000	1	0.049625
7.966667	1	0.043500
7.983333	1	0.038250
8.000000	1	0.032875
8.016667	1	0.027625
8.033333	1	0.022375
8.050000	1	0.017750
8.066667	1	0.012500
8.083333	1	0.007625
8.100000	1	0.003875
8.116667	1	0.000000
8.133333	1	-0.003625
8.150000	1	-0.007000
8.166667	1	-0.010000
8.183333	1	-0.012250
8.200000	1	-0.014000
8.216667	1	-0.015750
8.233333	1	-0.017625
8.250000	1	-0.019125
8.266667	1	-0.019750
8.283333	1	-0.020875
8.300000	1	-0.021125
8.316667	1	-0.021250
8.333333	1	-0.020875
8.350000	1	-0.020500
8.366667	1	-0.019375
8.383333	1	-0.018375
8.400000	1	-0.017875
8.416667	1	-0.016125
8.433333	1	-0.015000
8.450000	1	-0.014000
8.466667	1	-0.012250
8.483333	1	-0.010750
8.500000	1	-0.008500
8.516667	1	-0.006625
8.533333	1	-0.004375
8.550000	1	-0.002625
8.566667	1	-0.001000
8.583333	1	0.000500
8.600000	1	0.001875
8.616667	1	0.003750
8.633333	1	0.005375
8.650000	1	0.006750
8.666667	1	0.008375
8.683333	1	0.009875
8.700000	1	0.011250
8.716667	1	0.012750
8.733333	1	0.013250
8.750000	1	0.013875
8.766667	1	0.014875
8.783333	1	0.014875
8.800000	1	0.016000
8.816667	1	0.015625
8.833333	1	0.016250
8.850000	1	0.016875
8.866667	1	0.016750
8.883333	1	0.016750
8.900000	1	0.016625
8.916667	1	0.016750
8.933333	1	0.017125
8.950000	1	0.016750
8.966667	1	0.016250
8.983333	1	0.016125
9.000000	1	0.014875
9.016667	1	0.014625
9.033333	1	0.013250
9.050000	1	0.012625
9.066667	1	0.011750
9.083333	1	0.010875
9.100000	1	0.010250
9.116667	1	0.010250
9.133333	1	0.009625
9.150000	1	0.008875
9.166667	1	0.007875
9.183333	1	0.007000
9.200000	1	0.006750
9.216667	1	0.006000
9.233333	1	0.005375
9.250000	1	0.004375
9.266667	1	0.003125
9.283333	1	0.002000
9.300000	1	0.001125
9.316667	1	0.000250
9.333333	1	-0.000875
9.350000	1	-0.002375
9.366667	1	-0.004000
9.383333	1	-0.004625
9.400000	1	-0.005750
9.416667	1	-0.006625
9.433333	1	-0.007500
9.450000	1	-0.008750
9.466667	1	-0.009625
9.483333	1	-0.010625
9.500000	1	-0.010750
9.516667	1	-0.012000
9.533333	1	-0.012875
9.550000	1	-0.013250
9.566667	1	-0.013875
9.583333	1	-0.015125
9.600000	1	-0.015375
9.616667	1	-0.016000
9.633333	1	-0.016750
9.650000	1	-0.017375
9.666667	1	-0.017875
9.683333	1	-0.018250
9.700000	1	-0.018375
9.716667	1	-0.018500
9.733333	1	-0.018875
9.750000	1	-0.018875
9.766667	1	-0.019000
9.783333	1	-0.019250
9.800000	1	-0.019500
9.816667	1	-0.019625
9.833333	1	-0.019375
9.850000	1	-0.018750
9.866667	1	-0.018875
9.883333	1	-0.018875
9.900000	1	-0.018750
9.916667	1	-0.018000
9.933333	1	-0.018000
9.950000	1	-0.017375
9.966667	1	-0.016500
9.983333	1	-0.016000
10.000000	1	-0.014250
10.016667	1	-0.012875
10.033333	1	-0.010625
10.050000	1	-0.008625
10.066667	1	-0.005500
10.083333	1	-0.001625
10.100000	1	0.002375
10.116667	1	0.007875
10.133333	1	0.013625
10.150000	1	0.019750
10.166667	1	0.027250
10.183333	1	0.034750
10.200000	1	0.042875
10.216667	1	0.052500
10.233333	1	0.062875
10.250000	1	0.074375
10.266667	1	0.086875
10.283333	1	0.100375
10.300000	1	0.115250
10.316667	1	0.131125
10.333333	1	0.146875
10.350000	1	0.161500
10.366667	1	0.172000
10.383333	1	0.174000
10.400000	1	0.164500
10.416667	1	0.136875
10.433333	1	0.088125
10.450000	1	0.017250
10.466667	1	-0.069625
10.483333	1	-0.157000
10.500000	1	-0.217000
10.516667	1	-0.209125
10.533333	1	-0.078125
10.550000	1	0.238500
10.566667	1	0.809750
10.583333	1	1.707500
10.600000	1	2.996250
10.616667	1	4.732125
10.633333	1	6.959000
10.650000	1	9.706250
10.666667	1	12.997875
10.683333	1	16.846625
10.700000	1	21.253375
10.716667	1	26.209500
10.733333	1	31.695125
10.750000	1	37.685875
10.766667	1	44.145125
10.783333	1	51.026000
10.800000	1	58.271250
10.816667	1	65.804500
10.833333	1	73.510000
10.850000	1	81.220625
10.866667	1	88.682500
10.883333	1	95.486750
10.900000	1	101.026875
10.916667	1	104.494375
10.933333	1	105.022625
10.950000	1	101.960750
10.966667	1	95.224125
10.983333	1	85.423875
11.000000	1	73.734250
11.016667	1	61.514250
11.033333	1	49.919375
11.050000	1	39.668500
11.066667	1	31.061500
11.083333	1	24.100625
11.100000	1	18.624125
11.116667	1	14.400375
11.133333	1	11.190125
11.150000	1	8.776000
11.166667	1	6.972875
11.183333	1	5.629875
11.200000	1	4.627875
11.216667	1	3.876125
11.233333	1	3.309250
11.250000	1	2.876625
11.266667	1	2.542750
11.283333	1	2.281125
11.300000	1	2.072750
11.316667	1	1.904625
11.333333	1	1.767000
11.350000	1	1.654125
11.366667	1	1.559375
11.383333	1	1.479625
11.400000	1	1.412500
11.416667	1	1.356125
11.433333	1	1.308250
11.450000	1	1.267500
11.466667	1	1.234125
11.483333	1	1.204750
11.500000	1	1.180625
11.516667	1	1.160500
11.533333	1	1.143750
11.550000	1	1.129625
11.566667	1	1.118000
11.583333	1	1.108000
11.600000	1	1.100500
11.616667	1	1.094625
11.633333	1	1.090500
11.650000	1	1.087375
11.666667	1	1.086000
11.683333	1	1.085625
11.700000	1	1.086250
11.716667	1	1.088375
11.733333	1	1.091375
11.750000	1	1.096125
11.766667	1	1.101625
11.783333	1	1.108000
11.800000	1	1.115500
11.816667	1	1.123250
11.833333	1	1.131250
11.850000	1	1.139125
11.866667	1	1.147125
11.883333	1	1.154125
11.900000	1	1.160625
11.916667	1	1.166750
11.933333	1	1.171125
11.950000	1	1.174125
11.966667	1	1.176000
11.983333	1	1.177000
12.000000	1	1.177250
12.016667	1	1.177000
12.033333	1	1.175500
12.050000	1	1.174125
12.066667	1	1.171375
12.083333	1	1.169375
12.100000	1	1.166875
12.116667	1	1.164875
12.133333	1	1.163125
12.150000	1	1.161625
12.166667	1	1.160625
12.183333	1	1.159250
12.200000	1	1.159125
12.216667	1	1.160000
12.233333	1	1.161750
12.250000	1	1.164500
12.266667	1	1.168625
12.283333	1	1.174500
12.300000	1	1.184750
12.316667	1	1.198750
12.333333	1	1.218000
12.350000	1	1.244500
12.366667	1	1.280250
12.383333	1	1.329125
12.400000	1	1.394375
12.416667	1	1.480125
12.433333	1	1.590875
12.450000	1	1.730750
12.466667	1	1.906875
12.483333	1	2.122750
12.500000	1	2.384750
12.516667	1	2.696500
12.533333	1	3.061375
12.550000	1	3.481500
12.566667	1	3.957125
12.583333	1	4.487125
12.600000	1	5.066875
12.616667	1	5.688625
12.633333	1	6.344500
12.650000	1	7.023875
12.666667	1	7.714750
12.683333	1	8.404375
12.700000	1	9.081500
12.716667	1	9.734125
12.733333	1	10.357000
12.750000	1	10.946750
12.766667	1	11.502375
12.783333	1	12.028875
12.800000	1	12.533125
12.816667	1	13.024375
12.833333	1	13.511500
12.850000	1	14.005250
12.866667	1	14.513250
12.883333	1	15.043625
12.900000	1	15.601125
12.916667	1	16.189250
12.933333	1	16.810500
12.950000	1	17.463750
12.966667	1	18.149000
12.983333	1	18.865625
13.000000	1	19.609625
13.016667	1	20.381500
13.033333	1	21.178750
13.050000	1	22.000625
13.066667	1	22.846750
13.083333	1	23.716000
13.100000	1	24.607625
13.116667	1	25.519750
13.133333	1	26.450750
13.150000	1	27.400875
13.166667	1	28.369500
13.183333	1	29.357500
13.200000	1	30.364125
13.216667	1	31.389250
13.233333	1	32.433125
13.250000	1	33.497750
13.266667	1	34.583000
13.283333	1	35.689500
13.300000	1	36.816375
13.316667	1	37.965625
13.333333	1	39.134375
13.350000	1	40.325375
13.366667	1	41.538750
13.383333	1	42.775375
13.400000	1	44.034625
13.416667	1	45.316875
13.433333	1	46.623500
13.450000	1	47.956750
13.466667	1	49.317750
13.483333	1	50.706375
13.500000	1	52.123625
13.516667	1	53.570125
13.533333	1	55.045625
13.550000	1	56.550500
13.566667	1	58.085750
13.583333	1	59.651000
13.600000	1	61.245500
13.616667	1	62.870375
13.633333	1	64.527875
13.650000	1	66.220625
13.666667	1	67.949750
13.683333	1	69.714375
13.700000	1	71.516125
13.716667	1	73.353625
13.733333	1	75.226125
13.750000	1	77.122875
13.766667	1	78.998875
13.783333	1	80.736625
13.800000	1	82.139875
13.816667	1	82.962375
13.833333	1	82.963375
13.850000	1	81.933625
13.866667	1	79.669875
13.883333	1	75.941625
13.900000	1	70.542500
13.916667	1	63.455500
13.933333	1	55.030625
13.950000	1	46.009500
13.966667	1	37.288500
13.983333	1	29.585125
14.000000	1	23.240750
14.016667	1	18.251625
14.033333	1	14.432625
14.050000	1	11.551750
14.066667	1	9.400875
14.083333	1	7.807875
14.100000	1	6.635250
14.116667	1	5.775375
14.133333	1	5.142875
14.150000	1	4.675125
14.166667	1	4.323125
14.183333	1	4.054000
14.200000	1	3.843500
14.216667	1	3.675500
14.233333	1	3.537500
14.250000	1	3.420875
14.266667	1	3.322375
14.283333	1	3.235875
14.300000	1	3.158750
14.316667	1	3.090750
14.333333	1	3.029375
14.350000	1	2.974000
14.366667	1	2.924125
14.383333	1	2.880500
14.400000	1	2.844000
14.416667	1	2.815750
14.433333	1	2.796750
14.450000	1	2.789625
14.466667	1	2.799375
14.483333	1	2.829875
14.500000	1	2.889000
14.516667	1	2.986625
14.533333	1	3.135000
14.550000	1	3.352375
14.566667	1	3.660500
14.583333	1	4.086875
14.600000	1	4.666125
14.616667	1	5.440000
14.633333	1	6.458125
14.650000	1	7.774750
14.666667	1	9.446750
14.683333	1	11.531750
14.700000	1	14.081500
14.716667	1	17.133000
14.733333	1	20.709625
14.750000	1	24.811625
14.766667	1	29.403875
14.783333	1	34.409125
14.800000	1	39.721125
14.816667	1	45.193875
14.833333	1	50.644375
14.850000	1	55.862375
14.866667	1	60.621875
14.883333	1	64.697125
14.900000	1	67.885750
14.916667	1	70.022125
14.933333	1	70.998750
14.950000	1	70.767625
14.966667	1	69.353250
14.983333	1	66.846625
15.000000	1	63.392875
15.016667	1	59.173500
15.033333	1	54.398125
15.050000	1	49.286750
15.066667	1	44.050750
15.083333	1	38.878625
15.100000	1	33.926500
15.116667	1	29.312000
15.133333	1	25.111875
15.150000	1	21.367375
15.166667	1	18.091000
15.183333	1	15.271000
15.200000	1	12.874750
15.216667	1	10.861750
15.233333	1	9.187250
15.250000	1	7.807250
15.266667	1	6.678125
15.283333	1	5.758750
15.300000	1	5.015750
15.316667	1	4.418000
15.333333	1	3.939750
15.350000	1	3.557625
15.366667	1	3.255000
15.383333	1	3.016625
15.400000	1	2.830750
15.416667	1	2.688250
15.433333	1	2.580375
15.450000	1	2.499250
15.466667	1	2.440250
15.483333	1	2.398250
15.500000	1	2.368500
15.516667	1	2.347875
15.533333	1	2.331250
15.550000	1	2.315500
15.566667	1	2.299375
15.583333	1	2.281250
15.600000	1	2.259500
15.616667	1	2.232250
15.633333	1	2.200500
15.650000	1	2.164375
15.666667	1	2.125625
15.683333	1	2.084875
15.700000	1	2.042750
15.716667	1	2.000250
15.733333	1	1.958500
15.750000	1	1.918750
15.766667	1	1.881375
15.783333	1	1.844875
15.800000	1	1.809875
15.816667	1	1.776875
15.833333	1	1.745125
15.850000	1	1.713625
15.866667	1	1.682750
15.883333	1	1.653375
15.900000	1	1.624000
15.916667	1	1.596500
15.933333	1	1.569750
15.950000	1	1.544875
15.966667	1	1.522625
15.983333	1	1.502750
16.000000	1	1.485625
16.016667	1	1.471875
16.033333	1	1.460750
16.050000	1	1.452500
16.066667	1	1.445875
16.083333	1	1.442000
16.100000	1	1.439125
16.116667	1	1.437500
16.133333	1	1.435750
16.150000	1	1.433375
16.166667	1	1.431125
16.183333	1	1.426500
16.200000	1	1.420500
16.216667	1	1.412250
16.233333	1	1.402750
16.250000	1	1.391250
16.266667	1	1.378375
16.283333	1	1.363875
16.300000	1	1.348625
16.316667	1	1.332000
16.333333	1	1.315375
16.350000	1	1.298375
16.366667	1	1.281875
16.383333	1	1.265750
16.400000	1	1.249500
16.416667	1	1.235000
16.433333	1	1.222000
16.450000	1	1.209750
16.466667	1	1.199125
16.483333	1	1.190625
16.500000	1	1.184875
16.516667	1	1.180750
16.533333	1	1.178750
16.550000	1	1.179000
16.566667	1	1.180500
16.583333	1	1.184625
16.600000	1	1.190000
16.616667	1	1.196000
16.633333	1	1.202875
16.650000	1	1.210000
16.666667	1	1.216125
16.683333	1	1.222625
16.700000	1	1.228000
16.716667	1	1.232500
16.733333	1	1.236000
16.750000	1	1.238750
16.766667	1	1.241125
16.783333	1	1.243125
16.800000	1	1.244625
16.816667	1	1.246875
16.833333	1	1.249125
16.850000	1	1.252125
16.866667	1	1.255125
16.883333	1	1.259250
16.900000	1	1.262750
16.916667	1	1.266375
16.933333	1	1.270000
16.950000	1	1.272250
16.966667	1	1.274250
16.983333	1	1.275000
17.000000	1	1.276000
17.016667	1	1.275375
17.033333	1	1.273375
17.050000	1	1.270625
17.066667	1	1.267500
17.083333	1	1.262500
17.100000	1	1.258250
17.116667	1	1.254000
17.133333	1	1.250250
17.150000	1	1.246500
17.166667	1	1.243875
17.183333	1	1.241375
17.200000	1	1.239375
17.216667	1	1.238125
17.233333	1	1.237875
17.250000	1	1.238000
17.266667	1	1.238375
17.283333	1	1.239125
17.300000	1	1.240750
17.316667	1	1.242125
17.333333	1	1.244125
17.350000	1	1.246125
17.366667	1	1.249000
17.383333	1	1.251625
17.400000	1	1.254250
17.416667	1	1.256125
17.433333	1	1.257750
17.450000	1	1.259000
17.466667	1	1.258875
17.483333	1	1.258250
17.500000	1	1.257000
17.516667	1	1.254625
17.533333	1	1.250125
17.550000	1	1.245125
17.566667	1	1.238250
17.583333	1	1.229750
17.600000	1	1.220500
17.616667	1	1.210250
17.633333	1	1.197625
17.650000	1	1.184000
17.666667	1	1.169750
17.683333	1	1.155125
17.700000	1	1.138500
17.716667	1	1.123125
17.733333	1	1.108375
17.750000	1	1.092625
17.766667	1	1.078000
17.783333	1	1.063000
17.800000	1	1.049000
17.816667	1	1.035625
17.833333	1	1.023625
17.850000	1	1.011750
17.866667	1	1.000625
17.883333	1	0.989250
17.900000	1	0.979125
17.916667	1	0.970000
17.933333	1	0.961375
17.950000	1	0.952750
17.966667	1	0.944875
17.983333	1	0.938125
18.000000	1	0.931500
18.016667	1	0.924875
18.033333	1	0.918500
18.050000	1	0.912500
18.066667	1	0.905875
18.083333	1	0.899625
18.100000	1	0.893500
18.116667	1	0.887250
18.133333	1	0.881500
18.150000	1	0.875875
18.166667	1	0.870625
18.183333	1	0.866000
18.200000	1	0.862125
18.216667	1	0.858750
18.233333	1	0.855625
18.250000	1	0.853500
18.266667	1	0.852875
18.283333	1	0.851875
18.300000	1	0.852625
18.316667	1	0.853500
18.333333	1	0.856000
18.350000	1	0.858000
18.366667	1	0.861125
18.383333	1	0.865625
18.400000	1	0.870000
18.416667	1	0.874750
18.433333	1	0.879875
18.450000	1	0.886375
18.466667	1	0.893375
18.483333	1	0.901500
18.500000	1	0.911625
18.516667	1	0.922000
18.533333	1	0.935000
18.550000	1	0.949125
18.566667	1	0.966000
18.583333	1	0.984125
18.600000	1	1.004250
18.616667	1	1.026875
18.633333	1	1.051500
18.650000	1	1.077375
18.666667	1	1.105000
18.683333	1	1.134375
18.700000	1	1.165625
18.716667	1	1.198500
18.733333	1	1.231750
18.750000	1	1.266375
18.766667	1	1.302375
18.783333	1	1.338875
18.800000	1	1.374875
18.816667	1	1.410500
18.833333	1	1.444625
18.850000	1	1.476375
18.866667	1	1.506000
18.883333	1	1.533250
18.900000	1	1.556500
18.916667	1	1.575375
18.933333	1	1.589125
18.950000	1	1.597500
18.966667	1	1.598500
18.983333	1	1.593500
19.000000	1	1.582250
19.016667	1	1.564750
19.033333	1	1.540625
19.050000	1	1.511125
19.066667	1	1.477000
19.083333	1	1.438750
19.100000	1	1.397875
19.116667	1	1.355500
19.133333	1	1.311875
19.150000	1	1.270625
19.166667	1	1.231375
19.183333	1	1.196000
19.200000	1	1.166875
19.216667	1	1.144875
19.233333	1	1.131250
19.250000	1	1.128125
19.266667	1	1.136500
19.283333	1	1.158250
19.300000	1	1.194125
19.316667	1	1.244875
19.333333	1	1.313000
19.350000	1	1.398500
19.366667	1	1.502500
19.383333	1	1.625625
19.400000	1	1.766500
19.416667	1	1.926875
19.433333	1	2.104625
19.450000	1	2.298000
19.466667	1	2.503000
19.483333	1	2.717250
19.500000	1	2.935375
19.516667	1	3.152625
19.533333	1	3.363875
19.550000	1	3.562750
19.566667	1	3.743750
19.583333	1	3.901000
19.600000	1	4.028125
19.616667	1	4.122125
19.633333	1	4.178375
19.650000	1	4.195750
19.666667	1	4.174125
19.683333	1	4.113625
19.700000	1	4.017500
19.716667	1	3.888625
19.733333	1	3.732250
19.750000	1	3.552750
19.766667	1	3.356625
19.783333	1	3.148250
19.800000	1	2.934000
19.816667	1	2.719250
19.833333	1	2.508250
19.850000	1	2.303750
19.866667	1	2.110500
19.883333	1	1.928625
19.900000	1	1.760625
19.916667	1	1.607500
19.933333	1	1.469000
19.950000	1	1.345000
19.966667	1	1.234000
19.983333	1	1.136500
20.000000	1	1.051000
20.016667	1	0.976375
20.033333	1	0.911375
20.050000	1	0.856125
20.066667	1	0.810000
20.083333	1	0.771500
20.100000	1	0.739750
20.116667	1	0.715250
20.133333	1	0.696375
20.150000	1	0.682375
20.166667	1	0.672875
20.183333	1	0.668125
20.200000	1	0.666250
20.216667	1	0.668500
20.233333	1	0.672750
20.250000	1	0.679250
20.266667	1	0.687000
20.283333	1	0.695250
20.300000	1	0.704000
20.316667	1	0.712625
20.333333	1	0.721000
20.350000	1	0.728000
20.366667	1	0.734250
20.383333	1	0.738375
20.400000	1	0.740375
20.416667	1	0.740500
20.433333	1	0.739000
20.450000	1	0.735875
20.466667	1	0.732000
20.483333	1	0.727125
20.500000	1	0.723250
20.516667	1	0.720000
20.533333	1	0.718375
20.550000	1	0.719375
20.566667	1	0.724375
20.583333	1	0.733500
20.600000	1	0.748500
20.616667	1	0.768375
20.633333	1	0.794875
20.650000	1	0.827750
20.666667	1	0.867500
20.683333	1	0.914500
20.700000	1	0.968625
20.716667	1	1.028375
20.733333	1	1.093500
20.750000	1	1.162125
20.766667	1	1.234000
20.783333	1	1.306750
20.800000	1	1.378875
20.816667	1	1.447250
20.833333	1	1.510750
20.850000	1	1.566375
20.866667	1	1.613375
20.883333	1	1.649625
20.900000	1	1.673500
20.916667	1	1.684875
20.933333	1	1.682875
20.950000	1	1.667750
20.966667	1	1.640500
20.983333	1	1.601750
21.000000	1	1.553625
21.016667	1	1.497500
21.033333	1	1.434000
21.050000	1	1.367250
21.066667	1	1.298375
21.083333	1	1.228375
21.100000	1	1.159000
21.116667	1	1.093125
21.133333	1	1.030000
21.150000	1	0.970875
21.166667	1	0.915750
21.183333	1	0.865125
21.200000	1	0.820625
21.216667	1	0.780625
21.233333	1	0.745000
21.250000	1	0.714125
21.266667	1	0.686750
21.283333	1	0.663500
21.300000	1	0.643625
21.316667	1	0.626000
21.333333	1	0.611625
21.350000	1	0.599000
21.366667	1	0.588250
21.383333	1	0.579000
21.400000	1	0.571125
21.416667	1	0.563375
21.433333	1	0.558000
21.450000	1	0.553000
21.466667	1	0.548125
21.483333	1	0.544000
21.500000	1	0.539875
21.516667	1	0.537250
21.533333	1	0.534250
21.550000	1	0.531500
21.566667	1	0.530000
21.583333	1	0.528875
21.600000	1	0.528250
21.616667	1	0.528250
21.633333	1	0.528250
21.650000	1	0.529000
21.666667	1	0.531625
21.683333	1	0.534250
21.700000	1	0.537875
21.716667	1	0.543375
21.733333	1	0.548875
21.750000	1	0.555250
21.766667	1	0.561625
21.783333	1	0.569500
21.800000	1	0.578500
21.816667	1	0.587500
21.833333	1	0.597500
21.850000	1	0.607625
21.866667	1	0.618875
21.883333	1	0.630375
21.900000	1	0.640875
21.916667	1	0.652500
21.933333	1	0.664500
21.950000	1	0.675875
21.966667	1	0.686375
21.983333	1	0.697125
22.000000	1	0.706500
22.016667	1	0.715375
22.033333	1	0.723375
22.050000	1	0.730000
22.066667	1	0.735625
22.083333	1	0.740750
22.100000	1	0.744000
22.116667	1	0.745875
22.133333	1	0.745750
22.150000	1	0.745000
22.166667	1	0.742000
22.183333	1	0.738125
22.200000	1	0.732000
22.216667	1	0.724750
22.233333	1	0.716375
22.250000	1	0.706125
22.266667	1	0.694750
22.283333	1	0.681875
22.300000	1	0.668000
22.316667	1	0.653375
22.333333	1	0.637500
22.350000	1	0.620875
22.366667	1	0.604500
22.383333	1	0.586875
22.400000	1	0.569500
22.416667	1	0.552250
22.433333	1	0.535500
22.450000	1	0.519250
22.466667	1	0.503625
22.483333	1	0.488250
22.500000	1	0.474000
22.516667	1	0.460375
22.533333	1	0.448250
22.550000	1	0.436750
22.566667	1	0.426250
22.583333	1	0.416375
22.600000	1	0.408375
22.616667	1	0.400375
22.633333	1	0.393875
22.650000	1	0.387500
22.666667	1	0.382125
22.683333	1	0.376875
22.700000	1	0.372250
22.716667	1	0.368375
22.733333	1	0.365000
22.750000	1	0.361500
22.766667	1	0.358625
22.783333	1	0.355250
22.800000	1	0.352500
22.816667	1	0.348875
22.833333	1	0.345250
22.850000	1	0.342875
22.866667	1	0.340125
22.883333	1	0.337625
22.900000	1	0.335750
22.916667	1	0.333750
22.933333	1	0.331875
22.950000	1	0.330125
22.966667	1	0.328250
22.983333	1	0.326750
23.000000	1	0.325875
23.016667	1	0.324250
23.033333	1	0.324500
23.050000	1	0.324375
23.066667	1	0.324625
23.083333	1	0.324500
23.100000	1	0.325375
23.116667	1	0.327125
23.133333	1	0.328500
23.150000	1	0.329500
23.166667	1	0.330750
23.183333	1	0.333125
23.200000	1	0.335125
23.216667	1	0.337500
23.233333	1	0.340250
23.250000	1	0.343375
23.266667	1	0.348625
23.283333	1	0.354875
23.300000	1	0.362625
23.316667	1	0.372125
23.333333	1	0.384125
23.350000	1	0.398500
23.366667	1	0.416500
23.383333	1	0.439125
23.400000	1	0.466750
23.416667	1	0.500375
23.433333	1	0.540875
23.450000	1	0.589375
23.466667	1	0.648500
23.483333	1	0.717750
23.500000	1	0.799000
23.516667	1	0.893500
23.533333	1	1.002125
23.550000	1	1.126625
23.566667	1	1.268250
23.583333	1	1.428250
23.600000	1	1.606000
23.616667	1	1.803125
23.633333	1	2.019125
23.650000	1	2.252250
23.666667	1	2.502500
23.683333	1	2.768250
23.700000	1	3.046375
23.716667	1	3.333250
23.733333	1	3.626000
23.750000	1	3.919375
23.766667	1	4.209250
23.783333	1	4.489250
23.800000	1	4.754500
23.816667	1	4.998500
23.833333	1	5.215750
23.850000	1	5.401500
23.866667	1	5.552000
23.883333	1	5.662375
23.900000	1	5.731625
23.916667	1	5.757875
23.933333	1	5.739875
23.950000	1	5.679375
23.966667	1	5.578000
23.983333	1	5.438250
24.000000	1	5.265125
24.016667	1	5.062000
24.033333	1	4.835875
24.050000	1	4.590125
24.066667	1	4.331250
24.083333	1	4.063125
24.100000	1	3.791375
24.116667	1	3.520625
24.133333	1	3.254500
24.150000	1	2.996375
24.166667	1	2.748750
24.183333	1	2.514500
24.200000	1	2.294750
24.216667	1	2.090875
24.233333	1	1.903375
24.250000	1	1.732625
24.266667	1	1.577125
24.283333	1	1.437750
24.300000	1	1.312375
24.316667	1	1.201000
24.333333	1	1.102000
24.350000	1	1.015375
24.366667	1	0.939375
24.383333	1	0.872875
24.400000	1	0.816000
24.416667	1	0.766750
24.433333	1	0.724625
24.450000	1	0.688875
24.466667	1	0.658375
24.483333	1	0.632250
24.500000	1	0.610250
24.516667	1	0.591750
24.533333	1	0.576000
24.550000	1	0.562500
24.566667	1	0.551375
24.583333	1	0.540250
24.600000	1	0.531875
24.616667	1	0.523625
24.633333	1	0.515625
24.650000	1	0.508375
24.666667	1	0.501375
24.683333	1	0.494625
24.700000	1	0.487375
24.716667	1	0.480875
24.733333	1	0.474000
24.750000	1	0.467500
24.766667	1	0.460125
24.783333	1	0.453375
24.800000	1	0.446750
24.816667	1	0.440625
24.833333	1	0.434625
24.850000	1	0.428125
24.866667	1	0.422500
24.883333	1	0.417000
24.900000	1	0.412250
24.916667	1	0.407750
24.933333	1	0.403375
24.950000	1	0.399125
24.966667	1	0.396000
24.983333	1	0.392375
25.000000	1	0.389125
25.016667	1	0.386875
25.033333	1	0.384625
25.050000	1	0.382625
25.066667	1	0.381375
25.083333	1	0.379375
25.100000	1	0.378500
25.116667	1	0.377250
25.133333	1	0.375875
25.150000	1	0.374750
25.166667	1	0.374000
25.183333	1	0.372750
25.200000	1	0.371500
25.216667	1	0.370125
25.233333	1	0.369000
25.250000	1	0.368000
25.266667	1	0.367500
25.283333	1	0.366250
25.300000	1	0.364625
25.316667	1	0.363875
25.333333	1	0.363250
25.350000	1	0.361625
25.366667	1	0.359125
25.383333	1	0.357000
25.400000	1	0.355375
25.416667	1	0.353875
25.433333	1	0.352125
25.450000	1	0.350625
25.466667	1	0.348750
25.483333	1	0.347375
25.500000	1	0.346125
25.516667	1	0.345000
25.533333	1	0.343500
25.550000	1	0.342125
25.566667	1	0.339375
25.583333	1	0.337750
25.600000	1	0.336000
25.616667	1	0.335125
25.633333	1	0.333125
25.650000	1	0.331250
25.666667	1	0.329500
25.683333	1	0.328000
25.700000	1	0.326500
25.716667	1	0.325750
25.733333	1	0.324375
25.750000	1	0.323375
25.766667	1	0.321750
25.783333	1	0.320625
25.800000	1	0.319875
25.816667	1	0.319500
25.833333	1	0.319750
25.850000	1	0.320375
25.866667	1	0.320750
25.883333	1	0.321875
25.900000	1	0.323000
25.916667	1	0.324375
25.933333	1	0.326250
25.950000	1	0.328250
25.966667	1	0.331500
25.983333	1	0.334250
26.000000	1	0.337000
26.016667	1	0.340500
26.033333	1	0.345000
26.050000	1	0.348750
26.066667	1	0.353000
26.083333	1	0.357000
26.100000	1	0.361625
26.116667	1	0.366125
26.133333	1	0.369500
26.150000	1	0.372750
26.166667	1	0.376125
26.183333	1	0.379125
26.200000	1	0.382250
26.216667	1	0.384000
26.233333	1	0.385750
26.250000	1	0.386750
26.266667	1	0.387375
26.283333	1	0.387625
26.300000	1	0.386750
26.316667	1	0.385375
26.333333	1	0.384250
26.350000	1	0.381625
26.366667	1	0.378375
26.383333	1	0.374750
26.400000	1	0.370000
26.416667	1	0.365125
26.433333	1	0.359875
26.450000	1	0.354500
26.466667	1	0.348125
26.483333	1	0.341500
26.500000	1	0.334125
26.516667	1	0.327375
26.533333	1	0.319875
26.550000	1	0.311875
26.566667	1	0.304625
26.583333	1	0.297875
26.600000	1	0.290125
26.616667	1	0.282625
26.633333	1	0.275125
26.650000	1	0.268125
26.666667	1	0.261000
26.683333	1	0.254750
26.700000	1	0.248250
26.716667	1	0.242375
26.733333	1	0.236750
26.750000	1	0.232250
26.766667	1	0.227375
26.783333	1	0.223000
26.800000	1	0.219875
26.816667	1	0.216625
26.833333	1	0.212875
26.850000	1	0.210875
26.866667	1	0.209375
26.883333	1	0.207875
26.900000	1	0.207500
26.916667	1	0.206625
26.933333	1	0.206625
26.950000	1	0.207375
26.966667	1	0.208750
26.983333	1	0.210500
27.000000	1	0.213125
27.016667	1	0.216375
27.033333	1	0.220500
27.050000	1	0.224375
27.066667	1	0.229500
27.083333	1	0.235375
27.100000	1	0.241875
27.116667	1	0.249625
27.133333	1	0.258625
27.150000	1	0.269125
27.166667	1	0.280875
27.183333	1	0.294000
27.200000	1	0.308875
27.216667	1	0.326125
27.233333	1	0.346500
27.250000	1	0.369375
27.266667	1	0.395250
27.283333	1	0.424625
27.300000	1	0.458375
27.316667	1	0.496500
27.333333	1	0.539250
27.350000	1	0.587875
27.366667	1	0.642125
27.383333	1	0.702125
27.400000	1	0.769750
27.416667	1	0.845000
27.433333	1	0.928875
27.450000	1	1.020750
27.466667	1	1.121875
27.483333	1	1.232500
27.500000	1	1.352375
27.516667	1	1.482375
27.533333	1	1.621500
27.550000	1	1.769875
27.566667	1	1.926750
27.583333	1	2.091500
27.600000	1	2.264000
27.616667	1	2.441500
27.633333	1	2.624000
27.650000	1	2.809500
27.666667	1	2.996625
27.683333	1	3.182000
27.700000	1	3.363750
27.716667	1	3.539250
27.733333	1	3.706125
27.750000	1	3.861875
27.766667	1	4.004125
27.783333	1	4.129250
27.800000	1	4.235625
27.816667	1	4.321375
27.833333	1	4.384500
27.850000	1	4.423625
27.866667	1	4.439000
27.883333	1	4.428875
27.900000	1	4.392500
27.916667	1	4.331875
27.933333	1	4.246875
27.950000	1	4.139375
27.966667	1	4.011500
27.983333	1	3.866250
28.000000	1	3.705375
28.016667	1	3.532625
28.033333	1	3.349750
28.050000	1	3.159125
28.066667	1	2.964125
28.083333	1	2.768250
28.100000	1	2.574250
28.116667	1	2.383500
28.133333	1	2.197875
28.150000	1	2.019625
28.166667	1	1.851500
28.183333	1	1.692500
28.200000	1	1.544875
28.216667	1	1.408125
28.233333	1	1.281625
28.250000	1	1.167625
28.266667	1	1.063875
28.283333	1	0.971125
28.300000	1	0.888250
28.316667	1	0.815625
28.333333	1	0.752125
28.350000	1	0.697250
28.366667	1	0.649375
28.383333	1	0.609250
28.400000	1	0.575875
28.416667	1	0.548875
28.433333	1	0.526375
28.450000	1	0.509375
28.466667	1	0.497500
28.483333	1	0.488250
28.500000	1	0.483000
28.516667	1	0.480625
28.533333	1	0.481625
28.550000	1	0.484375
28.566667	1	0.488750
28.583333	1	0.495625
28.600000	1	0.503500
28.616667	1	0.513000
28.633333	1	0.523500
28.650000	1	0.534125
28.666667	1	0.545750
28.683333	1	0.556625
28.700000	1	0.567750
28.716667	1	0.579125
28.733333	1	0.589625
28.750000	1	0.600000
28.766667	1	0.610250
28.783333	1	0.618875
28.800000	1	0.627250
28.816667	1	0.635000
28.833333	1	0.641500
28.850000	1	0.647750
28.866667	1	0.652250
28.883333	1	0.655500
28.900000	1	0.657125
28.916667	1	0.658125
28.933333	1	0.657500
28.950000	1	0.655125
28.966667	1	0.652375
28.983333	1	0.648250
29.000000	1	0.643250
29.016667	1	0.637000
29.033333	1	0.629250
29.050000	1	0.620500
29.066667	1	0.610125
29.083333	1	0.599375
29.100000	1	0.587625
29.116667	1	0.574875
29.133333	1	0.561250
29.150000	1	0.547250
29.166667	1	0.532625
29.183333	1	0.517375
29.200000	1	0.501750
29.216667	1	0.486000
29.233333	1	0.470750
29.250000	1	0.454375
29.266667	1	0.438750
29.283333	1	0.423000
29.300000	1	0.407375
29.316667	1	0.391875
29.333333	1	0.377250
29.350000	1	0.362000
29.366667	1	0.347125
29.383333	1	0.332875
29.400000	1	0.320375
29.416667	1	0.307625
29.433333	1	0.295750
29.450000	1	0.283875
29.466667	1	0.272625
29.483333	1	0.262375
29.500000	1	0.252750
29.516667	1	0.243375
29.533333	1	0.235250
29.550000	1	0.227625
29.566667	1	0.220125
29.583333	1	0.214000
29.600000	1	0.208375
29.616667	1	0.202750
29.633333	1	0.198875
29.650000	1	0.194625
29.666667	1	0.190875
29.683333	1	0.188000
29.700000	1	0.185250
29.716667	1	0.182625
29.733333	1	0.180750
29.750000	1	0.179125
29.766667	1	0.177875
29.783333	1	0.176875
29.800000	1	0.176000
29.816667	1	0.175375
29.833333	1	0.174625
29.850000	1	0.174875
29.866667	1	0.175000
29.883333	1	0.174500
29.900000	1	0.174750
29.916667	1	0.175125
29.933333	1	0.174625
29.950000	1	0.175125
29.966667	1	0.175625
29.983333	1	0.176000
30.000000	1	0.176500
30.016667	1	0.177000
30.033333	1	0.177875
30.050000	1	0.178250
30.066667	1	0.179000
30.083333	1	0.180250
30.100000	1	0.182250
30.116667	1	0.183625
30.133333	1	0.185125
30.150000	1	0.187125
30.166667	1	0.188750
30.183333	1	0.190750
30.200000	1	0.193500
30.216667	1	0.196125
30.233333	1	0.198625
30.250000	1	0.201375
30.266667	1	0.203625
30.283333	1	0.206000
30.300000	1	0.209000
30.316667	1	0.211500
30.333333	1	0.214625
30.350000	1	0.217750
30.366667	1	0.220875
30.383333	1	0.223875
30.400000	1	0.227250
30.416667	1	0.230875
30.433333	1	0.234500
30.450000	1	0.238250
30.466667	1	0.242250
30.483333	1	0.245250
30.500000	1	0.249000
30.516667	1	0.252625
30.533333	1	0.256250
30.550000	1	0.260750
30.566667	1	0.265750
30.583333	1	0.270625
30.600000	1	0.276000
30.616667	1	0.281250
30.633333	1	0.287625
30.650000	1	0.293875
30.666667	1	0.301875
30.683333	1	0.310250
30.700000	1	0.319750
30.716667	1	0.330500
30.733333	1	0.341875
30.750000	1	0.355250
30.766667	1	0.370500
30.783333	1	0.387625
30.800000	1	0.406875
30.816667	1	0.428875
30.833333	1	0.453250
30.850000	1	0.480000
30.866667	1	0.511250
30.883333	1	0.547000
30.900000	1	0.586375
30.916667	1	0.630750
30.933333	1	0.681375
30.950000	1	0.737250
30.966667	1	0.801000
30.983333	1	0.872250
31.000000	1	0.952375
31.016667	1	1.040375
31.033333	1	1.138125
31.050000	1	1.246375
31.066667	1	1.364625
31.083333	1	1.493875
31.100000	1	1.634625
31.116667	1	1.786375
31.133333	1	1.948875
31.150000	1	2.123625
31.166667	1	2.309000
31.183333	1	2.505500
31.200000	1	2.710875
31.216667	1	2.926000
31.233333	1	3.147875
31.250000	1	3.375500
31.266667	1	3.607125
31.283333	1	3.839750
31.300000	1	4.072625
31.316667	1	4.302125
31.333333	1	4.526000
31.350000	1	4.741500
31.366667	1	4.946250
31.383333	1	5.138375
31.400000	1	5.314500
31.416667	1	5.472750
31.433333	1	5.610875
31.450000	1	5.726250
31.466667	1	5.817875
31.483333	1	5.883625
31.500000	1	5.924000
31.516667	1	5.938375
31.533333	1	5.925750
31.550000	1	5.888000
31.566667	1	5.824000
31.583333	1	5.735375
31.600000	1	5.623625
31.616667	1	5.490750
31.633333	1	5.338625
31.650000	1	5.169375
31.666667	1	4.985375
31.683333	1	4.788375
31.700000	1	4.581375
31.716667	1	4.366750
31.733333	1	4.147500
31.750000	1	3.925500
31.766667	1	3.702500
31.783333	1	3.480500
31.800000	1	3.260500
31.816667	1	3.046125
31.833333	1	2.836625
31.850000	1	2.635125
31.866667	1	2.441125
31.883333	1	2.255375
31.900000	1	2.079375
31.916667	1	1.913875
31.933333	1	1.758750
31.950000	1	1.613375
31.966667	1	1.477750
31.983333	1	1.351750
32.000000	1	1.235000
32.016667	1	1.127375
32.033333	1	1.028750
32.050000	1	0.938625
32.066667	1	0.856500
32.083333	1	0.781750
32.100000	1	0.713750
32.116667	1	0.652750
32.133333	1	0.597375
32.150000	1	0.548250
32.166667	1	0.503500
32.183333	1	0.463375
32.200000	1	0.427750
32.216667	1	0.395875
32.233333	1	0.367375
32.250000	1	0.341625
32.266667	1	0.318750
32.283333	1	0.298250
32.300000	1	0.279875
32.316667	1	0.263500
32.333333	1	0.249000
32.350000	1	0.236250
32.366667	1	0.224750
32.383333	1	0.214375
32.400000	1	0.204625
32.416667	1	0.196000
32.433333	1	0.187875
32.450000	1	0.181000
32.466667	1	0.174500
32.483333	1	0.168000
32.500000	1	0.161500
32.516667	1	0.156375
32.533333	1	0.150875
32.550000	1	0.146500
32.566667	1	0.142250
32.583333	1	0.138125
32.600000	1	0.134125
32.616667	1	0.129125
32.633333	1	0.124875
32.650000	1	0.121875
32.666667	1	0.118000
32.683333	1	0.113875
32.700000	1	0.110625
32.716667	1	0.107250
32.733333	1	0.103750
32.750000	1	0.100625
32.766667	1	0.097375
32.783333	1	0.095000
32.800000	1	0.092250
32.816667	1	0.089500
32.833333	1	0.086750
32.850000	1	0.084000
32.866667	1	0.081500
32.883333	1	0.078875
32.900000	1	0.076125
32.916667	1	0.073875
32.933333	1	0.072250
32.950000	1	0.069875
32.966667	1	0.068125
32.983333	1	0.066000
33.000000	1	0.064625
33.016667	1	0.062750
33.033333	1	0.061625
33.050000	1	0.060500
33.066667	1	0.059375
33.083333	1	0.058750
33.100000	1	0.057500
33.116667	1	0.056625
33.133333	1	0.055625
33.150000	1	0.054875
33.166667	1	0.054875
33.183333	1	0.054500
33.200000	1	0.054875
33.216667	1	0.054750
33.233333	1	0.054375
33.250000	1	0.054875
33.266667	1	0.055375
33.283333	1	0.055875
33.300000	1	0.056500
33.316667	1	0.058125
33.333333	1	0.058875
33.350000	1	0.060000
33.366667	1	0.061875
33.383333	1	0.063500
33.400000	1	0.065250
33.416667	1	0.066875
33.433333	1	0.069875
33.450000	1	0.072500
33.466667	1	0.075000
33.483333	1	0.077875
33.500000	1	0.080875
33.516667	1	0.084375
33.533333	1	0.089125
33.550000	1	0.093750
33.566667	1	0.098125
33.583333	1	0.102500
33.600000	1	0.108375
33.616667	1	0.113875
33.633333	1	0.119250
33.650000	1	0.124000
33.666667	1	0.129500
33.683333	1	0.135000
33.700000	1	0.141000
33.716667	1	0.147250
33.733333	1	0.153750
33.750000	1	0.159375
33.766667	1	0.165000
33.783333	1	0.170750
33.800000	1	0.176125
33.816667	1	0.181875
33.833333	1	0.187375
33.850000	1	0.192875
33.866667	1	0.198000
33.883333	1	0.203000
33.900000	1	0.207375
33.916667	1	0.211000
33.933333	1	0.214250
33.950000	1	0.216875
33.966667	1	0.219125
33.983333	1	0.221000
34.000000	1	0.223500
34.016667	1	0.224875
34.033333	1	0.226000
34.050000	1	0.225875
34.066667	1	0.225125
34.083333	1	0.223875
34.100000	1	0.223125
34.116667	1	0.221750
34.133333	1	0.219625
34.150000	1	0.217875
34.166667	1	0.215375
34.183333	1	0.213250
34.200000	1	0.210875
34.216667	1	0.208125
34.233333	1	0.205000
34.250000	1	0.202000
34.266667	1	0.199625
34.283333	1	0.196375
34.300000	1	0.194125
34.316667	1	0.190875
34.333333	1	0.188500
34.350000	1	0.185875
34.366667	1	0.184625
34.383333	1	0.183000
34.400000	1	0.181750
34.416667	1	0.180625
34.433333	1	0.178875
34.450000	1	0.178125
34.466667	1	0.177125
34.483333	1	0.175625
34.500000	1	0.175500
34.516667	1	0.175875
34.533333	1	0.176000
34.550000	1	0.176500
34.566667	1	0.177125
34.583333	1	0.178000
34.600000	1	0.179125
34.616667	1	0.180875
34.633333	1	0.182125
34.650000	1	0.183875
34.666667	1	0.185625
34.683333	1	0.186750
34.700000	1	0.188125
34.716667	1	0.189750
34.733333	1	0.191500
34.750000	1	0.192625
34.766667	1	0.194250
34.783333	1	0.195750
34.800000	1	0.196750
34.816667	1	0.197875
34.833333	1	0.199125
34.850000	1	0.200000
34.866667	1	0.201250
34.883333	1	0.201625
34.900000	1	0.202000
34.916667	1	0.201500
34.933333	1	0.201625
34.950000	1	0.202000
34.966667	1	0.201875
34.983333	1	0.200750
35.000000	1	0.200375
35.016667	1	0.200000
35.033333	1	0.199500
35.050000	1	0.198875
35.066667	1	0.197750
35.083333	1	0.196375
35.100000	1	0.195375
35.116667	1	0.193375
35.133333	1	0.191375
35.150000	1	0.190750
35.166667	1	0.189000
35.183333	1	0.187875
35.200000	1	0.186375
35.216667	1	0.184375
35.233333	1	0.182625
35.250000	1	0.181375
35.266667	1	0.179125
35.283333	1	0.177875
35.300000	1	0.176500
35.316667	1	0.175875
35.333333	1	0.174375
35.350000	1	0.173500
35.366667	1	0.172000
35.383333	1	0.171000
35.400000	1	0.169875
35.416667	1	0.168875
35.433333	1	0.167750
35.450000	1	0.167000
35.466667	1	0.166125
35.483333	1	0.165750
35.500000	1	0.164250
35.516667	1	0.163375
35.533333	1	0.162625
35.550000	1	0.162000
35.566667	1	0.162000
35.583333	1	0.161125
35.600000	1	0.161250
35.616667	1	0.161375
35.633333	1	0.161125
35.650000	1	0.160875
35.666667	1	0.161125
35.683333	1	0.161500
35.700000	1	0.163125
35.716667	1	0.164500
35.733333	1	0.164625
35.750000	1	0.164875
35.766667	1	0.165250
35.783333	1	0.166375
35.800000	1	0.167750
35.816667	1	0.169375
35.833333	1	0.171375
35.850000	1	0.173250
35.866667	1	0.175000
35.883333	1	0.176875
35.900000	1	0.178625
35.916667	1	0.180625
35.933333	1	0.183500
35.950000	1	0.185750
35.966667	1	0.188625
35.983333	1	0.191125
36.000000	1	0.194125
36.016667	1	0.196500
36.033333	1	0.198875
36.050000	1	0.201750
36.066667	1	0.204375
36.083333	1	0.207375
36.100000	1	0.210250
36.116667	1	0.212875
36.133333	1	0.215625
36.150000	1	0.218625
36.166667	1	0.220875
36.183333	1	0.222875
36.200000	1	0.225000
36.216667	1	0.227125
36.233333	1	0.229125
36.250000	1	0.230625
36.266667	1	0.232000
36.283333	1	0.232875
36.300000	1	0.233375
36.316667	1	0.233625
36.333333	1	0.233000
36.350000	1	0.232750
36.366667	1	0.231625
36.383333	1	0.229500
36.400000	1	0.227125
36.416667	1	0.225000
36.433333	1	0.222250
36.450000	1	0.219000
36.466667	1	0.215625
36.483333	1	0.211875
36.500000	1	0.208000
36.516667	1	0.203500
36.533333	1	0.198375
36.550000	1	0.193500
36.566667	1	0.187125
36.583333	1	0.181250
36.600000	1	0.175750
36.616667	1	0.170375
36.633333	1	0.164500
36.650000	1	0.158625
36.666667	1	0.152125
36.683333	1	0.146250
36.700000	1	0.140000
36.716667	1	0.134375
36.733333	1	0.128375
36.750000	1	0.123125
36.766667	1	0.118000
36.783333	1	0.112750
36.800000	1	0.107750
36.816667	1	0.102750
36.833333	1	0.098625
36.850000	1	0.094750
36.866667	1	0.091750
36.883333	1	0.088000
36.900000	1	0.085000
36.916667	1	0.082375
36.933333	1	0.079500
36.950000	1	0.078750
36.966667	1	0.077125
36.983333	1	0.075500
37.000000	1	0.074625
37.016667	1	0.073875
37.033333	1	0.073125
37.050000	1	0.073250
37.066667	1	0.073375
37.083333	1	0.072875
37.100000	1	0.072875
37.116667	1	0.073875
37.133333	1	0.074500
37.150000	1	0.075375
37.166667	1	0.075750
37.183333	1	0.076375
37.200000	1	0.076875
37.216667	1	0.077500
37.233333	1	0.078125
37.250000	1	0.078500
37.266667	1	0.078875
37.283333	1	0.079500
37.300000	1	0.079875
37.316667	1	0.080125
37.333333	1	0.080000
37.350000	1	0.080125
37.366667	1	0.080000
37.383333	1	0.080000
37.400000	1	0.079375
37.416667	1	0.078500
37.433333	1	0.078375
37.450000	1	0.077875
37.466667	1	0.076875
37.483333	1	0.076625
37.500000	1	0.075500
37.516667	1	0.074375
37.533333	1	0.073250
37.550000	1	0.072250
37.566667	1	0.071250
37.583333	1	0.070000
37.600000	1	0.068375
37.616667	1	0.066625
37.633333	1	0.064875
37.650000	1	0.064125
37.666667	1	0.062750
37.683333	1	0.061250
37.700000	1	0.059875
37.716667	1	0.058000
37.733333	1	0.056625
37.750000	1	0.055625
37.766667	1	0.054375
37.783333	1	0.052375
37.800000	1	0.051250
37.816667	1	0.050000
37.833333	1	0.049250
37.850000	1	0.048375
37.866667	1	0.047500
37.883333	1	0.046625
37.900000	1	0.046250
37.916667	1	0.046375
37.933333	1	0.046625
37.950000	1	0.046875
37.966667	1	0.047250
37.983333	1	0.047125
38.000000	1	0.047875
38.016667	1	0.048125
38.033333	1	0.048625
38.050000	1	0.049500
38.066667	1	0.050500
38.083333	1	0.052000
38.100000	1	0.053375
38.116667	1	0.054750
38.133333	1	0.056750
38.150000	1	0.059000
38.166667	1	0.060500
38.183333	1	0.062875
38.200000	1	0.065000
38.216667	1	0.067125
38.233333	1	0.069375
38.250000	1	0.071625
38.266667	1	0.074375
38.283333	1	0.077500
38.300000	1	0.080625
38.316667	1	0.083875
38.333333	1	0.086875
38.350000	1	0.089625
38.366667	1	0.092500
38.383333	1	0.095625
38.400000	1	0.097625
38.416667	1	0.099875
38.433333	1	0.102875
38.450000	1	0.104750
38.466667	1	0.106500
38.483333	1	0.108625
38.500000	1	0.110375
38.516667	1	0.111875
38.533333	1	0.113500
38.550000	1	0.114125
38.566667	1	0.115000
38.583333	1	0.115500
38.600000	1	0.116625
38.616667	1	0.116500
38.633333	1	0.117000
38.650000	1	0.117250
38.666667	1	0.117250
38.683333	1	0.117375
38.700000	1	0.117250
38.716667	1	0.117500
38.733333	1	0.117500
38.750000	1	0.117000
38.766667	1	0.115875
38.783333	1	0.114875
38.800000	1	0.114625
38.816667	1	0.114000
38.833333	1	0.113375
38.850000	1	0.112250
38.866667	1	0.111625
38.883333	1	0.111625
38.900000	1	0.110375
38.916667	1	0.109875
38.933333	1	0.108875
38.950000	1	0.107750
38.966667	1	0.106875
38.983333	1	0.106375
39.000000	1	0.104875
39.016667	1	0.104125
39.033333	1	0.103500
39.050000	1	0.103000
39.066667	1	0.102125
39.083333	1	0.100625
39.100000	1	0.099000
39.116667	1	0.098125
39.133333	1	0.096375
39.150000	1	0.095375
39.166667	1	0.093625
39.183333	1	0.091375
39.200000	1	0.089625
39.216667	1	0.087750
39.233333	1	0.085625
39.250000	1	0.083625
39.266667	1	0.081875
39.283333	1	0.079750
39.300000	1	0.077250
39.316667	1	0.074125
39.333333	1	0.071750
39.350000	1	0.068250
39.366667	1	0.065375
39.383333	1	0.062375
39.400000	1	0.059250
39.416667	1	0.057000
39.433333	1	0.054125
39.450000	1	0.051750
39.466667	1	0.048625
39.483333	1	0.045125
39.500000	1	0.042125
39.516667	1	0.039750
39.533333	1	0.037125
39.550000	1	0.033750
39.566667	1	0.030625
39.583333	1	0.028500
39.600000	1	0.026875
39.616667	1	0.024375
39.633333	1	0.022500
39.650000	1	0.021000
39.666667	1	0.018625
39.683333	1	0.016750
39.700000	1	0.016000
39.716667	1	0.015250
39.733333	1	0.014500
39.750000	1	0.013875
39.766667	1	0.013250
39.783333	1	0.013750
39.800000	1	0.012875
39.816667	1	0.013250
39.833333	1	0.013750
39.850000	1	0.014125
39.866667	1	0.014625
39.883333	1	0.015625
39.900000	1	0.016875
39.916667	1	0.017875
39.933333	1	0.018375
39.950000	1	0.019625
39.966667	1	0.020750
39.983333	1	0.022125
40.000000	1	0.023625
