URL	chrom://bioreactor/micro_cm7/HPLC_Ultimate_3000/Users/markusar/20240708_MA_pHrange1.seq/685.smp/RI_1.channel/RI_1.chm
Channel	RI_1

Injection Information:
Data Vault	micro_cm7
Sequence	20240708_MA_pHrange1
Name	Pv2_6.5_2
Number	8
Position	BA8
Comment	
Processing Method	
Instrument Method	run_25B_method
Type	Unknown
Status	Finished
Inject Time	08.07.2024 20:21:15 +02:00
Volume (µl)	20.0000
Dilution Factor	1.0000
Weight	1.0000

Chromatogram Data Information:
Time Min. (min)	0.000000
Time Max. (min)	40.000000
Data Points	2401
Detector	RI
Generating Data System	Chromeleon 7.3.2.11814
Exporting Data System	Chromeleon 7.3.2.0
Operator	Instrument Controller
Signal Quantity	Refractive 
Signal Unit	µRIU
Signal Min.	-0.038750
Signal Max.	82.326500
Channel	RI_1
Driver Name	RID520Driver.dll
Channel Type	Evaluation
Min. Step (s)	1
Max. Step (s)	1
Average Step (s)	1

Signal Parameter Information:
Signal Info	

Chromatogram Data:
Time (min)	Step (s)	Value (µRIU)
0.000000	n.a.	0.013500
0.016667	1	0.014000
0.033333	1	0.013875
0.050000	1	0.014250
0.066667	1	0.014750
0.083333	1	0.015000
0.100000	1	0.016000
0.116667	1	0.016625
0.133333	1	0.016750
0.150000	1	0.016750
0.166667	1	0.016375
0.183333	1	0.016750
0.200000	1	0.016625
0.216667	1	0.017250
0.233333	1	0.017875
0.250000	1	0.018125
0.266667	1	0.019000
0.283333	1	0.019625
0.300000	1	0.020125
0.316667	1	0.020750
0.333333	1	0.021250
0.350000	1	0.021125
0.366667	1	0.021000
0.383333	1	0.020500
0.400000	1	0.019875
0.416667	1	0.019750
0.433333	1	0.020000
0.450000	1	0.022250
0.466667	1	0.025000
0.483333	1	0.026750
0.500000	1	0.027875
0.516667	1	0.027625
0.533333	1	0.027375
0.550000	1	0.026500
0.566667	1	0.025000
0.583333	1	0.022750
0.600000	1	0.020250
0.616667	1	0.017500
0.633333	1	0.015250
0.650000	1	0.013625
0.666667	1	0.011625
0.683333	1	0.010000
0.700000	1	0.009250
0.716667	1	0.007500
0.733333	1	0.006250
0.750000	1	0.005000
0.766667	1	0.004250
0.783333	1	0.003875
0.800000	1	0.004000
0.816667	1	0.003500
0.833333	1	0.002625
0.850000	1	0.002750
0.866667	1	0.003000
0.883333	1	0.002500
0.900000	1	0.002125
0.916667	1	0.002375
0.933333	1	0.002250
0.950000	1	0.002125
0.966667	1	0.002500
0.983333	1	0.001875
1.000000	1	0.002000
1.016667	1	0.002250
1.033333	1	0.004000
1.050000	1	0.005000
1.066667	1	0.005750
1.083333	1	0.006625
1.100000	1	0.007750
1.116667	1	0.008625
1.133333	1	0.009375
1.150000	1	0.010000
1.166667	1	0.011375
1.183333	1	0.012875
1.200000	1	0.014125
1.216667	1	0.014875
1.233333	1	0.016750
1.250000	1	0.018250
1.266667	1	0.020000
1.283333	1	0.021750
1.300000	1	0.023250
1.316667	1	0.024875
1.333333	1	0.026375
1.350000	1	0.028250
1.366667	1	0.030000
1.383333	1	0.031000
1.400000	1	0.032750
1.416667	1	0.034500
1.433333	1	0.035375
1.450000	1	0.036625
1.466667	1	0.037750
1.483333	1	0.039750
1.500000	1	0.040125
1.516667	1	0.040500
1.533333	1	0.041000
1.550000	1	0.041500
1.566667	1	0.041875
1.583333	1	0.041500
1.600000	1	0.041625
1.616667	1	0.042750
1.633333	1	0.042875
1.650000	1	0.042750
1.666667	1	0.041875
1.683333	1	0.041000
1.700000	1	0.040750
1.716667	1	0.039625
1.733333	1	0.038625
1.750000	1	0.037625
1.766667	1	0.036375
1.783333	1	0.035000
1.800000	1	0.033750
1.816667	1	0.031875
1.833333	1	0.030625
1.850000	1	0.028500
1.866667	1	0.026500
1.883333	1	0.023875
1.900000	1	0.021000
1.916667	1	0.017375
1.933333	1	0.014000
1.950000	1	0.011000
1.966667	1	0.008125
1.983333	1	0.004875
2.000000	1	0.001375
2.016667	1	-0.001375
2.033333	1	-0.003500
2.050000	1	-0.006000
2.066667	1	-0.009000
2.083333	1	-0.011125
2.100000	1	-0.013500
2.116667	1	-0.015750
2.133333	1	-0.017875
2.150000	1	-0.020000
2.166667	1	-0.021250
2.183333	1	-0.022000
2.200000	1	-0.022250
2.216667	1	-0.022125
2.233333	1	-0.022250
2.250000	1	-0.022250
2.266667	1	-0.021625
2.283333	1	-0.020875
2.300000	1	-0.020500
2.316667	1	-0.019125
2.333333	1	-0.017750
2.350000	1	-0.016250
2.366667	1	-0.014250
2.383333	1	-0.013250
2.400000	1	-0.011750
2.416667	1	-0.010250
2.433333	1	-0.008000
2.450000	1	-0.006250
2.466667	1	-0.005000
2.483333	1	-0.002875
2.500000	1	-0.000375
2.516667	1	0.000625
2.533333	1	0.002000
2.550000	1	0.002500
2.566667	1	0.003375
2.583333	1	0.003875
2.600000	1	0.005000
2.616667	1	0.005500
2.633333	1	0.005500
2.650000	1	0.005125
2.666667	1	0.005375
2.683333	1	0.005375
2.700000	1	0.005125
2.716667	1	0.004625
2.733333	1	0.004000
2.750000	1	0.002750
2.766667	1	0.002250
2.783333	1	0.001375
2.800000	1	0.000000
2.816667	1	-0.000500
2.833333	1	-0.000875
2.850000	1	-0.002125
2.866667	1	-0.003000
2.883333	1	-0.004000
2.900000	1	-0.005250
2.916667	1	-0.005750
2.933333	1	-0.006625
2.950000	1	-0.007125
2.966667	1	-0.008000
2.983333	1	-0.009000
3.000000	1	-0.009625
3.016667	1	-0.010625
3.033333	1	-0.011875
3.050000	1	-0.012375
3.066667	1	-0.012750
3.083333	1	-0.013500
3.100000	1	-0.014250
3.116667	1	-0.014125
3.133333	1	-0.014250
3.150000	1	-0.014750
3.166667	1	-0.015500
3.183333	1	-0.015750
3.200000	1	-0.016750
3.216667	1	-0.016750
3.233333	1	-0.016625
3.250000	1	-0.016125
3.266667	1	-0.015750
3.283333	1	-0.015625
3.300000	1	-0.014625
3.316667	1	-0.013625
3.333333	1	-0.012250
3.350000	1	-0.011625
3.366667	1	-0.010125
3.383333	1	-0.008750
3.400000	1	-0.007000
3.416667	1	-0.005250
3.433333	1	-0.003125
3.450000	1	-0.000500
3.466667	1	0.002375
3.483333	1	0.005000
3.500000	1	0.007750
3.516667	1	0.010375
3.533333	1	0.012750
3.550000	1	0.015625
3.566667	1	0.018000
3.583333	1	0.020625
3.600000	1	0.023625
3.616667	1	0.025625
3.633333	1	0.028000
3.650000	1	0.031125
3.666667	1	0.033625
3.683333	1	0.035500
3.700000	1	0.037375
3.716667	1	0.039250
3.733333	1	0.040625
3.750000	1	0.042375
3.766667	1	0.043375
3.783333	1	0.045125
3.800000	1	0.046625
3.816667	1	0.048000
3.833333	1	0.048500
3.850000	1	0.049250
3.866667	1	0.049375
3.883333	1	0.049625
3.900000	1	0.050500
3.916667	1	0.051375
3.933333	1	0.051500
3.950000	1	0.051875
3.966667	1	0.051875
3.983333	1	0.051875
4.000000	1	0.053000
4.016667	1	0.053250
4.033333	1	0.053625
4.050000	1	0.053500
4.066667	1	0.054000
4.083333	1	0.054375
4.100000	1	0.054875
4.116667	1	0.056250
4.133333	1	0.056750
4.150000	1	0.057750
4.166667	1	0.058875
4.183333	1	0.060250
4.200000	1	0.061625
4.216667	1	0.063000
4.233333	1	0.064625
4.250000	1	0.066625
4.266667	1	0.068250
4.283333	1	0.069375
4.300000	1	0.070625
4.316667	1	0.072000
4.333333	1	0.073875
4.350000	1	0.075750
4.366667	1	0.077500
4.383333	1	0.079250
4.400000	1	0.080750
4.416667	1	0.082125
4.433333	1	0.083250
4.450000	1	0.084500
4.466667	1	0.085375
4.483333	1	0.086875
4.500000	1	0.086750
4.516667	1	0.087000
4.533333	1	0.087250
4.550000	1	0.087625
4.566667	1	0.088250
4.583333	1	0.088750
4.600000	1	0.089875
4.616667	1	0.090250
4.633333	1	0.090000
4.650000	1	0.090500
4.666667	1	0.089875
4.683333	1	0.090500
4.700000	1	0.091375
4.716667	1	0.090500
4.733333	1	0.091000
4.750000	1	0.092750
4.766667	1	0.094125
4.783333	1	0.096000
4.800000	1	0.097750
4.816667	1	0.099250
4.833333	1	0.101750
4.850000	1	0.104375
4.866667	1	0.106625
4.883333	1	0.109500
4.900000	1	0.112875
4.916667	1	0.115750
4.933333	1	0.119750
4.950000	1	0.123375
4.966667	1	0.127000
4.983333	1	0.130750
5.000000	1	0.135125
5.016667	1	0.139250
5.033333	1	0.143500
5.050000	1	0.148250
5.066667	1	0.152500
5.083333	1	0.157375
5.100000	1	0.162375
5.116667	1	0.166750
5.133333	1	0.171125
5.150000	1	0.175750
5.166667	1	0.180000
5.183333	1	0.184000
5.200000	1	0.188250
5.216667	1	0.192625
5.233333	1	0.197125
5.250000	1	0.200500
5.266667	1	0.203500
5.283333	1	0.208125
5.300000	1	0.211250
5.316667	1	0.214875
5.333333	1	0.217500
5.350000	1	0.219875
5.366667	1	0.222500
5.383333	1	0.225000
5.400000	1	0.227375
5.416667	1	0.229875
5.433333	1	0.231625
5.450000	1	0.232875
5.466667	1	0.234250
5.483333	1	0.234750
5.500000	1	0.235500
5.516667	1	0.236000
5.533333	1	0.237125
5.550000	1	0.237250
5.566667	1	0.237625
5.583333	1	0.236750
5.600000	1	0.236500
5.616667	1	0.236000
5.633333	1	0.235250
5.650000	1	0.234000
5.666667	1	0.232500
5.683333	1	0.230500
5.700000	1	0.228500
5.716667	1	0.225875
5.733333	1	0.224000
5.750000	1	0.221625
5.766667	1	0.219375
5.783333	1	0.216750
5.800000	1	0.214250
5.816667	1	0.211000
5.833333	1	0.208000
5.850000	1	0.205125
5.866667	1	0.201000
5.883333	1	0.197875
5.900000	1	0.193875
5.916667	1	0.190375
5.933333	1	0.186375
5.950000	1	0.182375
5.966667	1	0.178500
5.983333	1	0.174125
6.000000	1	0.169750
6.016667	1	0.165625
6.033333	1	0.161500
6.050000	1	0.157500
6.066667	1	0.153625
6.083333	1	0.149875
6.100000	1	0.145750
6.116667	1	0.140625
6.133333	1	0.136250
6.150000	1	0.132000
6.166667	1	0.128750
6.183333	1	0.124125
6.200000	1	0.120500
6.216667	1	0.116625
6.233333	1	0.113250
6.250000	1	0.108500
6.266667	1	0.104375
6.283333	1	0.100500
6.300000	1	0.097250
6.316667	1	0.093750
6.333333	1	0.090625
6.350000	1	0.088250
6.366667	1	0.085500
6.383333	1	0.082875
6.400000	1	0.079750
6.416667	1	0.076000
6.433333	1	0.073000
6.450000	1	0.070750
6.466667	1	0.067875
6.483333	1	0.065375
6.500000	1	0.062625
6.516667	1	0.060500
6.533333	1	0.058625
6.550000	1	0.056500
6.566667	1	0.054250
6.583333	1	0.052250
6.600000	1	0.050375
6.616667	1	0.048750
6.633333	1	0.046625
6.650000	1	0.044000
6.666667	1	0.041750
6.683333	1	0.040250
6.700000	1	0.038625
6.716667	1	0.037000
6.733333	1	0.035125
6.750000	1	0.033500
6.766667	1	0.032250
6.783333	1	0.031375
6.800000	1	0.030125
6.816667	1	0.028875
6.833333	1	0.028250
6.850000	1	0.027625
6.866667	1	0.027000
6.883333	1	0.026250
6.900000	1	0.025875
6.916667	1	0.025750
6.933333	1	0.026250
6.950000	1	0.027000
6.966667	1	0.027375
6.983333	1	0.028250
7.000000	1	0.029125
7.016667	1	0.030000
7.033333	1	0.030875
7.050000	1	0.032875
7.066667	1	0.034750
7.083333	1	0.036375
7.100000	1	0.039375
7.116667	1	0.041875
7.133333	1	0.044375
7.150000	1	0.047250
7.166667	1	0.050875
7.183333	1	0.054375
7.200000	1	0.057500
7.216667	1	0.061375
7.233333	1	0.065625
7.250000	1	0.069625
7.266667	1	0.073500
7.283333	1	0.078125
7.300000	1	0.082500
7.316667	1	0.087250
7.333333	1	0.091625
7.350000	1	0.096500
7.366667	1	0.100875
7.383333	1	0.104750
7.400000	1	0.109750
7.416667	1	0.113875
7.433333	1	0.118125
7.450000	1	0.122500
7.466667	1	0.126500
7.483333	1	0.130125
7.500000	1	0.133500
7.516667	1	0.136625
7.533333	1	0.140000
7.550000	1	0.142750
7.566667	1	0.145000
7.583333	1	0.146500
7.600000	1	0.148000
7.616667	1	0.149250
7.633333	1	0.149875
7.650000	1	0.149500
7.666667	1	0.149375
7.683333	1	0.148375
7.700000	1	0.147500
7.716667	1	0.146375
7.733333	1	0.144000
7.750000	1	0.141625
7.766667	1	0.138625
7.783333	1	0.135500
7.800000	1	0.131625
7.816667	1	0.127500
7.833333	1	0.123625
7.850000	1	0.119125
7.866667	1	0.114625
7.883333	1	0.109750
7.900000	1	0.104250
7.916667	1	0.098500
7.933333	1	0.092625
7.950000	1	0.087000
7.966667	1	0.081000
7.983333	1	0.075375
8.000000	1	0.069250
8.016667	1	0.063500
8.033333	1	0.057875
8.050000	1	0.051875
8.066667	1	0.046750
8.083333	1	0.041750
8.100000	1	0.036375
8.116667	1	0.031875
8.133333	1	0.027375
8.150000	1	0.023375
8.166667	1	0.020000
8.183333	1	0.015750
8.200000	1	0.012125
8.216667	1	0.009250
8.233333	1	0.007375
8.250000	1	0.006000
8.266667	1	0.004125
8.283333	1	0.002625
8.300000	1	0.000875
8.316667	1	0.000250
8.333333	1	0.000500
8.350000	1	0.000750
8.366667	1	0.001000
8.383333	1	0.001375
8.400000	1	0.002000
8.416667	1	0.003000
8.433333	1	0.003750
8.450000	1	0.004375
8.466667	1	0.005125
8.483333	1	0.005375
8.500000	1	0.006500
8.516667	1	0.007625
8.533333	1	0.008250
8.550000	1	0.008750
8.566667	1	0.009875
8.583333	1	0.010875
8.600000	1	0.011000
8.616667	1	0.012500
8.633333	1	0.013375
8.650000	1	0.013625
8.666667	1	0.014750
8.683333	1	0.015000
8.700000	1	0.015875
8.716667	1	0.016500
8.733333	1	0.016625
8.750000	1	0.017375
8.766667	1	0.018000
8.783333	1	0.019125
8.800000	1	0.019625
8.816667	1	0.020125
8.833333	1	0.021000
8.850000	1	0.022500
8.866667	1	0.023750
8.883333	1	0.024500
8.900000	1	0.025250
8.916667	1	0.027125
8.933333	1	0.028250
8.950000	1	0.029875
8.966667	1	0.031125
8.983333	1	0.032875
9.000000	1	0.034375
9.016667	1	0.035875
9.033333	1	0.037750
9.050000	1	0.038500
9.066667	1	0.039375
9.083333	1	0.040625
9.100000	1	0.041375
9.116667	1	0.042250
9.133333	1	0.042750
9.150000	1	0.043625
9.166667	1	0.043250
9.183333	1	0.043500
9.200000	1	0.043375
9.216667	1	0.042750
9.233333	1	0.043000
9.250000	1	0.041750
9.266667	1	0.040875
9.283333	1	0.040500
9.300000	1	0.039125
9.316667	1	0.037875
9.333333	1	0.035625
9.350000	1	0.034125
9.366667	1	0.032125
9.383333	1	0.029500
9.400000	1	0.026250
9.416667	1	0.023625
9.433333	1	0.020875
9.450000	1	0.018125
9.466667	1	0.015000
9.483333	1	0.012125
9.500000	1	0.009250
9.516667	1	0.005875
9.533333	1	0.002625
9.550000	1	-0.000125
9.566667	1	-0.003625
9.583333	1	-0.006250
9.600000	1	-0.009500
9.616667	1	-0.012750
9.633333	1	-0.015500
9.650000	1	-0.017875
9.666667	1	-0.020375
9.683333	1	-0.022875
9.700000	1	-0.025500
9.716667	1	-0.027625
9.733333	1	-0.029375
9.750000	1	-0.031250
9.766667	1	-0.032875
9.783333	1	-0.034250
9.800000	1	-0.035125
9.816667	1	-0.037125
9.833333	1	-0.038375
9.850000	1	-0.038375
9.866667	1	-0.038750
9.883333	1	-0.038625
9.900000	1	-0.038250
9.916667	1	-0.038000
9.933333	1	-0.036750
9.950000	1	-0.035000
9.966667	1	-0.033750
9.983333	1	-0.032250
10.000000	1	-0.029875
10.016667	1	-0.027000
10.033333	1	-0.023750
10.050000	1	-0.018875
10.066667	1	-0.014250
10.083333	1	-0.008625
10.100000	1	-0.001500
10.116667	1	0.005625
10.133333	1	0.013250
10.150000	1	0.021625
10.166667	1	0.030375
10.183333	1	0.039250
10.200000	1	0.049625
10.216667	1	0.061250
10.233333	1	0.074125
10.250000	1	0.088500
10.266667	1	0.104500
10.283333	1	0.123000
10.300000	1	0.144500
10.316667	1	0.168125
10.333333	1	0.194125
10.350000	1	0.221875
10.366667	1	0.251125
10.383333	1	0.281000
10.400000	1	0.307250
10.416667	1	0.328125
10.433333	1	0.337500
10.450000	1	0.333125
10.466667	1	0.309625
10.483333	1	0.266250
10.500000	1	0.210500
10.516667	1	0.160875
10.533333	1	0.152625
10.550000	1	0.241375
10.566667	1	0.499500
10.583333	1	1.008000
10.600000	1	1.849250
10.616667	1	3.098250
10.633333	1	4.812250
10.650000	1	7.028875
10.666667	1	9.771125
10.683333	1	13.041375
10.700000	1	16.823000
10.716667	1	21.073250
10.733333	1	25.716750
10.750000	1	30.635500
10.766667	1	35.646000
10.783333	1	40.490500
10.800000	1	44.819125
10.816667	1	48.204625
10.833333	1	50.207625
10.850000	1	50.491000
10.866667	1	48.933375
10.883333	1	45.694750
10.900000	1	41.188750
10.916667	1	35.966250
10.933333	1	30.566000
10.950000	1	25.408375
10.966667	1	20.757250
10.983333	1	16.743125
11.000000	1	13.390500
11.016667	1	10.660875
11.033333	1	8.484250
11.050000	1	6.776625
11.066667	1	5.452625
11.083333	1	4.434500
11.100000	1	3.654500
11.116667	1	3.057625
11.133333	1	2.599625
11.150000	1	2.246250
11.166667	1	1.973000
11.183333	1	1.758250
11.200000	1	1.587375
11.216667	1	1.450000
11.233333	1	1.337625
11.250000	1	1.245375
11.266667	1	1.168375
11.283333	1	1.103375
11.300000	1	1.048000
11.316667	1	1.001125
11.333333	1	0.960625
11.350000	1	0.925750
11.366667	1	0.895500
11.383333	1	0.869500
11.400000	1	0.847625
11.416667	1	0.828250
11.433333	1	0.812125
11.450000	1	0.797875
11.466667	1	0.786625
11.483333	1	0.777000
11.500000	1	0.769375
11.516667	1	0.763750
11.533333	1	0.759000
11.550000	1	0.756750
11.566667	1	0.756125
11.583333	1	0.756750
11.600000	1	0.758125
11.616667	1	0.760500
11.633333	1	0.764625
11.650000	1	0.770250
11.666667	1	0.777250
11.683333	1	0.784500
11.700000	1	0.793375
11.716667	1	0.803750
11.733333	1	0.814750
11.750000	1	0.826625
11.766667	1	0.838500
11.783333	1	0.851250
11.800000	1	0.863750
11.816667	1	0.876750
11.833333	1	0.888125
11.850000	1	0.898875
11.866667	1	0.908375
11.883333	1	0.917500
11.900000	1	0.925500
11.916667	1	0.932625
11.933333	1	0.937875
11.950000	1	0.943125
11.966667	1	0.948125
11.983333	1	0.952875
12.000000	1	0.957125
12.016667	1	0.961500
12.033333	1	0.965250
12.050000	1	0.969625
12.066667	1	0.973875
12.083333	1	0.979375
12.100000	1	0.984250
12.116667	1	0.989625
12.133333	1	0.995750
12.150000	1	1.002875
12.166667	1	1.009875
12.183333	1	1.017625
12.200000	1	1.026625
12.216667	1	1.037875
12.233333	1	1.052125
12.250000	1	1.068375
12.266667	1	1.089250
12.283333	1	1.115500
12.300000	1	1.149375
12.316667	1	1.192750
12.333333	1	1.249250
12.350000	1	1.321250
12.366667	1	1.413250
12.383333	1	1.530625
12.400000	1	1.676375
12.416667	1	1.857000
12.433333	1	2.076125
12.450000	1	2.339125
12.466667	1	2.651500
12.483333	1	3.016625
12.500000	1	3.439750
12.516667	1	3.921000
12.533333	1	4.462375
12.550000	1	5.061000
12.566667	1	5.711750
12.583333	1	6.405375
12.600000	1	7.130000
12.616667	1	7.870875
12.633333	1	8.613250
12.650000	1	9.342125
12.666667	1	10.045375
12.683333	1	10.712250
12.700000	1	11.337750
12.716667	1	11.919250
12.733333	1	12.462250
12.750000	1	12.973750
12.766667	1	13.462250
12.783333	1	13.941000
12.800000	1	14.419875
12.816667	1	14.909000
12.833333	1	15.416875
12.850000	1	15.949750
12.866667	1	16.512375
12.883333	1	17.107500
12.900000	1	17.736000
12.916667	1	18.396750
12.933333	1	19.088375
12.950000	1	19.808625
12.966667	1	20.556250
12.983333	1	21.330750
13.000000	1	22.129250
13.016667	1	22.950125
13.033333	1	23.793625
13.050000	1	24.658875
13.066667	1	25.545750
13.083333	1	26.453500
13.100000	1	27.381500
13.116667	1	28.330000
13.133333	1	29.297000
13.150000	1	30.282000
13.166667	1	31.286500
13.183333	1	32.310125
13.200000	1	33.352625
13.216667	1	34.413000
13.233333	1	35.492375
13.250000	1	36.592125
13.266667	1	37.713875
13.283333	1	38.857500
13.300000	1	40.022750
13.316667	1	41.210500
13.333333	1	42.421500
13.350000	1	43.654875
13.366667	1	44.912625
13.383333	1	46.195000
13.400000	1	47.501125
13.416667	1	48.831500
13.433333	1	50.188500
13.450000	1	51.573750
13.466667	1	52.988125
13.483333	1	54.432750
13.500000	1	55.908375
13.516667	1	57.415000
13.533333	1	58.951375
13.550000	1	60.519875
13.566667	1	62.120375
13.583333	1	63.753500
13.600000	1	65.417500
13.616667	1	67.114625
13.633333	1	68.847625
13.650000	1	70.618625
13.666667	1	72.428000
13.683333	1	74.276750
13.700000	1	76.159500
13.716667	1	78.046625
13.733333	1	79.850875
13.750000	1	81.380250
13.766667	1	82.326500
13.783333	1	82.305125
13.800000	1	80.929000
13.816667	1	77.865500
13.833333	1	72.922000
13.850000	1	66.167125
13.866667	1	58.037875
13.883333	1	49.277500
13.900000	1	40.703875
13.916667	1	32.956125
13.933333	1	26.366500
13.950000	1	20.990375
13.966667	1	16.723375
13.983333	1	13.394375
14.000000	1	10.832750
14.016667	1	8.883875
14.033333	1	7.419000
14.050000	1	6.328625
14.066667	1	5.522875
14.083333	1	4.928375
14.100000	1	4.486750
14.116667	1	4.154125
14.133333	1	3.899875
14.150000	1	3.701625
14.166667	1	3.543250
14.183333	1	3.413500
14.200000	1	3.305000
14.216667	1	3.212250
14.233333	1	3.131500
14.250000	1	3.059750
14.266667	1	2.995625
14.283333	1	2.937875
14.300000	1	2.885625
14.316667	1	2.838375
14.333333	1	2.795750
14.350000	1	2.757625
14.366667	1	2.725000
14.383333	1	2.697500
14.400000	1	2.676875
14.416667	1	2.665000
14.433333	1	2.662750
14.450000	1	2.674375
14.466667	1	2.704875
14.483333	1	2.761625
14.500000	1	2.855875
14.516667	1	3.002625
14.533333	1	3.225375
14.550000	1	3.553000
14.566667	1	4.027750
14.583333	1	4.699500
14.600000	1	5.632000
14.616667	1	6.900000
14.633333	1	8.589125
14.650000	1	10.786625
14.666667	1	13.575000
14.683333	1	17.019250
14.700000	1	21.153125
14.716667	1	25.967375
14.733333	1	31.404125
14.750000	1	37.352875
14.766667	1	43.632375
14.783333	1	50.006875
14.800000	1	56.204875
14.816667	1	61.936500
14.833333	1	66.911875
14.850000	1	70.867250
14.866667	1	73.590125
14.883333	1	74.945500
14.900000	1	74.883625
14.916667	1	73.447875
14.933333	1	70.765375
14.950000	1	67.030000
14.966667	1	62.480500
14.983333	1	57.379750
15.000000	1	51.975625
15.016667	1	46.495000
15.033333	1	41.124625
15.050000	1	36.018125
15.066667	1	31.283750
15.083333	1	26.985875
15.100000	1	23.155750
15.116667	1	19.795500
15.133333	1	16.883625
15.150000	1	14.386125
15.166667	1	12.264500
15.183333	1	10.476000
15.200000	1	8.975500
15.216667	1	7.722500
15.233333	1	6.679750
15.250000	1	5.816000
15.266667	1	5.104000
15.283333	1	4.519625
15.300000	1	4.043000
15.316667	1	3.657625
15.333333	1	3.348375
15.350000	1	3.103125
15.366667	1	2.911500
15.383333	1	2.764125
15.400000	1	2.652875
15.416667	1	2.571250
15.433333	1	2.511750
15.450000	1	2.469625
15.466667	1	2.438000
15.483333	1	2.412875
15.500000	1	2.390250
15.516667	1	2.368000
15.533333	1	2.343000
15.550000	1	2.315125
15.566667	1	2.283000
15.583333	1	2.246875
15.600000	1	2.209375
15.616667	1	2.170500
15.633333	1	2.131375
15.650000	1	2.093125
15.666667	1	2.056750
15.683333	1	2.023375
15.700000	1	1.991750
15.716667	1	1.961750
15.733333	1	1.932125
15.750000	1	1.903500
15.766667	1	1.876000
15.783333	1	1.847125
15.800000	1	1.817500
15.816667	1	1.786500
15.833333	1	1.755375
15.850000	1	1.723750
15.866667	1	1.692750
15.883333	1	1.663125
15.900000	1	1.634625
15.916667	1	1.609250
15.933333	1	1.587250
15.950000	1	1.567875
15.966667	1	1.552375
15.983333	1	1.540000
16.000000	1	1.530625
16.016667	1	1.523625
16.033333	1	1.518375
16.050000	1	1.513625
16.066667	1	1.509375
16.083333	1	1.504375
16.100000	1	1.498750
16.116667	1	1.491625
16.133333	1	1.483500
16.150000	1	1.473750
16.166667	1	1.461625
16.183333	1	1.448500
16.200000	1	1.434000
16.216667	1	1.419000
16.233333	1	1.402750
16.250000	1	1.385500
16.266667	1	1.368000
16.283333	1	1.350875
16.300000	1	1.332500
16.316667	1	1.315000
16.333333	1	1.296875
16.350000	1	1.280375
16.366667	1	1.265375
16.383333	1	1.251875
16.400000	1	1.240375
16.416667	1	1.231000
16.433333	1	1.223375
16.450000	1	1.219250
16.466667	1	1.217375
16.483333	1	1.218000
16.500000	1	1.221250
16.516667	1	1.225875
16.533333	1	1.231625
16.550000	1	1.237250
16.566667	1	1.242875
16.583333	1	1.248000
16.600000	1	1.251875
16.616667	1	1.254000
16.633333	1	1.254500
16.650000	1	1.253625
16.666667	1	1.250750
16.683333	1	1.247125
16.700000	1	1.242500
16.716667	1	1.237375
16.733333	1	1.233000
16.750000	1	1.228875
16.766667	1	1.226750
16.783333	1	1.225875
16.800000	1	1.225750
16.816667	1	1.228000
16.833333	1	1.231375
16.850000	1	1.235125
16.866667	1	1.238000
16.883333	1	1.241250
16.900000	1	1.243750
16.916667	1	1.245500
16.933333	1	1.244875
16.950000	1	1.243125
16.966667	1	1.240125
16.983333	1	1.235250
17.000000	1	1.229875
17.016667	1	1.223500
17.033333	1	1.216250
17.050000	1	1.209625
17.066667	1	1.202375
17.083333	1	1.195625
17.100000	1	1.189375
17.116667	1	1.183625
17.133333	1	1.179125
17.150000	1	1.175125
17.166667	1	1.172750
17.183333	1	1.171750
17.200000	1	1.171375
17.216667	1	1.172625
17.233333	1	1.174875
17.250000	1	1.176875
17.266667	1	1.179625
17.283333	1	1.183250
17.300000	1	1.188000
17.316667	1	1.193625
17.333333	1	1.199250
17.350000	1	1.204750
17.366667	1	1.210125
17.383333	1	1.215250
17.400000	1	1.220875
17.416667	1	1.225625
17.433333	1	1.229375
17.450000	1	1.231875
17.466667	1	1.233500
17.483333	1	1.233625
17.500000	1	1.231750
17.516667	1	1.227875
17.533333	1	1.222375
17.550000	1	1.214375
17.566667	1	1.205375
17.583333	1	1.195750
17.600000	1	1.184000
17.616667	1	1.171500
17.633333	1	1.158000
17.650000	1	1.144250
17.666667	1	1.129750
17.683333	1	1.114750
17.700000	1	1.099500
17.716667	1	1.083875
17.733333	1	1.068500
17.750000	1	1.053000
17.766667	1	1.038375
17.783333	1	1.024250
17.800000	1	1.011375
17.816667	1	0.998250
17.833333	1	0.986250
17.850000	1	0.974625
17.866667	1	0.963375
17.883333	1	0.952250
17.900000	1	0.942125
17.916667	1	0.932375
17.933333	1	0.922500
17.950000	1	0.912750
17.966667	1	0.903000
17.983333	1	0.893250
18.000000	1	0.883250
18.016667	1	0.873500
18.033333	1	0.863250
18.050000	1	0.854125
18.066667	1	0.844625
18.083333	1	0.835250
18.100000	1	0.825125
18.116667	1	0.816625
18.133333	1	0.808125
18.150000	1	0.801375
18.166667	1	0.795500
18.183333	1	0.790750
18.200000	1	0.786250
18.216667	1	0.783250
18.233333	1	0.780500
18.250000	1	0.779625
18.266667	1	0.779125
18.283333	1	0.778375
18.300000	1	0.778000
18.316667	1	0.779375
18.333333	1	0.780000
18.350000	1	0.781500
18.366667	1	0.783500
18.383333	1	0.786000
18.400000	1	0.789500
18.416667	1	0.794250
18.433333	1	0.799875
18.450000	1	0.806625
18.466667	1	0.815250
18.483333	1	0.826000
18.500000	1	0.838875
18.516667	1	0.853250
18.533333	1	0.869500
18.550000	1	0.887500
18.566667	1	0.907125
18.583333	1	0.928750
18.600000	1	0.952375
18.616667	1	0.977500
18.633333	1	1.005000
18.650000	1	1.033750
18.666667	1	1.064000
18.683333	1	1.095875
18.700000	1	1.128625
18.716667	1	1.162250
18.733333	1	1.198000
18.750000	1	1.233625
18.766667	1	1.268875
18.783333	1	1.304625
18.800000	1	1.339625
18.816667	1	1.374375
18.833333	1	1.406000
18.850000	1	1.434500
18.866667	1	1.458875
18.883333	1	1.478625
18.900000	1	1.493500
18.916667	1	1.502750
18.933333	1	1.505125
18.950000	1	1.500375
18.966667	1	1.488500
18.983333	1	1.470125
19.000000	1	1.444375
19.016667	1	1.412750
19.033333	1	1.376250
19.050000	1	1.334625
19.066667	1	1.290250
19.083333	1	1.243875
19.100000	1	1.196500
19.116667	1	1.150875
19.133333	1	1.107625
19.150000	1	1.069625
19.166667	1	1.037750
19.183333	1	1.012625
19.200000	1	0.996625
19.216667	1	0.991375
19.233333	1	0.998250
19.250000	1	1.019000
19.266667	1	1.054750
19.283333	1	1.106625
19.300000	1	1.175750
19.316667	1	1.261375
19.333333	1	1.363875
19.350000	1	1.482750
19.366667	1	1.615375
19.383333	1	1.759500
19.400000	1	1.911500
19.416667	1	2.067000
19.433333	1	2.221750
19.450000	1	2.370250
19.466667	1	2.507000
19.483333	1	2.629375
19.500000	1	2.730375
19.516667	1	2.807750
19.533333	1	2.858750
19.550000	1	2.883125
19.566667	1	2.879000
19.583333	1	2.848250
19.600000	1	2.792250
19.616667	1	2.713375
19.633333	1	2.615125
19.650000	1	2.501625
19.666667	1	2.377875
19.683333	1	2.246625
19.700000	1	2.112125
19.716667	1	1.977500
19.733333	1	1.844750
19.750000	1	1.715125
19.766667	1	1.591875
19.783333	1	1.475625
19.800000	1	1.367000
19.816667	1	1.266625
19.833333	1	1.174000
19.850000	1	1.090375
19.866667	1	1.014250
19.883333	1	0.945875
19.900000	1	0.885250
19.916667	1	0.831375
19.933333	1	0.783750
19.950000	1	0.742250
19.966667	1	0.705875
19.983333	1	0.675750
20.000000	1	0.649375
20.016667	1	0.628375
20.033333	1	0.613000
20.050000	1	0.601000
20.066667	1	0.593500
20.083333	1	0.589750
20.100000	1	0.589875
20.116667	1	0.593750
20.133333	1	0.600875
20.150000	1	0.611250
20.166667	1	0.622875
20.183333	1	0.637500
20.200000	1	0.653125
20.216667	1	0.669625
20.233333	1	0.685125
20.250000	1	0.700125
20.266667	1	0.713375
20.283333	1	0.724500
20.300000	1	0.732625
20.316667	1	0.737500
20.333333	1	0.738875
20.350000	1	0.735125
20.366667	1	0.729000
20.383333	1	0.719125
20.400000	1	0.706625
20.416667	1	0.692125
20.433333	1	0.676250
20.450000	1	0.659250
20.466667	1	0.642000
20.483333	1	0.625500
20.500000	1	0.611125
20.516667	1	0.599000
20.533333	1	0.590500
20.550000	1	0.586375
20.566667	1	0.587375
20.583333	1	0.594375
20.600000	1	0.608250
20.616667	1	0.629750
20.633333	1	0.659500
20.650000	1	0.697125
20.666667	1	0.743500
20.683333	1	0.798875
20.700000	1	0.862500
20.716667	1	0.933375
20.733333	1	1.010875
20.750000	1	1.094125
20.766667	1	1.180375
20.783333	1	1.266250
20.800000	1	1.350000
20.816667	1	1.428250
20.833333	1	1.500000
20.850000	1	1.561375
20.866667	1	1.610625
20.883333	1	1.645875
20.900000	1	1.666375
20.916667	1	1.672500
20.933333	1	1.662375
20.950000	1	1.638125
20.966667	1	1.599750
20.983333	1	1.549750
21.000000	1	1.490500
21.016667	1	1.424250
21.033333	1	1.351875
21.050000	1	1.277000
21.066667	1	1.201500
21.083333	1	1.126625
21.100000	1	1.053625
21.116667	1	0.983500
21.133333	1	0.917000
21.150000	1	0.855125
21.166667	1	0.798750
21.183333	1	0.747750
21.200000	1	0.701500
21.216667	1	0.659875
21.233333	1	0.622625
21.250000	1	0.589750
21.266667	1	0.561000
21.283333	1	0.536250
21.300000	1	0.515125
21.316667	1	0.496375
21.333333	1	0.480750
21.350000	1	0.467375
21.366667	1	0.455000
21.383333	1	0.445000
21.400000	1	0.435500
21.416667	1	0.428625
21.433333	1	0.422125
21.450000	1	0.416750
21.466667	1	0.413125
21.483333	1	0.409375
21.500000	1	0.406750
21.516667	1	0.405125
21.533333	1	0.403125
21.550000	1	0.402250
21.566667	1	0.402000
21.583333	1	0.402375
21.600000	1	0.402750
21.616667	1	0.403625
21.633333	1	0.406000
21.650000	1	0.409500
21.666667	1	0.413750
21.683333	1	0.418875
21.700000	1	0.424500
21.716667	1	0.432125
21.733333	1	0.440500
21.750000	1	0.450500
21.766667	1	0.462000
21.783333	1	0.473625
21.800000	1	0.486125
21.816667	1	0.498250
21.833333	1	0.511625
21.850000	1	0.524125
21.866667	1	0.536500
21.883333	1	0.549125
21.900000	1	0.561125
21.916667	1	0.571750
21.933333	1	0.582125
21.950000	1	0.591500
21.966667	1	0.599750
21.983333	1	0.606875
22.000000	1	0.612250
22.016667	1	0.616375
22.033333	1	0.619125
22.050000	1	0.620875
22.066667	1	0.621375
22.083333	1	0.621000
22.100000	1	0.619250
22.116667	1	0.616125
22.133333	1	0.612125
22.150000	1	0.608000
22.166667	1	0.602500
22.183333	1	0.596000
22.200000	1	0.588375
22.216667	1	0.580125
22.233333	1	0.570750
22.250000	1	0.560250
22.266667	1	0.549125
22.283333	1	0.537000
22.300000	1	0.524500
22.316667	1	0.511625
22.333333	1	0.497875
22.350000	1	0.483750
22.366667	1	0.469250
22.383333	1	0.455625
22.400000	1	0.442250
22.416667	1	0.428500
22.433333	1	0.415625
22.450000	1	0.404125
22.466667	1	0.393125
22.483333	1	0.382625
22.500000	1	0.372875
22.516667	1	0.364000
22.533333	1	0.356125
22.550000	1	0.348375
22.566667	1	0.341500
22.583333	1	0.334625
22.600000	1	0.328125
22.616667	1	0.322750
22.633333	1	0.317875
22.650000	1	0.313125
22.666667	1	0.309125
22.683333	1	0.305125
22.700000	1	0.302250
22.716667	1	0.298875
22.733333	1	0.295625
22.750000	1	0.292625
22.766667	1	0.290875
22.783333	1	0.288500
22.800000	1	0.286500
22.816667	1	0.284000
22.833333	1	0.282250
22.850000	1	0.280875
22.866667	1	0.280125
22.883333	1	0.279125
22.900000	1	0.278625
22.916667	1	0.279125
22.933333	1	0.279500
22.950000	1	0.279500
22.966667	1	0.281125
22.983333	1	0.282125
23.000000	1	0.284250
23.016667	1	0.286500
23.033333	1	0.288625
23.050000	1	0.291375
23.066667	1	0.294250
23.083333	1	0.297000
23.100000	1	0.300125
23.116667	1	0.303750
23.133333	1	0.306375
23.150000	1	0.309375
23.166667	1	0.311750
23.183333	1	0.314375
23.200000	1	0.316750
23.216667	1	0.320250
23.233333	1	0.323250
23.250000	1	0.326500
23.266667	1	0.329750
23.283333	1	0.334500
23.300000	1	0.340125
23.316667	1	0.347250
23.333333	1	0.356875
23.350000	1	0.368875
23.366667	1	0.386000
23.383333	1	0.406875
23.400000	1	0.433375
23.416667	1	0.467125
23.433333	1	0.509375
23.450000	1	0.562375
23.466667	1	0.627250
23.483333	1	0.706750
23.500000	1	0.801875
23.516667	1	0.915000
23.533333	1	1.048500
23.550000	1	1.203750
23.566667	1	1.381000
23.583333	1	1.582000
23.600000	1	1.805500
23.616667	1	2.051625
23.633333	1	2.318375
23.650000	1	2.603750
23.666667	1	2.903875
23.683333	1	3.214125
23.700000	1	3.528625
23.716667	1	3.842500
23.733333	1	4.148375
23.750000	1	4.440375
23.766667	1	4.710250
23.783333	1	4.952500
23.800000	1	5.161125
23.816667	1	5.330500
23.833333	1	5.457375
23.850000	1	5.538750
23.866667	1	5.573875
23.883333	1	5.562250
23.900000	1	5.506250
23.916667	1	5.407875
23.933333	1	5.270500
23.950000	1	5.099875
23.966667	1	4.900625
23.983333	1	4.677125
24.000000	1	4.436750
24.016667	1	4.184625
24.033333	1	3.925000
24.050000	1	3.664625
24.066667	1	3.406250
24.083333	1	3.153000
24.100000	1	2.908250
24.116667	1	2.673625
24.133333	1	2.452500
24.150000	1	2.244875
24.166667	1	2.051500
24.183333	1	1.871750
24.200000	1	1.707000
24.216667	1	1.555875
24.233333	1	1.418625
24.250000	1	1.293875
24.266667	1	1.181625
24.283333	1	1.081500
24.300000	1	0.991375
24.316667	1	0.911500
24.333333	1	0.840250
24.350000	1	0.778250
24.366667	1	0.723375
24.383333	1	0.675625
24.400000	1	0.634875
24.416667	1	0.599625
24.433333	1	0.570250
24.450000	1	0.544750
24.466667	1	0.524000
24.483333	1	0.506750
24.500000	1	0.492625
24.516667	1	0.481125
24.533333	1	0.471875
24.550000	1	0.464125
24.566667	1	0.457750
24.583333	1	0.452250
24.600000	1	0.448250
24.616667	1	0.444500
24.633333	1	0.440750
24.650000	1	0.436625
24.666667	1	0.432000
24.683333	1	0.427000
24.700000	1	0.422625
24.716667	1	0.417500
24.733333	1	0.412375
24.750000	1	0.407250
24.766667	1	0.401750
24.783333	1	0.395500
24.800000	1	0.389000
24.816667	1	0.383125
24.833333	1	0.376625
24.850000	1	0.370750
24.866667	1	0.364875
24.883333	1	0.359125
24.900000	1	0.354000
24.916667	1	0.348500
24.933333	1	0.343000
24.950000	1	0.337375
24.966667	1	0.332375
24.983333	1	0.328125
25.000000	1	0.322250
25.016667	1	0.318375
25.033333	1	0.313625
25.050000	1	0.309250
25.066667	1	0.305250
25.083333	1	0.301750
25.100000	1	0.298125
25.116667	1	0.293625
25.133333	1	0.289500
25.150000	1	0.285750
25.166667	1	0.281875
25.183333	1	0.279000
25.200000	1	0.274750
25.216667	1	0.271750
25.233333	1	0.267750
25.250000	1	0.264125
25.266667	1	0.261125
25.283333	1	0.257750
25.300000	1	0.254500
25.316667	1	0.251750
25.333333	1	0.250000
25.350000	1	0.248625
25.366667	1	0.246750
25.383333	1	0.244750
25.400000	1	0.243500
25.416667	1	0.242500
25.433333	1	0.242000
25.450000	1	0.242500
25.466667	1	0.242375
25.483333	1	0.243000
25.500000	1	0.243750
25.516667	1	0.245000
25.533333	1	0.247125
25.550000	1	0.248375
25.566667	1	0.249750
25.583333	1	0.252000
25.600000	1	0.254000
25.616667	1	0.255875
25.633333	1	0.258000
25.650000	1	0.260250
25.666667	1	0.262375
25.683333	1	0.264250
25.700000	1	0.266500
25.716667	1	0.268625
25.733333	1	0.270375
25.750000	1	0.271125
25.766667	1	0.272500
25.783333	1	0.274375
25.800000	1	0.276125
25.816667	1	0.276875
25.833333	1	0.278500
25.850000	1	0.280500
25.866667	1	0.282375
25.883333	1	0.284375
25.900000	1	0.285750
25.916667	1	0.287625
25.933333	1	0.290000
25.950000	1	0.292500
25.966667	1	0.295375
25.983333	1	0.298750
26.000000	1	0.302250
26.016667	1	0.306250
26.033333	1	0.310000
26.050000	1	0.315125
26.066667	1	0.320500
26.083333	1	0.325750
26.100000	1	0.330750
26.116667	1	0.336750
26.133333	1	0.342000
26.150000	1	0.348250
26.166667	1	0.354250
26.183333	1	0.358750
26.200000	1	0.363750
26.216667	1	0.368125
26.233333	1	0.372250
26.250000	1	0.375750
26.266667	1	0.378750
26.283333	1	0.380875
26.300000	1	0.382250
26.316667	1	0.382250
26.333333	1	0.383000
26.350000	1	0.383500
26.366667	1	0.381875
26.383333	1	0.379625
26.400000	1	0.376875
26.416667	1	0.373875
26.433333	1	0.370250
26.450000	1	0.365500
26.466667	1	0.360625
26.483333	1	0.354500
26.500000	1	0.348625
26.516667	1	0.342750
26.533333	1	0.336375
26.550000	1	0.328625
26.566667	1	0.321375
26.583333	1	0.314750
26.600000	1	0.307375
26.616667	1	0.300375
26.633333	1	0.293500
26.650000	1	0.286125
26.666667	1	0.279375
26.683333	1	0.272750
26.700000	1	0.266500
26.716667	1	0.260750
26.733333	1	0.255375
26.750000	1	0.250500
26.766667	1	0.245500
26.783333	1	0.240500
26.800000	1	0.235875
26.816667	1	0.233750
26.833333	1	0.232375
26.850000	1	0.230125
26.866667	1	0.224625
26.883333	1	0.221625
26.900000	1	0.219875
26.916667	1	0.219000
26.933333	1	0.217875
26.950000	1	0.218375
26.966667	1	0.218750
26.983333	1	0.219500
27.000000	1	0.220750
27.016667	1	0.222875
27.033333	1	0.224875
27.050000	1	0.227750
27.066667	1	0.231375
27.083333	1	0.235500
27.100000	1	0.240375
27.116667	1	0.245750
27.133333	1	0.252125
27.150000	1	0.259000
27.166667	1	0.267875
27.183333	1	0.277875
27.200000	1	0.289125
27.216667	1	0.301875
27.233333	1	0.317625
27.250000	1	0.336500
27.266667	1	0.358375
27.283333	1	0.383750
27.300000	1	0.413375
27.316667	1	0.449000
27.333333	1	0.490375
27.350000	1	0.537750
27.366667	1	0.593000
27.383333	1	0.655875
27.400000	1	0.728875
27.416667	1	0.812000
27.433333	1	0.905500
27.450000	1	1.011125
27.466667	1	1.129250
27.483333	1	1.260500
27.500000	1	1.403375
27.516667	1	1.560875
27.533333	1	1.729875
27.550000	1	1.910875
27.566667	1	2.102750
27.583333	1	2.303750
27.600000	1	2.512750
27.616667	1	2.727625
27.633333	1	2.946125
27.650000	1	3.165875
27.666667	1	3.383125
27.683333	1	3.594500
27.700000	1	3.797875
27.716667	1	3.987750
27.733333	1	4.162500
27.750000	1	4.318250
27.766667	1	4.451250
27.783333	1	4.559500
27.800000	1	4.641500
27.816667	1	4.696250
27.833333	1	4.720375
27.850000	1	4.714750
27.866667	1	4.679250
27.883333	1	4.615000
27.900000	1	4.523000
27.916667	1	4.406000
27.933333	1	4.266000
27.950000	1	4.106000
27.966667	1	3.929375
27.983333	1	3.738875
28.000000	1	3.539250
28.016667	1	3.332875
28.033333	1	3.121750
28.050000	1	2.910750
28.066667	1	2.701125
28.083333	1	2.496375
28.100000	1	2.298250
28.116667	1	2.108125
28.133333	1	1.927125
28.150000	1	1.757250
28.166667	1	1.597750
28.183333	1	1.450375
28.200000	1	1.314250
28.216667	1	1.190250
28.233333	1	1.077250
28.250000	1	0.975125
28.266667	1	0.883125
28.283333	1	0.801375
28.300000	1	0.727750
28.316667	1	0.663250
28.333333	1	0.606750
28.350000	1	0.558125
28.366667	1	0.516500
28.383333	1	0.481125
28.400000	1	0.451875
28.416667	1	0.428625
28.433333	1	0.410625
28.450000	1	0.396875
28.466667	1	0.387375
28.483333	1	0.381625
28.500000	1	0.379375
28.516667	1	0.379875
28.533333	1	0.383750
28.550000	1	0.389375
28.566667	1	0.397000
28.583333	1	0.406500
28.600000	1	0.418250
28.616667	1	0.431000
28.633333	1	0.444625
28.650000	1	0.459625
28.666667	1	0.474750
28.683333	1	0.490875
28.700000	1	0.506250
28.716667	1	0.521500
28.733333	1	0.535375
28.750000	1	0.549625
28.766667	1	0.563625
28.783333	1	0.576125
28.800000	1	0.588000
28.816667	1	0.598750
28.833333	1	0.608875
28.850000	1	0.617125
28.866667	1	0.624250
28.883333	1	0.629375
28.900000	1	0.633500
28.916667	1	0.636000
28.933333	1	0.637500
28.950000	1	0.636250
28.966667	1	0.634125
28.983333	1	0.631500
29.000000	1	0.627250
29.016667	1	0.621125
29.033333	1	0.614125
29.050000	1	0.605875
29.066667	1	0.596125
29.083333	1	0.585125
29.100000	1	0.573500
29.116667	1	0.560750
29.133333	1	0.547000
29.150000	1	0.533000
29.166667	1	0.517500
29.183333	1	0.501875
29.200000	1	0.486500
29.216667	1	0.470875
29.233333	1	0.454625
29.250000	1	0.439375
29.266667	1	0.422875
29.283333	1	0.406750
29.300000	1	0.389750
29.316667	1	0.373875
29.333333	1	0.358000
29.350000	1	0.342250
29.366667	1	0.327125
29.383333	1	0.312750
29.400000	1	0.298875
29.416667	1	0.285375
29.433333	1	0.273125
29.450000	1	0.260375
29.466667	1	0.248625
29.483333	1	0.237250
29.500000	1	0.226250
29.516667	1	0.216125
29.533333	1	0.206625
29.550000	1	0.196875
29.566667	1	0.188500
29.583333	1	0.180250
29.600000	1	0.173750
29.616667	1	0.166750
29.633333	1	0.159750
29.650000	1	0.153750
29.666667	1	0.148625
29.683333	1	0.143250
29.700000	1	0.138750
29.716667	1	0.134375
29.733333	1	0.129875
29.750000	1	0.126500
29.766667	1	0.122875
29.783333	1	0.119750
29.800000	1	0.116375
29.816667	1	0.112875
29.833333	1	0.110375
29.850000	1	0.106625
29.866667	1	0.104500
29.883333	1	0.102375
29.900000	1	0.100375
29.916667	1	0.099000
29.933333	1	0.097625
29.950000	1	0.096750
29.966667	1	0.096000
29.983333	1	0.095000
30.000000	1	0.093750
30.016667	1	0.093625
30.033333	1	0.093750
30.050000	1	0.093500
30.066667	1	0.093375
30.083333	1	0.093750
30.100000	1	0.093750
30.116667	1	0.094125
30.133333	1	0.094625
30.150000	1	0.095375
30.166667	1	0.096125
30.183333	1	0.097375
30.200000	1	0.098500
30.216667	1	0.100250
30.233333	1	0.102000
30.250000	1	0.103125
30.266667	1	0.104500
30.283333	1	0.105750
30.300000	1	0.106750
30.316667	1	0.107250
30.333333	1	0.109375
30.350000	1	0.111000
30.366667	1	0.112125
30.383333	1	0.113500
30.400000	1	0.115375
30.416667	1	0.117625
30.433333	1	0.119875
30.450000	1	0.122125
30.466667	1	0.123875
30.483333	1	0.126500
30.500000	1	0.129250
30.516667	1	0.132250
30.533333	1	0.135750
30.550000	1	0.139250
30.566667	1	0.143750
30.583333	1	0.148625
30.600000	1	0.153250
30.616667	1	0.158500
30.633333	1	0.165000
30.650000	1	0.171250
30.666667	1	0.178000
30.683333	1	0.185375
30.700000	1	0.192875
30.716667	1	0.201125
30.733333	1	0.209750
30.750000	1	0.219250
30.766667	1	0.228375
30.783333	1	0.239000
30.800000	1	0.250250
30.816667	1	0.262750
30.833333	1	0.276000
30.850000	1	0.290125
30.866667	1	0.305750
30.883333	1	0.322125
30.900000	1	0.340875
30.916667	1	0.361250
30.933333	1	0.384875
30.950000	1	0.410625
30.966667	1	0.441125
30.983333	1	0.476125
31.000000	1	0.516875
31.016667	1	0.563375
31.033333	1	0.617875
31.050000	1	0.680250
31.066667	1	0.751500
31.083333	1	0.833250
31.100000	1	0.926250
31.116667	1	1.032000
31.133333	1	1.150750
31.150000	1	1.284000
31.166667	1	1.433125
31.183333	1	1.598000
31.200000	1	1.780750
31.216667	1	1.980250
31.233333	1	2.197125
31.250000	1	2.431000
31.266667	1	2.680875
31.283333	1	2.946375
31.300000	1	3.225125
31.316667	1	3.515625
31.333333	1	3.815625
31.350000	1	4.123750
31.366667	1	4.435875
31.383333	1	4.748875
31.400000	1	5.058750
31.416667	1	5.362750
31.433333	1	5.656375
31.450000	1	5.936500
31.466667	1	6.198250
31.483333	1	6.438750
31.500000	1	6.654375
31.516667	1	6.842000
31.533333	1	6.999875
31.550000	1	7.125000
31.566667	1	7.217500
31.583333	1	7.276125
31.600000	1	7.299375
31.616667	1	7.288000
31.633333	1	7.241500
31.650000	1	7.163125
31.666667	1	7.053375
31.683333	1	6.914500
31.700000	1	6.749625
31.716667	1	6.560000
31.733333	1	6.351375
31.750000	1	6.125375
31.766667	1	5.885375
31.783333	1	5.633625
31.800000	1	5.373375
31.816667	1	5.106625
31.833333	1	4.837125
31.850000	1	4.568125
31.866667	1	4.301125
31.883333	1	4.038125
31.900000	1	3.781375
31.916667	1	3.531875
31.933333	1	3.291125
31.950000	1	3.060750
31.966667	1	2.840125
31.983333	1	2.629875
32.000000	1	2.431000
32.016667	1	2.242250
32.033333	1	2.065250
32.050000	1	1.899875
32.066667	1	1.744750
32.083333	1	1.600750
32.100000	1	1.466250
32.116667	1	1.342500
32.133333	1	1.227750
32.150000	1	1.121250
32.166667	1	1.023750
32.183333	1	0.933875
32.200000	1	0.851250
32.216667	1	0.775500
32.233333	1	0.706250
32.250000	1	0.642500
32.266667	1	0.584000
32.283333	1	0.532000
32.300000	1	0.483250
32.316667	1	0.439625
32.333333	1	0.400750
32.350000	1	0.365375
32.366667	1	0.333375
32.383333	1	0.304625
32.400000	1	0.279000
32.416667	1	0.256125
32.433333	1	0.235625
32.450000	1	0.216875
32.466667	1	0.200875
32.483333	1	0.186875
32.500000	1	0.175000
32.516667	1	0.163500
32.533333	1	0.153750
32.550000	1	0.145375
32.566667	1	0.138125
32.583333	1	0.131250
32.600000	1	0.125750
32.616667	1	0.120875
32.633333	1	0.116125
32.650000	1	0.112875
32.666667	1	0.109500
32.683333	1	0.106625
32.700000	1	0.103875
32.716667	1	0.101500
32.733333	1	0.098875
32.750000	1	0.096750
32.766667	1	0.094750
32.783333	1	0.092750
32.800000	1	0.090875
32.816667	1	0.089375
32.833333	1	0.087375
32.850000	1	0.085750
32.866667	1	0.084125
32.883333	1	0.083250
32.900000	1	0.081375
32.916667	1	0.079625
32.933333	1	0.078250
32.950000	1	0.076500
32.966667	1	0.074500
32.983333	1	0.072875
33.000000	1	0.071375
33.016667	1	0.069875
33.033333	1	0.069250
33.050000	1	0.067625
33.066667	1	0.066750
33.083333	1	0.065250
33.100000	1	0.064000
33.116667	1	0.062375
33.133333	1	0.061875
33.150000	1	0.061375
33.166667	1	0.060875
33.183333	1	0.061000
33.200000	1	0.060125
33.216667	1	0.059875
33.233333	1	0.059750
33.250000	1	0.058875
33.266667	1	0.058875
33.283333	1	0.058500
33.300000	1	0.058375
33.316667	1	0.058750
33.333333	1	0.058875
33.350000	1	0.059500
33.366667	1	0.059250
33.383333	1	0.059750
33.400000	1	0.060125
33.416667	1	0.060625
33.433333	1	0.061125
33.450000	1	0.062000
33.466667	1	0.062250
33.483333	1	0.063500
33.500000	1	0.063375
33.516667	1	0.063500
33.533333	1	0.064000
33.550000	1	0.064375
33.566667	1	0.065125
33.583333	1	0.066125
33.600000	1	0.067250
33.616667	1	0.068500
33.633333	1	0.070000
33.650000	1	0.071375
33.666667	1	0.072750
33.683333	1	0.073875
33.700000	1	0.075750
33.716667	1	0.077625
33.733333	1	0.079250
33.750000	1	0.081750
33.766667	1	0.084250
33.783333	1	0.085875
33.800000	1	0.087875
33.816667	1	0.090250
33.833333	1	0.092500
33.850000	1	0.094625
33.866667	1	0.097125
33.883333	1	0.099500
33.900000	1	0.102125
33.916667	1	0.104250
33.933333	1	0.106250
33.950000	1	0.108375
33.966667	1	0.110625
33.983333	1	0.112750
34.000000	1	0.115375
34.016667	1	0.116250
34.033333	1	0.117125
34.050000	1	0.118375
34.066667	1	0.118750
34.083333	1	0.119500
34.100000	1	0.120500
34.116667	1	0.120625
34.133333	1	0.120500
34.150000	1	0.120500
34.166667	1	0.120875
34.183333	1	0.120875
34.200000	1	0.121750
34.216667	1	0.121875
34.233333	1	0.121875
34.250000	1	0.121125
34.266667	1	0.120375
34.283333	1	0.119625
34.300000	1	0.119125
34.316667	1	0.119125
34.333333	1	0.118500
34.350000	1	0.118125
34.366667	1	0.117250
34.383333	1	0.117000
34.400000	1	0.116750
34.416667	1	0.116125
34.433333	1	0.116000
34.450000	1	0.115250
34.466667	1	0.114875
34.483333	1	0.114625
34.500000	1	0.114125
34.516667	1	0.113500
34.533333	1	0.112750
34.550000	1	0.113125
34.566667	1	0.113250
34.583333	1	0.112500
34.600000	1	0.112500
34.616667	1	0.112625
34.633333	1	0.112750
34.650000	1	0.113500
34.666667	1	0.113750
34.683333	1	0.114250
34.700000	1	0.114750
34.716667	1	0.114875
34.733333	1	0.115250
34.750000	1	0.115750
34.766667	1	0.116750
34.783333	1	0.116875
34.800000	1	0.117125
34.816667	1	0.116875
34.833333	1	0.116625
34.850000	1	0.116500
34.866667	1	0.115750
34.883333	1	0.114625
34.900000	1	0.114125
34.916667	1	0.114000
34.933333	1	0.114625
34.950000	1	0.113375
34.966667	1	0.113000
34.983333	1	0.112250
35.000000	1	0.111625
35.016667	1	0.110625
35.033333	1	0.109125
35.050000	1	0.108500
35.066667	1	0.108125
35.083333	1	0.107250
35.100000	1	0.107125
35.116667	1	0.107000
35.133333	1	0.106875
35.150000	1	0.106625
35.166667	1	0.107125
35.183333	1	0.107500
35.200000	1	0.108125
35.216667	1	0.109250
35.233333	1	0.110000
35.250000	1	0.111500
35.266667	1	0.113000
35.283333	1	0.114500
35.300000	1	0.116250
35.316667	1	0.118375
35.333333	1	0.121000
35.350000	1	0.122875
35.366667	1	0.125625
35.383333	1	0.127875
35.400000	1	0.129875
35.416667	1	0.133125
35.433333	1	0.135125
35.450000	1	0.137375
35.466667	1	0.139500
35.483333	1	0.141500
35.500000	1	0.143500
35.516667	1	0.145875
35.533333	1	0.147625
35.550000	1	0.149625
35.566667	1	0.151750
35.583333	1	0.153125
35.600000	1	0.153875
35.616667	1	0.154625
35.633333	1	0.155375
35.650000	1	0.155750
35.666667	1	0.155375
35.683333	1	0.155125
35.700000	1	0.154750
35.716667	1	0.153125
35.733333	1	0.153125
35.750000	1	0.152375
35.766667	1	0.152000
35.783333	1	0.150375
35.800000	1	0.149375
35.816667	1	0.149125
35.833333	1	0.148250
35.850000	1	0.146875
35.866667	1	0.145875
35.883333	1	0.144625
35.900000	1	0.143750
35.916667	1	0.142875
35.933333	1	0.142000
35.950000	1	0.141375
35.966667	1	0.140750
35.983333	1	0.140500
36.000000	1	0.140250
36.016667	1	0.140375
36.033333	1	0.139625
36.050000	1	0.139125
36.066667	1	0.138625
36.083333	1	0.139500
36.100000	1	0.140000
36.116667	1	0.140250
36.133333	1	0.140125
36.150000	1	0.140125
36.166667	1	0.140875
36.183333	1	0.141500
36.200000	1	0.142000
36.216667	1	0.143125
36.233333	1	0.143250
36.250000	1	0.143500
36.266667	1	0.144375
36.283333	1	0.145500
36.300000	1	0.146500
36.316667	1	0.147500
36.333333	1	0.148250
36.350000	1	0.149375
36.366667	1	0.150000
36.383333	1	0.150000
36.400000	1	0.151125
36.416667	1	0.152250
36.433333	1	0.153625
36.450000	1	0.154750
36.466667	1	0.155625
36.483333	1	0.156875
36.500000	1	0.158000
36.516667	1	0.158750
36.533333	1	0.159375
36.550000	1	0.159250
36.566667	1	0.159500
36.583333	1	0.159500
36.600000	1	0.159375
36.616667	1	0.158875
36.633333	1	0.158750
36.650000	1	0.157375
36.666667	1	0.156375
36.683333	1	0.155375
36.700000	1	0.154000
36.716667	1	0.152500
36.733333	1	0.150625
36.750000	1	0.148625
36.766667	1	0.147125
36.783333	1	0.144875
36.800000	1	0.142125
36.816667	1	0.140000
36.833333	1	0.138125
36.850000	1	0.135500
36.866667	1	0.132500
36.883333	1	0.129500
36.900000	1	0.126500
36.916667	1	0.124125
36.933333	1	0.121250
36.950000	1	0.118750
36.966667	1	0.116125
36.983333	1	0.113250
37.000000	1	0.110750
37.016667	1	0.108000
37.033333	1	0.105375
37.050000	1	0.102625
37.066667	1	0.099750
37.083333	1	0.098250
37.100000	1	0.096875
37.116667	1	0.095125
37.133333	1	0.093000
37.150000	1	0.092125
37.166667	1	0.090875
37.183333	1	0.089625
37.200000	1	0.089000
37.216667	1	0.088000
37.233333	1	0.087125
37.250000	1	0.087000
37.266667	1	0.086875
37.283333	1	0.086375
37.300000	1	0.086875
37.316667	1	0.087750
37.333333	1	0.087750
37.350000	1	0.088625
37.366667	1	0.089750
37.383333	1	0.091125
37.400000	1	0.092500
37.416667	1	0.094000
37.433333	1	0.095000
37.450000	1	0.096750
37.466667	1	0.098500
37.483333	1	0.100875
37.500000	1	0.102500
37.516667	1	0.103750
37.533333	1	0.104750
37.550000	1	0.105750
37.566667	1	0.106625
37.583333	1	0.107500
37.600000	1	0.108000
37.616667	1	0.108250
37.633333	1	0.109000
37.650000	1	0.109500
37.666667	1	0.109875
37.683333	1	0.109875
37.700000	1	0.109125
37.716667	1	0.108000
37.733333	1	0.107750
37.750000	1	0.106750
37.766667	1	0.105625
37.783333	1	0.104125
37.800000	1	0.102500
37.816667	1	0.101375
37.833333	1	0.100125
37.850000	1	0.099500
37.866667	1	0.098375
37.883333	1	0.096875
37.900000	1	0.095875
37.916667	1	0.094375
37.933333	1	0.093500
37.950000	1	0.092375
37.966667	1	0.091500
37.983333	1	0.090625
38.000000	1	0.090000
38.016667	1	0.089000
38.033333	1	0.088625
38.050000	1	0.087625
38.066667	1	0.087250
38.083333	1	0.087000
38.100000	1	0.087625
38.116667	1	0.088375
38.133333	1	0.088750
38.150000	1	0.089375
38.166667	1	0.090125
38.183333	1	0.090375
38.200000	1	0.090375
38.216667	1	0.091000
38.233333	1	0.091750
38.250000	1	0.092375
38.266667	1	0.093125
38.283333	1	0.093375
38.300000	1	0.093875
38.316667	1	0.093875
38.333333	1	0.094750
38.350000	1	0.096000
38.366667	1	0.097000
38.383333	1	0.097875
38.400000	1	0.099000
38.416667	1	0.100000
38.433333	1	0.101375
38.450000	1	0.103000
38.466667	1	0.104750
38.483333	1	0.105750
38.500000	1	0.107125
38.516667	1	0.109000
38.533333	1	0.110750
38.550000	1	0.112250
38.566667	1	0.113500
38.583333	1	0.115500
38.600000	1	0.116875
38.616667	1	0.117875
38.633333	1	0.119500
38.650000	1	0.121500
38.666667	1	0.123500
38.683333	1	0.124375
38.700000	1	0.125625
38.716667	1	0.127250
38.733333	1	0.128750
38.750000	1	0.129875
38.766667	1	0.130875
38.783333	1	0.131625
38.800000	1	0.132500
38.816667	1	0.132250
38.833333	1	0.133000
38.850000	1	0.133375
38.866667	1	0.133750
38.883333	1	0.133375
38.900000	1	0.133125
38.916667	1	0.132375
38.933333	1	0.131750
38.950000	1	0.131375
38.966667	1	0.130375
38.983333	1	0.129250
39.000000	1	0.128500
39.016667	1	0.128375
39.033333	1	0.127250
39.050000	1	0.126000
39.066667	1	0.125500
39.083333	1	0.124875
39.100000	1	0.123750
39.116667	1	0.123250
39.133333	1	0.122375
39.150000	1	0.121750
39.166667	1	0.120500
39.183333	1	0.119875
39.200000	1	0.118250
39.216667	1	0.117500
39.233333	1	0.116625
39.250000	1	0.116000
39.266667	1	0.115375
39.283333	1	0.114250
39.300000	1	0.113000
39.316667	1	0.112500
39.333333	1	0.112000
39.350000	1	0.110250
39.366667	1	0.109125
39.383333	1	0.107875
39.400000	1	0.106750
39.416667	1	0.105500
39.433333	1	0.104375
39.450000	1	0.103500
39.466667	1	0.102125
39.483333	1	0.101125
39.500000	1	0.100000
39.516667	1	0.098500
39.533333	1	0.097250
39.550000	1	0.095500
39.566667	1	0.094125
39.583333	1	0.092750
39.600000	1	0.091625
39.616667	1	0.089875
39.633333	1	0.089000
39.650000	1	0.088250
39.666667	1	0.088250
39.683333	1	0.088000
39.700000	1	0.088000
39.716667	1	0.087625
39.733333	1	0.087125
39.750000	1	0.087125
39.766667	1	0.086875
39.783333	1	0.087000
39.800000	1	0.087500
39.816667	1	0.088125
39.833333	1	0.088750
39.850000	1	0.090000
39.866667	1	0.090875
39.883333	1	0.091875
39.900000	1	0.092500
39.916667	1	0.094000
39.933333	1	0.095375
39.950000	1	0.097125
39.966667	1	0.098500
39.983333	1	0.100125
40.000000	1	0.101250
