URL	chrom://bioreactor/micro_cm7/HPLC_Ultimate_3000/Users/markusar/20240708_MA_pHrange1.seq/553.smp/RI_1.channel/RI_1.chm
Channel	RI_1

Injection Information:
Data Vault	micro_cm7
Sequence	20240708_MA_pHrange1
Name	Pv2_20H_4
Number	40
Position	BD4
Comment	
Processing Method	
Instrument Method	run_25B_method
Type	Unknown
Status	Finished
Inject Time	09.07.2024 18:12:26 +02:00
Volume (µl)	20.0000
Dilution Factor	1.0000
Weight	1.0000

Chromatogram Data Information:
Time Min. (min)	0.000000
Time Max. (min)	40.000000
Data Points	2401
Detector	RI
Generating Data System	Chromeleon 7.3.2.11814
Exporting Data System	Chromeleon 7.3.2.0
Operator	Instrument Controller
Signal Quantity	Refractive 
Signal Unit	µRIU
Signal Min.	-0.144500
Signal Max.	83.260875
Channel	RI_1
Driver Name	RID520Driver.dll
Channel Type	Evaluation
Min. Step (s)	1
Max. Step (s)	1
Average Step (s)	1

Signal Parameter Information:
Signal Info	

Chromatogram Data:
Time (min)	Step (s)	Value (µRIU)
0.000000	n.a.	-0.025250
0.016667	1	-0.025625
0.033333	1	-0.025625
0.050000	1	-0.025375
0.066667	1	-0.025000
0.083333	1	-0.024625
0.100000	1	-0.024375
0.116667	1	-0.024250
0.133333	1	-0.024250
0.150000	1	-0.023625
0.166667	1	-0.022750
0.183333	1	-0.022250
0.200000	1	-0.021875
0.216667	1	-0.021250
0.233333	1	-0.022125
0.250000	1	-0.022000
0.266667	1	-0.022125
0.283333	1	-0.022250
0.300000	1	-0.022250
0.316667	1	-0.022375
0.333333	1	-0.022375
0.350000	1	-0.022875
0.366667	1	-0.023250
0.383333	1	-0.024625
0.400000	1	-0.024750
0.416667	1	-0.024625
0.433333	1	-0.023250
0.450000	1	-0.021875
0.466667	1	-0.019750
0.483333	1	-0.018625
0.500000	1	-0.017000
0.516667	1	-0.015750
0.533333	1	-0.014750
0.550000	1	-0.014125
0.566667	1	-0.014500
0.583333	1	-0.014625
0.600000	1	-0.014250
0.616667	1	-0.014250
0.633333	1	-0.013875
0.650000	1	-0.012125
0.666667	1	-0.010000
0.683333	1	-0.008125
0.700000	1	-0.005750
0.716667	1	-0.002875
0.733333	1	0.000000
0.750000	1	0.002625
0.766667	1	0.005500
0.783333	1	0.008250
0.800000	1	0.011000
0.816667	1	0.014250
0.833333	1	0.017500
0.850000	1	0.020125
0.866667	1	0.022375
0.883333	1	0.025125
0.900000	1	0.028500
0.916667	1	0.030375
0.933333	1	0.032500
0.950000	1	0.035625
0.966667	1	0.038125
0.983333	1	0.040375
1.000000	1	0.041875
1.016667	1	0.043250
1.033333	1	0.045125
1.050000	1	0.047000
1.066667	1	0.048625
1.083333	1	0.049750
1.100000	1	0.051000
1.116667	1	0.052125
1.133333	1	0.053750
1.150000	1	0.054000
1.166667	1	0.054500
1.183333	1	0.054875
1.200000	1	0.055750
1.216667	1	0.056000
1.233333	1	0.056625
1.250000	1	0.056625
1.266667	1	0.056500
1.283333	1	0.056125
1.300000	1	0.055750
1.316667	1	0.055500
1.333333	1	0.055375
1.350000	1	0.055250
1.366667	1	0.055000
1.383333	1	0.054250
1.400000	1	0.053125
1.416667	1	0.051750
1.433333	1	0.050625
1.450000	1	0.049250
1.466667	1	0.047875
1.483333	1	0.046750
1.500000	1	0.044375
1.516667	1	0.042625
1.533333	1	0.040750
1.550000	1	0.039250
1.566667	1	0.036375
1.583333	1	0.034500
1.600000	1	0.032000
1.616667	1	0.029625
1.633333	1	0.026625
1.650000	1	0.023625
1.666667	1	0.020000
1.683333	1	0.017250
1.700000	1	0.014625
1.716667	1	0.011625
1.733333	1	0.008750
1.750000	1	0.004750
1.766667	1	0.001750
1.783333	1	-0.001000
1.800000	1	-0.004000
1.816667	1	-0.006625
1.833333	1	-0.009625
1.850000	1	-0.012625
1.866667	1	-0.015125
1.883333	1	-0.017750
1.900000	1	-0.020125
1.916667	1	-0.022625
1.933333	1	-0.024375
1.950000	1	-0.026250
1.966667	1	-0.028875
1.983333	1	-0.030125
2.000000	1	-0.032500
2.016667	1	-0.034000
2.033333	1	-0.034750
2.050000	1	-0.035375
2.066667	1	-0.036125
2.083333	1	-0.036875
2.100000	1	-0.037250
2.116667	1	-0.037250
2.133333	1	-0.038125
2.150000	1	-0.038125
2.166667	1	-0.038000
2.183333	1	-0.038000
2.200000	1	-0.038125
2.216667	1	-0.037750
2.233333	1	-0.037625
2.250000	1	-0.036625
2.266667	1	-0.035500
2.283333	1	-0.034500
2.300000	1	-0.033750
2.316667	1	-0.032375
2.333333	1	-0.031875
2.350000	1	-0.031125
2.366667	1	-0.029875
2.383333	1	-0.028625
2.400000	1	-0.027000
2.416667	1	-0.026250
2.433333	1	-0.025875
2.450000	1	-0.025000
2.466667	1	-0.023250
2.483333	1	-0.021250
2.500000	1	-0.019500
2.516667	1	-0.018500
2.533333	1	-0.017125
2.550000	1	-0.015750
2.566667	1	-0.014750
2.583333	1	-0.013750
2.600000	1	-0.012125
2.616667	1	-0.010000
2.633333	1	-0.008875
2.650000	1	-0.007500
2.666667	1	-0.006500
2.683333	1	-0.005375
2.700000	1	-0.003625
2.716667	1	-0.002125
2.733333	1	-0.000750
2.750000	1	0.000000
2.766667	1	0.001000
2.783333	1	0.002375
2.800000	1	0.003000
2.816667	1	0.003250
2.833333	1	0.004375
2.850000	1	0.004375
2.866667	1	0.005000
2.883333	1	0.006125
2.900000	1	0.006250
2.916667	1	0.006375
2.933333	1	0.006125
2.950000	1	0.007000
2.966667	1	0.007250
2.983333	1	0.007625
3.000000	1	0.007625
3.016667	1	0.007875
3.033333	1	0.007500
3.050000	1	0.007625
3.066667	1	0.007625
3.083333	1	0.007750
3.100000	1	0.008125
3.116667	1	0.007750
3.133333	1	0.008000
3.150000	1	0.008375
3.166667	1	0.008500
3.183333	1	0.008500
3.200000	1	0.008750
3.216667	1	0.009750
3.233333	1	0.010000
3.250000	1	0.010375
3.266667	1	0.011125
3.283333	1	0.012000
3.300000	1	0.012625
3.316667	1	0.013500
3.333333	1	0.013625
3.350000	1	0.014750
3.366667	1	0.015500
3.383333	1	0.016000
3.400000	1	0.017500
3.416667	1	0.018000
3.433333	1	0.019250
3.450000	1	0.020250
3.466667	1	0.021875
3.483333	1	0.022250
3.500000	1	0.023000
3.516667	1	0.023875
3.533333	1	0.024875
3.550000	1	0.025625
3.566667	1	0.026625
3.583333	1	0.027875
3.600000	1	0.029375
3.616667	1	0.030375
3.633333	1	0.031125
3.650000	1	0.032375
3.666667	1	0.033625
3.683333	1	0.034125
3.700000	1	0.034375
3.716667	1	0.034625
3.733333	1	0.035000
3.750000	1	0.035250
3.766667	1	0.036875
3.783333	1	0.037625
3.800000	1	0.038125
3.816667	1	0.038750
3.833333	1	0.039250
3.850000	1	0.040250
3.866667	1	0.040250
3.883333	1	0.041375
3.900000	1	0.042750
3.916667	1	0.043250
3.933333	1	0.044125
3.950000	1	0.045000
3.966667	1	0.046250
3.983333	1	0.047750
4.000000	1	0.048625
4.016667	1	0.049625
4.033333	1	0.050125
4.050000	1	0.051000
4.066667	1	0.052500
4.083333	1	0.052875
4.100000	1	0.054250
4.116667	1	0.055375
4.133333	1	0.056500
4.150000	1	0.057500
4.166667	1	0.059000
4.183333	1	0.060125
4.200000	1	0.061375
4.216667	1	0.062250
4.233333	1	0.063125
4.250000	1	0.064750
4.266667	1	0.066375
4.283333	1	0.067750
4.300000	1	0.068875
4.316667	1	0.069875
4.333333	1	0.071500
4.350000	1	0.073125
4.366667	1	0.074000
4.383333	1	0.075750
4.400000	1	0.077000
4.416667	1	0.078500
4.433333	1	0.080500
4.450000	1	0.082750
4.466667	1	0.083750
4.483333	1	0.084875
4.500000	1	0.087125
4.516667	1	0.088875
4.533333	1	0.090625
4.550000	1	0.092875
4.566667	1	0.095500
4.583333	1	0.097750
4.600000	1	0.099125
4.616667	1	0.101125
4.633333	1	0.102625
4.650000	1	0.104500
4.666667	1	0.106750
4.683333	1	0.109250
4.700000	1	0.111750
4.716667	1	0.114750
4.733333	1	0.117375
4.750000	1	0.120500
4.766667	1	0.123625
4.783333	1	0.126500
4.800000	1	0.129875
4.816667	1	0.132875
4.833333	1	0.135125
4.850000	1	0.138000
4.866667	1	0.141250
4.883333	1	0.144250
4.900000	1	0.147875
4.916667	1	0.151250
4.933333	1	0.154625
4.950000	1	0.158625
4.966667	1	0.161750
4.983333	1	0.164625
5.000000	1	0.167125
5.016667	1	0.169750
5.033333	1	0.172750
5.050000	1	0.175625
5.066667	1	0.178125
5.083333	1	0.181125
5.100000	1	0.184000
5.116667	1	0.186500
5.133333	1	0.188625
5.150000	1	0.191000
5.166667	1	0.192625
5.183333	1	0.194250
5.200000	1	0.196625
5.216667	1	0.198750
5.233333	1	0.200375
5.250000	1	0.200750
5.266667	1	0.201625
5.283333	1	0.202375
5.300000	1	0.203750
5.316667	1	0.203875
5.333333	1	0.204625
5.350000	1	0.205500
5.366667	1	0.206125
5.383333	1	0.207125
5.400000	1	0.207750
5.416667	1	0.208000
5.433333	1	0.208000
5.450000	1	0.208375
5.466667	1	0.208250
5.483333	1	0.208250
5.500000	1	0.207875
5.516667	1	0.207125
5.533333	1	0.206125
5.550000	1	0.205125
5.566667	1	0.204375
5.583333	1	0.203750
5.600000	1	0.203375
5.616667	1	0.202500
5.633333	1	0.202250
5.650000	1	0.201250
5.666667	1	0.200125
5.683333	1	0.198125
5.700000	1	0.196250
5.716667	1	0.194875
5.733333	1	0.193375
5.750000	1	0.192125
5.766667	1	0.190500
5.783333	1	0.189625
5.800000	1	0.187875
5.816667	1	0.185875
5.833333	1	0.184625
5.850000	1	0.182250
5.866667	1	0.180625
5.883333	1	0.178750
5.900000	1	0.176500
5.916667	1	0.174375
5.933333	1	0.172500
5.950000	1	0.170625
5.966667	1	0.168625
5.983333	1	0.166750
6.000000	1	0.164750
6.016667	1	0.162500
6.033333	1	0.160500
6.050000	1	0.158000
6.066667	1	0.156000
6.083333	1	0.153375
6.100000	1	0.151125
6.116667	1	0.148250
6.133333	1	0.146625
6.150000	1	0.143875
6.166667	1	0.142125
6.183333	1	0.140125
6.200000	1	0.137750
6.216667	1	0.136250
6.233333	1	0.134000
6.250000	1	0.131750
6.266667	1	0.130000
6.283333	1	0.127250
6.300000	1	0.124750
6.316667	1	0.122750
6.333333	1	0.121375
6.350000	1	0.119500
6.366667	1	0.117250
6.383333	1	0.115625
6.400000	1	0.113750
6.416667	1	0.112250
6.433333	1	0.110250
6.450000	1	0.108750
6.466667	1	0.107125
6.483333	1	0.105625
6.500000	1	0.104000
6.516667	1	0.102750
6.533333	1	0.101500
6.550000	1	0.100250
6.566667	1	0.098500
6.583333	1	0.096875
6.600000	1	0.096125
6.616667	1	0.094875
6.633333	1	0.093375
6.650000	1	0.092375
6.666667	1	0.091000
6.683333	1	0.089750
6.700000	1	0.088000
6.716667	1	0.086750
6.733333	1	0.085125
6.750000	1	0.083625
6.766667	1	0.082000
6.783333	1	0.081000
6.800000	1	0.079250
6.816667	1	0.077125
6.833333	1	0.075500
6.850000	1	0.073625
6.866667	1	0.073375
6.883333	1	0.072250
6.900000	1	0.071500
6.916667	1	0.070750
6.933333	1	0.070375
6.950000	1	0.070125
6.966667	1	0.069500
6.983333	1	0.069750
7.000000	1	0.069750
7.016667	1	0.070500
7.033333	1	0.070875
7.050000	1	0.072625
7.066667	1	0.073750
7.083333	1	0.075125
7.100000	1	0.076875
7.116667	1	0.079000
7.133333	1	0.081500
7.150000	1	0.083625
7.166667	1	0.086500
7.183333	1	0.089500
7.200000	1	0.092000
7.216667	1	0.095625
7.233333	1	0.098000
7.250000	1	0.101375
7.266667	1	0.104750
7.283333	1	0.108000
7.300000	1	0.111250
7.316667	1	0.113875
7.333333	1	0.117125
7.350000	1	0.120500
7.366667	1	0.123500
7.383333	1	0.126375
7.400000	1	0.129375
7.416667	1	0.131625
7.433333	1	0.133875
7.450000	1	0.135500
7.466667	1	0.136625
7.483333	1	0.137250
7.500000	1	0.137750
7.516667	1	0.138750
7.533333	1	0.140250
7.550000	1	0.140375
7.566667	1	0.140500
7.583333	1	0.140125
7.600000	1	0.139625
7.616667	1	0.138625
7.633333	1	0.137375
7.650000	1	0.135875
7.666667	1	0.134250
7.683333	1	0.131875
7.700000	1	0.129875
7.716667	1	0.127125
7.733333	1	0.124125
7.750000	1	0.121250
7.766667	1	0.118375
7.783333	1	0.115500
7.800000	1	0.111875
7.816667	1	0.109375
7.833333	1	0.106625
7.850000	1	0.103000
7.866667	1	0.100000
7.883333	1	0.096500
7.900000	1	0.092875
7.916667	1	0.089500
7.933333	1	0.086250
7.950000	1	0.083125
7.966667	1	0.079875
7.983333	1	0.076375
8.000000	1	0.072875
8.016667	1	0.069375
8.033333	1	0.066500
8.050000	1	0.064000
8.066667	1	0.061125
8.083333	1	0.058250
8.100000	1	0.056000
8.116667	1	0.054000
8.133333	1	0.052000
8.150000	1	0.049750
8.166667	1	0.047750
8.183333	1	0.046250
8.200000	1	0.043500
8.216667	1	0.041000
8.233333	1	0.038875
8.250000	1	0.037500
8.266667	1	0.035500
8.283333	1	0.032875
8.300000	1	0.030875
8.316667	1	0.029250
8.333333	1	0.027625
8.350000	1	0.025875
8.366667	1	0.024625
8.383333	1	0.022750
8.400000	1	0.021375
8.416667	1	0.019125
8.433333	1	0.017250
8.450000	1	0.015875
8.466667	1	0.014500
8.483333	1	0.013000
8.500000	1	0.011625
8.516667	1	0.010500
8.533333	1	0.009375
8.550000	1	0.008500
8.566667	1	0.007500
8.583333	1	0.007125
8.600000	1	0.006625
8.616667	1	0.005750
8.633333	1	0.004875
8.650000	1	0.005000
8.666667	1	0.004750
8.683333	1	0.005125
8.700000	1	0.005375
8.716667	1	0.005750
8.733333	1	0.006500
8.750000	1	0.007000
8.766667	1	0.007500
8.783333	1	0.007750
8.800000	1	0.008500
8.816667	1	0.009250
8.833333	1	0.010375
8.850000	1	0.011250
8.866667	1	0.012000
8.883333	1	0.013625
8.900000	1	0.014250
8.916667	1	0.015125
8.933333	1	0.015125
8.950000	1	0.015625
8.966667	1	0.015875
8.983333	1	0.016125
9.000000	1	0.016500
9.016667	1	0.015875
9.033333	1	0.015500
9.050000	1	0.015000
9.066667	1	0.014000
9.083333	1	0.013750
9.100000	1	0.013500
9.116667	1	0.012625
9.133333	1	0.011625
9.150000	1	0.010375
9.166667	1	0.008250
9.183333	1	0.006000
9.200000	1	0.004250
9.216667	1	0.002000
9.233333	1	-0.000625
9.250000	1	-0.002875
9.266667	1	-0.005375
9.283333	1	-0.008375
9.300000	1	-0.010750
9.316667	1	-0.014125
9.333333	1	-0.017000
9.350000	1	-0.019500
9.366667	1	-0.023000
9.383333	1	-0.025000
9.400000	1	-0.028000
9.416667	1	-0.030125
9.433333	1	-0.033875
9.450000	1	-0.036000
9.466667	1	-0.038125
9.483333	1	-0.039250
9.500000	1	-0.039375
9.516667	1	-0.039500
9.533333	1	-0.040500
9.550000	1	-0.041000
9.566667	1	-0.041250
9.583333	1	-0.040250
9.600000	1	-0.039250
9.616667	1	-0.038125
9.633333	1	-0.036500
9.650000	1	-0.034750
9.666667	1	-0.033000
9.683333	1	-0.031375
9.700000	1	-0.028375
9.716667	1	-0.025500
9.733333	1	-0.023000
9.750000	1	-0.019875
9.766667	1	-0.016875
9.783333	1	-0.013625
9.800000	1	-0.011125
9.816667	1	-0.008750
9.833333	1	-0.005750
9.850000	1	-0.002750
9.866667	1	0.000000
9.883333	1	0.002625
9.900000	1	0.004500
9.916667	1	0.005625
9.933333	1	0.007125
9.950000	1	0.008375
9.966667	1	0.008750
9.983333	1	0.009000
10.000000	1	0.008875
10.016667	1	0.007750
10.033333	1	0.006875
10.050000	1	0.005750
10.066667	1	0.004750
10.083333	1	0.003875
10.100000	1	0.002625
10.116667	1	0.003000
10.133333	1	0.003125
10.150000	1	0.005250
10.166667	1	0.008250
10.183333	1	0.012250
10.200000	1	0.017500
10.216667	1	0.024625
10.233333	1	0.033250
10.250000	1	0.044750
10.266667	1	0.057625
10.283333	1	0.072250
10.300000	1	0.089500
10.316667	1	0.108625
10.333333	1	0.129875
10.350000	1	0.151000
10.366667	1	0.170875
10.383333	1	0.186625
10.400000	1	0.194625
10.416667	1	0.189375
10.433333	1	0.166500
10.450000	1	0.121625
10.466667	1	0.056125
10.483333	1	-0.023875
10.500000	1	-0.101125
10.516667	1	-0.144500
10.533333	1	-0.106625
10.550000	1	0.076125
10.566667	1	0.478750
10.583333	1	1.183250
10.600000	1	2.267125
10.616667	1	3.801125
10.633333	1	5.839750
10.650000	1	8.421875
10.666667	1	11.574125
10.683333	1	15.308500
10.700000	1	19.627625
10.716667	1	24.520250
10.733333	1	29.960750
10.750000	1	35.908000
10.766667	1	42.296750
10.783333	1	49.036000
10.800000	1	55.986500
10.816667	1	62.929125
10.833333	1	69.522000
10.850000	1	75.278500
10.866667	1	79.569125
10.883333	1	81.687625
10.900000	1	81.047000
10.916667	1	77.424250
10.933333	1	71.120625
10.950000	1	62.902750
10.966667	1	53.767375
10.983333	1	44.654875
11.000000	1	36.246750
11.016667	1	28.921500
11.033333	1	22.807375
11.050000	1	17.861500
11.066667	1	13.954250
11.083333	1	10.923875
11.100000	1	8.606125
11.116667	1	6.852375
11.133333	1	5.531000
11.150000	1	4.537375
11.166667	1	3.790500
11.183333	1	3.224750
11.200000	1	2.793500
11.216667	1	2.460500
11.233333	1	2.200625
11.250000	1	1.995375
11.266667	1	1.828750
11.283333	1	1.693500
11.300000	1	1.580875
11.316667	1	1.485750
11.333333	1	1.405250
11.350000	1	1.336125
11.366667	1	1.276000
11.383333	1	1.225000
11.400000	1	1.180500
11.416667	1	1.140125
11.433333	1	1.106375
11.450000	1	1.077375
11.466667	1	1.052000
11.483333	1	1.030000
11.500000	1	1.010500
11.516667	1	0.994375
11.533333	1	0.980250
11.550000	1	0.967250
11.566667	1	0.957375
11.583333	1	0.948125
11.600000	1	0.941125
11.616667	1	0.935875
11.633333	1	0.931625
11.650000	1	0.929250
11.666667	1	0.927750
11.683333	1	0.928500
11.700000	1	0.930500
11.716667	1	0.934125
11.733333	1	0.938875
11.750000	1	0.944875
11.766667	1	0.953375
11.783333	1	0.962375
11.800000	1	0.972000
11.816667	1	0.982000
11.833333	1	0.991750
11.850000	1	1.001750
11.866667	1	1.010625
11.883333	1	1.018625
11.900000	1	1.026375
11.916667	1	1.033250
11.933333	1	1.038000
11.950000	1	1.043000
11.966667	1	1.046625
11.983333	1	1.049625
12.000000	1	1.051875
12.016667	1	1.054125
12.033333	1	1.056250
12.050000	1	1.058625
12.066667	1	1.061500
12.083333	1	1.064500
12.100000	1	1.067125
12.116667	1	1.071000
12.133333	1	1.075375
12.150000	1	1.080125
12.166667	1	1.084750
12.183333	1	1.090125
12.200000	1	1.097000
12.216667	1	1.104750
12.233333	1	1.114250
12.250000	1	1.125500
12.266667	1	1.139625
12.283333	1	1.157125
12.300000	1	1.178625
12.316667	1	1.206500
12.333333	1	1.242125
12.350000	1	1.288500
12.366667	1	1.348375
12.383333	1	1.425750
12.400000	1	1.524875
12.416667	1	1.650750
12.433333	1	1.808125
12.450000	1	2.003500
12.466667	1	2.242500
12.483333	1	2.530750
12.500000	1	2.873750
12.516667	1	3.274625
12.533333	1	3.735750
12.550000	1	4.257500
12.566667	1	4.837500
12.583333	1	5.468750
12.600000	1	6.143375
12.616667	1	6.848625
12.633333	1	7.570500
12.650000	1	8.295125
12.666667	1	9.008125
12.683333	1	9.696250
12.700000	1	10.349625
12.716667	1	10.963250
12.733333	1	11.535000
12.750000	1	12.069000
12.766667	1	12.571750
12.783333	1	13.054000
12.800000	1	13.525500
12.816667	1	13.997375
12.833333	1	14.480000
12.850000	1	14.982250
12.866667	1	15.510625
12.883333	1	16.069000
12.900000	1	16.661250
12.916667	1	17.287625
12.933333	1	17.946375
12.950000	1	18.638250
12.966667	1	19.359375
12.983333	1	20.108875
13.000000	1	20.885375
13.016667	1	21.685500
13.033333	1	22.509125
13.050000	1	23.355625
13.066667	1	24.225375
13.083333	1	25.115625
13.100000	1	26.027375
13.116667	1	26.959625
13.133333	1	27.912250
13.150000	1	28.883375
13.166667	1	29.874000
13.183333	1	30.883500
13.200000	1	31.910125
13.216667	1	32.955250
13.233333	1	34.018250
13.250000	1	35.101625
13.266667	1	36.206125
13.283333	1	37.331250
13.300000	1	38.479125
13.316667	1	39.648500
13.333333	1	40.839875
13.350000	1	42.053375
13.366667	1	43.290000
13.383333	1	44.549875
13.400000	1	45.832500
13.416667	1	47.139250
13.433333	1	48.472500
13.450000	1	49.833625
13.466667	1	51.223125
13.483333	1	52.642500
13.500000	1	54.091875
13.516667	1	55.570750
13.533333	1	57.078625
13.550000	1	58.617250
13.566667	1	60.186875
13.583333	1	61.787500
13.600000	1	63.418125
13.616667	1	65.082000
13.633333	1	66.780250
13.650000	1	68.515875
13.666667	1	70.289000
13.683333	1	72.100875
13.700000	1	73.952125
13.716667	1	75.837625
13.733333	1	77.743625
13.750000	1	79.615250
13.766667	1	81.322750
13.783333	1	82.637875
13.800000	1	83.260875
13.816667	1	82.867000
13.833333	1	81.152500
13.850000	1	77.855875
13.866667	1	72.818375
13.883333	1	66.096000
13.900000	1	58.068375
13.916667	1	49.418000
13.933333	1	40.918250
13.950000	1	33.193750
13.966667	1	26.593875
13.983333	1	21.198750
14.000000	1	16.915500
14.016667	1	13.576125
14.033333	1	11.008375
14.050000	1	9.058500
14.066667	1	7.595875
14.083333	1	6.509625
14.100000	1	5.708125
14.116667	1	5.116500
14.133333	1	4.676250
14.150000	1	4.344250
14.166667	1	4.089500
14.183333	1	3.889500
14.200000	1	3.729625
14.216667	1	3.598250
14.233333	1	3.487250
14.250000	1	3.392375
14.266667	1	3.309625
14.283333	1	3.235625
14.300000	1	3.169875
14.316667	1	3.111000
14.333333	1	3.057875
14.350000	1	3.010750
14.366667	1	2.968750
14.383333	1	2.932375
14.400000	1	2.903000
14.416667	1	2.880875
14.433333	1	2.868750
14.450000	1	2.869250
14.466667	1	2.886375
14.483333	1	2.925875
14.500000	1	2.995125
14.516667	1	3.107000
14.533333	1	3.276750
14.550000	1	3.526500
14.566667	1	3.884625
14.583333	1	4.388625
14.600000	1	5.082625
14.616667	1	6.025125
14.633333	1	7.280250
14.650000	1	8.919250
14.666667	1	11.013750
14.683333	1	13.628000
14.700000	1	16.810375
14.716667	1	20.584375
14.733333	1	24.942625
14.750000	1	29.837875
14.766667	1	35.167375
14.783333	1	40.772625
14.800000	1	46.461625
14.816667	1	52.006875
14.833333	1	57.160875
14.850000	1	61.672000
14.866667	1	65.304250
14.883333	1	67.866000
14.900000	1	69.226375
14.916667	1	69.329375
14.933333	1	68.192875
14.950000	1	65.910750
14.966667	1	62.640375
14.983333	1	58.584625
15.000000	1	53.965750
15.016667	1	49.005250
15.033333	1	43.914000
15.050000	1	38.878750
15.066667	1	34.052250
15.083333	1	29.547375
15.100000	1	25.442125
15.116667	1	21.774000
15.133333	1	18.550750
15.150000	1	15.760625
15.166667	1	13.376500
15.183333	1	11.360250
15.200000	1	9.670000
15.216667	1	8.263250
15.233333	1	7.098875
15.250000	1	6.140500
15.266667	1	5.355750
15.283333	1	4.716500
15.300000	1	4.199750
15.316667	1	3.784250
15.333333	1	3.452250
15.350000	1	3.189250
15.366667	1	2.984000
15.383333	1	2.825750
15.400000	1	2.707125
15.416667	1	2.619625
15.433333	1	2.557000
15.450000	1	2.514125
15.466667	1	2.485000
15.483333	1	2.464875
15.500000	1	2.450750
15.516667	1	2.438000
15.533333	1	2.425000
15.550000	1	2.407625
15.566667	1	2.386375
15.583333	1	2.359500
15.600000	1	2.327500
15.616667	1	2.291250
15.633333	1	2.252125
15.650000	1	2.211000
15.666667	1	2.170250
15.683333	1	2.129750
15.700000	1	2.091000
15.716667	1	2.053750
15.733333	1	2.018125
15.750000	1	1.984375
15.766667	1	1.951750
15.783333	1	1.920625
15.800000	1	1.889250
15.816667	1	1.857375
15.833333	1	1.825750
15.850000	1	1.793500
15.866667	1	1.762500
15.883333	1	1.731750
15.900000	1	1.703000
15.916667	1	1.676375
15.933333	1	1.651875
15.950000	1	1.630000
15.966667	1	1.612750
15.983333	1	1.598750
16.000000	1	1.588625
16.016667	1	1.580500
16.033333	1	1.575125
16.050000	1	1.572875
16.066667	1	1.571125
16.083333	1	1.570125
16.100000	1	1.568875
16.116667	1	1.566875
16.133333	1	1.563000
16.150000	1	1.557875
16.166667	1	1.550875
16.183333	1	1.541500
16.200000	1	1.530000
16.216667	1	1.517375
16.233333	1	1.503375
16.250000	1	1.488000
16.266667	1	1.470250
16.283333	1	1.452250
16.300000	1	1.434625
16.316667	1	1.416750
16.333333	1	1.398375
16.350000	1	1.380000
16.366667	1	1.363125
16.383333	1	1.347500
16.400000	1	1.332625
16.416667	1	1.320125
16.433333	1	1.308875
16.450000	1	1.300125
16.466667	1	1.294125
16.483333	1	1.290125
16.500000	1	1.288750
16.516667	1	1.290500
16.533333	1	1.294125
16.550000	1	1.299375
16.566667	1	1.305250
16.583333	1	1.312000
16.600000	1	1.317875
16.616667	1	1.323625
16.633333	1	1.329000
16.650000	1	1.333375
16.666667	1	1.335000
16.683333	1	1.335625
16.700000	1	1.336000
16.716667	1	1.335500
16.733333	1	1.333625
16.750000	1	1.331875
16.766667	1	1.330500
16.783333	1	1.329625
16.800000	1	1.329625
16.816667	1	1.330875
16.833333	1	1.333625
16.850000	1	1.336125
16.866667	1	1.339875
16.883333	1	1.343125
16.900000	1	1.345750
16.916667	1	1.348625
16.933333	1	1.350125
16.950000	1	1.350875
16.966667	1	1.349375
16.983333	1	1.346875
17.000000	1	1.343375
17.016667	1	1.338750
17.033333	1	1.333250
17.050000	1	1.326750
17.066667	1	1.320625
17.083333	1	1.314250
17.100000	1	1.308125
17.116667	1	1.301875
17.133333	1	1.296500
17.150000	1	1.292750
17.166667	1	1.289500
17.183333	1	1.287000
17.200000	1	1.285250
17.216667	1	1.284375
17.233333	1	1.285000
17.250000	1	1.285500
17.266667	1	1.286500
17.283333	1	1.288750
17.300000	1	1.291750
17.316667	1	1.294375
17.333333	1	1.297750
17.350000	1	1.301250
17.366667	1	1.304250
17.383333	1	1.308000
17.400000	1	1.311125
17.416667	1	1.314000
17.433333	1	1.315750
17.450000	1	1.316875
17.466667	1	1.316500
17.483333	1	1.315000
17.500000	1	1.311375
17.516667	1	1.306750
17.533333	1	1.300250
17.550000	1	1.292250
17.566667	1	1.282875
17.583333	1	1.272500
17.600000	1	1.260125
17.616667	1	1.245625
17.633333	1	1.230625
17.650000	1	1.215000
17.666667	1	1.198000
17.683333	1	1.181000
17.700000	1	1.164750
17.716667	1	1.147750
17.733333	1	1.131625
17.750000	1	1.115750
17.766667	1	1.100250
17.783333	1	1.085125
17.800000	1	1.070750
17.816667	1	1.056625
17.833333	1	1.043375
17.850000	1	1.030625
17.866667	1	1.018625
17.883333	1	1.006625
17.900000	1	0.995125
17.916667	1	0.984750
17.933333	1	0.974750
17.950000	1	0.964875
17.966667	1	0.955000
17.983333	1	0.945500
18.000000	1	0.936250
18.016667	1	0.926875
18.033333	1	0.917125
18.050000	1	0.907375
18.066667	1	0.898375
18.083333	1	0.888500
18.100000	1	0.879625
18.116667	1	0.871000
18.133333	1	0.862500
18.150000	1	0.855125
18.166667	1	0.848250
18.183333	1	0.842125
18.200000	1	0.836750
18.216667	1	0.832625
18.233333	1	0.829875
18.250000	1	0.827250
18.266667	1	0.825500
18.283333	1	0.825000
18.300000	1	0.824750
18.316667	1	0.825625
18.333333	1	0.827125
18.350000	1	0.828625
18.366667	1	0.829625
18.383333	1	0.831875
18.400000	1	0.834875
18.416667	1	0.839375
18.433333	1	0.844375
18.450000	1	0.850000
18.466667	1	0.857500
18.483333	1	0.866250
18.500000	1	0.876875
18.516667	1	0.888500
18.533333	1	0.903250
18.550000	1	0.920125
18.566667	1	0.938625
18.583333	1	0.959500
18.600000	1	0.981375
18.616667	1	1.006250
18.633333	1	1.032875
18.650000	1	1.060375
18.666667	1	1.091125
18.683333	1	1.123000
18.700000	1	1.157125
18.716667	1	1.192625
18.733333	1	1.229750
18.750000	1	1.267625
18.766667	1	1.305000
18.783333	1	1.343500
18.800000	1	1.381875
18.816667	1	1.418875
18.833333	1	1.453875
18.850000	1	1.486625
18.866667	1	1.516000
18.883333	1	1.541875
18.900000	1	1.563000
18.916667	1	1.578125
18.933333	1	1.586750
18.950000	1	1.588750
18.966667	1	1.584375
18.983333	1	1.572625
19.000000	1	1.553500
19.016667	1	1.528750
19.033333	1	1.496000
19.050000	1	1.459250
19.066667	1	1.418750
19.083333	1	1.374875
19.100000	1	1.330125
19.116667	1	1.286000
19.133333	1	1.243750
19.150000	1	1.205000
19.166667	1	1.172875
19.183333	1	1.148000
19.200000	1	1.133375
19.216667	1	1.130750
19.233333	1	1.142125
19.250000	1	1.169750
19.266667	1	1.216625
19.283333	1	1.283500
19.300000	1	1.372375
19.316667	1	1.485500
19.333333	1	1.623750
19.350000	1	1.787875
19.366667	1	1.976000
19.383333	1	2.187875
19.400000	1	2.421250
19.416667	1	2.671625
19.433333	1	2.932625
19.450000	1	3.199000
19.466667	1	3.463125
19.483333	1	3.717125
19.500000	1	3.952750
19.516667	1	4.163375
19.533333	1	4.340750
19.550000	1	4.479125
19.566667	1	4.573000
19.583333	1	4.620375
19.600000	1	4.620250
19.616667	1	4.572750
19.633333	1	4.480750
19.650000	1	4.348375
19.666667	1	4.180875
19.683333	1	3.985375
19.700000	1	3.768500
19.716667	1	3.537500
19.733333	1	3.298250
19.750000	1	3.057750
19.766667	1	2.820375
19.783333	1	2.589750
19.800000	1	2.370625
19.816667	1	2.164625
19.833333	1	1.973250
19.850000	1	1.798000
19.866667	1	1.639125
19.883333	1	1.496125
19.900000	1	1.369625
19.916667	1	1.256000
19.933333	1	1.156875
19.950000	1	1.070125
19.966667	1	0.994125
19.983333	1	0.928375
20.000000	1	0.872375
20.016667	1	0.824875
20.033333	1	0.785625
20.050000	1	0.753125
20.066667	1	0.727250
20.083333	1	0.707750
20.100000	1	0.694000
20.116667	1	0.685750
20.133333	1	0.681875
20.150000	1	0.682375
20.166667	1	0.686750
20.183333	1	0.694250
20.200000	1	0.703500
20.216667	1	0.715375
20.233333	1	0.728625
20.250000	1	0.742500
20.266667	1	0.755375
20.283333	1	0.768125
20.300000	1	0.778750
20.316667	1	0.786625
20.333333	1	0.792250
20.350000	1	0.795000
20.366667	1	0.793500
20.383333	1	0.789000
20.400000	1	0.781750
20.416667	1	0.771750
20.433333	1	0.758375
20.450000	1	0.743250
20.466667	1	0.727875
20.483333	1	0.712750
20.500000	1	0.697750
20.516667	1	0.684875
20.533333	1	0.674625
20.550000	1	0.668000
20.566667	1	0.666875
20.583333	1	0.671750
20.600000	1	0.682875
20.616667	1	0.701000
20.633333	1	0.726875
20.650000	1	0.762000
20.666667	1	0.805375
20.683333	1	0.857250
20.700000	1	0.916750
20.716667	1	0.984250
20.733333	1	1.058000
20.750000	1	1.136625
20.766667	1	1.219250
20.783333	1	1.302000
20.800000	1	1.383375
20.816667	1	1.460875
20.833333	1	1.531875
20.850000	1	1.593500
20.866667	1	1.643625
20.883333	1	1.680625
20.900000	1	1.703625
20.916667	1	1.712250
20.933333	1	1.704875
20.950000	1	1.682875
20.966667	1	1.648125
20.983333	1	1.601375
21.000000	1	1.544375
21.016667	1	1.479125
21.033333	1	1.408250
21.050000	1	1.334000
21.066667	1	1.257250
21.083333	1	1.181125
21.100000	1	1.107375
21.116667	1	1.036000
21.133333	1	0.968875
21.150000	1	0.906750
21.166667	1	0.849125
21.183333	1	0.796625
21.200000	1	0.749750
21.216667	1	0.707875
21.233333	1	0.670625
21.250000	1	0.638000
21.266667	1	0.609250
21.283333	1	0.584125
21.300000	1	0.562375
21.316667	1	0.543500
21.333333	1	0.527125
21.350000	1	0.513000
21.366667	1	0.501125
21.383333	1	0.490125
21.400000	1	0.480500
21.416667	1	0.473250
21.433333	1	0.465750
21.450000	1	0.459000
21.466667	1	0.453125
21.483333	1	0.447750
21.500000	1	0.443375
21.516667	1	0.439625
21.533333	1	0.437000
21.550000	1	0.435500
21.566667	1	0.434375
21.583333	1	0.433625
21.600000	1	0.433625
21.616667	1	0.435625
21.633333	1	0.438500
21.650000	1	0.442750
21.666667	1	0.448250
21.683333	1	0.454625
21.700000	1	0.462500
21.716667	1	0.472500
21.733333	1	0.483500
21.750000	1	0.496250
21.766667	1	0.510000
21.783333	1	0.524250
21.800000	1	0.541000
21.816667	1	0.558375
21.833333	1	0.576625
21.850000	1	0.594375
21.866667	1	0.611750
21.883333	1	0.628750
21.900000	1	0.646500
21.916667	1	0.663875
21.933333	1	0.680500
21.950000	1	0.695375
21.966667	1	0.709000
21.983333	1	0.721125
22.000000	1	0.731125
22.016667	1	0.738500
22.033333	1	0.745375
22.050000	1	0.749375
22.066667	1	0.752250
22.083333	1	0.752500
22.100000	1	0.751125
22.116667	1	0.748000
22.133333	1	0.743500
22.150000	1	0.737625
22.166667	1	0.730625
22.183333	1	0.721625
22.200000	1	0.711000
22.216667	1	0.699875
22.233333	1	0.687625
22.250000	1	0.674000
22.266667	1	0.659500
22.283333	1	0.644875
22.300000	1	0.629500
22.316667	1	0.613875
22.333333	1	0.597500
22.350000	1	0.580125
22.366667	1	0.563250
22.383333	1	0.545875
22.400000	1	0.529250
22.416667	1	0.513000
22.433333	1	0.497375
22.450000	1	0.481875
22.466667	1	0.466500
22.483333	1	0.452750
22.500000	1	0.438875
22.516667	1	0.426375
22.533333	1	0.415375
22.550000	1	0.404625
22.566667	1	0.395250
22.583333	1	0.385875
22.600000	1	0.377375
22.616667	1	0.369250
22.633333	1	0.361750
22.650000	1	0.355000
22.666667	1	0.349250
22.683333	1	0.344125
22.700000	1	0.338375
22.716667	1	0.334250
22.733333	1	0.329625
22.750000	1	0.325750
22.766667	1	0.322125
22.783333	1	0.319000
22.800000	1	0.315500
22.816667	1	0.313375
22.833333	1	0.311000
22.850000	1	0.309000
22.866667	1	0.307500
22.883333	1	0.305875
22.900000	1	0.304875
22.916667	1	0.304250
22.933333	1	0.303375
22.950000	1	0.303750
22.966667	1	0.304125
22.983333	1	0.304875
23.000000	1	0.305750
23.016667	1	0.307000
23.033333	1	0.308500
23.050000	1	0.311250
23.066667	1	0.313125
23.083333	1	0.316000
23.100000	1	0.318625
23.116667	1	0.321500
23.133333	1	0.324375
23.150000	1	0.327625
23.166667	1	0.330375
23.183333	1	0.333500
23.200000	1	0.336500
23.216667	1	0.340000
23.233333	1	0.344000
23.250000	1	0.348125
23.266667	1	0.352625
23.283333	1	0.358000
23.300000	1	0.364625
23.316667	1	0.372625
23.333333	1	0.382875
23.350000	1	0.395625
23.366667	1	0.412500
23.383333	1	0.432125
23.400000	1	0.458000
23.416667	1	0.489500
23.433333	1	0.527375
23.450000	1	0.574125
23.466667	1	0.632250
23.483333	1	0.702625
23.500000	1	0.786375
23.516667	1	0.885625
23.533333	1	1.002000
23.550000	1	1.136500
23.566667	1	1.290750
23.583333	1	1.465375
23.600000	1	1.660750
23.616667	1	1.877750
23.633333	1	2.114125
23.650000	1	2.368750
23.666667	1	2.639750
23.683333	1	2.923750
23.700000	1	3.217625
23.716667	1	3.516375
23.733333	1	3.814625
23.750000	1	4.105875
23.766667	1	4.384125
23.783333	1	4.643125
23.800000	1	4.877250
23.816667	1	5.080250
23.833333	1	5.247250
23.850000	1	5.374875
23.866667	1	5.460500
23.883333	1	5.502125
23.900000	1	5.499875
23.916667	1	5.454125
23.933333	1	5.367125
23.950000	1	5.241625
23.966667	1	5.082125
23.983333	1	4.892625
24.000000	1	4.679750
24.016667	1	4.447250
24.033333	1	4.200375
24.050000	1	3.945875
24.066667	1	3.687500
24.083333	1	3.428750
24.100000	1	3.174625
24.116667	1	2.927250
24.133333	1	2.689500
24.150000	1	2.463750
24.166667	1	2.251625
24.183333	1	2.053500
24.200000	1	1.870250
24.216667	1	1.701875
24.233333	1	1.547500
24.250000	1	1.407875
24.266667	1	1.282250
24.283333	1	1.169750
24.300000	1	1.068125
24.316667	1	0.978500
24.333333	1	0.899625
24.350000	1	0.830375
24.366667	1	0.769875
24.383333	1	0.718125
24.400000	1	0.673125
24.416667	1	0.634750
24.433333	1	0.602625
24.450000	1	0.575250
24.466667	1	0.552500
24.483333	1	0.534500
24.500000	1	0.519125
24.516667	1	0.507375
24.533333	1	0.497625
24.550000	1	0.489250
24.566667	1	0.482625
24.583333	1	0.477500
24.600000	1	0.473000
24.616667	1	0.468500
24.633333	1	0.465000
24.650000	1	0.461125
24.666667	1	0.457625
24.683333	1	0.453750
24.700000	1	0.448875
24.716667	1	0.444500
24.733333	1	0.440375
24.750000	1	0.435875
24.766667	1	0.430500
24.783333	1	0.425000
24.800000	1	0.420125
24.816667	1	0.414125
24.833333	1	0.408500
24.850000	1	0.402750
24.866667	1	0.397875
24.883333	1	0.393500
24.900000	1	0.388375
24.916667	1	0.384125
24.933333	1	0.379750
24.950000	1	0.375875
24.966667	1	0.371250
24.983333	1	0.366750
25.000000	1	0.363000
25.016667	1	0.359625
25.033333	1	0.356125
25.050000	1	0.353125
25.066667	1	0.350375
25.083333	1	0.347625
25.100000	1	0.345500
25.116667	1	0.343250
25.133333	1	0.340625
25.150000	1	0.338000
25.166667	1	0.336000
25.183333	1	0.333375
25.200000	1	0.331250
25.216667	1	0.328750
25.233333	1	0.326125
25.250000	1	0.324000
25.266667	1	0.322375
25.283333	1	0.320250
25.300000	1	0.318375
25.316667	1	0.316000
25.333333	1	0.313125
25.350000	1	0.311875
25.366667	1	0.310125
25.383333	1	0.308250
25.400000	1	0.306875
25.416667	1	0.305125
25.433333	1	0.303375
25.450000	1	0.301750
25.466667	1	0.300250
25.483333	1	0.299000
25.500000	1	0.297750
25.516667	1	0.296750
25.533333	1	0.295750
25.550000	1	0.294625
25.566667	1	0.293625
25.583333	1	0.292250
25.600000	1	0.290750
25.616667	1	0.289375
25.633333	1	0.288000
25.650000	1	0.286625
25.666667	1	0.285000
25.683333	1	0.284250
25.700000	1	0.283500
25.716667	1	0.281500
25.733333	1	0.280250
25.750000	1	0.278875
25.766667	1	0.277250
25.783333	1	0.276125
25.800000	1	0.275500
25.816667	1	0.275125
25.833333	1	0.274125
25.850000	1	0.274125
25.866667	1	0.274125
25.883333	1	0.274125
25.900000	1	0.274750
25.916667	1	0.275750
25.933333	1	0.276750
25.950000	1	0.278250
25.966667	1	0.280750
25.983333	1	0.284750
26.000000	1	0.288500
26.016667	1	0.292125
26.033333	1	0.296875
26.050000	1	0.301875
26.066667	1	0.306250
26.083333	1	0.311625
26.100000	1	0.317375
26.116667	1	0.323000
26.133333	1	0.328875
26.150000	1	0.334375
26.166667	1	0.339625
26.183333	1	0.343875
26.200000	1	0.349375
26.216667	1	0.354000
26.233333	1	0.358625
26.250000	1	0.361875
26.266667	1	0.364375
26.283333	1	0.366750
26.300000	1	0.369000
26.316667	1	0.370750
26.333333	1	0.371375
26.350000	1	0.371250
26.366667	1	0.371125
26.383333	1	0.369500
26.400000	1	0.366875
26.416667	1	0.363125
26.433333	1	0.358750
26.450000	1	0.354375
26.466667	1	0.348750
26.483333	1	0.342875
26.500000	1	0.336750
26.516667	1	0.329250
26.533333	1	0.322000
26.550000	1	0.314250
26.566667	1	0.306500
26.583333	1	0.298625
26.600000	1	0.290875
26.616667	1	0.283125
26.633333	1	0.274625
26.650000	1	0.267125
26.666667	1	0.259875
26.683333	1	0.251625
26.700000	1	0.243875
26.716667	1	0.236625
26.733333	1	0.229625
26.750000	1	0.223500
26.766667	1	0.217875
26.783333	1	0.211875
26.800000	1	0.206375
26.816667	1	0.201500
26.833333	1	0.197250
26.850000	1	0.193375
26.866667	1	0.190000
26.883333	1	0.187000
26.900000	1	0.185125
26.916667	1	0.182500
26.933333	1	0.181500
26.950000	1	0.180000
26.966667	1	0.179875
26.983333	1	0.180500
27.000000	1	0.180875
27.016667	1	0.182000
27.033333	1	0.184250
27.050000	1	0.186875
27.066667	1	0.190125
27.083333	1	0.194625
27.100000	1	0.200000
27.116667	1	0.206625
27.133333	1	0.213750
27.150000	1	0.222250
27.166667	1	0.231375
27.183333	1	0.242375
27.200000	1	0.255125
27.216667	1	0.271125
27.233333	1	0.289125
27.250000	1	0.310250
27.266667	1	0.334750
27.283333	1	0.362875
27.300000	1	0.395750
27.316667	1	0.432500
27.333333	1	0.476375
27.350000	1	0.526125
27.366667	1	0.582625
27.383333	1	0.647875
27.400000	1	0.721250
27.416667	1	0.804125
27.433333	1	0.897625
27.450000	1	1.002750
27.466667	1	1.119875
27.483333	1	1.248000
27.500000	1	1.389625
27.516667	1	1.543500
27.533333	1	1.710250
27.550000	1	1.889125
27.566667	1	2.078500
27.583333	1	2.278125
27.600000	1	2.486625
27.616667	1	2.702250
27.633333	1	2.923000
27.650000	1	3.146625
27.666667	1	3.370125
27.683333	1	3.591000
27.700000	1	3.806250
27.716667	1	4.010625
27.733333	1	4.202125
27.750000	1	4.377125
27.766667	1	4.533000
27.783333	1	4.665875
27.800000	1	4.774000
27.816667	1	4.855125
27.833333	1	4.907500
27.850000	1	4.930750
27.866667	1	4.923500
27.883333	1	4.886250
27.900000	1	4.818875
27.916667	1	4.723750
27.933333	1	4.603250
27.950000	1	4.458125
27.966667	1	4.292750
27.983333	1	4.110750
28.000000	1	3.914875
28.016667	1	3.708750
28.033333	1	3.494500
28.050000	1	3.276375
28.066667	1	3.057500
28.083333	1	2.840625
28.100000	1	2.628000
28.116667	1	2.422375
28.133333	1	2.225500
28.150000	1	2.037875
28.166667	1	1.862000
28.183333	1	1.697500
28.200000	1	1.545250
28.216667	1	1.404875
28.233333	1	1.276625
28.250000	1	1.160125
28.266667	1	1.054750
28.283333	1	0.960375
28.300000	1	0.877000
28.316667	1	0.802375
28.333333	1	0.737500
28.350000	1	0.680625
28.366667	1	0.631750
28.383333	1	0.590750
28.400000	1	0.556000
28.416667	1	0.527000
28.433333	1	0.504000
28.450000	1	0.485625
28.466667	1	0.471625
28.483333	1	0.461500
28.500000	1	0.454625
28.516667	1	0.451500
28.533333	1	0.450875
28.550000	1	0.452250
28.566667	1	0.456875
28.583333	1	0.462875
28.600000	1	0.470250
28.616667	1	0.479625
28.633333	1	0.490000
28.650000	1	0.501125
28.666667	1	0.512250
28.683333	1	0.524000
28.700000	1	0.536125
28.716667	1	0.547375
28.733333	1	0.558750
28.750000	1	0.569625
28.766667	1	0.580000
28.783333	1	0.590375
28.800000	1	0.598875
28.816667	1	0.607000
28.833333	1	0.614875
28.850000	1	0.620875
28.866667	1	0.625875
28.883333	1	0.629625
28.900000	1	0.632375
28.916667	1	0.633500
28.933333	1	0.634125
28.950000	1	0.633500
28.966667	1	0.631375
28.983333	1	0.628000
29.000000	1	0.623625
29.016667	1	0.618000
29.033333	1	0.611125
29.050000	1	0.602625
29.066667	1	0.593250
29.083333	1	0.583250
29.100000	1	0.572625
29.116667	1	0.560125
29.133333	1	0.548125
29.150000	1	0.535375
29.166667	1	0.521625
29.183333	1	0.507750
29.200000	1	0.494000
29.216667	1	0.479000
29.233333	1	0.464250
29.250000	1	0.450250
29.266667	1	0.434875
29.283333	1	0.418875
29.300000	1	0.404625
29.316667	1	0.389375
29.333333	1	0.374625
29.350000	1	0.360500
29.366667	1	0.346000
29.383333	1	0.332250
29.400000	1	0.319125
29.416667	1	0.306125
29.433333	1	0.293750
29.450000	1	0.281625
29.466667	1	0.269125
29.483333	1	0.258125
29.500000	1	0.247375
29.516667	1	0.236625
29.533333	1	0.226250
29.550000	1	0.216000
29.566667	1	0.206125
29.583333	1	0.197875
29.600000	1	0.190000
29.616667	1	0.182875
29.633333	1	0.176000
29.650000	1	0.169625
29.666667	1	0.164000
29.683333	1	0.158875
29.700000	1	0.153875
29.716667	1	0.149375
29.733333	1	0.145125
29.750000	1	0.141000
29.766667	1	0.137375
29.783333	1	0.134500
29.800000	1	0.131875
29.816667	1	0.130250
29.833333	1	0.127375
29.850000	1	0.125000
29.866667	1	0.123125
29.883333	1	0.121000
29.900000	1	0.119000
29.916667	1	0.117375
29.933333	1	0.115375
29.950000	1	0.113250
29.966667	1	0.110750
29.983333	1	0.108875
30.000000	1	0.107500
30.016667	1	0.106000
30.033333	1	0.105250
30.050000	1	0.104000
30.066667	1	0.102500
30.083333	1	0.101125
30.100000	1	0.099750
30.116667	1	0.098125
30.133333	1	0.096125
30.150000	1	0.094625
30.166667	1	0.093625
30.183333	1	0.092375
30.200000	1	0.091500
30.216667	1	0.090125
30.233333	1	0.089750
30.250000	1	0.088875
30.266667	1	0.088000
30.283333	1	0.087500
30.300000	1	0.087375
30.316667	1	0.086750
30.333333	1	0.086375
30.350000	1	0.087000
30.366667	1	0.087875
30.383333	1	0.088250
30.400000	1	0.089125
30.416667	1	0.090375
30.433333	1	0.092250
30.450000	1	0.094750
30.466667	1	0.096625
30.483333	1	0.099000
30.500000	1	0.102000
30.516667	1	0.104375
30.533333	1	0.107375
30.550000	1	0.111000
30.566667	1	0.115625
30.583333	1	0.120625
30.600000	1	0.125250
30.616667	1	0.131250
30.633333	1	0.137625
30.650000	1	0.144375
30.666667	1	0.151250
30.683333	1	0.159125
30.700000	1	0.167500
30.716667	1	0.176625
30.733333	1	0.185875
30.750000	1	0.196000
30.766667	1	0.206125
30.783333	1	0.216750
30.800000	1	0.228625
30.816667	1	0.241125
30.833333	1	0.254500
30.850000	1	0.268500
30.866667	1	0.284125
30.883333	1	0.300125
30.900000	1	0.316875
30.916667	1	0.335375
30.933333	1	0.356250
30.950000	1	0.378750
30.966667	1	0.402750
30.983333	1	0.429875
31.000000	1	0.459875
31.016667	1	0.492750
31.033333	1	0.530125
31.050000	1	0.571000
31.066667	1	0.617250
31.083333	1	0.668250
31.100000	1	0.724750
31.116667	1	0.787125
31.133333	1	0.856250
31.150000	1	0.931125
31.166667	1	1.013125
31.183333	1	1.102875
31.200000	1	1.199750
31.216667	1	1.303750
31.233333	1	1.415375
31.250000	1	1.533375
31.266667	1	1.656375
31.283333	1	1.785500
31.300000	1	1.918375
31.316667	1	2.055375
31.333333	1	2.194000
31.350000	1	2.333625
31.366667	1	2.473875
31.383333	1	2.611625
31.400000	1	2.745750
31.416667	1	2.874375
31.433333	1	2.995625
31.450000	1	3.108250
31.466667	1	3.210500
31.483333	1	3.301250
31.500000	1	3.379500
31.516667	1	3.442625
31.533333	1	3.491125
31.550000	1	3.523500
31.566667	1	3.540375
31.583333	1	3.541875
31.600000	1	3.526875
31.616667	1	3.496375
31.633333	1	3.451250
31.650000	1	3.391000
31.666667	1	3.318750
31.683333	1	3.234375
31.700000	1	3.140000
31.716667	1	3.035750
31.733333	1	2.924500
31.750000	1	2.806875
31.766667	1	2.684500
31.783333	1	2.558000
31.800000	1	2.429750
31.816667	1	2.300625
31.833333	1	2.171750
31.850000	1	2.045375
31.866667	1	1.921000
31.883333	1	1.800125
31.900000	1	1.682875
31.916667	1	1.570875
31.933333	1	1.463500
31.950000	1	1.361750
31.966667	1	1.265000
31.983333	1	1.174500
32.000000	1	1.089250
32.016667	1	1.008500
32.033333	1	0.933750
32.050000	1	0.864125
32.066667	1	0.799875
32.083333	1	0.740625
32.100000	1	0.685500
32.116667	1	0.635625
32.133333	1	0.589625
32.150000	1	0.546000
32.166667	1	0.505500
32.183333	1	0.469625
32.200000	1	0.435875
32.216667	1	0.404875
32.233333	1	0.375500
32.250000	1	0.348750
32.266667	1	0.323375
32.283333	1	0.300625
32.300000	1	0.279375
32.316667	1	0.259875
32.333333	1	0.242500
32.350000	1	0.226625
32.366667	1	0.212000
32.383333	1	0.197250
32.400000	1	0.184000
32.416667	1	0.171250
32.433333	1	0.160500
32.450000	1	0.151500
32.466667	1	0.142125
32.483333	1	0.133250
32.500000	1	0.124500
32.516667	1	0.117000
32.533333	1	0.110375
32.550000	1	0.104625
32.566667	1	0.099625
32.583333	1	0.094875
32.600000	1	0.090500
32.616667	1	0.086875
32.633333	1	0.083500
32.650000	1	0.079625
32.666667	1	0.076375
32.683333	1	0.073625
32.700000	1	0.071000
32.716667	1	0.069625
32.733333	1	0.067500
32.750000	1	0.065500
32.766667	1	0.063125
32.783333	1	0.061500
32.800000	1	0.059625
32.816667	1	0.057750
32.833333	1	0.056375
32.850000	1	0.054750
32.866667	1	0.052750
32.883333	1	0.050625
32.900000	1	0.049000
32.916667	1	0.047125
32.933333	1	0.045250
32.950000	1	0.043375
32.966667	1	0.041875
32.983333	1	0.039875
33.000000	1	0.038875
33.016667	1	0.036750
33.033333	1	0.034625
33.050000	1	0.033250
33.066667	1	0.031500
33.083333	1	0.029250
33.100000	1	0.028250
33.116667	1	0.027375
33.133333	1	0.025750
33.150000	1	0.025000
33.166667	1	0.024375
33.183333	1	0.024000
33.200000	1	0.023625
33.216667	1	0.023375
33.233333	1	0.024000
33.250000	1	0.024375
33.266667	1	0.024500
33.283333	1	0.025750
33.300000	1	0.027000
33.316667	1	0.028000
33.333333	1	0.029375
33.350000	1	0.031750
33.366667	1	0.034500
33.383333	1	0.037125
33.400000	1	0.039625
33.416667	1	0.041750
33.433333	1	0.044500
33.450000	1	0.047625
33.466667	1	0.050500
33.483333	1	0.053125
33.500000	1	0.056250
33.516667	1	0.058875
33.533333	1	0.061500
33.550000	1	0.064750
33.566667	1	0.067500
33.583333	1	0.069250
33.600000	1	0.070750
33.616667	1	0.072750
33.633333	1	0.075250
33.650000	1	0.077625
33.666667	1	0.079500
33.683333	1	0.081125
33.700000	1	0.083875
33.716667	1	0.085750
33.733333	1	0.087500
33.750000	1	0.089500
33.766667	1	0.090500
33.783333	1	0.092375
33.800000	1	0.094125
33.816667	1	0.095500
33.833333	1	0.097000
33.850000	1	0.098750
33.866667	1	0.100375
33.883333	1	0.102500
33.900000	1	0.104125
33.916667	1	0.106125
33.933333	1	0.108375
33.950000	1	0.109875
33.966667	1	0.111875
33.983333	1	0.113125
34.000000	1	0.114500
34.016667	1	0.115375
34.033333	1	0.116000
34.050000	1	0.117625
34.066667	1	0.118750
34.083333	1	0.120125
34.100000	1	0.121500
34.116667	1	0.122875
34.133333	1	0.123750
34.150000	1	0.124750
34.166667	1	0.125500
34.183333	1	0.125625
34.200000	1	0.125875
34.216667	1	0.126250
34.233333	1	0.126250
34.250000	1	0.126875
34.266667	1	0.126875
34.283333	1	0.126750
34.300000	1	0.126500
34.316667	1	0.126625
34.333333	1	0.126875
34.350000	1	0.126250
34.366667	1	0.125875
34.383333	1	0.124750
34.400000	1	0.124375
34.416667	1	0.123875
34.433333	1	0.123250
34.450000	1	0.122250
34.466667	1	0.122125
34.483333	1	0.121750
34.500000	1	0.122000
34.516667	1	0.121625
34.533333	1	0.121250
34.550000	1	0.120625
34.566667	1	0.120500
34.583333	1	0.119375
34.600000	1	0.118750
34.616667	1	0.117500
34.633333	1	0.116500
34.650000	1	0.115125
34.666667	1	0.113625
34.683333	1	0.113000
34.700000	1	0.112375
34.716667	1	0.112250
34.733333	1	0.111000
34.750000	1	0.110250
34.766667	1	0.109500
34.783333	1	0.108875
34.800000	1	0.108125
34.816667	1	0.107250
34.833333	1	0.106625
34.850000	1	0.105500
34.866667	1	0.104500
34.883333	1	0.103750
34.900000	1	0.103500
34.916667	1	0.103000
34.933333	1	0.103000
34.950000	1	0.102375
34.966667	1	0.102000
34.983333	1	0.101750
35.000000	1	0.101625
35.016667	1	0.102000
35.033333	1	0.101875
35.050000	1	0.101750
35.066667	1	0.102375
35.083333	1	0.102500
35.100000	1	0.103000
35.116667	1	0.103375
35.133333	1	0.103625
35.150000	1	0.104250
35.166667	1	0.104750
35.183333	1	0.105000
35.200000	1	0.105500
35.216667	1	0.106375
35.233333	1	0.107500
35.250000	1	0.108625
35.266667	1	0.110000
35.283333	1	0.111500
35.300000	1	0.113500
35.316667	1	0.116000
35.333333	1	0.117875
35.350000	1	0.119375
35.366667	1	0.121375
35.383333	1	0.123750
35.400000	1	0.125375
35.416667	1	0.127875
35.433333	1	0.130000
35.450000	1	0.131875
35.466667	1	0.133875
35.483333	1	0.136000
35.500000	1	0.139125
35.516667	1	0.141000
35.533333	1	0.143000
35.550000	1	0.145000
35.566667	1	0.146375
35.583333	1	0.148375
35.600000	1	0.149500
35.616667	1	0.150750
35.633333	1	0.152000
35.650000	1	0.153125
35.666667	1	0.153750
35.683333	1	0.154750
35.700000	1	0.155500
35.716667	1	0.155875
35.733333	1	0.156625
35.750000	1	0.157000
35.766667	1	0.157250
35.783333	1	0.156250
35.800000	1	0.155750
35.816667	1	0.155250
35.833333	1	0.155625
35.850000	1	0.155000
35.866667	1	0.154500
35.883333	1	0.153750
35.900000	1	0.152875
35.916667	1	0.151750
35.933333	1	0.150250
35.950000	1	0.149750
35.966667	1	0.148750
35.983333	1	0.147750
36.000000	1	0.146875
36.016667	1	0.145875
36.033333	1	0.144875
36.050000	1	0.142875
36.066667	1	0.141125
36.083333	1	0.139625
36.100000	1	0.139125
36.116667	1	0.138250
36.133333	1	0.137125
36.150000	1	0.136250
36.166667	1	0.135500
36.183333	1	0.134625
36.200000	1	0.133250
36.216667	1	0.131625
36.233333	1	0.130750
36.250000	1	0.130000
36.266667	1	0.128500
36.283333	1	0.127750
36.300000	1	0.126125
36.316667	1	0.126125
36.333333	1	0.124500
36.350000	1	0.123375
36.366667	1	0.122125
36.383333	1	0.121125
36.400000	1	0.119375
36.416667	1	0.117875
36.433333	1	0.116125
36.450000	1	0.114125
36.466667	1	0.112125
36.483333	1	0.110875
36.500000	1	0.109625
36.516667	1	0.107500
36.533333	1	0.104625
36.550000	1	0.101750
36.566667	1	0.099875
36.583333	1	0.096375
36.600000	1	0.093750
36.616667	1	0.091500
36.633333	1	0.087875
36.650000	1	0.084625
36.666667	1	0.081875
36.683333	1	0.078500
36.700000	1	0.076375
36.716667	1	0.073125
36.733333	1	0.070500
36.750000	1	0.067500
36.766667	1	0.064875
36.783333	1	0.062375
36.800000	1	0.059750
36.816667	1	0.057375
36.833333	1	0.054250
36.850000	1	0.052000
36.866667	1	0.050875
36.883333	1	0.049750
36.900000	1	0.048125
36.916667	1	0.047250
36.933333	1	0.046375
36.950000	1	0.045375
36.966667	1	0.045375
36.983333	1	0.044750
37.000000	1	0.044250
37.016667	1	0.043875
37.033333	1	0.044000
37.050000	1	0.043875
37.066667	1	0.044625
37.083333	1	0.044625
37.100000	1	0.045125
37.116667	1	0.045750
37.133333	1	0.046000
37.150000	1	0.046875
37.166667	1	0.047500
37.183333	1	0.049375
37.200000	1	0.049750
37.216667	1	0.050625
37.233333	1	0.051750
37.250000	1	0.052375
37.266667	1	0.053125
37.283333	1	0.053625
37.300000	1	0.054250
37.316667	1	0.055125
37.333333	1	0.056250
37.350000	1	0.056625
37.366667	1	0.057625
37.383333	1	0.057625
37.400000	1	0.058500
37.416667	1	0.058000
37.433333	1	0.057750
37.450000	1	0.057750
37.466667	1	0.058000
37.483333	1	0.058250
37.500000	1	0.058375
37.516667	1	0.058125
37.533333	1	0.057875
37.550000	1	0.056875
37.566667	1	0.056000
37.583333	1	0.055375
37.600000	1	0.054500
37.616667	1	0.053750
37.633333	1	0.052750
37.650000	1	0.051625
37.666667	1	0.049875
37.683333	1	0.048500
37.700000	1	0.047375
37.716667	1	0.045875
37.733333	1	0.044625
37.750000	1	0.043250
37.766667	1	0.042625
37.783333	1	0.041000
37.800000	1	0.039250
37.816667	1	0.038250
37.833333	1	0.037625
37.850000	1	0.037375
37.866667	1	0.036125
37.883333	1	0.035500
37.900000	1	0.035125
37.916667	1	0.034625
37.933333	1	0.034500
37.950000	1	0.034250
37.966667	1	0.034375
37.983333	1	0.033875
38.000000	1	0.033750
38.016667	1	0.033625
38.033333	1	0.033875
38.050000	1	0.034250
38.066667	1	0.034625
38.083333	1	0.035000
38.100000	1	0.035000
38.116667	1	0.035750
38.133333	1	0.036250
38.150000	1	0.037375
38.166667	1	0.038375
38.183333	1	0.039125
38.200000	1	0.040000
38.216667	1	0.040875
38.233333	1	0.041750
38.250000	1	0.042250
38.266667	1	0.042375
38.283333	1	0.042750
38.300000	1	0.042875
38.316667	1	0.043000
38.333333	1	0.043500
38.350000	1	0.044125
38.366667	1	0.044125
38.383333	1	0.043750
38.400000	1	0.042750
38.416667	1	0.042500
38.433333	1	0.042375
38.450000	1	0.042000
38.466667	1	0.041750
38.483333	1	0.041250
38.500000	1	0.040875
38.516667	1	0.040750
38.533333	1	0.040375
38.550000	1	0.039125
38.566667	1	0.038375
38.583333	1	0.038750
38.600000	1	0.038125
38.616667	1	0.037375
38.633333	1	0.037000
38.650000	1	0.036250
38.666667	1	0.036625
38.683333	1	0.036625
38.700000	1	0.036500
38.716667	1	0.036875
38.733333	1	0.036250
38.750000	1	0.036875
38.766667	1	0.037000
38.783333	1	0.037750
38.800000	1	0.038250
38.816667	1	0.038500
38.833333	1	0.039125
38.850000	1	0.039625
38.866667	1	0.040125
38.883333	1	0.041125
38.900000	1	0.041500
38.916667	1	0.042500
38.933333	1	0.043000
38.950000	1	0.043250
38.966667	1	0.044125
38.983333	1	0.043750
39.000000	1	0.043625
39.016667	1	0.043500
39.033333	1	0.043625
39.050000	1	0.043375
39.066667	1	0.043625
39.083333	1	0.043375
39.100000	1	0.043250
39.116667	1	0.043500
39.133333	1	0.042125
39.150000	1	0.041125
39.166667	1	0.040375
39.183333	1	0.039500
39.200000	1	0.038250
39.216667	1	0.037750
39.233333	1	0.036625
39.250000	1	0.035625
39.266667	1	0.034750
39.283333	1	0.034375
39.300000	1	0.034000
39.316667	1	0.033750
39.333333	1	0.032750
39.350000	1	0.032250
39.366667	1	0.031000
39.383333	1	0.030375
39.400000	1	0.029375
39.416667	1	0.027875
39.433333	1	0.027625
39.450000	1	0.027625
39.466667	1	0.027875
39.483333	1	0.027625
39.500000	1	0.027500
39.516667	1	0.027000
39.533333	1	0.026125
39.550000	1	0.025875
39.566667	1	0.025500
39.583333	1	0.024625
39.600000	1	0.024125
39.616667	1	0.023750
39.633333	1	0.023875
39.650000	1	0.023875
39.666667	1	0.023500
39.683333	1	0.023375
39.700000	1	0.022500
39.716667	1	0.022000
39.733333	1	0.021625
39.750000	1	0.020875
39.766667	1	0.020750
39.783333	1	0.020375
39.800000	1	0.020125
39.816667	1	0.019875
39.833333	1	0.020125
39.850000	1	0.020000
39.866667	1	0.019875
39.883333	1	0.019750
39.900000	1	0.019750
39.916667	1	0.019375
39.933333	1	0.019625
39.950000	1	0.019375
39.966667	1	0.018875
39.983333	1	0.018625
40.000000	1	0.018500
