URL	chrom://bioreactor/micro_cm7/HPLC_Ultimate_3000/Users/markusar/20240716_MA_pHrange2.seq/591.smp/RI_1.channel/RI_1.chm
Channel	RI_1

Injection Information:
Data Vault	micro_cm7
Sequence	20240716_MA_pHrange2
Name	Pv2_40H_2
Number	19
Position	BB7
Comment	
Processing Method	
Instrument Method	run_25B_method
Type	Unknown
Status	Finished
Inject Time	17.07.2024 06:23:57 +02:00
Volume (µl)	20.0000
Dilution Factor	1.0000
Weight	1.0000

Chromatogram Data Information:
Time Min. (min)	0.000000
Time Max. (min)	40.000000
Data Points	2401
Detector	RI
Generating Data System	Chromeleon 7.3.2.11814
Exporting Data System	Chromeleon 7.3.2.0
Operator	Instrument Controller
Signal Quantity	Refractive 
Signal Unit	µRIU
Signal Min.	-0.243625
Signal Max.	105.948375
Channel	RI_1
Driver Name	RID520Driver.dll
Channel Type	Evaluation
Min. Step (s)	1
Max. Step (s)	1
Average Step (s)	1

Signal Parameter Information:
Signal Info	

Chromatogram Data:
Time (min)	Step (s)	Value (µRIU)
0.000000	n.a.	0.066750
0.016667	1	0.064250
0.033333	1	0.062250
0.050000	1	0.059375
0.066667	1	0.056625
0.083333	1	0.054375
0.100000	1	0.051375
0.116667	1	0.049000
0.133333	1	0.046375
0.150000	1	0.043750
0.166667	1	0.040875
0.183333	1	0.038375
0.200000	1	0.035875
0.216667	1	0.033625
0.233333	1	0.031875
0.250000	1	0.029875
0.266667	1	0.027625
0.283333	1	0.026125
0.300000	1	0.024750
0.316667	1	0.023125
0.333333	1	0.021250
0.350000	1	0.020250
0.366667	1	0.018875
0.383333	1	0.016625
0.400000	1	0.015375
0.416667	1	0.014500
0.433333	1	0.014250
0.450000	1	0.015125
0.466667	1	0.015500
0.483333	1	0.016750
0.500000	1	0.016625
0.516667	1	0.016625
0.533333	1	0.015875
0.550000	1	0.013750
0.566667	1	0.012500
0.583333	1	0.010500
0.600000	1	0.008500
0.616667	1	0.007500
0.633333	1	0.006625
0.650000	1	0.005250
0.666667	1	0.005125
0.683333	1	0.004500
0.700000	1	0.004250
0.716667	1	0.003625
0.733333	1	0.003125
0.750000	1	0.002500
0.766667	1	0.001625
0.783333	1	0.001000
0.800000	1	0.001000
0.816667	1	0.000500
0.833333	1	0.000125
0.850000	1	-0.000500
0.866667	1	-0.000875
0.883333	1	-0.001625
0.900000	1	-0.002125
0.916667	1	-0.002250
0.933333	1	-0.002250
0.950000	1	-0.003250
0.966667	1	-0.003125
0.983333	1	-0.003125
1.000000	1	-0.003250
1.016667	1	-0.003625
1.033333	1	-0.003750
1.050000	1	-0.003250
1.066667	1	-0.002250
1.083333	1	-0.001750
1.100000	1	-0.001250
1.116667	1	-0.001250
1.133333	1	-0.000375
1.150000	1	0.000750
1.166667	1	0.001375
1.183333	1	0.002375
1.200000	1	0.003000
1.216667	1	0.004625
1.233333	1	0.006000
1.250000	1	0.007125
1.266667	1	0.008000
1.283333	1	0.009500
1.300000	1	0.011000
1.316667	1	0.012000
1.333333	1	0.013750
1.350000	1	0.015250
1.366667	1	0.016625
1.383333	1	0.018125
1.400000	1	0.019125
1.416667	1	0.020750
1.433333	1	0.021500
1.450000	1	0.022375
1.466667	1	0.023500
1.483333	1	0.024625
1.500000	1	0.025125
1.516667	1	0.025250
1.533333	1	0.026250
1.550000	1	0.026500
1.566667	1	0.026750
1.583333	1	0.026875
1.600000	1	0.027125
1.616667	1	0.027375
1.633333	1	0.026500
1.650000	1	0.025625
1.666667	1	0.025125
1.683333	1	0.024625
1.700000	1	0.023750
1.716667	1	0.022375
1.733333	1	0.021625
1.750000	1	0.020750
1.766667	1	0.019750
1.783333	1	0.018375
1.800000	1	0.017375
1.816667	1	0.016375
1.833333	1	0.015250
1.850000	1	0.014000
1.866667	1	0.013125
1.883333	1	0.012000
1.900000	1	0.010500
1.916667	1	0.009250
1.933333	1	0.008625
1.950000	1	0.007375
1.966667	1	0.006125
1.983333	1	0.005125
2.000000	1	0.004125
2.016667	1	0.003500
2.033333	1	0.002375
2.050000	1	0.001375
2.066667	1	0.000750
2.083333	1	-0.000125
2.100000	1	-0.001125
2.116667	1	-0.001875
2.133333	1	-0.003000
2.150000	1	-0.003375
2.166667	1	-0.004250
2.183333	1	-0.005500
2.200000	1	-0.006375
2.216667	1	-0.006625
2.233333	1	-0.007125
2.250000	1	-0.007875
2.266667	1	-0.008750
2.283333	1	-0.009125
2.300000	1	-0.009875
2.316667	1	-0.010000
2.333333	1	-0.009875
2.350000	1	-0.010125
2.366667	1	-0.010000
2.383333	1	-0.010000
2.400000	1	-0.009750
2.416667	1	-0.009500
2.433333	1	-0.009750
2.450000	1	-0.008625
2.466667	1	-0.008000
2.483333	1	-0.007125
2.500000	1	-0.006750
2.516667	1	-0.006625
2.533333	1	-0.005625
2.550000	1	-0.004750
2.566667	1	-0.004125
2.583333	1	-0.002750
2.600000	1	-0.001500
2.616667	1	0.000000
2.633333	1	0.001250
2.650000	1	0.003125
2.666667	1	0.004250
2.683333	1	0.005750
2.700000	1	0.007000
2.716667	1	0.008750
2.733333	1	0.010000
2.750000	1	0.011375
2.766667	1	0.013625
2.783333	1	0.014375
2.800000	1	0.016500
2.816667	1	0.018125
2.833333	1	0.019250
2.850000	1	0.020750
2.866667	1	0.022375
2.883333	1	0.024000
2.900000	1	0.025375
2.916667	1	0.026750
2.933333	1	0.028250
2.950000	1	0.029750
2.966667	1	0.030875
2.983333	1	0.031750
3.000000	1	0.033250
3.016667	1	0.034750
3.033333	1	0.036625
3.050000	1	0.038500
3.066667	1	0.040125
3.083333	1	0.041000
3.100000	1	0.043125
3.116667	1	0.044625
3.133333	1	0.045875
3.150000	1	0.047375
3.166667	1	0.049000
3.183333	1	0.050125
3.200000	1	0.051750
3.216667	1	0.053125
3.233333	1	0.054500
3.250000	1	0.055500
3.266667	1	0.056625
3.283333	1	0.057625
3.300000	1	0.058875
3.316667	1	0.060000
3.333333	1	0.060875
3.350000	1	0.061250
3.366667	1	0.062250
3.383333	1	0.062750
3.400000	1	0.063750
3.416667	1	0.064000
3.433333	1	0.065250
3.450000	1	0.066375
3.466667	1	0.067000
3.483333	1	0.068125
3.500000	1	0.068500
3.516667	1	0.068750
3.533333	1	0.069125
3.550000	1	0.069500
3.566667	1	0.070000
3.583333	1	0.070625
3.600000	1	0.071250
3.616667	1	0.071125
3.633333	1	0.072000
3.650000	1	0.072875
3.666667	1	0.073625
3.683333	1	0.074750
3.700000	1	0.075375
3.716667	1	0.076125
3.733333	1	0.076750
3.750000	1	0.077500
3.766667	1	0.078625
3.783333	1	0.079250
3.800000	1	0.080000
3.816667	1	0.081125
3.833333	1	0.081500
3.850000	1	0.081875
3.866667	1	0.082500
3.883333	1	0.083250
3.900000	1	0.083000
3.916667	1	0.083250
3.933333	1	0.083000
3.950000	1	0.082250
3.966667	1	0.082875
3.983333	1	0.083625
4.000000	1	0.083500
4.016667	1	0.084125
4.033333	1	0.084125
4.050000	1	0.083875
4.066667	1	0.083875
4.083333	1	0.083125
4.100000	1	0.083125
4.116667	1	0.082750
4.133333	1	0.082625
4.150000	1	0.082500
4.166667	1	0.082875
4.183333	1	0.083250
4.200000	1	0.083250
4.216667	1	0.083375
4.233333	1	0.083250
4.250000	1	0.083500
4.266667	1	0.083500
4.283333	1	0.083875
4.300000	1	0.085125
4.316667	1	0.085750
4.333333	1	0.086750
4.350000	1	0.087875
4.366667	1	0.089000
4.383333	1	0.090125
4.400000	1	0.091625
4.416667	1	0.093750
4.433333	1	0.095250
4.450000	1	0.096625
4.466667	1	0.098250
4.483333	1	0.100000
4.500000	1	0.101625
4.516667	1	0.103125
4.533333	1	0.105500
4.550000	1	0.107625
4.566667	1	0.110250
4.583333	1	0.112375
4.600000	1	0.114750
4.616667	1	0.117375
4.633333	1	0.120375
4.650000	1	0.123500
4.666667	1	0.126500
4.683333	1	0.130000
4.700000	1	0.133125
4.716667	1	0.136500
4.733333	1	0.140125
4.750000	1	0.143750
4.766667	1	0.147875
4.783333	1	0.152375
4.800000	1	0.157250
4.816667	1	0.161875
4.833333	1	0.166500
4.850000	1	0.171000
4.866667	1	0.175125
4.883333	1	0.180750
4.900000	1	0.186375
4.916667	1	0.191875
4.933333	1	0.197625
4.950000	1	0.203375
4.966667	1	0.208500
4.983333	1	0.214125
5.000000	1	0.219625
5.016667	1	0.224625
5.033333	1	0.229500
5.050000	1	0.234125
5.066667	1	0.239250
5.083333	1	0.243750
5.100000	1	0.248625
5.116667	1	0.253250
5.133333	1	0.257000
5.150000	1	0.260500
5.166667	1	0.265125
5.183333	1	0.267875
5.200000	1	0.270875
5.216667	1	0.273125
5.233333	1	0.276000
5.250000	1	0.277250
5.266667	1	0.279000
5.283333	1	0.279375
5.300000	1	0.279750
5.316667	1	0.279750
5.333333	1	0.280500
5.350000	1	0.280375
5.366667	1	0.279750
5.383333	1	0.278375
5.400000	1	0.276750
5.416667	1	0.274875
5.433333	1	0.272625
5.450000	1	0.270000
5.466667	1	0.267125
5.483333	1	0.264000
5.500000	1	0.260000
5.516667	1	0.255875
5.533333	1	0.252125
5.550000	1	0.248500
5.566667	1	0.244250
5.583333	1	0.240375
5.600000	1	0.235750
5.616667	1	0.231125
5.633333	1	0.226250
5.650000	1	0.220875
5.666667	1	0.215750
5.683333	1	0.211000
5.700000	1	0.206250
5.716667	1	0.201250
5.733333	1	0.196500
5.750000	1	0.191000
5.766667	1	0.186125
5.783333	1	0.181625
5.800000	1	0.177250
5.816667	1	0.172125
5.833333	1	0.167250
5.850000	1	0.162625
5.866667	1	0.157750
5.883333	1	0.153125
5.900000	1	0.149375
5.916667	1	0.145375
5.933333	1	0.141375
5.950000	1	0.136875
5.966667	1	0.132625
5.983333	1	0.128625
6.000000	1	0.125125
6.016667	1	0.122250
6.033333	1	0.118500
6.050000	1	0.114875
6.066667	1	0.111000
6.083333	1	0.107750
6.100000	1	0.104500
6.116667	1	0.101125
6.133333	1	0.098375
6.150000	1	0.095000
6.166667	1	0.091750
6.183333	1	0.088625
6.200000	1	0.085250
6.216667	1	0.082500
6.233333	1	0.079750
6.250000	1	0.077125
6.266667	1	0.073500
6.283333	1	0.070250
6.300000	1	0.066875
6.316667	1	0.064500
6.333333	1	0.062750
6.350000	1	0.060000
6.366667	1	0.057375
6.383333	1	0.055250
6.400000	1	0.053625
6.416667	1	0.051875
6.433333	1	0.049750
6.450000	1	0.048000
6.466667	1	0.046750
6.483333	1	0.045000
6.500000	1	0.044125
6.516667	1	0.043375
6.533333	1	0.042875
6.550000	1	0.042375
6.566667	1	0.042250
6.583333	1	0.042375
6.600000	1	0.042875
6.616667	1	0.043750
6.633333	1	0.045250
6.650000	1	0.047000
6.666667	1	0.048375
6.683333	1	0.050625
6.700000	1	0.052750
6.716667	1	0.055375
6.733333	1	0.058375
6.750000	1	0.061750
6.766667	1	0.065250
6.783333	1	0.068500
6.800000	1	0.072250
6.816667	1	0.076500
6.833333	1	0.081000
6.850000	1	0.085750
6.866667	1	0.090000
6.883333	1	0.094500
6.900000	1	0.098625
6.916667	1	0.104000
6.933333	1	0.108125
6.950000	1	0.112375
6.966667	1	0.117250
6.983333	1	0.121625
7.000000	1	0.125875
7.016667	1	0.130625
7.033333	1	0.134125
7.050000	1	0.137500
7.066667	1	0.140875
7.083333	1	0.143750
7.100000	1	0.146875
7.116667	1	0.149375
7.133333	1	0.151000
7.150000	1	0.152750
7.166667	1	0.154000
7.183333	1	0.155000
7.200000	1	0.156000
7.216667	1	0.155750
7.233333	1	0.155500
7.250000	1	0.154375
7.266667	1	0.153125
7.283333	1	0.151500
7.300000	1	0.149875
7.316667	1	0.148375
7.333333	1	0.145750
7.350000	1	0.142625
7.366667	1	0.138875
7.383333	1	0.135750
7.400000	1	0.132000
7.416667	1	0.128500
7.433333	1	0.124250
7.450000	1	0.119375
7.466667	1	0.115125
7.483333	1	0.110250
7.500000	1	0.105375
7.516667	1	0.100750
7.533333	1	0.095625
7.550000	1	0.090375
7.566667	1	0.085375
7.583333	1	0.080250
7.600000	1	0.074875
7.616667	1	0.069750
7.633333	1	0.064875
7.650000	1	0.059750
7.666667	1	0.054500
7.683333	1	0.049125
7.700000	1	0.044375
7.716667	1	0.040625
7.733333	1	0.036250
7.750000	1	0.031625
7.766667	1	0.027000
7.783333	1	0.022625
7.800000	1	0.018500
7.816667	1	0.013875
7.833333	1	0.009250
7.850000	1	0.006000
7.866667	1	0.002375
7.883333	1	-0.001750
7.900000	1	-0.004375
7.916667	1	-0.007625
7.933333	1	-0.010875
7.950000	1	-0.013625
7.966667	1	-0.015875
7.983333	1	-0.019000
8.000000	1	-0.021875
8.016667	1	-0.024875
8.033333	1	-0.027125
8.050000	1	-0.030000
8.066667	1	-0.031875
8.083333	1	-0.033375
8.100000	1	-0.034750
8.116667	1	-0.036000
8.133333	1	-0.036875
8.150000	1	-0.038125
8.166667	1	-0.038375
8.183333	1	-0.039375
8.200000	1	-0.039500
8.216667	1	-0.039625
8.233333	1	-0.039375
8.250000	1	-0.038500
8.266667	1	-0.038375
8.283333	1	-0.037625
8.300000	1	-0.036000
8.316667	1	-0.035000
8.333333	1	-0.033875
8.350000	1	-0.031875
8.366667	1	-0.030125
8.383333	1	-0.028375
8.400000	1	-0.026625
8.416667	1	-0.024500
8.433333	1	-0.022250
8.450000	1	-0.020250
8.466667	1	-0.018000
8.483333	1	-0.015375
8.500000	1	-0.012875
8.516667	1	-0.010000
8.533333	1	-0.007250
8.550000	1	-0.004875
8.566667	1	-0.002125
8.583333	1	0.000125
8.600000	1	0.002500
8.616667	1	0.005375
8.633333	1	0.007500
8.650000	1	0.010125
8.666667	1	0.013000
8.683333	1	0.015250
8.700000	1	0.018500
8.716667	1	0.020750
8.733333	1	0.024000
8.750000	1	0.026500
8.766667	1	0.029000
8.783333	1	0.031250
8.800000	1	0.033625
8.816667	1	0.036250
8.833333	1	0.038750
8.850000	1	0.041500
8.866667	1	0.043625
8.883333	1	0.045125
8.900000	1	0.047000
8.916667	1	0.049750
8.933333	1	0.051125
8.950000	1	0.053125
8.966667	1	0.055000
8.983333	1	0.056500
9.000000	1	0.057500
9.016667	1	0.058875
9.033333	1	0.060250
9.050000	1	0.061250
9.066667	1	0.062000
9.083333	1	0.062500
9.100000	1	0.062500
9.116667	1	0.062250
9.133333	1	0.062875
9.150000	1	0.063625
9.166667	1	0.063500
9.183333	1	0.062750
9.200000	1	0.062000
9.216667	1	0.060875
9.233333	1	0.059875
9.250000	1	0.058875
9.266667	1	0.057125
9.283333	1	0.054875
9.300000	1	0.053375
9.316667	1	0.050875
9.333333	1	0.048750
9.350000	1	0.046500
9.366667	1	0.044125
9.383333	1	0.042125
9.400000	1	0.039250
9.416667	1	0.037000
9.433333	1	0.034000
9.450000	1	0.031625
9.466667	1	0.029125
9.483333	1	0.026875
9.500000	1	0.024250
9.516667	1	0.021625
9.533333	1	0.019000
9.550000	1	0.016500
9.566667	1	0.014375
9.583333	1	0.011375
9.600000	1	0.009625
9.616667	1	0.007375
9.633333	1	0.005000
9.650000	1	0.003000
9.666667	1	0.001500
9.683333	1	0.000000
9.700000	1	-0.001375
9.716667	1	-0.002625
9.733333	1	-0.004125
9.750000	1	-0.005250
9.766667	1	-0.006000
9.783333	1	-0.006875
9.800000	1	-0.007750
9.816667	1	-0.008500
9.833333	1	-0.009375
9.850000	1	-0.010000
9.866667	1	-0.010625
9.883333	1	-0.011500
9.900000	1	-0.012375
9.916667	1	-0.013250
9.933333	1	-0.014500
9.950000	1	-0.014750
9.966667	1	-0.015375
9.983333	1	-0.016000
10.000000	1	-0.017000
10.016667	1	-0.018375
10.033333	1	-0.019750
10.050000	1	-0.020750
10.066667	1	-0.021500
10.083333	1	-0.022250
10.100000	1	-0.022125
10.116667	1	-0.022500
10.133333	1	-0.021625
10.150000	1	-0.019750
10.166667	1	-0.017125
10.183333	1	-0.013000
10.200000	1	-0.007250
10.216667	1	0.000000
10.233333	1	0.007250
10.250000	1	0.017250
10.266667	1	0.029375
10.283333	1	0.043125
10.300000	1	0.058250
10.316667	1	0.074875
10.333333	1	0.092000
10.350000	1	0.107750
10.366667	1	0.119125
10.383333	1	0.122750
10.400000	1	0.111250
10.416667	1	0.081375
10.433333	1	0.029875
10.450000	1	-0.042500
10.466667	1	-0.127375
10.483333	1	-0.204625
10.500000	1	-0.243625
10.516667	1	-0.198375
10.533333	1	-0.013750
10.550000	1	0.378875
10.566667	1	1.049375
10.583333	1	2.066500
10.600000	1	3.493625
10.616667	1	5.385125
10.633333	1	7.779750
10.650000	1	10.705375
10.666667	1	14.181875
10.683333	1	18.218125
10.700000	1	22.815000
10.716667	1	27.959125
10.733333	1	33.630000
10.750000	1	39.798500
10.766667	1	46.415625
10.783333	1	53.439875
10.800000	1	60.815375
10.816667	1	68.458375
10.833333	1	76.240375
10.850000	1	83.976375
10.866667	1	91.378625
10.883333	1	97.988000
10.900000	1	103.129750
10.916667	1	105.948375
10.933333	1	105.581000
10.950000	1	101.484125
10.966667	1	93.748500
10.983333	1	83.176875
11.000000	1	71.058875
11.016667	1	58.756500
11.033333	1	47.345125
11.050000	1	37.423750
11.066667	1	29.199250
11.083333	1	22.609875
11.100000	1	17.461250
11.116667	1	13.512500
11.133333	1	10.523625
11.150000	1	8.282250
11.166667	1	6.610000
11.183333	1	5.363875
11.200000	1	4.432875
11.216667	1	3.733375
11.233333	1	3.204000
11.250000	1	2.798125
11.266667	1	2.482375
11.283333	1	2.233500
11.300000	1	2.033625
11.316667	1	1.871375
11.333333	1	1.738000
11.350000	1	1.626625
11.366667	1	1.532750
11.383333	1	1.453125
11.400000	1	1.384875
11.416667	1	1.326500
11.433333	1	1.276750
11.450000	1	1.233625
11.466667	1	1.196875
11.483333	1	1.165375
11.500000	1	1.139250
11.516667	1	1.116125
11.533333	1	1.097375
11.550000	1	1.081375
11.566667	1	1.067375
11.583333	1	1.055875
11.600000	1	1.045625
11.616667	1	1.038375
11.633333	1	1.031875
11.650000	1	1.027500
11.666667	1	1.024250
11.683333	1	1.023000
11.700000	1	1.022500
11.716667	1	1.023500
11.733333	1	1.026250
11.750000	1	1.029750
11.766667	1	1.034625
11.783333	1	1.040125
11.800000	1	1.046625
11.816667	1	1.053625
11.833333	1	1.061375
11.850000	1	1.069500
11.866667	1	1.077000
11.883333	1	1.085000
11.900000	1	1.091375
11.916667	1	1.097250
11.933333	1	1.102125
11.950000	1	1.106500
11.966667	1	1.109250
11.983333	1	1.111250
12.000000	1	1.112625
12.016667	1	1.113000
12.033333	1	1.113375
12.050000	1	1.114250
12.066667	1	1.114750
12.083333	1	1.115375
12.100000	1	1.116875
12.116667	1	1.118875
12.133333	1	1.120875
12.150000	1	1.124125
12.166667	1	1.128125
12.183333	1	1.132750
12.200000	1	1.138000
12.216667	1	1.144375
12.233333	1	1.151750
12.250000	1	1.161125
12.266667	1	1.172375
12.283333	1	1.187000
12.300000	1	1.204000
12.316667	1	1.225875
12.333333	1	1.253000
12.350000	1	1.288375
12.366667	1	1.334500
12.383333	1	1.394875
12.400000	1	1.472625
12.416667	1	1.572000
12.433333	1	1.698000
12.450000	1	1.853875
12.466667	1	2.047625
12.483333	1	2.283250
12.500000	1	2.566125
12.516667	1	2.899500
12.533333	1	3.287250
12.550000	1	3.729875
12.566667	1	4.227500
12.583333	1	4.778125
12.600000	1	5.376875
12.616667	1	6.015000
12.633333	1	6.682500
12.650000	1	7.368625
12.666667	1	8.061500
12.683333	1	8.748125
12.700000	1	9.416375
12.716667	1	10.058125
12.733333	1	10.667375
12.750000	1	11.241875
12.766667	1	11.783625
12.783333	1	12.297125
12.800000	1	12.790375
12.816667	1	13.273000
12.833333	1	13.754750
12.850000	1	14.246375
12.866667	1	14.756250
12.883333	1	15.289250
12.900000	1	15.852125
12.916667	1	16.446625
12.933333	1	17.073250
12.950000	1	17.733125
12.966667	1	18.424375
12.983333	1	19.146250
13.000000	1	19.895875
13.016667	1	20.671750
13.033333	1	21.474125
13.050000	1	22.300625
13.066667	1	23.150875
13.083333	1	24.023875
13.100000	1	24.917875
13.116667	1	25.833125
13.133333	1	26.766375
13.150000	1	27.719750
13.166667	1	28.692625
13.183333	1	29.684500
13.200000	1	30.694625
13.216667	1	31.722375
13.233333	1	32.770750
13.250000	1	33.839625
13.266667	1	34.928625
13.283333	1	36.039750
13.300000	1	37.171375
13.316667	1	38.324875
13.333333	1	39.499375
13.350000	1	40.695875
13.366667	1	41.915375
13.383333	1	43.156875
13.400000	1	44.421000
13.416667	1	45.709625
13.433333	1	47.024000
13.450000	1	48.365125
13.466667	1	49.733875
13.483333	1	51.131125
13.500000	1	52.556750
13.516667	1	54.011375
13.533333	1	55.496250
13.550000	1	57.010750
13.566667	1	58.554125
13.583333	1	60.127750
13.600000	1	61.731500
13.616667	1	63.367250
13.633333	1	65.036375
13.650000	1	66.740875
13.666667	1	68.481000
13.683333	1	70.258000
13.700000	1	72.071250
13.716667	1	73.922250
13.733333	1	75.807625
13.750000	1	77.715375
13.766667	1	79.593125
13.783333	1	81.320125
13.800000	1	82.688875
13.816667	1	83.451875
13.833333	1	83.369625
13.850000	1	82.234625
13.866667	1	79.840500
13.883333	1	75.958625
13.900000	1	70.391625
13.916667	1	63.158375
13.933333	1	54.634875
13.950000	1	45.572375
13.966667	1	36.859750
13.983333	1	29.200875
14.000000	1	22.914750
14.016667	1	17.981125
14.033333	1	14.211250
14.050000	1	11.370500
14.066667	1	9.251125
14.083333	1	7.683375
14.100000	1	6.531875
14.116667	1	5.688000
14.133333	1	5.067750
14.150000	1	4.610000
14.166667	1	4.266625
14.183333	1	4.003625
14.200000	1	3.798125
14.216667	1	3.633875
14.233333	1	3.499625
14.250000	1	3.387500
14.266667	1	3.291250
14.283333	1	3.208500
14.300000	1	3.135000
14.316667	1	3.069250
14.333333	1	3.011000
14.350000	1	2.958750
14.366667	1	2.912875
14.383333	1	2.873375
14.400000	1	2.840625
14.416667	1	2.816625
14.433333	1	2.802875
14.450000	1	2.803000
14.466667	1	2.821375
14.483333	1	2.864375
14.500000	1	2.940875
14.516667	1	3.061125
14.533333	1	3.242000
14.550000	1	3.502250
14.566667	1	3.867875
14.583333	1	4.372125
14.600000	1	5.053125
14.616667	1	5.958375
14.633333	1	7.144375
14.650000	1	8.671500
14.666667	1	10.602500
14.683333	1	12.997875
14.700000	1	15.912250
14.716667	1	19.384500
14.733333	1	23.430875
14.750000	1	28.035000
14.766667	1	33.144625
14.783333	1	38.664625
14.800000	1	44.465375
14.816667	1	50.375250
14.833333	1	56.187125
14.850000	1	61.668000
14.866667	1	66.573000
14.883333	1	70.664875
14.900000	1	73.736750
14.916667	1	75.630875
14.933333	1	76.249000
14.950000	1	75.566875
14.966667	1	73.633000
14.983333	1	70.571000
15.000000	1	66.546125
15.016667	1	61.768125
15.033333	1	56.468875
15.050000	1	50.887625
15.066667	1	45.244875
15.083333	1	39.735500
15.100000	1	34.512875
15.116667	1	29.689250
15.133333	1	25.335250
15.150000	1	21.483125
15.166667	1	18.134500
15.183333	1	15.269125
15.200000	1	12.846875
15.216667	1	10.820750
15.233333	1	9.141250
15.250000	1	7.760250
15.266667	1	6.632500
15.283333	1	5.717875
15.300000	1	4.979500
15.316667	1	4.386000
15.333333	1	3.910000
15.350000	1	3.530625
15.366667	1	3.230250
15.383333	1	2.993375
15.400000	1	2.808375
15.416667	1	2.665250
15.433333	1	2.555625
15.450000	1	2.473375
15.466667	1	2.412375
15.483333	1	2.367625
15.500000	1	2.334250
15.516667	1	2.308500
15.533333	1	2.287750
15.550000	1	2.267625
15.566667	1	2.246625
15.583333	1	2.222500
15.600000	1	2.193875
15.616667	1	2.162250
15.633333	1	2.125875
15.650000	1	2.085750
15.666667	1	2.043375
15.683333	1	1.999375
15.700000	1	1.955125
15.716667	1	1.911750
15.733333	1	1.869875
15.750000	1	1.830750
15.766667	1	1.793125
15.783333	1	1.757125
15.800000	1	1.722625
15.816667	1	1.690000
15.833333	1	1.658750
15.850000	1	1.627875
15.866667	1	1.597500
15.883333	1	1.568250
15.900000	1	1.540000
15.916667	1	1.512250
15.933333	1	1.486375
15.950000	1	1.462250
15.966667	1	1.441625
15.983333	1	1.422750
16.000000	1	1.407250
16.016667	1	1.393625
16.033333	1	1.383375
16.050000	1	1.376250
16.066667	1	1.371000
16.083333	1	1.368000
16.100000	1	1.366250
16.116667	1	1.365250
16.133333	1	1.364250
16.150000	1	1.363250
16.166667	1	1.361000
16.183333	1	1.358250
16.200000	1	1.354250
16.216667	1	1.347500
16.233333	1	1.339875
16.250000	1	1.330500
16.266667	1	1.319375
16.283333	1	1.307500
16.300000	1	1.295000
16.316667	1	1.281500
16.333333	1	1.267750
16.350000	1	1.253250
16.366667	1	1.239750
16.383333	1	1.226375
16.400000	1	1.213500
16.416667	1	1.201375
16.433333	1	1.190125
16.450000	1	1.180125
16.466667	1	1.171500
16.483333	1	1.165250
16.500000	1	1.161125
16.516667	1	1.157875
16.533333	1	1.157000
16.550000	1	1.158375
16.566667	1	1.161250
16.583333	1	1.165625
16.600000	1	1.171125
16.616667	1	1.177500
16.633333	1	1.183000
16.650000	1	1.188500
16.666667	1	1.193000
16.683333	1	1.197500
16.700000	1	1.200375
16.716667	1	1.202250
16.733333	1	1.202875
16.750000	1	1.202875
16.766667	1	1.201750
16.783333	1	1.200000
16.800000	1	1.198875
16.816667	1	1.197500
16.833333	1	1.197125
16.850000	1	1.196375
16.866667	1	1.195875
16.883333	1	1.195375
16.900000	1	1.194750
16.916667	1	1.193875
16.933333	1	1.192750
16.950000	1	1.190625
16.966667	1	1.188875
16.983333	1	1.185375
17.000000	1	1.181500
17.016667	1	1.176250
17.033333	1	1.170000
17.050000	1	1.162875
17.066667	1	1.155625
17.083333	1	1.148875
17.100000	1	1.141500
17.116667	1	1.134625
17.133333	1	1.128500
17.150000	1	1.123000
17.166667	1	1.117500
17.183333	1	1.113125
17.200000	1	1.110250
17.216667	1	1.107500
17.233333	1	1.106375
17.250000	1	1.105750
17.266667	1	1.106250
17.283333	1	1.107000
17.300000	1	1.108625
17.316667	1	1.110875
17.333333	1	1.114000
17.350000	1	1.117250
17.366667	1	1.120500
17.383333	1	1.124250
17.400000	1	1.128000
17.416667	1	1.131000
17.433333	1	1.134125
17.450000	1	1.136875
17.466667	1	1.139000
17.483333	1	1.140000
17.500000	1	1.140625
17.516667	1	1.139875
17.533333	1	1.137375
17.550000	1	1.133500
17.566667	1	1.128375
17.583333	1	1.121750
17.600000	1	1.113625
17.616667	1	1.104750
17.633333	1	1.094750
17.650000	1	1.082875
17.666667	1	1.070750
17.683333	1	1.058000
17.700000	1	1.044500
17.716667	1	1.031000
17.733333	1	1.017500
17.750000	1	1.004375
17.766667	1	0.991625
17.783333	1	0.979500
17.800000	1	0.967500
17.816667	1	0.956625
17.833333	1	0.946000
17.850000	1	0.935500
17.866667	1	0.926250
17.883333	1	0.917875
17.900000	1	0.910250
17.916667	1	0.903000
17.933333	1	0.896250
17.950000	1	0.890000
17.966667	1	0.884250
17.983333	1	0.879625
18.000000	1	0.874625
18.016667	1	0.870250
18.033333	1	0.866250
18.050000	1	0.861875
18.066667	1	0.858000
18.083333	1	0.853375
18.100000	1	0.850000
18.116667	1	0.846125
18.133333	1	0.842875
18.150000	1	0.839750
18.166667	1	0.836875
18.183333	1	0.834250
18.200000	1	0.832750
18.216667	1	0.831500
18.233333	1	0.830875
18.250000	1	0.831500
18.266667	1	0.831750
18.283333	1	0.832750
18.300000	1	0.834375
18.316667	1	0.837000
18.333333	1	0.840125
18.350000	1	0.843125
18.366667	1	0.846375
18.383333	1	0.850250
18.400000	1	0.853875
18.416667	1	0.858125
18.433333	1	0.862500
18.450000	1	0.868250
18.466667	1	0.873875
18.483333	1	0.881000
18.500000	1	0.888875
18.516667	1	0.897875
18.533333	1	0.907750
18.550000	1	0.920250
18.566667	1	0.933250
18.583333	1	0.949125
18.600000	1	0.966250
18.616667	1	0.985500
18.633333	1	1.007000
18.650000	1	1.029750
18.666667	1	1.054250
18.683333	1	1.079875
18.700000	1	1.107875
18.716667	1	1.137625
18.733333	1	1.168125
18.750000	1	1.199875
18.766667	1	1.232500
18.783333	1	1.264625
18.800000	1	1.297375
18.816667	1	1.329000
18.833333	1	1.359875
18.850000	1	1.388625
18.866667	1	1.414750
18.883333	1	1.437375
18.900000	1	1.456000
18.916667	1	1.470250
18.933333	1	1.479625
18.950000	1	1.482875
18.966667	1	1.480375
18.983333	1	1.471375
19.000000	1	1.455375
19.016667	1	1.432250
19.033333	1	1.404750
19.050000	1	1.370625
19.066667	1	1.332500
19.083333	1	1.289625
19.100000	1	1.244250
19.116667	1	1.198125
19.133333	1	1.150750
19.150000	1	1.105000
19.166667	1	1.061000
19.183333	1	1.020750
19.200000	1	0.985500
19.216667	1	0.956000
19.233333	1	0.934125
19.250000	1	0.920375
19.266667	1	0.915625
19.283333	1	0.921625
19.300000	1	0.938750
19.316667	1	0.967500
19.333333	1	1.008875
19.350000	1	1.063625
19.366667	1	1.132000
19.383333	1	1.213500
19.400000	1	1.309000
19.416667	1	1.416500
19.433333	1	1.535125
19.450000	1	1.664125
19.466667	1	1.802250
19.483333	1	1.946625
19.500000	1	2.093000
19.516667	1	2.239250
19.533333	1	2.380875
19.550000	1	2.514000
19.566667	1	2.634625
19.583333	1	2.739500
19.600000	1	2.824750
19.616667	1	2.886750
19.633333	1	2.924875
19.650000	1	2.937250
19.666667	1	2.924000
19.683333	1	2.885625
19.700000	1	2.823625
19.716667	1	2.741375
19.733333	1	2.640625
19.750000	1	2.525375
19.766667	1	2.399500
19.783333	1	2.265500
19.800000	1	2.128000
19.816667	1	1.988500
19.833333	1	1.851875
19.850000	1	1.718750
19.866667	1	1.591250
19.883333	1	1.471125
19.900000	1	1.359500
19.916667	1	1.256750
19.933333	1	1.162250
19.950000	1	1.077125
19.966667	1	1.000125
19.983333	1	0.931000
20.000000	1	0.870000
20.016667	1	0.815875
20.033333	1	0.768875
20.050000	1	0.728500
20.066667	1	0.693875
20.083333	1	0.666000
20.100000	1	0.642500
20.116667	1	0.623875
20.133333	1	0.610250
20.150000	1	0.600750
20.166667	1	0.594750
20.183333	1	0.592125
20.200000	1	0.593000
20.216667	1	0.596250
20.233333	1	0.601500
20.250000	1	0.608750
20.266667	1	0.617000
20.283333	1	0.626125
20.300000	1	0.634500
20.316667	1	0.643250
20.333333	1	0.650375
20.350000	1	0.657000
20.366667	1	0.661500
20.383333	1	0.663500
20.400000	1	0.664125
20.416667	1	0.662250
20.433333	1	0.658875
20.450000	1	0.653875
20.466667	1	0.648125
20.483333	1	0.641125
20.500000	1	0.635375
20.516667	1	0.630875
20.533333	1	0.627750
20.550000	1	0.628000
20.566667	1	0.632000
20.583333	1	0.640375
20.600000	1	0.654750
20.616667	1	0.674875
20.633333	1	0.701750
20.650000	1	0.736000
20.666667	1	0.776625
20.683333	1	0.823875
20.700000	1	0.878625
20.716667	1	0.939500
20.733333	1	1.005375
20.750000	1	1.074500
20.766667	1	1.146125
20.783333	1	1.218500
20.800000	1	1.289375
20.816667	1	1.355500
20.833333	1	1.416875
20.850000	1	1.470500
20.866667	1	1.513000
20.883333	1	1.544750
20.900000	1	1.564000
20.916667	1	1.570750
20.933333	1	1.564000
20.950000	1	1.544125
20.966667	1	1.512375
20.983333	1	1.469500
21.000000	1	1.417375
21.016667	1	1.358125
21.033333	1	1.292375
21.050000	1	1.223250
21.066667	1	1.152625
21.083333	1	1.082375
21.100000	1	1.013375
21.116667	1	0.947375
21.133333	1	0.885000
21.150000	1	0.827375
21.166667	1	0.773875
21.183333	1	0.726250
21.200000	1	0.683000
21.216667	1	0.644250
21.233333	1	0.610750
21.250000	1	0.581625
21.266667	1	0.556375
21.283333	1	0.535000
21.300000	1	0.516875
21.316667	1	0.501750
21.333333	1	0.489375
21.350000	1	0.478500
21.366667	1	0.469000
21.383333	1	0.461750
21.400000	1	0.454750
21.416667	1	0.449625
21.433333	1	0.445375
21.450000	1	0.442500
21.466667	1	0.440000
21.483333	1	0.438500
21.500000	1	0.437375
21.516667	1	0.436625
21.533333	1	0.436625
21.550000	1	0.437375
21.566667	1	0.437875
21.583333	1	0.439625
21.600000	1	0.441875
21.616667	1	0.443875
21.633333	1	0.447250
21.650000	1	0.451625
21.666667	1	0.456000
21.683333	1	0.461000
21.700000	1	0.467250
21.716667	1	0.473375
21.733333	1	0.479750
21.750000	1	0.486750
21.766667	1	0.494000
21.783333	1	0.501875
21.800000	1	0.510500
21.816667	1	0.518250
21.833333	1	0.526625
21.850000	1	0.535250
21.866667	1	0.543125
21.883333	1	0.551500
21.900000	1	0.560375
21.916667	1	0.569250
21.933333	1	0.577125
21.950000	1	0.585375
21.966667	1	0.593750
21.983333	1	0.601125
22.000000	1	0.607750
22.016667	1	0.613750
22.033333	1	0.619375
22.050000	1	0.624500
22.066667	1	0.629250
22.083333	1	0.632875
22.100000	1	0.635750
22.116667	1	0.637125
22.133333	1	0.638125
22.150000	1	0.637750
22.166667	1	0.636000
22.183333	1	0.633375
22.200000	1	0.629500
22.216667	1	0.623750
22.233333	1	0.616500
22.250000	1	0.607625
22.266667	1	0.598250
22.283333	1	0.587500
22.300000	1	0.576250
22.316667	1	0.564125
22.333333	1	0.550000
22.350000	1	0.535625
22.366667	1	0.519875
22.383333	1	0.504375
22.400000	1	0.488750
22.416667	1	0.473000
22.433333	1	0.457875
22.450000	1	0.442625
22.466667	1	0.428250
22.483333	1	0.414625
22.500000	1	0.400875
22.516667	1	0.388375
22.533333	1	0.377250
22.550000	1	0.367000
22.566667	1	0.357250
22.583333	1	0.348750
22.600000	1	0.340125
22.616667	1	0.333000
22.633333	1	0.327125
22.650000	1	0.321375
22.666667	1	0.317250
22.683333	1	0.313000
22.700000	1	0.310000
22.716667	1	0.307125
22.733333	1	0.305125
22.750000	1	0.303125
22.766667	1	0.302250
22.783333	1	0.301250
22.800000	1	0.300250
22.816667	1	0.300250
22.833333	1	0.300875
22.850000	1	0.301000
22.866667	1	0.301750
22.883333	1	0.302500
22.900000	1	0.303500
22.916667	1	0.305250
22.933333	1	0.307625
22.950000	1	0.309875
22.966667	1	0.312250
22.983333	1	0.315000
23.000000	1	0.317375
23.016667	1	0.319875
23.033333	1	0.322875
23.050000	1	0.325875
23.066667	1	0.329250
23.083333	1	0.331875
23.100000	1	0.334750
23.116667	1	0.337125
23.133333	1	0.340375
23.150000	1	0.343500
23.166667	1	0.345625
23.183333	1	0.348500
23.200000	1	0.351375
23.216667	1	0.353875
23.233333	1	0.356125
23.250000	1	0.359375
23.266667	1	0.362500
23.283333	1	0.367000
23.300000	1	0.372875
23.316667	1	0.379625
23.333333	1	0.389500
23.350000	1	0.402750
23.366667	1	0.418625
23.383333	1	0.438500
23.400000	1	0.463625
23.416667	1	0.494625
23.433333	1	0.532875
23.450000	1	0.578625
23.466667	1	0.633625
23.483333	1	0.699125
23.500000	1	0.776125
23.516667	1	0.866375
23.533333	1	0.971625
23.550000	1	1.092250
23.566667	1	1.229375
23.583333	1	1.383250
23.600000	1	1.555125
23.616667	1	1.744750
23.633333	1	1.952125
23.650000	1	2.175750
23.666667	1	2.415750
23.683333	1	2.669250
23.700000	1	2.934375
23.716667	1	3.207000
23.733333	1	3.484875
23.750000	1	3.761625
23.766667	1	4.033875
23.783333	1	4.295250
23.800000	1	4.540500
23.816667	1	4.764000
23.833333	1	4.961750
23.850000	1	5.128625
23.866667	1	5.260000
23.883333	1	5.353625
23.900000	1	5.406500
23.916667	1	5.418125
23.933333	1	5.388875
23.950000	1	5.319000
23.966667	1	5.211000
23.983333	1	5.068250
24.000000	1	4.894750
24.016667	1	4.695250
24.033333	1	4.474500
24.050000	1	4.237250
24.066667	1	3.988000
24.083333	1	3.731500
24.100000	1	3.472625
24.116667	1	3.215500
24.133333	1	2.964000
24.150000	1	2.720500
24.166667	1	2.488000
24.183333	1	2.268875
24.200000	1	2.063000
24.216667	1	1.871875
24.233333	1	1.696125
24.250000	1	1.535875
24.266667	1	1.390125
24.283333	1	1.258500
24.300000	1	1.140625
24.316667	1	1.035250
24.333333	1	0.941375
24.350000	1	0.858750
24.366667	1	0.786500
24.383333	1	0.723250
24.400000	1	0.668250
24.416667	1	0.620750
24.433333	1	0.579500
24.450000	1	0.544500
24.466667	1	0.514750
24.483333	1	0.489875
24.500000	1	0.468000
24.516667	1	0.450250
24.533333	1	0.434875
24.550000	1	0.420750
24.566667	1	0.409875
24.583333	1	0.400500
24.600000	1	0.392250
24.616667	1	0.384500
24.633333	1	0.378000
24.650000	1	0.372750
24.666667	1	0.367625
24.683333	1	0.363625
24.700000	1	0.359125
24.716667	1	0.355000
24.733333	1	0.351375
24.750000	1	0.347125
24.766667	1	0.343375
24.783333	1	0.339750
24.800000	1	0.336875
24.816667	1	0.333375
24.833333	1	0.330750
24.850000	1	0.328000
24.866667	1	0.325625
24.883333	1	0.323750
24.900000	1	0.321625
24.916667	1	0.319875
24.933333	1	0.318500
24.950000	1	0.316750
24.966667	1	0.314500
24.983333	1	0.312625
25.000000	1	0.311500
25.016667	1	0.310000
25.033333	1	0.308250
25.050000	1	0.306500
25.066667	1	0.304875
25.083333	1	0.303250
25.100000	1	0.301125
25.116667	1	0.299375
25.133333	1	0.297375
25.150000	1	0.294625
25.166667	1	0.291875
25.183333	1	0.289625
25.200000	1	0.287875
25.216667	1	0.285250
25.233333	1	0.282625
25.250000	1	0.279875
25.266667	1	0.277625
25.283333	1	0.275625
25.300000	1	0.272875
25.316667	1	0.270375
25.333333	1	0.267375
25.350000	1	0.266000
25.366667	1	0.264125
25.383333	1	0.262750
25.400000	1	0.260750
25.416667	1	0.260125
25.433333	1	0.260000
25.450000	1	0.259750
25.466667	1	0.260125
25.483333	1	0.260750
25.500000	1	0.261250
25.516667	1	0.262500
25.533333	1	0.263875
25.550000	1	0.265500
25.566667	1	0.267875
25.583333	1	0.270250
25.600000	1	0.273000
25.616667	1	0.275375
25.633333	1	0.278500
25.650000	1	0.281500
25.666667	1	0.285500
25.683333	1	0.289625
25.700000	1	0.294250
25.716667	1	0.298500
25.733333	1	0.302625
25.750000	1	0.307250
25.766667	1	0.311750
25.783333	1	0.316375
25.800000	1	0.321375
25.816667	1	0.326875
25.833333	1	0.332125
25.850000	1	0.337375
25.866667	1	0.343750
25.883333	1	0.349625
25.900000	1	0.355500
25.916667	1	0.361625
25.933333	1	0.367000
25.950000	1	0.372750
25.966667	1	0.378000
25.983333	1	0.383875
26.000000	1	0.389625
26.016667	1	0.395125
26.033333	1	0.400375
26.050000	1	0.404875
26.066667	1	0.408375
26.083333	1	0.412250
26.100000	1	0.416500
26.116667	1	0.419500
26.133333	1	0.422125
26.150000	1	0.424125
26.166667	1	0.425250
26.183333	1	0.425500
26.200000	1	0.425375
26.216667	1	0.424375
26.233333	1	0.422375
26.250000	1	0.420375
26.266667	1	0.416875
26.283333	1	0.412500
26.300000	1	0.407125
26.316667	1	0.401625
26.333333	1	0.395250
26.350000	1	0.388125
26.366667	1	0.380625
26.383333	1	0.372250
26.400000	1	0.363750
26.416667	1	0.354500
26.433333	1	0.346375
26.450000	1	0.337375
26.466667	1	0.328000
26.483333	1	0.318875
26.500000	1	0.309375
26.516667	1	0.300000
26.533333	1	0.291375
26.550000	1	0.282000
26.566667	1	0.273250
26.583333	1	0.265000
26.600000	1	0.257375
26.616667	1	0.250250
26.633333	1	0.243500
26.650000	1	0.237375
26.666667	1	0.231125
26.683333	1	0.226000
26.700000	1	0.220750
26.716667	1	0.215750
26.733333	1	0.211500
26.750000	1	0.208000
26.766667	1	0.203875
26.783333	1	0.201000
26.800000	1	0.198250
26.816667	1	0.195625
26.833333	1	0.194000
26.850000	1	0.192500
26.866667	1	0.191250
26.883333	1	0.190375
26.900000	1	0.189750
26.916667	1	0.189500
26.933333	1	0.188875
26.950000	1	0.187875
26.966667	1	0.187375
26.983333	1	0.187000
27.000000	1	0.187250
27.016667	1	0.188625
27.033333	1	0.189500
27.050000	1	0.191125
27.066667	1	0.193500
27.083333	1	0.196000
27.100000	1	0.200750
27.116667	1	0.205750
27.133333	1	0.210875
27.150000	1	0.217750
27.166667	1	0.226375
27.183333	1	0.236500
27.200000	1	0.249250
27.216667	1	0.264000
27.233333	1	0.281625
27.250000	1	0.301750
27.266667	1	0.325250
27.283333	1	0.352250
27.300000	1	0.383625
27.316667	1	0.419375
27.333333	1	0.460875
27.350000	1	0.507625
27.366667	1	0.561000
27.383333	1	0.621125
27.400000	1	0.688875
27.416667	1	0.764250
27.433333	1	0.847750
27.450000	1	0.941000
27.466667	1	1.042750
27.483333	1	1.154500
27.500000	1	1.276625
27.516667	1	1.408375
27.533333	1	1.548625
27.550000	1	1.698875
27.566667	1	1.857500
27.583333	1	2.023750
27.600000	1	2.196625
27.616667	1	2.375500
27.633333	1	2.558500
27.650000	1	2.743875
27.666667	1	2.929875
27.683333	1	3.114250
27.700000	1	3.294125
27.716667	1	3.467750
27.733333	1	3.631125
27.750000	1	3.783000
27.766667	1	3.920375
27.783333	1	4.041250
27.800000	1	4.142500
27.816667	1	4.223000
27.833333	1	4.280125
27.850000	1	4.314125
27.866667	1	4.323000
27.883333	1	4.307000
27.900000	1	4.266625
27.916667	1	4.200750
27.933333	1	4.111750
27.950000	1	4.001625
27.966667	1	3.872250
27.983333	1	3.726250
28.000000	1	3.565000
28.016667	1	3.392250
28.033333	1	3.210250
28.050000	1	3.021625
28.066667	1	2.829625
28.083333	1	2.637875
28.100000	1	2.448000
28.116667	1	2.261250
28.133333	1	2.081250
28.150000	1	1.909375
28.166667	1	1.746250
28.183333	1	1.593500
28.200000	1	1.451625
28.216667	1	1.320750
28.233333	1	1.200000
28.250000	1	1.091250
28.266667	1	0.992875
28.283333	1	0.905125
28.300000	1	0.827500
28.316667	1	0.759250
28.333333	1	0.699500
28.350000	1	0.648000
28.366667	1	0.603750
28.383333	1	0.567375
28.400000	1	0.537500
28.416667	1	0.512750
28.433333	1	0.493375
28.450000	1	0.478625
28.466667	1	0.468375
28.483333	1	0.461625
28.500000	1	0.458625
28.516667	1	0.456750
28.533333	1	0.458250
28.550000	1	0.461625
28.566667	1	0.468000
28.583333	1	0.475000
28.600000	1	0.484000
28.616667	1	0.493500
28.633333	1	0.503750
28.650000	1	0.514375
28.666667	1	0.525625
28.683333	1	0.536250
28.700000	1	0.547875
28.716667	1	0.558375
28.733333	1	0.568375
28.750000	1	0.578250
28.766667	1	0.587625
28.783333	1	0.595500
28.800000	1	0.603125
28.816667	1	0.609875
28.833333	1	0.615250
28.850000	1	0.619750
28.866667	1	0.623125
28.883333	1	0.625125
28.900000	1	0.625500
28.916667	1	0.624500
28.933333	1	0.622500
28.950000	1	0.620250
28.966667	1	0.615250
28.983333	1	0.610000
29.000000	1	0.603125
29.016667	1	0.595000
29.033333	1	0.586000
29.050000	1	0.575500
29.066667	1	0.563875
29.083333	1	0.551375
29.100000	1	0.538500
29.116667	1	0.524125
29.133333	1	0.509250
29.150000	1	0.493625
29.166667	1	0.477500
29.183333	1	0.460375
29.200000	1	0.444500
29.216667	1	0.427125
29.233333	1	0.410500
29.250000	1	0.392750
29.266667	1	0.375625
29.283333	1	0.358750
29.300000	1	0.341375
29.316667	1	0.324750
29.333333	1	0.308500
29.350000	1	0.292875
29.366667	1	0.277875
29.383333	1	0.262375
29.400000	1	0.248500
29.416667	1	0.235250
29.433333	1	0.222000
29.450000	1	0.209000
29.466667	1	0.197500
29.483333	1	0.186625
29.500000	1	0.176750
29.516667	1	0.167625
29.533333	1	0.159000
29.550000	1	0.150875
29.566667	1	0.144125
29.583333	1	0.137375
29.600000	1	0.132000
29.616667	1	0.127750
29.633333	1	0.123375
29.650000	1	0.119375
29.666667	1	0.116375
29.683333	1	0.113875
29.700000	1	0.112500
29.716667	1	0.111750
29.733333	1	0.110625
29.750000	1	0.111000
29.766667	1	0.110625
29.783333	1	0.111500
29.800000	1	0.112750
29.816667	1	0.114250
29.833333	1	0.115625
29.850000	1	0.117750
29.866667	1	0.119875
29.883333	1	0.122125
29.900000	1	0.124500
29.916667	1	0.126750
29.933333	1	0.128625
29.950000	1	0.131000
29.966667	1	0.132875
29.983333	1	0.133875
30.000000	1	0.136000
30.016667	1	0.137625
30.033333	1	0.139125
30.050000	1	0.139750
30.066667	1	0.140625
30.083333	1	0.142375
30.100000	1	0.143500
30.116667	1	0.144000
30.133333	1	0.143250
30.150000	1	0.142875
30.166667	1	0.142500
30.183333	1	0.142000
30.200000	1	0.142125
30.216667	1	0.141500
30.233333	1	0.141500
30.250000	1	0.141250
30.266667	1	0.140375
30.283333	1	0.140000
30.300000	1	0.139875
30.316667	1	0.139875
30.333333	1	0.139375
30.350000	1	0.139875
30.366667	1	0.140500
30.383333	1	0.141000
30.400000	1	0.142375
30.416667	1	0.144250
30.433333	1	0.146000
30.450000	1	0.148750
30.466667	1	0.151875
30.483333	1	0.155375
30.500000	1	0.158625
30.516667	1	0.161875
30.533333	1	0.166625
30.550000	1	0.172125
30.566667	1	0.178625
30.583333	1	0.185000
30.600000	1	0.193000
30.616667	1	0.200750
30.633333	1	0.209000
30.650000	1	0.218250
30.666667	1	0.228000
30.683333	1	0.238000
30.700000	1	0.249750
30.716667	1	0.261750
30.733333	1	0.274625
30.750000	1	0.289250
30.766667	1	0.304500
30.783333	1	0.321125
30.800000	1	0.339625
30.816667	1	0.358875
30.833333	1	0.380875
30.850000	1	0.404500
30.866667	1	0.431250
30.883333	1	0.461625
30.900000	1	0.494875
30.916667	1	0.531250
30.933333	1	0.572125
30.950000	1	0.617375
30.966667	1	0.667750
30.983333	1	0.723625
31.000000	1	0.786250
31.016667	1	0.855000
31.033333	1	0.931000
31.050000	1	1.014625
31.066667	1	1.106250
31.083333	1	1.205875
31.100000	1	1.314000
31.116667	1	1.431125
31.133333	1	1.556125
31.150000	1	1.690250
31.166667	1	1.832500
31.183333	1	1.982500
31.200000	1	2.140375
31.216667	1	2.304500
31.233333	1	2.474000
31.250000	1	2.647250
31.266667	1	2.822625
31.283333	1	2.999875
31.300000	1	3.176000
31.316667	1	3.350250
31.333333	1	3.520125
31.350000	1	3.683250
31.366667	1	3.837500
31.383333	1	3.981625
31.400000	1	4.113125
31.416667	1	4.231250
31.433333	1	4.333750
31.450000	1	4.418125
31.466667	1	4.483875
31.483333	1	4.530500
31.500000	1	4.557375
31.516667	1	4.563250
31.533333	1	4.548750
31.550000	1	4.514375
31.566667	1	4.459875
31.583333	1	4.386750
31.600000	1	4.295875
31.616667	1	4.188500
31.633333	1	4.066250
31.650000	1	3.930625
31.666667	1	3.784875
31.683333	1	3.628875
31.700000	1	3.465625
31.716667	1	3.296625
31.733333	1	3.124125
31.750000	1	2.949625
31.766667	1	2.776000
31.783333	1	2.603000
31.800000	1	2.432125
31.816667	1	2.265375
31.833333	1	2.103375
31.850000	1	1.947750
31.866667	1	1.797875
31.883333	1	1.655875
31.900000	1	1.521250
31.916667	1	1.394625
31.933333	1	1.276000
31.950000	1	1.166375
31.966667	1	1.063875
31.983333	1	0.969750
32.000000	1	0.882250
32.016667	1	0.802500
32.033333	1	0.729875
32.050000	1	0.663250
32.066667	1	0.602750
32.083333	1	0.547750
32.100000	1	0.498250
32.116667	1	0.454000
32.133333	1	0.413875
32.150000	1	0.377875
32.166667	1	0.345125
32.183333	1	0.316500
32.200000	1	0.290375
32.216667	1	0.267000
32.233333	1	0.246125
32.250000	1	0.227125
32.266667	1	0.209750
32.283333	1	0.194500
32.300000	1	0.180500
32.316667	1	0.168125
32.333333	1	0.157000
32.350000	1	0.147375
32.366667	1	0.138500
32.383333	1	0.130500
32.400000	1	0.122875
32.416667	1	0.116000
32.433333	1	0.109375
32.450000	1	0.103875
32.466667	1	0.099375
32.483333	1	0.094375
32.500000	1	0.090125
32.516667	1	0.086625
32.533333	1	0.083375
32.550000	1	0.080250
32.566667	1	0.077125
32.583333	1	0.074500
32.600000	1	0.072125
32.616667	1	0.070125
32.633333	1	0.068500
32.650000	1	0.066125
32.666667	1	0.064250
32.683333	1	0.061625
32.700000	1	0.059250
32.716667	1	0.057375
32.733333	1	0.055500
32.750000	1	0.053625
32.766667	1	0.051625
32.783333	1	0.049125
32.800000	1	0.046875
32.816667	1	0.043750
32.833333	1	0.041125
32.850000	1	0.038500
32.866667	1	0.035125
32.883333	1	0.032500
32.900000	1	0.030625
32.916667	1	0.027375
32.933333	1	0.024000
32.950000	1	0.021125
32.966667	1	0.018375
32.983333	1	0.016500
33.000000	1	0.013875
33.016667	1	0.011125
33.033333	1	0.008875
33.050000	1	0.006625
33.066667	1	0.004125
33.083333	1	0.002750
33.100000	1	0.000750
33.116667	1	-0.000375
33.133333	1	-0.001750
33.150000	1	-0.002625
33.166667	1	-0.003375
33.183333	1	-0.003625
33.200000	1	-0.004000
33.216667	1	-0.004625
33.233333	1	-0.004500
33.250000	1	-0.004000
33.266667	1	-0.003375
33.283333	1	-0.002250
33.300000	1	-0.001000
33.316667	1	0.000625
33.333333	1	0.002750
33.350000	1	0.004375
33.366667	1	0.006500
33.383333	1	0.008875
33.400000	1	0.011500
33.416667	1	0.014375
33.433333	1	0.017750
33.450000	1	0.021500
33.466667	1	0.024500
33.483333	1	0.027750
33.500000	1	0.030625
33.516667	1	0.034125
33.533333	1	0.037625
33.550000	1	0.041000
33.566667	1	0.044500
33.583333	1	0.047875
33.600000	1	0.051000
33.616667	1	0.054125
33.633333	1	0.057250
33.650000	1	0.059875
33.666667	1	0.062250
33.683333	1	0.064500
33.700000	1	0.066375
33.716667	1	0.068875
33.733333	1	0.071000
33.750000	1	0.072750
33.766667	1	0.073625
33.783333	1	0.075000
33.800000	1	0.076375
33.816667	1	0.076875
33.833333	1	0.077375
33.850000	1	0.077625
33.866667	1	0.078375
33.883333	1	0.079125
33.900000	1	0.079125
33.916667	1	0.079250
33.933333	1	0.078875
33.950000	1	0.078250
33.966667	1	0.077625
33.983333	1	0.077750
34.000000	1	0.077625
34.016667	1	0.077000
34.033333	1	0.076375
34.050000	1	0.075125
34.066667	1	0.074500
34.083333	1	0.073875
34.100000	1	0.073375
34.116667	1	0.073500
34.133333	1	0.073375
34.150000	1	0.073125
34.166667	1	0.072625
34.183333	1	0.071750
34.200000	1	0.072750
34.216667	1	0.073000
34.233333	1	0.073250
34.250000	1	0.073250
34.266667	1	0.073250
34.283333	1	0.074375
34.300000	1	0.075625
34.316667	1	0.076625
34.333333	1	0.078250
34.350000	1	0.079875
34.366667	1	0.082500
34.383333	1	0.085250
34.400000	1	0.087875
34.416667	1	0.090750
34.433333	1	0.093750
34.450000	1	0.097375
34.466667	1	0.100875
34.483333	1	0.104750
34.500000	1	0.108750
34.516667	1	0.113500
34.533333	1	0.118500
34.550000	1	0.123625
34.566667	1	0.128500
34.583333	1	0.134250
34.600000	1	0.139500
34.616667	1	0.144875
34.633333	1	0.149750
34.650000	1	0.155000
34.666667	1	0.160375
34.683333	1	0.165625
34.700000	1	0.171125
34.716667	1	0.175750
34.733333	1	0.181125
34.750000	1	0.186000
34.766667	1	0.190750
34.783333	1	0.194875
34.800000	1	0.199000
34.816667	1	0.202500
34.833333	1	0.205500
34.850000	1	0.208875
34.866667	1	0.212000
34.883333	1	0.214250
34.900000	1	0.216250
34.916667	1	0.219250
34.933333	1	0.220875
34.950000	1	0.222125
34.966667	1	0.223000
34.983333	1	0.223375
35.000000	1	0.225125
35.016667	1	0.225625
35.033333	1	0.225625
35.050000	1	0.225500
35.066667	1	0.225000
35.083333	1	0.224000
35.100000	1	0.223625
35.116667	1	0.223250
35.133333	1	0.222375
35.150000	1	0.221125
35.166667	1	0.219750
35.183333	1	0.219250
35.200000	1	0.217625
35.216667	1	0.215875
35.233333	1	0.214125
35.250000	1	0.212500
35.266667	1	0.210875
35.283333	1	0.209625
35.300000	1	0.207750
35.316667	1	0.206250
35.333333	1	0.204500
35.350000	1	0.202000
35.366667	1	0.200375
35.383333	1	0.198625
35.400000	1	0.196875
35.416667	1	0.194625
35.433333	1	0.192625
35.450000	1	0.189750
35.466667	1	0.187750
35.483333	1	0.185375
35.500000	1	0.183125
35.516667	1	0.180875
35.533333	1	0.178000
35.550000	1	0.174875
35.566667	1	0.171625
35.583333	1	0.168625
35.600000	1	0.165250
35.616667	1	0.161875
35.633333	1	0.158375
35.650000	1	0.154375
35.666667	1	0.150375
35.683333	1	0.146750
35.700000	1	0.142875
35.716667	1	0.138875
35.733333	1	0.134375
35.750000	1	0.130250
35.766667	1	0.126375
35.783333	1	0.122500
35.800000	1	0.119000
35.816667	1	0.114500
35.833333	1	0.111250
35.850000	1	0.107375
35.866667	1	0.104000
35.883333	1	0.100500
35.900000	1	0.096875
35.916667	1	0.093875
35.933333	1	0.091625
35.950000	1	0.088500
35.966667	1	0.086375
35.983333	1	0.084000
36.000000	1	0.082000
36.016667	1	0.080250
36.033333	1	0.078625
36.050000	1	0.077375
36.066667	1	0.075750
36.083333	1	0.075000
36.100000	1	0.074250
36.116667	1	0.073750
36.133333	1	0.073125
36.150000	1	0.072875
36.166667	1	0.072500
36.183333	1	0.072375
36.200000	1	0.071375
36.216667	1	0.070875
36.233333	1	0.070750
36.250000	1	0.070750
36.266667	1	0.070500
36.283333	1	0.070875
36.300000	1	0.070875
36.316667	1	0.070250
36.333333	1	0.069875
36.350000	1	0.069125
36.366667	1	0.068125
36.383333	1	0.067625
36.400000	1	0.066875
36.416667	1	0.066500
36.433333	1	0.066000
36.450000	1	0.064875
36.466667	1	0.063750
36.483333	1	0.062250
36.500000	1	0.061375
36.516667	1	0.060500
36.533333	1	0.059000
36.550000	1	0.057375
36.566667	1	0.055875
36.583333	1	0.053750
36.600000	1	0.051875
36.616667	1	0.050125
36.633333	1	0.048625
36.650000	1	0.047875
36.666667	1	0.045500
36.683333	1	0.044125
36.700000	1	0.042500
36.716667	1	0.041375
36.733333	1	0.040000
36.750000	1	0.038250
36.766667	1	0.037250
36.783333	1	0.036375
36.800000	1	0.035750
36.816667	1	0.034250
36.833333	1	0.033375
36.850000	1	0.032000
36.866667	1	0.031625
36.883333	1	0.031000
36.900000	1	0.030125
36.916667	1	0.029750
36.933333	1	0.029500
36.950000	1	0.029125
36.966667	1	0.028625
36.983333	1	0.028000
37.000000	1	0.028125
37.016667	1	0.027500
37.033333	1	0.027000
37.050000	1	0.026875
37.066667	1	0.026750
37.083333	1	0.027250
37.100000	1	0.027375
37.116667	1	0.027750
37.133333	1	0.027250
37.150000	1	0.027750
37.166667	1	0.027250
37.183333	1	0.027500
37.200000	1	0.027875
37.216667	1	0.028125
37.233333	1	0.028375
37.250000	1	0.029000
37.266667	1	0.030125
37.283333	1	0.031250
37.300000	1	0.031625
37.316667	1	0.031750
37.333333	1	0.033000
37.350000	1	0.033625
37.366667	1	0.034500
37.383333	1	0.035875
37.400000	1	0.036000
37.416667	1	0.036500
37.433333	1	0.037625
37.450000	1	0.038250
37.466667	1	0.039375
37.483333	1	0.040250
37.500000	1	0.041875
37.516667	1	0.042750
37.533333	1	0.044375
37.550000	1	0.045250
37.566667	1	0.046000
37.583333	1	0.046875
37.600000	1	0.047375
37.616667	1	0.048000
37.633333	1	0.048750
37.650000	1	0.049625
37.666667	1	0.049625
37.683333	1	0.049875
37.700000	1	0.050750
37.716667	1	0.051125
37.733333	1	0.051250
37.750000	1	0.050875
37.766667	1	0.050875
37.783333	1	0.051000
37.800000	1	0.050875
37.816667	1	0.051375
37.833333	1	0.051250
37.850000	1	0.051500
37.866667	1	0.051500
37.883333	1	0.051500
37.900000	1	0.051625
37.916667	1	0.051875
37.933333	1	0.051500
37.950000	1	0.051375
37.966667	1	0.051625
37.983333	1	0.052375
38.000000	1	0.053125
38.016667	1	0.053625
38.033333	1	0.054500
38.050000	1	0.055375
38.066667	1	0.056875
38.083333	1	0.058875
38.100000	1	0.060625
38.116667	1	0.062375
38.133333	1	0.064375
38.150000	1	0.066125
38.166667	1	0.067625
38.183333	1	0.069750
38.200000	1	0.071625
38.216667	1	0.073875
38.233333	1	0.075500
38.250000	1	0.078375
38.266667	1	0.080250
38.283333	1	0.082125
38.300000	1	0.084125
38.316667	1	0.086250
38.333333	1	0.087250
38.350000	1	0.088625
38.366667	1	0.089875
38.383333	1	0.090250
38.400000	1	0.090375
38.416667	1	0.090375
38.433333	1	0.090375
38.450000	1	0.089625
38.466667	1	0.089000
38.483333	1	0.087875
38.500000	1	0.086250
38.516667	1	0.084750
38.533333	1	0.083500
38.550000	1	0.081500
38.566667	1	0.078875
38.583333	1	0.077000
38.600000	1	0.074250
38.616667	1	0.071125
38.633333	1	0.067750
38.650000	1	0.065000
38.666667	1	0.062625
38.683333	1	0.059625
38.700000	1	0.056250
38.716667	1	0.053250
38.733333	1	0.050250
38.750000	1	0.047875
38.766667	1	0.045000
38.783333	1	0.042750
38.800000	1	0.040625
38.816667	1	0.038250
38.833333	1	0.035750
38.850000	1	0.033375
38.866667	1	0.031375
38.883333	1	0.029875
38.900000	1	0.028625
38.916667	1	0.027375
38.933333	1	0.025625
38.950000	1	0.024250
38.966667	1	0.023250
38.983333	1	0.022625
39.000000	1	0.021375
39.016667	1	0.020250
39.033333	1	0.020125
39.050000	1	0.019375
39.066667	1	0.019000
39.083333	1	0.018500
39.100000	1	0.017750
39.116667	1	0.017750
39.133333	1	0.017500
39.150000	1	0.016750
39.166667	1	0.016500
39.183333	1	0.016375
39.200000	1	0.016375
39.216667	1	0.015875
39.233333	1	0.016250
39.250000	1	0.015875
39.266667	1	0.014750
39.283333	1	0.014500
39.300000	1	0.014625
39.316667	1	0.014375
39.333333	1	0.014250
39.350000	1	0.013875
39.366667	1	0.013125
39.383333	1	0.012375
39.400000	1	0.012250
39.416667	1	0.012000
39.433333	1	0.011750
39.450000	1	0.011375
39.466667	1	0.010125
39.483333	1	0.008625
39.500000	1	0.007625
39.516667	1	0.006500
39.533333	1	0.005250
39.550000	1	0.003625
39.566667	1	0.002625
39.583333	1	0.001375
39.600000	1	0.000000
39.616667	1	-0.000750
39.633333	1	-0.001750
39.650000	1	-0.003125
39.666667	1	-0.004625
39.683333	1	-0.005750
39.700000	1	-0.007125
39.716667	1	-0.009125
39.733333	1	-0.009875
39.750000	1	-0.010625
39.766667	1	-0.012375
39.783333	1	-0.013875
39.800000	1	-0.015625
39.816667	1	-0.017000
39.833333	1	-0.018375
39.850000	1	-0.019125
39.866667	1	-0.020375
39.883333	1	-0.021125
39.900000	1	-0.021875
39.916667	1	-0.022750
39.933333	1	-0.023250
39.950000	1	-0.023875
39.966667	1	-0.025375
39.983333	1	-0.026250
40.000000	1	-0.027375
