URL	chrom://bioreactor/micro_cm7/HPLC_Ultimate_3000/Users/markusar/20240708_MA_pHrange1.seq/294.smp/RI_1.channel/RI_1.chm
Channel	RI_1

Injection Information:
Data Vault	micro_cm7
Sequence	20240708_MA_pHrange1
Name	Pv2_5.7_5
Number	26
Position	BC2
Comment	
Processing Method	
Instrument Method	run_25B_method
Type	Unknown
Status	Finished
Inject Time	09.07.2024 08:38:48 +02:00
Volume (µl)	20.0000
Dilution Factor	1.0000
Weight	1.0000

Chromatogram Data Information:
Time Min. (min)	0.000000
Time Max. (min)	40.000000
Data Points	2401
Detector	RI
Generating Data System	Chromeleon 7.3.2.11814
Exporting Data System	Chromeleon 7.3.2.0
Operator	Instrument Controller
Signal Quantity	Refractive 
Signal Unit	µRIU
Signal Min.	-0.066000
Signal Max.	83.480125
Channel	RI_1
Driver Name	RID520Driver.dll
Channel Type	Evaluation
Min. Step (s)	1
Max. Step (s)	1
Average Step (s)	1

Signal Parameter Information:
Signal Info	

Chromatogram Data:
Time (min)	Step (s)	Value (µRIU)
0.000000	n.a.	-0.039250
0.016667	1	-0.040500
0.033333	1	-0.041500
0.050000	1	-0.041375
0.066667	1	-0.041125
0.083333	1	-0.041125
0.100000	1	-0.040750
0.116667	1	-0.040625
0.133333	1	-0.040750
0.150000	1	-0.040125
0.166667	1	-0.039500
0.183333	1	-0.038875
0.200000	1	-0.037875
0.216667	1	-0.037250
0.233333	1	-0.036125
0.250000	1	-0.035000
0.266667	1	-0.033875
0.283333	1	-0.033125
0.300000	1	-0.031875
0.316667	1	-0.030625
0.333333	1	-0.029125
0.350000	1	-0.028125
0.366667	1	-0.027625
0.383333	1	-0.027375
0.400000	1	-0.027125
0.416667	1	-0.025875
0.433333	1	-0.023375
0.450000	1	-0.020500
0.466667	1	-0.017625
0.483333	1	-0.014250
0.500000	1	-0.012000
0.516667	1	-0.009750
0.533333	1	-0.008125
0.550000	1	-0.006500
0.566667	1	-0.006250
0.583333	1	-0.006375
0.600000	1	-0.005750
0.616667	1	-0.005500
0.633333	1	-0.004750
0.650000	1	-0.003500
0.666667	1	-0.001750
0.683333	1	-0.000750
0.700000	1	-0.000375
0.716667	1	0.000375
0.733333	1	0.001500
0.750000	1	0.003250
0.766667	1	0.005000
0.783333	1	0.006250
0.800000	1	0.007250
0.816667	1	0.008125
0.833333	1	0.009000
0.850000	1	0.010000
0.866667	1	0.010750
0.883333	1	0.010875
0.900000	1	0.011375
0.916667	1	0.011375
0.933333	1	0.011125
0.950000	1	0.011500
0.966667	1	0.011750
0.983333	1	0.011875
1.000000	1	0.010875
1.016667	1	0.009875
1.033333	1	0.009500
1.050000	1	0.009250
1.066667	1	0.008625
1.083333	1	0.008125
1.100000	1	0.007500
1.116667	1	0.007250
1.133333	1	0.005500
1.150000	1	0.003875
1.166667	1	0.001875
1.183333	1	0.000625
1.200000	1	-0.000625
1.216667	1	-0.002375
1.233333	1	-0.003250
1.250000	1	-0.004750
1.266667	1	-0.006000
1.283333	1	-0.007250
1.300000	1	-0.008250
1.316667	1	-0.010375
1.333333	1	-0.011875
1.350000	1	-0.013375
1.366667	1	-0.014875
1.383333	1	-0.016625
1.400000	1	-0.017375
1.416667	1	-0.018500
1.433333	1	-0.020250
1.450000	1	-0.021000
1.466667	1	-0.022125
1.483333	1	-0.022875
1.500000	1	-0.023625
1.516667	1	-0.024375
1.533333	1	-0.025125
1.550000	1	-0.025750
1.566667	1	-0.026375
1.583333	1	-0.027000
1.600000	1	-0.028750
1.616667	1	-0.029250
1.633333	1	-0.030000
1.650000	1	-0.030125
1.666667	1	-0.031250
1.683333	1	-0.031625
1.700000	1	-0.031500
1.716667	1	-0.031625
1.733333	1	-0.032750
1.750000	1	-0.033750
1.766667	1	-0.034625
1.783333	1	-0.034875
1.800000	1	-0.035750
1.816667	1	-0.035875
1.833333	1	-0.036625
1.850000	1	-0.037000
1.866667	1	-0.037625
1.883333	1	-0.037500
1.900000	1	-0.038000
1.916667	1	-0.038750
1.933333	1	-0.039750
1.950000	1	-0.040375
1.966667	1	-0.041625
1.983333	1	-0.042750
2.000000	1	-0.043625
2.016667	1	-0.044375
2.033333	1	-0.044250
2.050000	1	-0.045125
2.066667	1	-0.046000
2.083333	1	-0.046875
2.100000	1	-0.047750
2.116667	1	-0.049000
2.133333	1	-0.049500
2.150000	1	-0.050500
2.166667	1	-0.051750
2.183333	1	-0.052375
2.200000	1	-0.053375
2.216667	1	-0.054875
2.233333	1	-0.055000
2.250000	1	-0.055500
2.266667	1	-0.055625
2.283333	1	-0.056250
2.300000	1	-0.056750
2.316667	1	-0.057125
2.333333	1	-0.058375
2.350000	1	-0.058250
2.366667	1	-0.058500
2.383333	1	-0.058500
2.400000	1	-0.058875
2.416667	1	-0.058750
2.433333	1	-0.059375
2.450000	1	-0.059500
2.466667	1	-0.060000
2.483333	1	-0.059500
2.500000	1	-0.060125
2.516667	1	-0.060625
2.533333	1	-0.060750
2.550000	1	-0.060750
2.566667	1	-0.060625
2.583333	1	-0.060750
2.600000	1	-0.061250
2.616667	1	-0.060375
2.633333	1	-0.060000
2.650000	1	-0.060125
2.666667	1	-0.060125
2.683333	1	-0.060000
2.700000	1	-0.060000
2.716667	1	-0.060375
2.733333	1	-0.059750
2.750000	1	-0.058875
2.766667	1	-0.058125
2.783333	1	-0.057750
2.800000	1	-0.057875
2.816667	1	-0.057625
2.833333	1	-0.057750
2.850000	1	-0.057500
2.866667	1	-0.056875
2.883333	1	-0.057250
2.900000	1	-0.058375
2.916667	1	-0.058750
2.933333	1	-0.059000
2.950000	1	-0.059000
2.966667	1	-0.059500
2.983333	1	-0.059125
3.000000	1	-0.058750
3.016667	1	-0.058500
3.033333	1	-0.058500
3.050000	1	-0.058250
3.066667	1	-0.058250
3.083333	1	-0.057500
3.100000	1	-0.057625
3.116667	1	-0.057625
3.133333	1	-0.058000
3.150000	1	-0.057500
3.166667	1	-0.057125
3.183333	1	-0.056250
3.200000	1	-0.055375
3.216667	1	-0.054375
3.233333	1	-0.053375
3.250000	1	-0.052250
3.266667	1	-0.051500
3.283333	1	-0.050625
3.300000	1	-0.049125
3.316667	1	-0.048000
3.333333	1	-0.046125
3.350000	1	-0.043875
3.366667	1	-0.042375
3.383333	1	-0.041125
3.400000	1	-0.039375
3.416667	1	-0.037625
3.433333	1	-0.035625
3.450000	1	-0.033625
3.466667	1	-0.031250
3.483333	1	-0.029125
3.500000	1	-0.027125
3.516667	1	-0.024750
3.533333	1	-0.022500
3.550000	1	-0.020625
3.566667	1	-0.019000
3.583333	1	-0.016500
3.600000	1	-0.015250
3.616667	1	-0.012875
3.633333	1	-0.010375
3.650000	1	-0.008375
3.666667	1	-0.006500
3.683333	1	-0.004625
3.700000	1	-0.003000
3.716667	1	-0.001500
3.733333	1	-0.000125
3.750000	1	0.001125
3.766667	1	0.002625
3.783333	1	0.004500
3.800000	1	0.006000
3.816667	1	0.007500
3.833333	1	0.009250
3.850000	1	0.010500
3.866667	1	0.010750
3.883333	1	0.012000
3.900000	1	0.012625
3.916667	1	0.013250
3.933333	1	0.014125
3.950000	1	0.015250
3.966667	1	0.016375
3.983333	1	0.016750
4.000000	1	0.017875
4.016667	1	0.018125
4.033333	1	0.019375
4.050000	1	0.020125
4.066667	1	0.021125
4.083333	1	0.022500
4.100000	1	0.023375
4.116667	1	0.024250
4.133333	1	0.025625
4.150000	1	0.026750
4.166667	1	0.027750
4.183333	1	0.029125
4.200000	1	0.029875
4.216667	1	0.031875
4.233333	1	0.033375
4.250000	1	0.035125
4.266667	1	0.035625
4.283333	1	0.037000
4.300000	1	0.038875
4.316667	1	0.040125
4.333333	1	0.041500
4.350000	1	0.043125
4.366667	1	0.045125
4.383333	1	0.047250
4.400000	1	0.049250
4.416667	1	0.051000
4.433333	1	0.051875
4.450000	1	0.053750
4.466667	1	0.055625
4.483333	1	0.056500
4.500000	1	0.058250
4.516667	1	0.059625
4.533333	1	0.061125
4.550000	1	0.062625
4.566667	1	0.064125
4.583333	1	0.065250
4.600000	1	0.066500
4.616667	1	0.067250
4.633333	1	0.068125
4.650000	1	0.069750
4.666667	1	0.071625
4.683333	1	0.072750
4.700000	1	0.073875
4.716667	1	0.075125
4.733333	1	0.076500
4.750000	1	0.078125
4.766667	1	0.079500
4.783333	1	0.081125
4.800000	1	0.082875
4.816667	1	0.084250
4.833333	1	0.085500
4.850000	1	0.087750
4.866667	1	0.090000
4.883333	1	0.092500
4.900000	1	0.094500
4.916667	1	0.096500
4.933333	1	0.099250
4.950000	1	0.101250
4.966667	1	0.103625
4.983333	1	0.106375
5.000000	1	0.109000
5.016667	1	0.112250
5.033333	1	0.116000
5.050000	1	0.119125
5.066667	1	0.122250
5.083333	1	0.125875
5.100000	1	0.129625
5.116667	1	0.133250
5.133333	1	0.136875
5.150000	1	0.140625
5.166667	1	0.144750
5.183333	1	0.149375
5.200000	1	0.154000
5.216667	1	0.158250
5.233333	1	0.162625
5.250000	1	0.166125
5.266667	1	0.170625
5.283333	1	0.176000
5.300000	1	0.179875
5.316667	1	0.184750
5.333333	1	0.189000
5.350000	1	0.192500
5.366667	1	0.196625
5.383333	1	0.201125
5.400000	1	0.204750
5.416667	1	0.208500
5.433333	1	0.211875
5.450000	1	0.214625
5.466667	1	0.217625
5.483333	1	0.220125
5.500000	1	0.222500
5.516667	1	0.224875
5.533333	1	0.227000
5.550000	1	0.228500
5.566667	1	0.229625
5.583333	1	0.230875
5.600000	1	0.231250
5.616667	1	0.232000
5.633333	1	0.232125
5.650000	1	0.232000
5.666667	1	0.231000
5.683333	1	0.230000
5.700000	1	0.228500
5.716667	1	0.226375
5.733333	1	0.224500
5.750000	1	0.223000
5.766667	1	0.220375
5.783333	1	0.218375
5.800000	1	0.216000
5.816667	1	0.212875
5.833333	1	0.209250
5.850000	1	0.205125
5.866667	1	0.201625
5.883333	1	0.197625
5.900000	1	0.193875
5.916667	1	0.190000
5.933333	1	0.186000
5.950000	1	0.182000
5.966667	1	0.178375
5.983333	1	0.173625
6.000000	1	0.169000
6.016667	1	0.164875
6.033333	1	0.160375
6.050000	1	0.155625
6.066667	1	0.151125
6.083333	1	0.146625
6.100000	1	0.142250
6.116667	1	0.137375
6.133333	1	0.133125
6.150000	1	0.128625
6.166667	1	0.124125
6.183333	1	0.120500
6.200000	1	0.116000
6.216667	1	0.111375
6.233333	1	0.107750
6.250000	1	0.103250
6.266667	1	0.099750
6.283333	1	0.096000
6.300000	1	0.092500
6.316667	1	0.089125
6.333333	1	0.085750
6.350000	1	0.082250
6.366667	1	0.078125
6.383333	1	0.074625
6.400000	1	0.071250
6.416667	1	0.067625
6.433333	1	0.064750
6.450000	1	0.061750
6.466667	1	0.059625
6.483333	1	0.057500
6.500000	1	0.055125
6.516667	1	0.053500
6.533333	1	0.051250
6.550000	1	0.049375
6.566667	1	0.047875
6.583333	1	0.046750
6.600000	1	0.045750
6.616667	1	0.044250
6.633333	1	0.042875
6.650000	1	0.041500
6.666667	1	0.039750
6.683333	1	0.038750
6.700000	1	0.037625
6.716667	1	0.037125
6.733333	1	0.035625
6.750000	1	0.035125
6.766667	1	0.035000
6.783333	1	0.034000
6.800000	1	0.033250
6.816667	1	0.032250
6.833333	1	0.031500
6.850000	1	0.032000
6.866667	1	0.032000
6.883333	1	0.032250
6.900000	1	0.031750
6.916667	1	0.031875
6.933333	1	0.032375
6.950000	1	0.033000
6.966667	1	0.033875
6.983333	1	0.034750
7.000000	1	0.035500
7.016667	1	0.036250
7.033333	1	0.037375
7.050000	1	0.038625
7.066667	1	0.040000
7.083333	1	0.041125
7.100000	1	0.042875
7.116667	1	0.045000
7.133333	1	0.047125
7.150000	1	0.048875
7.166667	1	0.051375
7.183333	1	0.053625
7.200000	1	0.055500
7.216667	1	0.057750
7.233333	1	0.060000
7.250000	1	0.062125
7.266667	1	0.063875
7.283333	1	0.065625
7.300000	1	0.067625
7.316667	1	0.069625
7.333333	1	0.071750
7.350000	1	0.073375
7.366667	1	0.075125
7.383333	1	0.076375
7.400000	1	0.078250
7.416667	1	0.079250
7.433333	1	0.080625
7.450000	1	0.081125
7.466667	1	0.081500
7.483333	1	0.082125
7.500000	1	0.082000
7.516667	1	0.080625
7.533333	1	0.079625
7.550000	1	0.078750
7.566667	1	0.077000
7.583333	1	0.075250
7.600000	1	0.073750
7.616667	1	0.071625
7.633333	1	0.069375
7.650000	1	0.066250
7.666667	1	0.063250
7.683333	1	0.060250
7.700000	1	0.057250
7.716667	1	0.053875
7.733333	1	0.051125
7.750000	1	0.047625
7.766667	1	0.043875
7.783333	1	0.039750
7.800000	1	0.035750
7.816667	1	0.032500
7.833333	1	0.028125
7.850000	1	0.024750
7.866667	1	0.021500
7.883333	1	0.017250
7.900000	1	0.012875
7.916667	1	0.009625
7.933333	1	0.006375
7.950000	1	0.002500
7.966667	1	-0.000750
7.983333	1	-0.004625
8.000000	1	-0.008250
8.016667	1	-0.011500
8.033333	1	-0.015125
8.050000	1	-0.017375
8.066667	1	-0.020125
8.083333	1	-0.023875
8.100000	1	-0.026000
8.116667	1	-0.028000
8.133333	1	-0.030375
8.150000	1	-0.033500
8.166667	1	-0.036625
8.183333	1	-0.038500
8.200000	1	-0.040125
8.216667	1	-0.041750
8.233333	1	-0.043875
8.250000	1	-0.046375
8.266667	1	-0.048500
8.283333	1	-0.050500
8.300000	1	-0.051625
8.316667	1	-0.053000
8.333333	1	-0.054000
8.350000	1	-0.055750
8.366667	1	-0.057000
8.383333	1	-0.057625
8.400000	1	-0.059000
8.416667	1	-0.060125
8.433333	1	-0.060875
8.450000	1	-0.062000
8.466667	1	-0.062500
8.483333	1	-0.062875
8.500000	1	-0.063375
8.516667	1	-0.064625
8.533333	1	-0.064750
8.550000	1	-0.065625
8.566667	1	-0.065875
8.583333	1	-0.066000
8.600000	1	-0.065250
8.616667	1	-0.065000
8.633333	1	-0.065125
8.650000	1	-0.064250
8.666667	1	-0.064000
8.683333	1	-0.063875
8.700000	1	-0.063125
8.716667	1	-0.062250
8.733333	1	-0.061625
8.750000	1	-0.060125
8.766667	1	-0.059000
8.783333	1	-0.057500
8.800000	1	-0.056000
8.816667	1	-0.054375
8.833333	1	-0.052500
8.850000	1	-0.050125
8.866667	1	-0.048500
8.883333	1	-0.046625
8.900000	1	-0.044250
8.916667	1	-0.042500
8.933333	1	-0.040125
8.950000	1	-0.037875
8.966667	1	-0.035375
8.983333	1	-0.032750
9.000000	1	-0.030125
9.016667	1	-0.027625
9.033333	1	-0.025625
9.050000	1	-0.022625
9.066667	1	-0.020000
9.083333	1	-0.017750
9.100000	1	-0.014875
9.116667	1	-0.013000
9.133333	1	-0.010750
9.150000	1	-0.008875
9.166667	1	-0.007375
9.183333	1	-0.006375
9.200000	1	-0.005250
9.216667	1	-0.003875
9.233333	1	-0.002625
9.250000	1	-0.001250
9.266667	1	-0.000250
9.283333	1	0.001125
9.300000	1	0.002375
9.316667	1	0.003125
9.333333	1	0.003375
9.350000	1	0.004000
9.366667	1	0.003750
9.383333	1	0.003750
9.400000	1	0.003125
9.416667	1	0.003250
9.433333	1	0.002250
9.450000	1	0.001125
9.466667	1	0.000625
9.483333	1	0.000500
9.500000	1	-0.000250
9.516667	1	-0.001125
9.533333	1	-0.001875
9.550000	1	-0.002750
9.566667	1	-0.003250
9.583333	1	-0.003250
9.600000	1	-0.004250
9.616667	1	-0.005375
9.633333	1	-0.007500
9.650000	1	-0.008500
9.666667	1	-0.009625
9.683333	1	-0.010375
9.700000	1	-0.011000
9.716667	1	-0.011250
9.733333	1	-0.012625
9.750000	1	-0.013500
9.766667	1	-0.014125
9.783333	1	-0.015000
9.800000	1	-0.015500
9.816667	1	-0.015875
9.833333	1	-0.016500
9.850000	1	-0.017125
9.866667	1	-0.017000
9.883333	1	-0.017125
9.900000	1	-0.018625
9.916667	1	-0.019750
9.933333	1	-0.020625
9.950000	1	-0.020875
9.966667	1	-0.021625
9.983333	1	-0.021500
10.000000	1	-0.021875
10.016667	1	-0.022250
10.033333	1	-0.021750
10.050000	1	-0.022000
10.066667	1	-0.021500
10.083333	1	-0.020500
10.100000	1	-0.018250
10.116667	1	-0.015625
10.133333	1	-0.012625
10.150000	1	-0.008375
10.166667	1	-0.002875
10.183333	1	0.003125
10.200000	1	0.010500
10.216667	1	0.019625
10.233333	1	0.030375
10.250000	1	0.042750
10.266667	1	0.058500
10.283333	1	0.075375
10.300000	1	0.095250
10.316667	1	0.118375
10.333333	1	0.143000
10.350000	1	0.170000
10.366667	1	0.197750
10.383333	1	0.224875
10.400000	1	0.249375
10.416667	1	0.266625
10.433333	1	0.273125
10.450000	1	0.265750
10.466667	1	0.242000
10.483333	1	0.204625
10.500000	1	0.161875
10.516667	1	0.132375
10.533333	1	0.150000
10.550000	1	0.263250
10.566667	1	0.534875
10.583333	1	1.039000
10.600000	1	1.850000
10.616667	1	3.035500
10.633333	1	4.652375
10.650000	1	6.738375
10.666667	1	9.316625
10.683333	1	12.391250
10.700000	1	15.951000
10.716667	1	19.960875
10.733333	1	24.357625
10.750000	1	29.047500
10.766667	1	33.881750
10.783333	1	38.655250
10.800000	1	43.083625
10.816667	1	46.802500
10.833333	1	49.399500
10.850000	1	50.501375
10.866667	1	49.872875
10.883333	1	47.514125
10.900000	1	43.685375
10.916667	1	38.851500
10.933333	1	33.548375
10.950000	1	28.254375
10.966667	1	23.317625
10.983333	1	18.943375
11.000000	1	15.213750
11.016667	1	12.128250
11.033333	1	9.638375
11.050000	1	7.667500
11.066667	1	6.130375
11.083333	1	4.944375
11.100000	1	4.036250
11.116667	1	3.343625
11.133333	1	2.814875
11.150000	1	2.410500
11.166667	1	2.100125
11.183333	1	1.860375
11.200000	1	1.671375
11.216667	1	1.522000
11.233333	1	1.402125
11.250000	1	1.304750
11.266667	1	1.223875
11.283333	1	1.156125
11.300000	1	1.099125
11.316667	1	1.049625
11.333333	1	1.007875
11.350000	1	0.971250
11.366667	1	0.940000
11.383333	1	0.912250
11.400000	1	0.888500
11.416667	1	0.867250
11.433333	1	0.848875
11.450000	1	0.832875
11.466667	1	0.818500
11.483333	1	0.806125
11.500000	1	0.795625
11.516667	1	0.786750
11.533333	1	0.778375
11.550000	1	0.772125
11.566667	1	0.767250
11.583333	1	0.763250
11.600000	1	0.760875
11.616667	1	0.758875
11.633333	1	0.758125
11.650000	1	0.759000
11.666667	1	0.762000
11.683333	1	0.766500
11.700000	1	0.771500
11.716667	1	0.777500
11.733333	1	0.784875
11.750000	1	0.793000
11.766667	1	0.801750
11.783333	1	0.812125
11.800000	1	0.822625
11.816667	1	0.833000
11.833333	1	0.843500
11.850000	1	0.853125
11.866667	1	0.862000
11.883333	1	0.870500
11.900000	1	0.878250
11.916667	1	0.885625
11.933333	1	0.892000
11.950000	1	0.897500
11.966667	1	0.902375
11.983333	1	0.907125
12.000000	1	0.911125
12.016667	1	0.915375
12.033333	1	0.921000
12.050000	1	0.925875
12.066667	1	0.931625
12.083333	1	0.938000
12.100000	1	0.944250
12.116667	1	0.951625
12.133333	1	0.959125
12.150000	1	0.967500
12.166667	1	0.976375
12.183333	1	0.986375
12.200000	1	0.998125
12.216667	1	1.011000
12.233333	1	1.026625
12.250000	1	1.045625
12.266667	1	1.068750
12.283333	1	1.097000
12.300000	1	1.132375
12.316667	1	1.177625
12.333333	1	1.233875
12.350000	1	1.305750
12.366667	1	1.396250
12.383333	1	1.509500
12.400000	1	1.650125
12.416667	1	1.821375
12.433333	1	2.030125
12.450000	1	2.279500
12.466667	1	2.575625
12.483333	1	2.922125
12.500000	1	3.322875
12.516667	1	3.781250
12.533333	1	4.296375
12.550000	1	4.868375
12.566667	1	5.493625
12.583333	1	6.165250
12.600000	1	6.872125
12.616667	1	7.602000
12.633333	1	8.341250
12.650000	1	9.075750
12.666667	1	9.791500
12.683333	1	10.477500
12.700000	1	11.125625
12.716667	1	11.732875
12.733333	1	12.298125
12.750000	1	12.826500
12.766667	1	13.329875
12.783333	1	13.815375
12.800000	1	14.293875
12.816667	1	14.776500
12.833333	1	15.272750
12.850000	1	15.790000
12.866667	1	16.334125
12.883333	1	16.910125
12.900000	1	17.518875
12.916667	1	18.161500
12.933333	1	18.835875
12.950000	1	19.541750
12.966667	1	20.276750
12.983333	1	21.039000
13.000000	1	21.827125
13.016667	1	22.638750
13.033333	1	23.473625
13.050000	1	24.330625
13.066667	1	25.209875
13.083333	1	26.110750
13.100000	1	27.032750
13.116667	1	27.974375
13.133333	1	28.935500
13.150000	1	29.915500
13.166667	1	30.914875
13.183333	1	31.933125
13.200000	1	32.970875
13.216667	1	34.025875
13.233333	1	35.100000
13.250000	1	36.195500
13.266667	1	37.312000
13.283333	1	38.450750
13.300000	1	39.611250
13.316667	1	40.794125
13.333333	1	42.000375
13.350000	1	43.229375
13.366667	1	44.481750
13.383333	1	45.757375
13.400000	1	47.057250
13.416667	1	48.381875
13.433333	1	49.732250
13.450000	1	51.110125
13.466667	1	52.516875
13.483333	1	53.953625
13.500000	1	55.419250
13.516667	1	56.916750
13.533333	1	58.443625
13.550000	1	60.001250
13.566667	1	61.589625
13.583333	1	63.210500
13.600000	1	64.862625
13.616667	1	66.546375
13.633333	1	68.265375
13.650000	1	70.021000
13.666667	1	71.815250
13.683333	1	73.648375
13.700000	1	75.519250
13.716667	1	77.420250
13.733333	1	79.315000
13.750000	1	81.102875
13.766667	1	82.586375
13.783333	1	83.480125
13.800000	1	83.463000
13.816667	1	82.220000
13.833333	1	79.473500
13.850000	1	75.011625
13.866667	1	68.793375
13.883333	1	61.085750
13.900000	1	52.489500
13.916667	1	43.790625
13.933333	1	35.701750
13.950000	1	28.667875
13.966667	1	22.845875
13.983333	1	18.184875
14.000000	1	14.534750
14.016667	1	11.714125
14.033333	1	9.562250
14.050000	1	7.939375
14.066667	1	6.730000
14.083333	1	5.836375
14.100000	1	5.177000
14.116667	1	4.688500
14.133333	1	4.323250
14.150000	1	4.044750
14.166667	1	3.828000
14.183333	1	3.657750
14.200000	1	3.518625
14.216667	1	3.402750
14.233333	1	3.304750
14.250000	1	3.219500
14.266667	1	3.145125
14.283333	1	3.078750
14.300000	1	3.018875
14.316667	1	2.964625
14.333333	1	2.915750
14.350000	1	2.872000
14.366667	1	2.834125
14.383333	1	2.802500
14.400000	1	2.777750
14.416667	1	2.760250
14.433333	1	2.753250
14.450000	1	2.758625
14.466667	1	2.782125
14.483333	1	2.828500
14.500000	1	2.907875
14.516667	1	3.032250
14.533333	1	3.220000
14.550000	1	3.494000
14.566667	1	3.885250
14.583333	1	4.434250
14.600000	1	5.188375
14.616667	1	6.207125
14.633333	1	7.555875
14.650000	1	9.306125
14.666667	1	11.525125
14.683333	1	14.272625
14.700000	1	17.585125
14.716667	1	21.469750
14.733333	1	25.900500
14.750000	1	30.804875
14.766667	1	36.059125
14.783333	1	41.489375
14.800000	1	46.889375
14.816667	1	52.030000
14.833333	1	56.666875
14.850000	1	60.565000
14.866667	1	63.520000
14.883333	1	65.375875
14.900000	1	66.046250
14.916667	1	65.514750
14.933333	1	63.843375
14.950000	1	61.157625
14.966667	1	57.631500
14.983333	1	53.477000
15.000000	1	48.907000
15.016667	1	44.130000
15.033333	1	39.332750
15.050000	1	34.671125
15.066667	1	30.268250
15.083333	1	26.209125
15.100000	1	22.545250
15.116667	1	19.298000
15.133333	1	16.462625
15.150000	1	14.018000
15.166667	1	11.933375
15.183333	1	10.174125
15.200000	1	8.699000
15.216667	1	7.469875
15.233333	1	6.452125
15.250000	1	5.612250
15.266667	1	4.923625
15.283333	1	4.361000
15.300000	1	3.904875
15.316667	1	3.536500
15.333333	1	3.242875
15.350000	1	3.010875
15.366667	1	2.829750
15.383333	1	2.690875
15.400000	1	2.587250
15.416667	1	2.512750
15.433333	1	2.459625
15.450000	1	2.423500
15.466667	1	2.398000
15.483333	1	2.380500
15.500000	1	2.365250
15.516667	1	2.350750
15.533333	1	2.334000
15.550000	1	2.313375
15.566667	1	2.287125
15.583333	1	2.256125
15.600000	1	2.221000
15.616667	1	2.183000
15.633333	1	2.143500
15.650000	1	2.103000
15.666667	1	2.063375
15.683333	1	2.025000
15.700000	1	1.987750
15.716667	1	1.952875
15.733333	1	1.919625
15.750000	1	1.888000
15.766667	1	1.857625
15.783333	1	1.827625
15.800000	1	1.798625
15.816667	1	1.769000
15.833333	1	1.739750
15.850000	1	1.710625
15.866667	1	1.681750
15.883333	1	1.654625
15.900000	1	1.629000
15.916667	1	1.605875
15.933333	1	1.586750
15.950000	1	1.571125
15.966667	1	1.558625
15.983333	1	1.550375
16.000000	1	1.545375
16.016667	1	1.542750
16.033333	1	1.541125
16.050000	1	1.540875
16.066667	1	1.540750
16.083333	1	1.540000
16.100000	1	1.537125
16.116667	1	1.531750
16.133333	1	1.524625
16.150000	1	1.514875
16.166667	1	1.502875
16.183333	1	1.489250
16.200000	1	1.473250
16.216667	1	1.455750
16.233333	1	1.436750
16.250000	1	1.417000
16.266667	1	1.396375
16.283333	1	1.375750
16.300000	1	1.355375
16.316667	1	1.335750
16.333333	1	1.317000
16.350000	1	1.298125
16.366667	1	1.280750
16.383333	1	1.264875
16.400000	1	1.251500
16.416667	1	1.240250
16.433333	1	1.230875
16.450000	1	1.224125
16.466667	1	1.220500
16.483333	1	1.218625
16.500000	1	1.219875
16.516667	1	1.222625
16.533333	1	1.227125
16.550000	1	1.233375
16.566667	1	1.240500
16.583333	1	1.248250
16.600000	1	1.254375
16.616667	1	1.259000
16.633333	1	1.263500
16.650000	1	1.266125
16.666667	1	1.266625
16.683333	1	1.265625
16.700000	1	1.263875
16.716667	1	1.261000
16.733333	1	1.257500
16.750000	1	1.254500
16.766667	1	1.250625
16.783333	1	1.248625
16.800000	1	1.247375
16.816667	1	1.247750
16.833333	1	1.248625
16.850000	1	1.249375
16.866667	1	1.250750
16.883333	1	1.251875
16.900000	1	1.252250
16.916667	1	1.252500
16.933333	1	1.251625
16.950000	1	1.249375
16.966667	1	1.245500
16.983333	1	1.239625
17.000000	1	1.233375
17.016667	1	1.226375
17.033333	1	1.218750
17.050000	1	1.210750
17.066667	1	1.203125
17.083333	1	1.195500
17.100000	1	1.188250
17.116667	1	1.182125
17.133333	1	1.176750
17.150000	1	1.172750
17.166667	1	1.170625
17.183333	1	1.168625
17.200000	1	1.167750
17.216667	1	1.167750
17.233333	1	1.169750
17.250000	1	1.172125
17.266667	1	1.175750
17.283333	1	1.180125
17.300000	1	1.184750
17.316667	1	1.190000
17.333333	1	1.196000
17.350000	1	1.202250
17.366667	1	1.208625
17.383333	1	1.215250
17.400000	1	1.221375
17.416667	1	1.227875
17.433333	1	1.232750
17.450000	1	1.237000
17.466667	1	1.240875
17.483333	1	1.242750
17.500000	1	1.242750
17.516667	1	1.241375
17.533333	1	1.237375
17.550000	1	1.232250
17.566667	1	1.225875
17.583333	1	1.217500
17.600000	1	1.207500
17.616667	1	1.196500
17.633333	1	1.184875
17.650000	1	1.171500
17.666667	1	1.157875
17.683333	1	1.143375
17.700000	1	1.127875
17.716667	1	1.113125
17.733333	1	1.098000
17.750000	1	1.083875
17.766667	1	1.069625
17.783333	1	1.055625
17.800000	1	1.041375
17.816667	1	1.028125
17.833333	1	1.015500
17.850000	1	1.002375
17.866667	1	0.990000
17.883333	1	0.978125
17.900000	1	0.967000
17.916667	1	0.955750
17.933333	1	0.945125
17.950000	1	0.934125
17.966667	1	0.924500
17.983333	1	0.915250
18.000000	1	0.906250
18.016667	1	0.895750
18.033333	1	0.885625
18.050000	1	0.876125
18.066667	1	0.866750
18.083333	1	0.856875
18.100000	1	0.847125
18.116667	1	0.839125
18.133333	1	0.830625
18.150000	1	0.823250
18.166667	1	0.817125
18.183333	1	0.811625
18.200000	1	0.807250
18.216667	1	0.802875
18.233333	1	0.799875
18.250000	1	0.798000
18.266667	1	0.796875
18.283333	1	0.795750
18.300000	1	0.795125
18.316667	1	0.795000
18.333333	1	0.794875
18.350000	1	0.795875
18.366667	1	0.797000
18.383333	1	0.798750
18.400000	1	0.801000
18.416667	1	0.803750
18.433333	1	0.808125
18.450000	1	0.813625
18.466667	1	0.820750
18.483333	1	0.829000
18.500000	1	0.839000
18.516667	1	0.850625
18.533333	1	0.863500
18.550000	1	0.879750
18.566667	1	0.897875
18.583333	1	0.917375
18.600000	1	0.939875
18.616667	1	0.963875
18.633333	1	0.989375
18.650000	1	1.016875
18.666667	1	1.046125
18.683333	1	1.076625
18.700000	1	1.109250
18.716667	1	1.143250
18.733333	1	1.178875
18.750000	1	1.214875
18.766667	1	1.251500
18.783333	1	1.288125
18.800000	1	1.323875
18.816667	1	1.359125
18.833333	1	1.392500
18.850000	1	1.423125
18.866667	1	1.451250
18.883333	1	1.474625
18.900000	1	1.493125
18.916667	1	1.505875
18.933333	1	1.512250
18.950000	1	1.512875
18.966667	1	1.506500
18.983333	1	1.492875
19.000000	1	1.472125
19.016667	1	1.445375
19.033333	1	1.413125
19.050000	1	1.377125
19.066667	1	1.338375
19.083333	1	1.298375
19.100000	1	1.258000
19.116667	1	1.221125
19.133333	1	1.188875
19.150000	1	1.163375
19.166667	1	1.146875
19.183333	1	1.142625
19.200000	1	1.153250
19.216667	1	1.181750
19.233333	1	1.232125
19.250000	1	1.305875
19.266667	1	1.407125
19.283333	1	1.538375
19.300000	1	1.702500
19.316667	1	1.900500
19.333333	1	2.133375
19.350000	1	2.401750
19.366667	1	2.703000
19.383333	1	3.033125
19.400000	1	3.386875
19.416667	1	3.756750
19.433333	1	4.133750
19.450000	1	4.507125
19.466667	1	4.865875
19.483333	1	5.198375
19.500000	1	5.493125
19.516667	1	5.739625
19.533333	1	5.929625
19.550000	1	6.057000
19.566667	1	6.117250
19.583333	1	6.109500
19.600000	1	6.036000
19.616667	1	5.899750
19.633333	1	5.707000
19.650000	1	5.466375
19.666667	1	5.187125
19.683333	1	4.878750
19.700000	1	4.551125
19.716667	1	4.215000
19.733333	1	3.879000
19.750000	1	3.549000
19.766667	1	3.230500
19.783333	1	2.928125
19.800000	1	2.645000
19.816667	1	2.383750
19.833333	1	2.145000
19.850000	1	1.930000
19.866667	1	1.737000
19.883333	1	1.565500
19.900000	1	1.414000
19.916667	1	1.280750
19.933333	1	1.164875
19.950000	1	1.063875
19.966667	1	0.976500
19.983333	1	0.901500
20.000000	1	0.837250
20.016667	1	0.784125
20.033333	1	0.739750
20.050000	1	0.703625
20.066667	1	0.675250
20.083333	1	0.653750
20.100000	1	0.637500
20.116667	1	0.626750
20.133333	1	0.621750
20.150000	1	0.621125
20.166667	1	0.624000
20.183333	1	0.630750
20.200000	1	0.640125
20.216667	1	0.651500
20.233333	1	0.663750
20.250000	1	0.675625
20.266667	1	0.687375
20.283333	1	0.698250
20.300000	1	0.705250
20.316667	1	0.711375
20.333333	1	0.714750
20.350000	1	0.714750
20.366667	1	0.711125
20.383333	1	0.704625
20.400000	1	0.695500
20.416667	1	0.684500
20.433333	1	0.671625
20.450000	1	0.657125
20.466667	1	0.641750
20.483333	1	0.627250
20.500000	1	0.613750
20.516667	1	0.603250
20.533333	1	0.595750
20.550000	1	0.593250
20.566667	1	0.595375
20.583333	1	0.603000
20.600000	1	0.617125
20.616667	1	0.639125
20.633333	1	0.668500
20.650000	1	0.706375
20.666667	1	0.753000
20.683333	1	0.808000
20.700000	1	0.871000
20.716667	1	0.941875
20.733333	1	1.018500
20.750000	1	1.098875
20.766667	1	1.182625
20.783333	1	1.267000
20.800000	1	1.349125
20.816667	1	1.426750
20.833333	1	1.496125
20.850000	1	1.557500
20.866667	1	1.605125
20.883333	1	1.639000
20.900000	1	1.658875
20.916667	1	1.664125
20.933333	1	1.654875
20.950000	1	1.631000
20.966667	1	1.593750
20.983333	1	1.544750
21.000000	1	1.486250
21.016667	1	1.420625
21.033333	1	1.349875
21.050000	1	1.275125
21.066667	1	1.199500
21.083333	1	1.124125
21.100000	1	1.051500
21.116667	1	0.982250
21.133333	1	0.916500
21.150000	1	0.855125
21.166667	1	0.799250
21.183333	1	0.747250
21.200000	1	0.701375
21.216667	1	0.660125
21.233333	1	0.623625
21.250000	1	0.591750
21.266667	1	0.563125
21.283333	1	0.538000
21.300000	1	0.517125
21.316667	1	0.498875
21.333333	1	0.482500
21.350000	1	0.469000
21.366667	1	0.457000
21.383333	1	0.446625
21.400000	1	0.437625
21.416667	1	0.429750
21.433333	1	0.422875
21.450000	1	0.417875
21.466667	1	0.413000
21.483333	1	0.409375
21.500000	1	0.406125
21.516667	1	0.404125
21.533333	1	0.403250
21.550000	1	0.402750
21.566667	1	0.403375
21.583333	1	0.406000
21.600000	1	0.409250
21.616667	1	0.414875
21.633333	1	0.421500
21.650000	1	0.429875
21.666667	1	0.440250
21.683333	1	0.453500
21.700000	1	0.468750
21.716667	1	0.485875
21.733333	1	0.505625
21.750000	1	0.527750
21.766667	1	0.551250
21.783333	1	0.576500
21.800000	1	0.602750
21.816667	1	0.630625
21.833333	1	0.659750
21.850000	1	0.689500
21.866667	1	0.718875
21.883333	1	0.747500
21.900000	1	0.774750
21.916667	1	0.800250
21.933333	1	0.823500
21.950000	1	0.844000
21.966667	1	0.861500
21.983333	1	0.875375
22.000000	1	0.885375
22.016667	1	0.891875
22.033333	1	0.895000
22.050000	1	0.894625
22.066667	1	0.890125
22.083333	1	0.882875
22.100000	1	0.873000
22.116667	1	0.861375
22.133333	1	0.847000
22.150000	1	0.831250
22.166667	1	0.814375
22.183333	1	0.795500
22.200000	1	0.775500
22.216667	1	0.754875
22.233333	1	0.733875
22.250000	1	0.712125
22.266667	1	0.690500
22.283333	1	0.668875
22.300000	1	0.647500
22.316667	1	0.626625
22.333333	1	0.605250
22.350000	1	0.584375
22.366667	1	0.564250
22.383333	1	0.544250
22.400000	1	0.524750
22.416667	1	0.506750
22.433333	1	0.488375
22.450000	1	0.471625
22.466667	1	0.455500
22.483333	1	0.441000
22.500000	1	0.426500
22.516667	1	0.413250
22.533333	1	0.401500
22.550000	1	0.390000
22.566667	1	0.379250
22.583333	1	0.369625
22.600000	1	0.360125
22.616667	1	0.351625
22.633333	1	0.343500
22.650000	1	0.335750
22.666667	1	0.328750
22.683333	1	0.321375
22.700000	1	0.314000
22.716667	1	0.308125
22.733333	1	0.302250
22.750000	1	0.296500
22.766667	1	0.291500
22.783333	1	0.286250
22.800000	1	0.280875
22.816667	1	0.276375
22.833333	1	0.272250
22.850000	1	0.267875
22.866667	1	0.264125
22.883333	1	0.261375
22.900000	1	0.258500
22.916667	1	0.256750
22.933333	1	0.255125
22.950000	1	0.253250
22.966667	1	0.252500
22.983333	1	0.252500
23.000000	1	0.252750
23.016667	1	0.253125
23.033333	1	0.254250
23.050000	1	0.256875
23.066667	1	0.258750
23.083333	1	0.261750
23.100000	1	0.264500
23.116667	1	0.267375
23.133333	1	0.270625
23.150000	1	0.273750
23.166667	1	0.277750
23.183333	1	0.281625
23.200000	1	0.285000
23.216667	1	0.289250
23.233333	1	0.293625
23.250000	1	0.299000
23.266667	1	0.305500
23.283333	1	0.311875
23.300000	1	0.320750
23.316667	1	0.332000
23.333333	1	0.345750
23.350000	1	0.363125
23.366667	1	0.385500
23.383333	1	0.413000
23.400000	1	0.448000
23.416667	1	0.489875
23.433333	1	0.543000
23.450000	1	0.607500
23.466667	1	0.686000
23.483333	1	0.780500
23.500000	1	0.893375
23.516667	1	1.026750
23.533333	1	1.182625
23.550000	1	1.363750
23.566667	1	1.570125
23.583333	1	1.802375
23.600000	1	2.061250
23.616667	1	2.347250
23.633333	1	2.658125
23.650000	1	2.990000
23.666667	1	3.340500
23.683333	1	3.706125
23.700000	1	4.078875
23.716667	1	4.455000
23.733333	1	4.825000
23.750000	1	5.181625
23.766667	1	5.516875
23.783333	1	5.822625
23.800000	1	6.091375
23.816667	1	6.316750
23.833333	1	6.493750
23.850000	1	6.617875
23.866667	1	6.688250
23.883333	1	6.702250
23.900000	1	6.660500
23.916667	1	6.566750
23.933333	1	6.423000
23.950000	1	6.234500
23.966667	1	6.006750
23.983333	1	5.746750
24.000000	1	5.459875
24.016667	1	5.154625
24.033333	1	4.837375
24.050000	1	4.514500
24.066667	1	4.190625
24.083333	1	3.871500
24.100000	1	3.560000
24.116667	1	3.259625
24.133333	1	2.974375
24.150000	1	2.704875
24.166667	1	2.454250
24.183333	1	2.221250
24.200000	1	2.007000
24.216667	1	1.811375
24.233333	1	1.632750
24.250000	1	1.471500
24.266667	1	1.327250
24.283333	1	1.198000
24.300000	1	1.083125
24.316667	1	0.981250
24.333333	1	0.890500
24.350000	1	0.811500
24.366667	1	0.742875
24.383333	1	0.683500
24.400000	1	0.632750
24.416667	1	0.590000
24.433333	1	0.553250
24.450000	1	0.522375
24.466667	1	0.497375
24.483333	1	0.476000
24.500000	1	0.459500
24.516667	1	0.444875
24.533333	1	0.433375
24.550000	1	0.424875
24.566667	1	0.418125
24.583333	1	0.413000
24.600000	1	0.408375
24.616667	1	0.404875
24.633333	1	0.401375
24.650000	1	0.398375
24.666667	1	0.395500
24.683333	1	0.392500
24.700000	1	0.389000
24.716667	1	0.385000
24.733333	1	0.381750
24.750000	1	0.378000
24.766667	1	0.374250
24.783333	1	0.369750
24.800000	1	0.365875
24.816667	1	0.361875
24.833333	1	0.357875
24.850000	1	0.353375
24.866667	1	0.348875
24.883333	1	0.344500
24.900000	1	0.340500
24.916667	1	0.336250
24.933333	1	0.332125
24.950000	1	0.327750
24.966667	1	0.324000
24.983333	1	0.319875
25.000000	1	0.316500
25.016667	1	0.312125
25.033333	1	0.307750
25.050000	1	0.304375
25.066667	1	0.300625
25.083333	1	0.296625
25.100000	1	0.293125
25.116667	1	0.290375
25.133333	1	0.286500
25.150000	1	0.282750
25.166667	1	0.279500
25.183333	1	0.275000
25.200000	1	0.270750
25.216667	1	0.266750
25.233333	1	0.262375
25.250000	1	0.258875
25.266667	1	0.255625
25.283333	1	0.252000
25.300000	1	0.248750
25.316667	1	0.245625
25.333333	1	0.242750
25.350000	1	0.240375
25.366667	1	0.237125
25.383333	1	0.234125
25.400000	1	0.231500
25.416667	1	0.229000
25.433333	1	0.227500
25.450000	1	0.225875
25.466667	1	0.224875
25.483333	1	0.223125
25.500000	1	0.221875
25.516667	1	0.221625
25.533333	1	0.221500
25.550000	1	0.221125
25.566667	1	0.220750
25.583333	1	0.220250
25.600000	1	0.220125
25.616667	1	0.220125
25.633333	1	0.220125
25.650000	1	0.219750
25.666667	1	0.219375
25.683333	1	0.218375
25.700000	1	0.217875
25.716667	1	0.216875
25.733333	1	0.216500
25.750000	1	0.216625
25.766667	1	0.216125
25.783333	1	0.215375
25.800000	1	0.215125
25.816667	1	0.215000
25.833333	1	0.215125
25.850000	1	0.214750
25.866667	1	0.215000
25.883333	1	0.215500
25.900000	1	0.215875
25.916667	1	0.217750
25.933333	1	0.219375
25.950000	1	0.221125
25.966667	1	0.223500
25.983333	1	0.226625
26.000000	1	0.229750
26.016667	1	0.234000
26.033333	1	0.238375
26.050000	1	0.243000
26.066667	1	0.248625
26.083333	1	0.255000
26.100000	1	0.261000
26.116667	1	0.267000
26.133333	1	0.273750
26.150000	1	0.279375
26.166667	1	0.285500
26.183333	1	0.291125
26.200000	1	0.296875
26.216667	1	0.302750
26.233333	1	0.309000
26.250000	1	0.314500
26.266667	1	0.320000
26.283333	1	0.324500
26.300000	1	0.328375
26.316667	1	0.330750
26.333333	1	0.332750
26.350000	1	0.334375
26.366667	1	0.335000
26.383333	1	0.334250
26.400000	1	0.333500
26.416667	1	0.331500
26.433333	1	0.328375
26.450000	1	0.325625
26.466667	1	0.322250
26.483333	1	0.317875
26.500000	1	0.312500
26.516667	1	0.307875
26.533333	1	0.301250
26.550000	1	0.295000
26.566667	1	0.288125
26.583333	1	0.281500
26.600000	1	0.275125
26.616667	1	0.268500
26.633333	1	0.261750
26.650000	1	0.255125
26.666667	1	0.248375
26.683333	1	0.241000
26.700000	1	0.234750
26.716667	1	0.228750
26.733333	1	0.222750
26.750000	1	0.217125
26.766667	1	0.211625
26.783333	1	0.206500
26.800000	1	0.201375
26.816667	1	0.197250
26.833333	1	0.193500
26.850000	1	0.190250
26.866667	1	0.187625
26.883333	1	0.185250
26.900000	1	0.183250
26.916667	1	0.181375
26.933333	1	0.180375
26.950000	1	0.179000
26.966667	1	0.178500
26.983333	1	0.178375
27.000000	1	0.179000
27.016667	1	0.179625
27.033333	1	0.181125
27.050000	1	0.183500
27.066667	1	0.186500
27.083333	1	0.190125
27.100000	1	0.194125
27.116667	1	0.199500
27.133333	1	0.205750
27.150000	1	0.213375
27.166667	1	0.222625
27.183333	1	0.233375
27.200000	1	0.245250
27.216667	1	0.260125
27.233333	1	0.276875
27.250000	1	0.297250
27.266667	1	0.320500
27.283333	1	0.347500
27.300000	1	0.379125
27.316667	1	0.415750
27.333333	1	0.458250
27.350000	1	0.507125
27.366667	1	0.563375
27.383333	1	0.628000
27.400000	1	0.701750
27.416667	1	0.784375
27.433333	1	0.877500
27.450000	1	0.982875
27.466667	1	1.100125
27.483333	1	1.229875
27.500000	1	1.372250
27.516667	1	1.527875
27.533333	1	1.695750
27.550000	1	1.875625
27.566667	1	2.067250
27.583333	1	2.268375
27.600000	1	2.478000
27.616667	1	2.696000
27.633333	1	2.917875
27.650000	1	3.141250
27.666667	1	3.365000
27.683333	1	3.584625
27.700000	1	3.797375
27.716667	1	4.000125
27.733333	1	4.188750
27.750000	1	4.359875
27.766667	1	4.511000
27.783333	1	4.639000
27.800000	1	4.741375
27.816667	1	4.816000
27.833333	1	4.861875
27.850000	1	4.877750
27.866667	1	4.863000
27.883333	1	4.818375
27.900000	1	4.744500
27.916667	1	4.642875
27.933333	1	4.515625
27.950000	1	4.365500
27.966667	1	4.196375
27.983333	1	4.010000
28.000000	1	3.811500
28.016667	1	3.602500
28.033333	1	3.387750
28.050000	1	3.169125
28.066667	1	2.950625
28.083333	1	2.735125
28.100000	1	2.524375
28.116667	1	2.321375
28.133333	1	2.127000
28.150000	1	1.943000
28.166667	1	1.769750
28.183333	1	1.608125
28.200000	1	1.458875
28.216667	1	1.321375
28.233333	1	1.196250
28.250000	1	1.082875
28.266667	1	0.979625
28.283333	1	0.887000
28.300000	1	0.804750
28.316667	1	0.731750
28.333333	1	0.667875
28.350000	1	0.611375
28.366667	1	0.563250
28.383333	1	0.522625
28.400000	1	0.487500
28.416667	1	0.458625
28.433333	1	0.435000
28.450000	1	0.415625
28.466667	1	0.401750
28.483333	1	0.391250
28.500000	1	0.384125
28.516667	1	0.380875
28.533333	1	0.379250
28.550000	1	0.381125
28.566667	1	0.383875
28.583333	1	0.388625
28.600000	1	0.395875
28.616667	1	0.403875
28.633333	1	0.412750
28.650000	1	0.422500
28.666667	1	0.432625
28.683333	1	0.443750
28.700000	1	0.454500
28.716667	1	0.465375
28.733333	1	0.475500
28.750000	1	0.485500
28.766667	1	0.494375
28.783333	1	0.502750
28.800000	1	0.510875
28.816667	1	0.518625
28.833333	1	0.523875
28.850000	1	0.529125
28.866667	1	0.533375
28.883333	1	0.536375
28.900000	1	0.537625
28.916667	1	0.538375
28.933333	1	0.537375
28.950000	1	0.535875
28.966667	1	0.533750
28.983333	1	0.529875
29.000000	1	0.524875
29.016667	1	0.519625
29.033333	1	0.512500
29.050000	1	0.504250
29.066667	1	0.495375
29.083333	1	0.485625
29.100000	1	0.475250
29.116667	1	0.464000
29.133333	1	0.452750
29.150000	1	0.440625
29.166667	1	0.428125
29.183333	1	0.415375
29.200000	1	0.402250
29.216667	1	0.389250
29.233333	1	0.375875
29.250000	1	0.363250
29.266667	1	0.349500
29.283333	1	0.336500
29.300000	1	0.323750
29.316667	1	0.311000
29.333333	1	0.298875
29.350000	1	0.286875
29.366667	1	0.275750
29.383333	1	0.264625
29.400000	1	0.254625
29.416667	1	0.244375
29.433333	1	0.234875
29.450000	1	0.225250
29.466667	1	0.215500
29.483333	1	0.206625
29.500000	1	0.198625
29.516667	1	0.190750
29.533333	1	0.182500
29.550000	1	0.175125
29.566667	1	0.168875
29.583333	1	0.162750
29.600000	1	0.157250
29.616667	1	0.152000
29.633333	1	0.147500
29.650000	1	0.143000
29.666667	1	0.138375
29.683333	1	0.133875
29.700000	1	0.130125
29.716667	1	0.126375
29.733333	1	0.123625
29.750000	1	0.120875
29.766667	1	0.117500
29.783333	1	0.114875
29.800000	1	0.112500
29.816667	1	0.110375
29.833333	1	0.108250
29.850000	1	0.106625
29.866667	1	0.105250
29.883333	1	0.103375
29.900000	1	0.101000
29.916667	1	0.099750
29.933333	1	0.098250
29.950000	1	0.096375
29.966667	1	0.094750
29.983333	1	0.094000
30.000000	1	0.092750
30.016667	1	0.091625
30.033333	1	0.089625
30.050000	1	0.088125
30.066667	1	0.087000
30.083333	1	0.085875
30.100000	1	0.084625
30.116667	1	0.083375
30.133333	1	0.082750
30.150000	1	0.080875
30.166667	1	0.079500
30.183333	1	0.078625
30.200000	1	0.076875
30.216667	1	0.076125
30.233333	1	0.075250
30.250000	1	0.074500
30.266667	1	0.074500
30.283333	1	0.073625
30.300000	1	0.073375
30.316667	1	0.073000
30.333333	1	0.072875
30.350000	1	0.072875
30.366667	1	0.072125
30.383333	1	0.072875
30.400000	1	0.073000
30.416667	1	0.073875
30.433333	1	0.075000
30.450000	1	0.076125
30.466667	1	0.076500
30.483333	1	0.077500
30.500000	1	0.079875
30.516667	1	0.082375
30.533333	1	0.085375
30.550000	1	0.089125
30.566667	1	0.093625
30.583333	1	0.098750
30.600000	1	0.103625
30.616667	1	0.109375
30.633333	1	0.115875
30.650000	1	0.123125
30.666667	1	0.130500
30.683333	1	0.138875
30.700000	1	0.147000
30.716667	1	0.155500
30.733333	1	0.165625
30.750000	1	0.175250
30.766667	1	0.185750
30.783333	1	0.197375
30.800000	1	0.209375
30.816667	1	0.223125
30.833333	1	0.235750
30.850000	1	0.249250
30.866667	1	0.264125
30.883333	1	0.279500
30.900000	1	0.295625
30.916667	1	0.313125
30.933333	1	0.332875
30.950000	1	0.353375
30.966667	1	0.376000
30.983333	1	0.401000
31.000000	1	0.429125
31.016667	1	0.460000
31.033333	1	0.494000
31.050000	1	0.531625
31.066667	1	0.573875
31.083333	1	0.620000
31.100000	1	0.672125
31.116667	1	0.729500
31.133333	1	0.791875
31.150000	1	0.860875
31.166667	1	0.936250
31.183333	1	1.018750
31.200000	1	1.107625
31.216667	1	1.203125
31.233333	1	1.305375
31.250000	1	1.415375
31.266667	1	1.529500
31.283333	1	1.649000
31.300000	1	1.773125
31.316667	1	1.901250
31.333333	1	2.031500
31.350000	1	2.162875
31.366667	1	2.294500
31.383333	1	2.425125
31.400000	1	2.552375
31.416667	1	2.675125
31.433333	1	2.791000
31.450000	1	2.899625
31.466667	1	2.999000
31.483333	1	3.087500
31.500000	1	3.163625
31.516667	1	3.227125
31.533333	1	3.276375
31.550000	1	3.312375
31.566667	1	3.332500
31.583333	1	3.337250
31.600000	1	3.326875
31.616667	1	3.302000
31.633333	1	3.262875
31.650000	1	3.210500
31.666667	1	3.145000
31.683333	1	3.068000
31.700000	1	2.980625
31.716667	1	2.884750
31.733333	1	2.780875
31.750000	1	2.670750
31.766667	1	2.556750
31.783333	1	2.438625
31.800000	1	2.318375
31.816667	1	2.197125
31.833333	1	2.075750
31.850000	1	1.955125
31.866667	1	1.837250
31.883333	1	1.722000
31.900000	1	1.610500
31.916667	1	1.503750
31.933333	1	1.400875
31.950000	1	1.303500
31.966667	1	1.211000
31.983333	1	1.123500
32.000000	1	1.041375
32.016667	1	0.963750
32.033333	1	0.891250
32.050000	1	0.823625
32.066667	1	0.760375
32.083333	1	0.702250
32.100000	1	0.648375
32.116667	1	0.598250
32.133333	1	0.551875
32.150000	1	0.509375
32.166667	1	0.470125
32.183333	1	0.432750
32.200000	1	0.398750
32.216667	1	0.367125
32.233333	1	0.337250
32.250000	1	0.309625
32.266667	1	0.284000
32.283333	1	0.260375
32.300000	1	0.238000
32.316667	1	0.217625
32.333333	1	0.198375
32.350000	1	0.181625
32.366667	1	0.166250
32.383333	1	0.151875
32.400000	1	0.138375
32.416667	1	0.125500
32.433333	1	0.114750
32.450000	1	0.103750
32.466667	1	0.094125
32.483333	1	0.085625
32.500000	1	0.077500
32.516667	1	0.070250
32.533333	1	0.063875
32.550000	1	0.058000
32.566667	1	0.053375
32.583333	1	0.048250
32.600000	1	0.043625
32.616667	1	0.039750
32.633333	1	0.036250
32.650000	1	0.032750
32.666667	1	0.029125
32.683333	1	0.026625
32.700000	1	0.023625
32.716667	1	0.021500
32.733333	1	0.019750
32.750000	1	0.017750
32.766667	1	0.016000
32.783333	1	0.014125
32.800000	1	0.012875
32.816667	1	0.011375
32.833333	1	0.009625
32.850000	1	0.008250
32.866667	1	0.006750
32.883333	1	0.005375
32.900000	1	0.004250
32.916667	1	0.003250
32.933333	1	0.002125
32.950000	1	0.001750
32.966667	1	0.001125
32.983333	1	0.000875
33.000000	1	0.000875
33.016667	1	0.000875
33.033333	1	0.000375
33.050000	1	0.000125
33.066667	1	0.000250
33.083333	1	0.000375
33.100000	1	0.000500
33.116667	1	0.001000
33.133333	1	0.001375
33.150000	1	0.002375
33.166667	1	0.003000
33.183333	1	0.003500
33.200000	1	0.004250
33.216667	1	0.005250
33.233333	1	0.005750
33.250000	1	0.006250
33.266667	1	0.006750
33.283333	1	0.007500
33.300000	1	0.008500
33.316667	1	0.009250
33.333333	1	0.010125
33.350000	1	0.011750
33.366667	1	0.012625
33.383333	1	0.013500
33.400000	1	0.014375
33.416667	1	0.015125
33.433333	1	0.015875
33.450000	1	0.017125
33.466667	1	0.017875
33.483333	1	0.019000
33.500000	1	0.019500
33.516667	1	0.021250
33.533333	1	0.022500
33.550000	1	0.024250
33.566667	1	0.026375
33.583333	1	0.027750
33.600000	1	0.029625
33.616667	1	0.031000
33.633333	1	0.033500
33.650000	1	0.035500
33.666667	1	0.037125
33.683333	1	0.039625
33.700000	1	0.041750
33.716667	1	0.044125
33.733333	1	0.046375
33.750000	1	0.048125
33.766667	1	0.050000
33.783333	1	0.052250
33.800000	1	0.054125
33.816667	1	0.056000
33.833333	1	0.058375
33.850000	1	0.059375
33.866667	1	0.060625
33.883333	1	0.061750
33.900000	1	0.062875
33.916667	1	0.064625
33.933333	1	0.066000
33.950000	1	0.066250
33.966667	1	0.067375
33.983333	1	0.068250
34.000000	1	0.068375
34.016667	1	0.068625
34.033333	1	0.068500
34.050000	1	0.069250
34.066667	1	0.070000
34.083333	1	0.070000
34.100000	1	0.070500
34.116667	1	0.070125
34.133333	1	0.070125
34.150000	1	0.070125
34.166667	1	0.071000
34.183333	1	0.071000
34.200000	1	0.071625
34.216667	1	0.072375
34.233333	1	0.072750
34.250000	1	0.073250
34.266667	1	0.074250
34.283333	1	0.075375
34.300000	1	0.076250
34.316667	1	0.077750
34.333333	1	0.079000
34.350000	1	0.081375
34.366667	1	0.083125
34.383333	1	0.085250
34.400000	1	0.086625
34.416667	1	0.088125
34.433333	1	0.090375
34.450000	1	0.093125
34.466667	1	0.095875
34.483333	1	0.097750
34.500000	1	0.100500
34.516667	1	0.103375
34.533333	1	0.105875
34.550000	1	0.108125
34.566667	1	0.110875
34.583333	1	0.113125
34.600000	1	0.115250
34.616667	1	0.117625
34.633333	1	0.119500
34.650000	1	0.121500
34.666667	1	0.122750
34.683333	1	0.123625
34.700000	1	0.124875
34.716667	1	0.126250
34.733333	1	0.126875
34.750000	1	0.127500
34.766667	1	0.128125
34.783333	1	0.128750
34.800000	1	0.128875
34.816667	1	0.129000
34.833333	1	0.128500
34.850000	1	0.128375
34.866667	1	0.127750
34.883333	1	0.126875
34.900000	1	0.126000
34.916667	1	0.124125
34.933333	1	0.123000
34.950000	1	0.121375
34.966667	1	0.119375
34.983333	1	0.117625
35.000000	1	0.115000
35.016667	1	0.112250
35.033333	1	0.109750
35.050000	1	0.107000
35.066667	1	0.104500
35.083333	1	0.101750
35.100000	1	0.099125
35.116667	1	0.096375
35.133333	1	0.094000
35.150000	1	0.090875
35.166667	1	0.088000
35.183333	1	0.084875
35.200000	1	0.082375
35.216667	1	0.079500
35.233333	1	0.077250
35.250000	1	0.074500
35.266667	1	0.072000
35.283333	1	0.070000
35.300000	1	0.067875
35.316667	1	0.066125
35.333333	1	0.064625
35.350000	1	0.062875
35.366667	1	0.061375
35.383333	1	0.060250
35.400000	1	0.059875
35.416667	1	0.059250
35.433333	1	0.058625
35.450000	1	0.057750
35.466667	1	0.057625
35.483333	1	0.057500
35.500000	1	0.058250
35.516667	1	0.059125
35.533333	1	0.060125
35.550000	1	0.061125
35.566667	1	0.061500
35.583333	1	0.063000
35.600000	1	0.064875
35.616667	1	0.066500
35.633333	1	0.068875
35.650000	1	0.070875
35.666667	1	0.072500
35.683333	1	0.074000
35.700000	1	0.075500
35.716667	1	0.076875
35.733333	1	0.079125
35.750000	1	0.080375
35.766667	1	0.082000
35.783333	1	0.083625
35.800000	1	0.086375
35.816667	1	0.088250
35.833333	1	0.089750
35.850000	1	0.090500
35.866667	1	0.091625
35.883333	1	0.092375
35.900000	1	0.093125
35.916667	1	0.093750
35.933333	1	0.094125
35.950000	1	0.095250
35.966667	1	0.095500
35.983333	1	0.095625
36.000000	1	0.095750
36.016667	1	0.096000
36.033333	1	0.095625
36.050000	1	0.094750
36.066667	1	0.094750
36.083333	1	0.094250
36.100000	1	0.093750
36.116667	1	0.093875
36.133333	1	0.093625
36.150000	1	0.093125
36.166667	1	0.093125
36.183333	1	0.091625
36.200000	1	0.090875
36.216667	1	0.089625
36.233333	1	0.089125
36.250000	1	0.088750
36.266667	1	0.088250
36.283333	1	0.088000
36.300000	1	0.087750
36.316667	1	0.087625
36.333333	1	0.087125
36.350000	1	0.087375
36.366667	1	0.087375
36.383333	1	0.086875
36.400000	1	0.086500
36.416667	1	0.086750
36.433333	1	0.086375
36.450000	1	0.086125
36.466667	1	0.086375
36.483333	1	0.086750
36.500000	1	0.086375
36.516667	1	0.086375
36.533333	1	0.086875
36.550000	1	0.085625
36.566667	1	0.085375
36.583333	1	0.085000
36.600000	1	0.084625
36.616667	1	0.082875
36.633333	1	0.081875
36.650000	1	0.080625
36.666667	1	0.079125
36.683333	1	0.078125
36.700000	1	0.076500
36.716667	1	0.074500
36.733333	1	0.073125
36.750000	1	0.071500
36.766667	1	0.069500
36.783333	1	0.067875
36.800000	1	0.065875
36.816667	1	0.063750
36.833333	1	0.061250
36.850000	1	0.058625
36.866667	1	0.056875
36.883333	1	0.055250
36.900000	1	0.052250
36.916667	1	0.050250
36.933333	1	0.049000
36.950000	1	0.047625
36.966667	1	0.046375
36.983333	1	0.044875
37.000000	1	0.043625
37.016667	1	0.042375
37.033333	1	0.041875
37.050000	1	0.041500
37.066667	1	0.041125
37.083333	1	0.041375
37.100000	1	0.041625
37.116667	1	0.042250
37.133333	1	0.042625
37.150000	1	0.043250
37.166667	1	0.043500
37.183333	1	0.044375
37.200000	1	0.044500
37.216667	1	0.046000
37.233333	1	0.047375
37.250000	1	0.048375
37.266667	1	0.049000
37.283333	1	0.049625
37.300000	1	0.050125
37.316667	1	0.050500
37.333333	1	0.052000
37.350000	1	0.052750
37.366667	1	0.053500
37.383333	1	0.054000
37.400000	1	0.053875
37.416667	1	0.054000
37.433333	1	0.053625
37.450000	1	0.053125
37.466667	1	0.052875
37.483333	1	0.052125
37.500000	1	0.051375
37.516667	1	0.050750
37.533333	1	0.050000
37.550000	1	0.049500
37.566667	1	0.048625
37.583333	1	0.047625
37.600000	1	0.045875
37.616667	1	0.044625
37.633333	1	0.043375
37.650000	1	0.042000
37.666667	1	0.040625
37.683333	1	0.040000
37.700000	1	0.038750
37.716667	1	0.037750
37.733333	1	0.036375
37.750000	1	0.034250
37.766667	1	0.032750
37.783333	1	0.031000
37.800000	1	0.030000
37.816667	1	0.029250
37.833333	1	0.028125
37.850000	1	0.026750
37.866667	1	0.025625
37.883333	1	0.025375
37.900000	1	0.024625
37.916667	1	0.023625
37.933333	1	0.022625
37.950000	1	0.021625
37.966667	1	0.021125
37.983333	1	0.020500
38.000000	1	0.020250
38.016667	1	0.019125
38.033333	1	0.018250
38.050000	1	0.017250
38.066667	1	0.016375
38.083333	1	0.015625
38.100000	1	0.015000
38.116667	1	0.014375
38.133333	1	0.013875
38.150000	1	0.012500
38.166667	1	0.012000
38.183333	1	0.011125
38.200000	1	0.010875
38.216667	1	0.009875
38.233333	1	0.009625
38.250000	1	0.008750
38.266667	1	0.008375
38.283333	1	0.007500
38.300000	1	0.007000
38.316667	1	0.005875
38.333333	1	0.005750
38.350000	1	0.005250
38.366667	1	0.004750
38.383333	1	0.004375
38.400000	1	0.003375
38.416667	1	0.002875
38.433333	1	0.002625
38.450000	1	0.002500
38.466667	1	0.002125
38.483333	1	0.001875
38.500000	1	0.001625
38.516667	1	0.001750
38.533333	1	0.001375
38.550000	1	0.000625
38.566667	1	0.000125
38.583333	1	-0.001000
38.600000	1	-0.000625
38.616667	1	-0.000625
38.633333	1	-0.001125
38.650000	1	-0.001250
38.666667	1	-0.001750
38.683333	1	-0.002000
38.700000	1	-0.003000
38.716667	1	-0.003250
38.733333	1	-0.003250
38.750000	1	-0.003750
38.766667	1	-0.003375
38.783333	1	-0.003125
38.800000	1	-0.003375
38.816667	1	-0.003000
38.833333	1	-0.003375
38.850000	1	-0.003250
38.866667	1	-0.002875
38.883333	1	-0.002625
38.900000	1	-0.002125
38.916667	1	-0.001875
38.933333	1	-0.001750
38.950000	1	-0.001375
38.966667	1	-0.001375
38.983333	1	-0.001125
39.000000	1	-0.001500
39.016667	1	-0.002250
39.033333	1	-0.002250
39.050000	1	-0.003250
39.066667	1	-0.003750
39.083333	1	-0.003750
39.100000	1	-0.004375
39.116667	1	-0.004875
39.133333	1	-0.005750
39.150000	1	-0.006125
39.166667	1	-0.007375
39.183333	1	-0.008625
39.200000	1	-0.009125
39.216667	1	-0.010375
39.233333	1	-0.011750
39.250000	1	-0.013375
39.266667	1	-0.014375
39.283333	1	-0.015875
39.300000	1	-0.017500
39.316667	1	-0.018625
39.333333	1	-0.019500
39.350000	1	-0.020625
39.366667	1	-0.022625
39.383333	1	-0.024125
39.400000	1	-0.025625
39.416667	1	-0.027250
39.433333	1	-0.028750
39.450000	1	-0.029500
39.466667	1	-0.030125
39.483333	1	-0.030625
39.500000	1	-0.031125
39.516667	1	-0.032875
39.533333	1	-0.033625
39.550000	1	-0.034500
39.566667	1	-0.034500
39.583333	1	-0.035250
39.600000	1	-0.035000
39.616667	1	-0.035000
39.633333	1	-0.035500
39.650000	1	-0.036250
39.666667	1	-0.036500
39.683333	1	-0.037000
39.700000	1	-0.037500
39.716667	1	-0.037625
39.733333	1	-0.037875
39.750000	1	-0.038625
39.766667	1	-0.038625
39.783333	1	-0.038625
39.800000	1	-0.039500
39.816667	1	-0.039875
39.833333	1	-0.040500
39.850000	1	-0.041250
39.866667	1	-0.041625
39.883333	1	-0.041875
39.900000	1	-0.042625
39.916667	1	-0.043750
39.933333	1	-0.044750
39.950000	1	-0.045750
39.966667	1	-0.046000
39.983333	1	-0.046875
40.000000	1	-0.047125
