URL	chrom://bioreactor/micro_cm7/HPLC_Ultimate_3000/Users/markusar/20240708_MA_pHrange1.seq/335.smp/RI_1.channel/RI_1.chm
Channel	RI_1

Injection Information:
Data Vault	micro_cm7
Sequence	20240708_MA_pHrange1
Name	Pv2_6.5_1
Number	7
Position	BA7
Comment	
Processing Method	
Instrument Method	run_25B_method
Type	Unknown
Status	Finished
Inject Time	08.07.2024 19:40:16 +02:00
Volume (µl)	20.0000
Dilution Factor	1.0000
Weight	1.0000

Chromatogram Data Information:
Time Min. (min)	0.000000
Time Max. (min)	40.000000
Data Points	2401
Detector	RI
Generating Data System	Chromeleon 7.3.2.11814
Exporting Data System	Chromeleon 7.3.2.0
Operator	Instrument Controller
Signal Quantity	Refractive 
Signal Unit	µRIU
Signal Min.	0.002000
Signal Max.	82.393250
Channel	RI_1
Driver Name	RID520Driver.dll
Channel Type	Evaluation
Min. Step (s)	1
Max. Step (s)	1
Average Step (s)	1

Signal Parameter Information:
Signal Info	

Chromatogram Data:
Time (min)	Step (s)	Value (µRIU)
0.000000	n.a.	0.056625
0.016667	1	0.055875
0.033333	1	0.055875
0.050000	1	0.056000
0.066667	1	0.056250
0.083333	1	0.056125
0.100000	1	0.055500
0.116667	1	0.055375
0.133333	1	0.055250
0.150000	1	0.055000
0.166667	1	0.054875
0.183333	1	0.054875
0.200000	1	0.054625
0.216667	1	0.055000
0.233333	1	0.054875
0.250000	1	0.055000
0.266667	1	0.055000
0.283333	1	0.055125
0.300000	1	0.054250
0.316667	1	0.053375
0.333333	1	0.053250
0.350000	1	0.052375
0.366667	1	0.051625
0.383333	1	0.050375
0.400000	1	0.049250
0.416667	1	0.049625
0.433333	1	0.050500
0.450000	1	0.051500
0.466667	1	0.053000
0.483333	1	0.053625
0.500000	1	0.053500
0.516667	1	0.053625
0.533333	1	0.052375
0.550000	1	0.050625
0.566667	1	0.048000
0.583333	1	0.044625
0.600000	1	0.041375
0.616667	1	0.037375
0.633333	1	0.034000
0.650000	1	0.030500
0.666667	1	0.028375
0.683333	1	0.026375
0.700000	1	0.024750
0.716667	1	0.022625
0.733333	1	0.020625
0.750000	1	0.018125
0.766667	1	0.016000
0.783333	1	0.014500
0.800000	1	0.013000
0.816667	1	0.011750
0.833333	1	0.010875
0.850000	1	0.010250
0.866667	1	0.009875
0.883333	1	0.008250
0.900000	1	0.007750
0.916667	1	0.007000
0.933333	1	0.007000
0.950000	1	0.006625
0.966667	1	0.007500
0.983333	1	0.008250
1.000000	1	0.009375
1.016667	1	0.010125
1.033333	1	0.012000
1.050000	1	0.013375
1.066667	1	0.016500
1.083333	1	0.018375
1.100000	1	0.019875
1.116667	1	0.021375
1.133333	1	0.023500
1.150000	1	0.025750
1.166667	1	0.028125
1.183333	1	0.030375
1.200000	1	0.032625
1.216667	1	0.034250
1.233333	1	0.035875
1.250000	1	0.036875
1.266667	1	0.038125
1.283333	1	0.040000
1.300000	1	0.040625
1.316667	1	0.041625
1.333333	1	0.041500
1.350000	1	0.040875
1.366667	1	0.041250
1.383333	1	0.041500
1.400000	1	0.041250
1.416667	1	0.041125
1.433333	1	0.040375
1.450000	1	0.039750
1.466667	1	0.039875
1.483333	1	0.038875
1.500000	1	0.038875
1.516667	1	0.038125
1.533333	1	0.037125
1.550000	1	0.036000
1.566667	1	0.035375
1.583333	1	0.034375
1.600000	1	0.033125
1.616667	1	0.032250
1.633333	1	0.031625
1.650000	1	0.030875
1.666667	1	0.030000
1.683333	1	0.028875
1.700000	1	0.027375
1.716667	1	0.027125
1.733333	1	0.026875
1.750000	1	0.026625
1.766667	1	0.025875
1.783333	1	0.025500
1.800000	1	0.024625
1.816667	1	0.023500
1.833333	1	0.022875
1.850000	1	0.022500
1.866667	1	0.021250
1.883333	1	0.020875
1.900000	1	0.020750
1.916667	1	0.020250
1.933333	1	0.020000
1.950000	1	0.018875
1.966667	1	0.018375
1.983333	1	0.017375
2.000000	1	0.017000
2.016667	1	0.016375
2.033333	1	0.015875
2.050000	1	0.015375
2.066667	1	0.015375
2.083333	1	0.014125
2.100000	1	0.013250
2.116667	1	0.012125
2.133333	1	0.010500
2.150000	1	0.009250
2.166667	1	0.008875
2.183333	1	0.007500
2.200000	1	0.006875
2.216667	1	0.005875
2.233333	1	0.005875
2.250000	1	0.005125
2.266667	1	0.004625
2.283333	1	0.003625
2.300000	1	0.003375
2.316667	1	0.002750
2.333333	1	0.002000
2.350000	1	0.002375
2.366667	1	0.002000
2.383333	1	0.002125
2.400000	1	0.002875
2.416667	1	0.002875
2.433333	1	0.003750
2.450000	1	0.004500
2.466667	1	0.005375
2.483333	1	0.006500
2.500000	1	0.008000
2.516667	1	0.008750
2.533333	1	0.009625
2.550000	1	0.010625
2.566667	1	0.011750
2.583333	1	0.013375
2.600000	1	0.015125
2.616667	1	0.016750
2.633333	1	0.018750
2.650000	1	0.021375
2.666667	1	0.022750
2.683333	1	0.024250
2.700000	1	0.025375
2.716667	1	0.026750
2.733333	1	0.027375
2.750000	1	0.028125
2.766667	1	0.029500
2.783333	1	0.031125
2.800000	1	0.032500
2.816667	1	0.033625
2.833333	1	0.034125
2.850000	1	0.034875
2.866667	1	0.035625
2.883333	1	0.035750
2.900000	1	0.035875
2.916667	1	0.035875
2.933333	1	0.035625
2.950000	1	0.035625
2.966667	1	0.035000
2.983333	1	0.034750
3.000000	1	0.035250
3.016667	1	0.035250
3.033333	1	0.035375
3.050000	1	0.035625
3.066667	1	0.035000
3.083333	1	0.035250
3.100000	1	0.034625
3.116667	1	0.034750
3.133333	1	0.034625
3.150000	1	0.035000
3.166667	1	0.035125
3.183333	1	0.035000
3.200000	1	0.035375
3.216667	1	0.035625
3.233333	1	0.035750
3.250000	1	0.035625
3.266667	1	0.036000
3.283333	1	0.036500
3.300000	1	0.037250
3.316667	1	0.038125
3.333333	1	0.038625
3.350000	1	0.039125
3.366667	1	0.040000
3.383333	1	0.041000
3.400000	1	0.042375
3.416667	1	0.043500
3.433333	1	0.044875
3.450000	1	0.046250
3.466667	1	0.047500
3.483333	1	0.048625
3.500000	1	0.049875
3.516667	1	0.051125
3.533333	1	0.053250
3.550000	1	0.055000
3.566667	1	0.055875
3.583333	1	0.057625
3.600000	1	0.059375
3.616667	1	0.061000
3.633333	1	0.062500
3.650000	1	0.063625
3.666667	1	0.064750
3.683333	1	0.065875
3.700000	1	0.067250
3.716667	1	0.068250
3.733333	1	0.069000
3.750000	1	0.069250
3.766667	1	0.070000
3.783333	1	0.070875
3.800000	1	0.071625
3.816667	1	0.072500
3.833333	1	0.073250
3.850000	1	0.073875
3.866667	1	0.074375
3.883333	1	0.074875
3.900000	1	0.075000
3.916667	1	0.074875
3.933333	1	0.075125
3.950000	1	0.075000
3.966667	1	0.075250
3.983333	1	0.075875
4.000000	1	0.075750
4.016667	1	0.075875
4.033333	1	0.076500
4.050000	1	0.077625
4.066667	1	0.077875
4.083333	1	0.078375
4.100000	1	0.078000
4.116667	1	0.078875
4.133333	1	0.079375
4.150000	1	0.080375
4.166667	1	0.081000
4.183333	1	0.082125
4.200000	1	0.083750
4.216667	1	0.084875
4.233333	1	0.085875
4.250000	1	0.086625
4.266667	1	0.088125
4.283333	1	0.089375
4.300000	1	0.090000
4.316667	1	0.090250
4.333333	1	0.091000
4.350000	1	0.091625
4.366667	1	0.092500
4.383333	1	0.093375
4.400000	1	0.094000
4.416667	1	0.094500
4.433333	1	0.094875
4.450000	1	0.095375
4.466667	1	0.095875
4.483333	1	0.096875
4.500000	1	0.097125
4.516667	1	0.096750
4.533333	1	0.096000
4.550000	1	0.096500
4.566667	1	0.097000
4.583333	1	0.096500
4.600000	1	0.096500
4.616667	1	0.095750
4.633333	1	0.095500
4.650000	1	0.096000
4.666667	1	0.096375
4.683333	1	0.096125
4.700000	1	0.096250
4.716667	1	0.095500
4.733333	1	0.095375
4.750000	1	0.095500
4.766667	1	0.095125
4.783333	1	0.095500
4.800000	1	0.095875
4.816667	1	0.096625
4.833333	1	0.097125
4.850000	1	0.097500
4.866667	1	0.097750
4.883333	1	0.099000
4.900000	1	0.100250
4.916667	1	0.101000
4.933333	1	0.102250
4.950000	1	0.103750
4.966667	1	0.105125
4.983333	1	0.107875
5.000000	1	0.109625
5.016667	1	0.111750
5.033333	1	0.114750
5.050000	1	0.117500
5.066667	1	0.119875
5.083333	1	0.122625
5.100000	1	0.126125
5.116667	1	0.129125
5.133333	1	0.132375
5.150000	1	0.136375
5.166667	1	0.139375
5.183333	1	0.143375
5.200000	1	0.146875
5.216667	1	0.150250
5.233333	1	0.154250
5.250000	1	0.157375
5.266667	1	0.160625
5.283333	1	0.163875
5.300000	1	0.168500
5.316667	1	0.172000
5.333333	1	0.175875
5.350000	1	0.179375
5.366667	1	0.182625
5.383333	1	0.185625
5.400000	1	0.188875
5.416667	1	0.192000
5.433333	1	0.195500
5.450000	1	0.198000
5.466667	1	0.201000
5.483333	1	0.204625
5.500000	1	0.206875
5.516667	1	0.209125
5.533333	1	0.211375
5.550000	1	0.213375
5.566667	1	0.215625
5.583333	1	0.217375
5.600000	1	0.218625
5.616667	1	0.220125
5.633333	1	0.221875
5.650000	1	0.223125
5.666667	1	0.224375
5.683333	1	0.225125
5.700000	1	0.226000
5.716667	1	0.226375
5.733333	1	0.226250
5.750000	1	0.226250
5.766667	1	0.226250
5.783333	1	0.225875
5.800000	1	0.225375
5.816667	1	0.225000
5.833333	1	0.225125
5.850000	1	0.224500
5.866667	1	0.223750
5.883333	1	0.222500
5.900000	1	0.221375
5.916667	1	0.219875
5.933333	1	0.218500
5.950000	1	0.216000
5.966667	1	0.214000
5.983333	1	0.212375
6.000000	1	0.210750
6.016667	1	0.208750
6.033333	1	0.206000
6.050000	1	0.203375
6.066667	1	0.200625
6.083333	1	0.198000
6.100000	1	0.194750
6.116667	1	0.192750
6.133333	1	0.189625
6.150000	1	0.187125
6.166667	1	0.183875
6.183333	1	0.181625
6.200000	1	0.178750
6.216667	1	0.176625
6.233333	1	0.174000
6.250000	1	0.170500
6.266667	1	0.167375
6.283333	1	0.164750
6.300000	1	0.161250
6.316667	1	0.158250
6.333333	1	0.154875
6.350000	1	0.152250
6.366667	1	0.150250
6.383333	1	0.147750
6.400000	1	0.144875
6.416667	1	0.142250
6.433333	1	0.139375
6.450000	1	0.135875
6.466667	1	0.133375
6.483333	1	0.131500
6.500000	1	0.130125
6.516667	1	0.128250
6.533333	1	0.126375
6.550000	1	0.124125
6.566667	1	0.122000
6.583333	1	0.120125
6.600000	1	0.118500
6.616667	1	0.116875
6.633333	1	0.114500
6.650000	1	0.113250
6.666667	1	0.112125
6.683333	1	0.110500
6.700000	1	0.109250
6.716667	1	0.108125
6.733333	1	0.106625
6.750000	1	0.105750
6.766667	1	0.104375
6.783333	1	0.103375
6.800000	1	0.102000
6.816667	1	0.101375
6.833333	1	0.101000
6.850000	1	0.100000
6.866667	1	0.098750
6.883333	1	0.098375
6.900000	1	0.097500
6.916667	1	0.097500
6.933333	1	0.097875
6.950000	1	0.098875
6.966667	1	0.099250
6.983333	1	0.100000
7.000000	1	0.100250
7.016667	1	0.099875
7.033333	1	0.100500
7.050000	1	0.102250
7.066667	1	0.103125
7.083333	1	0.104625
7.100000	1	0.105750
7.116667	1	0.106875
7.133333	1	0.107875
7.150000	1	0.110000
7.166667	1	0.111750
7.183333	1	0.114000
7.200000	1	0.116000
7.216667	1	0.118000
7.233333	1	0.120375
7.250000	1	0.122000
7.266667	1	0.123500
7.283333	1	0.125500
7.300000	1	0.127500
7.316667	1	0.129750
7.333333	1	0.132500
7.350000	1	0.134375
7.366667	1	0.136625
7.383333	1	0.139125
7.400000	1	0.141250
7.416667	1	0.143375
7.433333	1	0.144875
7.450000	1	0.146375
7.466667	1	0.148000
7.483333	1	0.149375
7.500000	1	0.151000
7.516667	1	0.152375
7.533333	1	0.153625
7.550000	1	0.155125
7.566667	1	0.156375
7.583333	1	0.157250
7.600000	1	0.157625
7.616667	1	0.158500
7.633333	1	0.158125
7.650000	1	0.157750
7.666667	1	0.157250
7.683333	1	0.157000
7.700000	1	0.155875
7.716667	1	0.155375
7.733333	1	0.154750
7.750000	1	0.152375
7.766667	1	0.150875
7.783333	1	0.149250
7.800000	1	0.146500
7.816667	1	0.143750
7.833333	1	0.141375
7.850000	1	0.138750
7.866667	1	0.135875
7.883333	1	0.132750
7.900000	1	0.130375
7.916667	1	0.126625
7.933333	1	0.123500
7.950000	1	0.120375
7.966667	1	0.116875
7.983333	1	0.113375
8.000000	1	0.109375
8.016667	1	0.106250
8.033333	1	0.102875
8.050000	1	0.099000
8.066667	1	0.095875
8.083333	1	0.092500
8.100000	1	0.088625
8.116667	1	0.085000
8.133333	1	0.081875
8.150000	1	0.079500
8.166667	1	0.076125
8.183333	1	0.073250
8.200000	1	0.070125
8.216667	1	0.067125
8.233333	1	0.063625
8.250000	1	0.060875
8.266667	1	0.057750
8.283333	1	0.055375
8.300000	1	0.052000
8.316667	1	0.050000
8.333333	1	0.047250
8.350000	1	0.045500
8.366667	1	0.042750
8.383333	1	0.041375
8.400000	1	0.039375
8.416667	1	0.037750
8.433333	1	0.035250
8.450000	1	0.033125
8.466667	1	0.031375
8.483333	1	0.029500
8.500000	1	0.028375
8.516667	1	0.026375
8.533333	1	0.024375
8.550000	1	0.022750
8.566667	1	0.021500
8.583333	1	0.018375
8.600000	1	0.015500
8.616667	1	0.014125
8.633333	1	0.013625
8.650000	1	0.012000
8.666667	1	0.010375
8.683333	1	0.009875
8.700000	1	0.009250
8.716667	1	0.007625
8.733333	1	0.007250
8.750000	1	0.007125
8.766667	1	0.007125
8.783333	1	0.006375
8.800000	1	0.005625
8.816667	1	0.005250
8.833333	1	0.004875
8.850000	1	0.005500
8.866667	1	0.006250
8.883333	1	0.006375
8.900000	1	0.006625
8.916667	1	0.007500
8.933333	1	0.008625
8.950000	1	0.009375
8.966667	1	0.010375
8.983333	1	0.010625
9.000000	1	0.011500
9.016667	1	0.013500
9.033333	1	0.015625
9.050000	1	0.017125
9.066667	1	0.018875
9.083333	1	0.020750
9.100000	1	0.023125
9.116667	1	0.025250
9.133333	1	0.027375
9.150000	1	0.030000
9.166667	1	0.032125
9.183333	1	0.033500
9.200000	1	0.035500
9.216667	1	0.037750
9.233333	1	0.040000
9.250000	1	0.042250
9.266667	1	0.044500
9.283333	1	0.046125
9.300000	1	0.047125
9.316667	1	0.048875
9.333333	1	0.050375
9.350000	1	0.051375
9.366667	1	0.052375
9.383333	1	0.053000
9.400000	1	0.052500
9.416667	1	0.052125
9.433333	1	0.051750
9.450000	1	0.051750
9.466667	1	0.051750
9.483333	1	0.051000
9.500000	1	0.050250
9.516667	1	0.049125
9.533333	1	0.048125
9.550000	1	0.048000
9.566667	1	0.047000
9.583333	1	0.045000
9.600000	1	0.043250
9.616667	1	0.041750
9.633333	1	0.040875
9.650000	1	0.039000
9.666667	1	0.037500
9.683333	1	0.036125
9.700000	1	0.034375
9.716667	1	0.032625
9.733333	1	0.031125
9.750000	1	0.029750
9.766667	1	0.028125
9.783333	1	0.026750
9.800000	1	0.025000
9.816667	1	0.023250
9.833333	1	0.021500
9.850000	1	0.019625
9.866667	1	0.018625
9.883333	1	0.017375
9.900000	1	0.015125
9.916667	1	0.013875
9.933333	1	0.012625
9.950000	1	0.011000
9.966667	1	0.008625
9.983333	1	0.007500
10.000000	1	0.006000
10.016667	1	0.004625
10.033333	1	0.003375
10.050000	1	0.002625
10.066667	1	0.002500
10.083333	1	0.003500
10.100000	1	0.005500
10.116667	1	0.008500
10.133333	1	0.012875
10.150000	1	0.017375
10.166667	1	0.024250
10.183333	1	0.032375
10.200000	1	0.041875
10.216667	1	0.053750
10.233333	1	0.067125
10.250000	1	0.082250
10.266667	1	0.099500
10.283333	1	0.118875
10.300000	1	0.142000
10.316667	1	0.167750
10.333333	1	0.195875
10.350000	1	0.226875
10.366667	1	0.258500
10.383333	1	0.290375
10.400000	1	0.319125
10.416667	1	0.342500
10.433333	1	0.356125
10.450000	1	0.355500
10.466667	1	0.335625
10.483333	1	0.295875
10.500000	1	0.241250
10.516667	1	0.192000
10.533333	1	0.181125
10.550000	1	0.263875
10.566667	1	0.510750
10.583333	1	1.003500
10.600000	1	1.824875
10.616667	1	3.050500
10.633333	1	4.740000
10.650000	1	6.934375
10.666667	1	9.657000
10.683333	1	12.910500
10.700000	1	16.682125
10.716667	1	20.929750
10.733333	1	25.580750
10.750000	1	30.518000
10.766667	1	35.560875
10.783333	1	40.449000
10.800000	1	44.835000
10.816667	1	48.288625
10.833333	1	50.365500
10.850000	1	50.717750
10.866667	1	49.214125
10.883333	1	46.008875
10.900000	1	41.512125
10.916667	1	36.278875
10.933333	1	30.854000
10.950000	1	25.665250
10.966667	1	20.982875
10.983333	1	16.938750
11.000000	1	13.558375
11.016667	1	10.807500
11.033333	1	8.613750
11.050000	1	6.893625
11.066667	1	5.559750
11.083333	1	4.534625
11.100000	1	3.749625
11.116667	1	3.151000
11.133333	1	2.690875
11.150000	1	2.338125
11.166667	1	2.064250
11.183333	1	1.849750
11.200000	1	1.680250
11.216667	1	1.544000
11.233333	1	1.434125
11.250000	1	1.343125
11.266667	1	1.266875
11.283333	1	1.203750
11.300000	1	1.149875
11.316667	1	1.103375
11.333333	1	1.064375
11.350000	1	1.030875
11.366667	1	1.000875
11.383333	1	0.975000
11.400000	1	0.952750
11.416667	1	0.933000
11.433333	1	0.916125
11.450000	1	0.901750
11.466667	1	0.889250
11.483333	1	0.878750
11.500000	1	0.869375
11.516667	1	0.862125
11.533333	1	0.855875
11.550000	1	0.849625
11.566667	1	0.845500
11.583333	1	0.842375
11.600000	1	0.840625
11.616667	1	0.839125
11.633333	1	0.838625
11.650000	1	0.840250
11.666667	1	0.841375
11.683333	1	0.844250
11.700000	1	0.848125
11.716667	1	0.852750
11.733333	1	0.858125
11.750000	1	0.864500
11.766667	1	0.871750
11.783333	1	0.879500
11.800000	1	0.886250
11.816667	1	0.893250
11.833333	1	0.900000
11.850000	1	0.906750
11.866667	1	0.912375
11.883333	1	0.916125
11.900000	1	0.919125
11.916667	1	0.922250
11.933333	1	0.924750
11.950000	1	0.927125
11.966667	1	0.928750
11.983333	1	0.931250
12.000000	1	0.933625
12.016667	1	0.936000
12.033333	1	0.938250
12.050000	1	0.941875
12.066667	1	0.946375
12.083333	1	0.951125
12.100000	1	0.956125
12.116667	1	0.961875
12.133333	1	0.969375
12.150000	1	0.976875
12.166667	1	0.985250
12.183333	1	0.995375
12.200000	1	1.006250
12.216667	1	1.019625
12.233333	1	1.035125
12.250000	1	1.054000
12.266667	1	1.076500
12.283333	1	1.105375
12.300000	1	1.142000
12.316667	1	1.188375
12.333333	1	1.247000
12.350000	1	1.322250
12.366667	1	1.416750
12.383333	1	1.536375
12.400000	1	1.684250
12.416667	1	1.866750
12.433333	1	2.087750
12.450000	1	2.352500
12.466667	1	2.665875
12.483333	1	3.032625
12.500000	1	3.455750
12.516667	1	3.938125
12.533333	1	4.480625
12.550000	1	5.079750
12.566667	1	5.732250
12.583333	1	6.428375
12.600000	1	7.156000
12.616667	1	7.898500
12.633333	1	8.642875
12.650000	1	9.373625
12.666667	1	10.078625
12.683333	1	10.746375
12.700000	1	11.372625
12.716667	1	11.955000
12.733333	1	12.498500
12.750000	1	13.009750
12.766667	1	13.499250
12.783333	1	13.977000
12.800000	1	14.455500
12.816667	1	14.943250
12.833333	1	15.450250
12.850000	1	15.982000
12.866667	1	16.544000
12.883333	1	17.137625
12.900000	1	17.764750
12.916667	1	18.423375
12.933333	1	19.113625
12.950000	1	19.834875
12.966667	1	20.583250
12.983333	1	21.357000
13.000000	1	22.154500
13.016667	1	22.974000
13.033333	1	23.816000
13.050000	1	24.679250
13.066667	1	25.562375
13.083333	1	26.468375
13.100000	1	27.394625
13.116667	1	28.342000
13.133333	1	29.307125
13.150000	1	30.291625
13.166667	1	31.295000
13.183333	1	32.317750
13.200000	1	33.358875
13.216667	1	34.418375
13.233333	1	35.497500
13.250000	1	36.596625
13.266667	1	37.718000
13.283333	1	38.860250
13.300000	1	40.025750
13.316667	1	41.212750
13.333333	1	42.424625
13.350000	1	43.659250
13.366667	1	44.917375
13.383333	1	46.199375
13.400000	1	47.505500
13.416667	1	48.835750
13.433333	1	50.193500
13.450000	1	51.578875
13.466667	1	52.993750
13.483333	1	54.438125
13.500000	1	55.913500
13.516667	1	57.420500
13.533333	1	58.957750
13.550000	1	60.524625
13.566667	1	62.123750
13.583333	1	63.755750
13.600000	1	65.420000
13.616667	1	67.116625
13.633333	1	68.849250
13.650000	1	70.619250
13.666667	1	72.428375
13.683333	1	74.277500
13.700000	1	76.160500
13.716667	1	78.051375
13.733333	1	79.862000
13.750000	1	81.405875
13.766667	1	82.377000
13.783333	1	82.393250
13.800000	1	81.070250
13.816667	1	78.080250
13.833333	1	73.229000
13.850000	1	66.575000
13.866667	1	58.526875
13.883333	1	49.804000
13.900000	1	41.214500
13.916667	1	33.410625
13.933333	1	26.743750
13.950000	1	21.287875
13.966667	1	16.945000
13.983333	1	13.551750
14.000000	1	10.936250
14.016667	1	8.942375
14.033333	1	7.441500
14.050000	1	6.323750
14.066667	1	5.497625
14.083333	1	4.887250
14.100000	1	4.433250
14.116667	1	4.092750
14.133333	1	3.833375
14.150000	1	3.630500
14.166667	1	3.468875
14.183333	1	3.336250
14.200000	1	3.226375
14.216667	1	3.132625
14.233333	1	3.051500
14.250000	1	2.979750
14.266667	1	2.915625
14.283333	1	2.857250
14.300000	1	2.805250
14.316667	1	2.758125
14.333333	1	2.715375
14.350000	1	2.678250
14.366667	1	2.646375
14.383333	1	2.620000
14.400000	1	2.600875
14.416667	1	2.589750
14.433333	1	2.589625
14.450000	1	2.603750
14.466667	1	2.636625
14.483333	1	2.695875
14.500000	1	2.792500
14.516667	1	2.943875
14.533333	1	3.171375
14.550000	1	3.506125
14.566667	1	3.989625
14.583333	1	4.673750
14.600000	1	5.623750
14.616667	1	6.915750
14.633333	1	8.637000
14.650000	1	10.876375
14.666667	1	13.718125
14.683333	1	17.228250
14.700000	1	21.443625
14.716667	1	26.353250
14.733333	1	31.902125
14.750000	1	37.972375
14.766667	1	44.382250
14.783333	1	50.889875
14.800000	1	57.219875
14.816667	1	63.073875
14.833333	1	68.156125
14.850000	1	72.194500
14.866667	1	74.971875
14.883333	1	76.350750
14.900000	1	76.281625
14.916667	1	74.808000
14.933333	1	72.062625
14.950000	1	68.245375
14.966667	1	63.600375
14.983333	1	58.395875
15.000000	1	52.886500
15.016667	1	47.302500
15.033333	1	41.837250
15.050000	1	36.644125
15.066667	1	31.830625
15.083333	1	27.462875
15.100000	1	23.570125
15.116667	1	20.155250
15.133333	1	17.196500
15.150000	1	14.660250
15.166667	1	12.504875
15.183333	1	10.687000
15.200000	1	9.161625
15.216667	1	7.887375
15.233333	1	6.826875
15.250000	1	5.947500
15.266667	1	5.222125
15.283333	1	4.625875
15.300000	1	4.138875
15.316667	1	3.743875
15.333333	1	3.427500
15.350000	1	3.175500
15.366667	1	2.978625
15.383333	1	2.826625
15.400000	1	2.712125
15.416667	1	2.627375
15.433333	1	2.565625
15.450000	1	2.520875
15.466667	1	2.487625
15.483333	1	2.461500
15.500000	1	2.437875
15.516667	1	2.414375
15.533333	1	2.388500
15.550000	1	2.359375
15.566667	1	2.325875
15.583333	1	2.288500
15.600000	1	2.249125
15.616667	1	2.209500
15.633333	1	2.169125
15.650000	1	2.130125
15.666667	1	2.092750
15.683333	1	2.058250
15.700000	1	2.025250
15.716667	1	1.994625
15.733333	1	1.964375
15.750000	1	1.935000
15.766667	1	1.904875
15.783333	1	1.874375
15.800000	1	1.842875
15.816667	1	1.811000
15.833333	1	1.778625
15.850000	1	1.745750
15.866667	1	1.713500
15.883333	1	1.681625
15.900000	1	1.652875
15.916667	1	1.626250
15.933333	1	1.602750
15.950000	1	1.582875
15.966667	1	1.566500
15.983333	1	1.553875
16.000000	1	1.544250
16.016667	1	1.537000
16.033333	1	1.531250
16.050000	1	1.526875
16.066667	1	1.523125
16.083333	1	1.519375
16.100000	1	1.515000
16.116667	1	1.509375
16.133333	1	1.502375
16.150000	1	1.493750
16.166667	1	1.483875
16.183333	1	1.471375
16.200000	1	1.458000
16.216667	1	1.443875
16.233333	1	1.428500
16.250000	1	1.412125
16.266667	1	1.395000
16.283333	1	1.379250
16.300000	1	1.361375
16.316667	1	1.343625
16.333333	1	1.325375
16.350000	1	1.308125
16.366667	1	1.292000
16.383333	1	1.277500
16.400000	1	1.264625
16.416667	1	1.253250
16.433333	1	1.244625
16.450000	1	1.238250
16.466667	1	1.235250
16.483333	1	1.235250
16.500000	1	1.236625
16.516667	1	1.239500
16.533333	1	1.244375
16.550000	1	1.248875
16.566667	1	1.253500
16.583333	1	1.257000
16.600000	1	1.258625
16.616667	1	1.260000
16.633333	1	1.258375
16.650000	1	1.255875
16.666667	1	1.252125
16.683333	1	1.246875
16.700000	1	1.241750
16.716667	1	1.236250
16.733333	1	1.231500
16.750000	1	1.227000
16.766667	1	1.224375
16.783333	1	1.223250
16.800000	1	1.223625
16.816667	1	1.225500
16.833333	1	1.227500
16.850000	1	1.231625
16.866667	1	1.235125
16.883333	1	1.238375
16.900000	1	1.240375
16.916667	1	1.241625
16.933333	1	1.241625
16.950000	1	1.240375
16.966667	1	1.237750
16.983333	1	1.234000
17.000000	1	1.228750
17.016667	1	1.223000
17.033333	1	1.216125
17.050000	1	1.209500
17.066667	1	1.202875
17.083333	1	1.196375
17.100000	1	1.190875
17.116667	1	1.186250
17.133333	1	1.182625
17.150000	1	1.180375
17.166667	1	1.179875
17.183333	1	1.179250
17.200000	1	1.180125
17.216667	1	1.182000
17.233333	1	1.184250
17.250000	1	1.186875
17.266667	1	1.190500
17.283333	1	1.194625
17.300000	1	1.199500
17.316667	1	1.205000
17.333333	1	1.210375
17.350000	1	1.215625
17.366667	1	1.222000
17.383333	1	1.227125
17.400000	1	1.231625
17.416667	1	1.235750
17.433333	1	1.238500
17.450000	1	1.240500
17.466667	1	1.241250
17.483333	1	1.239875
17.500000	1	1.238000
17.516667	1	1.233375
17.533333	1	1.227625
17.550000	1	1.219500
17.566667	1	1.210375
17.583333	1	1.200250
17.600000	1	1.188500
17.616667	1	1.175750
17.633333	1	1.161875
17.650000	1	1.147000
17.666667	1	1.132125
17.683333	1	1.117125
17.700000	1	1.102000
17.716667	1	1.086875
17.733333	1	1.072625
17.750000	1	1.059000
17.766667	1	1.046500
17.783333	1	1.033375
17.800000	1	1.021625
17.816667	1	1.009625
17.833333	1	0.999375
17.850000	1	0.989875
17.866667	1	0.980750
17.883333	1	0.972625
17.900000	1	0.964375
17.916667	1	0.956500
17.933333	1	0.949625
17.950000	1	0.943000
17.966667	1	0.936250
17.983333	1	0.929375
18.000000	1	0.922875
18.016667	1	0.915500
18.033333	1	0.908250
18.050000	1	0.900375
18.066667	1	0.892750
18.083333	1	0.884875
18.100000	1	0.878125
18.116667	1	0.871000
18.133333	1	0.864500
18.150000	1	0.859125
18.166667	1	0.854500
18.183333	1	0.850375
18.200000	1	0.847000
18.216667	1	0.844125
18.233333	1	0.842625
18.250000	1	0.841375
18.266667	1	0.840875
18.283333	1	0.840750
18.300000	1	0.840750
18.316667	1	0.841500
18.333333	1	0.842750
18.350000	1	0.844125
18.366667	1	0.845750
18.383333	1	0.848125
18.400000	1	0.851875
18.416667	1	0.856000
18.433333	1	0.861375
18.450000	1	0.868750
18.466667	1	0.877500
18.483333	1	0.887125
18.500000	1	0.898625
18.516667	1	0.912375
18.533333	1	0.926750
18.550000	1	0.944500
18.566667	1	0.962875
18.583333	1	0.983375
18.600000	1	1.005500
18.616667	1	1.029375
18.633333	1	1.054500
18.650000	1	1.082000
18.666667	1	1.110125
18.683333	1	1.138875
18.700000	1	1.169875
18.716667	1	1.201875
18.733333	1	1.234750
18.750000	1	1.268375
18.766667	1	1.302125
18.783333	1	1.335750
18.800000	1	1.368875
18.816667	1	1.400250
18.833333	1	1.430375
18.850000	1	1.458250
18.866667	1	1.482125
18.883333	1	1.501500
18.900000	1	1.516125
18.916667	1	1.524000
18.933333	1	1.526250
18.950000	1	1.521625
18.966667	1	1.510500
18.983333	1	1.492625
19.000000	1	1.468125
19.016667	1	1.437125
19.033333	1	1.400750
19.050000	1	1.360500
19.066667	1	1.316750
19.083333	1	1.271500
19.100000	1	1.224750
19.116667	1	1.179250
19.133333	1	1.136500
19.150000	1	1.097875
19.166667	1	1.064000
19.183333	1	1.036625
19.200000	1	1.018125
19.216667	1	1.009375
19.233333	1	1.011375
19.250000	1	1.025250
19.266667	1	1.052250
19.283333	1	1.093875
19.300000	1	1.150625
19.316667	1	1.222500
19.333333	1	1.308750
19.350000	1	1.408875
19.366667	1	1.521750
19.383333	1	1.645000
19.400000	1	1.775625
19.416667	1	1.909500
19.433333	1	2.043125
19.450000	1	2.171125
19.466667	1	2.290000
19.483333	1	2.395250
19.500000	1	2.484125
19.516667	1	2.552625
19.533333	1	2.598875
19.550000	1	2.622375
19.566667	1	2.621375
19.583333	1	2.598000
19.600000	1	2.554125
19.616667	1	2.490000
19.633333	1	2.409875
19.650000	1	2.317125
19.666667	1	2.214375
19.683333	1	2.105000
19.700000	1	1.991250
19.716667	1	1.876375
19.733333	1	1.763375
19.750000	1	1.653500
19.766667	1	1.547750
19.783333	1	1.447375
19.800000	1	1.353000
19.816667	1	1.265375
19.833333	1	1.184375
19.850000	1	1.110125
19.866667	1	1.041875
19.883333	1	0.979500
19.900000	1	0.924125
19.916667	1	0.874500
19.933333	1	0.829875
19.950000	1	0.790000
19.966667	1	0.755125
19.983333	1	0.724875
20.000000	1	0.698875
20.016667	1	0.677000
20.033333	1	0.659625
20.050000	1	0.646250
20.066667	1	0.637000
20.083333	1	0.632000
20.100000	1	0.630625
20.116667	1	0.632375
20.133333	1	0.637250
20.150000	1	0.645000
20.166667	1	0.656250
20.183333	1	0.669375
20.200000	1	0.683375
20.216667	1	0.697625
20.233333	1	0.712500
20.250000	1	0.726375
20.266667	1	0.738375
20.283333	1	0.749250
20.300000	1	0.757375
20.316667	1	0.762125
20.333333	1	0.763375
20.350000	1	0.761375
20.366667	1	0.755125
20.383333	1	0.746250
20.400000	1	0.734625
20.416667	1	0.721125
20.433333	1	0.706125
20.450000	1	0.689250
20.466667	1	0.673500
20.483333	1	0.658500
20.500000	1	0.645375
20.516667	1	0.635000
20.533333	1	0.627750
20.550000	1	0.625000
20.566667	1	0.627625
20.583333	1	0.635625
20.600000	1	0.651250
20.616667	1	0.673250
20.633333	1	0.703500
20.650000	1	0.741875
20.666667	1	0.789375
20.683333	1	0.844500
20.700000	1	0.908125
20.716667	1	0.979375
20.733333	1	1.057125
20.750000	1	1.139625
20.766667	1	1.225125
20.783333	1	1.311250
20.800000	1	1.394875
20.816667	1	1.474250
20.833333	1	1.544875
20.850000	1	1.605625
20.866667	1	1.654875
20.883333	1	1.689625
20.900000	1	1.709750
20.916667	1	1.714375
20.933333	1	1.703125
20.950000	1	1.677000
20.966667	1	1.638375
20.983333	1	1.587500
21.000000	1	1.527250
21.016667	1	1.459625
21.033333	1	1.386875
21.050000	1	1.311250
21.066667	1	1.234250
21.083333	1	1.157875
21.100000	1	1.083750
21.116667	1	1.013625
21.133333	1	0.947250
21.150000	1	0.886375
21.166667	1	0.830500
21.183333	1	0.779875
21.200000	1	0.734375
21.216667	1	0.693625
21.233333	1	0.656750
21.250000	1	0.626000
21.266667	1	0.598250
21.283333	1	0.575000
21.300000	1	0.555125
21.316667	1	0.538000
21.333333	1	0.522500
21.350000	1	0.509875
21.366667	1	0.498500
21.383333	1	0.489000
21.400000	1	0.481000
21.416667	1	0.474125
21.433333	1	0.468125
21.450000	1	0.462375
21.466667	1	0.458000
21.483333	1	0.453750
21.500000	1	0.450500
21.516667	1	0.448125
21.533333	1	0.446000
21.550000	1	0.444000
21.566667	1	0.443000
21.583333	1	0.442000
21.600000	1	0.441625
21.616667	1	0.442750
21.633333	1	0.444125
21.650000	1	0.446125
21.666667	1	0.450250
21.683333	1	0.455375
21.700000	1	0.461500
21.716667	1	0.468125
21.733333	1	0.475625
21.750000	1	0.484000
21.766667	1	0.493500
21.783333	1	0.504000
21.800000	1	0.515000
21.816667	1	0.526750
21.833333	1	0.537750
21.850000	1	0.549625
21.866667	1	0.561125
21.883333	1	0.572375
21.900000	1	0.583000
21.916667	1	0.594125
21.933333	1	0.603375
21.950000	1	0.611750
21.966667	1	0.619750
21.983333	1	0.626375
22.000000	1	0.631625
22.016667	1	0.636125
22.033333	1	0.640375
22.050000	1	0.643000
22.066667	1	0.644750
22.083333	1	0.645500
22.100000	1	0.646000
22.116667	1	0.645000
22.133333	1	0.643500
22.150000	1	0.641000
22.166667	1	0.637250
22.183333	1	0.632250
22.200000	1	0.627125
22.216667	1	0.620750
22.233333	1	0.612750
22.250000	1	0.604500
22.266667	1	0.595250
22.283333	1	0.585250
22.300000	1	0.574625
22.316667	1	0.562875
22.333333	1	0.551250
22.350000	1	0.539000
22.366667	1	0.526875
22.383333	1	0.515000
22.400000	1	0.502750
22.416667	1	0.491000
22.433333	1	0.479500
22.450000	1	0.468500
22.466667	1	0.458750
22.483333	1	0.448500
22.500000	1	0.439500
22.516667	1	0.430750
22.533333	1	0.423375
22.550000	1	0.415875
22.566667	1	0.409125
22.583333	1	0.402625
22.600000	1	0.397125
22.616667	1	0.391750
22.633333	1	0.386875
22.650000	1	0.381750
22.666667	1	0.377750
22.683333	1	0.373250
22.700000	1	0.369375
22.716667	1	0.365375
22.733333	1	0.361875
22.750000	1	0.357875
22.766667	1	0.354750
22.783333	1	0.351250
22.800000	1	0.347875
22.816667	1	0.343750
22.833333	1	0.340625
22.850000	1	0.338000
22.866667	1	0.335500
22.883333	1	0.332750
22.900000	1	0.330000
22.916667	1	0.327250
22.933333	1	0.326625
22.950000	1	0.325000
22.966667	1	0.323750
22.983333	1	0.323250
23.000000	1	0.323250
23.016667	1	0.322875
23.033333	1	0.323250
23.050000	1	0.324375
23.066667	1	0.325000
23.083333	1	0.325875
23.100000	1	0.328000
23.116667	1	0.329750
23.133333	1	0.331625
23.150000	1	0.333375
23.166667	1	0.335250
23.183333	1	0.336750
23.200000	1	0.338750
23.216667	1	0.340750
23.233333	1	0.343625
23.250000	1	0.346375
23.266667	1	0.350500
23.283333	1	0.355125
23.300000	1	0.360750
23.316667	1	0.367750
23.333333	1	0.377000
23.350000	1	0.389000
23.366667	1	0.404250
23.383333	1	0.425125
23.400000	1	0.451250
23.416667	1	0.484000
23.433333	1	0.525125
23.450000	1	0.576750
23.466667	1	0.639750
23.483333	1	0.716375
23.500000	1	0.808500
23.516667	1	0.918125
23.533333	1	1.047625
23.550000	1	1.197375
23.566667	1	1.368750
23.583333	1	1.563375
23.600000	1	1.781250
23.616667	1	2.020000
23.633333	1	2.279750
23.650000	1	2.556750
23.666667	1	2.848375
23.683333	1	3.149125
23.700000	1	3.455500
23.716667	1	3.762000
23.733333	1	4.061000
23.750000	1	4.345375
23.766667	1	4.609125
23.783333	1	4.846375
23.800000	1	5.049875
23.816667	1	5.215500
23.833333	1	5.339875
23.850000	1	5.418750
23.866667	1	5.453375
23.883333	1	5.443250
23.900000	1	5.389250
23.916667	1	5.293875
23.933333	1	5.160500
23.950000	1	4.994000
23.966667	1	4.799250
23.983333	1	4.582125
24.000000	1	4.347250
24.016667	1	4.100875
24.033333	1	3.848375
24.050000	1	3.594250
24.066667	1	3.341875
24.083333	1	3.095500
24.100000	1	2.857000
24.116667	1	2.629750
24.133333	1	2.413625
24.150000	1	2.210500
24.166667	1	2.021375
24.183333	1	1.846375
24.200000	1	1.685875
24.216667	1	1.538625
24.233333	1	1.405500
24.250000	1	1.284250
24.266667	1	1.175375
24.283333	1	1.077375
24.300000	1	0.989500
24.316667	1	0.911500
24.333333	1	0.842250
24.350000	1	0.781375
24.366667	1	0.728875
24.383333	1	0.683125
24.400000	1	0.643875
24.416667	1	0.609125
24.433333	1	0.580375
24.450000	1	0.557000
24.466667	1	0.536500
24.483333	1	0.520000
24.500000	1	0.506875
24.516667	1	0.496375
24.533333	1	0.487625
24.550000	1	0.481375
24.566667	1	0.475250
24.583333	1	0.470750
24.600000	1	0.466875
24.616667	1	0.463625
24.633333	1	0.460125
24.650000	1	0.456375
24.666667	1	0.453250
24.683333	1	0.450250
24.700000	1	0.446875
24.716667	1	0.443375
24.733333	1	0.440000
24.750000	1	0.435875
24.766667	1	0.431625
24.783333	1	0.427000
24.800000	1	0.421875
24.816667	1	0.416000
24.833333	1	0.410875
24.850000	1	0.406250
24.866667	1	0.401625
24.883333	1	0.396625
24.900000	1	0.391375
24.916667	1	0.386625
24.933333	1	0.381750
24.950000	1	0.376875
24.966667	1	0.372625
24.983333	1	0.368625
25.000000	1	0.363875
25.016667	1	0.359500
25.033333	1	0.355000
25.050000	1	0.350750
25.066667	1	0.346625
25.083333	1	0.341625
25.100000	1	0.337750
25.116667	1	0.333250
25.133333	1	0.329125
25.150000	1	0.325250
25.166667	1	0.321125
25.183333	1	0.316625
25.200000	1	0.312625
25.216667	1	0.308125
25.233333	1	0.303625
25.250000	1	0.299500
25.266667	1	0.295625
25.283333	1	0.291375
25.300000	1	0.287250
25.316667	1	0.283500
25.333333	1	0.279750
25.350000	1	0.276375
25.366667	1	0.273500
25.383333	1	0.270500
25.400000	1	0.267125
25.416667	1	0.264750
25.433333	1	0.262500
25.450000	1	0.261000
25.466667	1	0.259375
25.483333	1	0.258625
25.500000	1	0.257250
25.516667	1	0.256375
25.533333	1	0.255875
25.550000	1	0.255375
25.566667	1	0.255000
25.583333	1	0.255125
25.600000	1	0.255500
25.616667	1	0.256250
25.633333	1	0.257000
25.650000	1	0.257625
25.666667	1	0.258500
25.683333	1	0.259375
25.700000	1	0.260875
25.716667	1	0.262500
25.733333	1	0.264500
25.750000	1	0.265500
25.766667	1	0.266875
25.783333	1	0.267125
25.800000	1	0.268000
25.816667	1	0.270125
25.833333	1	0.272500
25.850000	1	0.275000
25.866667	1	0.278375
25.883333	1	0.280750
25.900000	1	0.284125
25.916667	1	0.287625
25.933333	1	0.291250
25.950000	1	0.294625
25.966667	1	0.298500
25.983333	1	0.302875
26.000000	1	0.307125
26.016667	1	0.311500
26.033333	1	0.317000
26.050000	1	0.322625
26.066667	1	0.328000
26.083333	1	0.333500
26.100000	1	0.339875
26.116667	1	0.345750
26.133333	1	0.351625
26.150000	1	0.358250
26.166667	1	0.363875
26.183333	1	0.369500
26.200000	1	0.375000
26.216667	1	0.379750
26.233333	1	0.384125
26.250000	1	0.388625
26.266667	1	0.392375
26.283333	1	0.395500
26.300000	1	0.397750
26.316667	1	0.399375
26.333333	1	0.399625
26.350000	1	0.400000
26.366667	1	0.399625
26.383333	1	0.398000
26.400000	1	0.396375
26.416667	1	0.393625
26.433333	1	0.390125
26.450000	1	0.386125
26.466667	1	0.381500
26.483333	1	0.375750
26.500000	1	0.370500
26.516667	1	0.363875
26.533333	1	0.357625
26.550000	1	0.351250
26.566667	1	0.344500
26.583333	1	0.337375
26.600000	1	0.330375
26.616667	1	0.323500
26.633333	1	0.317500
26.650000	1	0.310750
26.666667	1	0.304625
26.683333	1	0.299250
26.700000	1	0.293750
26.716667	1	0.288750
26.733333	1	0.284375
26.750000	1	0.279500
26.766667	1	0.275500
26.783333	1	0.271750
26.800000	1	0.267875
26.816667	1	0.264875
26.833333	1	0.262500
26.850000	1	0.260625
26.866667	1	0.259375
26.883333	1	0.257625
26.900000	1	0.256375
26.916667	1	0.255625
26.933333	1	0.256000
26.950000	1	0.256250
26.966667	1	0.256500
26.983333	1	0.257375
27.000000	1	0.258500
27.016667	1	0.259875
27.033333	1	0.262375
27.050000	1	0.264750
27.066667	1	0.268000
27.083333	1	0.270875
27.100000	1	0.275750
27.116667	1	0.280500
27.133333	1	0.286250
27.150000	1	0.292125
27.166667	1	0.300375
27.183333	1	0.310250
27.200000	1	0.321750
27.216667	1	0.335375
27.233333	1	0.351625
27.250000	1	0.370125
27.266667	1	0.392625
27.283333	1	0.418625
27.300000	1	0.449375
27.316667	1	0.486625
27.333333	1	0.527875
27.350000	1	0.575875
27.366667	1	0.631250
27.383333	1	0.695250
27.400000	1	0.768750
27.416667	1	0.852750
27.433333	1	0.944625
27.450000	1	1.050125
27.466667	1	1.168750
27.483333	1	1.299375
27.500000	1	1.443875
27.516667	1	1.600750
27.533333	1	1.770375
27.550000	1	1.951250
27.566667	1	2.143250
27.583333	1	2.344875
27.600000	1	2.554125
27.616667	1	2.768500
27.633333	1	2.987250
27.650000	1	3.207375
27.666667	1	3.424875
27.683333	1	3.636250
27.700000	1	3.838750
27.716667	1	4.029000
27.733333	1	4.203500
27.750000	1	4.359000
27.766667	1	4.492875
27.783333	1	4.601125
27.800000	1	4.683750
27.816667	1	4.738375
27.833333	1	4.763250
27.850000	1	4.758250
27.866667	1	4.723625
27.883333	1	4.660250
27.900000	1	4.568625
27.916667	1	4.451500
27.933333	1	4.311875
27.950000	1	4.151375
27.966667	1	3.975000
27.983333	1	3.786000
28.000000	1	3.585625
28.016667	1	3.379250
28.033333	1	3.168625
28.050000	1	2.957875
28.066667	1	2.748625
28.083333	1	2.543750
28.100000	1	2.345250
28.116667	1	2.154750
28.133333	1	1.974125
28.150000	1	1.803750
28.166667	1	1.644125
28.183333	1	1.496875
28.200000	1	1.360500
28.216667	1	1.236375
28.233333	1	1.123125
28.250000	1	1.020000
28.266667	1	0.927000
28.283333	1	0.844125
28.300000	1	0.770125
28.316667	1	0.704250
28.333333	1	0.646250
28.350000	1	0.596125
28.366667	1	0.553000
28.383333	1	0.516625
28.400000	1	0.485750
28.416667	1	0.460125
28.433333	1	0.439750
28.450000	1	0.422875
28.466667	1	0.410250
28.483333	1	0.402500
28.500000	1	0.398000
28.516667	1	0.395250
28.533333	1	0.395625
28.550000	1	0.399500
28.566667	1	0.404500
28.583333	1	0.412000
28.600000	1	0.421125
28.616667	1	0.430375
28.633333	1	0.441125
28.650000	1	0.452750
28.666667	1	0.465375
28.683333	1	0.478125
28.700000	1	0.490375
28.716667	1	0.502625
28.733333	1	0.514875
28.750000	1	0.526500
28.766667	1	0.538000
28.783333	1	0.549250
28.800000	1	0.559750
28.816667	1	0.569250
28.833333	1	0.577875
28.850000	1	0.585625
28.866667	1	0.592375
28.883333	1	0.597250
28.900000	1	0.601500
28.916667	1	0.604250
28.933333	1	0.606375
28.950000	1	0.606875
28.966667	1	0.606000
28.983333	1	0.603875
29.000000	1	0.600750
29.016667	1	0.596500
29.033333	1	0.590500
29.050000	1	0.583250
29.066667	1	0.575000
29.083333	1	0.565875
29.100000	1	0.555500
29.116667	1	0.544500
29.133333	1	0.532625
29.150000	1	0.519750
29.166667	1	0.506375
29.183333	1	0.493750
29.200000	1	0.480625
29.216667	1	0.466500
29.233333	1	0.452000
29.250000	1	0.437625
29.266667	1	0.423250
29.283333	1	0.409000
29.300000	1	0.393875
29.316667	1	0.378875
29.333333	1	0.364250
29.350000	1	0.350500
29.366667	1	0.337375
29.383333	1	0.324500
29.400000	1	0.311750
29.416667	1	0.299125
29.433333	1	0.286750
29.450000	1	0.275750
29.466667	1	0.264500
29.483333	1	0.254750
29.500000	1	0.244250
29.516667	1	0.234375
29.533333	1	0.225625
29.550000	1	0.215500
29.566667	1	0.206750
29.583333	1	0.198875
29.600000	1	0.192000
29.616667	1	0.185500
29.633333	1	0.178375
29.650000	1	0.172250
29.666667	1	0.166875
29.683333	1	0.161500
29.700000	1	0.156125
29.716667	1	0.151000
29.733333	1	0.146875
29.750000	1	0.143375
29.766667	1	0.140000
29.783333	1	0.137000
29.800000	1	0.134375
29.816667	1	0.132750
29.833333	1	0.130375
29.850000	1	0.128750
29.866667	1	0.126875
29.883333	1	0.125625
29.900000	1	0.124125
29.916667	1	0.123000
29.933333	1	0.122750
29.950000	1	0.122125
29.966667	1	0.121875
29.983333	1	0.122375
30.000000	1	0.122250
30.016667	1	0.122625
30.033333	1	0.122625
30.050000	1	0.123125
30.066667	1	0.123750
30.083333	1	0.124750
30.100000	1	0.125125
30.116667	1	0.126000
30.133333	1	0.126000
30.150000	1	0.127000
30.166667	1	0.128125
30.183333	1	0.129125
30.200000	1	0.129750
30.216667	1	0.130750
30.233333	1	0.131875
30.250000	1	0.132875
30.266667	1	0.134000
30.283333	1	0.135250
30.300000	1	0.136375
30.316667	1	0.137875
30.333333	1	0.139625
30.350000	1	0.141375
30.366667	1	0.143250
30.383333	1	0.145000
30.400000	1	0.146750
30.416667	1	0.148125
30.433333	1	0.149750
30.450000	1	0.152750
30.466667	1	0.156000
30.483333	1	0.159125
30.500000	1	0.162500
30.516667	1	0.166625
30.533333	1	0.170750
30.550000	1	0.175500
30.566667	1	0.180375
30.583333	1	0.186375
30.600000	1	0.192375
30.616667	1	0.198625
30.633333	1	0.205625
30.650000	1	0.212875
30.666667	1	0.221000
30.683333	1	0.229125
30.700000	1	0.237750
30.716667	1	0.246625
30.733333	1	0.255250
30.750000	1	0.265625
30.766667	1	0.276375
30.783333	1	0.287750
30.800000	1	0.299875
30.816667	1	0.312125
30.833333	1	0.326000
30.850000	1	0.340750
30.866667	1	0.356875
30.883333	1	0.374625
30.900000	1	0.393750
30.916667	1	0.414875
30.933333	1	0.438500
30.950000	1	0.465750
30.966667	1	0.496250
30.983333	1	0.531875
31.000000	1	0.572250
31.016667	1	0.618750
31.033333	1	0.672000
31.050000	1	0.733375
31.066667	1	0.802875
31.083333	1	0.882500
31.100000	1	0.973500
31.116667	1	1.077125
31.133333	1	1.193125
31.150000	1	1.323375
31.166667	1	1.468750
31.183333	1	1.630125
31.200000	1	1.808875
31.216667	1	2.004625
31.233333	1	2.216750
31.250000	1	2.445500
31.266667	1	2.690750
31.283333	1	2.951125
31.300000	1	3.225875
31.316667	1	3.511875
31.333333	1	3.807750
31.350000	1	4.110625
31.366667	1	4.418500
31.383333	1	4.726875
31.400000	1	5.033000
31.416667	1	5.334000
31.433333	1	5.625250
31.450000	1	5.903375
31.466667	1	6.164000
31.483333	1	6.402875
31.500000	1	6.617625
31.516667	1	6.805250
31.533333	1	6.962750
31.550000	1	7.087875
31.566667	1	7.179875
31.583333	1	7.238000
31.600000	1	7.261250
31.616667	1	7.250375
31.633333	1	7.205875
31.650000	1	7.128125
31.666667	1	7.019875
31.683333	1	6.882125
31.700000	1	6.717750
31.716667	1	6.530500
31.733333	1	6.322000
31.750000	1	6.095875
31.766667	1	5.855250
31.783333	1	5.603000
31.800000	1	5.342000
31.816667	1	5.075375
31.833333	1	4.806125
31.850000	1	4.535375
31.866667	1	4.267750
31.883333	1	4.004250
31.900000	1	3.746500
31.916667	1	3.496875
31.933333	1	3.256000
31.950000	1	3.025875
31.966667	1	2.805250
31.983333	1	2.595250
32.000000	1	2.396000
32.016667	1	2.208000
32.033333	1	2.031750
32.050000	1	1.866750
32.066667	1	1.712625
32.083333	1	1.570000
32.100000	1	1.437500
32.116667	1	1.315000
32.133333	1	1.202375
32.150000	1	1.097125
32.166667	1	1.001250
32.183333	1	0.913875
32.200000	1	0.833250
32.216667	1	0.759500
32.233333	1	0.693125
32.250000	1	0.632000
32.266667	1	0.575875
32.283333	1	0.525500
32.300000	1	0.479625
32.316667	1	0.437875
32.333333	1	0.401125
32.350000	1	0.367125
32.366667	1	0.337625
32.383333	1	0.310375
32.400000	1	0.285500
32.416667	1	0.263625
32.433333	1	0.244000
32.450000	1	0.227125
32.466667	1	0.211875
32.483333	1	0.198500
32.500000	1	0.186375
32.516667	1	0.175750
32.533333	1	0.166750
32.550000	1	0.157875
32.566667	1	0.151125
32.583333	1	0.145500
32.600000	1	0.140250
32.616667	1	0.135750
32.633333	1	0.131750
32.650000	1	0.128250
32.666667	1	0.125750
32.683333	1	0.123750
32.700000	1	0.121375
32.716667	1	0.119875
32.733333	1	0.118875
32.750000	1	0.118250
32.766667	1	0.117250
32.783333	1	0.116875
32.800000	1	0.116250
32.816667	1	0.115750
32.833333	1	0.115750
32.850000	1	0.116375
32.866667	1	0.116750
32.883333	1	0.116750
32.900000	1	0.116625
32.916667	1	0.117000
32.933333	1	0.116875
32.950000	1	0.117750
32.966667	1	0.117250
32.983333	1	0.117625
33.000000	1	0.117625
33.016667	1	0.117375
33.033333	1	0.117250
33.050000	1	0.117125
33.066667	1	0.116875
33.083333	1	0.116750
33.100000	1	0.115625
33.116667	1	0.114875
33.133333	1	0.115250
33.150000	1	0.115625
33.166667	1	0.115375
33.183333	1	0.115125
33.200000	1	0.115375
33.216667	1	0.115375
33.233333	1	0.115750
33.250000	1	0.114875
33.266667	1	0.114625
33.283333	1	0.114500
33.300000	1	0.114250
33.316667	1	0.114625
33.333333	1	0.114250
33.350000	1	0.114500
33.366667	1	0.115375
33.383333	1	0.115750
33.400000	1	0.116375
33.416667	1	0.115750
33.433333	1	0.116000
33.450000	1	0.115875
33.466667	1	0.116500
33.483333	1	0.116875
33.500000	1	0.117000
33.516667	1	0.117250
33.533333	1	0.117875
33.550000	1	0.119125
33.566667	1	0.119375
33.583333	1	0.120250
33.600000	1	0.121000
33.616667	1	0.122375
33.633333	1	0.122625
33.650000	1	0.123875
33.666667	1	0.124750
33.683333	1	0.126375
33.700000	1	0.128000
33.716667	1	0.129625
33.733333	1	0.130750
33.750000	1	0.132500
33.766667	1	0.134500
33.783333	1	0.136750
33.800000	1	0.139125
33.816667	1	0.140875
33.833333	1	0.142875
33.850000	1	0.145375
33.866667	1	0.147875
33.883333	1	0.149875
33.900000	1	0.151500
33.916667	1	0.153500
33.933333	1	0.156125
33.950000	1	0.158375
33.966667	1	0.160125
33.983333	1	0.162375
34.000000	1	0.164125
34.016667	1	0.164875
34.033333	1	0.166500
34.050000	1	0.167125
34.066667	1	0.168625
34.083333	1	0.168875
34.100000	1	0.169625
34.116667	1	0.170125
34.133333	1	0.170625
34.150000	1	0.170750
34.166667	1	0.170125
34.183333	1	0.170125
34.200000	1	0.170375
34.216667	1	0.170125
34.233333	1	0.170000
34.250000	1	0.169250
34.266667	1	0.168500
34.283333	1	0.167625
34.300000	1	0.166875
34.316667	1	0.167500
34.333333	1	0.167500
34.350000	1	0.168000
34.366667	1	0.168250
34.383333	1	0.167625
34.400000	1	0.167000
34.416667	1	0.166625
34.433333	1	0.166375
34.450000	1	0.166250
34.466667	1	0.166375
34.483333	1	0.167000
34.500000	1	0.167000
34.516667	1	0.167000
34.533333	1	0.166625
34.550000	1	0.166000
34.566667	1	0.166250
34.583333	1	0.166375
34.600000	1	0.166000
34.616667	1	0.165625
34.633333	1	0.165125
34.650000	1	0.164875
34.666667	1	0.164625
34.683333	1	0.163750
34.700000	1	0.163000
34.716667	1	0.162125
34.733333	1	0.161125
34.750000	1	0.158875
34.766667	1	0.157750
34.783333	1	0.156500
34.800000	1	0.155125
34.816667	1	0.154000
34.833333	1	0.151875
34.850000	1	0.149375
34.866667	1	0.147875
34.883333	1	0.145750
34.900000	1	0.143625
34.916667	1	0.141625
34.933333	1	0.139375
34.950000	1	0.137875
34.966667	1	0.136375
34.983333	1	0.134125
35.000000	1	0.132750
35.016667	1	0.131125
35.033333	1	0.129875
35.050000	1	0.128000
35.066667	1	0.127375
35.083333	1	0.126875
35.100000	1	0.126500
35.116667	1	0.126375
35.133333	1	0.126625
35.150000	1	0.126250
35.166667	1	0.126625
35.183333	1	0.127500
35.200000	1	0.128250
35.216667	1	0.129000
35.233333	1	0.130125
35.250000	1	0.131250
35.266667	1	0.132500
35.283333	1	0.133625
35.300000	1	0.135250
35.316667	1	0.137000
35.333333	1	0.139000
35.350000	1	0.140625
35.366667	1	0.142750
35.383333	1	0.144625
35.400000	1	0.146875
35.416667	1	0.147875
35.433333	1	0.149125
35.450000	1	0.151125
35.466667	1	0.153625
35.483333	1	0.155125
35.500000	1	0.156500
35.516667	1	0.158375
35.533333	1	0.160125
35.550000	1	0.162250
35.566667	1	0.163750
35.583333	1	0.165250
35.600000	1	0.165625
35.616667	1	0.167000
35.633333	1	0.168375
35.650000	1	0.170125
35.666667	1	0.170875
35.683333	1	0.171750
35.700000	1	0.172875
35.716667	1	0.173625
35.733333	1	0.174125
35.750000	1	0.174875
35.766667	1	0.175125
35.783333	1	0.175875
35.800000	1	0.175875
35.816667	1	0.177625
35.833333	1	0.178750
35.850000	1	0.178750
35.866667	1	0.179375
35.883333	1	0.180000
35.900000	1	0.180875
35.916667	1	0.180625
35.933333	1	0.180750
35.950000	1	0.182000
35.966667	1	0.182000
35.983333	1	0.182250
36.000000	1	0.182625
36.016667	1	0.183000
36.033333	1	0.183625
36.050000	1	0.184000
36.066667	1	0.184125
36.083333	1	0.184250
36.100000	1	0.185375
36.116667	1	0.185625
36.133333	1	0.187000
36.150000	1	0.187625
36.166667	1	0.188375
36.183333	1	0.188500
36.200000	1	0.188875
36.216667	1	0.189375
36.233333	1	0.189625
36.250000	1	0.190000
36.266667	1	0.190125
36.283333	1	0.190750
36.300000	1	0.191250
36.316667	1	0.191875
36.333333	1	0.192625
36.350000	1	0.193000
36.366667	1	0.193750
36.383333	1	0.193750
36.400000	1	0.193875
36.416667	1	0.193750
36.433333	1	0.193250
36.450000	1	0.193500
36.466667	1	0.192500
36.483333	1	0.191750
36.500000	1	0.191375
36.516667	1	0.190750
36.533333	1	0.189625
36.550000	1	0.188375
36.566667	1	0.186250
36.583333	1	0.184750
36.600000	1	0.182500
36.616667	1	0.181000
36.633333	1	0.178375
36.650000	1	0.175000
36.666667	1	0.171250
36.683333	1	0.167625
36.700000	1	0.164375
36.716667	1	0.160500
36.733333	1	0.156000
36.750000	1	0.151375
36.766667	1	0.146875
36.783333	1	0.142000
36.800000	1	0.137750
36.816667	1	0.133000
36.833333	1	0.128375
36.850000	1	0.123000
36.866667	1	0.119625
36.883333	1	0.116000
36.900000	1	0.111750
36.916667	1	0.107625
36.933333	1	0.104125
36.950000	1	0.099750
36.966667	1	0.095500
36.983333	1	0.091000
37.000000	1	0.087375
37.016667	1	0.084375
37.033333	1	0.081625
37.050000	1	0.079625
37.066667	1	0.077125
37.083333	1	0.075000
37.100000	1	0.072875
37.116667	1	0.071375
37.133333	1	0.070250
37.150000	1	0.069500
37.166667	1	0.068875
37.183333	1	0.067375
37.200000	1	0.066500
37.216667	1	0.066250
37.233333	1	0.067125
37.250000	1	0.067375
37.266667	1	0.068375
37.283333	1	0.069250
37.300000	1	0.069750
37.316667	1	0.069875
37.333333	1	0.070750
37.350000	1	0.071750
37.366667	1	0.072375
37.383333	1	0.073250
37.400000	1	0.074125
37.416667	1	0.075500
37.433333	1	0.075500
37.450000	1	0.076125
37.466667	1	0.076750
37.483333	1	0.077375
37.500000	1	0.077500
37.516667	1	0.077625
37.533333	1	0.077375
37.550000	1	0.077000
37.566667	1	0.076750
37.583333	1	0.076500
37.600000	1	0.075750
37.616667	1	0.074875
37.633333	1	0.074500
37.650000	1	0.073500
37.666667	1	0.072125
37.683333	1	0.070875
37.700000	1	0.070000
37.716667	1	0.069375
37.733333	1	0.068500
37.750000	1	0.067000
37.766667	1	0.066375
37.783333	1	0.065875
37.800000	1	0.065000
37.816667	1	0.064125
37.833333	1	0.063000
37.850000	1	0.062625
37.866667	1	0.063125
37.883333	1	0.063500
37.900000	1	0.063875
37.916667	1	0.063750
37.933333	1	0.064000
37.950000	1	0.064250
37.966667	1	0.064375
37.983333	1	0.064125
38.000000	1	0.064750
38.016667	1	0.065000
38.033333	1	0.064750
38.050000	1	0.064750
38.066667	1	0.065250
38.083333	1	0.066125
38.100000	1	0.067000
38.116667	1	0.067625
38.133333	1	0.068250
38.150000	1	0.067875
38.166667	1	0.068125
38.183333	1	0.068375
38.200000	1	0.068750
38.216667	1	0.069250
38.233333	1	0.069000
38.250000	1	0.068750
38.266667	1	0.068500
38.283333	1	0.068250
38.300000	1	0.068250
38.316667	1	0.067750
38.333333	1	0.068250
38.350000	1	0.068250
38.366667	1	0.068125
38.383333	1	0.067750
38.400000	1	0.068250
38.416667	1	0.068250
38.433333	1	0.068500
38.450000	1	0.068000
38.466667	1	0.068500
38.483333	1	0.068875
38.500000	1	0.068750
38.516667	1	0.069250
38.533333	1	0.069875
38.550000	1	0.069625
38.566667	1	0.069125
38.583333	1	0.069250
38.600000	1	0.069625
38.616667	1	0.069375
38.633333	1	0.070250
38.650000	1	0.071000
38.666667	1	0.071250
38.683333	1	0.072375
38.700000	1	0.072875
38.716667	1	0.073750
38.733333	1	0.074250
38.750000	1	0.073875
38.766667	1	0.074000
38.783333	1	0.074750
38.800000	1	0.075000
38.816667	1	0.075500
38.833333	1	0.075875
38.850000	1	0.076250
38.866667	1	0.076875
38.883333	1	0.077625
38.900000	1	0.078625
38.916667	1	0.079375
38.933333	1	0.080125
38.950000	1	0.080625
38.966667	1	0.081250
38.983333	1	0.081375
39.000000	1	0.081625
39.016667	1	0.081375
39.033333	1	0.081875
39.050000	1	0.082500
39.066667	1	0.083125
39.083333	1	0.083625
39.100000	1	0.084875
39.116667	1	0.086125
39.133333	1	0.086875
39.150000	1	0.087250
39.166667	1	0.088250
39.183333	1	0.088750
39.200000	1	0.089250
39.216667	1	0.090250
39.233333	1	0.090625
39.250000	1	0.091875
39.266667	1	0.092375
39.283333	1	0.092625
39.300000	1	0.093500
39.316667	1	0.093625
39.333333	1	0.093750
39.350000	1	0.093375
39.366667	1	0.093625
39.383333	1	0.093125
39.400000	1	0.092500
39.416667	1	0.092375
39.433333	1	0.091875
39.450000	1	0.091750
39.466667	1	0.090625
39.483333	1	0.089875
39.500000	1	0.089125
39.516667	1	0.087875
39.533333	1	0.086500
39.550000	1	0.085875
39.566667	1	0.084625
39.583333	1	0.083375
39.600000	1	0.081500
39.616667	1	0.079875
39.633333	1	0.078750
39.650000	1	0.077000
39.666667	1	0.075375
39.683333	1	0.073500
39.700000	1	0.072250
39.716667	1	0.070000
39.733333	1	0.068625
39.750000	1	0.067375
39.766667	1	0.066500
39.783333	1	0.064375
39.800000	1	0.062625
39.816667	1	0.060875
39.833333	1	0.059625
39.850000	1	0.058000
39.866667	1	0.056125
39.883333	1	0.054250
39.900000	1	0.052875
39.916667	1	0.051750
39.933333	1	0.050125
39.950000	1	0.048375
39.966667	1	0.046625
39.983333	1	0.044250
40.000000	1	0.042250
