URL	chrom://bioreactor/micro_cm7/HPLC_Ultimate_3000/Users/markusar/20240716_MA_pHrange2.seq/335.smp/RI_1.channel/RI_1.chm
Channel	RI_1

Injection Information:
Data Vault	micro_cm7
Sequence	20240716_MA_pHrange2
Name	Pv2_25H_1
Number	6
Position	BA6
Comment	
Processing Method	
Instrument Method	run_25B_method
Type	Unknown
Status	Finished
Inject Time	16.07.2024 21:31:19 +02:00
Volume (µl)	20.0000
Dilution Factor	1.0000
Weight	1.0000

Chromatogram Data Information:
Time Min. (min)	0.000000
Time Max. (min)	40.000000
Data Points	2401
Detector	RI
Generating Data System	Chromeleon 7.3.2.11814
Exporting Data System	Chromeleon 7.3.2.0
Operator	Instrument Controller
Signal Quantity	Refractive 
Signal Unit	µRIU
Signal Min.	-0.135750
Signal Max.	83.019250
Channel	RI_1
Driver Name	RID520Driver.dll
Channel Type	Evaluation
Min. Step (s)	1
Max. Step (s)	1
Average Step (s)	1

Signal Parameter Information:
Signal Info	

Chromatogram Data:
Time (min)	Step (s)	Value (µRIU)
0.000000	n.a.	0.018500
0.016667	1	0.017250
0.033333	1	0.016250
0.050000	1	0.015750
0.066667	1	0.014750
0.083333	1	0.014125
0.100000	1	0.012750
0.116667	1	0.011250
0.133333	1	0.010250
0.150000	1	0.009250
0.166667	1	0.008000
0.183333	1	0.007125
0.200000	1	0.006875
0.216667	1	0.005750
0.233333	1	0.004750
0.250000	1	0.004250
0.266667	1	0.003875
0.283333	1	0.003250
0.300000	1	0.002875
0.316667	1	0.002750
0.333333	1	0.002000
0.350000	1	0.001500
0.366667	1	0.000750
0.383333	1	0.000000
0.400000	1	0.000125
0.416667	1	0.000750
0.433333	1	0.002125
0.450000	1	0.003625
0.466667	1	0.005625
0.483333	1	0.007750
0.500000	1	0.009000
0.516667	1	0.010125
0.533333	1	0.010250
0.550000	1	0.009750
0.566667	1	0.009000
0.583333	1	0.007625
0.600000	1	0.006625
0.616667	1	0.006375
0.633333	1	0.005375
0.650000	1	0.004875
0.666667	1	0.004125
0.683333	1	0.004250
0.700000	1	0.004375
0.716667	1	0.004000
0.733333	1	0.004125
0.750000	1	0.003625
0.766667	1	0.003625
0.783333	1	0.003750
0.800000	1	0.003250
0.816667	1	0.003125
0.833333	1	0.002500
0.850000	1	0.002125
0.866667	1	0.001375
0.883333	1	0.000375
0.900000	1	-0.000375
0.916667	1	-0.002250
0.933333	1	-0.004000
0.950000	1	-0.005750
0.966667	1	-0.007000
0.983333	1	-0.008750
1.000000	1	-0.010375
1.016667	1	-0.011875
1.033333	1	-0.013875
1.050000	1	-0.015125
1.066667	1	-0.017000
1.083333	1	-0.018250
1.100000	1	-0.020000
1.116667	1	-0.021375
1.133333	1	-0.023250
1.150000	1	-0.025000
1.166667	1	-0.026125
1.183333	1	-0.027250
1.200000	1	-0.028250
1.216667	1	-0.028875
1.233333	1	-0.030125
1.250000	1	-0.030750
1.266667	1	-0.031250
1.283333	1	-0.031625
1.300000	1	-0.032125
1.316667	1	-0.032375
1.333333	1	-0.033250
1.350000	1	-0.033000
1.366667	1	-0.033250
1.383333	1	-0.033250
1.400000	1	-0.033375
1.416667	1	-0.032750
1.433333	1	-0.031875
1.450000	1	-0.031500
1.466667	1	-0.031625
1.483333	1	-0.031625
1.500000	1	-0.031125
1.516667	1	-0.030875
1.533333	1	-0.031125
1.550000	1	-0.031500
1.566667	1	-0.031125
1.583333	1	-0.031125
1.600000	1	-0.030750
1.616667	1	-0.030750
1.633333	1	-0.030125
1.650000	1	-0.030250
1.666667	1	-0.030500
1.683333	1	-0.031000
1.700000	1	-0.030875
1.716667	1	-0.031375
1.733333	1	-0.031250
1.750000	1	-0.032500
1.766667	1	-0.033125
1.783333	1	-0.033875
1.800000	1	-0.034625
1.816667	1	-0.035500
1.833333	1	-0.036625
1.850000	1	-0.038000
1.866667	1	-0.038750
1.883333	1	-0.040375
1.900000	1	-0.041375
1.916667	1	-0.042375
1.933333	1	-0.044125
1.950000	1	-0.045750
1.966667	1	-0.047125
1.983333	1	-0.048375
2.000000	1	-0.049625
2.016667	1	-0.050750
2.033333	1	-0.051875
2.050000	1	-0.052875
2.066667	1	-0.054125
2.083333	1	-0.055625
2.100000	1	-0.057125
2.116667	1	-0.057875
2.133333	1	-0.058125
2.150000	1	-0.058875
2.166667	1	-0.059500
2.183333	1	-0.059875
2.200000	1	-0.060125
2.216667	1	-0.060250
2.233333	1	-0.060125
2.250000	1	-0.060250
2.266667	1	-0.060000
2.283333	1	-0.059750
2.300000	1	-0.059375
2.316667	1	-0.059250
2.333333	1	-0.058250
2.350000	1	-0.057000
2.366667	1	-0.056375
2.383333	1	-0.055750
2.400000	1	-0.054750
2.416667	1	-0.053750
2.433333	1	-0.052750
2.450000	1	-0.051125
2.466667	1	-0.049125
2.483333	1	-0.048000
2.500000	1	-0.046375
2.516667	1	-0.044375
2.533333	1	-0.042500
2.550000	1	-0.041000
2.566667	1	-0.039250
2.583333	1	-0.037625
2.600000	1	-0.035750
2.616667	1	-0.034250
2.633333	1	-0.032875
2.650000	1	-0.031375
2.666667	1	-0.029500
2.683333	1	-0.028000
2.700000	1	-0.026625
2.716667	1	-0.024875
2.733333	1	-0.022750
2.750000	1	-0.021750
2.766667	1	-0.020250
2.783333	1	-0.018750
2.800000	1	-0.017500
2.816667	1	-0.016125
2.833333	1	-0.015000
2.850000	1	-0.014125
2.866667	1	-0.013375
2.883333	1	-0.012000
2.900000	1	-0.010750
2.916667	1	-0.010000
2.933333	1	-0.008875
2.950000	1	-0.007750
2.966667	1	-0.006375
2.983333	1	-0.005875
3.000000	1	-0.005000
3.016667	1	-0.004375
3.033333	1	-0.003375
3.050000	1	-0.001875
3.066667	1	-0.000625
3.083333	1	0.000125
3.100000	1	0.001625
3.116667	1	0.003125
3.133333	1	0.004750
3.150000	1	0.005875
3.166667	1	0.007875
3.183333	1	0.009625
3.200000	1	0.011750
3.216667	1	0.013500
3.233333	1	0.015125
3.250000	1	0.017000
3.266667	1	0.019500
3.283333	1	0.021125
3.300000	1	0.023375
3.316667	1	0.025500
3.333333	1	0.027125
3.350000	1	0.029000
3.366667	1	0.030000
3.383333	1	0.031500
3.400000	1	0.033125
3.416667	1	0.034500
3.433333	1	0.035625
3.450000	1	0.036625
3.466667	1	0.037750
3.483333	1	0.038625
3.500000	1	0.040375
3.516667	1	0.040875
3.533333	1	0.041500
3.550000	1	0.042000
3.566667	1	0.042625
3.583333	1	0.043250
3.600000	1	0.043875
3.616667	1	0.044625
3.633333	1	0.045750
3.650000	1	0.046500
3.666667	1	0.047500
3.683333	1	0.048000
3.700000	1	0.048500
3.716667	1	0.048500
3.733333	1	0.050125
3.750000	1	0.051000
3.766667	1	0.052000
3.783333	1	0.052750
3.800000	1	0.053875
3.816667	1	0.055375
3.833333	1	0.056500
3.850000	1	0.057625
3.866667	1	0.058500
3.883333	1	0.060000
3.900000	1	0.061125
3.916667	1	0.061875
3.933333	1	0.063125
3.950000	1	0.063625
3.966667	1	0.063875
3.983333	1	0.064750
4.000000	1	0.065500
4.016667	1	0.066125
4.033333	1	0.067250
4.050000	1	0.067500
4.066667	1	0.068875
4.083333	1	0.069625
4.100000	1	0.070375
4.116667	1	0.070375
4.133333	1	0.070625
4.150000	1	0.071375
4.166667	1	0.072000
4.183333	1	0.071750
4.200000	1	0.072500
4.216667	1	0.073000
4.233333	1	0.073500
4.250000	1	0.074000
4.266667	1	0.074750
4.283333	1	0.075625
4.300000	1	0.076000
4.316667	1	0.076500
4.333333	1	0.077125
4.350000	1	0.078375
4.366667	1	0.079375
4.383333	1	0.080500
4.400000	1	0.081750
4.416667	1	0.082875
4.433333	1	0.084500
4.450000	1	0.086250
4.466667	1	0.087625
4.483333	1	0.088750
4.500000	1	0.090500
4.516667	1	0.091500
4.533333	1	0.092625
4.550000	1	0.095250
4.566667	1	0.097125
4.583333	1	0.099000
4.600000	1	0.101500
4.616667	1	0.103250
4.633333	1	0.105500
4.650000	1	0.107625
4.666667	1	0.109375
4.683333	1	0.111625
4.700000	1	0.113875
4.716667	1	0.115500
4.733333	1	0.117875
4.750000	1	0.120750
4.766667	1	0.123250
4.783333	1	0.126000
4.800000	1	0.128375
4.816667	1	0.130875
4.833333	1	0.133375
4.850000	1	0.135625
4.866667	1	0.137875
4.883333	1	0.141125
4.900000	1	0.143750
4.916667	1	0.146000
4.933333	1	0.148625
4.950000	1	0.152375
4.966667	1	0.155625
4.983333	1	0.158625
5.000000	1	0.161250
5.016667	1	0.163375
5.033333	1	0.166250
5.050000	1	0.169250
5.066667	1	0.172125
5.083333	1	0.174750
5.100000	1	0.177125
5.116667	1	0.179875
5.133333	1	0.182500
5.150000	1	0.184750
5.166667	1	0.187125
5.183333	1	0.189375
5.200000	1	0.191250
5.216667	1	0.193250
5.233333	1	0.194375
5.250000	1	0.196125
5.266667	1	0.196875
5.283333	1	0.198625
5.300000	1	0.200125
5.316667	1	0.200875
5.333333	1	0.202000
5.350000	1	0.203000
5.366667	1	0.203000
5.383333	1	0.203375
5.400000	1	0.203000
5.416667	1	0.203125
5.433333	1	0.202750
5.450000	1	0.202250
5.466667	1	0.201625
5.483333	1	0.200625
5.500000	1	0.198750
5.516667	1	0.197750
5.533333	1	0.196125
5.550000	1	0.194625
5.566667	1	0.193250
5.583333	1	0.192125
5.600000	1	0.190250
5.616667	1	0.188375
5.633333	1	0.186125
5.650000	1	0.183625
5.666667	1	0.180875
5.683333	1	0.177875
5.700000	1	0.175125
5.716667	1	0.172125
5.733333	1	0.168625
5.750000	1	0.165375
5.766667	1	0.162375
5.783333	1	0.159125
5.800000	1	0.155250
5.816667	1	0.151375
5.833333	1	0.147875
5.850000	1	0.144000
5.866667	1	0.140500
5.883333	1	0.136500
5.900000	1	0.132750
5.916667	1	0.128250
5.933333	1	0.123750
5.950000	1	0.119875
5.966667	1	0.115000
5.983333	1	0.111375
6.000000	1	0.107125
6.016667	1	0.102250
6.033333	1	0.098750
6.050000	1	0.095625
6.066667	1	0.091500
6.083333	1	0.087000
6.100000	1	0.083250
6.116667	1	0.080125
6.133333	1	0.076625
6.150000	1	0.073250
6.166667	1	0.069875
6.183333	1	0.067125
6.200000	1	0.064000
6.216667	1	0.061000
6.233333	1	0.058250
6.250000	1	0.055000
6.266667	1	0.052750
6.283333	1	0.050375
6.300000	1	0.047875
6.316667	1	0.045875
6.333333	1	0.044125
6.350000	1	0.042125
6.366667	1	0.040500
6.383333	1	0.039250
6.400000	1	0.037875
6.416667	1	0.036875
6.433333	1	0.036375
6.450000	1	0.035500
6.466667	1	0.034000
6.483333	1	0.033375
6.500000	1	0.033375
6.516667	1	0.033500
6.533333	1	0.032875
6.550000	1	0.032625
6.566667	1	0.032500
6.583333	1	0.032750
6.600000	1	0.033125
6.616667	1	0.033250
6.633333	1	0.034250
6.650000	1	0.034500
6.666667	1	0.034500
6.683333	1	0.035375
6.700000	1	0.037000
6.716667	1	0.038750
6.733333	1	0.039375
6.750000	1	0.041250
6.766667	1	0.043750
6.783333	1	0.046125
6.800000	1	0.048000
6.816667	1	0.050125
6.833333	1	0.052750
6.850000	1	0.055250
6.866667	1	0.057875
6.883333	1	0.060000
6.900000	1	0.062750
6.916667	1	0.065750
6.933333	1	0.068250
6.950000	1	0.071125
6.966667	1	0.073500
6.983333	1	0.076125
7.000000	1	0.079125
7.016667	1	0.082000
7.033333	1	0.084125
7.050000	1	0.086875
7.066667	1	0.088625
7.083333	1	0.090375
7.100000	1	0.092000
7.116667	1	0.094375
7.133333	1	0.096125
7.150000	1	0.097250
7.166667	1	0.098625
7.183333	1	0.099500
7.200000	1	0.100250
7.216667	1	0.100750
7.233333	1	0.101375
7.250000	1	0.102375
7.266667	1	0.102750
7.283333	1	0.103125
7.300000	1	0.103750
7.316667	1	0.103500
7.333333	1	0.102875
7.350000	1	0.103000
7.366667	1	0.102500
7.383333	1	0.102625
7.400000	1	0.101750
7.416667	1	0.100375
7.433333	1	0.100000
7.450000	1	0.098500
7.466667	1	0.097250
7.483333	1	0.096125
7.500000	1	0.094750
7.516667	1	0.093500
7.533333	1	0.092000
7.550000	1	0.090375
7.566667	1	0.088375
7.583333	1	0.085750
7.600000	1	0.084375
7.616667	1	0.082750
7.633333	1	0.080500
7.650000	1	0.078125
7.666667	1	0.075375
7.683333	1	0.073125
7.700000	1	0.070250
7.716667	1	0.067375
7.733333	1	0.065000
7.750000	1	0.062250
7.766667	1	0.058625
7.783333	1	0.056625
7.800000	1	0.053500
7.816667	1	0.050375
7.833333	1	0.047625
7.850000	1	0.044500
7.866667	1	0.041125
7.883333	1	0.038000
7.900000	1	0.035500
7.916667	1	0.032125
7.933333	1	0.029625
7.950000	1	0.026625
7.966667	1	0.023875
7.983333	1	0.020625
8.000000	1	0.018125
8.016667	1	0.016000
8.033333	1	0.013625
8.050000	1	0.011000
8.066667	1	0.008500
8.083333	1	0.007125
8.100000	1	0.005250
8.116667	1	0.003500
8.133333	1	0.002500
8.150000	1	0.001125
8.166667	1	0.000250
8.183333	1	-0.001000
8.200000	1	-0.001375
8.216667	1	-0.003000
8.233333	1	-0.003875
8.250000	1	-0.004625
8.266667	1	-0.004250
8.283333	1	-0.004250
8.300000	1	-0.004125
8.316667	1	-0.003750
8.333333	1	-0.004250
8.350000	1	-0.004250
8.366667	1	-0.003625
8.383333	1	-0.002500
8.400000	1	-0.001500
8.416667	1	-0.000250
8.433333	1	0.000000
8.450000	1	0.000750
8.466667	1	0.001500
8.483333	1	0.003000
8.500000	1	0.004125
8.516667	1	0.005125
8.533333	1	0.007000
8.550000	1	0.008125
8.566667	1	0.009750
8.583333	1	0.011375
8.600000	1	0.011625
8.616667	1	0.012250
8.633333	1	0.013250
8.650000	1	0.014375
8.666667	1	0.015750
8.683333	1	0.016625
8.700000	1	0.016750
8.716667	1	0.017375
8.733333	1	0.017500
8.750000	1	0.017875
8.766667	1	0.018250
8.783333	1	0.018125
8.800000	1	0.018000
8.816667	1	0.017375
8.833333	1	0.017625
8.850000	1	0.017250
8.866667	1	0.016750
8.883333	1	0.016875
8.900000	1	0.016000
8.916667	1	0.015125
8.933333	1	0.014875
8.950000	1	0.013750
8.966667	1	0.013000
8.983333	1	0.011375
9.000000	1	0.010500
9.016667	1	0.009750
9.033333	1	0.008250
9.050000	1	0.007375
9.066667	1	0.005750
9.083333	1	0.004625
9.100000	1	0.003500
9.116667	1	0.001875
9.133333	1	0.000625
9.150000	1	-0.000250
9.166667	1	-0.001500
9.183333	1	-0.003000
9.200000	1	-0.004375
9.216667	1	-0.005375
9.233333	1	-0.006750
9.250000	1	-0.008500
9.266667	1	-0.009375
9.283333	1	-0.010750
9.300000	1	-0.012000
9.316667	1	-0.013625
9.333333	1	-0.014375
9.350000	1	-0.015375
9.366667	1	-0.016500
9.383333	1	-0.017500
9.400000	1	-0.018750
9.416667	1	-0.020375
9.433333	1	-0.021875
9.450000	1	-0.022750
9.466667	1	-0.023625
9.483333	1	-0.025250
9.500000	1	-0.025500
9.516667	1	-0.026500
9.533333	1	-0.027125
9.550000	1	-0.027875
9.566667	1	-0.028250
9.583333	1	-0.028875
9.600000	1	-0.030000
9.616667	1	-0.031000
9.633333	1	-0.030875
9.650000	1	-0.031250
9.666667	1	-0.031625
9.683333	1	-0.032250
9.700000	1	-0.033000
9.716667	1	-0.033125
9.733333	1	-0.034000
9.750000	1	-0.034875
9.766667	1	-0.035000
9.783333	1	-0.035250
9.800000	1	-0.035750
9.816667	1	-0.036375
9.833333	1	-0.036500
9.850000	1	-0.036750
9.866667	1	-0.037125
9.883333	1	-0.037750
9.900000	1	-0.038125
9.916667	1	-0.037875
9.933333	1	-0.038125
9.950000	1	-0.038000
9.966667	1	-0.037500
9.983333	1	-0.037375
10.000000	1	-0.037375
10.016667	1	-0.036875
10.033333	1	-0.036375
10.050000	1	-0.035500
10.066667	1	-0.034375
10.083333	1	-0.032875
10.100000	1	-0.030875
10.116667	1	-0.028125
10.133333	1	-0.025000
10.150000	1	-0.020750
10.166667	1	-0.016125
10.183333	1	-0.010625
10.200000	1	-0.004625
10.216667	1	0.003250
10.233333	1	0.012750
10.250000	1	0.022750
10.266667	1	0.034250
10.283333	1	0.048000
10.300000	1	0.063125
10.316667	1	0.079750
10.333333	1	0.097500
10.350000	1	0.115875
10.366667	1	0.132625
10.383333	1	0.144750
10.400000	1	0.147750
10.416667	1	0.137750
10.433333	1	0.109875
10.450000	1	0.062500
10.466667	1	-0.002250
10.483333	1	-0.072875
10.500000	1	-0.129000
10.516667	1	-0.135750
10.533333	1	-0.047125
10.550000	1	0.194125
10.566667	1	0.652375
10.583333	1	1.395000
10.600000	1	2.486000
10.616667	1	3.982750
10.633333	1	5.930500
10.650000	1	8.359250
10.666667	1	11.294500
10.683333	1	14.747125
10.700000	1	18.718250
10.716667	1	23.196375
10.733333	1	28.161750
10.750000	1	33.581750
10.766667	1	39.401500
10.783333	1	45.563000
10.800000	1	51.988000
10.816667	1	58.556625
10.833333	1	65.077625
10.850000	1	71.265250
10.866667	1	76.712125
10.883333	1	80.851250
10.900000	1	83.019250
10.916667	1	82.605000
10.933333	1	79.288250
10.950000	1	73.229375
10.966667	1	65.099375
10.983333	1	55.864625
11.000000	1	46.506375
11.016667	1	37.783250
11.033333	1	30.147875
11.050000	1	23.761375
11.066667	1	18.588125
11.083333	1	14.501000
11.100000	1	11.330250
11.116667	1	8.905750
11.133333	1	7.070125
11.150000	1	5.689500
11.166667	1	4.652375
11.183333	1	3.872250
11.200000	1	3.283000
11.216667	1	2.834625
11.233333	1	2.489625
11.250000	1	2.221875
11.266667	1	2.010000
11.283333	1	1.840000
11.300000	1	1.702500
11.316667	1	1.589250
11.333333	1	1.494375
11.350000	1	1.414250
11.366667	1	1.345875
11.383333	1	1.287750
11.400000	1	1.238750
11.416667	1	1.195625
11.433333	1	1.159500
11.450000	1	1.127750
11.466667	1	1.100375
11.483333	1	1.077500
11.500000	1	1.057625
11.516667	1	1.040125
11.533333	1	1.024750
11.550000	1	1.012125
11.566667	1	1.001000
11.583333	1	0.991875
11.600000	1	0.984125
11.616667	1	0.977125
11.633333	1	0.972875
11.650000	1	0.969750
11.666667	1	0.967000
11.683333	1	0.966500
11.700000	1	0.967500
11.716667	1	0.968500
11.733333	1	0.970750
11.750000	1	0.974250
11.766667	1	0.979000
11.783333	1	0.984875
11.800000	1	0.991500
11.816667	1	0.997875
11.833333	1	1.005750
11.850000	1	1.013000
11.866667	1	1.020250
11.883333	1	1.027625
11.900000	1	1.033750
11.916667	1	1.039250
11.933333	1	1.044125
11.950000	1	1.047625
11.966667	1	1.050000
11.983333	1	1.052875
12.000000	1	1.055000
12.016667	1	1.056125
12.033333	1	1.056750
12.050000	1	1.057125
12.066667	1	1.057625
12.083333	1	1.058250
12.100000	1	1.059375
12.116667	1	1.061125
12.133333	1	1.061875
12.150000	1	1.063750
12.166667	1	1.065875
12.183333	1	1.068750
12.200000	1	1.072250
12.216667	1	1.076250
12.233333	1	1.082000
12.250000	1	1.089250
12.266667	1	1.098750
12.283333	1	1.111000
12.300000	1	1.127000
12.316667	1	1.148125
12.333333	1	1.176375
12.350000	1	1.213000
12.366667	1	1.262250
12.383333	1	1.326500
12.400000	1	1.410000
12.416667	1	1.516000
12.433333	1	1.649250
12.450000	1	1.815250
12.466667	1	2.019500
12.483333	1	2.266500
12.500000	1	2.560000
12.516667	1	2.904500
12.533333	1	3.302375
12.550000	1	3.755000
12.566667	1	4.263125
12.583333	1	4.823625
12.600000	1	5.431875
12.616667	1	6.080125
12.633333	1	6.759750
12.650000	1	7.457625
12.666667	1	8.162500
12.683333	1	8.861000
12.700000	1	9.542125
12.716667	1	10.195125
12.733333	1	10.814250
12.750000	1	11.397750
12.766667	1	11.947750
12.783333	1	12.468250
12.800000	1	12.967250
12.816667	1	13.455125
12.833333	1	13.942125
12.850000	1	14.437250
12.866667	1	14.951250
12.883333	1	15.489625
12.900000	1	16.057125
12.916667	1	16.656125
12.933333	1	17.288125
12.950000	1	17.952000
12.966667	1	18.648000
12.983333	1	19.374500
13.000000	1	20.128500
13.016667	1	20.907875
13.033333	1	21.713000
13.050000	1	22.541375
13.066667	1	23.393875
13.083333	1	24.268125
13.100000	1	25.164875
13.116667	1	26.081125
13.133333	1	27.016625
13.150000	1	27.970625
13.166667	1	28.943875
13.183333	1	29.936250
13.200000	1	30.946250
13.216667	1	31.974375
13.233333	1	33.021750
13.250000	1	34.089500
13.266667	1	35.178875
13.283333	1	36.289375
13.300000	1	37.420750
13.316667	1	38.574000
13.333333	1	39.746750
13.350000	1	40.942125
13.366667	1	42.159500
13.383333	1	43.400375
13.400000	1	44.663625
13.416667	1	45.950625
13.433333	1	47.262500
13.450000	1	48.601375
13.466667	1	49.968125
13.483333	1	51.362750
13.500000	1	52.785375
13.516667	1	54.237250
13.533333	1	55.718625
13.550000	1	57.229125
13.566667	1	58.769625
13.583333	1	60.340375
13.600000	1	61.940875
13.616667	1	63.572500
13.633333	1	65.237250
13.650000	1	66.936875
13.666667	1	68.673000
13.683333	1	70.445375
13.700000	1	72.255125
13.716667	1	74.101000
13.733333	1	75.978125
13.750000	1	77.857750
13.766667	1	79.659250
13.783333	1	81.215375
13.800000	1	82.281750
13.816667	1	82.591625
13.833333	1	81.883000
13.850000	1	79.893875
13.866667	1	76.349000
13.883333	1	71.024375
13.900000	1	63.917250
13.916667	1	55.418875
13.933333	1	46.314125
13.950000	1	37.522000
13.966667	1	29.759375
13.983333	1	23.361750
14.000000	1	18.325625
14.016667	1	14.462000
14.033333	1	11.539500
14.050000	1	9.348500
14.066667	1	7.720625
14.083333	1	6.520000
14.100000	1	5.639125
14.116667	1	4.991625
14.133333	1	4.513500
14.150000	1	4.155750
14.166667	1	3.884125
14.183333	1	3.672375
14.200000	1	3.504000
14.216667	1	3.367500
14.233333	1	3.253125
14.250000	1	3.155125
14.266667	1	3.070625
14.283333	1	2.996000
14.300000	1	2.929750
14.316667	1	2.870125
14.333333	1	2.816875
14.350000	1	2.768125
14.366667	1	2.725750
14.383333	1	2.688125
14.400000	1	2.657375
14.416667	1	2.634500
14.433333	1	2.621250
14.450000	1	2.620375
14.466667	1	2.635250
14.483333	1	2.672375
14.500000	1	2.739750
14.516667	1	2.848125
14.533333	1	3.011000
14.550000	1	3.248250
14.566667	1	3.584125
14.583333	1	4.050250
14.600000	1	4.685625
14.616667	1	5.538875
14.633333	1	6.666875
14.650000	1	8.134875
14.666667	1	10.010750
14.683333	1	12.362625
14.700000	1	15.250250
14.716667	1	18.718250
14.733333	1	22.794375
14.750000	1	27.475750
14.766667	1	32.716500
14.783333	1	38.420875
14.800000	1	44.455750
14.816667	1	50.642125
14.833333	1	56.761000
14.850000	1	62.560125
14.866667	1	67.776750
14.883333	1	72.151000
14.900000	1	75.458125
14.916667	1	77.523500
14.933333	1	78.243375
14.950000	1	77.587125
14.966667	1	75.609250
14.983333	1	72.440250
15.000000	1	68.264375
15.016667	1	63.307750
15.033333	1	57.816750
15.050000	1	52.040500
15.066667	1	46.212375
15.083333	1	40.534500
15.100000	1	35.164750
15.116667	1	30.218375
15.133333	1	25.763625
15.150000	1	21.829500
15.166667	1	18.415500
15.183333	1	15.496625
15.200000	1	13.032000
15.216667	1	10.970625
15.233333	1	9.262500
15.250000	1	7.857500
15.266667	1	6.709000
15.283333	1	5.774250
15.300000	1	5.017750
15.316667	1	4.408625
15.333333	1	3.919375
15.350000	1	3.527625
15.366667	1	3.216000
15.383333	1	2.970250
15.400000	1	2.777000
15.416667	1	2.628125
15.433333	1	2.514000
15.450000	1	2.428500
15.466667	1	2.365250
15.483333	1	2.319000
15.500000	1	2.285625
15.516667	1	2.260500
15.533333	1	2.239500
15.550000	1	2.219625
15.566667	1	2.198750
15.583333	1	2.174750
15.600000	1	2.147125
15.616667	1	2.115125
15.633333	1	2.078750
15.650000	1	2.038000
15.666667	1	1.996000
15.683333	1	1.952625
15.700000	1	1.909250
15.716667	1	1.866750
15.733333	1	1.825250
15.750000	1	1.786250
15.766667	1	1.749500
15.783333	1	1.714625
15.800000	1	1.680875
15.816667	1	1.649125
15.833333	1	1.618875
15.850000	1	1.588875
15.866667	1	1.560125
15.883333	1	1.531000
15.900000	1	1.503125
15.916667	1	1.477000
15.933333	1	1.451875
15.950000	1	1.429125
15.966667	1	1.408125
15.983333	1	1.390375
16.000000	1	1.375250
16.016667	1	1.362250
16.033333	1	1.352125
16.050000	1	1.344875
16.066667	1	1.339500
16.083333	1	1.336125
16.100000	1	1.333625
16.116667	1	1.331250
16.133333	1	1.329875
16.150000	1	1.328125
16.166667	1	1.325250
16.183333	1	1.321000
16.200000	1	1.316250
16.216667	1	1.309625
16.233333	1	1.301250
16.250000	1	1.291000
16.266667	1	1.279750
16.283333	1	1.267625
16.300000	1	1.254125
16.316667	1	1.240250
16.333333	1	1.226125
16.350000	1	1.211750
16.366667	1	1.197375
16.383333	1	1.182750
16.400000	1	1.169500
16.416667	1	1.157000
16.433333	1	1.145750
16.450000	1	1.136125
16.466667	1	1.127375
16.483333	1	1.120625
16.500000	1	1.116125
16.516667	1	1.113250
16.533333	1	1.112750
16.550000	1	1.114125
16.566667	1	1.117000
16.583333	1	1.121500
16.600000	1	1.127125
16.616667	1	1.133000
16.633333	1	1.139250
16.650000	1	1.144500
16.666667	1	1.149250
16.683333	1	1.152500
16.700000	1	1.155375
16.716667	1	1.157125
16.733333	1	1.158000
16.750000	1	1.157500
16.766667	1	1.157000
16.783333	1	1.157250
16.800000	1	1.156875
16.816667	1	1.157375
16.833333	1	1.157750
16.850000	1	1.159250
16.866667	1	1.161000
16.883333	1	1.163000
16.900000	1	1.165000
16.916667	1	1.166750
16.933333	1	1.167875
16.950000	1	1.169375
16.966667	1	1.169625
16.983333	1	1.168625
17.000000	1	1.166625
17.016667	1	1.163125
17.033333	1	1.158875
17.050000	1	1.154375
17.066667	1	1.148375
17.083333	1	1.142125
17.100000	1	1.135500
17.116667	1	1.128875
17.133333	1	1.122875
17.150000	1	1.116750
17.166667	1	1.112125
17.183333	1	1.107750
17.200000	1	1.103500
17.216667	1	1.100625
17.233333	1	1.098500
17.250000	1	1.097375
17.266667	1	1.095875
17.283333	1	1.095125
17.300000	1	1.094625
17.316667	1	1.094875
17.333333	1	1.094500
17.350000	1	1.095625
17.366667	1	1.096375
17.383333	1	1.097625
17.400000	1	1.098500
17.416667	1	1.099125
17.433333	1	1.098875
17.450000	1	1.098875
17.466667	1	1.097875
17.483333	1	1.096750
17.500000	1	1.094250
17.516667	1	1.090125
17.533333	1	1.084250
17.550000	1	1.077250
17.566667	1	1.069500
17.583333	1	1.059875
17.600000	1	1.049125
17.616667	1	1.037500
17.633333	1	1.025000
17.650000	1	1.011000
17.666667	1	0.995750
17.683333	1	0.981125
17.700000	1	0.966000
17.716667	1	0.950625
17.733333	1	0.936000
17.750000	1	0.922000
17.766667	1	0.908250
17.783333	1	0.895125
17.800000	1	0.883250
17.816667	1	0.871500
17.833333	1	0.861000
17.850000	1	0.851625
17.866667	1	0.843625
17.883333	1	0.835750
17.900000	1	0.828875
17.916667	1	0.823375
17.933333	1	0.818250
17.950000	1	0.814250
17.966667	1	0.810875
17.983333	1	0.808250
18.000000	1	0.805625
18.016667	1	0.803875
18.033333	1	0.802000
18.050000	1	0.799375
18.066667	1	0.798125
18.083333	1	0.796375
18.100000	1	0.794000
18.116667	1	0.791750
18.133333	1	0.789750
18.150000	1	0.787125
18.166667	1	0.784500
18.183333	1	0.782250
18.200000	1	0.780250
18.216667	1	0.778875
18.233333	1	0.778000
18.250000	1	0.777000
18.266667	1	0.775500
18.283333	1	0.774750
18.300000	1	0.774125
18.316667	1	0.774125
18.333333	1	0.774375
18.350000	1	0.774250
18.366667	1	0.774375
18.383333	1	0.774500
18.400000	1	0.774375
18.416667	1	0.775125
18.433333	1	0.776750
18.450000	1	0.777750
18.466667	1	0.780875
18.483333	1	0.783625
18.500000	1	0.787750
18.516667	1	0.794000
18.533333	1	0.801500
18.550000	1	0.810250
18.566667	1	0.820750
18.583333	1	0.833750
18.600000	1	0.848375
18.616667	1	0.864500
18.633333	1	0.883250
18.650000	1	0.904500
18.666667	1	0.927500
18.683333	1	0.952875
18.700000	1	0.979000
18.716667	1	1.007625
18.733333	1	1.037250
18.750000	1	1.068875
18.766667	1	1.100250
18.783333	1	1.133875
18.800000	1	1.165625
18.816667	1	1.197750
18.833333	1	1.229500
18.850000	1	1.258875
18.866667	1	1.286750
18.883333	1	1.311125
18.900000	1	1.331375
18.916667	1	1.347250
18.933333	1	1.357750
18.950000	1	1.363375
18.966667	1	1.362875
18.983333	1	1.355625
19.000000	1	1.342375
19.016667	1	1.322125
19.033333	1	1.295500
19.050000	1	1.263125
19.066667	1	1.225750
19.083333	1	1.184125
19.100000	1	1.139375
19.116667	1	1.093000
19.133333	1	1.045250
19.150000	1	0.997500
19.166667	1	0.950750
19.183333	1	0.906750
19.200000	1	0.865750
19.216667	1	0.829250
19.233333	1	0.797750
19.250000	1	0.772250
19.266667	1	0.753875
19.283333	1	0.742250
19.300000	1	0.737750
19.316667	1	0.741250
19.333333	1	0.752500
19.350000	1	0.772875
19.366667	1	0.801875
19.383333	1	0.839375
19.400000	1	0.885625
19.416667	1	0.939500
19.433333	1	1.001625
19.450000	1	1.069250
19.466667	1	1.142500
19.483333	1	1.220000
19.500000	1	1.299250
19.516667	1	1.378625
19.533333	1	1.455875
19.550000	1	1.530000
19.566667	1	1.597875
19.583333	1	1.658250
19.600000	1	1.708750
19.616667	1	1.747250
19.633333	1	1.772875
19.650000	1	1.785875
19.666667	1	1.785625
19.683333	1	1.773375
19.700000	1	1.748625
19.716667	1	1.713125
19.733333	1	1.667750
19.750000	1	1.614125
19.766667	1	1.555125
19.783333	1	1.490500
19.800000	1	1.422750
19.816667	1	1.353875
19.833333	1	1.284750
19.850000	1	1.216000
19.866667	1	1.149000
19.883333	1	1.084625
19.900000	1	1.023250
19.916667	1	0.965500
19.933333	1	0.911875
19.950000	1	0.862125
19.966667	1	0.815500
19.983333	1	0.773750
20.000000	1	0.735875
20.016667	1	0.701625
20.033333	1	0.672000
20.050000	1	0.645500
20.066667	1	0.623125
20.083333	1	0.605125
20.100000	1	0.590875
20.116667	1	0.580250
20.133333	1	0.572625
20.150000	1	0.569000
20.166667	1	0.568125
20.183333	1	0.570250
20.200000	1	0.575500
20.216667	1	0.582375
20.233333	1	0.591125
20.250000	1	0.600875
20.266667	1	0.611625
20.283333	1	0.623250
20.300000	1	0.634125
20.316667	1	0.644375
20.333333	1	0.653125
20.350000	1	0.660500
20.366667	1	0.665250
20.383333	1	0.667250
20.400000	1	0.666875
20.416667	1	0.664375
20.433333	1	0.659250
20.450000	1	0.652500
20.466667	1	0.644625
20.483333	1	0.636000
20.500000	1	0.626750
20.516667	1	0.619750
20.533333	1	0.614250
20.550000	1	0.610750
20.566667	1	0.611625
20.583333	1	0.616250
20.600000	1	0.626625
20.616667	1	0.643125
20.633333	1	0.666125
20.650000	1	0.696000
20.666667	1	0.733125
20.683333	1	0.777625
20.700000	1	0.829250
20.716667	1	0.887875
20.733333	1	0.952500
20.750000	1	1.021875
20.766667	1	1.093375
20.783333	1	1.167250
20.800000	1	1.239625
20.816667	1	1.309750
20.833333	1	1.374125
20.850000	1	1.432375
20.866667	1	1.480750
20.883333	1	1.518000
20.900000	1	1.543625
20.916667	1	1.555875
20.933333	1	1.553875
20.950000	1	1.538375
20.966667	1	1.509875
20.983333	1	1.470000
21.000000	1	1.419750
21.016667	1	1.360750
21.033333	1	1.295500
21.050000	1	1.224875
21.066667	1	1.151750
21.083333	1	1.077875
21.100000	1	1.005750
21.116667	1	0.935875
21.133333	1	0.869250
21.150000	1	0.806250
21.166667	1	0.747750
21.183333	1	0.694750
21.200000	1	0.647125
21.216667	1	0.604125
21.233333	1	0.566625
21.250000	1	0.533500
21.266667	1	0.504375
21.283333	1	0.479625
21.300000	1	0.457750
21.316667	1	0.438625
21.333333	1	0.422500
21.350000	1	0.408750
21.366667	1	0.397125
21.383333	1	0.387375
21.400000	1	0.378625
21.416667	1	0.370750
21.433333	1	0.363875
21.450000	1	0.358000
21.466667	1	0.352250
21.483333	1	0.347125
21.500000	1	0.343125
21.516667	1	0.339125
21.533333	1	0.335500
21.550000	1	0.332750
21.566667	1	0.330000
21.583333	1	0.327250
21.600000	1	0.325250
21.616667	1	0.323500
21.633333	1	0.322750
21.650000	1	0.322375
21.666667	1	0.322500
21.683333	1	0.323500
21.700000	1	0.325000
21.716667	1	0.326750
21.733333	1	0.329500
21.750000	1	0.333375
21.766667	1	0.337750
21.783333	1	0.342250
21.800000	1	0.347250
21.816667	1	0.352625
21.833333	1	0.358125
21.850000	1	0.364500
21.866667	1	0.371125
21.883333	1	0.377625
21.900000	1	0.384250
21.916667	1	0.392250
21.933333	1	0.399750
21.950000	1	0.408250
21.966667	1	0.415500
21.983333	1	0.422750
22.000000	1	0.431000
22.016667	1	0.438875
22.033333	1	0.446500
22.050000	1	0.453625
22.066667	1	0.460375
22.083333	1	0.467375
22.100000	1	0.473250
22.116667	1	0.478625
22.133333	1	0.483125
22.150000	1	0.487500
22.166667	1	0.490250
22.183333	1	0.492750
22.200000	1	0.493750
22.216667	1	0.492875
22.233333	1	0.491250
22.250000	1	0.488250
22.266667	1	0.484125
22.283333	1	0.478750
22.300000	1	0.471875
22.316667	1	0.463500
22.333333	1	0.455250
22.350000	1	0.445375
22.366667	1	0.434875
22.383333	1	0.423125
22.400000	1	0.412250
22.416667	1	0.399750
22.433333	1	0.387500
22.450000	1	0.375625
22.466667	1	0.364125
22.483333	1	0.352250
22.500000	1	0.341250
22.516667	1	0.331250
22.533333	1	0.321750
22.550000	1	0.313000
22.566667	1	0.304750
22.583333	1	0.296625
22.600000	1	0.289500
22.616667	1	0.282625
22.633333	1	0.276375
22.650000	1	0.270000
22.666667	1	0.264625
22.683333	1	0.259875
22.700000	1	0.255125
22.716667	1	0.251500
22.733333	1	0.248000
22.750000	1	0.245000
22.766667	1	0.241250
22.783333	1	0.238125
22.800000	1	0.234875
22.816667	1	0.231250
22.833333	1	0.228250
22.850000	1	0.226250
22.866667	1	0.223375
22.883333	1	0.220875
22.900000	1	0.218750
22.916667	1	0.216375
22.933333	1	0.215000
22.950000	1	0.214250
22.966667	1	0.213500
22.983333	1	0.212875
23.000000	1	0.211750
23.016667	1	0.211875
23.033333	1	0.212250
23.050000	1	0.212750
23.066667	1	0.213750
23.083333	1	0.214625
23.100000	1	0.217125
23.116667	1	0.218875
23.133333	1	0.221250
23.150000	1	0.223875
23.166667	1	0.226875
23.183333	1	0.229750
23.200000	1	0.232875
23.216667	1	0.236500
23.233333	1	0.240875
23.250000	1	0.245000
23.266667	1	0.250875
23.283333	1	0.257875
23.300000	1	0.265875
23.316667	1	0.274625
23.333333	1	0.285375
23.350000	1	0.298625
23.366667	1	0.315250
23.383333	1	0.335375
23.400000	1	0.359875
23.416667	1	0.389125
23.433333	1	0.424625
23.450000	1	0.467125
23.466667	1	0.517625
23.483333	1	0.577500
23.500000	1	0.648500
23.516667	1	0.731000
23.533333	1	0.826375
23.550000	1	0.935500
23.566667	1	1.059500
23.583333	1	1.199750
23.600000	1	1.356875
23.616667	1	1.530875
23.633333	1	1.722250
23.650000	1	1.929125
23.666667	1	2.151250
23.683333	1	2.386625
23.700000	1	2.633875
23.716667	1	2.889000
23.733333	1	3.149625
23.750000	1	3.410500
23.766667	1	3.667375
23.783333	1	3.914375
23.800000	1	4.147875
23.816667	1	4.361250
23.833333	1	4.550375
23.850000	1	4.710125
23.866667	1	4.837875
23.883333	1	4.929625
23.900000	1	4.984500
23.916667	1	5.001125
23.933333	1	4.978125
23.950000	1	4.917625
23.966667	1	4.821625
23.983333	1	4.692375
24.000000	1	4.534250
24.016667	1	4.352000
24.033333	1	4.149250
24.050000	1	3.930500
24.066667	1	3.700500
24.083333	1	3.465125
24.100000	1	3.227125
24.116667	1	2.990875
24.133333	1	2.759125
24.150000	1	2.534875
24.166667	1	2.321500
24.183333	1	2.119750
24.200000	1	1.930250
24.216667	1	1.755625
24.233333	1	1.594750
24.250000	1	1.448000
24.266667	1	1.315000
24.283333	1	1.195250
24.300000	1	1.087750
24.316667	1	0.992250
24.333333	1	0.907000
24.350000	1	0.831500
24.366667	1	0.766375
24.383333	1	0.709750
24.400000	1	0.660375
24.416667	1	0.617875
24.433333	1	0.581500
24.450000	1	0.550750
24.466667	1	0.524500
24.483333	1	0.502125
24.500000	1	0.483125
24.516667	1	0.467125
24.533333	1	0.453500
24.550000	1	0.442250
24.566667	1	0.432750
24.583333	1	0.424250
24.600000	1	0.416750
24.616667	1	0.410000
24.633333	1	0.403250
24.650000	1	0.396125
24.666667	1	0.390250
24.683333	1	0.384000
24.700000	1	0.377500
24.716667	1	0.371625
24.733333	1	0.364875
24.750000	1	0.359250
24.766667	1	0.353375
24.783333	1	0.346375
24.800000	1	0.338875
24.816667	1	0.332125
24.833333	1	0.326000
24.850000	1	0.319625
24.866667	1	0.313000
24.883333	1	0.307125
24.900000	1	0.301250
24.916667	1	0.296125
24.933333	1	0.290125
24.950000	1	0.284625
24.966667	1	0.280000
24.983333	1	0.275500
25.000000	1	0.271125
25.016667	1	0.266750
25.033333	1	0.262750
25.050000	1	0.258375
25.066667	1	0.254625
25.083333	1	0.251250
25.100000	1	0.247625
25.116667	1	0.244375
25.133333	1	0.240375
25.150000	1	0.237125
25.166667	1	0.233875
25.183333	1	0.230750
25.200000	1	0.227375
25.216667	1	0.224125
25.233333	1	0.220625
25.250000	1	0.217500
25.266667	1	0.215625
25.283333	1	0.212750
25.300000	1	0.210625
25.316667	1	0.208000
25.333333	1	0.206375
25.350000	1	0.204500
25.366667	1	0.202750
25.383333	1	0.201125
25.400000	1	0.199750
25.416667	1	0.198375
25.433333	1	0.198250
25.450000	1	0.198375
25.466667	1	0.198125
25.483333	1	0.198125
25.500000	1	0.198875
25.516667	1	0.199125
25.533333	1	0.200125
25.550000	1	0.201000
25.566667	1	0.202000
25.583333	1	0.202625
25.600000	1	0.204250
25.616667	1	0.206375
25.633333	1	0.208250
25.650000	1	0.209500
25.666667	1	0.211500
25.683333	1	0.213125
25.700000	1	0.214375
25.716667	1	0.216250
25.733333	1	0.217625
25.750000	1	0.219000
25.766667	1	0.220375
25.783333	1	0.221375
25.800000	1	0.223250
25.816667	1	0.224750
25.833333	1	0.225875
25.850000	1	0.227500
25.866667	1	0.229750
25.883333	1	0.232000
25.900000	1	0.234125
25.916667	1	0.236250
25.933333	1	0.239625
25.950000	1	0.243000
25.966667	1	0.246000
25.983333	1	0.249125
26.000000	1	0.252625
26.016667	1	0.255750
26.033333	1	0.260000
26.050000	1	0.264250
26.066667	1	0.268500
26.083333	1	0.273250
26.100000	1	0.277625
26.116667	1	0.281750
26.133333	1	0.286375
26.150000	1	0.290125
26.166667	1	0.293750
26.183333	1	0.297000
26.200000	1	0.300250
26.216667	1	0.303500
26.233333	1	0.306000
26.250000	1	0.307750
26.266667	1	0.309625
26.283333	1	0.310750
26.300000	1	0.311500
26.316667	1	0.311375
26.333333	1	0.310375
26.350000	1	0.309250
26.366667	1	0.307750
26.383333	1	0.304750
26.400000	1	0.301375
26.416667	1	0.297125
26.433333	1	0.292500
26.450000	1	0.287625
26.466667	1	0.282625
26.483333	1	0.278125
26.500000	1	0.273000
26.516667	1	0.267500
26.533333	1	0.261250
26.550000	1	0.254625
26.566667	1	0.247875
26.583333	1	0.241750
26.600000	1	0.235500
26.616667	1	0.229750
26.633333	1	0.223875
26.650000	1	0.218625
26.666667	1	0.212625
26.683333	1	0.207500
26.700000	1	0.202250
26.716667	1	0.197625
26.733333	1	0.193875
26.750000	1	0.190250
26.766667	1	0.186375
26.783333	1	0.182750
26.800000	1	0.180125
26.816667	1	0.178000
26.833333	1	0.176750
26.850000	1	0.174625
26.866667	1	0.173250
26.883333	1	0.172625
26.900000	1	0.172375
26.916667	1	0.172500
26.933333	1	0.172750
26.950000	1	0.173500
26.966667	1	0.174500
26.983333	1	0.175625
27.000000	1	0.177250
27.016667	1	0.179250
27.033333	1	0.181875
27.050000	1	0.184250
27.066667	1	0.188375
27.083333	1	0.192875
27.100000	1	0.199000
27.116667	1	0.204875
27.133333	1	0.211750
27.150000	1	0.220375
27.166667	1	0.230250
27.183333	1	0.240750
27.200000	1	0.253875
27.216667	1	0.268375
27.233333	1	0.285875
27.250000	1	0.305125
27.266667	1	0.327875
27.283333	1	0.354625
27.300000	1	0.384750
27.316667	1	0.418750
27.333333	1	0.457250
27.350000	1	0.501500
27.366667	1	0.551375
27.383333	1	0.607250
27.400000	1	0.671125
27.416667	1	0.741875
27.433333	1	0.820500
27.450000	1	0.907500
27.466667	1	1.003375
27.483333	1	1.108250
27.500000	1	1.222500
27.516667	1	1.346125
27.533333	1	1.478500
27.550000	1	1.619625
27.566667	1	1.769125
27.583333	1	1.926250
27.600000	1	2.090375
27.616667	1	2.259125
27.633333	1	2.432125
27.650000	1	2.608000
27.666667	1	2.783875
27.683333	1	2.959000
27.700000	1	3.129250
27.716667	1	3.293125
27.733333	1	3.447500
27.750000	1	3.590500
27.766667	1	3.719000
27.783333	1	3.830875
27.800000	1	3.924125
27.816667	1	3.997000
27.833333	1	4.048625
27.850000	1	4.077000
27.866667	1	4.080750
27.883333	1	4.060125
27.900000	1	4.016000
27.916667	1	3.948375
27.933333	1	3.859000
27.950000	1	3.748875
27.966667	1	3.620750
27.983333	1	3.475625
28.000000	1	3.318000
28.016667	1	3.149250
28.033333	1	2.972125
28.050000	1	2.789750
28.066667	1	2.604625
28.083333	1	2.419750
28.100000	1	2.236875
28.116667	1	2.059375
28.133333	1	1.887000
28.150000	1	1.723250
28.166667	1	1.568875
28.183333	1	1.424000
28.200000	1	1.289500
28.216667	1	1.165750
28.233333	1	1.052500
28.250000	1	0.950000
28.266667	1	0.857250
28.283333	1	0.774875
28.300000	1	0.702750
28.316667	1	0.639000
28.333333	1	0.583250
28.350000	1	0.535625
28.366667	1	0.494500
28.383333	1	0.460250
28.400000	1	0.432125
28.416667	1	0.409500
28.433333	1	0.391625
28.450000	1	0.378000
28.466667	1	0.367750
28.483333	1	0.361125
28.500000	1	0.357500
28.516667	1	0.356625
28.533333	1	0.358250
28.550000	1	0.361250
28.566667	1	0.366750
28.583333	1	0.373500
28.600000	1	0.381500
28.616667	1	0.391125
28.633333	1	0.401125
28.650000	1	0.411375
28.666667	1	0.421625
28.683333	1	0.432500
28.700000	1	0.443875
28.716667	1	0.454000
28.733333	1	0.464750
28.750000	1	0.474750
28.766667	1	0.483875
28.783333	1	0.492375
28.800000	1	0.499750
28.816667	1	0.507125
28.833333	1	0.512875
28.850000	1	0.517375
28.866667	1	0.521625
28.883333	1	0.525375
28.900000	1	0.526875
28.916667	1	0.526750
28.933333	1	0.526000
28.950000	1	0.524000
28.966667	1	0.521000
28.983333	1	0.517500
29.000000	1	0.512750
29.016667	1	0.506875
29.033333	1	0.500250
29.050000	1	0.491000
29.066667	1	0.481250
29.083333	1	0.471625
29.100000	1	0.461000
29.116667	1	0.448875
29.133333	1	0.436500
29.150000	1	0.423500
29.166667	1	0.410625
29.183333	1	0.396875
29.200000	1	0.382250
29.216667	1	0.368125
29.233333	1	0.354250
29.250000	1	0.340250
29.266667	1	0.326000
29.283333	1	0.311875
29.300000	1	0.297625
29.316667	1	0.284000
29.333333	1	0.270250
29.350000	1	0.257375
29.366667	1	0.243875
29.383333	1	0.231125
29.400000	1	0.218125
29.416667	1	0.207375
29.433333	1	0.196250
29.450000	1	0.185500
29.466667	1	0.175375
29.483333	1	0.165125
29.500000	1	0.155875
29.516667	1	0.146750
29.533333	1	0.139000
29.550000	1	0.131125
29.566667	1	0.124000
29.583333	1	0.117500
29.600000	1	0.111000
29.616667	1	0.105875
29.633333	1	0.100875
29.650000	1	0.096375
29.666667	1	0.092125
29.683333	1	0.088875
29.700000	1	0.085875
29.716667	1	0.083000
29.733333	1	0.080250
29.750000	1	0.078500
29.766667	1	0.076500
29.783333	1	0.075500
29.800000	1	0.075125
29.816667	1	0.074125
29.833333	1	0.073875
29.850000	1	0.074000
29.866667	1	0.074500
29.883333	1	0.075000
29.900000	1	0.075625
29.916667	1	0.076125
29.933333	1	0.077000
29.950000	1	0.078625
29.966667	1	0.080000
29.983333	1	0.081500
30.000000	1	0.082375
30.016667	1	0.084250
30.033333	1	0.086000
30.050000	1	0.087125
30.066667	1	0.088250
30.083333	1	0.089625
30.100000	1	0.090625
30.116667	1	0.091875
30.133333	1	0.092625
30.150000	1	0.093000
30.166667	1	0.093375
30.183333	1	0.093750
30.200000	1	0.094500
30.216667	1	0.094250
30.233333	1	0.094250
30.250000	1	0.094625
30.266667	1	0.094125
30.283333	1	0.094000
30.300000	1	0.093625
30.316667	1	0.093000
30.333333	1	0.092875
30.350000	1	0.092500
30.366667	1	0.092125
30.383333	1	0.091875
30.400000	1	0.092125
30.416667	1	0.092000
30.433333	1	0.091875
30.450000	1	0.092125
30.466667	1	0.092750
30.483333	1	0.093500
30.500000	1	0.094750
30.516667	1	0.096125
30.533333	1	0.097750
30.550000	1	0.100250
30.566667	1	0.103000
30.583333	1	0.106125
30.600000	1	0.110250
30.616667	1	0.115750
30.633333	1	0.121250
30.650000	1	0.127000
30.666667	1	0.134625
30.683333	1	0.142875
30.700000	1	0.152250
30.716667	1	0.162375
30.733333	1	0.174500
30.750000	1	0.187750
30.766667	1	0.202125
30.783333	1	0.219500
30.800000	1	0.238375
30.816667	1	0.260125
30.833333	1	0.285375
30.850000	1	0.312875
30.866667	1	0.344375
30.883333	1	0.378875
30.900000	1	0.418750
30.916667	1	0.463500
30.933333	1	0.514250
30.950000	1	0.572125
30.966667	1	0.637375
30.983333	1	0.710125
31.000000	1	0.792875
31.016667	1	0.884625
31.033333	1	0.987750
31.050000	1	1.102375
31.066667	1	1.228625
31.083333	1	1.368625
31.100000	1	1.521375
31.116667	1	1.688625
31.133333	1	1.869625
31.150000	1	2.064875
31.166667	1	2.274125
31.183333	1	2.497750
31.200000	1	2.735250
31.216667	1	2.985750
31.233333	1	3.247500
31.250000	1	3.518500
31.266667	1	3.797625
31.283333	1	4.082250
31.300000	1	4.369625
31.316667	1	4.657375
31.333333	1	4.941625
31.350000	1	5.220000
31.366667	1	5.489625
31.383333	1	5.747250
31.400000	1	5.989625
31.416667	1	6.212875
31.433333	1	6.414875
31.450000	1	6.592625
31.466667	1	6.742500
31.483333	1	6.864125
31.500000	1	6.954750
31.516667	1	7.013750
31.533333	1	7.039750
31.550000	1	7.034750
31.566667	1	6.997250
31.583333	1	6.928875
31.600000	1	6.829750
31.616667	1	6.702250
31.633333	1	6.548500
31.650000	1	6.370875
31.666667	1	6.172250
31.683333	1	5.954500
31.700000	1	5.721375
31.716667	1	5.475625
31.733333	1	5.220875
31.750000	1	4.959875
31.766667	1	4.694000
31.783333	1	4.427250
31.800000	1	4.160625
31.816667	1	3.897250
31.833333	1	3.638250
31.850000	1	3.387625
31.866667	1	3.144750
31.883333	1	2.911375
31.900000	1	2.688125
31.916667	1	2.477125
31.933333	1	2.277250
31.950000	1	2.088500
31.966667	1	1.912250
31.983333	1	1.748375
32.000000	1	1.595625
32.016667	1	1.454000
32.033333	1	1.323375
32.050000	1	1.203125
32.066667	1	1.092750
32.083333	1	0.992500
32.100000	1	0.900875
32.116667	1	0.817000
32.133333	1	0.740750
32.150000	1	0.672500
32.166667	1	0.610250
32.183333	1	0.553250
32.200000	1	0.502000
32.216667	1	0.455375
32.233333	1	0.413875
32.250000	1	0.375500
32.266667	1	0.341125
32.283333	1	0.309875
32.300000	1	0.281250
32.316667	1	0.255250
32.333333	1	0.232125
32.350000	1	0.210500
32.366667	1	0.191125
32.383333	1	0.173125
32.400000	1	0.156500
32.416667	1	0.141625
32.433333	1	0.127750
32.450000	1	0.115125
32.466667	1	0.102625
32.483333	1	0.091500
32.500000	1	0.081000
32.516667	1	0.072250
32.533333	1	0.063250
32.550000	1	0.054875
32.566667	1	0.047250
32.583333	1	0.040250
32.600000	1	0.033500
32.616667	1	0.027750
32.633333	1	0.022000
32.650000	1	0.016875
32.666667	1	0.012500
32.683333	1	0.008625
32.700000	1	0.004625
32.716667	1	0.001250
32.733333	1	-0.001375
32.750000	1	-0.003750
32.766667	1	-0.006375
32.783333	1	-0.008375
32.800000	1	-0.010375
32.816667	1	-0.012000
32.833333	1	-0.013125
32.850000	1	-0.013750
32.866667	1	-0.014500
32.883333	1	-0.014625
32.900000	1	-0.015375
32.916667	1	-0.015625
32.933333	1	-0.015250
32.950000	1	-0.015125
32.966667	1	-0.014625
32.983333	1	-0.014375
33.000000	1	-0.014125
33.016667	1	-0.013375
33.033333	1	-0.012625
33.050000	1	-0.012125
33.066667	1	-0.011750
33.083333	1	-0.011750
33.100000	1	-0.010500
33.116667	1	-0.009500
33.133333	1	-0.008625
33.150000	1	-0.008250
33.166667	1	-0.007000
33.183333	1	-0.006125
33.200000	1	-0.005000
33.216667	1	-0.003750
33.233333	1	-0.003000
33.250000	1	-0.002125
33.266667	1	-0.001125
33.283333	1	-0.000375
33.300000	1	-0.000125
33.316667	1	0.000750
33.333333	1	0.001875
33.350000	1	0.002625
33.366667	1	0.003250
33.383333	1	0.005250
33.400000	1	0.006125
33.416667	1	0.007500
33.433333	1	0.008625
33.450000	1	0.009375
33.466667	1	0.010625
33.483333	1	0.011375
33.500000	1	0.013125
33.516667	1	0.015375
33.533333	1	0.017250
33.550000	1	0.018750
33.566667	1	0.020750
33.583333	1	0.022250
33.600000	1	0.024000
33.616667	1	0.026125
33.633333	1	0.028125
33.650000	1	0.030000
33.666667	1	0.031875
33.683333	1	0.034125
33.700000	1	0.035875
33.716667	1	0.038625
33.733333	1	0.040625
33.750000	1	0.042375
33.766667	1	0.044875
33.783333	1	0.046500
33.800000	1	0.047625
33.816667	1	0.049625
33.833333	1	0.051375
33.850000	1	0.052375
33.866667	1	0.053875
33.883333	1	0.055625
33.900000	1	0.056875
33.916667	1	0.058750
33.933333	1	0.059875
33.950000	1	0.061125
33.966667	1	0.062500
33.983333	1	0.062375
34.000000	1	0.062875
34.016667	1	0.064375
34.033333	1	0.064375
34.050000	1	0.064750
34.066667	1	0.065500
34.083333	1	0.065875
34.100000	1	0.066500
34.116667	1	0.066750
34.133333	1	0.066750
34.150000	1	0.066750
34.166667	1	0.066500
34.183333	1	0.066000
34.200000	1	0.065625
34.216667	1	0.064875
34.233333	1	0.064375
34.250000	1	0.063750
34.266667	1	0.063875
34.283333	1	0.063000
34.300000	1	0.063000
34.316667	1	0.062375
34.333333	1	0.062250
34.350000	1	0.061875
34.366667	1	0.061750
34.383333	1	0.062250
34.400000	1	0.062250
34.416667	1	0.062500
34.433333	1	0.063375
34.450000	1	0.063375
34.466667	1	0.064125
34.483333	1	0.064250
34.500000	1	0.065125
34.516667	1	0.065875
34.533333	1	0.067000
34.550000	1	0.067250
34.566667	1	0.067375
34.583333	1	0.067625
34.600000	1	0.067875
34.616667	1	0.068375
34.633333	1	0.069250
34.650000	1	0.070125
34.666667	1	0.070250
34.683333	1	0.070875
34.700000	1	0.071375
34.716667	1	0.071625
34.733333	1	0.071250
34.750000	1	0.071250
34.766667	1	0.070625
34.783333	1	0.071375
34.800000	1	0.070750
34.816667	1	0.070375
34.833333	1	0.070000
34.850000	1	0.069625
34.866667	1	0.069375
34.883333	1	0.068875
34.900000	1	0.068500
34.916667	1	0.068125
34.933333	1	0.067750
34.950000	1	0.068000
34.966667	1	0.067625
34.983333	1	0.067125
35.000000	1	0.067000
35.016667	1	0.066500
35.033333	1	0.066375
35.050000	1	0.066625
35.066667	1	0.066500
35.083333	1	0.067000
35.100000	1	0.067750
35.116667	1	0.068500
35.133333	1	0.069250
35.150000	1	0.069625
35.166667	1	0.070000
35.183333	1	0.070875
35.200000	1	0.071500
35.216667	1	0.072250
35.233333	1	0.072875
35.250000	1	0.074000
35.266667	1	0.074625
35.283333	1	0.075250
35.300000	1	0.075625
35.316667	1	0.076625
35.333333	1	0.077000
35.350000	1	0.077625
35.366667	1	0.078625
35.383333	1	0.079500
35.400000	1	0.079875
35.416667	1	0.080375
35.433333	1	0.080625
35.450000	1	0.081375
35.466667	1	0.081625
35.483333	1	0.082125
35.500000	1	0.081750
35.516667	1	0.082000
35.533333	1	0.082250
35.550000	1	0.082500
35.566667	1	0.082375
35.583333	1	0.081875
35.600000	1	0.081750
35.616667	1	0.080750
35.633333	1	0.080375
35.650000	1	0.079875
35.666667	1	0.078500
35.683333	1	0.077375
35.700000	1	0.077000
35.716667	1	0.075125
35.733333	1	0.074125
35.750000	1	0.072375
35.766667	1	0.071750
35.783333	1	0.070125
35.800000	1	0.068625
35.816667	1	0.067375
35.833333	1	0.065500
35.850000	1	0.064625
35.866667	1	0.063375
35.883333	1	0.062500
35.900000	1	0.061000
35.916667	1	0.060500
35.933333	1	0.059750
35.950000	1	0.059000
35.966667	1	0.059000
35.983333	1	0.058375
36.000000	1	0.057625
36.016667	1	0.057500
36.033333	1	0.056875
36.050000	1	0.056875
36.066667	1	0.057000
36.083333	1	0.057875
36.100000	1	0.059000
36.116667	1	0.059875
36.133333	1	0.059875
36.150000	1	0.060625
36.166667	1	0.061125
36.183333	1	0.062375
36.200000	1	0.063625
36.216667	1	0.064750
36.233333	1	0.065625
36.250000	1	0.066875
36.266667	1	0.067500
36.283333	1	0.068250
36.300000	1	0.069375
36.316667	1	0.070000
36.333333	1	0.070000
36.350000	1	0.070125
36.366667	1	0.070500
36.383333	1	0.070750
36.400000	1	0.070500
36.416667	1	0.070250
36.433333	1	0.069750
36.450000	1	0.068875
36.466667	1	0.067750
36.483333	1	0.067000
36.500000	1	0.066000
36.516667	1	0.064375
36.533333	1	0.063125
36.550000	1	0.061875
36.566667	1	0.060875
36.583333	1	0.058750
36.600000	1	0.057000
36.616667	1	0.054750
36.633333	1	0.052125
36.650000	1	0.050000
36.666667	1	0.048375
36.683333	1	0.046250
36.700000	1	0.044500
36.716667	1	0.042250
36.733333	1	0.040000
36.750000	1	0.038500
36.766667	1	0.037250
36.783333	1	0.036125
36.800000	1	0.034500
36.816667	1	0.032875
36.833333	1	0.031500
36.850000	1	0.030375
36.866667	1	0.029500
36.883333	1	0.028500
36.900000	1	0.027875
36.916667	1	0.027000
36.933333	1	0.026500
36.950000	1	0.026375
36.966667	1	0.026500
36.983333	1	0.026500
37.000000	1	0.026500
37.016667	1	0.026250
37.033333	1	0.026000
37.050000	1	0.026000
37.066667	1	0.025375
37.083333	1	0.025125
37.100000	1	0.025125
37.116667	1	0.025000
37.133333	1	0.025625
37.150000	1	0.025375
37.166667	1	0.024875
37.183333	1	0.024250
37.200000	1	0.023625
37.216667	1	0.022750
37.233333	1	0.022500
37.250000	1	0.022250
37.266667	1	0.022125
37.283333	1	0.021375
37.300000	1	0.021375
37.316667	1	0.020625
37.333333	1	0.020000
37.350000	1	0.019125
37.366667	1	0.019125
37.383333	1	0.018625
37.400000	1	0.018375
37.416667	1	0.018375
37.433333	1	0.018500
37.450000	1	0.018000
37.466667	1	0.017750
37.483333	1	0.017750
37.500000	1	0.017500
37.516667	1	0.017125
37.533333	1	0.017750
37.550000	1	0.017750
37.566667	1	0.018125
37.583333	1	0.018500
37.600000	1	0.018250
37.616667	1	0.018375
37.633333	1	0.018500
37.650000	1	0.018125
37.666667	1	0.018375
37.683333	1	0.018500
37.700000	1	0.018375
37.716667	1	0.017625
37.733333	1	0.018250
37.750000	1	0.018125
37.766667	1	0.017625
37.783333	1	0.017625
37.800000	1	0.017125
37.816667	1	0.015875
37.833333	1	0.014625
37.850000	1	0.013625
37.866667	1	0.012000
37.883333	1	0.010500
37.900000	1	0.009125
37.916667	1	0.007625
37.933333	1	0.006375
37.950000	1	0.004625
37.966667	1	0.002250
37.983333	1	0.000250
38.000000	1	-0.001750
38.016667	1	-0.003375
38.033333	1	-0.005875
38.050000	1	-0.007625
38.066667	1	-0.009750
38.083333	1	-0.010875
38.100000	1	-0.012500
38.116667	1	-0.014250
38.133333	1	-0.016125
38.150000	1	-0.017875
38.166667	1	-0.019500
38.183333	1	-0.020875
38.200000	1	-0.022000
38.216667	1	-0.022375
38.233333	1	-0.022625
38.250000	1	-0.022500
38.266667	1	-0.023250
38.283333	1	-0.022750
38.300000	1	-0.022250
38.316667	1	-0.021125
38.333333	1	-0.020250
38.350000	1	-0.019250
38.366667	1	-0.018625
38.383333	1	-0.017125
38.400000	1	-0.016125
38.416667	1	-0.014875
38.433333	1	-0.012500
38.450000	1	-0.010750
38.466667	1	-0.008875
38.483333	1	-0.006375
38.500000	1	-0.003375
38.516667	1	-0.001625
38.533333	1	0.000000
38.550000	1	0.001500
38.566667	1	0.003375
38.583333	1	0.005000
38.600000	1	0.006875
38.616667	1	0.008125
38.633333	1	0.009750
38.650000	1	0.011250
38.666667	1	0.012750
38.683333	1	0.013500
38.700000	1	0.014125
38.716667	1	0.014625
38.733333	1	0.015125
38.750000	1	0.015875
38.766667	1	0.015750
38.783333	1	0.015500
38.800000	1	0.015250
38.816667	1	0.014500
38.833333	1	0.014000
38.850000	1	0.013875
38.866667	1	0.013250
38.883333	1	0.011500
38.900000	1	0.010375
38.916667	1	0.009000
38.933333	1	0.007125
38.950000	1	0.005750
38.966667	1	0.003625
38.983333	1	0.002125
39.000000	1	-0.000500
39.016667	1	-0.002875
39.033333	1	-0.005875
39.050000	1	-0.008250
39.066667	1	-0.010750
39.083333	1	-0.013125
39.100000	1	-0.015875
39.116667	1	-0.019125
39.133333	1	-0.021500
39.150000	1	-0.024375
39.166667	1	-0.028125
39.183333	1	-0.031625
39.200000	1	-0.034875
39.216667	1	-0.038000
39.233333	1	-0.041375
39.250000	1	-0.044875
39.266667	1	-0.048125
39.283333	1	-0.051375
39.300000	1	-0.053500
39.316667	1	-0.056125
39.333333	1	-0.059000
39.350000	1	-0.061375
39.366667	1	-0.063750
39.383333	1	-0.066000
39.400000	1	-0.068500
39.416667	1	-0.069875
39.433333	1	-0.071750
39.450000	1	-0.072750
39.466667	1	-0.073625
39.483333	1	-0.074375
39.500000	1	-0.074625
39.516667	1	-0.074625
39.533333	1	-0.074375
39.550000	1	-0.073750
39.566667	1	-0.073875
39.583333	1	-0.072750
39.600000	1	-0.072125
39.616667	1	-0.070875
39.633333	1	-0.069750
39.650000	1	-0.068500
39.666667	1	-0.067625
39.683333	1	-0.066375
39.700000	1	-0.065000
39.716667	1	-0.063625
39.733333	1	-0.062250
39.750000	1	-0.060875
39.766667	1	-0.059875
39.783333	1	-0.058625
39.800000	1	-0.057500
39.816667	1	-0.056250
39.833333	1	-0.054625
39.850000	1	-0.053375
39.866667	1	-0.052125
39.883333	1	-0.051125
39.900000	1	-0.049875
39.916667	1	-0.049500
39.933333	1	-0.049625
39.950000	1	-0.049125
39.966667	1	-0.048875
39.983333	1	-0.049125
40.000000	1	-0.049000
