URL	chrom://bioreactor/micro_cm7/HPLC_Ultimate_3000/Users/markusar/20240708_MA_pHrange1.seq/217.smp/RI_1.channel/RI_1.chm
Channel	RI_1

Injection Information:
Data Vault	micro_cm7
Sequence	20240708_MA_pHrange1
Name	Pv2_6.5_5
Number	11
Position	BA11
Comment	
Processing Method	
Instrument Method	run_25B_method
Type	Unknown
Status	Finished
Inject Time	08.07.2024 22:24:10 +02:00
Volume (µl)	20.0000
Dilution Factor	1.0000
Weight	1.0000

Chromatogram Data Information:
Time Min. (min)	0.000000
Time Max. (min)	40.000000
Data Points	2401
Detector	RI
Generating Data System	Chromeleon 7.3.2.11814
Exporting Data System	Chromeleon 7.3.2.0
Operator	Instrument Controller
Signal Quantity	Refractive 
Signal Unit	µRIU
Signal Min.	-0.043125
Signal Max.	82.097375
Channel	RI_1
Driver Name	RID520Driver.dll
Channel Type	Evaluation
Min. Step (s)	1
Max. Step (s)	1
Average Step (s)	1

Signal Parameter Information:
Signal Info	

Chromatogram Data:
Time (min)	Step (s)	Value (µRIU)
0.000000	n.a.	0.020125
0.016667	1	0.019625
0.033333	1	0.019500
0.050000	1	0.019375
0.066667	1	0.019625
0.083333	1	0.018625
0.100000	1	0.017875
0.116667	1	0.017375
0.133333	1	0.017500
0.150000	1	0.016625
0.166667	1	0.015625
0.183333	1	0.015000
0.200000	1	0.014000
0.216667	1	0.013625
0.233333	1	0.012625
0.250000	1	0.011500
0.266667	1	0.010875
0.283333	1	0.010250
0.300000	1	0.009750
0.316667	1	0.009375
0.333333	1	0.008375
0.350000	1	0.007625
0.366667	1	0.006375
0.383333	1	0.004375
0.400000	1	0.002250
0.416667	1	0.001500
0.433333	1	0.002000
0.450000	1	0.002875
0.466667	1	0.003500
0.483333	1	0.003625
0.500000	1	0.004125
0.516667	1	0.003125
0.533333	1	0.001625
0.550000	1	-0.000625
0.566667	1	-0.003000
0.583333	1	-0.006250
0.600000	1	-0.009750
0.616667	1	-0.013000
0.633333	1	-0.015625
0.650000	1	-0.018000
0.666667	1	-0.020000
0.683333	1	-0.021375
0.700000	1	-0.022000
0.716667	1	-0.022500
0.733333	1	-0.023375
0.750000	1	-0.024125
0.766667	1	-0.024375
0.783333	1	-0.024500
0.800000	1	-0.025125
0.816667	1	-0.025125
0.833333	1	-0.024875
0.850000	1	-0.023875
0.866667	1	-0.023000
0.883333	1	-0.022250
0.900000	1	-0.021000
0.916667	1	-0.019500
0.933333	1	-0.017500
0.950000	1	-0.016000
0.966667	1	-0.014000
0.983333	1	-0.011875
1.000000	1	-0.010500
1.016667	1	-0.007875
1.033333	1	-0.006000
1.050000	1	-0.004125
1.066667	1	-0.002000
1.083333	1	0.000000
1.100000	1	0.001750
1.116667	1	0.003625
1.133333	1	0.005000
1.150000	1	0.007000
1.166667	1	0.008000
1.183333	1	0.008875
1.200000	1	0.010750
1.216667	1	0.012125
1.233333	1	0.013625
1.250000	1	0.014625
1.266667	1	0.016000
1.283333	1	0.016500
1.300000	1	0.017500
1.316667	1	0.018000
1.333333	1	0.018000
1.350000	1	0.017500
1.366667	1	0.017625
1.383333	1	0.017625
1.400000	1	0.017625
1.416667	1	0.017375
1.433333	1	0.016250
1.450000	1	0.015625
1.466667	1	0.015125
1.483333	1	0.015500
1.500000	1	0.014875
1.516667	1	0.014125
1.533333	1	0.013875
1.550000	1	0.013000
1.566667	1	0.012500
1.583333	1	0.011500
1.600000	1	0.010375
1.616667	1	0.009875
1.633333	1	0.009875
1.650000	1	0.009125
1.666667	1	0.008375
1.683333	1	0.008000
1.700000	1	0.007500
1.716667	1	0.007375
1.733333	1	0.006375
1.750000	1	0.005625
1.766667	1	0.004500
1.783333	1	0.004375
1.800000	1	0.004875
1.816667	1	0.004500
1.833333	1	0.003375
1.850000	1	0.002500
1.866667	1	0.001625
1.883333	1	0.001375
1.900000	1	0.000625
1.916667	1	0.000250
1.933333	1	-0.000500
1.950000	1	-0.001125
1.966667	1	-0.001750
1.983333	1	-0.002375
2.000000	1	-0.002625
2.016667	1	-0.003500
2.033333	1	-0.004000
2.050000	1	-0.005000
2.066667	1	-0.005250
2.083333	1	-0.005625
2.100000	1	-0.006125
2.116667	1	-0.007125
2.133333	1	-0.008000
2.150000	1	-0.008375
2.166667	1	-0.009250
2.183333	1	-0.010875
2.200000	1	-0.012125
2.216667	1	-0.012500
2.233333	1	-0.013000
2.250000	1	-0.013875
2.266667	1	-0.015000
2.283333	1	-0.015875
2.300000	1	-0.017000
2.316667	1	-0.017250
2.333333	1	-0.017750
2.350000	1	-0.018375
2.366667	1	-0.019125
2.383333	1	-0.019875
2.400000	1	-0.020750
2.416667	1	-0.020625
2.433333	1	-0.020500
2.450000	1	-0.020750
2.466667	1	-0.020875
2.483333	1	-0.021500
2.500000	1	-0.021750
2.516667	1	-0.022125
2.533333	1	-0.021875
2.550000	1	-0.021875
2.566667	1	-0.021250
2.583333	1	-0.020625
2.600000	1	-0.020000
2.616667	1	-0.018875
2.633333	1	-0.018250
2.650000	1	-0.017750
2.666667	1	-0.016875
2.683333	1	-0.016750
2.700000	1	-0.016000
2.716667	1	-0.014750
2.733333	1	-0.014375
2.750000	1	-0.013875
2.766667	1	-0.014000
2.783333	1	-0.014250
2.800000	1	-0.013625
2.816667	1	-0.013250
2.833333	1	-0.013125
2.850000	1	-0.012250
2.866667	1	-0.011875
2.883333	1	-0.012000
2.900000	1	-0.012000
2.916667	1	-0.011500
2.933333	1	-0.011250
2.950000	1	-0.010875
2.966667	1	-0.010250
2.983333	1	-0.009500
3.000000	1	-0.008875
3.016667	1	-0.008750
3.033333	1	-0.007750
3.050000	1	-0.008000
3.066667	1	-0.008125
3.083333	1	-0.008000
3.100000	1	-0.007375
3.116667	1	-0.006750
3.133333	1	-0.006500
3.150000	1	-0.005875
3.166667	1	-0.005750
3.183333	1	-0.005125
3.200000	1	-0.004500
3.216667	1	-0.003750
3.233333	1	-0.003750
3.250000	1	-0.003250
3.266667	1	-0.002875
3.283333	1	-0.003375
3.300000	1	-0.003375
3.316667	1	-0.003625
3.333333	1	-0.004000
3.350000	1	-0.003500
3.366667	1	-0.002875
3.383333	1	-0.003000
3.400000	1	-0.002375
3.416667	1	-0.001875
3.433333	1	-0.001375
3.450000	1	-0.001125
3.466667	1	-0.001250
3.483333	1	-0.000625
3.500000	1	-0.000250
3.516667	1	0.000000
3.533333	1	0.000125
3.550000	1	0.000375
3.566667	1	0.001250
3.583333	1	0.002125
3.600000	1	0.003250
3.616667	1	0.004625
3.633333	1	0.006250
3.650000	1	0.008000
3.666667	1	0.009875
3.683333	1	0.011500
3.700000	1	0.013000
3.716667	1	0.014250
3.733333	1	0.016125
3.750000	1	0.017500
3.766667	1	0.019250
3.783333	1	0.021750
3.800000	1	0.023750
3.816667	1	0.026000
3.833333	1	0.028000
3.850000	1	0.029750
3.866667	1	0.032125
3.883333	1	0.033625
3.900000	1	0.036000
3.916667	1	0.037500
3.933333	1	0.038875
3.950000	1	0.041000
3.966667	1	0.042875
3.983333	1	0.044625
4.000000	1	0.046375
4.016667	1	0.048375
4.033333	1	0.050125
4.050000	1	0.051375
4.066667	1	0.052000
4.083333	1	0.053500
4.100000	1	0.055000
4.116667	1	0.056875
4.133333	1	0.058375
4.150000	1	0.059125
4.166667	1	0.060000
4.183333	1	0.061625
4.200000	1	0.063125
4.216667	1	0.064500
4.233333	1	0.065250
4.250000	1	0.066000
4.266667	1	0.067125
4.283333	1	0.068250
4.300000	1	0.069375
4.316667	1	0.070125
4.333333	1	0.070500
4.350000	1	0.071625
4.366667	1	0.072875
4.383333	1	0.073875
4.400000	1	0.074250
4.416667	1	0.074375
4.433333	1	0.074250
4.450000	1	0.074000
4.466667	1	0.074250
4.483333	1	0.074250
4.500000	1	0.074500
4.516667	1	0.073875
4.533333	1	0.073875
4.550000	1	0.073875
4.566667	1	0.074625
4.583333	1	0.074875
4.600000	1	0.074750
4.616667	1	0.074750
4.633333	1	0.075125
4.650000	1	0.075250
4.666667	1	0.075250
4.683333	1	0.075500
4.700000	1	0.076500
4.716667	1	0.077000
4.733333	1	0.077500
4.750000	1	0.079125
4.766667	1	0.080250
4.783333	1	0.081500
4.800000	1	0.083125
4.816667	1	0.085125
4.833333	1	0.087500
4.850000	1	0.089375
4.866667	1	0.091250
4.883333	1	0.093875
4.900000	1	0.097125
4.916667	1	0.099750
4.933333	1	0.102750
4.950000	1	0.106250
4.966667	1	0.109875
4.983333	1	0.113000
5.000000	1	0.117125
5.016667	1	0.121375
5.033333	1	0.124875
5.050000	1	0.128750
5.066667	1	0.133000
5.083333	1	0.137000
5.100000	1	0.141500
5.116667	1	0.145750
5.133333	1	0.150750
5.150000	1	0.154875
5.166667	1	0.158375
5.183333	1	0.162500
5.200000	1	0.166125
5.216667	1	0.170875
5.233333	1	0.175875
5.250000	1	0.180000
5.266667	1	0.184250
5.283333	1	0.188875
5.300000	1	0.193500
5.316667	1	0.197750
5.333333	1	0.201125
5.350000	1	0.205250
5.366667	1	0.208625
5.383333	1	0.212500
5.400000	1	0.216750
5.416667	1	0.220125
5.433333	1	0.223500
5.450000	1	0.226625
5.466667	1	0.229625
5.483333	1	0.232375
5.500000	1	0.234875
5.516667	1	0.237000
5.533333	1	0.238875
5.550000	1	0.240125
5.566667	1	0.242375
5.583333	1	0.244125
5.600000	1	0.244875
5.616667	1	0.245875
5.633333	1	0.246000
5.650000	1	0.245625
5.666667	1	0.244750
5.683333	1	0.244000
5.700000	1	0.243125
5.716667	1	0.241750
5.733333	1	0.240125
5.750000	1	0.238250
5.766667	1	0.236125
5.783333	1	0.233500
5.800000	1	0.230375
5.816667	1	0.227625
5.833333	1	0.225000
5.850000	1	0.221750
5.866667	1	0.217875
5.883333	1	0.213250
5.900000	1	0.209125
5.916667	1	0.205375
5.933333	1	0.202125
5.950000	1	0.197125
5.966667	1	0.192625
5.983333	1	0.188000
6.000000	1	0.184125
6.016667	1	0.179125
6.033333	1	0.174750
6.050000	1	0.170250
6.066667	1	0.166000
6.083333	1	0.162000
6.100000	1	0.158125
6.116667	1	0.153750
6.133333	1	0.149875
6.150000	1	0.146375
6.166667	1	0.142625
6.183333	1	0.139500
6.200000	1	0.136500
6.216667	1	0.133750
6.233333	1	0.131000
6.250000	1	0.128750
6.266667	1	0.126875
6.283333	1	0.124500
6.300000	1	0.122375
6.316667	1	0.120250
6.333333	1	0.118500
6.350000	1	0.117125
6.366667	1	0.114500
6.383333	1	0.112750
6.400000	1	0.111625
6.416667	1	0.110375
6.433333	1	0.109125
6.450000	1	0.108625
6.466667	1	0.107750
6.483333	1	0.106250
6.500000	1	0.105250
6.516667	1	0.104125
6.533333	1	0.102750
6.550000	1	0.101500
6.566667	1	0.100375
6.583333	1	0.099500
6.600000	1	0.098750
6.616667	1	0.098000
6.633333	1	0.097250
6.650000	1	0.096250
6.666667	1	0.095750
6.683333	1	0.094500
6.700000	1	0.093250
6.716667	1	0.092375
6.733333	1	0.092250
6.750000	1	0.092125
6.766667	1	0.091250
6.783333	1	0.090875
6.800000	1	0.090500
6.816667	1	0.089625
6.833333	1	0.088750
6.850000	1	0.088625
6.866667	1	0.088375
6.883333	1	0.087375
6.900000	1	0.087000
6.916667	1	0.086750
6.933333	1	0.087500
6.950000	1	0.087000
6.966667	1	0.087500
6.983333	1	0.087750
7.000000	1	0.088375
7.016667	1	0.089125
7.033333	1	0.090000
7.050000	1	0.091125
7.066667	1	0.091625
7.083333	1	0.092750
7.100000	1	0.094500
7.116667	1	0.095875
7.133333	1	0.096625
7.150000	1	0.098500
7.166667	1	0.100000
7.183333	1	0.101875
7.200000	1	0.104750
7.216667	1	0.106875
7.233333	1	0.109125
7.250000	1	0.111500
7.266667	1	0.113750
7.283333	1	0.115500
7.300000	1	0.118500
7.316667	1	0.120250
7.333333	1	0.123125
7.350000	1	0.125250
7.366667	1	0.127375
7.383333	1	0.129875
7.400000	1	0.131375
7.416667	1	0.132875
7.433333	1	0.134250
7.450000	1	0.135000
7.466667	1	0.136000
7.483333	1	0.136875
7.500000	1	0.136875
7.516667	1	0.138125
7.533333	1	0.138375
7.550000	1	0.138000
7.566667	1	0.137250
7.583333	1	0.136625
7.600000	1	0.135625
7.616667	1	0.134625
7.633333	1	0.133125
7.650000	1	0.131750
7.666667	1	0.130125
7.683333	1	0.128375
7.700000	1	0.126625
7.716667	1	0.124875
7.733333	1	0.122875
7.750000	1	0.120375
7.766667	1	0.118750
7.783333	1	0.116500
7.800000	1	0.114750
7.816667	1	0.111875
7.833333	1	0.109500
7.850000	1	0.106500
7.866667	1	0.104500
7.883333	1	0.102125
7.900000	1	0.100125
7.916667	1	0.098250
7.933333	1	0.095750
7.950000	1	0.093375
7.966667	1	0.090750
7.983333	1	0.089000
8.000000	1	0.086375
8.016667	1	0.084500
8.033333	1	0.082250
8.050000	1	0.080375
8.066667	1	0.078375
8.083333	1	0.076500
8.100000	1	0.074500
8.116667	1	0.072625
8.133333	1	0.070375
8.150000	1	0.068875
8.166667	1	0.067000
8.183333	1	0.065000
8.200000	1	0.063125
8.216667	1	0.061625
8.233333	1	0.059750
8.250000	1	0.057875
8.266667	1	0.056000
8.283333	1	0.054125
8.300000	1	0.052250
8.316667	1	0.050375
8.333333	1	0.048875
8.350000	1	0.047375
8.366667	1	0.045625
8.383333	1	0.043250
8.400000	1	0.041000
8.416667	1	0.039375
8.433333	1	0.037750
8.450000	1	0.036375
8.466667	1	0.034750
8.483333	1	0.032500
8.500000	1	0.030125
8.516667	1	0.028875
8.533333	1	0.027750
8.550000	1	0.026500
8.566667	1	0.025125
8.583333	1	0.024500
8.600000	1	0.023125
8.616667	1	0.021500
8.633333	1	0.020375
8.650000	1	0.018875
8.666667	1	0.017500
8.683333	1	0.016500
8.700000	1	0.016375
8.716667	1	0.015875
8.733333	1	0.015500
8.750000	1	0.015750
8.766667	1	0.015500
8.783333	1	0.015375
8.800000	1	0.014875
8.816667	1	0.015000
8.833333	1	0.015250
8.850000	1	0.015375
8.866667	1	0.016125
8.883333	1	0.016125
8.900000	1	0.016375
8.916667	1	0.017000
8.933333	1	0.017500
8.950000	1	0.018000
8.966667	1	0.018500
8.983333	1	0.019250
9.000000	1	0.019625
9.016667	1	0.020000
9.033333	1	0.020000
9.050000	1	0.019875
9.066667	1	0.020750
9.083333	1	0.020625
9.100000	1	0.020000
9.116667	1	0.019500
9.133333	1	0.019250
9.150000	1	0.018750
9.166667	1	0.017625
9.183333	1	0.016250
9.200000	1	0.015000
9.216667	1	0.013250
9.233333	1	0.011875
9.250000	1	0.010375
9.266667	1	0.008125
9.283333	1	0.006250
9.300000	1	0.005000
9.316667	1	0.003000
9.333333	1	0.001125
9.350000	1	-0.001250
9.366667	1	-0.003000
9.383333	1	-0.005250
9.400000	1	-0.007625
9.416667	1	-0.009625
9.433333	1	-0.011875
9.450000	1	-0.013250
9.466667	1	-0.015500
9.483333	1	-0.016375
9.500000	1	-0.018500
9.516667	1	-0.019375
9.533333	1	-0.020625
9.550000	1	-0.022000
9.566667	1	-0.023500
9.583333	1	-0.024625
9.600000	1	-0.025750
9.616667	1	-0.026875
9.633333	1	-0.027875
9.650000	1	-0.029000
9.666667	1	-0.029750
9.683333	1	-0.030000
9.700000	1	-0.030500
9.716667	1	-0.030750
9.733333	1	-0.031250
9.750000	1	-0.031875
9.766667	1	-0.032375
9.783333	1	-0.033000
9.800000	1	-0.033625
9.816667	1	-0.034625
9.833333	1	-0.035500
9.850000	1	-0.036750
9.866667	1	-0.037250
9.883333	1	-0.038375
9.900000	1	-0.039375
9.916667	1	-0.040500
9.933333	1	-0.040875
9.950000	1	-0.041750
9.966667	1	-0.042500
9.983333	1	-0.043125
10.000000	1	-0.043000
10.016667	1	-0.042875
10.033333	1	-0.041750
10.050000	1	-0.040125
10.066667	1	-0.037375
10.083333	1	-0.032875
10.100000	1	-0.028125
10.116667	1	-0.022875
10.133333	1	-0.016875
10.150000	1	-0.009250
10.166667	1	-0.000375
10.183333	1	0.009250
10.200000	1	0.020125
10.216667	1	0.032875
10.233333	1	0.047000
10.250000	1	0.062625
10.266667	1	0.079875
10.283333	1	0.099875
10.300000	1	0.121875
10.316667	1	0.146125
10.333333	1	0.173125
10.350000	1	0.202000
10.366667	1	0.231625
10.383333	1	0.259625
10.400000	1	0.283375
10.416667	1	0.299000
10.433333	1	0.303375
10.450000	1	0.292000
10.466667	1	0.261500
10.483333	1	0.214125
10.500000	1	0.158750
10.516667	1	0.117625
10.533333	1	0.127500
10.550000	1	0.244000
10.566667	1	0.536875
10.583333	1	1.082625
10.600000	1	1.962125
10.616667	1	3.244875
10.633333	1	4.987500
10.650000	1	7.223375
10.666667	1	9.975000
10.683333	1	13.243375
10.700000	1	17.010250
10.716667	1	21.232875
10.733333	1	25.833875
10.750000	1	30.697625
10.766667	1	35.644125
10.783333	1	40.421250
10.800000	1	44.689250
10.816667	1	48.033750
10.833333	1	50.028750
10.850000	1	50.342250
10.866667	1	48.849250
10.883333	1	45.695000
10.900000	1	41.272750
10.916667	1	36.116750
10.933333	1	30.755500
10.950000	1	25.608250
10.966667	1	20.944750
10.983333	1	16.901625
11.000000	1	13.510875
11.016667	1	10.743000
11.033333	1	8.533375
11.050000	1	6.799125
11.066667	1	5.455500
11.083333	1	4.424000
11.100000	1	3.636125
11.116667	1	3.035500
11.133333	1	2.578500
11.150000	1	2.227875
11.166667	1	1.958000
11.183333	1	1.748750
11.200000	1	1.584125
11.216667	1	1.452750
11.233333	1	1.346875
11.250000	1	1.260625
11.266667	1	1.189250
11.283333	1	1.129500
11.300000	1	1.079250
11.316667	1	1.036750
11.333333	1	1.000250
11.350000	1	0.968500
11.366667	1	0.941250
11.383333	1	0.917750
11.400000	1	0.897375
11.416667	1	0.879375
11.433333	1	0.863250
11.450000	1	0.848875
11.466667	1	0.837250
11.483333	1	0.827125
11.500000	1	0.818125
11.516667	1	0.810375
11.533333	1	0.804125
11.550000	1	0.799125
11.566667	1	0.795250
11.583333	1	0.792375
11.600000	1	0.791125
11.616667	1	0.790375
11.633333	1	0.791000
11.650000	1	0.793000
11.666667	1	0.796875
11.683333	1	0.801000
11.700000	1	0.806875
11.716667	1	0.814000
11.733333	1	0.821875
11.750000	1	0.831500
11.766667	1	0.841000
11.783333	1	0.850750
11.800000	1	0.860750
11.816667	1	0.870375
11.833333	1	0.880000
11.850000	1	0.889000
11.866667	1	0.896375
11.883333	1	0.903125
11.900000	1	0.908875
11.916667	1	0.914375
11.933333	1	0.919750
11.950000	1	0.923625
11.966667	1	0.927500
11.983333	1	0.930250
12.000000	1	0.933625
12.016667	1	0.936375
12.033333	1	0.939250
12.050000	1	0.943000
12.066667	1	0.947375
12.083333	1	0.952125
12.100000	1	0.957000
12.116667	1	0.962750
12.133333	1	0.969375
12.150000	1	0.976625
12.166667	1	0.984500
12.183333	1	0.994375
12.200000	1	1.005000
12.216667	1	1.018000
12.233333	1	1.034000
12.250000	1	1.053375
12.266667	1	1.077250
12.283333	1	1.107750
12.300000	1	1.146625
12.316667	1	1.195250
12.333333	1	1.256750
12.350000	1	1.335000
12.366667	1	1.432750
12.383333	1	1.556250
12.400000	1	1.708500
12.416667	1	1.893750
12.433333	1	2.118125
12.450000	1	2.385250
12.466667	1	2.701125
12.483333	1	3.069875
12.500000	1	3.494500
12.516667	1	3.978000
12.533333	1	4.521250
12.550000	1	5.121250
12.566667	1	5.772750
12.583333	1	6.466375
12.600000	1	7.191000
12.616667	1	7.931875
12.633333	1	8.674125
12.650000	1	9.404125
12.666667	1	10.108625
12.683333	1	10.777000
12.700000	1	11.404375
12.716667	1	11.989125
12.733333	1	12.535000
12.750000	1	13.048250
12.766667	1	13.539250
12.783333	1	14.018125
12.800000	1	14.496625
12.816667	1	14.984125
12.833333	1	15.489375
12.850000	1	16.019500
12.866667	1	16.578875
12.883333	1	17.171250
12.900000	1	17.796375
12.916667	1	18.454375
12.933333	1	19.142375
12.950000	1	19.860000
12.966667	1	20.605375
12.983333	1	21.378625
13.000000	1	22.176000
13.016667	1	22.996250
13.033333	1	23.839500
13.050000	1	24.705125
13.066667	1	25.592500
13.083333	1	26.501500
13.100000	1	27.430125
13.116667	1	28.380250
13.133333	1	29.349250
13.150000	1	30.336625
13.166667	1	31.343125
13.183333	1	32.369125
13.200000	1	33.413125
13.216667	1	34.476125
13.233333	1	35.559000
13.250000	1	36.662125
13.266667	1	37.786125
13.283333	1	38.931500
13.300000	1	40.100500
13.316667	1	41.290875
13.333333	1	42.505375
13.350000	1	43.742125
13.366667	1	45.002250
13.383333	1	46.287125
13.400000	1	47.596375
13.416667	1	48.929750
13.433333	1	50.289500
13.450000	1	51.677750
13.466667	1	53.095000
13.483333	1	54.542250
13.500000	1	56.019375
13.516667	1	57.528125
13.533333	1	59.066750
13.550000	1	60.637625
13.566667	1	62.238750
13.583333	1	63.872875
13.600000	1	65.537750
13.616667	1	67.236625
13.633333	1	68.971375
13.650000	1	70.744625
13.666667	1	72.555875
13.683333	1	74.406000
13.700000	1	76.283125
13.716667	1	78.149500
13.733333	1	79.892750
13.750000	1	81.305625
13.766667	1	82.097375
13.783333	1	81.944875
13.800000	1	80.543625
13.816667	1	77.620875
13.833333	1	72.975750
13.850000	1	66.601625
13.866667	1	58.819000
13.883333	1	50.277125
13.900000	1	41.764875
13.916667	1	33.957750
13.933333	1	27.243000
13.950000	1	21.724750
13.966667	1	17.324000
13.983333	1	13.881375
14.000000	1	11.226875
14.016667	1	9.202375
14.033333	1	7.677750
14.050000	1	6.541125
14.066667	1	5.700250
14.083333	1	5.079000
14.100000	1	4.618125
14.116667	1	4.270250
14.133333	1	4.005000
14.150000	1	3.798250
14.166667	1	3.633375
14.183333	1	3.498250
14.200000	1	3.385125
14.216667	1	3.288250
14.233333	1	3.203875
14.250000	1	3.130000
14.266667	1	3.062750
14.283333	1	3.002250
14.300000	1	2.947250
14.316667	1	2.896750
14.333333	1	2.851125
14.350000	1	2.811125
14.366667	1	2.776250
14.383333	1	2.747000
14.400000	1	2.724500
14.416667	1	2.709750
14.433333	1	2.706500
14.450000	1	2.716625
14.466667	1	2.746125
14.483333	1	2.801125
14.500000	1	2.892250
14.516667	1	3.033250
14.533333	1	3.244375
14.550000	1	3.552375
14.566667	1	3.993375
14.583333	1	4.611500
14.600000	1	5.462000
14.616667	1	6.610375
14.633333	1	8.127375
14.650000	1	10.088625
14.666667	1	12.561625
14.683333	1	15.600750
14.700000	1	19.231625
14.716667	1	23.445125
14.733333	1	28.191875
14.750000	1	33.371750
14.766667	1	38.830875
14.783333	1	44.366500
14.800000	1	49.748500
14.816667	1	54.727500
14.833333	1	59.054000
14.850000	1	62.500750
14.866667	1	64.885125
14.883333	1	66.088250
14.900000	1	66.065500
14.916667	1	64.848750
14.933333	1	62.544000
14.950000	1	59.316500
14.966667	1	55.368500
14.983333	1	50.925000
15.000000	1	46.201875
15.016667	1	41.395250
15.033333	1	36.671750
15.050000	1	32.166750
15.066667	1	27.977875
15.083333	1	24.167000
15.100000	1	20.765750
15.116667	1	17.776750
15.133333	1	15.185750
15.150000	1	12.963750
15.166667	1	11.075750
15.183333	1	9.484625
15.200000	1	8.150125
15.216667	1	7.038000
15.233333	1	6.114500
15.250000	1	5.350750
15.266667	1	4.722625
15.283333	1	4.208875
15.300000	1	3.790500
15.316667	1	3.453875
15.333333	1	3.185500
15.350000	1	2.973375
15.366667	1	2.808875
15.383333	1	2.683625
15.400000	1	2.590500
15.416667	1	2.523500
15.433333	1	2.476750
15.450000	1	2.444625
15.466667	1	2.422375
15.483333	1	2.404750
15.500000	1	2.388750
15.516667	1	2.371250
15.533333	1	2.351000
15.550000	1	2.327000
15.566667	1	2.298500
15.583333	1	2.265500
15.600000	1	2.229875
15.616667	1	2.192625
15.633333	1	2.154125
15.650000	1	2.116750
15.666667	1	2.080375
15.683333	1	2.046625
15.700000	1	2.014750
15.716667	1	1.985500
15.733333	1	1.956750
15.750000	1	1.929750
15.766667	1	1.903500
15.783333	1	1.877125
15.800000	1	1.851125
15.816667	1	1.823875
15.833333	1	1.796625
15.850000	1	1.769750
15.866667	1	1.743000
15.883333	1	1.718125
15.900000	1	1.694625
15.916667	1	1.674875
15.933333	1	1.657375
15.950000	1	1.644000
15.966667	1	1.634375
15.983333	1	1.627375
16.000000	1	1.623000
16.016667	1	1.620625
16.033333	1	1.618875
16.050000	1	1.617000
16.066667	1	1.614375
16.083333	1	1.609500
16.100000	1	1.602750
16.116667	1	1.593625
16.133333	1	1.582125
16.150000	1	1.568750
16.166667	1	1.551875
16.183333	1	1.533750
16.200000	1	1.513625
16.216667	1	1.492750
16.233333	1	1.470875
16.250000	1	1.448750
16.266667	1	1.426250
16.283333	1	1.404000
16.300000	1	1.382125
16.316667	1	1.360375
16.333333	1	1.338500
16.350000	1	1.318375
16.366667	1	1.299625
16.383333	1	1.283250
16.400000	1	1.268875
16.416667	1	1.256375
16.433333	1	1.247000
16.450000	1	1.240125
16.466667	1	1.235750
16.483333	1	1.233500
16.500000	1	1.234375
16.516667	1	1.237250
16.533333	1	1.242125
16.550000	1	1.246750
16.566667	1	1.251375
16.583333	1	1.255500
16.600000	1	1.258375
16.616667	1	1.260375
16.633333	1	1.260125
16.650000	1	1.258500
16.666667	1	1.255625
16.683333	1	1.251875
16.700000	1	1.247375
16.716667	1	1.242375
16.733333	1	1.237500
16.750000	1	1.233250
16.766667	1	1.230375
16.783333	1	1.228250
16.800000	1	1.228375
16.816667	1	1.229250
16.833333	1	1.230750
16.850000	1	1.233875
16.866667	1	1.236500
16.883333	1	1.238625
16.900000	1	1.240125
16.916667	1	1.241625
16.933333	1	1.241375
16.950000	1	1.240500
16.966667	1	1.237875
16.983333	1	1.233000
17.000000	1	1.228000
17.016667	1	1.222000
17.033333	1	1.215500
17.050000	1	1.209000
17.066667	1	1.202625
17.083333	1	1.196375
17.100000	1	1.191000
17.116667	1	1.186875
17.133333	1	1.184000
17.150000	1	1.181375
17.166667	1	1.180250
17.183333	1	1.180875
17.200000	1	1.182750
17.216667	1	1.184875
17.233333	1	1.187750
17.250000	1	1.192250
17.266667	1	1.196750
17.283333	1	1.202625
17.300000	1	1.208375
17.316667	1	1.214625
17.333333	1	1.221750
17.350000	1	1.227875
17.366667	1	1.235375
17.383333	1	1.242625
17.400000	1	1.250000
17.416667	1	1.255875
17.433333	1	1.261375
17.450000	1	1.265250
17.466667	1	1.268125
17.483333	1	1.269125
17.500000	1	1.268875
17.516667	1	1.266125
17.533333	1	1.262500
17.550000	1	1.256625
17.566667	1	1.248875
17.583333	1	1.240125
17.600000	1	1.230500
17.616667	1	1.217625
17.633333	1	1.204750
17.650000	1	1.191125
17.666667	1	1.176750
17.683333	1	1.161500
17.700000	1	1.146375
17.716667	1	1.130875
17.733333	1	1.115125
17.750000	1	1.099750
17.766667	1	1.084375
17.783333	1	1.069875
17.800000	1	1.054500
17.816667	1	1.040000
17.833333	1	1.026000
17.850000	1	1.012375
17.866667	1	0.999500
17.883333	1	0.987000
17.900000	1	0.974375
17.916667	1	0.961500
17.933333	1	0.950375
17.950000	1	0.939625
17.966667	1	0.928250
17.983333	1	0.917125
18.000000	1	0.907250
18.016667	1	0.896500
18.033333	1	0.886625
18.050000	1	0.876625
18.066667	1	0.867000
18.083333	1	0.857375
18.100000	1	0.848875
18.116667	1	0.840500
18.133333	1	0.833750
18.150000	1	0.826875
18.166667	1	0.821500
18.183333	1	0.817750
18.200000	1	0.814625
18.216667	1	0.812625
18.233333	1	0.811250
18.250000	1	0.810500
18.266667	1	0.810250
18.283333	1	0.811125
18.300000	1	0.813000
18.316667	1	0.814375
18.333333	1	0.816125
18.350000	1	0.818500
18.366667	1	0.820625
18.383333	1	0.824375
18.400000	1	0.828625
18.416667	1	0.833625
18.433333	1	0.840000
18.450000	1	0.847250
18.466667	1	0.856250
18.483333	1	0.867375
18.500000	1	0.879625
18.516667	1	0.893500
18.533333	1	0.909000
18.550000	1	0.927000
18.566667	1	0.946625
18.583333	1	0.968750
18.600000	1	0.992625
18.616667	1	1.018500
18.633333	1	1.046125
18.650000	1	1.074500
18.666667	1	1.104875
18.683333	1	1.136375
18.700000	1	1.169500
18.716667	1	1.203625
18.733333	1	1.238750
18.750000	1	1.274125
18.766667	1	1.309500
18.783333	1	1.344875
18.800000	1	1.379625
18.816667	1	1.413375
18.833333	1	1.445750
18.850000	1	1.475250
18.866667	1	1.500625
18.883333	1	1.521500
18.900000	1	1.537750
18.916667	1	1.547625
18.933333	1	1.552125
18.950000	1	1.549250
18.966667	1	1.539875
18.983333	1	1.524000
19.000000	1	1.501250
19.016667	1	1.472625
19.033333	1	1.438375
19.050000	1	1.401000
19.066667	1	1.361750
19.083333	1	1.321250
19.100000	1	1.281875
19.116667	1	1.245375
19.133333	1	1.214750
19.150000	1	1.191250
19.166667	1	1.177750
19.183333	1	1.176125
19.200000	1	1.190500
19.216667	1	1.222250
19.233333	1	1.275750
19.250000	1	1.351750
19.266667	1	1.454000
19.283333	1	1.584375
19.300000	1	1.745625
19.316667	1	1.936125
19.333333	1	2.157000
19.350000	1	2.406500
19.366667	1	2.681500
19.383333	1	2.976875
19.400000	1	3.286750
19.416667	1	3.602375
19.433333	1	3.914375
19.450000	1	4.213375
19.466667	1	4.488875
19.483333	1	4.732125
19.500000	1	4.933750
19.516667	1	5.086625
19.533333	1	5.186500
19.550000	1	5.230250
19.566667	1	5.217125
19.583333	1	5.147750
19.600000	1	5.028000
19.616667	1	4.862625
19.633333	1	4.658250
19.650000	1	4.422375
19.666667	1	4.163875
19.683333	1	3.892000
19.700000	1	3.614000
19.716667	1	3.335625
19.733333	1	3.062750
19.750000	1	2.801125
19.766667	1	2.552250
19.783333	1	2.320750
19.800000	1	2.105875
19.816667	1	1.909625
19.833333	1	1.732125
19.850000	1	1.573125
19.866667	1	1.430875
19.883333	1	1.304375
19.900000	1	1.192500
19.916667	1	1.094000
19.933333	1	1.008625
19.950000	1	0.933875
19.966667	1	0.869375
19.983333	1	0.813375
20.000000	1	0.766125
20.016667	1	0.727250
20.033333	1	0.695000
20.050000	1	0.669375
20.066667	1	0.649125
20.083333	1	0.635125
20.100000	1	0.625625
20.116667	1	0.620250
20.133333	1	0.619250
20.150000	1	0.622750
20.166667	1	0.629125
20.183333	1	0.638000
20.200000	1	0.648375
20.216667	1	0.659500
20.233333	1	0.671625
20.250000	1	0.683625
20.266667	1	0.693875
20.283333	1	0.702750
20.300000	1	0.708875
20.316667	1	0.712500
20.333333	1	0.713875
20.350000	1	0.711625
20.366667	1	0.706250
20.383333	1	0.698375
20.400000	1	0.688000
20.416667	1	0.674875
20.433333	1	0.660125
20.450000	1	0.644875
20.466667	1	0.629875
20.483333	1	0.616125
20.500000	1	0.604000
20.516667	1	0.594250
20.533333	1	0.588250
20.550000	1	0.587000
20.566667	1	0.590125
20.583333	1	0.599625
20.600000	1	0.615625
20.616667	1	0.638500
20.633333	1	0.669500
20.650000	1	0.709625
20.666667	1	0.758125
20.683333	1	0.814750
20.700000	1	0.879625
20.716667	1	0.950625
20.733333	1	1.029125
20.750000	1	1.112125
20.766667	1	1.197375
20.783333	1	1.282750
20.800000	1	1.366125
20.816667	1	1.443875
20.833333	1	1.513875
20.850000	1	1.574750
20.866667	1	1.623250
20.883333	1	1.658000
20.900000	1	1.677750
20.916667	1	1.682375
20.933333	1	1.672000
20.950000	1	1.647875
20.966667	1	1.609625
20.983333	1	1.560625
21.000000	1	1.501750
21.016667	1	1.434750
21.033333	1	1.363000
21.050000	1	1.288000
21.066667	1	1.212750
21.083333	1	1.137750
21.100000	1	1.064875
21.116667	1	0.995500
21.133333	1	0.930625
21.150000	1	0.869375
21.166667	1	0.813750
21.183333	1	0.764250
21.200000	1	0.719500
21.216667	1	0.679000
21.233333	1	0.643625
21.250000	1	0.612500
21.266667	1	0.585125
21.283333	1	0.561250
21.300000	1	0.540500
21.316667	1	0.523750
21.333333	1	0.507750
21.350000	1	0.494500
21.366667	1	0.483375
21.383333	1	0.474000
21.400000	1	0.466125
21.416667	1	0.458500
21.433333	1	0.453250
21.450000	1	0.448375
21.466667	1	0.444375
21.483333	1	0.441000
21.500000	1	0.438375
21.516667	1	0.437000
21.533333	1	0.436250
21.550000	1	0.436750
21.566667	1	0.437875
21.583333	1	0.439625
21.600000	1	0.443250
21.616667	1	0.448500
21.633333	1	0.455500
21.650000	1	0.464000
21.666667	1	0.474875
21.683333	1	0.488125
21.700000	1	0.502875
21.716667	1	0.520250
21.733333	1	0.540000
21.750000	1	0.562000
21.766667	1	0.585500
21.783333	1	0.610875
21.800000	1	0.637625
21.816667	1	0.664875
21.833333	1	0.693000
21.850000	1	0.722125
21.866667	1	0.750000
21.883333	1	0.776625
21.900000	1	0.800750
21.916667	1	0.823125
21.933333	1	0.843000
21.950000	1	0.859125
21.966667	1	0.873250
21.983333	1	0.883125
22.000000	1	0.890000
22.016667	1	0.892375
22.033333	1	0.891750
22.050000	1	0.887000
22.066667	1	0.879875
22.083333	1	0.869625
22.100000	1	0.857375
22.116667	1	0.842625
22.133333	1	0.827000
22.150000	1	0.810375
22.166667	1	0.792125
22.183333	1	0.773250
22.200000	1	0.753500
22.216667	1	0.733250
22.233333	1	0.711875
22.250000	1	0.691625
22.266667	1	0.670625
22.283333	1	0.650000
22.300000	1	0.629000
22.316667	1	0.609000
22.333333	1	0.588875
22.350000	1	0.569250
22.366667	1	0.550250
22.383333	1	0.531375
22.400000	1	0.513250
22.416667	1	0.496000
22.433333	1	0.479750
22.450000	1	0.464000
22.466667	1	0.449375
22.483333	1	0.435750
22.500000	1	0.422875
22.516667	1	0.411500
22.533333	1	0.400875
22.550000	1	0.390875
22.566667	1	0.382125
22.583333	1	0.373875
22.600000	1	0.366625
22.616667	1	0.359250
22.633333	1	0.353750
22.650000	1	0.347875
22.666667	1	0.342750
22.683333	1	0.337875
22.700000	1	0.333750
22.716667	1	0.329875
22.733333	1	0.325625
22.750000	1	0.321375
22.766667	1	0.318000
22.783333	1	0.315375
22.800000	1	0.312875
22.816667	1	0.309875
22.833333	1	0.308000
22.850000	1	0.305000
22.866667	1	0.303000
22.883333	1	0.300250
22.900000	1	0.298750
22.916667	1	0.297375
22.933333	1	0.296000
22.950000	1	0.295250
22.966667	1	0.295625
22.983333	1	0.295250
23.000000	1	0.295750
23.016667	1	0.295875
23.033333	1	0.296750
23.050000	1	0.297625
23.066667	1	0.298875
23.083333	1	0.300000
23.100000	1	0.302000
23.116667	1	0.304000
23.133333	1	0.306000
23.150000	1	0.308625
23.166667	1	0.310000
23.183333	1	0.312625
23.200000	1	0.315375
23.216667	1	0.317750
23.233333	1	0.321375
23.250000	1	0.325750
23.266667	1	0.331125
23.283333	1	0.337625
23.300000	1	0.345500
23.316667	1	0.356625
23.333333	1	0.370625
23.350000	1	0.387625
23.366667	1	0.409500
23.383333	1	0.437625
23.400000	1	0.472375
23.416667	1	0.515500
23.433333	1	0.569000
23.450000	1	0.634375
23.466667	1	0.713750
23.483333	1	0.809250
23.500000	1	0.924125
23.516667	1	1.059000
23.533333	1	1.216250
23.550000	1	1.398750
23.566667	1	1.606375
23.583333	1	1.840125
23.600000	1	2.100000
23.616667	1	2.385250
23.633333	1	2.694375
23.650000	1	3.022750
23.666667	1	3.368000
23.683333	1	3.724375
23.700000	1	4.086500
23.716667	1	4.447750
23.733333	1	4.801000
23.750000	1	5.137500
23.766667	1	5.449125
23.783333	1	5.729375
23.800000	1	5.969750
23.816667	1	6.166250
23.833333	1	6.313750
23.850000	1	6.409000
23.866667	1	6.451500
23.883333	1	6.440375
23.900000	1	6.377125
23.916667	1	6.265125
23.933333	1	6.107750
23.950000	1	5.910750
23.966667	1	5.679125
23.983333	1	5.419625
24.000000	1	5.139875
24.016667	1	4.845000
24.033333	1	4.542000
24.050000	1	4.237250
24.066667	1	3.934000
24.083333	1	3.637375
24.100000	1	3.350500
24.116667	1	3.075250
24.133333	1	2.814250
24.150000	1	2.569250
24.166667	1	2.341625
24.183333	1	2.131000
24.200000	1	1.937000
24.216667	1	1.759750
24.233333	1	1.598625
24.250000	1	1.453500
24.266667	1	1.322375
24.283333	1	1.204625
24.300000	1	1.099875
24.316667	1	1.006250
24.333333	1	0.924500
24.350000	1	0.852000
24.366667	1	0.787750
24.383333	1	0.732000
24.400000	1	0.683750
24.416667	1	0.642875
24.433333	1	0.608000
24.450000	1	0.577750
24.466667	1	0.551875
24.483333	1	0.530250
24.500000	1	0.512375
24.516667	1	0.497125
24.533333	1	0.484625
24.550000	1	0.474125
24.566667	1	0.463375
24.583333	1	0.455250
24.600000	1	0.448000
24.616667	1	0.441500
24.633333	1	0.435000
24.650000	1	0.429000
24.666667	1	0.422750
24.683333	1	0.416875
24.700000	1	0.411000
24.716667	1	0.404750
24.733333	1	0.397875
24.750000	1	0.391125
24.766667	1	0.384875
24.783333	1	0.378000
24.800000	1	0.371125
24.816667	1	0.364625
24.833333	1	0.358250
24.850000	1	0.351625
24.866667	1	0.345500
24.883333	1	0.339875
24.900000	1	0.334750
24.916667	1	0.330125
24.933333	1	0.325250
24.950000	1	0.321000
24.966667	1	0.317500
24.983333	1	0.313375
25.000000	1	0.310375
25.016667	1	0.307000
25.033333	1	0.303750
25.050000	1	0.301000
25.066667	1	0.298250
25.083333	1	0.296125
25.100000	1	0.293875
25.116667	1	0.291125
25.133333	1	0.288875
25.150000	1	0.286875
25.166667	1	0.284250
25.183333	1	0.282000
25.200000	1	0.279625
25.216667	1	0.277375
25.233333	1	0.275000
25.250000	1	0.272750
25.266667	1	0.270000
25.283333	1	0.267875
25.300000	1	0.265625
25.316667	1	0.263875
25.333333	1	0.261750
25.350000	1	0.260250
25.366667	1	0.258000
25.383333	1	0.256625
25.400000	1	0.256000
25.416667	1	0.255250
25.433333	1	0.254875
25.450000	1	0.255250
25.466667	1	0.255375
25.483333	1	0.256250
25.500000	1	0.257250
25.516667	1	0.258125
25.533333	1	0.259375
25.550000	1	0.261000
25.566667	1	0.262375
25.583333	1	0.263375
25.600000	1	0.264875
25.616667	1	0.266000
25.633333	1	0.268125
25.650000	1	0.270000
25.666667	1	0.271500
25.683333	1	0.272375
25.700000	1	0.273500
25.716667	1	0.274250
25.733333	1	0.275250
25.750000	1	0.276000
25.766667	1	0.276625
25.783333	1	0.277625
25.800000	1	0.278625
25.816667	1	0.279750
25.833333	1	0.281500
25.850000	1	0.283125
25.866667	1	0.284500
25.883333	1	0.285750
25.900000	1	0.287500
25.916667	1	0.290375
25.933333	1	0.293500
25.950000	1	0.296750
25.966667	1	0.299750
25.983333	1	0.304000
26.000000	1	0.308125
26.016667	1	0.314000
26.033333	1	0.319250
26.050000	1	0.324750
26.066667	1	0.331250
26.083333	1	0.338125
26.100000	1	0.345250
26.116667	1	0.352875
26.133333	1	0.359750
26.150000	1	0.366875
26.166667	1	0.374000
26.183333	1	0.380875
26.200000	1	0.387250
26.216667	1	0.393250
26.233333	1	0.398625
26.250000	1	0.404250
26.266667	1	0.408625
26.283333	1	0.412375
26.300000	1	0.415125
26.316667	1	0.416750
26.333333	1	0.418125
26.350000	1	0.418750
26.366667	1	0.418125
26.383333	1	0.416625
26.400000	1	0.414125
26.416667	1	0.410625
26.433333	1	0.407000
26.450000	1	0.402750
26.466667	1	0.397000
26.483333	1	0.389750
26.500000	1	0.383250
26.516667	1	0.376125
26.533333	1	0.368500
26.550000	1	0.360375
26.566667	1	0.351375
26.583333	1	0.342500
26.600000	1	0.333250
26.616667	1	0.324375
26.633333	1	0.315125
26.650000	1	0.305875
26.666667	1	0.297250
26.683333	1	0.288875
26.700000	1	0.281250
26.716667	1	0.273875
26.733333	1	0.266000
26.750000	1	0.258500
26.766667	1	0.252125
26.783333	1	0.246500
26.800000	1	0.240750
26.816667	1	0.235375
26.833333	1	0.230250
26.850000	1	0.226500
26.866667	1	0.223125
26.883333	1	0.219625
26.900000	1	0.217000
26.916667	1	0.214625
26.933333	1	0.213750
26.950000	1	0.213125
26.966667	1	0.213000
26.983333	1	0.212500
27.000000	1	0.213125
27.016667	1	0.214125
27.033333	1	0.216250
27.050000	1	0.218000
27.066667	1	0.220625
27.083333	1	0.224250
27.100000	1	0.228625
27.116667	1	0.233875
27.133333	1	0.240250
27.150000	1	0.248000
27.166667	1	0.256875
27.183333	1	0.267250
27.200000	1	0.279625
27.216667	1	0.294125
27.233333	1	0.311375
27.250000	1	0.331375
27.266667	1	0.355125
27.283333	1	0.383500
27.300000	1	0.415000
27.316667	1	0.452625
27.333333	1	0.496500
27.350000	1	0.546625
27.366667	1	0.604125
27.383333	1	0.670875
27.400000	1	0.746000
27.416667	1	0.832125
27.433333	1	0.929375
27.450000	1	1.038500
27.466667	1	1.159375
27.483333	1	1.293875
27.500000	1	1.441125
27.516667	1	1.602125
27.533333	1	1.775875
27.550000	1	1.962000
27.566667	1	2.158625
27.583333	1	2.366000
27.600000	1	2.582000
27.616667	1	2.803500
27.633333	1	3.029750
27.650000	1	3.256875
27.666667	1	3.483000
27.683333	1	3.704000
27.700000	1	3.916375
27.716667	1	4.116500
27.733333	1	4.301250
27.750000	1	4.467375
27.766667	1	4.611000
27.783333	1	4.729875
27.800000	1	4.822125
27.816667	1	4.885875
27.833333	1	4.918875
27.850000	1	4.920625
27.866667	1	4.891750
27.883333	1	4.833500
27.900000	1	4.745875
27.916667	1	4.631125
27.933333	1	4.492000
27.950000	1	4.331500
27.966667	1	4.151750
27.983333	1	3.957750
28.000000	1	3.752375
28.016667	1	3.538000
28.033333	1	3.319250
28.050000	1	3.098750
28.066667	1	2.879625
28.083333	1	2.664500
28.100000	1	2.454875
28.116667	1	2.252625
28.133333	1	2.061750
28.150000	1	1.881000
28.166667	1	1.712750
28.183333	1	1.555750
28.200000	1	1.411250
28.216667	1	1.278625
28.233333	1	1.157500
28.250000	1	1.047000
28.266667	1	0.948375
28.283333	1	0.860250
28.300000	1	0.781625
28.316667	1	0.711750
28.333333	1	0.651375
28.350000	1	0.599125
28.366667	1	0.554500
28.383333	1	0.516500
28.400000	1	0.484500
28.416667	1	0.458625
28.433333	1	0.438625
28.450000	1	0.422625
28.466667	1	0.410875
28.483333	1	0.403750
28.500000	1	0.399875
28.516667	1	0.398875
28.533333	1	0.400375
28.550000	1	0.404875
28.566667	1	0.411250
28.583333	1	0.419875
28.600000	1	0.429500
28.616667	1	0.440875
28.633333	1	0.453625
28.650000	1	0.467375
28.666667	1	0.480125
28.683333	1	0.493125
28.700000	1	0.506750
28.716667	1	0.520000
28.733333	1	0.532875
28.750000	1	0.545625
28.766667	1	0.557625
28.783333	1	0.568625
28.800000	1	0.578125
28.816667	1	0.587500
28.833333	1	0.594500
28.850000	1	0.600250
28.866667	1	0.605125
28.883333	1	0.608875
28.900000	1	0.610875
28.916667	1	0.611750
28.933333	1	0.610875
28.950000	1	0.609000
28.966667	1	0.605875
28.983333	1	0.601250
29.000000	1	0.595125
29.016667	1	0.587750
29.033333	1	0.580125
29.050000	1	0.570625
29.066667	1	0.560000
29.083333	1	0.549000
29.100000	1	0.537000
29.116667	1	0.524625
29.133333	1	0.511875
29.150000	1	0.498375
29.166667	1	0.483500
29.183333	1	0.469500
29.200000	1	0.455500
29.216667	1	0.441375
29.233333	1	0.427125
29.250000	1	0.413375
29.266667	1	0.399250
29.283333	1	0.385250
29.300000	1	0.371750
29.316667	1	0.358375
29.333333	1	0.344750
29.350000	1	0.332500
29.366667	1	0.320000
29.383333	1	0.308250
29.400000	1	0.297375
29.416667	1	0.286625
29.433333	1	0.276625
29.450000	1	0.266500
29.466667	1	0.257375
29.483333	1	0.248125
29.500000	1	0.239875
29.516667	1	0.231125
29.533333	1	0.224000
29.550000	1	0.217000
29.566667	1	0.210125
29.583333	1	0.203875
29.600000	1	0.198000
29.616667	1	0.192000
29.633333	1	0.187250
29.650000	1	0.182500
29.666667	1	0.177250
29.683333	1	0.173000
29.700000	1	0.169125
29.716667	1	0.164375
29.733333	1	0.160750
29.750000	1	0.157500
29.766667	1	0.154375
29.783333	1	0.151875
29.800000	1	0.149625
29.816667	1	0.147250
29.833333	1	0.144750
29.850000	1	0.142250
29.866667	1	0.141375
29.883333	1	0.139750
29.900000	1	0.137625
29.916667	1	0.136375
29.933333	1	0.134750
29.950000	1	0.132875
29.966667	1	0.131875
29.983333	1	0.131375
30.000000	1	0.129500
30.016667	1	0.128125
30.033333	1	0.127000
30.050000	1	0.126500
30.066667	1	0.125250
30.083333	1	0.124500
30.100000	1	0.122625
30.116667	1	0.121250
30.133333	1	0.119875
30.150000	1	0.118750
30.166667	1	0.118125
30.183333	1	0.117125
30.200000	1	0.116000
30.216667	1	0.115250
30.233333	1	0.114375
30.250000	1	0.114250
30.266667	1	0.114500
30.283333	1	0.113625
30.300000	1	0.112875
30.316667	1	0.112875
30.333333	1	0.113125
30.350000	1	0.113125
30.366667	1	0.113000
30.383333	1	0.113375
30.400000	1	0.114500
30.416667	1	0.115750
30.433333	1	0.116250
30.450000	1	0.116625
30.466667	1	0.119000
30.483333	1	0.120375
30.500000	1	0.122875
30.516667	1	0.125375
30.533333	1	0.128125
30.550000	1	0.131750
30.566667	1	0.135875
30.583333	1	0.140125
30.600000	1	0.145125
30.616667	1	0.150875
30.633333	1	0.156625
30.650000	1	0.163875
30.666667	1	0.171000
30.683333	1	0.178750
30.700000	1	0.186875
30.716667	1	0.196125
30.733333	1	0.205500
30.750000	1	0.216500
30.766667	1	0.226750
30.783333	1	0.239625
30.800000	1	0.252000
30.816667	1	0.265500
30.833333	1	0.280250
30.850000	1	0.296500
30.866667	1	0.313750
30.883333	1	0.332625
30.900000	1	0.353375
30.916667	1	0.376375
30.933333	1	0.401875
30.950000	1	0.430625
30.966667	1	0.462875
30.983333	1	0.499250
31.000000	1	0.540875
31.016667	1	0.587750
31.033333	1	0.641250
31.050000	1	0.701125
31.066667	1	0.769500
31.083333	1	0.846125
31.100000	1	0.932875
31.116667	1	1.029500
31.133333	1	1.137875
31.150000	1	1.258250
31.166667	1	1.392125
31.183333	1	1.539000
31.200000	1	1.700500
31.216667	1	1.875750
31.233333	1	2.065250
31.250000	1	2.269375
31.266667	1	2.486375
31.283333	1	2.714750
31.300000	1	2.953875
31.316667	1	3.202625
31.333333	1	3.458500
31.350000	1	3.719250
31.366667	1	3.983250
31.383333	1	4.247125
31.400000	1	4.507875
31.416667	1	4.762500
31.433333	1	5.006750
31.450000	1	5.238500
31.466667	1	5.454625
31.483333	1	5.651625
31.500000	1	5.827125
31.516667	1	5.978125
31.533333	1	6.103125
31.550000	1	6.200500
31.566667	1	6.268625
31.583333	1	6.307000
31.600000	1	6.316500
31.616667	1	6.296625
31.633333	1	6.247875
31.650000	1	6.171500
31.666667	1	6.068750
31.683333	1	5.943500
31.700000	1	5.795250
31.716667	1	5.627250
31.733333	1	5.442250
31.750000	1	5.242625
31.766667	1	5.031500
31.783333	1	4.809875
31.800000	1	4.582250
31.816667	1	4.350375
31.833333	1	4.116750
31.850000	1	3.883625
31.866667	1	3.652125
31.883333	1	3.426250
31.900000	1	3.205750
31.916667	1	2.991625
31.933333	1	2.785750
31.950000	1	2.589000
31.966667	1	2.401250
31.983333	1	2.222875
32.000000	1	2.054125
32.016667	1	1.895000
32.033333	1	1.746125
32.050000	1	1.607250
32.066667	1	1.477250
32.083333	1	1.355750
32.100000	1	1.243500
32.116667	1	1.139250
32.133333	1	1.044000
32.150000	1	0.956250
32.166667	1	0.875000
32.183333	1	0.799875
32.200000	1	0.730875
32.216667	1	0.667500
32.233333	1	0.608750
32.250000	1	0.555125
32.266667	1	0.506500
32.283333	1	0.462500
32.300000	1	0.421375
32.316667	1	0.384750
32.333333	1	0.351875
32.350000	1	0.321875
32.366667	1	0.294750
32.383333	1	0.269500
32.400000	1	0.247375
32.416667	1	0.227375
32.433333	1	0.209625
32.450000	1	0.193500
32.466667	1	0.179375
32.483333	1	0.166250
32.500000	1	0.155125
32.516667	1	0.145125
32.533333	1	0.136125
32.550000	1	0.127875
32.566667	1	0.120750
32.583333	1	0.114375
32.600000	1	0.108875
32.616667	1	0.103875
32.633333	1	0.100000
32.650000	1	0.096500
32.666667	1	0.092750
32.683333	1	0.089625
32.700000	1	0.087125
32.716667	1	0.084875
32.733333	1	0.082500
32.750000	1	0.080875
32.766667	1	0.078875
32.783333	1	0.077000
32.800000	1	0.075625
32.816667	1	0.074375
32.833333	1	0.072375
32.850000	1	0.070750
32.866667	1	0.069000
32.883333	1	0.067000
32.900000	1	0.066000
32.916667	1	0.063875
32.933333	1	0.062750
32.950000	1	0.060875
32.966667	1	0.059375
32.983333	1	0.058000
33.000000	1	0.056875
33.016667	1	0.055375
33.033333	1	0.054125
33.050000	1	0.053125
33.066667	1	0.051250
33.083333	1	0.049875
33.100000	1	0.048375
33.116667	1	0.046875
33.133333	1	0.046000
33.150000	1	0.045375
33.166667	1	0.045500
33.183333	1	0.044625
33.200000	1	0.044125
33.216667	1	0.044000
33.233333	1	0.043875
33.250000	1	0.044375
33.266667	1	0.044250
33.283333	1	0.044125
33.300000	1	0.043875
33.316667	1	0.044375
33.333333	1	0.045000
33.350000	1	0.044625
33.366667	1	0.044750
33.383333	1	0.045875
33.400000	1	0.047250
33.416667	1	0.048500
33.433333	1	0.049750
33.450000	1	0.051250
33.466667	1	0.052750
33.483333	1	0.053500
33.500000	1	0.054750
33.516667	1	0.056500
33.533333	1	0.058875
33.550000	1	0.060250
33.566667	1	0.061750
33.583333	1	0.063250
33.600000	1	0.064875
33.616667	1	0.067000
33.633333	1	0.069125
33.650000	1	0.070000
33.666667	1	0.072000
33.683333	1	0.074375
33.700000	1	0.076875
33.716667	1	0.079250
33.733333	1	0.081125
33.750000	1	0.083875
33.766667	1	0.086500
33.783333	1	0.088375
33.800000	1	0.090625
33.816667	1	0.092500
33.833333	1	0.094375
33.850000	1	0.096375
33.866667	1	0.098375
33.883333	1	0.099625
33.900000	1	0.101375
33.916667	1	0.103375
33.933333	1	0.105250
33.950000	1	0.106875
33.966667	1	0.108875
33.983333	1	0.110625
34.000000	1	0.111875
34.016667	1	0.113375
34.033333	1	0.114750
34.050000	1	0.116000
34.066667	1	0.116625
34.083333	1	0.117625
34.100000	1	0.118125
34.116667	1	0.119250
34.133333	1	0.119500
34.150000	1	0.120625
34.166667	1	0.121625
34.183333	1	0.122875
34.200000	1	0.123375
34.216667	1	0.124250
34.233333	1	0.125375
34.250000	1	0.125875
34.266667	1	0.127125
34.283333	1	0.127625
34.300000	1	0.128750
34.316667	1	0.129125
34.333333	1	0.131000
34.350000	1	0.131625
34.366667	1	0.132625
34.383333	1	0.133500
34.400000	1	0.134625
34.416667	1	0.136250
34.433333	1	0.137375
34.450000	1	0.138375
34.466667	1	0.140000
34.483333	1	0.142000
34.500000	1	0.143875
34.516667	1	0.145500
34.533333	1	0.148250
34.550000	1	0.150375
34.566667	1	0.152750
34.583333	1	0.154500
34.600000	1	0.156125
34.616667	1	0.157500
34.633333	1	0.159625
34.650000	1	0.161750
34.666667	1	0.163375
34.683333	1	0.164625
34.700000	1	0.166000
34.716667	1	0.166875
34.733333	1	0.167375
34.750000	1	0.168000
34.766667	1	0.169375
34.783333	1	0.170250
34.800000	1	0.170375
34.816667	1	0.170500
34.833333	1	0.169875
34.850000	1	0.169125
34.866667	1	0.168625
34.883333	1	0.167250
34.900000	1	0.166250
34.916667	1	0.165125
34.933333	1	0.163500
34.950000	1	0.162125
34.966667	1	0.159375
34.983333	1	0.157375
35.000000	1	0.155500
35.016667	1	0.153250
35.033333	1	0.150125
35.050000	1	0.146375
35.066667	1	0.142375
35.083333	1	0.138375
35.100000	1	0.134875
35.116667	1	0.131375
35.133333	1	0.128250
35.150000	1	0.125375
35.166667	1	0.122125
35.183333	1	0.118375
35.200000	1	0.115375
35.216667	1	0.111875
35.233333	1	0.108500
35.250000	1	0.105500
35.266667	1	0.102875
35.283333	1	0.100250
35.300000	1	0.097875
35.316667	1	0.095625
35.333333	1	0.092750
35.350000	1	0.090875
35.366667	1	0.088875
35.383333	1	0.087375
35.400000	1	0.087250
35.416667	1	0.085625
35.433333	1	0.084625
35.450000	1	0.084500
35.466667	1	0.083875
35.483333	1	0.083875
35.500000	1	0.083250
35.516667	1	0.083375
35.533333	1	0.083875
35.550000	1	0.084375
35.566667	1	0.084875
35.583333	1	0.085750
35.600000	1	0.085625
35.616667	1	0.086500
35.633333	1	0.087375
35.650000	1	0.088375
35.666667	1	0.089875
35.683333	1	0.090625
35.700000	1	0.091250
35.716667	1	0.092500
35.733333	1	0.092875
35.750000	1	0.093000
35.766667	1	0.093750
35.783333	1	0.094500
35.800000	1	0.094625
35.816667	1	0.094750
35.833333	1	0.094375
35.850000	1	0.093875
35.866667	1	0.093750
35.883333	1	0.092875
35.900000	1	0.091500
35.916667	1	0.090625
35.933333	1	0.090125
35.950000	1	0.088625
35.966667	1	0.087625
35.983333	1	0.086125
36.000000	1	0.084875
36.016667	1	0.083375
36.033333	1	0.082375
36.050000	1	0.080625
36.066667	1	0.079750
36.083333	1	0.078000
36.100000	1	0.076250
36.116667	1	0.075500
36.133333	1	0.075625
36.150000	1	0.075500
36.166667	1	0.075375
36.183333	1	0.075000
36.200000	1	0.075375
36.216667	1	0.075875
36.233333	1	0.076500
36.250000	1	0.078125
36.266667	1	0.080000
36.283333	1	0.081750
36.300000	1	0.083750
36.316667	1	0.086750
36.333333	1	0.089500
36.350000	1	0.092000
36.366667	1	0.095125
36.383333	1	0.098375
36.400000	1	0.101750
36.416667	1	0.105500
36.433333	1	0.108875
36.450000	1	0.112250
36.466667	1	0.115250
36.483333	1	0.118500
36.500000	1	0.121375
36.516667	1	0.124750
36.533333	1	0.127000
36.550000	1	0.128875
36.566667	1	0.131125
36.583333	1	0.132000
36.600000	1	0.133375
36.616667	1	0.134250
36.633333	1	0.134375
36.650000	1	0.133875
36.666667	1	0.132875
36.683333	1	0.132750
36.700000	1	0.131875
36.716667	1	0.130500
36.733333	1	0.128625
36.750000	1	0.126375
36.766667	1	0.124625
36.783333	1	0.121875
36.800000	1	0.119250
36.816667	1	0.116250
36.833333	1	0.113125
36.850000	1	0.110125
36.866667	1	0.107750
36.883333	1	0.105000
36.900000	1	0.102500
36.916667	1	0.099875
36.933333	1	0.097750
36.950000	1	0.096250
36.966667	1	0.093375
36.983333	1	0.091000
37.000000	1	0.088500
37.016667	1	0.087000
37.033333	1	0.085750
37.050000	1	0.084000
37.066667	1	0.083250
37.083333	1	0.082000
37.100000	1	0.080375
37.116667	1	0.079625
37.133333	1	0.078125
37.150000	1	0.077750
37.166667	1	0.076875
37.183333	1	0.076125
37.200000	1	0.075875
37.216667	1	0.075750
37.233333	1	0.075000
37.250000	1	0.075625
37.266667	1	0.075500
37.283333	1	0.075625
37.300000	1	0.075500
37.316667	1	0.076125
37.333333	1	0.077000
37.350000	1	0.076750
37.366667	1	0.076750
37.383333	1	0.076500
37.400000	1	0.077000
37.416667	1	0.076625
37.433333	1	0.076375
37.450000	1	0.077125
37.466667	1	0.077625
37.483333	1	0.077875
37.500000	1	0.078125
37.516667	1	0.077625
37.533333	1	0.077500
37.550000	1	0.077000
37.566667	1	0.076500
37.583333	1	0.076375
37.600000	1	0.075875
37.616667	1	0.074875
37.633333	1	0.074875
37.650000	1	0.074125
37.666667	1	0.073875
37.683333	1	0.073000
37.700000	1	0.073000
37.716667	1	0.073250
37.733333	1	0.072750
37.750000	1	0.071875
37.766667	1	0.071375
37.783333	1	0.069875
37.800000	1	0.069500
37.816667	1	0.069375
37.833333	1	0.068125
37.850000	1	0.066875
37.866667	1	0.066000
37.883333	1	0.065500
37.900000	1	0.064750
37.916667	1	0.063500
37.933333	1	0.063000
37.950000	1	0.062500
37.966667	1	0.062000
37.983333	1	0.061875
38.000000	1	0.061375
38.016667	1	0.060500
38.033333	1	0.060125
38.050000	1	0.059375
38.066667	1	0.059375
38.083333	1	0.059625
38.100000	1	0.059875
38.116667	1	0.059500
38.133333	1	0.059625
38.150000	1	0.059875
38.166667	1	0.060000
38.183333	1	0.060250
38.200000	1	0.060500
38.216667	1	0.060250
38.233333	1	0.060375
38.250000	1	0.060375
38.266667	1	0.060500
38.283333	1	0.060125
38.300000	1	0.060375
38.316667	1	0.060500
38.333333	1	0.060750
38.350000	1	0.060375
38.366667	1	0.060250
38.383333	1	0.060750
38.400000	1	0.060750
38.416667	1	0.060750
38.433333	1	0.060875
38.450000	1	0.060500
38.466667	1	0.060625
38.483333	1	0.060625
38.500000	1	0.060625
38.516667	1	0.059375
38.533333	1	0.058625
38.550000	1	0.058000
38.566667	1	0.057375
38.583333	1	0.055750
38.600000	1	0.054875
38.616667	1	0.054000
38.633333	1	0.053500
38.650000	1	0.052125
38.666667	1	0.052000
38.683333	1	0.051625
38.700000	1	0.051250
38.716667	1	0.050625
38.733333	1	0.049875
38.750000	1	0.048750
38.766667	1	0.047875
38.783333	1	0.047250
38.800000	1	0.046375
38.816667	1	0.045750
38.833333	1	0.045250
38.850000	1	0.044750
38.866667	1	0.043750
38.883333	1	0.043375
38.900000	1	0.043125
38.916667	1	0.043125
38.933333	1	0.042500
38.950000	1	0.042250
38.966667	1	0.042125
38.983333	1	0.041500
39.000000	1	0.041875
39.016667	1	0.041375
39.033333	1	0.041000
39.050000	1	0.040750
39.066667	1	0.040750
39.083333	1	0.040500
39.100000	1	0.040125
39.116667	1	0.040125
39.133333	1	0.038750
39.150000	1	0.038000
39.166667	1	0.037625
39.183333	1	0.037000
39.200000	1	0.036750
39.216667	1	0.036375
39.233333	1	0.035500
39.250000	1	0.035250
39.266667	1	0.034375
39.283333	1	0.034625
39.300000	1	0.033875
39.316667	1	0.033625
39.333333	1	0.033250
39.350000	1	0.032375
39.366667	1	0.031625
39.383333	1	0.031750
39.400000	1	0.031625
39.416667	1	0.031625
39.433333	1	0.031375
39.450000	1	0.031500
39.466667	1	0.031500
39.483333	1	0.031750
39.500000	1	0.031750
39.516667	1	0.031625
39.533333	1	0.031750
39.550000	1	0.032125
39.566667	1	0.033375
39.583333	1	0.033125
39.600000	1	0.033375
39.616667	1	0.033875
39.633333	1	0.034250
39.650000	1	0.034625
39.666667	1	0.035375
39.683333	1	0.036125
39.700000	1	0.036625
39.716667	1	0.036875
39.733333	1	0.036500
39.750000	1	0.037000
39.766667	1	0.037625
39.783333	1	0.038375
39.800000	1	0.038625
39.816667	1	0.039625
39.833333	1	0.040250
39.850000	1	0.040500
39.866667	1	0.040625
39.883333	1	0.041000
39.900000	1	0.040875
39.916667	1	0.041250
39.933333	1	0.041125
39.950000	1	0.040875
39.966667	1	0.040500
39.983333	1	0.040125
40.000000	1	0.039750
