URL	chrom://bioreactor/micro_cm7/HPLC_Ultimate_3000/Users/markusar/20240716_MA_pHrange2.seq/263.smp/RI_1.channel/RI_1.chm
Channel	RI_1

Injection Information:
Data Vault	micro_cm7
Sequence	20240716_MA_pHrange2
Name	Pv2_25H_3
Number	8
Position	BA8
Comment	
Processing Method	
Instrument Method	run_25B_method
Type	Unknown
Status	Finished
Inject Time	16.07.2024 22:53:16 +02:00
Volume (µl)	20.0000
Dilution Factor	1.0000
Weight	1.0000

Chromatogram Data Information:
Time Min. (min)	0.000000
Time Max. (min)	40.000000
Data Points	2401
Detector	RI
Generating Data System	Chromeleon 7.3.2.11814
Exporting Data System	Chromeleon 7.3.2.0
Operator	Instrument Controller
Signal Quantity	Refractive 
Signal Unit	µRIU
Signal Min.	-0.093875
Signal Max.	85.153125
Channel	RI_1
Driver Name	RID520Driver.dll
Channel Type	Evaluation
Min. Step (s)	1
Max. Step (s)	1
Average Step (s)	1

Signal Parameter Information:
Signal Info	

Chromatogram Data:
Time (min)	Step (s)	Value (µRIU)
0.000000	n.a.	0.045875
0.016667	1	0.045750
0.033333	1	0.046125
0.050000	1	0.046125
0.066667	1	0.046625
0.083333	1	0.046750
0.100000	1	0.046625
0.116667	1	0.045750
0.133333	1	0.045625
0.150000	1	0.045000
0.166667	1	0.043875
0.183333	1	0.043250
0.200000	1	0.042250
0.216667	1	0.040875
0.233333	1	0.039375
0.250000	1	0.038125
0.266667	1	0.037500
0.283333	1	0.036875
0.300000	1	0.036125
0.316667	1	0.035125
0.333333	1	0.034000
0.350000	1	0.032875
0.366667	1	0.031125
0.383333	1	0.029500
0.400000	1	0.027000
0.416667	1	0.025375
0.433333	1	0.024750
0.450000	1	0.025000
0.466667	1	0.025500
0.483333	1	0.026000
0.500000	1	0.026375
0.516667	1	0.026500
0.533333	1	0.025250
0.550000	1	0.023500
0.566667	1	0.021375
0.583333	1	0.018750
0.600000	1	0.015750
0.616667	1	0.012500
0.633333	1	0.011000
0.650000	1	0.009375
0.666667	1	0.008000
0.683333	1	0.005875
0.700000	1	0.005000
0.716667	1	0.003750
0.733333	1	0.002125
0.750000	1	0.000250
0.766667	1	-0.001000
0.783333	1	-0.002000
0.800000	1	-0.002625
0.816667	1	-0.003625
0.833333	1	-0.004625
0.850000	1	-0.005500
0.866667	1	-0.006625
0.883333	1	-0.007125
0.900000	1	-0.006875
0.916667	1	-0.007750
0.933333	1	-0.009000
0.950000	1	-0.009375
0.966667	1	-0.010125
0.983333	1	-0.010625
1.000000	1	-0.010625
1.016667	1	-0.010625
1.033333	1	-0.010125
1.050000	1	-0.009875
1.066667	1	-0.010125
1.083333	1	-0.010000
1.100000	1	-0.009625
1.116667	1	-0.008625
1.133333	1	-0.008750
1.150000	1	-0.008000
1.166667	1	-0.007625
1.183333	1	-0.006750
1.200000	1	-0.006500
1.216667	1	-0.006250
1.233333	1	-0.005875
1.250000	1	-0.005375
1.266667	1	-0.004625
1.283333	1	-0.004000
1.300000	1	-0.003250
1.316667	1	-0.003375
1.333333	1	-0.003125
1.350000	1	-0.002875
1.366667	1	-0.002375
1.383333	1	-0.002000
1.400000	1	-0.001500
1.416667	1	-0.001500
1.433333	1	-0.000375
1.450000	1	0.000375
1.466667	1	0.000500
1.483333	1	0.001000
1.500000	1	0.001625
1.516667	1	0.002500
1.533333	1	0.003500
1.550000	1	0.003875
1.566667	1	0.005125
1.583333	1	0.005500
1.600000	1	0.006000
1.616667	1	0.006125
1.633333	1	0.007750
1.650000	1	0.008750
1.666667	1	0.009625
1.683333	1	0.010125
1.700000	1	0.011000
1.716667	1	0.011125
1.733333	1	0.011500
1.750000	1	0.012000
1.766667	1	0.013250
1.783333	1	0.013000
1.800000	1	0.014375
1.816667	1	0.014750
1.833333	1	0.014750
1.850000	1	0.016000
1.866667	1	0.016750
1.883333	1	0.017625
1.900000	1	0.017625
1.916667	1	0.017625
1.933333	1	0.017500
1.950000	1	0.017375
1.966667	1	0.017500
1.983333	1	0.017750
2.000000	1	0.017000
2.016667	1	0.016750
2.033333	1	0.016375
2.050000	1	0.016250
2.066667	1	0.015750
2.083333	1	0.015125
2.100000	1	0.014625
2.116667	1	0.014000
2.133333	1	0.013750
2.150000	1	0.013000
2.166667	1	0.012250
2.183333	1	0.011000
2.200000	1	0.010375
2.216667	1	0.010125
2.233333	1	0.009250
2.250000	1	0.008125
2.266667	1	0.008000
2.283333	1	0.007250
2.300000	1	0.006500
2.316667	1	0.005375
2.333333	1	0.005250
2.350000	1	0.005125
2.366667	1	0.003750
2.383333	1	0.002500
2.400000	1	0.002125
2.416667	1	0.002125
2.433333	1	0.001375
2.450000	1	0.000875
2.466667	1	0.000625
2.483333	1	0.000375
2.500000	1	0.000375
2.516667	1	0.000125
2.533333	1	0.000000
2.550000	1	0.000000
2.566667	1	-0.000375
2.583333	1	0.000125
2.600000	1	0.000000
2.616667	1	0.000500
2.633333	1	0.001000
2.650000	1	0.001875
2.666667	1	0.002125
2.683333	1	0.002250
2.700000	1	0.003625
2.716667	1	0.005125
2.733333	1	0.005625
2.750000	1	0.007125
2.766667	1	0.008625
2.783333	1	0.009875
2.800000	1	0.011375
2.816667	1	0.012750
2.833333	1	0.014750
2.850000	1	0.016375
2.866667	1	0.018875
2.883333	1	0.020375
2.900000	1	0.021875
2.916667	1	0.024125
2.933333	1	0.026375
2.950000	1	0.027500
2.966667	1	0.029250
2.983333	1	0.031375
3.000000	1	0.032875
3.016667	1	0.034250
3.033333	1	0.035625
3.050000	1	0.037750
3.066667	1	0.039750
3.083333	1	0.041250
3.100000	1	0.042500
3.116667	1	0.044125
3.133333	1	0.045125
3.150000	1	0.046000
3.166667	1	0.047000
3.183333	1	0.048125
3.200000	1	0.049250
3.216667	1	0.050250
3.233333	1	0.051750
3.250000	1	0.053000
3.266667	1	0.053875
3.283333	1	0.055250
3.300000	1	0.056125
3.316667	1	0.057750
3.333333	1	0.059125
3.350000	1	0.060000
3.366667	1	0.060875
3.383333	1	0.062625
3.400000	1	0.064125
3.416667	1	0.065500
3.433333	1	0.066500
3.450000	1	0.067750
3.466667	1	0.069250
3.483333	1	0.071125
3.500000	1	0.072375
3.516667	1	0.073875
3.533333	1	0.074750
3.550000	1	0.076125
3.566667	1	0.076875
3.583333	1	0.077375
3.600000	1	0.078000
3.616667	1	0.079000
3.633333	1	0.080750
3.650000	1	0.081625
3.666667	1	0.082750
3.683333	1	0.083000
3.700000	1	0.083250
3.716667	1	0.083500
3.733333	1	0.083625
3.750000	1	0.083500
3.766667	1	0.083500
3.783333	1	0.083750
3.800000	1	0.083250
3.816667	1	0.083500
3.833333	1	0.084125
3.850000	1	0.084000
3.866667	1	0.083750
3.883333	1	0.082875
3.900000	1	0.082875
3.916667	1	0.082875
3.933333	1	0.083375
3.950000	1	0.083625
3.966667	1	0.083750
3.983333	1	0.083625
4.000000	1	0.083000
4.016667	1	0.082625
4.033333	1	0.082125
4.050000	1	0.081750
4.066667	1	0.082000
4.083333	1	0.082000
4.100000	1	0.081250
4.116667	1	0.080750
4.133333	1	0.080625
4.150000	1	0.080125
4.166667	1	0.079750
4.183333	1	0.079750
4.200000	1	0.080000
4.216667	1	0.080250
4.233333	1	0.080625
4.250000	1	0.080750
4.266667	1	0.080500
4.283333	1	0.081125
4.300000	1	0.081750
4.316667	1	0.082625
4.333333	1	0.082875
4.350000	1	0.083750
4.366667	1	0.084875
4.383333	1	0.085625
4.400000	1	0.087000
4.416667	1	0.087750
4.433333	1	0.089500
4.450000	1	0.091250
4.466667	1	0.092625
4.483333	1	0.093750
4.500000	1	0.095125
4.516667	1	0.096875
4.533333	1	0.098125
4.550000	1	0.099875
4.566667	1	0.102000
4.583333	1	0.103125
4.600000	1	0.105000
4.616667	1	0.107000
4.633333	1	0.108250
4.650000	1	0.110125
4.666667	1	0.111500
4.683333	1	0.113125
4.700000	1	0.114000
4.716667	1	0.115125
4.733333	1	0.116250
4.750000	1	0.117250
4.766667	1	0.118625
4.783333	1	0.119875
4.800000	1	0.120500
4.816667	1	0.123125
4.833333	1	0.124375
4.850000	1	0.126125
4.866667	1	0.127500
4.883333	1	0.128875
4.900000	1	0.130875
4.916667	1	0.132375
4.933333	1	0.134125
4.950000	1	0.136625
4.966667	1	0.137750
4.983333	1	0.139500
5.000000	1	0.142125
5.016667	1	0.144375
5.033333	1	0.146875
5.050000	1	0.149125
5.066667	1	0.151125
5.083333	1	0.154000
5.100000	1	0.156750
5.116667	1	0.159750
5.133333	1	0.162625
5.150000	1	0.165500
5.166667	1	0.168375
5.183333	1	0.171125
5.200000	1	0.174125
5.216667	1	0.177125
5.233333	1	0.179625
5.250000	1	0.182250
5.266667	1	0.184500
5.283333	1	0.187375
5.300000	1	0.189750
5.316667	1	0.191750
5.333333	1	0.193250
5.350000	1	0.195375
5.366667	1	0.197125
5.383333	1	0.198625
5.400000	1	0.199125
5.416667	1	0.200000
5.433333	1	0.200625
5.450000	1	0.200625
5.466667	1	0.200500
5.483333	1	0.200125
5.500000	1	0.198750
5.516667	1	0.197500
5.533333	1	0.195625
5.550000	1	0.194000
5.566667	1	0.192000
5.583333	1	0.190625
5.600000	1	0.188000
5.616667	1	0.185625
5.633333	1	0.182750
5.650000	1	0.180000
5.666667	1	0.177000
5.683333	1	0.173250
5.700000	1	0.170000
5.716667	1	0.166875
5.733333	1	0.162750
5.750000	1	0.159875
5.766667	1	0.155875
5.783333	1	0.152500
5.800000	1	0.148500
5.816667	1	0.145625
5.833333	1	0.142125
5.850000	1	0.138875
5.866667	1	0.136125
5.883333	1	0.133375
5.900000	1	0.130250
5.916667	1	0.127500
5.933333	1	0.124625
5.950000	1	0.122250
5.966667	1	0.119125
5.983333	1	0.116375
6.000000	1	0.114000
6.016667	1	0.112125
6.033333	1	0.111125
6.050000	1	0.109000
6.066667	1	0.107625
6.083333	1	0.105875
6.100000	1	0.104625
6.116667	1	0.103500
6.133333	1	0.102375
6.150000	1	0.100750
6.166667	1	0.100125
6.183333	1	0.099625
6.200000	1	0.098000
6.216667	1	0.097000
6.233333	1	0.096500
6.250000	1	0.095875
6.266667	1	0.095625
6.283333	1	0.095500
6.300000	1	0.094875
6.316667	1	0.094000
6.333333	1	0.094000
6.350000	1	0.094375
6.366667	1	0.094625
6.383333	1	0.094625
6.400000	1	0.095000
6.416667	1	0.094875
6.433333	1	0.094625
6.450000	1	0.094250
6.466667	1	0.094125
6.483333	1	0.094375
6.500000	1	0.094625
6.516667	1	0.094375
6.533333	1	0.095750
6.550000	1	0.096500
6.566667	1	0.097250
6.583333	1	0.097625
6.600000	1	0.098125
6.616667	1	0.098250
6.633333	1	0.099000
6.650000	1	0.098750
6.666667	1	0.099000
6.683333	1	0.100250
6.700000	1	0.101375
6.716667	1	0.102625
6.733333	1	0.103875
6.750000	1	0.105125
6.766667	1	0.106375
6.783333	1	0.107250
6.800000	1	0.108125
6.816667	1	0.109250
6.833333	1	0.110125
6.850000	1	0.110875
6.866667	1	0.111625
6.883333	1	0.112250
6.900000	1	0.113125
6.916667	1	0.113875
6.933333	1	0.114750
6.950000	1	0.115875
6.966667	1	0.116000
6.983333	1	0.116750
7.000000	1	0.117125
7.016667	1	0.117625
7.033333	1	0.118250
7.050000	1	0.118500
7.066667	1	0.118625
7.083333	1	0.118875
7.100000	1	0.118125
7.116667	1	0.118250
7.133333	1	0.118000
7.150000	1	0.117875
7.166667	1	0.117750
7.183333	1	0.117875
7.200000	1	0.117500
7.216667	1	0.116750
7.233333	1	0.116125
7.250000	1	0.115375
7.266667	1	0.114250
7.283333	1	0.113125
7.300000	1	0.112125
7.316667	1	0.111250
7.333333	1	0.109875
7.350000	1	0.109000
7.366667	1	0.107500
7.383333	1	0.105625
7.400000	1	0.103625
7.416667	1	0.101875
7.433333	1	0.100250
7.450000	1	0.098500
7.466667	1	0.096375
7.483333	1	0.093375
7.500000	1	0.091250
7.516667	1	0.088750
7.533333	1	0.086500
7.550000	1	0.084125
7.566667	1	0.081500
7.583333	1	0.078750
7.600000	1	0.076000
7.616667	1	0.073750
7.633333	1	0.071750
7.650000	1	0.069375
7.666667	1	0.066750
7.683333	1	0.064125
7.700000	1	0.061250
7.716667	1	0.058500
7.733333	1	0.056500
7.750000	1	0.054500
7.766667	1	0.052250
7.783333	1	0.049500
7.800000	1	0.047625
7.816667	1	0.045750
7.833333	1	0.043750
7.850000	1	0.041750
7.866667	1	0.039750
7.883333	1	0.038250
7.900000	1	0.035625
7.916667	1	0.033250
7.933333	1	0.031500
7.950000	1	0.029000
7.966667	1	0.028000
7.983333	1	0.026500
8.000000	1	0.025625
8.016667	1	0.023750
8.033333	1	0.021875
8.050000	1	0.019500
8.066667	1	0.017500
8.083333	1	0.015875
8.100000	1	0.015125
8.116667	1	0.013750
8.133333	1	0.012625
8.150000	1	0.011875
8.166667	1	0.011375
8.183333	1	0.010750
8.200000	1	0.010250
8.216667	1	0.009125
8.233333	1	0.009125
8.250000	1	0.009000
8.266667	1	0.008000
8.283333	1	0.007875
8.300000	1	0.007375
8.316667	1	0.007375
8.333333	1	0.008250
8.350000	1	0.008875
8.366667	1	0.009250
8.383333	1	0.010125
8.400000	1	0.010500
8.416667	1	0.010875
8.433333	1	0.011375
8.450000	1	0.011625
8.466667	1	0.011875
8.483333	1	0.012250
8.500000	1	0.012500
8.516667	1	0.013125
8.533333	1	0.014000
8.550000	1	0.015125
8.566667	1	0.016125
8.583333	1	0.016000
8.600000	1	0.016625
8.616667	1	0.016250
8.633333	1	0.016375
8.650000	1	0.016875
8.666667	1	0.017500
8.683333	1	0.017500
8.700000	1	0.018000
8.716667	1	0.018750
8.733333	1	0.019000
8.750000	1	0.018750
8.766667	1	0.018750
8.783333	1	0.018750
8.800000	1	0.018875
8.816667	1	0.018375
8.833333	1	0.017875
8.850000	1	0.017375
8.866667	1	0.016375
8.883333	1	0.015375
8.900000	1	0.015625
8.916667	1	0.015000
8.933333	1	0.014375
8.950000	1	0.013625
8.966667	1	0.013000
8.983333	1	0.012500
9.000000	1	0.011625
9.016667	1	0.011250
9.033333	1	0.009875
9.050000	1	0.008750
9.066667	1	0.007875
9.083333	1	0.006750
9.100000	1	0.006625
9.116667	1	0.006250
9.133333	1	0.005875
9.150000	1	0.005125
9.166667	1	0.005125
9.183333	1	0.005125
9.200000	1	0.004250
9.216667	1	0.004500
9.233333	1	0.004375
9.250000	1	0.004000
9.266667	1	0.003625
9.283333	1	0.003500
9.300000	1	0.003875
9.316667	1	0.004000
9.333333	1	0.004250
9.350000	1	0.003875
9.366667	1	0.004125
9.383333	1	0.004375
9.400000	1	0.004625
9.416667	1	0.004875
9.433333	1	0.005125
9.450000	1	0.005500
9.466667	1	0.006500
9.483333	1	0.006875
9.500000	1	0.006375
9.516667	1	0.006375
9.533333	1	0.007000
9.550000	1	0.007250
9.566667	1	0.006875
9.583333	1	0.007125
9.600000	1	0.007250
9.616667	1	0.007125
9.633333	1	0.006750
9.650000	1	0.006125
9.666667	1	0.005250
9.683333	1	0.004750
9.700000	1	0.004625
9.716667	1	0.003750
9.733333	1	0.003250
9.750000	1	0.002750
9.766667	1	0.001750
9.783333	1	0.000875
9.800000	1	0.000250
9.816667	1	-0.000500
9.833333	1	-0.001000
9.850000	1	-0.001750
9.866667	1	-0.002250
9.883333	1	-0.003125
9.900000	1	-0.003750
9.916667	1	-0.004125
9.933333	1	-0.004875
9.950000	1	-0.004750
9.966667	1	-0.004875
9.983333	1	-0.005625
10.000000	1	-0.006000
10.016667	1	-0.005125
10.033333	1	-0.005000
10.050000	1	-0.004750
10.066667	1	-0.003500
10.083333	1	-0.002000
10.100000	1	0.000000
10.116667	1	0.002500
10.133333	1	0.006375
10.150000	1	0.011125
10.166667	1	0.016750
10.183333	1	0.023250
10.200000	1	0.030250
10.216667	1	0.039375
10.233333	1	0.049000
10.250000	1	0.060375
10.266667	1	0.073250
10.283333	1	0.087875
10.300000	1	0.104375
10.316667	1	0.122875
10.333333	1	0.142500
10.350000	1	0.162375
10.366667	1	0.181000
10.383333	1	0.194750
10.400000	1	0.200000
10.416667	1	0.192000
10.433333	1	0.166375
10.450000	1	0.120875
10.466667	1	0.057250
10.483333	1	-0.015125
10.500000	1	-0.075750
10.516667	1	-0.093875
10.533333	1	-0.024000
10.550000	1	0.191375
10.566667	1	0.615750
10.583333	1	1.316625
10.600000	1	2.359250
10.616667	1	3.802125
10.633333	1	5.693625
10.650000	1	8.066875
10.666667	1	10.947250
10.683333	1	14.349500
10.700000	1	18.277250
10.716667	1	22.721750
10.733333	1	27.663500
10.750000	1	33.072625
10.766667	1	38.902500
10.783333	1	45.096000
10.800000	1	51.582375
10.816667	1	58.252000
10.833333	1	64.938750
10.850000	1	71.383375
10.866667	1	77.213875
10.883333	1	81.894875
10.900000	1	84.764500
10.916667	1	85.153125
10.933333	1	82.616500
10.950000	1	77.161375
10.966667	1	69.336500
10.983333	1	60.080250
11.000000	1	50.424625
11.016667	1	41.232875
11.033333	1	33.060000
11.050000	1	26.147625
11.066667	1	20.502000
11.083333	1	16.012500
11.100000	1	12.511125
11.116667	1	9.822750
11.133333	1	7.780625
11.150000	1	6.240375
11.166667	1	5.083500
11.183333	1	4.213500
11.200000	1	3.556625
11.216667	1	3.057500
11.233333	1	2.674750
11.250000	1	2.377625
11.266667	1	2.143625
11.283333	1	1.957125
11.300000	1	1.806125
11.316667	1	1.681875
11.333333	1	1.577875
11.350000	1	1.490000
11.366667	1	1.416125
11.383333	1	1.353125
11.400000	1	1.299625
11.416667	1	1.253500
11.433333	1	1.213250
11.450000	1	1.179125
11.466667	1	1.149125
11.483333	1	1.123500
11.500000	1	1.101125
11.516667	1	1.082250
11.533333	1	1.065625
11.550000	1	1.050625
11.566667	1	1.038250
11.583333	1	1.027125
11.600000	1	1.018625
11.616667	1	1.011875
11.633333	1	1.006250
11.650000	1	1.002375
11.666667	1	0.999875
11.683333	1	0.997875
11.700000	1	0.997250
11.716667	1	0.998375
11.733333	1	1.000125
11.750000	1	1.003375
11.766667	1	1.007500
11.783333	1	1.012375
11.800000	1	1.018125
11.816667	1	1.024875
11.833333	1	1.031750
11.850000	1	1.038875
11.866667	1	1.046500
11.883333	1	1.052625
11.900000	1	1.058625
11.916667	1	1.063625
11.933333	1	1.068250
11.950000	1	1.071875
11.966667	1	1.074000
11.983333	1	1.076000
12.000000	1	1.077000
12.016667	1	1.077750
12.033333	1	1.078250
12.050000	1	1.077875
12.066667	1	1.078500
12.083333	1	1.078875
12.100000	1	1.079500
12.116667	1	1.080250
12.133333	1	1.081375
12.150000	1	1.082250
12.166667	1	1.083500
12.183333	1	1.085375
12.200000	1	1.088500
12.216667	1	1.092500
12.233333	1	1.097750
12.250000	1	1.103875
12.266667	1	1.112500
12.283333	1	1.123500
12.300000	1	1.137875
12.316667	1	1.157000
12.333333	1	1.182750
12.350000	1	1.217375
12.366667	1	1.263000
12.383333	1	1.323750
12.400000	1	1.402250
12.416667	1	1.503875
12.433333	1	1.630750
12.450000	1	1.789750
12.466667	1	1.985500
12.483333	1	2.224125
12.500000	1	2.508750
12.516667	1	2.843875
12.533333	1	3.233625
12.550000	1	3.677875
12.566667	1	4.178250
12.583333	1	4.732750
12.600000	1	5.336500
12.616667	1	5.983000
12.633333	1	6.661750
12.650000	1	7.361875
12.666667	1	8.071625
12.683333	1	8.778000
12.700000	1	9.467000
12.716667	1	10.130000
12.733333	1	10.758375
12.750000	1	11.349750
12.766667	1	11.905250
12.783333	1	12.428750
12.800000	1	12.929250
12.816667	1	13.415500
12.833333	1	13.899000
12.850000	1	14.389125
12.866667	1	14.895500
12.883333	1	15.424000
12.900000	1	15.981750
12.916667	1	16.571125
12.933333	1	17.193375
12.950000	1	17.848625
12.966667	1	18.536750
12.983333	1	19.255500
13.000000	1	20.002375
13.016667	1	20.775750
13.033333	1	21.574000
13.050000	1	22.396375
13.066667	1	23.243250
13.083333	1	24.112625
13.100000	1	25.003625
13.116667	1	25.916125
13.133333	1	26.847250
13.150000	1	27.797875
13.166667	1	28.767000
13.183333	1	29.755875
13.200000	1	30.762875
13.216667	1	31.787625
13.233333	1	32.831625
13.250000	1	33.896500
13.266667	1	34.981375
13.283333	1	36.087250
13.300000	1	37.214500
13.316667	1	38.362625
13.333333	1	39.532625
13.350000	1	40.723625
13.366667	1	41.938000
13.383333	1	43.174500
13.400000	1	44.435000
13.416667	1	45.717000
13.433333	1	47.024250
13.450000	1	48.357625
13.466667	1	49.718625
13.483333	1	51.107125
13.500000	1	52.525125
13.516667	1	53.971625
13.533333	1	55.447875
13.550000	1	56.953750
13.566667	1	58.489250
13.583333	1	60.056000
13.600000	1	61.651750
13.616667	1	63.278125
13.633333	1	64.937000
13.650000	1	66.631625
13.666667	1	68.362000
13.683333	1	70.128750
13.700000	1	71.932375
13.716667	1	73.774000
13.733333	1	75.650750
13.750000	1	77.556250
13.766667	1	79.454750
13.783333	1	81.249250
13.800000	1	82.754375
13.816667	1	83.721500
13.833333	1	83.888750
13.850000	1	83.013250
13.866667	1	80.859750
13.883333	1	77.184250
13.900000	1	71.785125
13.916667	1	64.655500
13.933333	1	56.159375
13.950000	1	47.042250
13.966667	1	38.200250
13.983333	1	30.357875
14.000000	1	23.871500
14.016667	1	18.751625
14.033333	1	14.818875
14.050000	1	11.843000
14.066667	1	9.614375
14.083333	1	7.958000
14.100000	1	6.737750
14.116667	1	5.842500
14.133333	1	5.185000
14.150000	1	4.698750
14.166667	1	4.335000
14.183333	1	4.057500
14.200000	1	3.841875
14.216667	1	3.670375
14.233333	1	3.530625
14.250000	1	3.414125
14.266667	1	3.314125
14.283333	1	3.227625
14.300000	1	3.151125
14.316667	1	3.083875
14.333333	1	3.023000
14.350000	1	2.968375
14.366667	1	2.919625
14.383333	1	2.877250
14.400000	1	2.840375
14.416667	1	2.812000
14.433333	1	2.792000
14.450000	1	2.783500
14.466667	1	2.790000
14.483333	1	2.817125
14.500000	1	2.871750
14.516667	1	2.962750
14.533333	1	3.103375
14.550000	1	3.311875
14.566667	1	3.610750
14.583333	1	4.027500
14.600000	1	4.598625
14.616667	1	5.369250
14.633333	1	6.391000
14.650000	1	7.724500
14.666667	1	9.434375
14.683333	1	11.585375
14.700000	1	14.236250
14.716667	1	17.433000
14.733333	1	21.204375
14.750000	1	25.553250
14.766667	1	30.444875
14.783333	1	35.795375
14.800000	1	41.484625
14.816667	1	47.351500
14.833333	1	53.195750
14.850000	1	58.783500
14.866667	1	63.864125
14.883333	1	68.191000
14.900000	1	71.540375
14.916667	1	73.738000
14.933333	1	74.670250
14.950000	1	74.295750
14.966667	1	72.649875
14.983333	1	69.844000
15.000000	1	66.044625
15.016667	1	61.459250
15.033333	1	56.316750
15.050000	1	50.856750
15.066667	1	45.304875
15.083333	1	39.859375
15.100000	1	34.679625
15.116667	1	29.881625
15.133333	1	25.540250
15.150000	1	21.692000
15.166667	1	18.340750
15.183333	1	15.468375
15.200000	1	13.036125
15.216667	1	10.998750
15.233333	1	9.307375
15.250000	1	7.914750
15.266667	1	6.775125
15.283333	1	5.847625
15.300000	1	5.097500
15.316667	1	4.492875
15.333333	1	4.007000
15.350000	1	3.619125
15.366667	1	3.310000
15.383333	1	3.065750
15.400000	1	2.875750
15.416667	1	2.729125
15.433333	1	2.616375
15.450000	1	2.532750
15.466667	1	2.472000
15.483333	1	2.427750
15.500000	1	2.395500
15.516667	1	2.372250
15.533333	1	2.353625
15.550000	1	2.335500
15.566667	1	2.316625
15.583333	1	2.294250
15.600000	1	2.267500
15.616667	1	2.235750
15.633333	1	2.200125
15.650000	1	2.159750
15.666667	1	2.116000
15.683333	1	2.070625
15.700000	1	2.025000
15.716667	1	1.979375
15.733333	1	1.935375
15.750000	1	1.893750
15.766667	1	1.853750
15.783333	1	1.816375
15.800000	1	1.780500
15.816667	1	1.746375
15.833333	1	1.713500
15.850000	1	1.681750
15.866667	1	1.650250
15.883333	1	1.620250
15.900000	1	1.590750
15.916667	1	1.563250
15.933333	1	1.537500
15.950000	1	1.513500
15.966667	1	1.492875
15.983333	1	1.473250
16.000000	1	1.457875
16.016667	1	1.445125
16.033333	1	1.435250
16.050000	1	1.427875
16.066667	1	1.424125
16.083333	1	1.422125
16.100000	1	1.420875
16.116667	1	1.419250
16.133333	1	1.418875
16.150000	1	1.417125
16.166667	1	1.413500
16.183333	1	1.409000
16.200000	1	1.402250
16.216667	1	1.393875
16.233333	1	1.383750
16.250000	1	1.372125
16.266667	1	1.358875
16.283333	1	1.343750
16.300000	1	1.328250
16.316667	1	1.311875
16.333333	1	1.295500
16.350000	1	1.278750
16.366667	1	1.261875
16.383333	1	1.246375
16.400000	1	1.231500
16.416667	1	1.217000
16.433333	1	1.204875
16.450000	1	1.193875
16.466667	1	1.184750
16.483333	1	1.177500
16.500000	1	1.172125
16.516667	1	1.169625
16.533333	1	1.168875
16.550000	1	1.171000
16.566667	1	1.174875
16.583333	1	1.180250
16.600000	1	1.186125
16.616667	1	1.193625
16.633333	1	1.201875
16.650000	1	1.209375
16.666667	1	1.217000
16.683333	1	1.222750
16.700000	1	1.227750
16.716667	1	1.231375
16.733333	1	1.234125
16.750000	1	1.237000
16.766667	1	1.238750
16.783333	1	1.239750
16.800000	1	1.241250
16.816667	1	1.243250
16.833333	1	1.245250
16.850000	1	1.247625
16.866667	1	1.251500
16.883333	1	1.255125
16.900000	1	1.258250
16.916667	1	1.261250
16.933333	1	1.264625
16.950000	1	1.266500
16.966667	1	1.267250
16.983333	1	1.267500
17.000000	1	1.266375
17.016667	1	1.264750
17.033333	1	1.261375
17.050000	1	1.257125
17.066667	1	1.252000
17.083333	1	1.246375
17.100000	1	1.241000
17.116667	1	1.235250
17.133333	1	1.229125
17.150000	1	1.224375
17.166667	1	1.219750
17.183333	1	1.216625
17.200000	1	1.213250
17.216667	1	1.211000
17.233333	1	1.208875
17.250000	1	1.208000
17.266667	1	1.208375
17.283333	1	1.208750
17.300000	1	1.209250
17.316667	1	1.210250
17.333333	1	1.211000
17.350000	1	1.213250
17.366667	1	1.215250
17.383333	1	1.218000
17.400000	1	1.219875
17.416667	1	1.221875
17.433333	1	1.223125
17.450000	1	1.224250
17.466667	1	1.224875
17.483333	1	1.223750
17.500000	1	1.222750
17.516667	1	1.220000
17.533333	1	1.215750
17.550000	1	1.209625
17.566667	1	1.202375
17.583333	1	1.193750
17.600000	1	1.183375
17.616667	1	1.171750
17.633333	1	1.159500
17.650000	1	1.145875
17.666667	1	1.131875
17.683333	1	1.116625
17.700000	1	1.100875
17.716667	1	1.085250
17.733333	1	1.069875
17.750000	1	1.054000
17.766667	1	1.038750
17.783333	1	1.024875
17.800000	1	1.010625
17.816667	1	0.997875
17.833333	1	0.985375
17.850000	1	0.973375
17.866667	1	0.962125
17.883333	1	0.952250
17.900000	1	0.942625
17.916667	1	0.934375
17.933333	1	0.925500
17.950000	1	0.917750
17.966667	1	0.910625
17.983333	1	0.904625
18.000000	1	0.898000
18.016667	1	0.891750
18.033333	1	0.885625
18.050000	1	0.879500
18.066667	1	0.872750
18.083333	1	0.865875
18.100000	1	0.859750
18.116667	1	0.853750
18.133333	1	0.847250
18.150000	1	0.840750
18.166667	1	0.835250
18.183333	1	0.829625
18.200000	1	0.824500
18.216667	1	0.819625
18.233333	1	0.815625
18.250000	1	0.812000
18.266667	1	0.809000
18.283333	1	0.806750
18.300000	1	0.805125
18.316667	1	0.804500
18.333333	1	0.803875
18.350000	1	0.803500
18.366667	1	0.804000
18.383333	1	0.805500
18.400000	1	0.807125
18.416667	1	0.809500
18.433333	1	0.813000
18.450000	1	0.816750
18.466667	1	0.821000
18.483333	1	0.826375
18.500000	1	0.833750
18.516667	1	0.842125
18.533333	1	0.852250
18.550000	1	0.864375
18.566667	1	0.877750
18.583333	1	0.894750
18.600000	1	0.912250
18.616667	1	0.932375
18.633333	1	0.954750
18.650000	1	0.979375
18.666667	1	1.005625
18.683333	1	1.033625
18.700000	1	1.063375
18.716667	1	1.094750
18.733333	1	1.128000
18.750000	1	1.162250
18.766667	1	1.197125
18.783333	1	1.232375
18.800000	1	1.267500
18.816667	1	1.302625
18.833333	1	1.336875
18.850000	1	1.369500
18.866667	1	1.399250
18.883333	1	1.425375
18.900000	1	1.448500
18.916667	1	1.467125
18.933333	1	1.480875
18.950000	1	1.488125
18.966667	1	1.489875
18.983333	1	1.485250
19.000000	1	1.474250
19.016667	1	1.455750
19.033333	1	1.431375
19.050000	1	1.400625
19.066667	1	1.365125
19.083333	1	1.325625
19.100000	1	1.282125
19.116667	1	1.237375
19.133333	1	1.191875
19.150000	1	1.147125
19.166667	1	1.105375
19.183333	1	1.067125
19.200000	1	1.033875
19.216667	1	1.007125
19.233333	1	0.987250
19.250000	1	0.977125
19.266667	1	0.977625
19.283333	1	0.989500
19.300000	1	1.014500
19.316667	1	1.052375
19.333333	1	1.104875
19.350000	1	1.172500
19.366667	1	1.256000
19.383333	1	1.356250
19.400000	1	1.472875
19.416667	1	1.604500
19.433333	1	1.750625
19.450000	1	1.909250
19.466667	1	2.077125
19.483333	1	2.251875
19.500000	1	2.428125
19.516667	1	2.602875
19.533333	1	2.771500
19.550000	1	2.928250
19.566667	1	3.069500
19.583333	1	3.190375
19.600000	1	3.286250
19.616667	1	3.355250
19.633333	1	3.393625
19.650000	1	3.400625
19.666667	1	3.376875
19.683333	1	3.324000
19.700000	1	3.244500
19.716667	1	3.140500
19.733333	1	3.016625
19.750000	1	2.877000
19.766667	1	2.725000
19.783333	1	2.565750
19.800000	1	2.402750
19.816667	1	2.240875
19.833333	1	2.081625
19.850000	1	1.928625
19.866667	1	1.782875
19.883333	1	1.646875
19.900000	1	1.521000
19.916667	1	1.404750
19.933333	1	1.300125
19.950000	1	1.205500
19.966667	1	1.120000
19.983333	1	1.043875
20.000000	1	0.976625
20.016667	1	0.917750
20.033333	1	0.866125
20.050000	1	0.822375
20.066667	1	0.784500
20.083333	1	0.753000
20.100000	1	0.727375
20.116667	1	0.706625
20.133333	1	0.691000
20.150000	1	0.680875
20.166667	1	0.674250
20.183333	1	0.671750
20.200000	1	0.672500
20.216667	1	0.675875
20.233333	1	0.682125
20.250000	1	0.690375
20.266667	1	0.699250
20.283333	1	0.708500
20.300000	1	0.717750
20.316667	1	0.726750
20.333333	1	0.735125
20.350000	1	0.741750
20.366667	1	0.745500
20.383333	1	0.747875
20.400000	1	0.748000
20.416667	1	0.745375
20.433333	1	0.740875
20.450000	1	0.733625
20.466667	1	0.725375
20.483333	1	0.716500
20.500000	1	0.706875
20.516667	1	0.698875
20.533333	1	0.692250
20.550000	1	0.688625
20.566667	1	0.688625
20.583333	1	0.692625
20.600000	1	0.701875
20.616667	1	0.717750
20.633333	1	0.740250
20.650000	1	0.769875
20.666667	1	0.807000
20.683333	1	0.851875
20.700000	1	0.904000
20.716667	1	0.962875
20.733333	1	1.028250
20.750000	1	1.099000
20.766667	1	1.172125
20.783333	1	1.247500
20.800000	1	1.322625
20.816667	1	1.395000
20.833333	1	1.462750
20.850000	1	1.522875
20.866667	1	1.574375
20.883333	1	1.615375
20.900000	1	1.643875
20.916667	1	1.658375
20.933333	1	1.659500
20.950000	1	1.646625
20.966667	1	1.620000
20.983333	1	1.580375
21.000000	1	1.530625
21.016667	1	1.472375
21.033333	1	1.407250
21.050000	1	1.336875
21.066667	1	1.263875
21.083333	1	1.189125
21.100000	1	1.115500
21.116667	1	1.044250
21.133333	1	0.976750
21.150000	1	0.913375
21.166667	1	0.854500
21.183333	1	0.800750
21.200000	1	0.752625
21.216667	1	0.710000
21.233333	1	0.672000
21.250000	1	0.639500
21.266667	1	0.610625
21.283333	1	0.585375
21.300000	1	0.564750
21.316667	1	0.546625
21.333333	1	0.531625
21.350000	1	0.518875
21.366667	1	0.508375
21.383333	1	0.499000
21.400000	1	0.491375
21.416667	1	0.484625
21.433333	1	0.478750
21.450000	1	0.474625
21.466667	1	0.470875
21.483333	1	0.467375
21.500000	1	0.464625
21.516667	1	0.461875
21.533333	1	0.460125
21.550000	1	0.458875
21.566667	1	0.458250
21.583333	1	0.457375
21.600000	1	0.456750
21.616667	1	0.456750
21.633333	1	0.458000
21.650000	1	0.459625
21.666667	1	0.462000
21.683333	1	0.465500
21.700000	1	0.469500
21.716667	1	0.473750
21.733333	1	0.480000
21.750000	1	0.486750
21.766667	1	0.493500
21.783333	1	0.501000
21.800000	1	0.509500
21.816667	1	0.518875
21.833333	1	0.528500
21.850000	1	0.538500
21.866667	1	0.550000
21.883333	1	0.561000
21.900000	1	0.572750
21.916667	1	0.584625
21.933333	1	0.595625
21.950000	1	0.606625
21.966667	1	0.616875
21.983333	1	0.626875
22.000000	1	0.636500
22.016667	1	0.645125
22.033333	1	0.652625
22.050000	1	0.659250
22.066667	1	0.664500
22.083333	1	0.669000
22.100000	1	0.672625
22.116667	1	0.674875
22.133333	1	0.675500
22.150000	1	0.674250
22.166667	1	0.672500
22.183333	1	0.668875
22.200000	1	0.664000
22.216667	1	0.657125
22.233333	1	0.649500
22.250000	1	0.640375
22.266667	1	0.630250
22.283333	1	0.618250
22.300000	1	0.605750
22.316667	1	0.592000
22.333333	1	0.577750
22.350000	1	0.562750
22.366667	1	0.546500
22.383333	1	0.530375
22.400000	1	0.515125
22.416667	1	0.498625
22.433333	1	0.482250
22.450000	1	0.466000
22.466667	1	0.451375
22.483333	1	0.436500
22.500000	1	0.422250
22.516667	1	0.408875
22.533333	1	0.396500
22.550000	1	0.385375
22.566667	1	0.375000
22.583333	1	0.365125
22.600000	1	0.355375
22.616667	1	0.347000
22.633333	1	0.339250
22.650000	1	0.332000
22.666667	1	0.326000
22.683333	1	0.320375
22.700000	1	0.315125
22.716667	1	0.311000
22.733333	1	0.306625
22.750000	1	0.303375
22.766667	1	0.300125
22.783333	1	0.296625
22.800000	1	0.293375
22.816667	1	0.290250
22.833333	1	0.288375
22.850000	1	0.286875
22.866667	1	0.285000
22.883333	1	0.283750
22.900000	1	0.283000
22.916667	1	0.282625
22.933333	1	0.282750
22.950000	1	0.282750
22.966667	1	0.283250
22.983333	1	0.284250
23.000000	1	0.286125
23.016667	1	0.287750
23.033333	1	0.289625
23.050000	1	0.292500
23.066667	1	0.295500
23.083333	1	0.298125
23.100000	1	0.302000
23.116667	1	0.305875
23.133333	1	0.309625
23.150000	1	0.313500
23.166667	1	0.318250
23.183333	1	0.322750
23.200000	1	0.327500
23.216667	1	0.332125
23.233333	1	0.336375
23.250000	1	0.342375
23.266667	1	0.348250
23.283333	1	0.356500
23.300000	1	0.365000
23.316667	1	0.375375
23.333333	1	0.387250
23.350000	1	0.401500
23.366667	1	0.418875
23.383333	1	0.440875
23.400000	1	0.467000
23.416667	1	0.499000
23.433333	1	0.537750
23.450000	1	0.583500
23.466667	1	0.638625
23.483333	1	0.704500
23.500000	1	0.782000
23.516667	1	0.872375
23.533333	1	0.976750
23.550000	1	1.098125
23.566667	1	1.235625
23.583333	1	1.391375
23.600000	1	1.566125
23.616667	1	1.760000
23.633333	1	1.972125
23.650000	1	2.202625
23.666667	1	2.450750
23.683333	1	2.714125
23.700000	1	2.990625
23.716667	1	3.276625
23.733333	1	3.568875
23.750000	1	3.861625
23.766667	1	4.150500
23.783333	1	4.430375
23.800000	1	4.694625
23.816667	1	4.936875
23.833333	1	5.152625
23.850000	1	5.336375
23.866667	1	5.484125
23.883333	1	5.592750
23.900000	1	5.659125
23.916667	1	5.681875
23.933333	1	5.660750
23.950000	1	5.596625
23.966667	1	5.491875
23.983333	1	5.349625
24.000000	1	5.173625
24.016667	1	4.968750
24.033333	1	4.740625
24.050000	1	4.494125
24.066667	1	4.234875
24.083333	1	3.968375
24.100000	1	3.698625
24.116667	1	3.429125
24.133333	1	3.165625
24.150000	1	2.911250
24.166667	1	2.667375
24.183333	1	2.435750
24.200000	1	2.219500
24.216667	1	2.019375
24.233333	1	1.835000
24.250000	1	1.666375
24.266667	1	1.513750
24.283333	1	1.376000
24.300000	1	1.253000
24.316667	1	1.142625
24.333333	1	1.044500
24.350000	1	0.958500
24.366667	1	0.883000
24.383333	1	0.817125
24.400000	1	0.760625
24.416667	1	0.711375
24.433333	1	0.669625
24.450000	1	0.633875
24.466667	1	0.604000
24.483333	1	0.578875
24.500000	1	0.557875
24.516667	1	0.539750
24.533333	1	0.524125
24.550000	1	0.511250
24.566667	1	0.500875
24.583333	1	0.492500
24.600000	1	0.484625
24.616667	1	0.478000
24.633333	1	0.472000
24.650000	1	0.466500
24.666667	1	0.461125
24.683333	1	0.456875
24.700000	1	0.451750
24.716667	1	0.447625
24.733333	1	0.443000
24.750000	1	0.438000
24.766667	1	0.433000
24.783333	1	0.428750
24.800000	1	0.424125
24.816667	1	0.419125
24.833333	1	0.414500
24.850000	1	0.410000
24.866667	1	0.406500
24.883333	1	0.403000
24.900000	1	0.398625
24.916667	1	0.394000
24.933333	1	0.390375
24.950000	1	0.387000
24.966667	1	0.383500
24.983333	1	0.380500
25.000000	1	0.377250
25.016667	1	0.374375
25.033333	1	0.371750
25.050000	1	0.368375
25.066667	1	0.366125
25.083333	1	0.363000
25.100000	1	0.360125
25.116667	1	0.358000
25.133333	1	0.355875
25.150000	1	0.352875
25.166667	1	0.349750
25.183333	1	0.346750
25.200000	1	0.343875
25.216667	1	0.341250
25.233333	1	0.338375
25.250000	1	0.335750
25.266667	1	0.333375
25.283333	1	0.330750
25.300000	1	0.328500
25.316667	1	0.326750
25.333333	1	0.323500
25.350000	1	0.321375
25.366667	1	0.318875
25.383333	1	0.316375
25.400000	1	0.314000
25.416667	1	0.311875
25.433333	1	0.309875
25.450000	1	0.308375
25.466667	1	0.307125
25.483333	1	0.306000
25.500000	1	0.304125
25.516667	1	0.303000
25.533333	1	0.302125
25.550000	1	0.301000
25.566667	1	0.300000
25.583333	1	0.299125
25.600000	1	0.298125
25.616667	1	0.297250
25.633333	1	0.296625
25.650000	1	0.296375
25.666667	1	0.296500
25.683333	1	0.295500
25.700000	1	0.295125
25.716667	1	0.294500
25.733333	1	0.294500
25.750000	1	0.294750
25.766667	1	0.293875
25.783333	1	0.293250
25.800000	1	0.293375
25.816667	1	0.293125
25.833333	1	0.294000
25.850000	1	0.295000
25.866667	1	0.295750
25.883333	1	0.297250
25.900000	1	0.298625
25.916667	1	0.300500
25.933333	1	0.302375
25.950000	1	0.304500
25.966667	1	0.308250
25.983333	1	0.311750
26.000000	1	0.315000
26.016667	1	0.319125
26.033333	1	0.323250
26.050000	1	0.327125
26.066667	1	0.331500
26.083333	1	0.336250
26.100000	1	0.341125
26.116667	1	0.346000
26.133333	1	0.349750
26.150000	1	0.354000
26.166667	1	0.358500
26.183333	1	0.362750
26.200000	1	0.366750
26.216667	1	0.369750
26.233333	1	0.372250
26.250000	1	0.374125
26.266667	1	0.375375
26.283333	1	0.377000
26.300000	1	0.377625
26.316667	1	0.377750
26.333333	1	0.376750
26.350000	1	0.375375
26.366667	1	0.373125
26.383333	1	0.370375
26.400000	1	0.366750
26.416667	1	0.362750
26.433333	1	0.359000
26.450000	1	0.354250
26.466667	1	0.349500
26.483333	1	0.344125
26.500000	1	0.338000
26.516667	1	0.331875
26.533333	1	0.325875
26.550000	1	0.320125
26.566667	1	0.313875
26.583333	1	0.307625
26.600000	1	0.300375
26.616667	1	0.294625
26.633333	1	0.288500
26.650000	1	0.282125
26.666667	1	0.277250
26.683333	1	0.271625
26.700000	1	0.265750
26.716667	1	0.260500
26.733333	1	0.255875
26.750000	1	0.251500
26.766667	1	0.247750
26.783333	1	0.243500
26.800000	1	0.239875
26.816667	1	0.236750
26.833333	1	0.234625
26.850000	1	0.232875
26.866667	1	0.230875
26.883333	1	0.229500
26.900000	1	0.228500
26.916667	1	0.228625
26.933333	1	0.228500
26.950000	1	0.228750
26.966667	1	0.230000
26.983333	1	0.230500
27.000000	1	0.232625
27.016667	1	0.235250
27.033333	1	0.238125
27.050000	1	0.241250
27.066667	1	0.245250
27.083333	1	0.250250
27.100000	1	0.256375
27.116667	1	0.263250
27.133333	1	0.270375
27.150000	1	0.279000
27.166667	1	0.289125
27.183333	1	0.300500
27.200000	1	0.313875
27.216667	1	0.329000
27.233333	1	0.346375
27.250000	1	0.366500
27.266667	1	0.389500
27.283333	1	0.416000
27.300000	1	0.446500
27.316667	1	0.480625
27.333333	1	0.519625
27.350000	1	0.564125
27.366667	1	0.614500
27.383333	1	0.670875
27.400000	1	0.734500
27.416667	1	0.805250
27.433333	1	0.884750
27.450000	1	0.972875
27.466667	1	1.070125
27.483333	1	1.176125
27.500000	1	1.293000
27.516667	1	1.419125
27.533333	1	1.555750
27.550000	1	1.701750
27.566667	1	1.857000
27.583333	1	2.020625
27.600000	1	2.191125
27.616667	1	2.367875
27.633333	1	2.549375
27.650000	1	2.734125
27.666667	1	2.920750
27.683333	1	3.106125
27.700000	1	3.287625
27.716667	1	3.464250
27.733333	1	3.631250
27.750000	1	3.787750
27.766667	1	3.929500
27.783333	1	4.054750
27.800000	1	4.161750
27.816667	1	4.248250
27.833333	1	4.312000
27.850000	1	4.352375
27.866667	1	4.366875
27.883333	1	4.356125
27.900000	1	4.319875
27.916667	1	4.258625
27.933333	1	4.173625
27.950000	1	4.066000
27.966667	1	3.938875
27.983333	1	3.793375
28.000000	1	3.632625
28.016667	1	3.459250
28.033333	1	3.276375
28.050000	1	3.087250
28.066667	1	2.893500
28.083333	1	2.698875
28.100000	1	2.505000
28.116667	1	2.316000
28.133333	1	2.132250
28.150000	1	1.957125
28.166667	1	1.790375
28.183333	1	1.634000
28.200000	1	1.488375
28.216667	1	1.354375
28.233333	1	1.231375
28.250000	1	1.119500
28.266667	1	1.018875
28.283333	1	0.928375
28.300000	1	0.847750
28.316667	1	0.777000
28.333333	1	0.715625
28.350000	1	0.662875
28.366667	1	0.618375
28.383333	1	0.581000
28.400000	1	0.549250
28.416667	1	0.524125
28.433333	1	0.503875
28.450000	1	0.488625
28.466667	1	0.477000
28.483333	1	0.469750
28.500000	1	0.465250
28.516667	1	0.464250
28.533333	1	0.465375
28.550000	1	0.468875
28.566667	1	0.474250
28.583333	1	0.481250
28.600000	1	0.489750
28.616667	1	0.498625
28.633333	1	0.508125
28.650000	1	0.519250
28.666667	1	0.530000
28.683333	1	0.540750
28.700000	1	0.551500
28.716667	1	0.561500
28.733333	1	0.571000
28.750000	1	0.580250
28.766667	1	0.588500
28.783333	1	0.596000
28.800000	1	0.602875
28.816667	1	0.608625
28.833333	1	0.613250
28.850000	1	0.616750
28.866667	1	0.618625
28.883333	1	0.619875
28.900000	1	0.619750
28.916667	1	0.618250
28.933333	1	0.615500
28.950000	1	0.610500
28.966667	1	0.605250
28.983333	1	0.597875
29.000000	1	0.590625
29.016667	1	0.582125
29.033333	1	0.572875
29.050000	1	0.561875
29.066667	1	0.550000
29.083333	1	0.537625
29.100000	1	0.524250
29.116667	1	0.510000
29.133333	1	0.495250
29.150000	1	0.480125
29.166667	1	0.464500
29.183333	1	0.449125
29.200000	1	0.433625
29.216667	1	0.417750
29.233333	1	0.402250
29.250000	1	0.386125
29.266667	1	0.370750
29.283333	1	0.355500
29.300000	1	0.340125
29.316667	1	0.325250
29.333333	1	0.310750
29.350000	1	0.297250
29.366667	1	0.284250
29.383333	1	0.271375
29.400000	1	0.259500
29.416667	1	0.248750
29.433333	1	0.238500
29.450000	1	0.229125
29.466667	1	0.220250
29.483333	1	0.212125
29.500000	1	0.204250
29.516667	1	0.197375
29.533333	1	0.190750
29.550000	1	0.184875
29.566667	1	0.179625
29.583333	1	0.175125
29.600000	1	0.171875
29.616667	1	0.169625
29.633333	1	0.167125
29.650000	1	0.165000
29.666667	1	0.163750
29.683333	1	0.162375
29.700000	1	0.160750
29.716667	1	0.160375
29.733333	1	0.159625
29.750000	1	0.160125
29.766667	1	0.160500
29.783333	1	0.160000
29.800000	1	0.159750
29.816667	1	0.160375
29.833333	1	0.160875
29.850000	1	0.162000
29.866667	1	0.162875
29.883333	1	0.162750
29.900000	1	0.163250
29.916667	1	0.163500
29.933333	1	0.165000
29.950000	1	0.165250
29.966667	1	0.165750
29.983333	1	0.166125
30.000000	1	0.166625
30.016667	1	0.166500
30.033333	1	0.166625
30.050000	1	0.166875
30.066667	1	0.167250
30.083333	1	0.167000
30.100000	1	0.166375
30.116667	1	0.166125
30.133333	1	0.166500
30.150000	1	0.166000
30.166667	1	0.164875
30.183333	1	0.165250
30.200000	1	0.165125
30.216667	1	0.164125
30.233333	1	0.163000
30.250000	1	0.163000
30.266667	1	0.163125
30.283333	1	0.162625
30.300000	1	0.162250
30.316667	1	0.161250
30.333333	1	0.160625
30.350000	1	0.160875
30.366667	1	0.160625
30.383333	1	0.160625
30.400000	1	0.161250
30.416667	1	0.162000
30.433333	1	0.162375
30.450000	1	0.163125
30.466667	1	0.164375
30.483333	1	0.166000
30.500000	1	0.167500
30.516667	1	0.169125
30.533333	1	0.172125
30.550000	1	0.174875
30.566667	1	0.178000
30.583333	1	0.181625
30.600000	1	0.186750
30.616667	1	0.192000
30.633333	1	0.198375
30.650000	1	0.204875
30.666667	1	0.211500
30.683333	1	0.219125
30.700000	1	0.228750
30.716667	1	0.239000
30.733333	1	0.250000
30.750000	1	0.261875
30.766667	1	0.275000
30.783333	1	0.290500
30.800000	1	0.308500
30.816667	1	0.328250
30.833333	1	0.351250
30.850000	1	0.375625
30.866667	1	0.403625
30.883333	1	0.434375
30.900000	1	0.470000
30.916667	1	0.510500
30.933333	1	0.555500
30.950000	1	0.607000
30.966667	1	0.664875
30.983333	1	0.729750
31.000000	1	0.801500
31.016667	1	0.881750
31.033333	1	0.971875
31.050000	1	1.070625
31.066667	1	1.180250
31.083333	1	1.301375
31.100000	1	1.433500
31.116667	1	1.576875
31.133333	1	1.731375
31.150000	1	1.898750
31.166667	1	2.078500
31.183333	1	2.270125
31.200000	1	2.472625
31.216667	1	2.685625
31.233333	1	2.909000
31.250000	1	3.139500
31.266667	1	3.377000
31.283333	1	3.618375
31.300000	1	3.862375
31.316667	1	4.106625
31.333333	1	4.347125
31.350000	1	4.583125
31.366667	1	4.811750
31.383333	1	5.028500
31.400000	1	5.232500
31.416667	1	5.421000
31.433333	1	5.590500
31.450000	1	5.738625
31.466667	1	5.864125
31.483333	1	5.964750
31.500000	1	6.040125
31.516667	1	6.088125
31.533333	1	6.108625
31.550000	1	6.101625
31.566667	1	6.067250
31.583333	1	6.006125
31.600000	1	5.919250
31.616667	1	5.808125
31.633333	1	5.674625
31.650000	1	5.520625
31.666667	1	5.348000
31.683333	1	5.159750
31.700000	1	4.957750
31.716667	1	4.746000
31.733333	1	4.526000
31.750000	1	4.301000
31.766667	1	4.072625
31.783333	1	3.842375
31.800000	1	3.613500
31.816667	1	3.386750
31.833333	1	3.164375
31.850000	1	2.949125
31.866667	1	2.740750
31.883333	1	2.540125
31.900000	1	2.348750
31.916667	1	2.167375
31.933333	1	1.996375
31.950000	1	1.835750
31.966667	1	1.685625
31.983333	1	1.545625
32.000000	1	1.414375
32.016667	1	1.293375
32.033333	1	1.181750
32.050000	1	1.079750
32.066667	1	0.986250
32.083333	1	0.900500
32.100000	1	0.823000
32.116667	1	0.752750
32.133333	1	0.688625
32.150000	1	0.630500
32.166667	1	0.578375
32.183333	1	0.530875
32.200000	1	0.487500
32.216667	1	0.448250
32.233333	1	0.413375
32.250000	1	0.381625
32.266667	1	0.352500
32.283333	1	0.327500
32.300000	1	0.304750
32.316667	1	0.283375
32.333333	1	0.264375
32.350000	1	0.247250
32.366667	1	0.231875
32.383333	1	0.217375
32.400000	1	0.204875
32.416667	1	0.193875
32.433333	1	0.183250
32.450000	1	0.172875
32.466667	1	0.163500
32.483333	1	0.155000
32.500000	1	0.147250
32.516667	1	0.140375
32.533333	1	0.133750
32.550000	1	0.128500
32.566667	1	0.122875
32.583333	1	0.117625
32.600000	1	0.113375
32.616667	1	0.109250
32.633333	1	0.105125
32.650000	1	0.100625
32.666667	1	0.097625
32.683333	1	0.094125
32.700000	1	0.090875
32.716667	1	0.087750
32.733333	1	0.085250
32.750000	1	0.083125
32.766667	1	0.080875
32.783333	1	0.078750
32.800000	1	0.076750
32.816667	1	0.074875
32.833333	1	0.073000
32.850000	1	0.070875
32.866667	1	0.069500
32.883333	1	0.068500
32.900000	1	0.067375
32.916667	1	0.066375
32.933333	1	0.064750
32.950000	1	0.063875
32.966667	1	0.063375
32.983333	1	0.063375
33.000000	1	0.062875
33.016667	1	0.062125
33.033333	1	0.062000
33.050000	1	0.061000
33.066667	1	0.060500
33.083333	1	0.060250
33.100000	1	0.060125
33.116667	1	0.060125
33.133333	1	0.060625
33.150000	1	0.061250
33.166667	1	0.061500
33.183333	1	0.061875
33.200000	1	0.061500
33.216667	1	0.061500
33.233333	1	0.062000
33.250000	1	0.062125
33.266667	1	0.062250
33.283333	1	0.063000
33.300000	1	0.063875
33.316667	1	0.064125
33.333333	1	0.065000
33.350000	1	0.066125
33.366667	1	0.067625
33.383333	1	0.067875
33.400000	1	0.069125
33.416667	1	0.070500
33.433333	1	0.071250
33.450000	1	0.072500
33.466667	1	0.074000
33.483333	1	0.075250
33.500000	1	0.076625
33.516667	1	0.078000
33.533333	1	0.079750
33.550000	1	0.081750
33.566667	1	0.083875
33.583333	1	0.086000
33.600000	1	0.087750
33.616667	1	0.089875
33.633333	1	0.092250
33.650000	1	0.094500
33.666667	1	0.097375
33.683333	1	0.100375
33.700000	1	0.103250
33.716667	1	0.106000
33.733333	1	0.109000
33.750000	1	0.112125
33.766667	1	0.114750
33.783333	1	0.117625
33.800000	1	0.120250
33.816667	1	0.123500
33.833333	1	0.125875
33.850000	1	0.128125
33.866667	1	0.130250
33.883333	1	0.133125
33.900000	1	0.135625
33.916667	1	0.137875
33.933333	1	0.139875
33.950000	1	0.141000
33.966667	1	0.142500
33.983333	1	0.144375
34.000000	1	0.145875
34.016667	1	0.146375
34.033333	1	0.147875
34.050000	1	0.148000
34.066667	1	0.148875
34.083333	1	0.149000
34.100000	1	0.149250
34.116667	1	0.149875
34.133333	1	0.150125
34.150000	1	0.150250
34.166667	1	0.150250
34.183333	1	0.149750
34.200000	1	0.149875
34.216667	1	0.149750
34.233333	1	0.149500
34.250000	1	0.149625
34.266667	1	0.150500
34.283333	1	0.150250
34.300000	1	0.150750
34.316667	1	0.150750
34.333333	1	0.152125
34.350000	1	0.152625
34.366667	1	0.153375
34.383333	1	0.154375
34.400000	1	0.155250
34.416667	1	0.157000
34.433333	1	0.157625
34.450000	1	0.159000
34.466667	1	0.159375
34.483333	1	0.159750
34.500000	1	0.160250
34.516667	1	0.161000
34.533333	1	0.161875
34.550000	1	0.163500
34.566667	1	0.164000
34.583333	1	0.164625
34.600000	1	0.165500
34.616667	1	0.165375
34.633333	1	0.165625
34.650000	1	0.165625
34.666667	1	0.165625
34.683333	1	0.165750
34.700000	1	0.166125
34.716667	1	0.166250
34.733333	1	0.166125
34.750000	1	0.166250
34.766667	1	0.165375
34.783333	1	0.164875
34.800000	1	0.164750
34.816667	1	0.164375
34.833333	1	0.163875
34.850000	1	0.162750
34.866667	1	0.161875
34.883333	1	0.161250
34.900000	1	0.160625
34.916667	1	0.160250
34.933333	1	0.159125
34.950000	1	0.158625
34.966667	1	0.157625
34.983333	1	0.157250
35.000000	1	0.156875
35.016667	1	0.155750
35.033333	1	0.154750
35.050000	1	0.153875
35.066667	1	0.153625
35.083333	1	0.153500
35.100000	1	0.152750
35.116667	1	0.152625
35.133333	1	0.152625
35.150000	1	0.151875
35.166667	1	0.151000
35.183333	1	0.151000
35.200000	1	0.150250
35.216667	1	0.150375
35.233333	1	0.149875
35.250000	1	0.149375
35.266667	1	0.149500
35.283333	1	0.149500
35.300000	1	0.149250
35.316667	1	0.150000
35.333333	1	0.150000
35.350000	1	0.150000
35.366667	1	0.150625
35.383333	1	0.152000
35.400000	1	0.152000
35.416667	1	0.152125
35.433333	1	0.152625
35.450000	1	0.152875
35.466667	1	0.153250
35.483333	1	0.154250
35.500000	1	0.155125
35.516667	1	0.157000
35.533333	1	0.157625
35.550000	1	0.158125
35.566667	1	0.159000
35.583333	1	0.159500
35.600000	1	0.160000
35.616667	1	0.160375
35.633333	1	0.161625
35.650000	1	0.162750
35.666667	1	0.163125
35.683333	1	0.163625
35.700000	1	0.164625
35.716667	1	0.165250
35.733333	1	0.165750
35.750000	1	0.166375
35.766667	1	0.166625
35.783333	1	0.166250
35.800000	1	0.166500
35.816667	1	0.166625
35.833333	1	0.166500
35.850000	1	0.167250
35.866667	1	0.166875
35.883333	1	0.167375
35.900000	1	0.167375
35.916667	1	0.168000
35.933333	1	0.168250
35.950000	1	0.168500
35.966667	1	0.169000
35.983333	1	0.168875
36.000000	1	0.168250
36.016667	1	0.168750
36.033333	1	0.169125
36.050000	1	0.169750
36.066667	1	0.170250
36.083333	1	0.170625
36.100000	1	0.170875
36.116667	1	0.170875
36.133333	1	0.171125
36.150000	1	0.171250
36.166667	1	0.171750
36.183333	1	0.172000
36.200000	1	0.172125
36.216667	1	0.172250
36.233333	1	0.172500
36.250000	1	0.172750
36.266667	1	0.173000
36.283333	1	0.172750
36.300000	1	0.173000
36.316667	1	0.172750
36.333333	1	0.172375
36.350000	1	0.171375
36.366667	1	0.170875
36.383333	1	0.169750
36.400000	1	0.168250
36.416667	1	0.167250
36.433333	1	0.165500
36.450000	1	0.164250
36.466667	1	0.162375
36.483333	1	0.160625
36.500000	1	0.158250
36.516667	1	0.156375
36.533333	1	0.154000
36.550000	1	0.151750
36.566667	1	0.149500
36.583333	1	0.146375
36.600000	1	0.143500
36.616667	1	0.140375
36.633333	1	0.138250
36.650000	1	0.135125
36.666667	1	0.132625
36.683333	1	0.129875
36.700000	1	0.126875
36.716667	1	0.124250
36.733333	1	0.121500
36.750000	1	0.119125
36.766667	1	0.117125
36.783333	1	0.114375
36.800000	1	0.111750
36.816667	1	0.109250
36.833333	1	0.107375
36.850000	1	0.104625
36.866667	1	0.102875
36.883333	1	0.100750
36.900000	1	0.099250
36.916667	1	0.097750
36.933333	1	0.096250
36.950000	1	0.095125
36.966667	1	0.094125
36.983333	1	0.093000
37.000000	1	0.092125
37.016667	1	0.090000
37.033333	1	0.089000
37.050000	1	0.088500
37.066667	1	0.087875
37.083333	1	0.087625
37.100000	1	0.087500
37.116667	1	0.086875
37.133333	1	0.086375
37.150000	1	0.085875
37.166667	1	0.085750
37.183333	1	0.085500
37.200000	1	0.084750
37.216667	1	0.084625
37.233333	1	0.084750
37.250000	1	0.085375
37.266667	1	0.086000
37.283333	1	0.086000
37.300000	1	0.086625
37.316667	1	0.086375
37.333333	1	0.086750
37.350000	1	0.087250
37.366667	1	0.087750
37.383333	1	0.088375
37.400000	1	0.089250
37.416667	1	0.089500
37.433333	1	0.090125
37.450000	1	0.090625
37.466667	1	0.091375
37.483333	1	0.091875
37.500000	1	0.092375
37.516667	1	0.093000
37.533333	1	0.093000
37.550000	1	0.093750
37.566667	1	0.094375
37.583333	1	0.095250
37.600000	1	0.095875
37.616667	1	0.096500
37.633333	1	0.096625
37.650000	1	0.097000
37.666667	1	0.097250
37.683333	1	0.097375
37.700000	1	0.097750
37.716667	1	0.098625
37.733333	1	0.098625
37.750000	1	0.098250
37.766667	1	0.097875
37.783333	1	0.097250
37.800000	1	0.096750
37.816667	1	0.096500
37.833333	1	0.095750
37.850000	1	0.094750
37.866667	1	0.093625
37.883333	1	0.092750
37.900000	1	0.091750
37.916667	1	0.091500
37.933333	1	0.091000
37.950000	1	0.089750
37.966667	1	0.088125
37.983333	1	0.087250
38.000000	1	0.085875
38.016667	1	0.084875
38.033333	1	0.083375
38.050000	1	0.082250
38.066667	1	0.081375
38.083333	1	0.080625
38.100000	1	0.079250
38.116667	1	0.078250
38.133333	1	0.077000
38.150000	1	0.075875
38.166667	1	0.074750
38.183333	1	0.074000
38.200000	1	0.073375
38.216667	1	0.072500
38.233333	1	0.071625
38.250000	1	0.071125
38.266667	1	0.070750
38.283333	1	0.070000
38.300000	1	0.069625
38.316667	1	0.069875
38.333333	1	0.070250
38.350000	1	0.070625
38.366667	1	0.070375
38.383333	1	0.069875
38.400000	1	0.069750
38.416667	1	0.070125
38.433333	1	0.070750
38.450000	1	0.070625
38.466667	1	0.071250
38.483333	1	0.072250
38.500000	1	0.072625
38.516667	1	0.073625
38.533333	1	0.074500
38.550000	1	0.075000
38.566667	1	0.075750
38.583333	1	0.076375
38.600000	1	0.076750
38.616667	1	0.077000
38.633333	1	0.077875
38.650000	1	0.078375
38.666667	1	0.078750
38.683333	1	0.079875
38.700000	1	0.080875
38.716667	1	0.081750
38.733333	1	0.081500
38.750000	1	0.081625
38.766667	1	0.081875
38.783333	1	0.081875
38.800000	1	0.081250
38.816667	1	0.080500
38.833333	1	0.080125
38.850000	1	0.080125
38.866667	1	0.079625
38.883333	1	0.079750
38.900000	1	0.079875
38.916667	1	0.079000
38.933333	1	0.078625
38.950000	1	0.077500
38.966667	1	0.076625
38.983333	1	0.076875
39.000000	1	0.075375
39.016667	1	0.074625
39.033333	1	0.074000
39.050000	1	0.072625
39.066667	1	0.072000
39.083333	1	0.071125
39.100000	1	0.070375
39.116667	1	0.069750
39.133333	1	0.070125
39.150000	1	0.069625
39.166667	1	0.068500
39.183333	1	0.067875
39.200000	1	0.067000
39.216667	1	0.066500
39.233333	1	0.065750
39.250000	1	0.066000
39.266667	1	0.065000
39.283333	1	0.065250
39.300000	1	0.064875
39.316667	1	0.063875
39.333333	1	0.063125
39.350000	1	0.062500
39.366667	1	0.062375
39.383333	1	0.061375
39.400000	1	0.060625
39.416667	1	0.060375
39.433333	1	0.060250
39.450000	1	0.060000
39.466667	1	0.059375
39.483333	1	0.059000
39.500000	1	0.058125
39.516667	1	0.057500
39.533333	1	0.057375
39.550000	1	0.057125
39.566667	1	0.056625
39.583333	1	0.056250
39.600000	1	0.055500
39.616667	1	0.055125
39.633333	1	0.054625
39.650000	1	0.054750
39.666667	1	0.054875
39.683333	1	0.055500
39.700000	1	0.055625
39.716667	1	0.055750
39.733333	1	0.056375
39.750000	1	0.056500
39.766667	1	0.056125
39.783333	1	0.056625
39.800000	1	0.057125
39.816667	1	0.057875
39.833333	1	0.058250
39.850000	1	0.058875
39.866667	1	0.060125
39.883333	1	0.060250
39.900000	1	0.060625
39.916667	1	0.061250
39.933333	1	0.061875
39.950000	1	0.062750
39.966667	1	0.063125
39.983333	1	0.063750
40.000000	1	0.064000
