URL	chrom://bioreactor/micro_cm7/HPLC_Ultimate_3000/Users/markusar/20240708_MA_pHrange1.seq/717.smp/RI_1.channel/RI_1.chm
Channel	RI_1

Injection Information:
Data Vault	micro_cm7
Sequence	20240708_MA_pHrange1
Name	Pv2_20H_3
Number	39
Position	BD3
Comment	
Processing Method	
Instrument Method	run_25B_method
Type	Unknown
Status	Finished
Inject Time	09.07.2024 17:31:28 +02:00
Volume (µl)	20.0000
Dilution Factor	1.0000
Weight	1.0000

Chromatogram Data Information:
Time Min. (min)	0.000000
Time Max. (min)	40.000000
Data Points	2401
Detector	RI
Generating Data System	Chromeleon 7.3.2.11814
Exporting Data System	Chromeleon 7.3.2.0
Operator	Instrument Controller
Signal Quantity	Refractive 
Signal Unit	µRIU
Signal Min.	-0.070125
Signal Max.	83.502875
Channel	RI_1
Driver Name	RID520Driver.dll
Channel Type	Evaluation
Min. Step (s)	1
Max. Step (s)	1
Average Step (s)	1

Signal Parameter Information:
Signal Info	

Chromatogram Data:
Time (min)	Step (s)	Value (µRIU)
0.000000	n.a.	-0.001625
0.016667	1	-0.001000
0.033333	1	-0.000625
0.050000	1	0.000875
0.066667	1	0.001750
0.083333	1	0.003375
0.100000	1	0.004875
0.116667	1	0.006125
0.133333	1	0.008000
0.150000	1	0.010125
0.166667	1	0.012750
0.183333	1	0.014375
0.200000	1	0.016750
0.216667	1	0.018875
0.233333	1	0.021250
0.250000	1	0.023125
0.266667	1	0.025250
0.283333	1	0.027125
0.300000	1	0.029250
0.316667	1	0.031125
0.333333	1	0.033125
0.350000	1	0.034500
0.366667	1	0.035750
0.383333	1	0.036125
0.400000	1	0.036500
0.416667	1	0.038250
0.433333	1	0.040250
0.450000	1	0.043000
0.466667	1	0.045875
0.483333	1	0.048000
0.500000	1	0.049500
0.516667	1	0.051250
0.533333	1	0.051250
0.550000	1	0.051250
0.566667	1	0.049875
0.583333	1	0.048000
0.600000	1	0.045375
0.616667	1	0.044000
0.633333	1	0.043125
0.650000	1	0.042250
0.666667	1	0.041750
0.683333	1	0.041250
0.700000	1	0.041500
0.716667	1	0.041500
0.733333	1	0.041375
0.750000	1	0.041125
0.766667	1	0.041500
0.783333	1	0.041250
0.800000	1	0.040625
0.816667	1	0.041250
0.833333	1	0.041750
0.850000	1	0.042000
0.866667	1	0.042125
0.883333	1	0.042500
0.900000	1	0.043250
0.916667	1	0.043250
0.933333	1	0.043375
0.950000	1	0.043625
0.966667	1	0.044500
0.983333	1	0.044625
1.000000	1	0.045000
1.016667	1	0.045250
1.033333	1	0.046250
1.050000	1	0.046375
1.066667	1	0.046875
1.083333	1	0.047500
1.100000	1	0.047750
1.116667	1	0.047750
1.133333	1	0.047500
1.150000	1	0.047875
1.166667	1	0.047750
1.183333	1	0.047375
1.200000	1	0.047500
1.216667	1	0.047500
1.233333	1	0.046875
1.250000	1	0.046875
1.266667	1	0.045875
1.283333	1	0.045750
1.300000	1	0.045500
1.316667	1	0.045250
1.333333	1	0.044750
1.350000	1	0.044125
1.366667	1	0.043125
1.383333	1	0.042375
1.400000	1	0.041625
1.416667	1	0.040625
1.433333	1	0.040000
1.450000	1	0.039125
1.466667	1	0.038000
1.483333	1	0.037125
1.500000	1	0.036000
1.516667	1	0.035125
1.533333	1	0.033750
1.550000	1	0.032875
1.566667	1	0.031625
1.583333	1	0.030375
1.600000	1	0.029375
1.616667	1	0.027875
1.633333	1	0.026750
1.650000	1	0.025375
1.666667	1	0.024250
1.683333	1	0.023250
1.700000	1	0.022125
1.716667	1	0.021250
1.733333	1	0.020375
1.750000	1	0.019625
1.766667	1	0.019250
1.783333	1	0.019000
1.800000	1	0.018750
1.816667	1	0.018375
1.833333	1	0.019250
1.850000	1	0.019125
1.866667	1	0.019250
1.883333	1	0.019250
1.900000	1	0.019750
1.916667	1	0.020250
1.933333	1	0.021625
1.950000	1	0.022125
1.966667	1	0.022875
1.983333	1	0.024125
2.000000	1	0.024250
2.016667	1	0.025875
2.033333	1	0.027000
2.050000	1	0.028375
2.066667	1	0.028875
2.083333	1	0.029375
2.100000	1	0.031000
2.116667	1	0.032125
2.133333	1	0.032625
2.150000	1	0.033000
2.166667	1	0.033125
2.183333	1	0.033875
2.200000	1	0.035125
2.216667	1	0.035875
2.233333	1	0.036875
2.250000	1	0.037625
2.266667	1	0.037750
2.283333	1	0.037750
2.300000	1	0.037000
2.316667	1	0.036750
2.333333	1	0.037375
2.350000	1	0.037875
2.366667	1	0.038000
2.383333	1	0.037625
2.400000	1	0.038125
2.416667	1	0.037750
2.433333	1	0.038000
2.450000	1	0.038750
2.466667	1	0.038625
2.483333	1	0.038375
2.500000	1	0.038250
2.516667	1	0.037375
2.533333	1	0.035875
2.550000	1	0.035750
2.566667	1	0.035875
2.583333	1	0.036250
2.600000	1	0.036500
2.616667	1	0.036500
2.633333	1	0.036375
2.650000	1	0.036750
2.666667	1	0.036500
2.683333	1	0.035375
2.700000	1	0.034750
2.716667	1	0.034625
2.733333	1	0.034625
2.750000	1	0.035125
2.766667	1	0.035000
2.783333	1	0.035000
2.800000	1	0.034375
2.816667	1	0.033875
2.833333	1	0.034125
2.850000	1	0.034375
2.866667	1	0.034750
2.883333	1	0.034375
2.900000	1	0.034375
2.916667	1	0.033875
2.933333	1	0.032875
2.950000	1	0.032875
2.966667	1	0.032750
2.983333	1	0.032375
3.000000	1	0.031375
3.016667	1	0.030750
3.033333	1	0.030875
3.050000	1	0.030500
3.066667	1	0.029125
3.083333	1	0.027875
3.100000	1	0.026875
3.116667	1	0.026125
3.133333	1	0.024875
3.150000	1	0.024000
3.166667	1	0.023375
3.183333	1	0.022750
3.200000	1	0.022250
3.216667	1	0.022000
3.233333	1	0.021500
3.250000	1	0.021500
3.266667	1	0.020750
3.283333	1	0.020375
3.300000	1	0.020125
3.316667	1	0.020750
3.333333	1	0.021000
3.350000	1	0.020750
3.366667	1	0.020625
3.383333	1	0.021250
3.400000	1	0.021375
3.416667	1	0.021625
3.433333	1	0.022750
3.450000	1	0.023750
3.466667	1	0.024750
3.483333	1	0.025375
3.500000	1	0.026875
3.516667	1	0.028375
3.533333	1	0.029125
3.550000	1	0.030875
3.566667	1	0.031500
3.583333	1	0.033125
3.600000	1	0.034625
3.616667	1	0.036000
3.633333	1	0.037750
3.650000	1	0.038500
3.666667	1	0.039625
3.683333	1	0.040750
3.700000	1	0.041500
3.716667	1	0.041875
3.733333	1	0.042625
3.750000	1	0.043000
3.766667	1	0.043375
3.783333	1	0.043750
3.800000	1	0.044000
3.816667	1	0.044375
3.833333	1	0.044250
3.850000	1	0.044000
3.866667	1	0.043250
3.883333	1	0.043000
3.900000	1	0.043125
3.916667	1	0.043125
3.933333	1	0.043250
3.950000	1	0.043625
3.966667	1	0.043375
3.983333	1	0.043250
4.000000	1	0.042625
4.016667	1	0.042250
4.033333	1	0.042750
4.050000	1	0.043000
4.066667	1	0.043000
4.083333	1	0.043375
4.100000	1	0.043875
4.116667	1	0.044375
4.133333	1	0.044500
4.150000	1	0.045125
4.166667	1	0.046375
4.183333	1	0.048000
4.200000	1	0.049625
4.216667	1	0.051500
4.233333	1	0.054000
4.250000	1	0.055875
4.266667	1	0.057625
4.283333	1	0.059375
4.300000	1	0.061875
4.316667	1	0.064125
4.333333	1	0.065625
4.350000	1	0.068375
4.366667	1	0.071375
4.383333	1	0.074500
4.400000	1	0.077875
4.416667	1	0.081125
4.433333	1	0.084375
4.450000	1	0.087875
4.466667	1	0.091125
4.483333	1	0.094000
4.500000	1	0.096000
4.516667	1	0.098875
4.533333	1	0.101875
4.550000	1	0.104000
4.566667	1	0.107500
4.583333	1	0.110875
4.600000	1	0.113625
4.616667	1	0.116875
4.633333	1	0.119875
4.650000	1	0.122625
4.666667	1	0.125500
4.683333	1	0.128000
4.700000	1	0.130125
4.716667	1	0.132625
4.733333	1	0.134500
4.750000	1	0.136000
4.766667	1	0.138250
4.783333	1	0.140250
4.800000	1	0.142125
4.816667	1	0.144000
4.833333	1	0.145750
4.850000	1	0.148250
4.866667	1	0.150625
4.883333	1	0.153375
4.900000	1	0.156000
4.916667	1	0.158250
4.933333	1	0.160625
4.950000	1	0.162250
4.966667	1	0.165875
4.983333	1	0.169750
5.000000	1	0.173250
5.016667	1	0.176500
5.033333	1	0.179375
5.050000	1	0.182750
5.066667	1	0.186500
5.083333	1	0.190000
5.100000	1	0.193500
5.116667	1	0.198375
5.133333	1	0.202625
5.150000	1	0.207000
5.166667	1	0.211500
5.183333	1	0.216375
5.200000	1	0.220750
5.216667	1	0.225875
5.233333	1	0.231500
5.250000	1	0.236875
5.266667	1	0.241750
5.283333	1	0.246250
5.300000	1	0.250750
5.316667	1	0.255250
5.333333	1	0.259875
5.350000	1	0.264750
5.366667	1	0.268750
5.383333	1	0.273250
5.400000	1	0.276625
5.416667	1	0.280750
5.433333	1	0.284125
5.450000	1	0.286250
5.466667	1	0.289375
5.483333	1	0.292000
5.500000	1	0.294375
5.516667	1	0.295625
5.533333	1	0.296375
5.550000	1	0.297875
5.566667	1	0.298500
5.583333	1	0.298875
5.600000	1	0.298375
5.616667	1	0.298000
5.633333	1	0.297500
5.650000	1	0.296250
5.666667	1	0.294875
5.683333	1	0.293875
5.700000	1	0.292000
5.716667	1	0.290125
5.733333	1	0.288000
5.750000	1	0.285500
5.766667	1	0.283375
5.783333	1	0.281375
5.800000	1	0.279250
5.816667	1	0.276375
5.833333	1	0.273125
5.850000	1	0.269375
5.866667	1	0.266250
5.883333	1	0.263125
5.900000	1	0.260250
5.916667	1	0.257375
5.933333	1	0.254250
5.950000	1	0.251000
5.966667	1	0.248125
5.983333	1	0.244750
6.000000	1	0.241125
6.016667	1	0.237000
6.033333	1	0.233500
6.050000	1	0.229750
6.066667	1	0.225750
6.083333	1	0.222250
6.100000	1	0.217750
6.116667	1	0.214125
6.133333	1	0.210250
6.150000	1	0.206875
6.166667	1	0.202625
6.183333	1	0.198250
6.200000	1	0.194250
6.216667	1	0.189375
6.233333	1	0.184625
6.250000	1	0.179875
6.266667	1	0.175500
6.283333	1	0.170875
6.300000	1	0.166500
6.316667	1	0.161875
6.333333	1	0.157000
6.350000	1	0.151875
6.366667	1	0.147000
6.383333	1	0.141750
6.400000	1	0.137000
6.416667	1	0.132875
6.433333	1	0.128625
6.450000	1	0.123875
6.466667	1	0.119625
6.483333	1	0.115250
6.500000	1	0.110000
6.516667	1	0.106250
6.533333	1	0.102500
6.550000	1	0.098625
6.566667	1	0.095625
6.583333	1	0.091625
6.600000	1	0.088750
6.616667	1	0.085875
6.633333	1	0.083125
6.650000	1	0.081000
6.666667	1	0.079625
6.683333	1	0.077125
6.700000	1	0.075500
6.716667	1	0.074750
6.733333	1	0.073500
6.750000	1	0.073125
6.766667	1	0.073125
6.783333	1	0.072750
6.800000	1	0.072625
6.816667	1	0.073250
6.833333	1	0.073625
6.850000	1	0.074125
6.866667	1	0.075125
6.883333	1	0.076375
6.900000	1	0.078375
6.916667	1	0.080250
6.933333	1	0.081500
6.950000	1	0.083250
6.966667	1	0.085125
6.983333	1	0.087250
7.000000	1	0.089000
7.016667	1	0.091250
7.033333	1	0.094125
7.050000	1	0.095625
7.066667	1	0.097875
7.083333	1	0.099500
7.100000	1	0.102125
7.116667	1	0.104125
7.133333	1	0.106125
7.150000	1	0.107375
7.166667	1	0.110000
7.183333	1	0.112500
7.200000	1	0.115000
7.216667	1	0.117250
7.233333	1	0.118875
7.250000	1	0.120500
7.266667	1	0.122500
7.283333	1	0.123500
7.300000	1	0.125000
7.316667	1	0.126000
7.333333	1	0.128125
7.350000	1	0.128875
7.366667	1	0.130500
7.383333	1	0.132750
7.400000	1	0.134000
7.416667	1	0.135125
7.433333	1	0.136500
7.450000	1	0.137750
7.466667	1	0.138875
7.483333	1	0.140000
7.500000	1	0.139875
7.516667	1	0.140250
7.533333	1	0.140875
7.550000	1	0.141625
7.566667	1	0.142125
7.583333	1	0.142375
7.600000	1	0.142000
7.616667	1	0.141250
7.633333	1	0.140500
7.650000	1	0.138625
7.666667	1	0.137625
7.683333	1	0.136250
7.700000	1	0.135000
7.716667	1	0.133625
7.733333	1	0.132000
7.750000	1	0.130375
7.766667	1	0.128375
7.783333	1	0.126125
7.800000	1	0.123250
7.816667	1	0.120625
7.833333	1	0.117875
7.850000	1	0.115375
7.866667	1	0.113375
7.883333	1	0.110000
7.900000	1	0.106625
7.916667	1	0.103250
7.933333	1	0.100625
7.950000	1	0.096375
7.966667	1	0.093000
7.983333	1	0.089250
8.000000	1	0.085250
8.016667	1	0.081500
8.033333	1	0.077375
8.050000	1	0.073875
8.066667	1	0.069875
8.083333	1	0.066250
8.100000	1	0.061375
8.116667	1	0.057625
8.133333	1	0.054375
8.150000	1	0.050375
8.166667	1	0.046500
8.183333	1	0.042625
8.200000	1	0.038750
8.216667	1	0.034000
8.233333	1	0.030125
8.250000	1	0.026750
8.266667	1	0.022375
8.283333	1	0.018375
8.300000	1	0.014375
8.316667	1	0.011000
8.333333	1	0.007125
8.350000	1	0.002500
8.366667	1	-0.001875
8.383333	1	-0.005625
8.400000	1	-0.009375
8.416667	1	-0.013125
8.433333	1	-0.017125
8.450000	1	-0.021500
8.466667	1	-0.025125
8.483333	1	-0.028875
8.500000	1	-0.031375
8.516667	1	-0.033750
8.533333	1	-0.036375
8.550000	1	-0.037625
8.566667	1	-0.038625
8.583333	1	-0.039750
8.600000	1	-0.041125
8.616667	1	-0.042125
8.633333	1	-0.042375
8.650000	1	-0.042500
8.666667	1	-0.042375
8.683333	1	-0.042125
8.700000	1	-0.041500
8.716667	1	-0.040250
8.733333	1	-0.038500
8.750000	1	-0.036875
8.766667	1	-0.035500
8.783333	1	-0.033750
8.800000	1	-0.031875
8.816667	1	-0.029625
8.833333	1	-0.027875
8.850000	1	-0.025375
8.866667	1	-0.022875
8.883333	1	-0.020125
8.900000	1	-0.017875
8.916667	1	-0.015500
8.933333	1	-0.014125
8.950000	1	-0.011750
8.966667	1	-0.009750
8.983333	1	-0.007500
9.000000	1	-0.006375
9.016667	1	-0.004625
9.033333	1	-0.002625
9.050000	1	-0.001000
9.066667	1	0.000125
9.083333	1	0.001375
9.100000	1	0.002250
9.116667	1	0.002875
9.133333	1	0.003625
9.150000	1	0.004250
9.166667	1	0.004375
9.183333	1	0.004875
9.200000	1	0.005000
9.216667	1	0.005250
9.233333	1	0.005500
9.250000	1	0.005625
9.266667	1	0.005625
9.283333	1	0.005250
9.300000	1	0.004750
9.316667	1	0.004750
9.333333	1	0.004625
9.350000	1	0.004500
9.366667	1	0.004750
9.383333	1	0.003875
9.400000	1	0.003875
9.416667	1	0.003000
9.433333	1	0.003250
9.450000	1	0.003500
9.466667	1	0.003125
9.483333	1	0.002375
9.500000	1	0.001875
9.516667	1	0.002375
9.533333	1	0.002750
9.550000	1	0.003750
9.566667	1	0.003750
9.583333	1	0.003625
9.600000	1	0.003250
9.616667	1	0.004250
9.633333	1	0.005125
9.650000	1	0.005875
9.666667	1	0.006750
9.683333	1	0.007750
9.700000	1	0.009000
9.716667	1	0.010000
9.733333	1	0.010500
9.750000	1	0.011250
9.766667	1	0.011250
9.783333	1	0.011375
9.800000	1	0.011125
9.816667	1	0.011625
9.833333	1	0.011750
9.850000	1	0.012125
9.866667	1	0.012125
9.883333	1	0.012875
9.900000	1	0.012625
9.916667	1	0.013125
9.933333	1	0.013250
9.950000	1	0.012875
9.966667	1	0.013000
9.983333	1	0.014250
10.000000	1	0.014875
10.016667	1	0.015875
10.033333	1	0.017125
10.050000	1	0.020125
10.066667	1	0.023375
10.083333	1	0.028250
10.100000	1	0.033500
10.116667	1	0.038500
10.133333	1	0.045375
10.150000	1	0.052625
10.166667	1	0.060875
10.183333	1	0.070125
10.200000	1	0.080625
10.216667	1	0.091875
10.233333	1	0.104000
10.250000	1	0.117750
10.266667	1	0.133250
10.283333	1	0.150750
10.300000	1	0.168875
10.316667	1	0.189625
10.333333	1	0.211375
10.350000	1	0.233125
10.366667	1	0.252875
10.383333	1	0.268500
10.400000	1	0.275000
10.416667	1	0.268000
10.433333	1	0.241625
10.450000	1	0.194375
10.466667	1	0.125750
10.483333	1	0.044875
10.500000	1	-0.031750
10.516667	1	-0.070125
10.533333	1	-0.022125
10.550000	1	0.178375
10.566667	1	0.607000
10.583333	1	1.345750
10.600000	1	2.472750
10.616667	1	4.057500
10.633333	1	6.153500
10.650000	1	8.795250
10.666667	1	12.011375
10.683333	1	15.813875
10.700000	1	20.201750
10.716667	1	25.162125
10.733333	1	30.670250
10.750000	1	36.681375
10.766667	1	43.126500
10.783333	1	49.911375
10.800000	1	56.892500
10.816667	1	63.835625
10.833333	1	70.386250
10.850000	1	76.040250
10.866667	1	80.151125
10.883333	1	82.009000
10.900000	1	81.052500
10.916667	1	77.109375
10.933333	1	70.533625
10.950000	1	62.135625
10.966667	1	52.927125
10.983333	1	43.829125
11.000000	1	35.495875
11.016667	1	28.277500
11.033333	1	22.278500
11.050000	1	17.442125
11.066667	1	13.631750
11.083333	1	10.682000
11.100000	1	8.428500
11.116667	1	6.722125
11.133333	1	5.437500
11.150000	1	4.471500
11.166667	1	3.743750
11.183333	1	3.192000
11.200000	1	2.770500
11.216667	1	2.444000
11.233333	1	2.188875
11.250000	1	1.986625
11.266667	1	1.823500
11.283333	1	1.689750
11.300000	1	1.578250
11.316667	1	1.485750
11.333333	1	1.407375
11.350000	1	1.339750
11.366667	1	1.282875
11.383333	1	1.234125
11.400000	1	1.192625
11.416667	1	1.156250
11.433333	1	1.125250
11.450000	1	1.099000
11.466667	1	1.076750
11.483333	1	1.057875
11.500000	1	1.041625
11.516667	1	1.027500
11.533333	1	1.015750
11.550000	1	1.006500
11.566667	1	0.998625
11.583333	1	0.992000
11.600000	1	0.988250
11.616667	1	0.985125
11.633333	1	0.982625
11.650000	1	0.982000
11.666667	1	0.982375
11.683333	1	0.984750
11.700000	1	0.987500
11.716667	1	0.991875
11.733333	1	0.997500
11.750000	1	1.002625
11.766667	1	1.009625
11.783333	1	1.018000
11.800000	1	1.026875
11.816667	1	1.035375
11.833333	1	1.043875
11.850000	1	1.051875
11.866667	1	1.059625
11.883333	1	1.066375
11.900000	1	1.072000
11.916667	1	1.077125
11.933333	1	1.081250
11.950000	1	1.084125
11.966667	1	1.086375
11.983333	1	1.088125
12.000000	1	1.089875
12.016667	1	1.091125
12.033333	1	1.092500
12.050000	1	1.094500
12.066667	1	1.097000
12.083333	1	1.099625
12.100000	1	1.103125
12.116667	1	1.106625
12.133333	1	1.110250
12.150000	1	1.115000
12.166667	1	1.120000
12.183333	1	1.125625
12.200000	1	1.132250
12.216667	1	1.141000
12.233333	1	1.150625
12.250000	1	1.163000
12.266667	1	1.177000
12.283333	1	1.195000
12.300000	1	1.217250
12.316667	1	1.245875
12.333333	1	1.283000
12.350000	1	1.331125
12.366667	1	1.392375
12.383333	1	1.470875
12.400000	1	1.573000
12.416667	1	1.701500
12.433333	1	1.862750
12.450000	1	2.063875
12.466667	1	2.309875
12.483333	1	2.605250
12.500000	1	2.955750
12.516667	1	3.364750
12.533333	1	3.835000
12.550000	1	4.364500
12.566667	1	4.951750
12.583333	1	5.589250
12.600000	1	6.269125
12.616667	1	6.977500
12.633333	1	7.700750
12.650000	1	8.425125
12.666667	1	9.135250
12.683333	1	9.820000
12.700000	1	10.468250
12.716667	1	11.076375
12.733333	1	11.643375
12.750000	1	12.172875
12.766667	1	12.672625
12.783333	1	13.152375
12.800000	1	13.623250
12.816667	1	14.095750
12.833333	1	14.579500
12.850000	1	15.083000
12.866667	1	15.613875
12.883333	1	16.176000
12.900000	1	16.771500
12.916667	1	17.400750
12.933333	1	18.063000
12.950000	1	18.757125
12.966667	1	19.481250
12.983333	1	20.232875
13.000000	1	21.011125
13.016667	1	21.813500
13.033333	1	22.638500
13.050000	1	23.487750
13.066667	1	24.359000
13.083333	1	25.251375
13.100000	1	26.164750
13.116667	1	27.098125
13.133333	1	28.049875
13.150000	1	29.021000
13.166667	1	30.011375
13.183333	1	31.020625
13.200000	1	32.047625
13.216667	1	33.093125
13.233333	1	34.157625
13.250000	1	35.243875
13.266667	1	36.349750
13.283333	1	37.477000
13.300000	1	38.626625
13.316667	1	39.798125
13.333333	1	40.992250
13.350000	1	42.209750
13.366667	1	43.449375
13.383333	1	44.712875
13.400000	1	46.000125
13.416667	1	47.310750
13.433333	1	48.647500
13.450000	1	50.011750
13.466667	1	51.405000
13.483333	1	52.827250
13.500000	1	54.279375
13.516667	1	55.761875
13.533333	1	57.273000
13.550000	1	58.814250
13.566667	1	60.387000
13.583333	1	61.990750
13.600000	1	63.625375
13.616667	1	65.292375
13.633333	1	66.993875
13.650000	1	68.733375
13.666667	1	70.510625
13.683333	1	72.327500
13.700000	1	74.182125
13.716667	1	76.070750
13.733333	1	77.977625
13.750000	1	79.852500
13.766667	1	81.563875
13.783333	1	82.882875
13.800000	1	83.502875
13.816667	1	83.092875
13.833333	1	81.336000
13.850000	1	77.966125
13.866667	1	72.823250
13.883333	1	65.982500
13.900000	1	57.847125
13.916667	1	49.122250
13.933333	1	40.589625
13.950000	1	32.867750
13.966667	1	26.293375
13.983333	1	20.935500
14.000000	1	16.691125
14.016667	1	13.387875
14.033333	1	10.852250
14.050000	1	8.929875
14.066667	1	7.490250
14.083333	1	6.421875
14.100000	1	5.633875
14.116667	1	5.051125
14.133333	1	4.617875
14.150000	1	4.290750
14.166667	1	4.039250
14.183333	1	3.842125
14.200000	1	3.684125
14.216667	1	3.554250
14.233333	1	3.445250
14.250000	1	3.351750
14.266667	1	3.269250
14.283333	1	3.196000
14.300000	1	3.131750
14.316667	1	3.075250
14.333333	1	3.024250
14.350000	1	2.978500
14.366667	1	2.938500
14.383333	1	2.905875
14.400000	1	2.880375
14.416667	1	2.863250
14.433333	1	2.856250
14.450000	1	2.862875
14.466667	1	2.887500
14.483333	1	2.936625
14.500000	1	3.018125
14.516667	1	3.146875
14.533333	1	3.338750
14.550000	1	3.618000
14.566667	1	4.016750
14.583333	1	4.573125
14.600000	1	5.337500
14.616667	1	6.369875
14.633333	1	7.740250
14.650000	1	9.522875
14.666667	1	11.793750
14.683333	1	14.619375
14.700000	1	18.047750
14.716667	1	22.099125
14.733333	1	26.761625
14.750000	1	31.974750
14.766667	1	37.626750
14.783333	1	43.546000
14.800000	1	49.527875
14.816667	1	55.330375
14.833333	1	60.690875
14.850000	1	65.344250
14.866667	1	69.047125
14.883333	1	71.601875
14.900000	1	72.880375
14.916667	1	72.830625
14.933333	1	71.482500
14.950000	1	68.944125
14.966667	1	65.386375
14.983333	1	61.030875
15.000000	1	56.110125
15.016667	1	50.859375
15.033333	1	45.499375
15.050000	1	40.223125
15.066667	1	35.186000
15.083333	1	30.501250
15.100000	1	26.242875
15.116667	1	22.446750
15.133333	1	19.118000
15.150000	1	16.241375
15.166667	1	13.786375
15.183333	1	11.713000
15.200000	1	9.976500
15.216667	1	8.531875
15.233333	1	7.337250
15.250000	1	6.354625
15.266667	1	5.550000
15.283333	1	4.895375
15.300000	1	4.365500
15.316667	1	3.939375
15.333333	1	3.598250
15.350000	1	3.328875
15.366667	1	3.117875
15.383333	1	2.955500
15.400000	1	2.832750
15.416667	1	2.741750
15.433333	1	2.677125
15.450000	1	2.631250
15.466667	1	2.599000
15.483333	1	2.576625
15.500000	1	2.559250
15.516667	1	2.543000
15.533333	1	2.525625
15.550000	1	2.504750
15.566667	1	2.479625
15.583333	1	2.448500
15.600000	1	2.412750
15.616667	1	2.373750
15.633333	1	2.331750
15.650000	1	2.288750
15.666667	1	2.245000
15.683333	1	2.202375
15.700000	1	2.160625
15.716667	1	2.121375
15.733333	1	2.083750
15.750000	1	2.047625
15.766667	1	2.012625
15.783333	1	1.977875
15.800000	1	1.943875
15.816667	1	1.909500
15.833333	1	1.874375
15.850000	1	1.839625
15.866667	1	1.805000
15.883333	1	1.771000
15.900000	1	1.738875
15.916667	1	1.708750
15.933333	1	1.680750
15.950000	1	1.655875
15.966667	1	1.634500
15.983333	1	1.617125
16.000000	1	1.602875
16.016667	1	1.592000
16.033333	1	1.583750
16.050000	1	1.578875
16.066667	1	1.574125
16.083333	1	1.570125
16.100000	1	1.566625
16.116667	1	1.562750
16.133333	1	1.558500
16.150000	1	1.552125
16.166667	1	1.544125
16.183333	1	1.534000
16.200000	1	1.522500
16.216667	1	1.509500
16.233333	1	1.495000
16.250000	1	1.479500
16.266667	1	1.463750
16.283333	1	1.446000
16.300000	1	1.428500
16.316667	1	1.410250
16.333333	1	1.392250
16.350000	1	1.375250
16.366667	1	1.359000
16.383333	1	1.342875
16.400000	1	1.328000
16.416667	1	1.314250
16.433333	1	1.303000
16.450000	1	1.294375
16.466667	1	1.287625
16.483333	1	1.282375
16.500000	1	1.279875
16.516667	1	1.280625
16.533333	1	1.282500
16.550000	1	1.286375
16.566667	1	1.291750
16.583333	1	1.298125
16.600000	1	1.303875
16.616667	1	1.309250
16.633333	1	1.314250
16.650000	1	1.317875
16.666667	1	1.319625
16.683333	1	1.320625
16.700000	1	1.320250
16.716667	1	1.318500
16.733333	1	1.316375
16.750000	1	1.314500
16.766667	1	1.313000
16.783333	1	1.312500
16.800000	1	1.312625
16.816667	1	1.314125
16.833333	1	1.317375
16.850000	1	1.320625
16.866667	1	1.324375
16.883333	1	1.328000
16.900000	1	1.331625
16.916667	1	1.333875
16.933333	1	1.335375
16.950000	1	1.335625
16.966667	1	1.334875
16.983333	1	1.332500
17.000000	1	1.329625
17.016667	1	1.325000
17.033333	1	1.319250
17.050000	1	1.313875
17.066667	1	1.307500
17.083333	1	1.300750
17.100000	1	1.294750
17.116667	1	1.288875
17.133333	1	1.283750
17.150000	1	1.280125
17.166667	1	1.277875
17.183333	1	1.276750
17.200000	1	1.276125
17.216667	1	1.276250
17.233333	1	1.277250
17.250000	1	1.279375
17.266667	1	1.281375
17.283333	1	1.284750
17.300000	1	1.288500
17.316667	1	1.292375
17.333333	1	1.297125
17.350000	1	1.301500
17.366667	1	1.306875
17.383333	1	1.311875
17.400000	1	1.316125
17.416667	1	1.320500
17.433333	1	1.325000
17.450000	1	1.327500
17.466667	1	1.328750
17.483333	1	1.329250
17.500000	1	1.328500
17.516667	1	1.326125
17.533333	1	1.321125
17.550000	1	1.315125
17.566667	1	1.307875
17.583333	1	1.299000
17.600000	1	1.289250
17.616667	1	1.277875
17.633333	1	1.265125
17.650000	1	1.251250
17.666667	1	1.236250
17.683333	1	1.221250
17.700000	1	1.206000
17.716667	1	1.191625
17.733333	1	1.176750
17.750000	1	1.162625
17.766667	1	1.148375
17.783333	1	1.134625
17.800000	1	1.120750
17.816667	1	1.108125
17.833333	1	1.096000
17.850000	1	1.084750
17.866667	1	1.073250
17.883333	1	1.063125
17.900000	1	1.053000
17.916667	1	1.043750
17.933333	1	1.034375
17.950000	1	1.024625
17.966667	1	1.016125
17.983333	1	1.008250
18.000000	1	0.999625
18.016667	1	0.991375
18.033333	1	0.983250
18.050000	1	0.975500
18.066667	1	0.967000
18.083333	1	0.957875
18.100000	1	0.949375
18.116667	1	0.941125
18.133333	1	0.934250
18.150000	1	0.927875
18.166667	1	0.922000
18.183333	1	0.916000
18.200000	1	0.911250
18.216667	1	0.908125
18.233333	1	0.905875
18.250000	1	0.904000
18.266667	1	0.902000
18.283333	1	0.901250
18.300000	1	0.900750
18.316667	1	0.901000
18.333333	1	0.901375
18.350000	1	0.902000
18.366667	1	0.903500
18.383333	1	0.905625
18.400000	1	0.908250
18.416667	1	0.911000
18.433333	1	0.915125
18.450000	1	0.920250
18.466667	1	0.926500
18.483333	1	0.933875
18.500000	1	0.942875
18.516667	1	0.953250
18.533333	1	0.965875
18.550000	1	0.980375
18.566667	1	0.996875
18.583333	1	1.015750
18.600000	1	1.036125
18.616667	1	1.059000
18.633333	1	1.083750
18.650000	1	1.110125
18.666667	1	1.137375
18.683333	1	1.168250
18.700000	1	1.200625
18.716667	1	1.234375
18.733333	1	1.269250
18.750000	1	1.304500
18.766667	1	1.341000
18.783333	1	1.378000
18.800000	1	1.414000
18.816667	1	1.449875
18.833333	1	1.484500
18.850000	1	1.515500
18.866667	1	1.543750
18.883333	1	1.567500
18.900000	1	1.586250
18.916667	1	1.599625
18.933333	1	1.607125
18.950000	1	1.607875
18.966667	1	1.601375
18.983333	1	1.587875
19.000000	1	1.567000
19.016667	1	1.539500
19.033333	1	1.506125
19.050000	1	1.466625
19.066667	1	1.423250
19.083333	1	1.377375
19.100000	1	1.330125
19.116667	1	1.282875
19.133333	1	1.237000
19.150000	1	1.194875
19.166667	1	1.157750
19.183333	1	1.126750
19.200000	1	1.103875
19.216667	1	1.090875
19.233333	1	1.089000
19.250000	1	1.101250
19.266667	1	1.128750
19.283333	1	1.173375
19.300000	1	1.236625
19.316667	1	1.318125
19.333333	1	1.420625
19.350000	1	1.542625
19.366667	1	1.684375
19.383333	1	1.845000
19.400000	1	2.022250
19.416667	1	2.212250
19.433333	1	2.411500
19.450000	1	2.614500
19.466667	1	2.815750
19.483333	1	3.009750
19.500000	1	3.189750
19.516667	1	3.350250
19.533333	1	3.485000
19.550000	1	3.590500
19.566667	1	3.663625
19.583333	1	3.701000
19.600000	1	3.701750
19.616667	1	3.667500
19.633333	1	3.600125
19.650000	1	3.501625
19.666667	1	3.378375
19.683333	1	3.233500
19.700000	1	3.073375
19.716667	1	2.902375
19.733333	1	2.724625
19.750000	1	2.545375
19.766667	1	2.367625
19.783333	1	2.195375
19.800000	1	2.030000
19.816667	1	1.873875
19.833333	1	1.728750
19.850000	1	1.595375
19.866667	1	1.474125
19.883333	1	1.364000
19.900000	1	1.264750
19.916667	1	1.175875
19.933333	1	1.097250
19.950000	1	1.027625
19.966667	1	0.967625
19.983333	1	0.914875
20.000000	1	0.869250
20.016667	1	0.830000
20.033333	1	0.797500
20.050000	1	0.770000
20.066667	1	0.748750
20.083333	1	0.733500
20.100000	1	0.721625
20.116667	1	0.715500
20.133333	1	0.713375
20.150000	1	0.715000
20.166667	1	0.720125
20.183333	1	0.727750
20.200000	1	0.738125
20.216667	1	0.749000
20.233333	1	0.762250
20.250000	1	0.775125
20.266667	1	0.787125
20.283333	1	0.798250
20.300000	1	0.807375
20.316667	1	0.813625
20.333333	1	0.817375
20.350000	1	0.817500
20.366667	1	0.814375
20.383333	1	0.808125
20.400000	1	0.798875
20.416667	1	0.786875
20.433333	1	0.771500
20.450000	1	0.755250
20.466667	1	0.738500
20.483333	1	0.721250
20.500000	1	0.705250
20.516667	1	0.691750
20.533333	1	0.681375
20.550000	1	0.675125
20.566667	1	0.674000
20.583333	1	0.679000
20.600000	1	0.689875
20.616667	1	0.708625
20.633333	1	0.735625
20.650000	1	0.771750
20.666667	1	0.816000
20.683333	1	0.869625
20.700000	1	0.931000
20.716667	1	0.999875
20.733333	1	1.075250
20.750000	1	1.156125
20.766667	1	1.239875
20.783333	1	1.324625
20.800000	1	1.407250
20.816667	1	1.486375
20.833333	1	1.558000
20.850000	1	1.620250
20.866667	1	1.671375
20.883333	1	1.708625
20.900000	1	1.731625
20.916667	1	1.739625
20.933333	1	1.732125
20.950000	1	1.710500
20.966667	1	1.675750
20.983333	1	1.628125
21.000000	1	1.570750
21.016667	1	1.505125
21.033333	1	1.434000
21.050000	1	1.360500
21.066667	1	1.284125
21.083333	1	1.208375
21.100000	1	1.134250
21.116667	1	1.063750
21.133333	1	0.996875
21.150000	1	0.934625
21.166667	1	0.877375
21.183333	1	0.825625
21.200000	1	0.778500
21.216667	1	0.736625
21.233333	1	0.699750
21.250000	1	0.666625
21.266667	1	0.638250
21.283333	1	0.613875
21.300000	1	0.592125
21.316667	1	0.573875
21.333333	1	0.558375
21.350000	1	0.544250
21.366667	1	0.531750
21.383333	1	0.521500
21.400000	1	0.511625
21.416667	1	0.503375
21.433333	1	0.496500
21.450000	1	0.489875
21.466667	1	0.483500
21.483333	1	0.478375
21.500000	1	0.473125
21.516667	1	0.468375
21.533333	1	0.464375
21.550000	1	0.460625
21.566667	1	0.457250
21.583333	1	0.455625
21.600000	1	0.454500
21.616667	1	0.453375
21.633333	1	0.453500
21.650000	1	0.454875
21.666667	1	0.457125
21.683333	1	0.460625
21.700000	1	0.465375
21.716667	1	0.471000
21.733333	1	0.479125
21.750000	1	0.487875
21.766667	1	0.497750
21.783333	1	0.508625
21.800000	1	0.520375
21.816667	1	0.533625
21.833333	1	0.546500
21.850000	1	0.560125
21.866667	1	0.574875
21.883333	1	0.589375
21.900000	1	0.604375
21.916667	1	0.619375
21.933333	1	0.633125
21.950000	1	0.646500
21.966667	1	0.658375
21.983333	1	0.669375
22.000000	1	0.679625
22.016667	1	0.687875
22.033333	1	0.694625
22.050000	1	0.700250
22.066667	1	0.704875
22.083333	1	0.707750
22.100000	1	0.708250
22.116667	1	0.708625
22.133333	1	0.707750
22.150000	1	0.704875
22.166667	1	0.700875
22.183333	1	0.695375
22.200000	1	0.689000
22.216667	1	0.681375
22.233333	1	0.671875
22.250000	1	0.661000
22.266667	1	0.649250
22.283333	1	0.637250
22.300000	1	0.624625
22.316667	1	0.611000
22.333333	1	0.596500
22.350000	1	0.582125
22.366667	1	0.567500
22.383333	1	0.553125
22.400000	1	0.538750
22.416667	1	0.525125
22.433333	1	0.511375
22.450000	1	0.498375
22.466667	1	0.486375
22.483333	1	0.475500
22.500000	1	0.464500
22.516667	1	0.455500
22.533333	1	0.446625
22.550000	1	0.438625
22.566667	1	0.431125
22.583333	1	0.424500
22.600000	1	0.418750
22.616667	1	0.413375
22.633333	1	0.408625
22.650000	1	0.403625
22.666667	1	0.399750
22.683333	1	0.396125
22.700000	1	0.392500
22.716667	1	0.388625
22.733333	1	0.386250
22.750000	1	0.383500
22.766667	1	0.379875
22.783333	1	0.376625
22.800000	1	0.373750
22.816667	1	0.372000
22.833333	1	0.370125
22.850000	1	0.368625
22.866667	1	0.366625
22.883333	1	0.365375
22.900000	1	0.363875
22.916667	1	0.362500
22.933333	1	0.361875
22.950000	1	0.361125
22.966667	1	0.360625
22.983333	1	0.361375
23.000000	1	0.362125
23.016667	1	0.362875
23.033333	1	0.364000
23.050000	1	0.365250
23.066667	1	0.366875
23.083333	1	0.368375
23.100000	1	0.370750
23.116667	1	0.373375
23.133333	1	0.375750
23.150000	1	0.377875
23.166667	1	0.380125
23.183333	1	0.382875
23.200000	1	0.384875
23.216667	1	0.386875
23.233333	1	0.388875
23.250000	1	0.391250
23.266667	1	0.394250
23.283333	1	0.397500
23.300000	1	0.401500
23.316667	1	0.407625
23.333333	1	0.415625
23.350000	1	0.425750
23.366667	1	0.439000
23.383333	1	0.456375
23.400000	1	0.478625
23.416667	1	0.507000
23.433333	1	0.541375
23.450000	1	0.584875
23.466667	1	0.638375
23.483333	1	0.703500
23.500000	1	0.781375
23.516667	1	0.873750
23.533333	1	0.982125
23.550000	1	1.108500
23.566667	1	1.253375
23.583333	1	1.417875
23.600000	1	1.603000
23.616667	1	1.807000
23.633333	1	2.030500
23.650000	1	2.270875
23.666667	1	2.527000
23.683333	1	2.794625
23.700000	1	3.071875
23.716667	1	3.352625
23.733333	1	3.632875
23.750000	1	3.905750
23.766667	1	4.165750
23.783333	1	4.406500
23.800000	1	4.623125
23.816667	1	4.810625
23.833333	1	4.964000
23.850000	1	5.079750
23.866667	1	5.155375
23.883333	1	5.190625
23.900000	1	5.185000
23.916667	1	5.138000
23.933333	1	5.052000
23.950000	1	4.930750
23.966667	1	4.778125
23.983333	1	4.598125
24.000000	1	4.396500
24.016667	1	4.177500
24.033333	1	3.946125
24.050000	1	3.707625
24.066667	1	3.466125
24.083333	1	3.225500
24.100000	1	2.988250
24.116667	1	2.758750
24.133333	1	2.538750
24.150000	1	2.329750
24.166667	1	2.133625
24.183333	1	1.950625
24.200000	1	1.782000
24.216667	1	1.627750
24.233333	1	1.486250
24.250000	1	1.359125
24.266667	1	1.244125
24.283333	1	1.141125
24.300000	1	1.049000
24.316667	1	0.967375
24.333333	1	0.895375
24.350000	1	0.832625
24.366667	1	0.778125
24.383333	1	0.730875
24.400000	1	0.690500
24.416667	1	0.655875
24.433333	1	0.628000
24.450000	1	0.604125
24.466667	1	0.584875
24.483333	1	0.569625
24.500000	1	0.556625
24.516667	1	0.546250
24.533333	1	0.537625
24.550000	1	0.530875
24.566667	1	0.525000
24.583333	1	0.520750
24.600000	1	0.516875
24.616667	1	0.513125
24.633333	1	0.508875
24.650000	1	0.505875
24.666667	1	0.502750
24.683333	1	0.499125
24.700000	1	0.494750
24.716667	1	0.490375
24.733333	1	0.486125
24.750000	1	0.481375
24.766667	1	0.476375
24.783333	1	0.470875
24.800000	1	0.466125
24.816667	1	0.460750
24.833333	1	0.455375
24.850000	1	0.450500
24.866667	1	0.445375
24.883333	1	0.440375
24.900000	1	0.434875
24.916667	1	0.429625
24.933333	1	0.425000
24.950000	1	0.420000
24.966667	1	0.416000
24.983333	1	0.411875
25.000000	1	0.408125
25.016667	1	0.403875
25.033333	1	0.400375
25.050000	1	0.396750
25.066667	1	0.393125
25.083333	1	0.389625
25.100000	1	0.386250
25.116667	1	0.382625
25.133333	1	0.379625
25.150000	1	0.376250
25.166667	1	0.372375
25.183333	1	0.369125
25.200000	1	0.365625
25.216667	1	0.361500
25.233333	1	0.357750
25.250000	1	0.354250
25.266667	1	0.351000
25.283333	1	0.347375
25.300000	1	0.344375
25.316667	1	0.340625
25.333333	1	0.337250
25.350000	1	0.334750
25.366667	1	0.331625
25.383333	1	0.329000
25.400000	1	0.326375
25.416667	1	0.324625
25.433333	1	0.322500
25.450000	1	0.320875
25.466667	1	0.319500
25.483333	1	0.317625
25.500000	1	0.316625
25.516667	1	0.316000
25.533333	1	0.314875
25.550000	1	0.314000
25.566667	1	0.314125
25.583333	1	0.313125
25.600000	1	0.312625
25.616667	1	0.312125
25.633333	1	0.311375
25.650000	1	0.310750
25.666667	1	0.309625
25.683333	1	0.309375
25.700000	1	0.308250
25.716667	1	0.306750
25.733333	1	0.305750
25.750000	1	0.304500
25.766667	1	0.303500
25.783333	1	0.302375
25.800000	1	0.301000
25.816667	1	0.299625
25.833333	1	0.298250
25.850000	1	0.297500
25.866667	1	0.296500
25.883333	1	0.296750
25.900000	1	0.297375
25.916667	1	0.297500
25.933333	1	0.298375
25.950000	1	0.300000
25.966667	1	0.300250
25.983333	1	0.302250
26.000000	1	0.305000
26.016667	1	0.308125
26.033333	1	0.311625
26.050000	1	0.315375
26.066667	1	0.320250
26.083333	1	0.325750
26.100000	1	0.331375
26.116667	1	0.336625
26.133333	1	0.342375
26.150000	1	0.348375
26.166667	1	0.353875
26.183333	1	0.358500
26.200000	1	0.363750
26.216667	1	0.368375
26.233333	1	0.372875
26.250000	1	0.376875
26.266667	1	0.380625
26.283333	1	0.383500
26.300000	1	0.385875
26.316667	1	0.387875
26.333333	1	0.388625
26.350000	1	0.388250
26.366667	1	0.387375
26.383333	1	0.385750
26.400000	1	0.383875
26.416667	1	0.381000
26.433333	1	0.376875
26.450000	1	0.373375
26.466667	1	0.368625
26.483333	1	0.363750
26.500000	1	0.358375
26.516667	1	0.352000
26.533333	1	0.345250
26.550000	1	0.338375
26.566667	1	0.331750
26.583333	1	0.325000
26.600000	1	0.317625
26.616667	1	0.311000
26.633333	1	0.304125
26.650000	1	0.297375
26.666667	1	0.291375
26.683333	1	0.285000
26.700000	1	0.278750
26.716667	1	0.271625
26.733333	1	0.266000
26.750000	1	0.260500
26.766667	1	0.255625
26.783333	1	0.250875
26.800000	1	0.246375
26.816667	1	0.243250
26.833333	1	0.239750
26.850000	1	0.237625
26.866667	1	0.235375
26.883333	1	0.233375
26.900000	1	0.231125
26.916667	1	0.229750
26.933333	1	0.228625
26.950000	1	0.228125
26.966667	1	0.226750
26.983333	1	0.226000
27.000000	1	0.226750
27.016667	1	0.227125
27.033333	1	0.228750
27.050000	1	0.231750
27.066667	1	0.235000
27.083333	1	0.238875
27.100000	1	0.243625
27.116667	1	0.249250
27.133333	1	0.255625
27.150000	1	0.262625
27.166667	1	0.271375
27.183333	1	0.281750
27.200000	1	0.293625
27.216667	1	0.307500
27.233333	1	0.324375
27.250000	1	0.344125
27.266667	1	0.367125
27.283333	1	0.393875
27.300000	1	0.424875
27.316667	1	0.461500
27.333333	1	0.503375
27.350000	1	0.551375
27.366667	1	0.606875
27.383333	1	0.670750
27.400000	1	0.743000
27.416667	1	0.825875
27.433333	1	0.918500
27.450000	1	1.022875
27.466667	1	1.139250
27.483333	1	1.267375
27.500000	1	1.408500
27.516667	1	1.562250
27.533333	1	1.728250
27.550000	1	1.906875
27.566667	1	2.097125
27.583333	1	2.297125
27.600000	1	2.505375
27.616667	1	2.720625
27.633333	1	2.940750
27.650000	1	3.163375
27.666667	1	3.386125
27.683333	1	3.606250
27.700000	1	3.819000
27.716667	1	4.021375
27.733333	1	4.209875
27.750000	1	4.382000
27.766667	1	4.534625
27.783333	1	4.664375
27.800000	1	4.770000
27.816667	1	4.847875
27.833333	1	4.896625
27.850000	1	4.916000
27.866667	1	4.906000
27.883333	1	4.865250
27.900000	1	4.795375
27.916667	1	4.697750
27.933333	1	4.575125
27.950000	1	4.428500
27.966667	1	4.263125
27.983333	1	4.080250
28.000000	1	3.884125
28.016667	1	3.678250
28.033333	1	3.465375
28.050000	1	3.248125
28.066667	1	3.030875
28.083333	1	2.815875
28.100000	1	2.605125
28.116667	1	2.401000
28.133333	1	2.206000
28.150000	1	2.020875
28.166667	1	1.846250
28.183333	1	1.683500
28.200000	1	1.532500
28.216667	1	1.392500
28.233333	1	1.264125
28.250000	1	1.148625
28.266667	1	1.043750
28.283333	1	0.949250
28.300000	1	0.864750
28.316667	1	0.789875
28.333333	1	0.723750
28.350000	1	0.666375
28.366667	1	0.615875
28.383333	1	0.572875
28.400000	1	0.536500
28.416667	1	0.505500
28.433333	1	0.480000
28.450000	1	0.459750
28.466667	1	0.443625
28.483333	1	0.431125
28.500000	1	0.422625
28.516667	1	0.417250
28.533333	1	0.414625
28.550000	1	0.414500
28.566667	1	0.417750
28.583333	1	0.422500
28.600000	1	0.428875
28.616667	1	0.436375
28.633333	1	0.445500
28.650000	1	0.454625
28.666667	1	0.464750
28.683333	1	0.476125
28.700000	1	0.487375
28.716667	1	0.498875
28.733333	1	0.510375
28.750000	1	0.521250
28.766667	1	0.532250
28.783333	1	0.542625
28.800000	1	0.552000
28.816667	1	0.560750
28.833333	1	0.568500
28.850000	1	0.575250
28.866667	1	0.581125
28.883333	1	0.585250
28.900000	1	0.588500
28.916667	1	0.590250
28.933333	1	0.591250
28.950000	1	0.591375
28.966667	1	0.590125
28.983333	1	0.587375
29.000000	1	0.584625
29.016667	1	0.580000
29.033333	1	0.574625
29.050000	1	0.567625
29.066667	1	0.560250
29.083333	1	0.551625
29.100000	1	0.541750
29.116667	1	0.531750
29.133333	1	0.520375
29.150000	1	0.508625
29.166667	1	0.496375
29.183333	1	0.483625
29.200000	1	0.471625
29.216667	1	0.458625
29.233333	1	0.445125
29.250000	1	0.432000
29.266667	1	0.418750
29.283333	1	0.405375
29.300000	1	0.392000
29.316667	1	0.379000
29.333333	1	0.366500
29.350000	1	0.354375
29.366667	1	0.341750
29.383333	1	0.330625
29.400000	1	0.319125
29.416667	1	0.308125
29.433333	1	0.297750
29.450000	1	0.287625
29.466667	1	0.277500
29.483333	1	0.268125
29.500000	1	0.259500
29.516667	1	0.251250
29.533333	1	0.243375
29.550000	1	0.236250
29.566667	1	0.229500
29.583333	1	0.223000
29.600000	1	0.216375
29.616667	1	0.211500
29.633333	1	0.206625
29.650000	1	0.201875
29.666667	1	0.196875
29.683333	1	0.192125
29.700000	1	0.187250
29.716667	1	0.184000
29.733333	1	0.180250
29.750000	1	0.176375
29.766667	1	0.172875
29.783333	1	0.169500
29.800000	1	0.166625
29.816667	1	0.164000
29.833333	1	0.161000
29.850000	1	0.158125
29.866667	1	0.155250
29.883333	1	0.152875
29.900000	1	0.150500
29.916667	1	0.147875
29.933333	1	0.145375
29.950000	1	0.143000
29.966667	1	0.140250
29.983333	1	0.137875
30.000000	1	0.135125
30.016667	1	0.132875
30.033333	1	0.130375
30.050000	1	0.128500
30.066667	1	0.126500
30.083333	1	0.124375
30.100000	1	0.122500
30.116667	1	0.120625
30.133333	1	0.118500
30.150000	1	0.116500
30.166667	1	0.114750
30.183333	1	0.113375
30.200000	1	0.112250
30.216667	1	0.111875
30.233333	1	0.111250
30.250000	1	0.110750
30.266667	1	0.110125
30.283333	1	0.109750
30.300000	1	0.110250
30.316667	1	0.110625
30.333333	1	0.111750
30.350000	1	0.112125
30.366667	1	0.113000
30.383333	1	0.114750
30.400000	1	0.116250
30.416667	1	0.118625
30.433333	1	0.121125
30.450000	1	0.123875
30.466667	1	0.126625
30.483333	1	0.130750
30.500000	1	0.135375
30.516667	1	0.140125
30.533333	1	0.144875
30.550000	1	0.150125
30.566667	1	0.156125
30.583333	1	0.162125
30.600000	1	0.168500
30.616667	1	0.175500
30.633333	1	0.183500
30.650000	1	0.192125
30.666667	1	0.200875
30.683333	1	0.209250
30.700000	1	0.219625
30.716667	1	0.230000
30.733333	1	0.240750
30.750000	1	0.251625
30.766667	1	0.263250
30.783333	1	0.275125
30.800000	1	0.287000
30.816667	1	0.300375
30.833333	1	0.314000
30.850000	1	0.328625
30.866667	1	0.343625
30.883333	1	0.359625
30.900000	1	0.376250
30.916667	1	0.394625
30.933333	1	0.414125
30.950000	1	0.435750
30.966667	1	0.459625
30.983333	1	0.485375
31.000000	1	0.513750
31.016667	1	0.545625
31.033333	1	0.581125
31.050000	1	0.620375
31.066667	1	0.663125
31.083333	1	0.711375
31.100000	1	0.764500
31.116667	1	0.822875
31.133333	1	0.888250
31.150000	1	0.959125
31.166667	1	1.036250
31.183333	1	1.120500
31.200000	1	1.211125
31.216667	1	1.308750
31.233333	1	1.413375
31.250000	1	1.524000
31.266667	1	1.639750
31.283333	1	1.759750
31.300000	1	1.884625
31.316667	1	2.012625
31.333333	1	2.142000
31.350000	1	2.272250
31.366667	1	2.401375
31.383333	1	2.528875
31.400000	1	2.652750
31.416667	1	2.771000
31.433333	1	2.883250
31.450000	1	2.987000
31.466667	1	3.080750
31.483333	1	3.163250
31.500000	1	3.233625
31.516667	1	3.290625
31.533333	1	3.332875
31.550000	1	3.360000
31.566667	1	3.372625
31.583333	1	3.370625
31.600000	1	3.353875
31.616667	1	3.321750
31.633333	1	3.275500
31.650000	1	3.215875
31.666667	1	3.143625
31.683333	1	3.061375
31.700000	1	2.968625
31.716667	1	2.867125
31.733333	1	2.759125
31.750000	1	2.645375
31.766667	1	2.526625
31.783333	1	2.405625
31.800000	1	2.282000
31.816667	1	2.158375
31.833333	1	2.034250
31.850000	1	1.912250
31.866667	1	1.792250
31.883333	1	1.676500
31.900000	1	1.564375
31.916667	1	1.456750
31.933333	1	1.353625
31.950000	1	1.255250
31.966667	1	1.162875
31.983333	1	1.076375
32.000000	1	0.994875
32.016667	1	0.918750
32.033333	1	0.848375
32.050000	1	0.782875
32.066667	1	0.722375
32.083333	1	0.665375
32.100000	1	0.613875
32.116667	1	0.565625
32.133333	1	0.520875
32.150000	1	0.479250
32.166667	1	0.442500
32.183333	1	0.407875
32.200000	1	0.376125
32.216667	1	0.346750
32.233333	1	0.319875
32.250000	1	0.295500
32.266667	1	0.272875
32.283333	1	0.252250
32.300000	1	0.233500
32.316667	1	0.216125
32.333333	1	0.200750
32.350000	1	0.186250
32.366667	1	0.172875
32.383333	1	0.161000
32.400000	1	0.150125
32.416667	1	0.140000
32.433333	1	0.130500
32.450000	1	0.122125
32.466667	1	0.115000
32.483333	1	0.108625
32.500000	1	0.103000
32.516667	1	0.097750
32.533333	1	0.093750
32.550000	1	0.089125
32.566667	1	0.085250
32.583333	1	0.082000
32.600000	1	0.079250
32.616667	1	0.075750
32.633333	1	0.073875
32.650000	1	0.072250
32.666667	1	0.070500
32.683333	1	0.068750
32.700000	1	0.067125
32.716667	1	0.066000
32.733333	1	0.066125
32.750000	1	0.064750
32.766667	1	0.063750
32.783333	1	0.062875
32.800000	1	0.062375
32.816667	1	0.061125
32.833333	1	0.060250
32.850000	1	0.059125
32.866667	1	0.058875
32.883333	1	0.057750
32.900000	1	0.056625
32.916667	1	0.056375
32.933333	1	0.056125
32.950000	1	0.055500
32.966667	1	0.055125
32.983333	1	0.054500
33.000000	1	0.054125
33.016667	1	0.053875
33.033333	1	0.054000
33.050000	1	0.053500
33.066667	1	0.052875
33.083333	1	0.053750
33.100000	1	0.053125
33.116667	1	0.052750
33.133333	1	0.053125
33.150000	1	0.053250
33.166667	1	0.053625
33.183333	1	0.054000
33.200000	1	0.054750
33.216667	1	0.054625
33.233333	1	0.054625
33.250000	1	0.055375
33.266667	1	0.055500
33.283333	1	0.055875
33.300000	1	0.056125
33.316667	1	0.056875
33.333333	1	0.057875
33.350000	1	0.058250
33.366667	1	0.059250
33.383333	1	0.060875
33.400000	1	0.062000
33.416667	1	0.063875
33.433333	1	0.065500
33.450000	1	0.066875
33.466667	1	0.068625
33.483333	1	0.071250
33.500000	1	0.073000
33.516667	1	0.075125
33.533333	1	0.076875
33.550000	1	0.079625
33.566667	1	0.082375
33.583333	1	0.085250
33.600000	1	0.088375
33.616667	1	0.091750
33.633333	1	0.094625
33.650000	1	0.098000
33.666667	1	0.101625
33.683333	1	0.105125
33.700000	1	0.109125
33.716667	1	0.112000
33.733333	1	0.114875
33.750000	1	0.118250
33.766667	1	0.121875
33.783333	1	0.125250
33.800000	1	0.129125
33.816667	1	0.133375
33.833333	1	0.136500
33.850000	1	0.140125
33.866667	1	0.143625
33.883333	1	0.147000
33.900000	1	0.149625
33.916667	1	0.152500
33.933333	1	0.155250
33.950000	1	0.157375
33.966667	1	0.159000
33.983333	1	0.161500
34.000000	1	0.163500
34.016667	1	0.165875
34.033333	1	0.167625
34.050000	1	0.169125
34.066667	1	0.170500
34.083333	1	0.171000
34.100000	1	0.171875
34.116667	1	0.172750
34.133333	1	0.173375
34.150000	1	0.173250
34.166667	1	0.173500
34.183333	1	0.173750
34.200000	1	0.174125
34.216667	1	0.173875
34.233333	1	0.173625
34.250000	1	0.173500
34.266667	1	0.172500
34.283333	1	0.172500
34.300000	1	0.171875
34.316667	1	0.171000
34.333333	1	0.170250
34.350000	1	0.170250
34.366667	1	0.170250
34.383333	1	0.169625
34.400000	1	0.169625
34.416667	1	0.169750
34.433333	1	0.170125
34.450000	1	0.170625
34.466667	1	0.170875
34.483333	1	0.171375
34.500000	1	0.172000
34.516667	1	0.172750
34.533333	1	0.172875
34.550000	1	0.173500
34.566667	1	0.174000
34.583333	1	0.175125
34.600000	1	0.175250
34.616667	1	0.175000
34.633333	1	0.175750
34.650000	1	0.176500
34.666667	1	0.176375
34.683333	1	0.176500
34.700000	1	0.176500
34.716667	1	0.177250
34.733333	1	0.177125
34.750000	1	0.176750
34.766667	1	0.177375
34.783333	1	0.176750
34.800000	1	0.175500
34.816667	1	0.175500
34.833333	1	0.174750
34.850000	1	0.174500
34.866667	1	0.173125
34.883333	1	0.171875
34.900000	1	0.170000
34.916667	1	0.168875
34.933333	1	0.167875
34.950000	1	0.165875
34.966667	1	0.164500
34.983333	1	0.163000
35.000000	1	0.161375
35.016667	1	0.159375
35.033333	1	0.157750
35.050000	1	0.156125
35.066667	1	0.154250
35.083333	1	0.152500
35.100000	1	0.150375
35.116667	1	0.149250
35.133333	1	0.147375
35.150000	1	0.145500
35.166667	1	0.143750
35.183333	1	0.142375
35.200000	1	0.140500
35.216667	1	0.139375
35.233333	1	0.138625
35.250000	1	0.136875
35.266667	1	0.135625
35.283333	1	0.135000
35.300000	1	0.133750
35.316667	1	0.133375
35.333333	1	0.132750
35.350000	1	0.133125
35.366667	1	0.132625
35.383333	1	0.132250
35.400000	1	0.132000
35.416667	1	0.131625
35.433333	1	0.132250
35.450000	1	0.133000
35.466667	1	0.133250
35.483333	1	0.133750
35.500000	1	0.134375
35.516667	1	0.135000
35.533333	1	0.136125
35.550000	1	0.136375
35.566667	1	0.137000
35.583333	1	0.137625
35.600000	1	0.138250
35.616667	1	0.139125
35.633333	1	0.140375
35.650000	1	0.141000
35.666667	1	0.141750
35.683333	1	0.142875
35.700000	1	0.143500
35.716667	1	0.143875
35.733333	1	0.144875
35.750000	1	0.145375
35.766667	1	0.145500
35.783333	1	0.146625
35.800000	1	0.146875
35.816667	1	0.146750
35.833333	1	0.146625
35.850000	1	0.146625
35.866667	1	0.146500
35.883333	1	0.147000
35.900000	1	0.147250
35.916667	1	0.147625
35.933333	1	0.147125
35.950000	1	0.146000
35.966667	1	0.145750
35.983333	1	0.146000
36.000000	1	0.146375
36.016667	1	0.146375
36.033333	1	0.146000
36.050000	1	0.145500
36.066667	1	0.144875
36.083333	1	0.144750
36.100000	1	0.144500
36.116667	1	0.144125
36.133333	1	0.143750
36.150000	1	0.143000
36.166667	1	0.141875
36.183333	1	0.140375
36.200000	1	0.140000
36.216667	1	0.139125
36.233333	1	0.138750
36.250000	1	0.137625
36.266667	1	0.136250
36.283333	1	0.135500
36.300000	1	0.135000
36.316667	1	0.133875
36.333333	1	0.133000
36.350000	1	0.132250
36.366667	1	0.131250
36.383333	1	0.130625
36.400000	1	0.129375
36.416667	1	0.128625
36.433333	1	0.126750
36.450000	1	0.124875
36.466667	1	0.123625
36.483333	1	0.122000
36.500000	1	0.120750
36.516667	1	0.119750
36.533333	1	0.118250
36.550000	1	0.117000
36.566667	1	0.114500
36.583333	1	0.112500
36.600000	1	0.110750
36.616667	1	0.108375
36.633333	1	0.105625
36.650000	1	0.103750
36.666667	1	0.101375
36.683333	1	0.099875
36.700000	1	0.097875
36.716667	1	0.095875
36.733333	1	0.093500
36.750000	1	0.091250
36.766667	1	0.088875
36.783333	1	0.086375
36.800000	1	0.084500
36.816667	1	0.082625
36.833333	1	0.080625
36.850000	1	0.079000
36.866667	1	0.077125
36.883333	1	0.075875
36.900000	1	0.074125
36.916667	1	0.071375
36.933333	1	0.070125
36.950000	1	0.068625
36.966667	1	0.068000
36.983333	1	0.066750
37.000000	1	0.065625
37.016667	1	0.063875
37.033333	1	0.062000
37.050000	1	0.059875
37.066667	1	0.058250
37.083333	1	0.056625
37.100000	1	0.054875
37.116667	1	0.053125
37.133333	1	0.051375
37.150000	1	0.049500
37.166667	1	0.047500
37.183333	1	0.046375
37.200000	1	0.045000
37.216667	1	0.043375
37.233333	1	0.041875
37.250000	1	0.040625
37.266667	1	0.039375
37.283333	1	0.038500
37.300000	1	0.037750
37.316667	1	0.036500
37.333333	1	0.036375
37.350000	1	0.036250
37.366667	1	0.036125
37.383333	1	0.036375
37.400000	1	0.036125
37.416667	1	0.035875
37.433333	1	0.036000
37.450000	1	0.036500
37.466667	1	0.037625
37.483333	1	0.037625
37.500000	1	0.038750
37.516667	1	0.039750
37.533333	1	0.040750
37.550000	1	0.041750
37.566667	1	0.043625
37.583333	1	0.045000
37.600000	1	0.046375
37.616667	1	0.047375
37.633333	1	0.048875
37.650000	1	0.049875
37.666667	1	0.051125
37.683333	1	0.052750
37.700000	1	0.053750
37.716667	1	0.055250
37.733333	1	0.056000
37.750000	1	0.057125
37.766667	1	0.057875
37.783333	1	0.058875
37.800000	1	0.060000
37.816667	1	0.060125
37.833333	1	0.060625
37.850000	1	0.061375
37.866667	1	0.061875
37.883333	1	0.062250
37.900000	1	0.063125
37.916667	1	0.064000
37.933333	1	0.064875
37.950000	1	0.065000
37.966667	1	0.065500
37.983333	1	0.066500
38.000000	1	0.067250
38.016667	1	0.067875
38.033333	1	0.068125
38.050000	1	0.068500
38.066667	1	0.068500
38.083333	1	0.069125
38.100000	1	0.070125
38.116667	1	0.070250
38.133333	1	0.070750
38.150000	1	0.071125
38.166667	1	0.071375
38.183333	1	0.071625
38.200000	1	0.072125
38.216667	1	0.072625
38.233333	1	0.073375
38.250000	1	0.073750
38.266667	1	0.073750
38.283333	1	0.073875
38.300000	1	0.074250
38.316667	1	0.074125
38.333333	1	0.074875
38.350000	1	0.075250
38.366667	1	0.075875
38.383333	1	0.076500
38.400000	1	0.076750
38.416667	1	0.076375
38.433333	1	0.076250
38.450000	1	0.076500
38.466667	1	0.076500
38.483333	1	0.076750
38.500000	1	0.076625
38.516667	1	0.076750
38.533333	1	0.076000
38.550000	1	0.075750
38.566667	1	0.075625
38.583333	1	0.075375
38.600000	1	0.076125
38.616667	1	0.076375
38.633333	1	0.076000
38.650000	1	0.076125
38.666667	1	0.075875
38.683333	1	0.076000
38.700000	1	0.075500
38.716667	1	0.075875
38.733333	1	0.076500
38.750000	1	0.076375
38.766667	1	0.076250
38.783333	1	0.076500
38.800000	1	0.075750
38.816667	1	0.075125
38.833333	1	0.074375
38.850000	1	0.073125
38.866667	1	0.072375
38.883333	1	0.071625
38.900000	1	0.070500
38.916667	1	0.069625
38.933333	1	0.068750
38.950000	1	0.067750
38.966667	1	0.065750
38.983333	1	0.063500
39.000000	1	0.061500
39.016667	1	0.058500
39.033333	1	0.056250
39.050000	1	0.053000
39.066667	1	0.050000
39.083333	1	0.046750
39.100000	1	0.044375
39.116667	1	0.041125
39.133333	1	0.037750
39.150000	1	0.034625
39.166667	1	0.031500
39.183333	1	0.028500
39.200000	1	0.025875
39.216667	1	0.023000
39.233333	1	0.019750
39.250000	1	0.016250
39.266667	1	0.014000
39.283333	1	0.012000
39.300000	1	0.009625
39.316667	1	0.007625
39.333333	1	0.005125
39.350000	1	0.003750
39.366667	1	0.002875
39.383333	1	0.001750
39.400000	1	0.000750
39.416667	1	0.000125
39.433333	1	-0.000125
39.450000	1	0.000000
39.466667	1	0.000125
39.483333	1	0.000500
39.500000	1	0.000875
39.516667	1	0.002125
39.533333	1	0.002625
39.550000	1	0.003625
39.566667	1	0.004875
39.583333	1	0.006500
39.600000	1	0.007625
39.616667	1	0.009125
39.633333	1	0.010500
39.650000	1	0.011750
39.666667	1	0.013500
39.683333	1	0.015000
39.700000	1	0.017250
39.716667	1	0.018250
39.733333	1	0.019750
39.750000	1	0.020875
39.766667	1	0.021875
39.783333	1	0.023625
39.800000	1	0.024875
39.816667	1	0.026000
39.833333	1	0.027625
39.850000	1	0.028500
39.866667	1	0.028500
39.883333	1	0.028625
39.900000	1	0.029000
39.916667	1	0.029375
39.933333	1	0.028875
39.950000	1	0.028625
39.966667	1	0.029000
39.983333	1	0.028250
40.000000	1	0.027750
