URL	chrom://bioreactor/micro_cm7/HPLC_Ultimate_3000/Users/markusar/20240708_MA_pHrange1.seq/263.smp/RI_1.channel/RI_1.chm
Channel	RI_1

Injection Information:
Data Vault	micro_cm7
Sequence	20240708_MA_pHrange1
Name	Pv2_6.5_3
Number	9
Position	BA9
Comment	
Processing Method	
Instrument Method	run_25B_method
Type	Unknown
Status	Finished
Inject Time	08.07.2024 21:02:13 +02:00
Volume (µl)	20.0000
Dilution Factor	1.0000
Weight	1.0000

Chromatogram Data Information:
Time Min. (min)	0.000000
Time Max. (min)	40.000000
Data Points	2401
Detector	RI
Generating Data System	Chromeleon 7.3.2.11814
Exporting Data System	Chromeleon 7.3.2.0
Operator	Instrument Controller
Signal Quantity	Refractive 
Signal Unit	µRIU
Signal Min.	-0.091625
Signal Max.	81.974250
Channel	RI_1
Driver Name	RID520Driver.dll
Channel Type	Evaluation
Min. Step (s)	1
Max. Step (s)	1
Average Step (s)	1

Signal Parameter Information:
Signal Info	

Chromatogram Data:
Time (min)	Step (s)	Value (µRIU)
0.000000	n.a.	-0.004250
0.016667	1	-0.005125
0.033333	1	-0.005750
0.050000	1	-0.006125
0.066667	1	-0.006625
0.083333	1	-0.007125
0.100000	1	-0.007500
0.116667	1	-0.008250
0.133333	1	-0.008375
0.150000	1	-0.009125
0.166667	1	-0.009750
0.183333	1	-0.010500
0.200000	1	-0.011125
0.216667	1	-0.011375
0.233333	1	-0.011375
0.250000	1	-0.011125
0.266667	1	-0.011375
0.283333	1	-0.011375
0.300000	1	-0.011000
0.316667	1	-0.010625
0.333333	1	-0.011250
0.350000	1	-0.012000
0.366667	1	-0.012125
0.383333	1	-0.012250
0.400000	1	-0.012875
0.416667	1	-0.012250
0.433333	1	-0.010750
0.450000	1	-0.008625
0.466667	1	-0.006750
0.483333	1	-0.005375
0.500000	1	-0.004250
0.516667	1	-0.003250
0.533333	1	-0.002625
0.550000	1	-0.002875
0.566667	1	-0.004125
0.583333	1	-0.005625
0.600000	1	-0.007750
0.616667	1	-0.010000
0.633333	1	-0.012125
0.650000	1	-0.013750
0.666667	1	-0.014250
0.683333	1	-0.015500
0.700000	1	-0.016125
0.716667	1	-0.016625
0.733333	1	-0.018000
0.750000	1	-0.019125
0.766667	1	-0.019875
0.783333	1	-0.020875
0.800000	1	-0.021875
0.816667	1	-0.023500
0.833333	1	-0.024375
0.850000	1	-0.025625
0.866667	1	-0.026875
0.883333	1	-0.028500
0.900000	1	-0.029875
0.916667	1	-0.031500
0.933333	1	-0.033000
0.950000	1	-0.034625
0.966667	1	-0.036500
0.983333	1	-0.039000
1.000000	1	-0.041375
1.016667	1	-0.042750
1.033333	1	-0.044125
1.050000	1	-0.046375
1.066667	1	-0.048750
1.083333	1	-0.050500
1.100000	1	-0.052250
1.116667	1	-0.054625
1.133333	1	-0.055875
1.150000	1	-0.057250
1.166667	1	-0.058250
1.183333	1	-0.059375
1.200000	1	-0.060500
1.216667	1	-0.061500
1.233333	1	-0.062500
1.250000	1	-0.063125
1.266667	1	-0.063375
1.283333	1	-0.063750
1.300000	1	-0.064375
1.316667	1	-0.065125
1.333333	1	-0.065125
1.350000	1	-0.065500
1.366667	1	-0.066375
1.383333	1	-0.067125
1.400000	1	-0.068125
1.416667	1	-0.068250
1.433333	1	-0.068500
1.450000	1	-0.069500
1.466667	1	-0.069250
1.483333	1	-0.070625
1.500000	1	-0.071375
1.516667	1	-0.071500
1.533333	1	-0.072250
1.550000	1	-0.072750
1.566667	1	-0.073500
1.583333	1	-0.073875
1.600000	1	-0.074500
1.616667	1	-0.074500
1.633333	1	-0.074875
1.650000	1	-0.074750
1.666667	1	-0.074625
1.683333	1	-0.074625
1.700000	1	-0.074750
1.716667	1	-0.074125
1.733333	1	-0.074250
1.750000	1	-0.074375
1.766667	1	-0.073750
1.783333	1	-0.073000
1.800000	1	-0.072625
1.816667	1	-0.072375
1.833333	1	-0.071750
1.850000	1	-0.070375
1.866667	1	-0.069375
1.883333	1	-0.068250
1.900000	1	-0.067250
1.916667	1	-0.066500
1.933333	1	-0.065375
1.950000	1	-0.064500
1.966667	1	-0.064000
1.983333	1	-0.062750
2.000000	1	-0.061875
2.016667	1	-0.061250
2.033333	1	-0.060250
2.050000	1	-0.059125
2.066667	1	-0.057625
2.083333	1	-0.056125
2.100000	1	-0.055375
2.116667	1	-0.053750
2.133333	1	-0.052625
2.150000	1	-0.051000
2.166667	1	-0.050500
2.183333	1	-0.049625
2.200000	1	-0.048000
2.216667	1	-0.045750
2.233333	1	-0.044000
2.250000	1	-0.041875
2.266667	1	-0.039250
2.283333	1	-0.038000
2.300000	1	-0.036125
2.316667	1	-0.034250
2.333333	1	-0.032500
2.350000	1	-0.030250
2.366667	1	-0.028500
2.383333	1	-0.026750
2.400000	1	-0.025125
2.416667	1	-0.023500
2.433333	1	-0.022000
2.450000	1	-0.020000
2.466667	1	-0.019250
2.483333	1	-0.018875
2.500000	1	-0.017500
2.516667	1	-0.016500
2.533333	1	-0.015875
2.550000	1	-0.015500
2.566667	1	-0.016000
2.583333	1	-0.015875
2.600000	1	-0.016250
2.616667	1	-0.016750
2.633333	1	-0.017375
2.650000	1	-0.018500
2.666667	1	-0.019250
2.683333	1	-0.020625
2.700000	1	-0.021875
2.716667	1	-0.023000
2.733333	1	-0.024125
2.750000	1	-0.025375
2.766667	1	-0.025875
2.783333	1	-0.026500
2.800000	1	-0.027625
2.816667	1	-0.027875
2.833333	1	-0.028375
2.850000	1	-0.028875
2.866667	1	-0.029000
2.883333	1	-0.029750
2.900000	1	-0.029875
2.916667	1	-0.030250
2.933333	1	-0.030375
2.950000	1	-0.030750
2.966667	1	-0.031250
2.983333	1	-0.031375
3.000000	1	-0.031250
3.016667	1	-0.031250
3.033333	1	-0.031250
3.050000	1	-0.030500
3.066667	1	-0.030625
3.083333	1	-0.030625
3.100000	1	-0.030625
3.116667	1	-0.030625
3.133333	1	-0.030250
3.150000	1	-0.030625
3.166667	1	-0.030250
3.183333	1	-0.030125
3.200000	1	-0.029625
3.216667	1	-0.030250
3.233333	1	-0.029875
3.250000	1	-0.029625
3.266667	1	-0.029125
3.283333	1	-0.028375
3.300000	1	-0.028375
3.316667	1	-0.028625
3.333333	1	-0.028750
3.350000	1	-0.028250
3.366667	1	-0.028750
3.383333	1	-0.029375
3.400000	1	-0.030250
3.416667	1	-0.030000
3.433333	1	-0.030000
3.450000	1	-0.029875
3.466667	1	-0.029750
3.483333	1	-0.029125
3.500000	1	-0.028500
3.516667	1	-0.028500
3.533333	1	-0.028625
3.550000	1	-0.028125
3.566667	1	-0.027500
3.583333	1	-0.027625
3.600000	1	-0.027625
3.616667	1	-0.027125
3.633333	1	-0.026125
3.650000	1	-0.025500
3.666667	1	-0.025375
3.683333	1	-0.024750
3.700000	1	-0.024250
3.716667	1	-0.023875
3.733333	1	-0.023375
3.750000	1	-0.022875
3.766667	1	-0.022250
3.783333	1	-0.021375
3.800000	1	-0.020000
3.816667	1	-0.019250
3.833333	1	-0.018000
3.850000	1	-0.018250
3.866667	1	-0.017875
3.883333	1	-0.017000
3.900000	1	-0.016750
3.916667	1	-0.016500
3.933333	1	-0.016625
3.950000	1	-0.016250
3.966667	1	-0.015625
3.983333	1	-0.015375
4.000000	1	-0.015000
4.016667	1	-0.014125
4.033333	1	-0.014000
4.050000	1	-0.013875
4.066667	1	-0.013875
4.083333	1	-0.013500
4.100000	1	-0.013000
4.116667	1	-0.012500
4.133333	1	-0.012875
4.150000	1	-0.012250
4.166667	1	-0.012500
4.183333	1	-0.011750
4.200000	1	-0.011000
4.216667	1	-0.010000
4.233333	1	-0.009375
4.250000	1	-0.009500
4.266667	1	-0.008625
4.283333	1	-0.007250
4.300000	1	-0.005875
4.316667	1	-0.004875
4.333333	1	-0.003875
4.350000	1	-0.002750
4.366667	1	-0.000500
4.383333	1	0.000375
4.400000	1	0.002250
4.416667	1	0.003250
4.433333	1	0.004375
4.450000	1	0.004750
4.466667	1	0.006125
4.483333	1	0.007875
4.500000	1	0.009875
4.516667	1	0.011125
4.533333	1	0.013000
4.550000	1	0.014375
4.566667	1	0.015250
4.583333	1	0.016875
4.600000	1	0.018250
4.616667	1	0.019500
4.633333	1	0.021250
4.650000	1	0.022500
4.666667	1	0.023500
4.683333	1	0.023125
4.700000	1	0.023250
4.716667	1	0.024750
4.733333	1	0.025875
4.750000	1	0.027250
4.766667	1	0.028000
4.783333	1	0.029125
4.800000	1	0.030250
4.816667	1	0.031625
4.833333	1	0.032625
4.850000	1	0.033250
4.866667	1	0.034625
4.883333	1	0.036125
4.900000	1	0.037125
4.916667	1	0.038125
4.933333	1	0.039000
4.950000	1	0.039750
4.966667	1	0.041375
4.983333	1	0.042250
5.000000	1	0.044250
5.016667	1	0.047000
5.033333	1	0.049250
5.050000	1	0.051000
5.066667	1	0.052500
5.083333	1	0.055375
5.100000	1	0.057750
5.116667	1	0.060000
5.133333	1	0.062750
5.150000	1	0.065625
5.166667	1	0.068875
5.183333	1	0.071875
5.200000	1	0.075500
5.216667	1	0.078875
5.233333	1	0.083000
5.250000	1	0.086875
5.266667	1	0.091625
5.283333	1	0.095750
5.300000	1	0.099875
5.316667	1	0.104375
5.333333	1	0.108375
5.350000	1	0.113000
5.366667	1	0.117250
5.383333	1	0.121875
5.400000	1	0.126875
5.416667	1	0.131625
5.433333	1	0.136000
5.450000	1	0.141125
5.466667	1	0.145750
5.483333	1	0.149750
5.500000	1	0.153625
5.516667	1	0.157250
5.533333	1	0.160625
5.550000	1	0.163875
5.566667	1	0.166875
5.583333	1	0.170375
5.600000	1	0.173000
5.616667	1	0.175250
5.633333	1	0.177375
5.650000	1	0.178750
5.666667	1	0.179875
5.683333	1	0.180750
5.700000	1	0.180625
5.716667	1	0.180875
5.733333	1	0.180750
5.750000	1	0.179750
5.766667	1	0.178375
5.783333	1	0.177125
5.800000	1	0.175500
5.816667	1	0.173000
5.833333	1	0.170625
5.850000	1	0.168250
5.866667	1	0.166000
5.883333	1	0.163375
5.900000	1	0.160500
5.916667	1	0.157500
5.933333	1	0.154250
5.950000	1	0.150500
5.966667	1	0.147125
5.983333	1	0.143000
6.000000	1	0.138750
6.016667	1	0.135000
6.033333	1	0.130875
6.050000	1	0.126875
6.066667	1	0.121625
6.083333	1	0.117375
6.100000	1	0.113625
6.116667	1	0.108625
6.133333	1	0.104875
6.150000	1	0.099500
6.166667	1	0.095000
6.183333	1	0.090000
6.200000	1	0.085125
6.216667	1	0.080000
6.233333	1	0.075750
6.250000	1	0.071625
6.266667	1	0.067250
6.283333	1	0.062000
6.300000	1	0.057375
6.316667	1	0.053875
6.333333	1	0.050000
6.350000	1	0.045125
6.366667	1	0.041750
6.383333	1	0.037375
6.400000	1	0.034125
6.416667	1	0.030750
6.433333	1	0.027875
6.450000	1	0.024875
6.466667	1	0.022125
6.483333	1	0.019250
6.500000	1	0.017125
6.516667	1	0.015125
6.533333	1	0.013250
6.550000	1	0.010625
6.566667	1	0.008875
6.583333	1	0.007125
6.600000	1	0.005750
6.616667	1	0.004375
6.633333	1	0.003125
6.650000	1	0.001125
6.666667	1	-0.000500
6.683333	1	-0.002125
6.700000	1	-0.003375
6.716667	1	-0.004500
6.733333	1	-0.005500
6.750000	1	-0.006750
6.766667	1	-0.007875
6.783333	1	-0.009000
6.800000	1	-0.010250
6.816667	1	-0.011625
6.833333	1	-0.012625
6.850000	1	-0.013000
6.866667	1	-0.014500
6.883333	1	-0.015375
6.900000	1	-0.016250
6.916667	1	-0.016625
6.933333	1	-0.016875
6.950000	1	-0.016875
6.966667	1	-0.017000
6.983333	1	-0.016250
7.000000	1	-0.015500
7.016667	1	-0.014000
7.033333	1	-0.013250
7.050000	1	-0.012000
7.066667	1	-0.010625
7.083333	1	-0.008750
7.100000	1	-0.007000
7.116667	1	-0.004000
7.133333	1	-0.001500
7.150000	1	0.001000
7.166667	1	0.003500
7.183333	1	0.006750
7.200000	1	0.010000
7.216667	1	0.012875
7.233333	1	0.016125
7.250000	1	0.018875
7.266667	1	0.022625
7.283333	1	0.026875
7.300000	1	0.030000
7.316667	1	0.033500
7.333333	1	0.036750
7.350000	1	0.040000
7.366667	1	0.043500
7.383333	1	0.046875
7.400000	1	0.050375
7.416667	1	0.052875
7.433333	1	0.055125
7.450000	1	0.057250
7.466667	1	0.059625
7.483333	1	0.060875
7.500000	1	0.062500
7.516667	1	0.063875
7.533333	1	0.064500
7.550000	1	0.065375
7.566667	1	0.066625
7.583333	1	0.067500
7.600000	1	0.067250
7.616667	1	0.067000
7.633333	1	0.066375
7.650000	1	0.064875
7.666667	1	0.063500
7.683333	1	0.062500
7.700000	1	0.060875
7.716667	1	0.059125
7.733333	1	0.057250
7.750000	1	0.054500
7.766667	1	0.051375
7.783333	1	0.048625
7.800000	1	0.044875
7.816667	1	0.040875
7.833333	1	0.036625
7.850000	1	0.033000
7.866667	1	0.029875
7.883333	1	0.026000
7.900000	1	0.022250
7.916667	1	0.017875
7.933333	1	0.013625
7.950000	1	0.010375
7.966667	1	0.006000
7.983333	1	0.001875
8.000000	1	-0.002500
8.016667	1	-0.006750
8.033333	1	-0.010875
8.050000	1	-0.015375
8.066667	1	-0.019500
8.083333	1	-0.024375
8.100000	1	-0.029500
8.116667	1	-0.033750
8.133333	1	-0.037500
8.150000	1	-0.041125
8.166667	1	-0.044625
8.183333	1	-0.049250
8.200000	1	-0.052625
8.216667	1	-0.055875
8.233333	1	-0.059125
8.250000	1	-0.062000
8.266667	1	-0.064750
8.283333	1	-0.067750
8.300000	1	-0.070625
8.316667	1	-0.072625
8.333333	1	-0.074750
8.350000	1	-0.076625
8.366667	1	-0.078875
8.383333	1	-0.080625
8.400000	1	-0.082375
8.416667	1	-0.083875
8.433333	1	-0.085375
8.450000	1	-0.086625
8.466667	1	-0.087875
8.483333	1	-0.088250
8.500000	1	-0.088500
8.516667	1	-0.089250
8.533333	1	-0.089500
8.550000	1	-0.090000
8.566667	1	-0.090125
8.583333	1	-0.091125
8.600000	1	-0.091625
8.616667	1	-0.091500
8.633333	1	-0.091125
8.650000	1	-0.091375
8.666667	1	-0.091250
8.683333	1	-0.091250
8.700000	1	-0.091250
8.716667	1	-0.090500
8.733333	1	-0.090125
8.750000	1	-0.089750
8.766667	1	-0.088875
8.783333	1	-0.087375
8.800000	1	-0.086875
8.816667	1	-0.086125
8.833333	1	-0.084875
8.850000	1	-0.083125
8.866667	1	-0.081375
8.883333	1	-0.079750
8.900000	1	-0.078125
8.916667	1	-0.076000
8.933333	1	-0.073500
8.950000	1	-0.071500
8.966667	1	-0.070125
8.983333	1	-0.068375
9.000000	1	-0.066250
9.016667	1	-0.064125
9.033333	1	-0.063125
9.050000	1	-0.060625
9.066667	1	-0.057875
9.083333	1	-0.055250
9.100000	1	-0.052625
9.116667	1	-0.049875
9.133333	1	-0.046750
9.150000	1	-0.044500
9.166667	1	-0.041500
9.183333	1	-0.039000
9.200000	1	-0.036875
9.216667	1	-0.034750
9.233333	1	-0.032500
9.250000	1	-0.031000
9.266667	1	-0.029375
9.283333	1	-0.027750
9.300000	1	-0.026125
9.316667	1	-0.025000
9.333333	1	-0.023750
9.350000	1	-0.022750
9.366667	1	-0.022125
9.383333	1	-0.022125
9.400000	1	-0.021375
9.416667	1	-0.020750
9.433333	1	-0.021500
9.450000	1	-0.022250
9.466667	1	-0.022375
9.483333	1	-0.023625
9.500000	1	-0.023875
9.516667	1	-0.024500
9.533333	1	-0.025750
9.550000	1	-0.027125
9.566667	1	-0.028375
9.583333	1	-0.029625
9.600000	1	-0.030875
9.616667	1	-0.032250
9.633333	1	-0.033875
9.650000	1	-0.035875
9.666667	1	-0.038125
9.683333	1	-0.041375
9.700000	1	-0.044250
9.716667	1	-0.045750
9.733333	1	-0.047500
9.750000	1	-0.049250
9.766667	1	-0.051125
9.783333	1	-0.053000
9.800000	1	-0.054875
9.816667	1	-0.057125
9.833333	1	-0.058750
9.850000	1	-0.061250
9.866667	1	-0.063625
9.883333	1	-0.065625
9.900000	1	-0.067875
9.916667	1	-0.070875
9.933333	1	-0.073375
9.950000	1	-0.075750
9.966667	1	-0.077500
9.983333	1	-0.079750
10.000000	1	-0.081375
10.016667	1	-0.083875
10.033333	1	-0.085250
10.050000	1	-0.085750
10.066667	1	-0.085875
10.083333	1	-0.085375
10.100000	1	-0.083750
10.116667	1	-0.081375
10.133333	1	-0.077500
10.150000	1	-0.073000
10.166667	1	-0.066500
10.183333	1	-0.059500
10.200000	1	-0.051375
10.216667	1	-0.041125
10.233333	1	-0.029750
10.250000	1	-0.016000
10.266667	1	0.000375
10.283333	1	0.019000
10.300000	1	0.039875
10.316667	1	0.063125
10.333333	1	0.089125
10.350000	1	0.117000
10.366667	1	0.146125
10.383333	1	0.174125
10.400000	1	0.199875
10.416667	1	0.219250
10.433333	1	0.228750
10.450000	1	0.221750
10.466667	1	0.195625
10.483333	1	0.150250
10.500000	1	0.092375
10.516667	1	0.040750
10.533333	1	0.031500
10.550000	1	0.119500
10.566667	1	0.374750
10.583333	1	0.879625
10.600000	1	1.715625
10.616667	1	2.956500
10.633333	1	4.659000
10.650000	1	6.861250
10.666667	1	9.586750
10.683333	1	12.837125
10.700000	1	16.596375
10.716667	1	20.820875
10.733333	1	25.437625
10.750000	1	30.332000
10.766667	1	35.325875
10.783333	1	40.165125
10.800000	1	44.512750
10.816667	1	47.947250
10.833333	1	50.034000
10.850000	1	50.427750
10.866667	1	48.990625
10.883333	1	45.861875
10.900000	1	41.435750
10.916667	1	36.253875
10.933333	1	30.856875
10.950000	1	25.674875
10.966667	1	20.988000
10.983333	1	16.927625
11.000000	1	13.524625
11.016667	1	10.746875
11.033333	1	8.529375
11.050000	1	6.788125
11.066667	1	5.436750
11.083333	1	4.398750
11.100000	1	3.604625
11.116667	1	2.998625
11.133333	1	2.535625
11.150000	1	2.180500
11.166667	1	1.906625
11.183333	1	1.692750
11.200000	1	1.525250
11.216667	1	1.392375
11.233333	1	1.285000
11.250000	1	1.196750
11.266667	1	1.123750
11.283333	1	1.062125
11.300000	1	1.010875
11.316667	1	0.967000
11.333333	1	0.930125
11.350000	1	0.898125
11.366667	1	0.870500
11.383333	1	0.846375
11.400000	1	0.826500
11.416667	1	0.807875
11.433333	1	0.792000
11.450000	1	0.778500
11.466667	1	0.766750
11.483333	1	0.756250
11.500000	1	0.747125
11.516667	1	0.739375
11.533333	1	0.733375
11.550000	1	0.727750
11.566667	1	0.723875
11.583333	1	0.722125
11.600000	1	0.720750
11.616667	1	0.720000
11.633333	1	0.720250
11.650000	1	0.722750
11.666667	1	0.726125
11.683333	1	0.731375
11.700000	1	0.737500
11.716667	1	0.745250
11.733333	1	0.753375
11.750000	1	0.762250
11.766667	1	0.772250
11.783333	1	0.781750
11.800000	1	0.792625
11.816667	1	0.803375
11.833333	1	0.813750
11.850000	1	0.823875
11.866667	1	0.832375
11.883333	1	0.840375
11.900000	1	0.848125
11.916667	1	0.854000
11.933333	1	0.859625
11.950000	1	0.865375
11.966667	1	0.870875
11.983333	1	0.875500
12.000000	1	0.880000
12.016667	1	0.884625
12.033333	1	0.889375
12.050000	1	0.895000
12.066667	1	0.901000
12.083333	1	0.906625
12.100000	1	0.913375
12.116667	1	0.920500
12.133333	1	0.928625
12.150000	1	0.936250
12.166667	1	0.944750
12.183333	1	0.953750
12.200000	1	0.965000
12.216667	1	0.978000
12.233333	1	0.992250
12.250000	1	1.010375
12.266667	1	1.033125
12.283333	1	1.061000
12.300000	1	1.096125
12.316667	1	1.140750
12.333333	1	1.198125
12.350000	1	1.271625
12.366667	1	1.364625
12.383333	1	1.482125
12.400000	1	1.628375
12.416667	1	1.808500
12.433333	1	2.025375
12.450000	1	2.286750
12.466667	1	2.596750
12.483333	1	2.959125
12.500000	1	3.378250
12.516667	1	3.856250
12.533333	1	4.393000
12.550000	1	4.987125
12.566667	1	5.632875
12.583333	1	6.323250
12.600000	1	7.045375
12.616667	1	7.784250
12.633333	1	8.526375
12.650000	1	9.255500
12.666667	1	9.960000
12.683333	1	10.629125
12.700000	1	11.257250
12.716667	1	11.843375
12.733333	1	12.390000
12.750000	1	12.904500
12.766667	1	13.395750
12.783333	1	13.875250
12.800000	1	14.353875
12.816667	1	14.841125
12.833333	1	15.346375
12.850000	1	15.876375
12.866667	1	16.435875
12.883333	1	17.027875
12.900000	1	17.652250
12.916667	1	18.309500
12.933333	1	18.997625
12.950000	1	19.715125
12.966667	1	20.461375
12.983333	1	21.233375
13.000000	1	22.030250
13.016667	1	22.849500
13.033333	1	23.691875
13.050000	1	24.555875
13.066667	1	25.440250
13.083333	1	26.347250
13.100000	1	27.274125
13.116667	1	28.221625
13.133333	1	29.188750
13.150000	1	30.173875
13.166667	1	31.177750
13.183333	1	32.201125
13.200000	1	33.242750
13.216667	1	34.302500
13.233333	1	35.381375
13.250000	1	36.481375
13.266667	1	37.602750
13.283333	1	38.745875
13.300000	1	39.910625
13.316667	1	41.097750
13.333333	1	42.308250
13.350000	1	43.541750
13.366667	1	44.798875
13.383333	1	46.080125
13.400000	1	47.385875
13.416667	1	48.716000
13.433333	1	50.072000
13.450000	1	51.456250
13.466667	1	52.869500
13.483333	1	54.312625
13.500000	1	55.786625
13.516667	1	57.291500
13.533333	1	58.827250
13.550000	1	60.393625
13.566667	1	61.991125
13.583333	1	63.621500
13.600000	1	65.284250
13.616667	1	66.978875
13.633333	1	68.709250
13.650000	1	70.477000
13.666667	1	72.283000
13.683333	1	74.128500
13.700000	1	76.003875
13.716667	1	77.872750
13.733333	1	79.634125
13.750000	1	81.096750
13.766667	1	81.974250
13.783333	1	81.931250
13.800000	1	80.635250
13.816667	1	77.779000
13.833333	1	73.146250
13.850000	1	66.734250
13.866667	1	58.882000
13.883333	1	50.264375
13.900000	1	41.691375
13.916667	1	33.840250
13.933333	1	27.099625
13.950000	1	21.568875
13.966667	1	17.162500
13.983333	1	13.718625
14.000000	1	11.065375
14.016667	1	9.043000
14.033333	1	7.521375
14.050000	1	6.388000
14.066667	1	5.549375
14.083333	1	4.929875
14.100000	1	4.469875
14.116667	1	4.124750
14.133333	1	3.860750
14.150000	1	3.654625
14.166667	1	3.490250
14.183333	1	3.357000
14.200000	1	3.244625
14.216667	1	3.149375
14.233333	1	3.066375
14.250000	1	2.993000
14.266667	1	2.927875
14.283333	1	2.869625
14.300000	1	2.817000
14.316667	1	2.770500
14.333333	1	2.727625
14.350000	1	2.690625
14.366667	1	2.658000
14.383333	1	2.630875
14.400000	1	2.610500
14.416667	1	2.599000
14.433333	1	2.597625
14.450000	1	2.609750
14.466667	1	2.641125
14.483333	1	2.698375
14.500000	1	2.790250
14.516667	1	2.934125
14.533333	1	3.151000
14.550000	1	3.470000
14.566667	1	3.929250
14.583333	1	4.578375
14.600000	1	5.478000
14.616667	1	6.699875
14.633333	1	8.324250
14.650000	1	10.435750
14.666667	1	13.112000
14.683333	1	16.415750
14.700000	1	20.381750
14.716667	1	25.002250
14.733333	1	30.226250
14.750000	1	35.947625
14.766667	1	41.998750
14.783333	1	48.155750
14.800000	1	54.160750
14.816667	1	59.737875
14.833333	1	64.607000
14.850000	1	68.510750
14.866667	1	71.240625
14.883333	1	72.658125
14.900000	1	72.709750
14.916667	1	71.429750
14.933333	1	68.934750
14.950000	1	65.405500
14.966667	1	61.067375
14.983333	1	56.172000
15.000000	1	50.959125
15.016667	1	45.649125
15.033333	1	40.427250
15.050000	1	35.445875
15.066667	1	30.812500
15.083333	1	26.596875
15.100000	1	22.831750
15.116667	1	19.524375
15.133333	1	16.655875
15.150000	1	14.194625
15.166667	1	12.101875
15.183333	1	10.335625
15.200000	1	8.853625
15.216667	1	7.615000
15.233333	1	6.584625
15.250000	1	5.731750
15.266667	1	5.029000
15.283333	1	4.452250
15.300000	1	3.981750
15.316667	1	3.602250
15.333333	1	3.297500
15.350000	1	3.055875
15.366667	1	2.867875
15.383333	1	2.724000
15.400000	1	2.615750
15.416667	1	2.535500
15.433333	1	2.477500
15.450000	1	2.437125
15.466667	1	2.407250
15.483333	1	2.383500
15.500000	1	2.362875
15.516667	1	2.342625
15.533333	1	2.319125
15.550000	1	2.292875
15.566667	1	2.261875
15.583333	1	2.227750
15.600000	1	2.191125
15.616667	1	2.153125
15.633333	1	2.114375
15.650000	1	2.077375
15.666667	1	2.041500
15.683333	1	2.008875
15.700000	1	1.978000
15.716667	1	1.948375
15.733333	1	1.920875
15.750000	1	1.894500
15.766667	1	1.868250
15.783333	1	1.841750
15.800000	1	1.813625
15.816667	1	1.785500
15.833333	1	1.756625
15.850000	1	1.727500
15.866667	1	1.699000
15.883333	1	1.671250
15.900000	1	1.645750
15.916667	1	1.622125
15.933333	1	1.602000
15.950000	1	1.584500
15.966667	1	1.570625
15.983333	1	1.560625
16.000000	1	1.552750
16.016667	1	1.547125
16.033333	1	1.542750
16.050000	1	1.539875
16.066667	1	1.536625
16.083333	1	1.532000
16.100000	1	1.526250
16.116667	1	1.519500
16.133333	1	1.511000
16.150000	1	1.500125
16.166667	1	1.487500
16.183333	1	1.473125
16.200000	1	1.457875
16.216667	1	1.440625
16.233333	1	1.422125
16.250000	1	1.403625
16.266667	1	1.385000
16.283333	1	1.365500
16.300000	1	1.345875
16.316667	1	1.327625
16.333333	1	1.309000
16.350000	1	1.291500
16.366667	1	1.274875
16.383333	1	1.260250
16.400000	1	1.247375
16.416667	1	1.237125
16.433333	1	1.228750
16.450000	1	1.223250
16.466667	1	1.219875
16.483333	1	1.219750
16.500000	1	1.221250
16.516667	1	1.224500
16.533333	1	1.229250
16.550000	1	1.234375
16.566667	1	1.239500
16.583333	1	1.244000
16.600000	1	1.247625
16.616667	1	1.249625
16.633333	1	1.249625
16.650000	1	1.247875
16.666667	1	1.244250
16.683333	1	1.239625
16.700000	1	1.234250
16.716667	1	1.228375
16.733333	1	1.222375
16.750000	1	1.217750
16.766667	1	1.214125
16.783333	1	1.211125
16.800000	1	1.210250
16.816667	1	1.210375
16.833333	1	1.211250
16.850000	1	1.212500
16.866667	1	1.214625
16.883333	1	1.216250
16.900000	1	1.217500
16.916667	1	1.217500
16.933333	1	1.216250
16.950000	1	1.213000
16.966667	1	1.208375
16.983333	1	1.203375
17.000000	1	1.195875
17.016667	1	1.188125
17.033333	1	1.179750
17.050000	1	1.171125
17.066667	1	1.162250
17.083333	1	1.153875
17.100000	1	1.145750
17.116667	1	1.139375
17.133333	1	1.133500
17.150000	1	1.128000
17.166667	1	1.123750
17.183333	1	1.121500
17.200000	1	1.118625
17.216667	1	1.117625
17.233333	1	1.118625
17.250000	1	1.119750
17.266667	1	1.122125
17.283333	1	1.125375
17.300000	1	1.129375
17.316667	1	1.133750
17.333333	1	1.138750
17.350000	1	1.143750
17.366667	1	1.148875
17.383333	1	1.153625
17.400000	1	1.159250
17.416667	1	1.164000
17.433333	1	1.168250
17.450000	1	1.171000
17.466667	1	1.173750
17.483333	1	1.175000
17.500000	1	1.174125
17.516667	1	1.171625
17.533333	1	1.167625
17.550000	1	1.162250
17.566667	1	1.155000
17.583333	1	1.146250
17.600000	1	1.135625
17.616667	1	1.124625
17.633333	1	1.112625
17.650000	1	1.100000
17.666667	1	1.086125
17.683333	1	1.072500
17.700000	1	1.058250
17.716667	1	1.043875
17.733333	1	1.030250
17.750000	1	1.017125
17.766667	1	1.004250
17.783333	1	0.991375
17.800000	1	0.979750
17.816667	1	0.968625
17.833333	1	0.957500
17.850000	1	0.947375
17.866667	1	0.937375
17.883333	1	0.928750
17.900000	1	0.920375
17.916667	1	0.911875
17.933333	1	0.904000
17.950000	1	0.896000
17.966667	1	0.888250
17.983333	1	0.880875
18.000000	1	0.873000
18.016667	1	0.865625
18.033333	1	0.858875
18.050000	1	0.851375
18.066667	1	0.844375
18.083333	1	0.837250
18.100000	1	0.830750
18.116667	1	0.824625
18.133333	1	0.820375
18.150000	1	0.816125
18.166667	1	0.813375
18.183333	1	0.810875
18.200000	1	0.809750
18.216667	1	0.809000
18.233333	1	0.808875
18.250000	1	0.810750
18.266667	1	0.812125
18.283333	1	0.814250
18.300000	1	0.817000
18.316667	1	0.819375
18.333333	1	0.823375
18.350000	1	0.827375
18.366667	1	0.831500
18.383333	1	0.836875
18.400000	1	0.843125
18.416667	1	0.849000
18.433333	1	0.856625
18.450000	1	0.864500
18.466667	1	0.873875
18.483333	1	0.885500
18.500000	1	0.898375
18.516667	1	0.912750
18.533333	1	0.928500
18.550000	1	0.946625
18.566667	1	0.965875
18.583333	1	0.987375
18.600000	1	1.010375
18.616667	1	1.034125
18.633333	1	1.059875
18.650000	1	1.087500
18.666667	1	1.116125
18.683333	1	1.145500
18.700000	1	1.176750
18.716667	1	1.208125
18.733333	1	1.240500
18.750000	1	1.273125
18.766667	1	1.306875
18.783333	1	1.339875
18.800000	1	1.372000
18.816667	1	1.402500
18.833333	1	1.432000
18.850000	1	1.458000
18.866667	1	1.480000
18.883333	1	1.498500
18.900000	1	1.511625
18.916667	1	1.518000
18.933333	1	1.518375
18.950000	1	1.512000
18.966667	1	1.499875
18.983333	1	1.480875
19.000000	1	1.454625
19.016667	1	1.422125
19.033333	1	1.385125
19.050000	1	1.343250
19.066667	1	1.298625
19.083333	1	1.252750
19.100000	1	1.206000
19.116667	1	1.162625
19.133333	1	1.121750
19.150000	1	1.086375
19.166667	1	1.057000
19.183333	1	1.036625
19.200000	1	1.027500
19.216667	1	1.030625
19.233333	1	1.047875
19.250000	1	1.081625
19.266667	1	1.133125
19.283333	1	1.204375
19.300000	1	1.294875
19.316667	1	1.406500
19.333333	1	1.538375
19.350000	1	1.689250
19.366667	1	1.857000
19.383333	1	2.039000
19.400000	1	2.231625
19.416667	1	2.429250
19.433333	1	2.624750
19.450000	1	2.811625
19.466667	1	2.986125
19.483333	1	3.139625
19.500000	1	3.267875
19.516667	1	3.366375
19.533333	1	3.432125
19.550000	1	3.463000
19.566667	1	3.458750
19.583333	1	3.421125
19.600000	1	3.351375
19.616667	1	3.253875
19.633333	1	3.131875
19.650000	1	2.989500
19.666667	1	2.833375
19.683333	1	2.668000
19.700000	1	2.497625
19.716667	1	2.326375
19.733333	1	2.158125
19.750000	1	1.995500
19.766667	1	1.840875
19.783333	1	1.695750
19.800000	1	1.560625
19.816667	1	1.435250
19.833333	1	1.320500
19.850000	1	1.216750
19.866667	1	1.122875
19.883333	1	1.039000
19.900000	1	0.964375
19.916667	1	0.899250
19.933333	1	0.840875
19.950000	1	0.790500
19.966667	1	0.746000
19.983333	1	0.708250
20.000000	1	0.676250
20.016667	1	0.650000
20.033333	1	0.628875
20.050000	1	0.612875
20.066667	1	0.601125
20.083333	1	0.593875
20.100000	1	0.590375
20.116667	1	0.588750
20.133333	1	0.593625
20.150000	1	0.600625
20.166667	1	0.610875
20.183333	1	0.622750
20.200000	1	0.636500
20.216667	1	0.651125
20.233333	1	0.665250
20.250000	1	0.678375
20.266667	1	0.690125
20.283333	1	0.700375
20.300000	1	0.707750
20.316667	1	0.712000
20.333333	1	0.713750
20.350000	1	0.711000
20.366667	1	0.705125
20.383333	1	0.696125
20.400000	1	0.684250
20.416667	1	0.670000
20.433333	1	0.655125
20.450000	1	0.638750
20.466667	1	0.622500
20.483333	1	0.606625
20.500000	1	0.592375
20.516667	1	0.581250
20.533333	1	0.574000
20.550000	1	0.570375
20.566667	1	0.572125
20.583333	1	0.580125
20.600000	1	0.594875
20.616667	1	0.617250
20.633333	1	0.648125
20.650000	1	0.686875
20.666667	1	0.734375
20.683333	1	0.790625
20.700000	1	0.856250
20.716667	1	0.929125
20.733333	1	1.008750
20.750000	1	1.093125
20.766667	1	1.181125
20.783333	1	1.269125
20.800000	1	1.356000
20.816667	1	1.437875
20.833333	1	1.512250
20.850000	1	1.576875
20.866667	1	1.628750
20.883333	1	1.667250
20.900000	1	1.690625
20.916667	1	1.698625
20.933333	1	1.691000
20.950000	1	1.668750
20.966667	1	1.633000
20.983333	1	1.585750
21.000000	1	1.528500
21.016667	1	1.463875
21.033333	1	1.393750
21.050000	1	1.320250
21.066667	1	1.245375
21.083333	1	1.171250
21.100000	1	1.099625
21.116667	1	1.030375
21.133333	1	0.965625
21.150000	1	0.906125
21.166667	1	0.850500
21.183333	1	0.801125
21.200000	1	0.756250
21.216667	1	0.716250
21.233333	1	0.680625
21.250000	1	0.649375
21.266667	1	0.622875
21.283333	1	0.599250
21.300000	1	0.578875
21.316667	1	0.560875
21.333333	1	0.546000
21.350000	1	0.533625
21.366667	1	0.521625
21.383333	1	0.512000
21.400000	1	0.503000
21.416667	1	0.495500
21.433333	1	0.488625
21.450000	1	0.482875
21.466667	1	0.477000
21.483333	1	0.472250
21.500000	1	0.467750
21.516667	1	0.463875
21.533333	1	0.460375
21.550000	1	0.458000
21.566667	1	0.455875
21.583333	1	0.454125
21.600000	1	0.454000
21.616667	1	0.454125
21.633333	1	0.456125
21.650000	1	0.458625
21.666667	1	0.462000
21.683333	1	0.468125
21.700000	1	0.475750
21.716667	1	0.485250
21.733333	1	0.495625
21.750000	1	0.506500
21.766667	1	0.520000
21.783333	1	0.534125
21.800000	1	0.549250
21.816667	1	0.566000
21.833333	1	0.582250
21.850000	1	0.598625
21.866667	1	0.615250
21.883333	1	0.631000
21.900000	1	0.646625
21.916667	1	0.661125
21.933333	1	0.674375
21.950000	1	0.685625
21.966667	1	0.695375
21.983333	1	0.704000
22.000000	1	0.710375
22.016667	1	0.715375
22.033333	1	0.717750
22.050000	1	0.718500
22.066667	1	0.718250
22.083333	1	0.715875
22.100000	1	0.713375
22.116667	1	0.709125
22.133333	1	0.704125
22.150000	1	0.697375
22.166667	1	0.690375
22.183333	1	0.682000
22.200000	1	0.672500
22.216667	1	0.662250
22.233333	1	0.651625
22.250000	1	0.639750
22.266667	1	0.627750
22.283333	1	0.614375
22.300000	1	0.601500
22.316667	1	0.587625
22.333333	1	0.573125
22.350000	1	0.558750
22.366667	1	0.544500
22.383333	1	0.530125
22.400000	1	0.516000
22.416667	1	0.502375
22.433333	1	0.489500
22.450000	1	0.477125
22.466667	1	0.465375
22.483333	1	0.454625
22.500000	1	0.444375
22.516667	1	0.434750
22.533333	1	0.426125
22.550000	1	0.417750
22.566667	1	0.410125
22.583333	1	0.403625
22.600000	1	0.397500
22.616667	1	0.391750
22.633333	1	0.386000
22.650000	1	0.381875
22.666667	1	0.377375
22.683333	1	0.372875
22.700000	1	0.368750
22.716667	1	0.365375
22.733333	1	0.361125
22.750000	1	0.357625
22.766667	1	0.354125
22.783333	1	0.350875
22.800000	1	0.347375
22.816667	1	0.344750
22.833333	1	0.342750
22.850000	1	0.339750
22.866667	1	0.337875
22.883333	1	0.335875
22.900000	1	0.333875
22.916667	1	0.332500
22.933333	1	0.330500
22.950000	1	0.329000
22.966667	1	0.328500
22.983333	1	0.327250
23.000000	1	0.327250
23.016667	1	0.326500
23.033333	1	0.325875
23.050000	1	0.326250
23.066667	1	0.327500
23.083333	1	0.328750
23.100000	1	0.329875
23.116667	1	0.331125
23.133333	1	0.331750
23.150000	1	0.333250
23.166667	1	0.333625
23.183333	1	0.335500
23.200000	1	0.336500
23.216667	1	0.338250
23.233333	1	0.340125
23.250000	1	0.342500
23.266667	1	0.345500
23.283333	1	0.349125
23.300000	1	0.354500
23.316667	1	0.361875
23.333333	1	0.371500
23.350000	1	0.384125
23.366667	1	0.401250
23.383333	1	0.422750
23.400000	1	0.450375
23.416667	1	0.485875
23.433333	1	0.530125
23.450000	1	0.585375
23.466667	1	0.652125
23.483333	1	0.733875
23.500000	1	0.832000
23.516667	1	0.948875
23.533333	1	1.086000
23.550000	1	1.245750
23.566667	1	1.428000
23.583333	1	1.634375
23.600000	1	1.865375
23.616667	1	2.118000
23.633333	1	2.392125
23.650000	1	2.685375
23.666667	1	2.994375
23.683333	1	3.313750
23.700000	1	3.638500
23.716667	1	3.962875
23.733333	1	4.280375
23.750000	1	4.583375
23.766667	1	4.864375
23.783333	1	5.116875
23.800000	1	5.335500
23.816667	1	5.513500
23.833333	1	5.648250
23.850000	1	5.736625
23.866667	1	5.776750
23.883333	1	5.769125
23.900000	1	5.715625
23.916667	1	5.617500
23.933333	1	5.478625
23.950000	1	5.304500
23.966667	1	5.100500
23.983333	1	4.871625
24.000000	1	4.623625
24.016667	1	4.363500
24.033333	1	4.094250
24.050000	1	3.823750
24.066667	1	3.555250
24.083333	1	3.292000
24.100000	1	3.037750
24.116667	1	2.794750
24.133333	1	2.564125
24.150000	1	2.347125
24.166667	1	2.145750
24.183333	1	1.959750
24.200000	1	1.788625
24.216667	1	1.632125
24.233333	1	1.490000
24.250000	1	1.361625
24.266667	1	1.246000
24.283333	1	1.142250
24.300000	1	1.050500
24.316667	1	0.968000
24.333333	1	0.896000
24.350000	1	0.832875
24.366667	1	0.778125
24.383333	1	0.729875
24.400000	1	0.689000
24.416667	1	0.654000
24.433333	1	0.624250
24.450000	1	0.599625
24.466667	1	0.579500
24.483333	1	0.563000
24.500000	1	0.549375
24.516667	1	0.538375
24.533333	1	0.528625
24.550000	1	0.521875
24.566667	1	0.516625
24.583333	1	0.511875
24.600000	1	0.507625
24.616667	1	0.504625
24.633333	1	0.502000
24.650000	1	0.498375
24.666667	1	0.495375
24.683333	1	0.491250
24.700000	1	0.487000
24.716667	1	0.483625
24.733333	1	0.479250
24.750000	1	0.475125
24.766667	1	0.470750
24.783333	1	0.465625
24.800000	1	0.459625
24.816667	1	0.454625
24.833333	1	0.449500
24.850000	1	0.444750
24.866667	1	0.439000
24.883333	1	0.433375
24.900000	1	0.427625
24.916667	1	0.422625
24.933333	1	0.417750
24.950000	1	0.412125
24.966667	1	0.407000
24.983333	1	0.402125
25.000000	1	0.397375
25.016667	1	0.392875
25.033333	1	0.387875
25.050000	1	0.382750
25.066667	1	0.377375
25.083333	1	0.372625
25.100000	1	0.368000
25.116667	1	0.363375
25.133333	1	0.358375
25.150000	1	0.353375
25.166667	1	0.348375
25.183333	1	0.343625
25.200000	1	0.338875
25.216667	1	0.334250
25.233333	1	0.328500
25.250000	1	0.323875
25.266667	1	0.320125
25.283333	1	0.315375
25.300000	1	0.311375
25.316667	1	0.307375
25.333333	1	0.303250
25.350000	1	0.299750
25.366667	1	0.296125
25.383333	1	0.293000
25.400000	1	0.290875
25.416667	1	0.288250
25.433333	1	0.285875
25.450000	1	0.285500
25.466667	1	0.284000
25.483333	1	0.283000
25.500000	1	0.283125
25.516667	1	0.283125
25.533333	1	0.283375
25.550000	1	0.283625
25.566667	1	0.284375
25.583333	1	0.285250
25.600000	1	0.286625
25.616667	1	0.288000
25.633333	1	0.289250
25.650000	1	0.289500
25.666667	1	0.291375
25.683333	1	0.293000
25.700000	1	0.294875
25.716667	1	0.296250
25.733333	1	0.297875
25.750000	1	0.299750
25.766667	1	0.301375
25.783333	1	0.302250
25.800000	1	0.303000
25.816667	1	0.304375
25.833333	1	0.306250
25.850000	1	0.307875
25.866667	1	0.309625
25.883333	1	0.311125
25.900000	1	0.312875
25.916667	1	0.315750
25.933333	1	0.318250
25.950000	1	0.321500
25.966667	1	0.325125
25.983333	1	0.328625
26.000000	1	0.332125
26.016667	1	0.336375
26.033333	1	0.340250
26.050000	1	0.345000
26.066667	1	0.349750
26.083333	1	0.354750
26.100000	1	0.360125
26.116667	1	0.365500
26.133333	1	0.371000
26.150000	1	0.377000
26.166667	1	0.382375
26.183333	1	0.387000
26.200000	1	0.391875
26.216667	1	0.396500
26.233333	1	0.400625
26.250000	1	0.404500
26.266667	1	0.407875
26.283333	1	0.410500
26.300000	1	0.412750
26.316667	1	0.414000
26.333333	1	0.414750
26.350000	1	0.414250
26.366667	1	0.413250
26.383333	1	0.411750
26.400000	1	0.409250
26.416667	1	0.406000
26.433333	1	0.401750
26.450000	1	0.397500
26.466667	1	0.392750
26.483333	1	0.387500
26.500000	1	0.382125
26.516667	1	0.376000
26.533333	1	0.369875
26.550000	1	0.363000
26.566667	1	0.356375
26.583333	1	0.349000
26.600000	1	0.342750
26.616667	1	0.336250
26.633333	1	0.329625
26.650000	1	0.323250
26.666667	1	0.317000
26.683333	1	0.311750
26.700000	1	0.306500
26.716667	1	0.301750
26.733333	1	0.296750
26.750000	1	0.292750
26.766667	1	0.288375
26.783333	1	0.284250
26.800000	1	0.280625
26.816667	1	0.277625
26.833333	1	0.274625
26.850000	1	0.272500
26.866667	1	0.270500
26.883333	1	0.268375
26.900000	1	0.267125
26.916667	1	0.266000
26.933333	1	0.265125
26.950000	1	0.265500
26.966667	1	0.265500
26.983333	1	0.265750
27.000000	1	0.266875
27.016667	1	0.268750
27.033333	1	0.270625
27.050000	1	0.273500
27.066667	1	0.277000
27.083333	1	0.280750
27.100000	1	0.285750
27.116667	1	0.291875
27.133333	1	0.298750
27.150000	1	0.306750
27.166667	1	0.315375
27.183333	1	0.325750
27.200000	1	0.337875
27.216667	1	0.351500
27.233333	1	0.368250
27.250000	1	0.387875
27.266667	1	0.411125
27.283333	1	0.437625
27.300000	1	0.469125
27.316667	1	0.506125
27.333333	1	0.547750
27.350000	1	0.596500
27.366667	1	0.652375
27.383333	1	0.716125
27.400000	1	0.789500
27.416667	1	0.873250
27.433333	1	0.967125
27.450000	1	1.073250
27.466667	1	1.191375
27.483333	1	1.322125
27.500000	1	1.465750
27.516667	1	1.622750
27.533333	1	1.792125
27.550000	1	1.973125
27.566667	1	2.166250
27.583333	1	2.368125
27.600000	1	2.578500
27.616667	1	2.794875
27.633333	1	3.016250
27.650000	1	3.238125
27.666667	1	3.458500
27.683333	1	3.674125
27.700000	1	3.881375
27.716667	1	4.076750
27.733333	1	4.257000
27.750000	1	4.417750
27.766667	1	4.556875
27.783333	1	4.672250
27.800000	1	4.760500
27.816667	1	4.820625
27.833333	1	4.851125
27.850000	1	4.851875
27.866667	1	4.822375
27.883333	1	4.762875
27.900000	1	4.676500
27.916667	1	4.563250
27.933333	1	4.426500
27.950000	1	4.269125
27.966667	1	4.093375
27.983333	1	3.903625
28.000000	1	3.703375
28.016667	1	3.495625
28.033333	1	3.283625
28.050000	1	3.069875
28.066667	1	2.856875
28.083333	1	2.649000
28.100000	1	2.446500
28.116667	1	2.252000
28.133333	1	2.067875
28.150000	1	1.893375
28.166667	1	1.730750
28.183333	1	1.580000
28.200000	1	1.440125
28.216667	1	1.311750
28.233333	1	1.195375
28.250000	1	1.090125
28.266667	1	0.995000
28.283333	1	0.909875
28.300000	1	0.834375
28.316667	1	0.767250
28.333333	1	0.709000
28.350000	1	0.658125
28.366667	1	0.614750
28.383333	1	0.577875
28.400000	1	0.547125
28.416667	1	0.521000
28.433333	1	0.500500
28.450000	1	0.485500
28.466667	1	0.473375
28.483333	1	0.465625
28.500000	1	0.460875
28.516667	1	0.459750
28.533333	1	0.461125
28.550000	1	0.465000
28.566667	1	0.471750
28.583333	1	0.479375
28.600000	1	0.488750
28.616667	1	0.499000
28.633333	1	0.510750
28.650000	1	0.523250
28.666667	1	0.536250
28.683333	1	0.549250
28.700000	1	0.562625
28.716667	1	0.575625
28.733333	1	0.588375
28.750000	1	0.600125
28.766667	1	0.611625
28.783333	1	0.621875
28.800000	1	0.631125
28.816667	1	0.639125
28.833333	1	0.646500
28.850000	1	0.653500
28.866667	1	0.658500
28.883333	1	0.662500
28.900000	1	0.664875
28.916667	1	0.666125
28.933333	1	0.666000
28.950000	1	0.664625
28.966667	1	0.661875
28.983333	1	0.657500
29.000000	1	0.652750
29.016667	1	0.646750
29.033333	1	0.639000
29.050000	1	0.630375
29.066667	1	0.620625
29.083333	1	0.609750
29.100000	1	0.598750
29.116667	1	0.587000
29.133333	1	0.574750
29.150000	1	0.562000
29.166667	1	0.548875
29.183333	1	0.535750
29.200000	1	0.522000
29.216667	1	0.508125
29.233333	1	0.493875
29.250000	1	0.479750
29.266667	1	0.465750
29.283333	1	0.451500
29.300000	1	0.437625
29.316667	1	0.423875
29.333333	1	0.411000
29.350000	1	0.397625
29.366667	1	0.384875
29.383333	1	0.372500
29.400000	1	0.360375
29.416667	1	0.349250
29.433333	1	0.336750
29.450000	1	0.325750
29.466667	1	0.315125
29.483333	1	0.305375
29.500000	1	0.296250
29.516667	1	0.287875
29.533333	1	0.279000
29.550000	1	0.271375
29.566667	1	0.264375
29.583333	1	0.257625
29.600000	1	0.251250
29.616667	1	0.245000
29.633333	1	0.239375
29.650000	1	0.235000
29.666667	1	0.230125
29.683333	1	0.226000
29.700000	1	0.222500
29.716667	1	0.219125
29.733333	1	0.215125
29.750000	1	0.212000
29.766667	1	0.210125
29.783333	1	0.207625
29.800000	1	0.206000
29.816667	1	0.204500
29.833333	1	0.203375
29.850000	1	0.201875
29.866667	1	0.200625
29.883333	1	0.200250
29.900000	1	0.199625
29.916667	1	0.199250
29.933333	1	0.199250
29.950000	1	0.198500
29.966667	1	0.198250
29.983333	1	0.197875
30.000000	1	0.198000
30.016667	1	0.197125
30.033333	1	0.197125
30.050000	1	0.197125
30.066667	1	0.196375
30.083333	1	0.196625
30.100000	1	0.196750
30.116667	1	0.196375
30.133333	1	0.196500
30.150000	1	0.196250
30.166667	1	0.196250
30.183333	1	0.196125
30.200000	1	0.196500
30.216667	1	0.196875
30.233333	1	0.196750
30.250000	1	0.197250
30.266667	1	0.197000
30.283333	1	0.197250
30.300000	1	0.198000
30.316667	1	0.198000
30.333333	1	0.197500
30.350000	1	0.197375
30.366667	1	0.198125
30.383333	1	0.198500
30.400000	1	0.199250
30.416667	1	0.199375
30.433333	1	0.199750
30.450000	1	0.201750
30.466667	1	0.203375
30.483333	1	0.204875
30.500000	1	0.206250
30.516667	1	0.208500
30.533333	1	0.211875
30.550000	1	0.215375
30.566667	1	0.219125
30.583333	1	0.223500
30.600000	1	0.228625
30.616667	1	0.234500
30.633333	1	0.240500
30.650000	1	0.247250
30.666667	1	0.254000
30.683333	1	0.261250
30.700000	1	0.269750
30.716667	1	0.279375
30.733333	1	0.289000
30.750000	1	0.299250
30.766667	1	0.309875
30.783333	1	0.322000
30.800000	1	0.334625
30.816667	1	0.347750
30.833333	1	0.362375
30.850000	1	0.377625
30.866667	1	0.394500
30.883333	1	0.413500
30.900000	1	0.434250
30.916667	1	0.457375
30.933333	1	0.482875
30.950000	1	0.510875
30.966667	1	0.542625
30.983333	1	0.579000
31.000000	1	0.620250
31.016667	1	0.667125
31.033333	1	0.721250
31.050000	1	0.782875
31.066667	1	0.853125
31.083333	1	0.932500
31.100000	1	1.023000
31.116667	1	1.125250
31.133333	1	1.239875
31.150000	1	1.367375
31.166667	1	1.510375
31.183333	1	1.668250
31.200000	1	1.842125
31.216667	1	2.032750
31.233333	1	2.239500
31.250000	1	2.462125
31.266667	1	2.699750
31.283333	1	2.952500
31.300000	1	3.217625
31.316667	1	3.494250
31.333333	1	3.779750
31.350000	1	4.071750
31.366667	1	4.368250
31.383333	1	4.664750
31.400000	1	4.959250
31.416667	1	5.248250
31.433333	1	5.527500
31.450000	1	5.793375
31.466667	1	6.042000
31.483333	1	6.270000
31.500000	1	6.474500
31.516667	1	6.652750
31.533333	1	6.802500
31.550000	1	6.921625
31.566667	1	7.008375
31.583333	1	7.063375
31.600000	1	7.085000
31.616667	1	7.073250
31.633333	1	7.029625
31.650000	1	6.953750
31.666667	1	6.847875
31.683333	1	6.715750
31.700000	1	6.557625
31.716667	1	6.377875
31.733333	1	6.177625
31.750000	1	5.960625
31.766667	1	5.730375
31.783333	1	5.489125
31.800000	1	5.238750
31.816667	1	4.983750
31.833333	1	4.725000
31.850000	1	4.465500
31.866667	1	4.209500
31.883333	1	3.957000
31.900000	1	3.710625
31.916667	1	3.471000
31.933333	1	3.239875
31.950000	1	3.017875
31.966667	1	2.805875
31.983333	1	2.604125
32.000000	1	2.413375
32.016667	1	2.232125
32.033333	1	2.062750
32.050000	1	1.904125
32.066667	1	1.756875
32.083333	1	1.619250
32.100000	1	1.491625
32.116667	1	1.373125
32.133333	1	1.263625
32.150000	1	1.162750
32.166667	1	1.069500
32.183333	1	0.984625
32.200000	1	0.906625
32.216667	1	0.834750
32.233333	1	0.768625
32.250000	1	0.708875
32.266667	1	0.654625
32.283333	1	0.604500
32.300000	1	0.559250
32.316667	1	0.518500
32.333333	1	0.481750
32.350000	1	0.448125
32.366667	1	0.417875
32.383333	1	0.389625
32.400000	1	0.364500
32.416667	1	0.342375
32.433333	1	0.322750
32.450000	1	0.304250
32.466667	1	0.288125
32.483333	1	0.274125
32.500000	1	0.261250
32.516667	1	0.249625
32.533333	1	0.239250
32.550000	1	0.230375
32.566667	1	0.221750
32.583333	1	0.214125
32.600000	1	0.207000
32.616667	1	0.200875
32.633333	1	0.194875
32.650000	1	0.190125
32.666667	1	0.185125
32.683333	1	0.180000
32.700000	1	0.176375
32.716667	1	0.171875
32.733333	1	0.169375
32.750000	1	0.165750
32.766667	1	0.163000
32.783333	1	0.160500
32.800000	1	0.157750
32.816667	1	0.155375
32.833333	1	0.152875
32.850000	1	0.150750
32.866667	1	0.149000
32.883333	1	0.146500
32.900000	1	0.145000
32.916667	1	0.142750
32.933333	1	0.141000
32.950000	1	0.139625
32.966667	1	0.138500
32.983333	1	0.137125
33.000000	1	0.136000
33.016667	1	0.135125
33.033333	1	0.133000
33.050000	1	0.131750
33.066667	1	0.130250
33.083333	1	0.129500
33.100000	1	0.129500
33.116667	1	0.128875
33.133333	1	0.128000
33.150000	1	0.127125
33.166667	1	0.126375
33.183333	1	0.125750
33.200000	1	0.124875
33.216667	1	0.125000
33.233333	1	0.125000
33.250000	1	0.124250
33.266667	1	0.124375
33.283333	1	0.124625
33.300000	1	0.124750
33.316667	1	0.124875
33.333333	1	0.125500
33.350000	1	0.126000
33.366667	1	0.126375
33.383333	1	0.128000
33.400000	1	0.129250
33.416667	1	0.130500
33.433333	1	0.131500
33.450000	1	0.132625
33.466667	1	0.133625
33.483333	1	0.135000
33.500000	1	0.136750
33.516667	1	0.139125
33.533333	1	0.140625
33.550000	1	0.142375
33.566667	1	0.144375
33.583333	1	0.146250
33.600000	1	0.148875
33.616667	1	0.151250
33.633333	1	0.153125
33.650000	1	0.155125
33.666667	1	0.157375
33.683333	1	0.160250
33.700000	1	0.162875
33.716667	1	0.165250
33.733333	1	0.168250
33.750000	1	0.172125
33.766667	1	0.175375
33.783333	1	0.178875
33.800000	1	0.181250
33.816667	1	0.184875
33.833333	1	0.187500
33.850000	1	0.190375
33.866667	1	0.193250
33.883333	1	0.196375
33.900000	1	0.200000
33.916667	1	0.203625
33.933333	1	0.206750
33.950000	1	0.209750
33.966667	1	0.212750
33.983333	1	0.216000
34.000000	1	0.218500
34.016667	1	0.220125
34.033333	1	0.221875
34.050000	1	0.223750
34.066667	1	0.225625
34.083333	1	0.226375
34.100000	1	0.227875
34.116667	1	0.228750
34.133333	1	0.229125
34.150000	1	0.230375
34.166667	1	0.231375
34.183333	1	0.231000
34.200000	1	0.231000
34.216667	1	0.230750
34.233333	1	0.230250
34.250000	1	0.229875
34.266667	1	0.228875
34.283333	1	0.229000
34.300000	1	0.229250
34.316667	1	0.229625
34.333333	1	0.230125
34.350000	1	0.231875
34.366667	1	0.231875
34.383333	1	0.232250
34.400000	1	0.232250
34.416667	1	0.233125
34.433333	1	0.234250
34.450000	1	0.234750
34.466667	1	0.234750
34.483333	1	0.236000
34.500000	1	0.236875
34.516667	1	0.238000
34.533333	1	0.238500
34.550000	1	0.239000
34.566667	1	0.239875
34.583333	1	0.240500
34.600000	1	0.241375
34.616667	1	0.242375
34.633333	1	0.242750
34.650000	1	0.243250
34.666667	1	0.243500
34.683333	1	0.243250
34.700000	1	0.244125
34.716667	1	0.244500
34.733333	1	0.244375
34.750000	1	0.244250
34.766667	1	0.244500
34.783333	1	0.244125
34.800000	1	0.244125
34.816667	1	0.244000
34.833333	1	0.243000
34.850000	1	0.242375
34.866667	1	0.242375
34.883333	1	0.241250
34.900000	1	0.240625
34.916667	1	0.239875
34.933333	1	0.238625
34.950000	1	0.237750
34.966667	1	0.236875
34.983333	1	0.236000
35.000000	1	0.235500
35.016667	1	0.234500
35.033333	1	0.233500
35.050000	1	0.232375
35.066667	1	0.231625
35.083333	1	0.230750
35.100000	1	0.229500
35.116667	1	0.228750
35.133333	1	0.228000
35.150000	1	0.227750
35.166667	1	0.226875
35.183333	1	0.225500
35.200000	1	0.225125
35.216667	1	0.224625
35.233333	1	0.223125
35.250000	1	0.221625
35.266667	1	0.220875
35.283333	1	0.220375
35.300000	1	0.219625
35.316667	1	0.219000
35.333333	1	0.218625
35.350000	1	0.217875
35.366667	1	0.218250
35.383333	1	0.217875
35.400000	1	0.217750
35.416667	1	0.217250
35.433333	1	0.217250
35.450000	1	0.217250
35.466667	1	0.217250
35.483333	1	0.217750
35.500000	1	0.218375
35.516667	1	0.219250
35.533333	1	0.219125
35.550000	1	0.219875
35.566667	1	0.220375
35.583333	1	0.220500
35.600000	1	0.221125
35.616667	1	0.221375
35.633333	1	0.222000
35.650000	1	0.222500
35.666667	1	0.223000
35.683333	1	0.223750
35.700000	1	0.224375
35.716667	1	0.225500
35.733333	1	0.225750
35.750000	1	0.226125
35.766667	1	0.227500
35.783333	1	0.228250
35.800000	1	0.227625
35.816667	1	0.227125
35.833333	1	0.226750
35.850000	1	0.226000
35.866667	1	0.225500
35.883333	1	0.225250
35.900000	1	0.224750
35.916667	1	0.224125
35.933333	1	0.223375
35.950000	1	0.222875
35.966667	1	0.221625
35.983333	1	0.220625
36.000000	1	0.219125
36.016667	1	0.217375
36.033333	1	0.216750
36.050000	1	0.215875
36.066667	1	0.215125
36.083333	1	0.213625
36.100000	1	0.213125
36.116667	1	0.212000
36.133333	1	0.211375
36.150000	1	0.210750
36.166667	1	0.210125
36.183333	1	0.210125
36.200000	1	0.210000
36.216667	1	0.209875
36.233333	1	0.210000
36.250000	1	0.210125
36.266667	1	0.210375
36.283333	1	0.210125
36.300000	1	0.210125
36.316667	1	0.211000
36.333333	1	0.210625
36.350000	1	0.211375
36.366667	1	0.211000
36.383333	1	0.210625
36.400000	1	0.209875
36.416667	1	0.209375
36.433333	1	0.208500
36.450000	1	0.208125
36.466667	1	0.207500
36.483333	1	0.206750
36.500000	1	0.205625
36.516667	1	0.204750
36.533333	1	0.203500
36.550000	1	0.201500
36.566667	1	0.199250
36.583333	1	0.197125
36.600000	1	0.194750
36.616667	1	0.192000
36.633333	1	0.189750
36.650000	1	0.187375
36.666667	1	0.185250
36.683333	1	0.182375
36.700000	1	0.179500
36.716667	1	0.177375
36.733333	1	0.174625
36.750000	1	0.172250
36.766667	1	0.169750
36.783333	1	0.167375
36.800000	1	0.165125
36.816667	1	0.162625
36.833333	1	0.159875
36.850000	1	0.157125
36.866667	1	0.155000
36.883333	1	0.152750
36.900000	1	0.151625
36.916667	1	0.150125
36.933333	1	0.148500
36.950000	1	0.147125
36.966667	1	0.146500
36.983333	1	0.145625
37.000000	1	0.145750
37.016667	1	0.145250
37.033333	1	0.144750
37.050000	1	0.144375
37.066667	1	0.143625
37.083333	1	0.143625
37.100000	1	0.143125
37.116667	1	0.143000
37.133333	1	0.143000
37.150000	1	0.142875
37.166667	1	0.143250
37.183333	1	0.143250
37.200000	1	0.144000
37.216667	1	0.144875
37.233333	1	0.144625
37.250000	1	0.144250
37.266667	1	0.144125
37.283333	1	0.144250
37.300000	1	0.144625
37.316667	1	0.144750
37.333333	1	0.145375
37.350000	1	0.145625
37.366667	1	0.145125
37.383333	1	0.144750
37.400000	1	0.143750
37.416667	1	0.143250
37.433333	1	0.143250
37.450000	1	0.142000
37.466667	1	0.141375
37.483333	1	0.140625
37.500000	1	0.140250
37.516667	1	0.140125
37.533333	1	0.139000
37.550000	1	0.138125
37.566667	1	0.137500
37.583333	1	0.136875
37.600000	1	0.135750
37.616667	1	0.135500
37.633333	1	0.135375
37.650000	1	0.135125
37.666667	1	0.134625
37.683333	1	0.134625
37.700000	1	0.133875
37.716667	1	0.133625
37.733333	1	0.133250
37.750000	1	0.133000
37.766667	1	0.133000
37.783333	1	0.133375
37.800000	1	0.133875
37.816667	1	0.134500
37.833333	1	0.134625
37.850000	1	0.134875
37.866667	1	0.134875
37.883333	1	0.135250
37.900000	1	0.136625
37.916667	1	0.137500
37.933333	1	0.138875
37.950000	1	0.139875
37.966667	1	0.142000
37.983333	1	0.143500
38.000000	1	0.144000
38.016667	1	0.144625
38.033333	1	0.145375
38.050000	1	0.146750
38.066667	1	0.148125
38.083333	1	0.149625
38.100000	1	0.150750
38.116667	1	0.152125
38.133333	1	0.153250
38.150000	1	0.154625
38.166667	1	0.155125
38.183333	1	0.155875
38.200000	1	0.157250
38.216667	1	0.158500
38.233333	1	0.159375
38.250000	1	0.159875
38.266667	1	0.160625
38.283333	1	0.162000
38.300000	1	0.162625
38.316667	1	0.163250
38.333333	1	0.164250
38.350000	1	0.164125
38.366667	1	0.164625
38.383333	1	0.165375
38.400000	1	0.166000
38.416667	1	0.166125
38.433333	1	0.167250
38.450000	1	0.167000
38.466667	1	0.167250
38.483333	1	0.166625
38.500000	1	0.166000
38.516667	1	0.165875
38.533333	1	0.166375
38.550000	1	0.166125
38.566667	1	0.165750
38.583333	1	0.165500
38.600000	1	0.165625
38.616667	1	0.166000
38.633333	1	0.164875
38.650000	1	0.164625
38.666667	1	0.164375
38.683333	1	0.163500
38.700000	1	0.163250
38.716667	1	0.162625
38.733333	1	0.162250
38.750000	1	0.161875
38.766667	1	0.161375
38.783333	1	0.161250
38.800000	1	0.161000
38.816667	1	0.160500
38.833333	1	0.160875
38.850000	1	0.160750
38.866667	1	0.160375
38.883333	1	0.161250
38.900000	1	0.161750
38.916667	1	0.161625
38.933333	1	0.162500
38.950000	1	0.163000
38.966667	1	0.162750
38.983333	1	0.163250
39.000000	1	0.164375
39.016667	1	0.165000
39.033333	1	0.165750
39.050000	1	0.166500
39.066667	1	0.166750
39.083333	1	0.167375
39.100000	1	0.168000
39.116667	1	0.167875
39.133333	1	0.167375
39.150000	1	0.168125
39.166667	1	0.169750
39.183333	1	0.170375
39.200000	1	0.171000
39.216667	1	0.171750
39.233333	1	0.171500
39.250000	1	0.171750
39.266667	1	0.171625
39.283333	1	0.171500
39.300000	1	0.171625
39.316667	1	0.172125
39.333333	1	0.171375
39.350000	1	0.170625
39.366667	1	0.169875
39.383333	1	0.169500
39.400000	1	0.169000
39.416667	1	0.168125
39.433333	1	0.167500
39.450000	1	0.167375
39.466667	1	0.167000
39.483333	1	0.165875
39.500000	1	0.165250
39.516667	1	0.164125
39.533333	1	0.163000
39.550000	1	0.162000
39.566667	1	0.161125
39.583333	1	0.159500
39.600000	1	0.157875
39.616667	1	0.156250
39.633333	1	0.154625
39.650000	1	0.153625
39.666667	1	0.152000
39.683333	1	0.149875
39.700000	1	0.148125
39.716667	1	0.146125
39.733333	1	0.143375
39.750000	1	0.141000
39.766667	1	0.138375
39.783333	1	0.135750
39.800000	1	0.132500
39.816667	1	0.129375
39.833333	1	0.126125
39.850000	1	0.123250
39.866667	1	0.120750
39.883333	1	0.117750
39.900000	1	0.115125
39.916667	1	0.112000
39.933333	1	0.108500
39.950000	1	0.105375
39.966667	1	0.102250
39.983333	1	0.099750
40.000000	1	0.096375
