URL	chrom://bioreactor/micro_cm7/HPLC_Ultimate_3000/Users/markusar/20240708_MA_pHrange1.seq/370.smp/RI_1.channel/RI_1.chm
Channel	RI_1

Injection Information:
Data Vault	micro_cm7
Sequence	20240708_MA_pHrange1
Name	Pv2_6.5_4
Number	10
Position	BA10
Comment	
Processing Method	
Instrument Method	run_25B_method
Type	Unknown
Status	Finished
Inject Time	08.07.2024 21:43:12 +02:00
Volume (µl)	20.0000
Dilution Factor	1.0000
Weight	1.0000

Chromatogram Data Information:
Time Min. (min)	0.000000
Time Max. (min)	40.000000
Data Points	2401
Detector	RI
Generating Data System	Chromeleon 7.3.2.11814
Exporting Data System	Chromeleon 7.3.2.0
Operator	Instrument Controller
Signal Quantity	Refractive 
Signal Unit	µRIU
Signal Min.	-0.129750
Signal Max.	82.091625
Channel	RI_1
Driver Name	RID520Driver.dll
Channel Type	Evaluation
Min. Step (s)	1
Max. Step (s)	1
Average Step (s)	1

Signal Parameter Information:
Signal Info	

Chromatogram Data:
Time (min)	Step (s)	Value (µRIU)
0.000000	n.a.	-0.001625
0.016667	1	-0.000500
0.033333	1	0.000625
0.050000	1	0.002625
0.066667	1	0.004500
0.083333	1	0.006500
0.100000	1	0.008125
0.116667	1	0.009875
0.133333	1	0.011125
0.150000	1	0.012875
0.166667	1	0.014000
0.183333	1	0.015625
0.200000	1	0.016750
0.216667	1	0.017500
0.233333	1	0.018000
0.250000	1	0.019000
0.266667	1	0.019625
0.283333	1	0.019375
0.300000	1	0.019500
0.316667	1	0.019250
0.333333	1	0.019125
0.350000	1	0.018375
0.366667	1	0.017250
0.383333	1	0.015625
0.400000	1	0.015375
0.416667	1	0.015250
0.433333	1	0.016750
0.450000	1	0.018125
0.466667	1	0.019250
0.483333	1	0.020000
0.500000	1	0.021250
0.516667	1	0.021250
0.533333	1	0.021125
0.550000	1	0.020750
0.566667	1	0.019500
0.583333	1	0.017750
0.600000	1	0.016000
0.616667	1	0.013750
0.633333	1	0.012375
0.650000	1	0.011125
0.666667	1	0.010625
0.683333	1	0.010875
0.700000	1	0.011375
0.716667	1	0.012500
0.733333	1	0.013500
0.750000	1	0.013250
0.766667	1	0.013875
0.783333	1	0.014875
0.800000	1	0.015625
0.816667	1	0.017125
0.833333	1	0.018125
0.850000	1	0.019250
0.866667	1	0.020375
0.883333	1	0.021125
0.900000	1	0.022250
0.916667	1	0.023000
0.933333	1	0.024250
0.950000	1	0.025375
0.966667	1	0.026500
0.983333	1	0.027000
1.000000	1	0.027875
1.016667	1	0.028625
1.033333	1	0.029125
1.050000	1	0.029500
1.066667	1	0.030625
1.083333	1	0.031375
1.100000	1	0.031750
1.116667	1	0.032000
1.133333	1	0.032375
1.150000	1	0.033500
1.166667	1	0.034000
1.183333	1	0.034000
1.200000	1	0.034625
1.216667	1	0.034250
1.233333	1	0.034250
1.250000	1	0.033625
1.266667	1	0.033750
1.283333	1	0.033375
1.300000	1	0.033375
1.316667	1	0.033375
1.333333	1	0.032625
1.350000	1	0.031875
1.366667	1	0.030750
1.383333	1	0.029750
1.400000	1	0.028500
1.416667	1	0.027000
1.433333	1	0.025375
1.450000	1	0.024250
1.466667	1	0.023250
1.483333	1	0.021500
1.500000	1	0.019500
1.516667	1	0.018000
1.533333	1	0.016500
1.550000	1	0.014500
1.566667	1	0.012250
1.583333	1	0.010375
1.600000	1	0.008750
1.616667	1	0.007000
1.633333	1	0.005750
1.650000	1	0.003875
1.666667	1	0.002875
1.683333	1	0.000750
1.700000	1	-0.000750
1.716667	1	-0.001750
1.733333	1	-0.002875
1.750000	1	-0.004375
1.766667	1	-0.005625
1.783333	1	-0.006375
1.800000	1	-0.007500
1.816667	1	-0.008000
1.833333	1	-0.009125
1.850000	1	-0.009875
1.866667	1	-0.010375
1.883333	1	-0.010250
1.900000	1	-0.010500
1.916667	1	-0.011375
1.933333	1	-0.012125
1.950000	1	-0.012750
1.966667	1	-0.013125
1.983333	1	-0.013625
2.000000	1	-0.014500
2.016667	1	-0.014750
2.033333	1	-0.015000
2.050000	1	-0.014875
2.066667	1	-0.015000
2.083333	1	-0.015625
2.100000	1	-0.015625
2.116667	1	-0.015500
2.133333	1	-0.016125
2.150000	1	-0.016625
2.166667	1	-0.016500
2.183333	1	-0.016875
2.200000	1	-0.017250
2.216667	1	-0.018000
2.233333	1	-0.019000
2.250000	1	-0.019000
2.266667	1	-0.019500
2.283333	1	-0.020000
2.300000	1	-0.020750
2.316667	1	-0.022000
2.333333	1	-0.022750
2.350000	1	-0.023500
2.366667	1	-0.024125
2.383333	1	-0.024875
2.400000	1	-0.025375
2.416667	1	-0.025875
2.433333	1	-0.026375
2.450000	1	-0.026500
2.466667	1	-0.027625
2.483333	1	-0.028250
2.500000	1	-0.029250
2.516667	1	-0.029375
2.533333	1	-0.029750
2.550000	1	-0.029625
2.566667	1	-0.030125
2.583333	1	-0.030750
2.600000	1	-0.031375
2.616667	1	-0.032500
2.633333	1	-0.033500
2.650000	1	-0.034000
2.666667	1	-0.034000
2.683333	1	-0.034125
2.700000	1	-0.035625
2.716667	1	-0.036250
2.733333	1	-0.037625
2.750000	1	-0.038125
2.766667	1	-0.039250
2.783333	1	-0.040000
2.800000	1	-0.040750
2.816667	1	-0.041750
2.833333	1	-0.042125
2.850000	1	-0.043000
2.866667	1	-0.043250
2.883333	1	-0.044250
2.900000	1	-0.044500
2.916667	1	-0.044875
2.933333	1	-0.045750
2.950000	1	-0.045750
2.966667	1	-0.046250
2.983333	1	-0.046000
3.000000	1	-0.046000
3.016667	1	-0.044750
3.033333	1	-0.044625
3.050000	1	-0.044250
3.066667	1	-0.044000
3.083333	1	-0.043125
3.100000	1	-0.042000
3.116667	1	-0.041375
3.133333	1	-0.039875
3.150000	1	-0.039250
3.166667	1	-0.037375
3.183333	1	-0.035625
3.200000	1	-0.034375
3.216667	1	-0.033250
3.233333	1	-0.031375
3.250000	1	-0.030250
3.266667	1	-0.027875
3.283333	1	-0.025750
3.300000	1	-0.023875
3.316667	1	-0.022875
3.333333	1	-0.020625
3.350000	1	-0.018625
3.366667	1	-0.016000
3.383333	1	-0.013000
3.400000	1	-0.010750
3.416667	1	-0.008125
3.433333	1	-0.005500
3.450000	1	-0.002500
3.466667	1	0.000000
3.483333	1	0.002500
3.500000	1	0.004375
3.516667	1	0.005625
3.533333	1	0.007250
3.550000	1	0.010250
3.566667	1	0.012500
3.583333	1	0.014125
3.600000	1	0.016000
3.616667	1	0.018250
3.633333	1	0.019750
3.650000	1	0.021000
3.666667	1	0.022875
3.683333	1	0.023750
3.700000	1	0.024375
3.716667	1	0.025500
3.733333	1	0.026375
3.750000	1	0.026750
3.766667	1	0.027125
3.783333	1	0.027375
3.800000	1	0.028125
3.816667	1	0.028375
3.833333	1	0.029125
3.850000	1	0.029500
3.866667	1	0.030250
3.883333	1	0.030000
3.900000	1	0.029125
3.916667	1	0.027625
3.933333	1	0.027250
3.950000	1	0.027250
3.966667	1	0.027125
3.983333	1	0.026875
4.000000	1	0.025875
4.016667	1	0.025375
4.033333	1	0.025250
4.050000	1	0.024375
4.066667	1	0.024250
4.083333	1	0.023750
4.100000	1	0.023375
4.116667	1	0.023250
4.133333	1	0.023125
4.150000	1	0.023000
4.166667	1	0.022625
4.183333	1	0.022375
4.200000	1	0.022125
4.216667	1	0.022250
4.233333	1	0.022625
4.250000	1	0.021750
4.266667	1	0.021625
4.283333	1	0.021125
4.300000	1	0.020875
4.316667	1	0.020250
4.333333	1	0.019625
4.350000	1	0.019375
4.366667	1	0.019500
4.383333	1	0.018875
4.400000	1	0.018375
4.416667	1	0.017875
4.433333	1	0.017750
4.450000	1	0.017750
4.466667	1	0.017750
4.483333	1	0.017875
4.500000	1	0.017250
4.516667	1	0.017500
4.533333	1	0.017625
4.550000	1	0.018000
4.566667	1	0.018625
4.583333	1	0.019000
4.600000	1	0.019375
4.616667	1	0.020125
4.633333	1	0.022000
4.650000	1	0.023500
4.666667	1	0.024875
4.683333	1	0.026125
4.700000	1	0.027875
4.716667	1	0.029500
4.733333	1	0.032875
4.750000	1	0.034625
4.766667	1	0.036250
4.783333	1	0.038250
4.800000	1	0.040500
4.816667	1	0.042375
4.833333	1	0.045375
4.850000	1	0.047750
4.866667	1	0.050375
4.883333	1	0.053750
4.900000	1	0.056250
4.916667	1	0.058500
4.933333	1	0.060750
4.950000	1	0.064000
4.966667	1	0.068000
4.983333	1	0.071750
5.000000	1	0.075000
5.016667	1	0.078375
5.033333	1	0.081250
5.050000	1	0.084875
5.066667	1	0.089125
5.083333	1	0.092625
5.100000	1	0.096750
5.116667	1	0.100750
5.133333	1	0.104625
5.150000	1	0.108250
5.166667	1	0.112125
5.183333	1	0.116750
5.200000	1	0.120750
5.216667	1	0.125250
5.233333	1	0.129125
5.250000	1	0.133625
5.266667	1	0.137625
5.283333	1	0.142000
5.300000	1	0.145875
5.316667	1	0.150000
5.333333	1	0.154625
5.350000	1	0.158500
5.366667	1	0.162625
5.383333	1	0.165875
5.400000	1	0.169750
5.416667	1	0.173875
5.433333	1	0.177625
5.450000	1	0.181125
5.466667	1	0.184500
5.483333	1	0.187125
5.500000	1	0.190250
5.516667	1	0.193125
5.533333	1	0.195875
5.550000	1	0.197125
5.566667	1	0.198875
5.583333	1	0.201375
5.600000	1	0.203000
5.616667	1	0.204375
5.633333	1	0.205125
5.650000	1	0.205875
5.666667	1	0.207000
5.683333	1	0.207375
5.700000	1	0.207750
5.716667	1	0.207500
5.733333	1	0.206625
5.750000	1	0.205250
5.766667	1	0.203625
5.783333	1	0.201875
5.800000	1	0.200250
5.816667	1	0.198000
5.833333	1	0.195000
5.850000	1	0.191750
5.866667	1	0.187750
5.883333	1	0.184250
5.900000	1	0.181125
5.916667	1	0.177250
5.933333	1	0.173250
5.950000	1	0.168000
5.966667	1	0.162375
5.983333	1	0.155125
6.000000	1	0.149250
6.016667	1	0.143750
6.033333	1	0.138500
6.050000	1	0.133250
6.066667	1	0.127625
6.083333	1	0.122375
6.100000	1	0.116750
6.116667	1	0.111125
6.133333	1	0.106125
6.150000	1	0.101250
6.166667	1	0.096500
6.183333	1	0.091500
6.200000	1	0.087000
6.216667	1	0.082875
6.233333	1	0.078125
6.250000	1	0.074625
6.266667	1	0.071375
6.283333	1	0.068125
6.300000	1	0.064750
6.316667	1	0.060750
6.333333	1	0.057750
6.350000	1	0.055000
6.366667	1	0.052125
6.383333	1	0.050250
6.400000	1	0.047500
6.416667	1	0.045500
6.433333	1	0.043500
6.450000	1	0.041125
6.466667	1	0.039000
6.483333	1	0.037375
6.500000	1	0.036000
6.516667	1	0.034500
6.533333	1	0.033250
6.550000	1	0.032250
6.566667	1	0.030625
6.583333	1	0.029250
6.600000	1	0.028250
6.616667	1	0.026875
6.633333	1	0.026000
6.650000	1	0.024500
6.666667	1	0.023500
6.683333	1	0.022625
6.700000	1	0.021625
6.716667	1	0.021250
6.733333	1	0.020375
6.750000	1	0.019125
6.766667	1	0.018750
6.783333	1	0.018250
6.800000	1	0.017375
6.816667	1	0.016375
6.833333	1	0.016125
6.850000	1	0.016250
6.866667	1	0.015125
6.883333	1	0.015000
6.900000	1	0.014500
6.916667	1	0.014250
6.933333	1	0.014750
6.950000	1	0.014625
6.966667	1	0.015125
6.983333	1	0.015625
7.000000	1	0.016750
7.016667	1	0.017250
7.033333	1	0.018375
7.050000	1	0.020250
7.066667	1	0.022125
7.083333	1	0.024250
7.100000	1	0.026375
7.116667	1	0.029125
7.133333	1	0.031875
7.150000	1	0.034750
7.166667	1	0.037375
7.183333	1	0.040375
7.200000	1	0.043625
7.216667	1	0.046500
7.233333	1	0.049750
7.250000	1	0.052625
7.266667	1	0.055750
7.283333	1	0.059125
7.300000	1	0.062875
7.316667	1	0.066625
7.333333	1	0.069625
7.350000	1	0.072750
7.366667	1	0.075375
7.383333	1	0.078250
7.400000	1	0.081375
7.416667	1	0.083750
7.433333	1	0.085625
7.450000	1	0.087125
7.466667	1	0.088125
7.483333	1	0.089875
7.500000	1	0.091125
7.516667	1	0.091250
7.533333	1	0.091125
7.550000	1	0.090625
7.566667	1	0.089750
7.583333	1	0.088375
7.600000	1	0.087000
7.616667	1	0.085750
7.633333	1	0.083750
7.650000	1	0.080750
7.666667	1	0.077875
7.683333	1	0.075125
7.700000	1	0.071625
7.716667	1	0.067625
7.733333	1	0.064250
7.750000	1	0.061000
7.766667	1	0.057125
7.783333	1	0.052250
7.800000	1	0.048125
7.816667	1	0.043750
7.833333	1	0.039000
7.850000	1	0.034500
7.866667	1	0.029750
7.883333	1	0.024500
7.900000	1	0.020500
7.916667	1	0.016250
7.933333	1	0.011625
7.950000	1	0.006875
7.966667	1	0.002750
7.983333	1	-0.001750
8.000000	1	-0.005750
8.016667	1	-0.009750
8.033333	1	-0.013375
8.050000	1	-0.017250
8.066667	1	-0.021000
8.083333	1	-0.025125
8.100000	1	-0.028375
8.116667	1	-0.031125
8.133333	1	-0.034125
8.150000	1	-0.037000
8.166667	1	-0.040250
8.183333	1	-0.042625
8.200000	1	-0.045875
8.216667	1	-0.048375
8.233333	1	-0.050875
8.250000	1	-0.052875
8.266667	1	-0.054875
8.283333	1	-0.056875
8.300000	1	-0.058250
8.316667	1	-0.059625
8.333333	1	-0.061375
8.350000	1	-0.062750
8.366667	1	-0.064250
8.383333	1	-0.065250
8.400000	1	-0.066125
8.416667	1	-0.066875
8.433333	1	-0.067375
8.450000	1	-0.067625
8.466667	1	-0.067625
8.483333	1	-0.067875
8.500000	1	-0.068000
8.516667	1	-0.067125
8.533333	1	-0.066750
8.550000	1	-0.066250
8.566667	1	-0.064625
8.583333	1	-0.064250
8.600000	1	-0.063500
8.616667	1	-0.062375
8.633333	1	-0.061500
8.650000	1	-0.060000
8.666667	1	-0.059125
8.683333	1	-0.058250
8.700000	1	-0.057500
8.716667	1	-0.056250
8.733333	1	-0.054375
8.750000	1	-0.053125
8.766667	1	-0.052000
8.783333	1	-0.051250
8.800000	1	-0.050250
8.816667	1	-0.049000
8.833333	1	-0.049000
8.850000	1	-0.048250
8.866667	1	-0.047000
8.883333	1	-0.046125
8.900000	1	-0.044750
8.916667	1	-0.043625
8.933333	1	-0.042875
8.950000	1	-0.042125
8.966667	1	-0.041125
8.983333	1	-0.040250
9.000000	1	-0.039375
9.016667	1	-0.038500
9.033333	1	-0.038125
9.050000	1	-0.037500
9.066667	1	-0.037375
9.083333	1	-0.036375
9.100000	1	-0.035500
9.116667	1	-0.034250
9.133333	1	-0.033875
9.150000	1	-0.033875
9.166667	1	-0.033500
9.183333	1	-0.033250
9.200000	1	-0.033375
9.216667	1	-0.034250
9.233333	1	-0.033875
9.250000	1	-0.033875
9.266667	1	-0.033750
9.283333	1	-0.034000
9.300000	1	-0.034500
9.316667	1	-0.034375
9.333333	1	-0.034375
9.350000	1	-0.034625
9.366667	1	-0.035125
9.383333	1	-0.035875
9.400000	1	-0.036375
9.416667	1	-0.036750
9.433333	1	-0.037125
9.450000	1	-0.037375
9.466667	1	-0.037375
9.483333	1	-0.037750
9.500000	1	-0.038000
9.516667	1	-0.038375
9.533333	1	-0.038750
9.550000	1	-0.038250
9.566667	1	-0.038625
9.583333	1	-0.039000
9.600000	1	-0.039875
9.616667	1	-0.040125
9.633333	1	-0.040875
9.650000	1	-0.040750
9.666667	1	-0.041875
9.683333	1	-0.043375
9.700000	1	-0.044000
9.716667	1	-0.044500
9.733333	1	-0.045375
9.750000	1	-0.045750
9.766667	1	-0.045875
9.783333	1	-0.047000
9.800000	1	-0.047500
9.816667	1	-0.048375
9.833333	1	-0.048875
9.850000	1	-0.049500
9.866667	1	-0.050375
9.883333	1	-0.051500
9.900000	1	-0.052750
9.916667	1	-0.053125
9.933333	1	-0.054500
9.950000	1	-0.055125
9.966667	1	-0.055750
9.983333	1	-0.056375
10.000000	1	-0.057625
10.016667	1	-0.058375
10.033333	1	-0.058750
10.050000	1	-0.058875
10.066667	1	-0.057875
10.083333	1	-0.056875
10.100000	1	-0.055125
10.116667	1	-0.053125
10.133333	1	-0.049375
10.150000	1	-0.044750
10.166667	1	-0.039250
10.183333	1	-0.032125
10.200000	1	-0.024125
10.216667	1	-0.014500
10.233333	1	-0.003875
10.250000	1	0.008750
10.266667	1	0.024250
10.283333	1	0.041125
10.300000	1	0.061000
10.316667	1	0.083500
10.333333	1	0.108500
10.350000	1	0.135375
10.366667	1	0.163000
10.383333	1	0.188750
10.400000	1	0.210500
10.416667	1	0.225250
10.433333	1	0.228250
10.450000	1	0.214250
10.466667	1	0.181000
10.483333	1	0.130625
10.500000	1	0.072625
10.516667	1	0.029750
10.533333	1	0.040625
10.550000	1	0.164375
10.566667	1	0.471625
10.583333	1	1.043875
10.600000	1	1.959875
10.616667	1	3.290375
10.633333	1	5.087875
10.650000	1	7.387375
10.666667	1	10.206875
10.683333	1	13.545250
10.700000	1	17.380625
10.716667	1	21.667375
10.733333	1	26.325125
10.750000	1	31.228500
10.766667	1	36.190375
10.783333	1	40.949500
10.800000	1	45.153500
10.816667	1	48.380625
10.833333	1	50.205250
10.850000	1	50.311125
10.866667	1	48.602625
10.883333	1	45.258000
10.900000	1	40.697625
10.916667	1	35.467000
10.933333	1	30.092125
10.950000	1	24.976250
10.966667	1	20.374000
10.983333	1	16.405500
11.000000	1	13.092375
11.016667	1	10.395750
11.033333	1	8.247625
11.050000	1	6.563125
11.066667	1	5.257625
11.083333	1	4.254875
11.100000	1	3.488500
11.116667	1	2.903000
11.133333	1	2.455875
11.150000	1	2.111750
11.166667	1	1.845500
11.183333	1	1.637750
11.200000	1	1.473500
11.216667	1	1.342000
11.233333	1	1.234625
11.250000	1	1.146375
11.266667	1	1.074375
11.283333	1	1.013125
11.300000	1	0.961375
11.316667	1	0.916750
11.333333	1	0.878750
11.350000	1	0.845375
11.366667	1	0.816625
11.383333	1	0.790750
11.400000	1	0.768000
11.416667	1	0.748375
11.433333	1	0.731500
11.450000	1	0.716125
11.466667	1	0.702500
11.483333	1	0.690875
11.500000	1	0.681375
11.516667	1	0.672875
11.533333	1	0.666250
11.550000	1	0.660875
11.566667	1	0.656500
11.583333	1	0.653500
11.600000	1	0.651875
11.616667	1	0.651375
11.633333	1	0.652875
11.650000	1	0.655500
11.666667	1	0.660125
11.683333	1	0.666375
11.700000	1	0.673500
11.716667	1	0.681125
11.733333	1	0.691250
11.750000	1	0.702000
11.766667	1	0.713125
11.783333	1	0.724750
11.800000	1	0.736625
11.816667	1	0.747750
11.833333	1	0.758500
11.850000	1	0.769000
11.866667	1	0.778750
11.883333	1	0.787375
11.900000	1	0.795625
11.916667	1	0.802500
11.933333	1	0.808750
11.950000	1	0.815250
11.966667	1	0.821000
11.983333	1	0.825750
12.000000	1	0.830750
12.016667	1	0.835750
12.033333	1	0.840750
12.050000	1	0.846375
12.066667	1	0.852625
12.083333	1	0.859000
12.100000	1	0.864750
12.116667	1	0.871875
12.133333	1	0.879250
12.150000	1	0.887375
12.166667	1	0.896125
12.183333	1	0.906500
12.200000	1	0.917500
12.216667	1	0.931125
12.233333	1	0.947750
12.250000	1	0.967500
12.266667	1	0.991250
12.283333	1	1.021375
12.300000	1	1.059625
12.316667	1	1.108125
12.333333	1	1.170375
12.350000	1	1.248875
12.366667	1	1.347750
12.383333	1	1.472375
12.400000	1	1.626125
12.416667	1	1.814000
12.433333	1	2.041000
12.450000	1	2.311875
12.466667	1	2.632250
12.483333	1	3.005500
12.500000	1	3.435875
12.516667	1	3.925375
12.533333	1	4.473750
12.550000	1	5.078625
12.566667	1	5.734250
12.583333	1	6.430875
12.600000	1	7.157375
12.616667	1	7.897750
12.633333	1	8.638750
12.650000	1	9.365375
12.666667	1	10.066125
12.683333	1	10.730750
12.700000	1	11.352375
12.716667	1	11.932625
12.733333	1	12.473750
12.750000	1	12.983750
12.766667	1	13.471750
12.783333	1	13.949375
12.800000	1	14.427875
12.816667	1	14.917250
12.833333	1	15.424125
12.850000	1	15.956875
12.866667	1	16.519375
12.883333	1	17.115500
12.900000	1	17.743750
12.916667	1	18.405000
12.933333	1	19.096000
12.950000	1	19.817000
12.966667	1	20.564875
12.983333	1	21.339875
13.000000	1	22.139750
13.016667	1	22.961750
13.033333	1	23.806875
13.050000	1	24.673375
13.066667	1	25.562750
13.083333	1	26.473000
13.100000	1	27.404250
13.116667	1	28.354250
13.133333	1	29.323125
13.150000	1	30.311875
13.166667	1	31.320375
13.183333	1	32.348000
13.200000	1	33.393250
13.216667	1	34.457250
13.233333	1	35.541375
13.250000	1	36.646125
13.266667	1	37.771125
13.283333	1	38.918750
13.300000	1	40.088625
13.316667	1	41.282000
13.333333	1	42.498250
13.350000	1	43.738000
13.366667	1	45.001125
13.383333	1	46.288625
13.400000	1	47.598625
13.416667	1	48.934625
13.433333	1	50.296625
13.450000	1	51.687250
13.466667	1	53.107375
13.483333	1	54.557000
13.500000	1	56.037375
13.516667	1	57.548875
13.533333	1	59.090500
13.550000	1	60.663625
13.566667	1	62.269500
13.583333	1	63.907375
13.600000	1	65.575500
13.616667	1	67.277750
13.633333	1	69.015250
13.650000	1	70.791125
13.666667	1	72.605750
13.683333	1	74.457625
13.700000	1	76.337875
13.716667	1	78.201875
13.733333	1	79.938000
13.750000	1	81.334750
13.766667	1	82.091625
13.783333	1	81.871000
13.800000	1	80.349375
13.816667	1	77.237625
13.833333	1	72.348125
13.850000	1	65.713500
13.866667	1	57.722125
13.883333	1	49.076125
13.900000	1	40.580000
13.916667	1	32.878250
13.933333	1	26.312125
13.950000	1	20.947250
13.966667	1	16.685625
13.983333	1	13.359875
14.000000	1	10.799375
14.016667	1	8.849375
14.033333	1	7.383000
14.050000	1	6.292250
14.066667	1	5.484125
14.083333	1	4.887375
14.100000	1	4.444250
14.116667	1	4.110875
14.133333	1	3.855375
14.150000	1	3.655625
14.166667	1	3.495750
14.183333	1	3.364500
14.200000	1	3.254250
14.216667	1	3.161000
14.233333	1	3.079000
14.250000	1	3.007000
14.266667	1	2.942625
14.283333	1	2.884750
14.300000	1	2.831625
14.316667	1	2.783625
14.333333	1	2.741375
14.350000	1	2.703875
14.366667	1	2.671250
14.383333	1	2.645000
14.400000	1	2.625875
14.416667	1	2.615000
14.433333	1	2.614750
14.450000	1	2.628875
14.466667	1	2.662250
14.483333	1	2.722000
14.500000	1	2.820000
14.516667	1	2.971875
14.533333	1	3.198375
14.550000	1	3.530375
14.566667	1	4.005625
14.583333	1	4.672750
14.600000	1	5.590875
14.616667	1	6.831875
14.633333	1	8.472625
14.650000	1	10.593625
14.666667	1	13.267625
14.683333	1	16.549875
14.700000	1	20.466250
14.716667	1	25.003500
14.733333	1	30.103375
14.750000	1	35.654750
14.766667	1	41.487625
14.783333	1	47.380375
14.800000	1	53.085625
14.816667	1	58.336625
14.833333	1	62.868375
14.850000	1	66.442875
14.866667	1	68.869875
14.883333	1	70.030500
14.900000	1	69.883750
14.916667	1	68.472375
14.933333	1	65.917625
14.950000	1	62.398500
14.966667	1	58.137125
14.983333	1	53.374250
15.000000	1	48.338000
15.016667	1	43.234500
15.033333	1	38.239375
15.050000	1	33.489000
15.066667	1	29.083625
15.083333	1	25.084750
15.100000	1	21.521750
15.116667	1	18.395250
15.133333	1	15.687750
15.150000	1	13.367375
15.166667	1	11.396375
15.183333	1	9.737125
15.200000	1	8.346500
15.216667	1	7.185750
15.233333	1	6.222375
15.250000	1	5.426000
15.266667	1	4.771000
15.283333	1	4.235250
15.300000	1	3.799125
15.316667	1	3.447000
15.333333	1	3.165875
15.350000	1	2.944000
15.366667	1	2.771750
15.383333	1	2.640375
15.400000	1	2.542625
15.416667	1	2.471750
15.433333	1	2.420625
15.450000	1	2.385500
15.466667	1	2.360250
15.483333	1	2.340500
15.500000	1	2.322625
15.516667	1	2.303125
15.533333	1	2.280875
15.550000	1	2.254000
15.566667	1	2.223375
15.583333	1	2.188875
15.600000	1	2.151500
15.616667	1	2.112875
15.633333	1	2.074125
15.650000	1	2.036000
15.666667	1	1.999750
15.683333	1	1.966250
15.700000	1	1.934125
15.716667	1	1.903250
15.733333	1	1.873875
15.750000	1	1.845625
15.766667	1	1.817125
15.783333	1	1.788250
15.800000	1	1.759000
15.816667	1	1.729625
15.833333	1	1.700000
15.850000	1	1.670250
15.866667	1	1.640000
15.883333	1	1.612125
15.900000	1	1.586250
15.916667	1	1.563875
15.933333	1	1.544000
15.950000	1	1.527875
15.966667	1	1.514375
15.983333	1	1.504250
16.000000	1	1.496500
16.016667	1	1.491625
16.033333	1	1.488375
16.050000	1	1.485250
16.066667	1	1.481875
16.083333	1	1.477625
16.100000	1	1.471500
16.116667	1	1.463250
16.133333	1	1.453250
16.150000	1	1.441500
16.166667	1	1.427000
16.183333	1	1.411125
16.200000	1	1.393625
16.216667	1	1.375625
16.233333	1	1.355875
16.250000	1	1.336125
16.266667	1	1.316125
16.283333	1	1.295750
16.300000	1	1.276000
16.316667	1	1.256250
16.333333	1	1.237500
16.350000	1	1.219625
16.366667	1	1.203000
16.383333	1	1.187250
16.400000	1	1.173750
16.416667	1	1.162625
16.433333	1	1.154125
16.450000	1	1.148000
16.466667	1	1.144000
16.483333	1	1.143125
16.500000	1	1.143875
16.516667	1	1.146875
16.533333	1	1.150750
16.550000	1	1.156250
16.566667	1	1.161125
16.583333	1	1.165250
16.600000	1	1.168125
16.616667	1	1.169625
16.633333	1	1.169125
16.650000	1	1.166875
16.666667	1	1.162875
16.683333	1	1.157750
16.700000	1	1.151375
16.716667	1	1.145500
16.733333	1	1.139625
16.750000	1	1.134625
16.766667	1	1.130750
16.783333	1	1.127750
16.800000	1	1.126000
16.816667	1	1.125750
16.833333	1	1.126625
16.850000	1	1.128125
16.866667	1	1.129750
16.883333	1	1.131125
16.900000	1	1.131875
16.916667	1	1.131875
16.933333	1	1.131125
16.950000	1	1.128375
16.966667	1	1.123875
16.983333	1	1.118375
17.000000	1	1.112250
17.016667	1	1.105250
17.033333	1	1.098000
17.050000	1	1.090875
17.066667	1	1.084000
17.083333	1	1.078500
17.100000	1	1.072500
17.116667	1	1.067500
17.133333	1	1.064125
17.150000	1	1.061750
17.166667	1	1.060125
17.183333	1	1.060625
17.200000	1	1.062125
17.216667	1	1.064500
17.233333	1	1.068125
17.250000	1	1.072625
17.266667	1	1.077625
17.283333	1	1.083375
17.300000	1	1.089375
17.316667	1	1.096125
17.333333	1	1.103000
17.350000	1	1.110000
17.366667	1	1.117250
17.383333	1	1.124625
17.400000	1	1.130875
17.416667	1	1.137125
17.433333	1	1.141500
17.450000	1	1.145000
17.466667	1	1.147000
17.483333	1	1.147375
17.500000	1	1.146125
17.516667	1	1.143125
17.533333	1	1.138875
17.550000	1	1.132750
17.566667	1	1.124250
17.583333	1	1.114875
17.600000	1	1.104125
17.616667	1	1.092250
17.633333	1	1.079625
17.650000	1	1.065625
17.666667	1	1.051625
17.683333	1	1.036750
17.700000	1	1.022000
17.716667	1	1.007375
17.733333	1	0.992500
17.750000	1	0.978125
17.766667	1	0.964375
17.783333	1	0.951000
17.800000	1	0.938000
17.816667	1	0.924750
17.833333	1	0.913625
17.850000	1	0.902000
17.866667	1	0.891625
17.883333	1	0.881625
17.900000	1	0.871750
17.916667	1	0.862875
17.933333	1	0.854000
17.950000	1	0.845125
17.966667	1	0.836750
17.983333	1	0.828250
18.000000	1	0.820375
18.016667	1	0.812500
18.033333	1	0.804375
18.050000	1	0.796125
18.066667	1	0.787125
18.083333	1	0.779250
18.100000	1	0.770750
18.116667	1	0.763375
18.133333	1	0.756750
18.150000	1	0.750625
18.166667	1	0.745375
18.183333	1	0.741750
18.200000	1	0.738125
18.216667	1	0.735000
18.233333	1	0.733250
18.250000	1	0.732000
18.266667	1	0.730625
18.283333	1	0.730000
18.300000	1	0.729750
18.316667	1	0.729000
18.333333	1	0.729125
18.350000	1	0.729000
18.366667	1	0.729625
18.383333	1	0.730875
18.400000	1	0.733625
18.416667	1	0.736875
18.433333	1	0.741500
18.450000	1	0.746250
18.466667	1	0.753250
18.483333	1	0.761750
18.500000	1	0.772500
18.516667	1	0.784500
18.533333	1	0.798750
18.550000	1	0.815125
18.566667	1	0.833875
18.583333	1	0.854375
18.600000	1	0.876875
18.616667	1	0.901125
18.633333	1	0.927500
18.650000	1	0.955000
18.666667	1	0.984125
18.683333	1	1.015250
18.700000	1	1.048000
18.716667	1	1.081625
18.733333	1	1.116750
18.750000	1	1.151625
18.766667	1	1.187250
18.783333	1	1.223000
18.800000	1	1.257375
18.816667	1	1.291000
18.833333	1	1.321750
18.850000	1	1.350625
18.866667	1	1.375750
18.883333	1	1.396375
18.900000	1	1.411125
18.916667	1	1.420000
18.933333	1	1.422750
18.950000	1	1.418500
18.966667	1	1.407375
18.983333	1	1.389375
19.000000	1	1.364500
19.016667	1	1.333500
19.033333	1	1.297250
19.050000	1	1.257375
19.066667	1	1.214875
19.083333	1	1.171000
19.100000	1	1.128375
19.116667	1	1.086875
19.133333	1	1.049625
19.150000	1	1.019000
19.166667	1	0.997000
19.183333	1	0.984875
19.200000	1	0.985375
19.216667	1	1.000875
19.233333	1	1.034125
19.250000	1	1.087125
19.266667	1	1.161000
19.283333	1	1.258000
19.300000	1	1.379500
19.316667	1	1.525375
19.333333	1	1.695625
19.350000	1	1.887875
19.366667	1	2.101625
19.383333	1	2.330375
19.400000	1	2.569750
19.416667	1	2.813625
19.433333	1	3.054750
19.450000	1	3.285125
19.466667	1	3.497250
19.483333	1	3.683500
19.500000	1	3.837250
19.516667	1	3.953125
19.533333	1	4.026875
19.550000	1	4.057875
19.566667	1	4.044750
19.583333	1	3.989250
19.600000	1	3.894375
19.616667	1	3.764375
19.633333	1	3.604875
19.650000	1	3.422000
19.666667	1	3.223000
19.683333	1	3.013750
19.700000	1	2.800000
19.716667	1	2.587375
19.733333	1	2.379250
19.750000	1	2.178000
19.766667	1	1.987125
19.783333	1	1.809000
19.800000	1	1.645375
19.816667	1	1.495500
19.833333	1	1.360000
19.850000	1	1.237250
19.866667	1	1.128000
19.883333	1	1.030625
19.900000	1	0.944750
19.916667	1	0.869750
19.933333	1	0.804250
19.950000	1	0.747250
19.966667	1	0.697625
19.983333	1	0.655000
20.000000	1	0.620000
20.016667	1	0.591500
20.033333	1	0.568250
20.050000	1	0.550875
20.066667	1	0.538500
20.083333	1	0.530125
20.100000	1	0.527500
20.116667	1	0.527750
20.133333	1	0.532000
20.150000	1	0.539750
20.166667	1	0.549125
20.183333	1	0.560625
20.200000	1	0.573750
20.216667	1	0.588375
20.233333	1	0.602625
20.250000	1	0.615750
20.266667	1	0.627375
20.283333	1	0.637000
20.300000	1	0.644750
20.316667	1	0.649250
20.333333	1	0.650125
20.350000	1	0.647875
20.366667	1	0.642875
20.383333	1	0.634625
20.400000	1	0.622875
20.416667	1	0.610000
20.433333	1	0.594375
20.450000	1	0.578875
20.466667	1	0.562625
20.483333	1	0.547625
20.500000	1	0.535000
20.516667	1	0.524750
20.533333	1	0.518250
20.550000	1	0.515875
20.566667	1	0.518625
20.583333	1	0.527250
20.600000	1	0.542125
20.616667	1	0.564500
20.633333	1	0.595375
20.650000	1	0.633500
20.666667	1	0.680625
20.683333	1	0.736000
20.700000	1	0.799250
20.716667	1	0.869625
20.733333	1	0.946000
20.750000	1	1.027250
20.766667	1	1.110000
20.783333	1	1.193625
20.800000	1	1.274250
20.816667	1	1.349375
20.833333	1	1.416375
20.850000	1	1.473500
20.866667	1	1.518000
20.883333	1	1.548750
20.900000	1	1.565375
20.916667	1	1.566000
20.933333	1	1.551625
20.950000	1	1.523250
20.966667	1	1.481750
20.983333	1	1.429125
21.000000	1	1.367500
21.016667	1	1.298375
21.033333	1	1.224250
21.050000	1	1.148000
21.066667	1	1.071375
21.083333	1	0.995375
21.100000	1	0.921500
21.116667	1	0.851375
21.133333	1	0.786000
21.150000	1	0.724625
21.166667	1	0.668875
21.183333	1	0.618625
21.200000	1	0.573125
21.216667	1	0.533375
21.233333	1	0.498875
21.250000	1	0.467875
21.266667	1	0.441250
21.283333	1	0.418250
21.300000	1	0.398500
21.316667	1	0.382625
21.333333	1	0.368250
21.350000	1	0.356125
21.366667	1	0.346375
21.383333	1	0.338625
21.400000	1	0.332500
21.416667	1	0.326875
21.433333	1	0.323125
21.450000	1	0.320625
21.466667	1	0.318125
21.483333	1	0.315875
21.500000	1	0.315125
21.516667	1	0.314000
21.533333	1	0.314000
21.550000	1	0.315250
21.566667	1	0.317625
21.583333	1	0.320625
21.600000	1	0.324375
21.616667	1	0.329375
21.633333	1	0.335375
21.650000	1	0.343375
21.666667	1	0.353125
21.683333	1	0.364000
21.700000	1	0.376375
21.716667	1	0.390500
21.733333	1	0.406625
21.750000	1	0.424500
21.766667	1	0.443750
21.783333	1	0.463625
21.800000	1	0.485125
21.816667	1	0.506750
21.833333	1	0.528875
21.850000	1	0.550500
21.866667	1	0.572125
21.883333	1	0.593125
21.900000	1	0.611625
21.916667	1	0.628875
21.933333	1	0.643750
21.950000	1	0.656875
21.966667	1	0.667250
21.983333	1	0.675250
22.000000	1	0.680250
22.016667	1	0.682500
22.033333	1	0.682250
22.050000	1	0.679125
22.066667	1	0.674375
22.083333	1	0.667250
22.100000	1	0.658625
22.116667	1	0.648250
22.133333	1	0.636875
22.150000	1	0.624125
22.166667	1	0.610875
22.183333	1	0.597250
22.200000	1	0.582375
22.216667	1	0.566500
22.233333	1	0.550125
22.250000	1	0.533750
22.266667	1	0.516375
22.283333	1	0.498875
22.300000	1	0.481375
22.316667	1	0.464125
22.333333	1	0.446625
22.350000	1	0.428375
22.366667	1	0.411250
22.383333	1	0.395250
22.400000	1	0.379375
22.416667	1	0.364125
22.433333	1	0.349375
22.450000	1	0.335000
22.466667	1	0.321625
22.483333	1	0.309750
22.500000	1	0.298250
22.516667	1	0.287875
22.533333	1	0.277875
22.550000	1	0.269125
22.566667	1	0.261000
22.583333	1	0.253875
22.600000	1	0.247750
22.616667	1	0.241125
22.633333	1	0.235750
22.650000	1	0.230625
22.666667	1	0.226000
22.683333	1	0.221625
22.700000	1	0.217000
22.716667	1	0.213000
22.733333	1	0.209750
22.750000	1	0.206375
22.766667	1	0.203500
22.783333	1	0.200500
22.800000	1	0.197750
22.816667	1	0.195125
22.833333	1	0.192625
22.850000	1	0.190875
22.866667	1	0.189250
22.883333	1	0.188000
22.900000	1	0.186875
22.916667	1	0.186250
22.933333	1	0.186375
22.950000	1	0.187125
22.966667	1	0.186875
22.983333	1	0.187500
23.000000	1	0.188750
23.016667	1	0.190750
23.033333	1	0.192000
23.050000	1	0.194125
23.066667	1	0.196500
23.083333	1	0.199250
23.100000	1	0.201500
23.116667	1	0.204625
23.133333	1	0.207875
23.150000	1	0.211250
23.166667	1	0.215250
23.183333	1	0.218000
23.200000	1	0.221125
23.216667	1	0.224500
23.233333	1	0.228625
23.250000	1	0.232250
23.266667	1	0.237375
23.283333	1	0.243750
23.300000	1	0.251625
23.316667	1	0.260625
23.333333	1	0.272125
23.350000	1	0.287375
23.366667	1	0.306625
23.383333	1	0.332375
23.400000	1	0.364000
23.416667	1	0.404250
23.433333	1	0.453375
23.450000	1	0.513500
23.466667	1	0.587500
23.483333	1	0.676500
23.500000	1	0.782875
23.516667	1	0.910250
23.533333	1	1.058250
23.550000	1	1.229500
23.566667	1	1.424750
23.583333	1	1.645625
23.600000	1	1.891000
23.616667	1	2.160125
23.633333	1	2.451500
23.650000	1	2.761750
23.666667	1	3.086875
23.683333	1	3.422875
23.700000	1	3.763000
23.716667	1	4.101500
23.733333	1	4.431125
23.750000	1	4.745500
23.766667	1	5.035625
23.783333	1	5.295375
23.800000	1	5.518000
23.816667	1	5.697375
23.833333	1	5.830875
23.850000	1	5.915250
23.866667	1	5.949125
23.883333	1	5.933125
23.900000	1	5.868375
23.916667	1	5.757500
23.933333	1	5.605375
23.950000	1	5.415750
23.966667	1	5.194250
23.983333	1	4.947500
24.000000	1	4.682250
24.016667	1	4.404125
24.033333	1	4.118750
24.050000	1	3.830875
24.066667	1	3.546250
24.083333	1	3.268500
24.100000	1	2.999250
24.116667	1	2.741125
24.133333	1	2.496750
24.150000	1	2.267250
24.166667	1	2.054875
24.183333	1	1.858125
24.200000	1	1.677250
24.216667	1	1.511875
24.233333	1	1.362000
24.250000	1	1.226375
24.266667	1	1.104250
24.283333	1	0.994875
24.300000	1	0.897500
24.316667	1	0.811250
24.333333	1	0.734750
24.350000	1	0.667875
24.366667	1	0.608500
24.383333	1	0.556750
24.400000	1	0.513250
24.416667	1	0.475625
24.433333	1	0.443875
24.450000	1	0.416875
24.466667	1	0.395000
24.483333	1	0.376875
24.500000	1	0.363250
24.516667	1	0.351125
24.533333	1	0.341375
24.550000	1	0.333875
24.566667	1	0.327375
24.583333	1	0.321250
24.600000	1	0.316875
24.616667	1	0.313125
24.633333	1	0.310125
24.650000	1	0.306125
24.666667	1	0.302750
24.683333	1	0.299125
24.700000	1	0.295125
24.716667	1	0.291125
24.733333	1	0.287375
24.750000	1	0.282375
24.766667	1	0.277250
24.783333	1	0.272125
24.800000	1	0.267375
24.816667	1	0.261750
24.833333	1	0.256625
24.850000	1	0.251125
24.866667	1	0.245875
24.883333	1	0.240875
24.900000	1	0.236000
24.916667	1	0.231875
24.933333	1	0.227375
24.950000	1	0.223250
24.966667	1	0.218625
24.983333	1	0.215250
25.000000	1	0.211500
25.016667	1	0.207500
25.033333	1	0.203500
25.050000	1	0.201375
25.066667	1	0.198375
25.083333	1	0.195250
25.100000	1	0.192875
25.116667	1	0.190000
25.133333	1	0.188000
25.150000	1	0.185125
25.166667	1	0.182125
25.183333	1	0.179750
25.200000	1	0.177000
25.216667	1	0.174000
25.233333	1	0.171625
25.250000	1	0.169125
25.266667	1	0.166250
25.283333	1	0.163625
25.300000	1	0.161375
25.316667	1	0.159375
25.333333	1	0.157500
25.350000	1	0.155500
25.366667	1	0.154375
25.383333	1	0.153000
25.400000	1	0.151875
25.416667	1	0.151250
25.433333	1	0.150125
25.450000	1	0.149375
25.466667	1	0.148875
25.483333	1	0.148875
25.500000	1	0.147875
25.516667	1	0.148375
25.533333	1	0.149125
25.550000	1	0.149875
25.566667	1	0.150875
25.583333	1	0.151125
25.600000	1	0.151625
25.616667	1	0.152125
25.633333	1	0.152625
25.650000	1	0.153375
25.666667	1	0.153000
25.683333	1	0.153125
25.700000	1	0.153250
25.716667	1	0.152250
25.733333	1	0.152250
25.750000	1	0.152625
25.766667	1	0.152750
25.783333	1	0.152125
25.800000	1	0.151500
25.816667	1	0.151500
25.833333	1	0.151250
25.850000	1	0.150875
25.866667	1	0.150750
25.883333	1	0.150875
25.900000	1	0.151000
25.916667	1	0.152250
25.933333	1	0.153250
25.950000	1	0.154500
25.966667	1	0.155500
25.983333	1	0.157500
26.000000	1	0.160125
26.016667	1	0.162625
26.033333	1	0.166125
26.050000	1	0.169500
26.066667	1	0.174000
26.083333	1	0.178625
26.100000	1	0.183500
26.116667	1	0.188125
26.133333	1	0.192875
26.150000	1	0.197250
26.166667	1	0.202250
26.183333	1	0.207125
26.200000	1	0.212250
26.216667	1	0.216500
26.233333	1	0.220250
26.250000	1	0.224125
26.266667	1	0.227875
26.283333	1	0.230875
26.300000	1	0.233000
26.316667	1	0.234375
26.333333	1	0.235750
26.350000	1	0.236000
26.366667	1	0.236375
26.383333	1	0.236125
26.400000	1	0.234250
26.416667	1	0.231500
26.433333	1	0.228625
26.450000	1	0.224625
26.466667	1	0.220500
26.483333	1	0.216250
26.500000	1	0.211875
26.516667	1	0.206250
26.533333	1	0.201000
26.550000	1	0.195625
26.566667	1	0.189375
26.583333	1	0.182625
26.600000	1	0.175750
26.616667	1	0.169750
26.633333	1	0.163250
26.650000	1	0.157250
26.666667	1	0.151750
26.683333	1	0.145750
26.700000	1	0.140250
26.716667	1	0.135875
26.733333	1	0.130875
26.750000	1	0.125750
26.766667	1	0.121375
26.783333	1	0.117125
26.800000	1	0.113375
26.816667	1	0.110250
26.833333	1	0.107625
26.850000	1	0.105625
26.866667	1	0.103125
26.883333	1	0.101375
26.900000	1	0.099875
26.916667	1	0.099500
26.933333	1	0.098750
26.950000	1	0.097875
26.966667	1	0.098375
26.983333	1	0.099125
27.000000	1	0.100250
27.016667	1	0.102500
27.033333	1	0.104250
27.050000	1	0.106750
27.066667	1	0.110375
27.083333	1	0.114000
27.100000	1	0.118125
27.116667	1	0.123250
27.133333	1	0.130125
27.150000	1	0.137250
27.166667	1	0.146000
27.183333	1	0.155750
27.200000	1	0.167750
27.216667	1	0.182125
27.233333	1	0.199000
27.250000	1	0.218375
27.266667	1	0.241500
27.283333	1	0.268125
27.300000	1	0.299000
27.316667	1	0.335625
27.333333	1	0.378500
27.350000	1	0.427875
27.366667	1	0.485250
27.383333	1	0.551375
27.400000	1	0.626625
27.416667	1	0.711625
27.433333	1	0.807750
27.450000	1	0.916000
27.466667	1	1.036875
27.483333	1	1.170125
27.500000	1	1.318125
27.516667	1	1.478000
27.533333	1	1.650750
27.550000	1	1.835375
27.566667	1	2.031000
27.583333	1	2.236625
27.600000	1	2.450375
27.616667	1	2.670000
27.633333	1	2.893750
27.650000	1	3.118000
27.666667	1	3.340500
27.683333	1	3.557375
27.700000	1	3.765125
27.716667	1	3.960875
27.733333	1	4.141000
27.750000	1	4.302125
27.766667	1	4.440125
27.783333	1	4.554000
27.800000	1	4.640625
27.816667	1	4.698500
27.833333	1	4.726625
27.850000	1	4.724875
27.866667	1	4.692000
27.883333	1	4.629500
27.900000	1	4.539000
27.916667	1	4.422250
27.933333	1	4.281000
27.950000	1	4.119375
27.966667	1	3.940375
27.983333	1	3.747500
28.000000	1	3.543750
28.016667	1	3.332375
28.033333	1	3.116500
28.050000	1	2.899625
28.066667	1	2.684875
28.083333	1	2.473875
28.100000	1	2.269750
28.116667	1	2.073625
28.133333	1	1.887250
28.150000	1	1.711125
28.166667	1	1.546750
28.183333	1	1.394375
28.200000	1	1.254000
28.216667	1	1.125125
28.233333	1	1.007125
28.250000	1	0.900500
28.266667	1	0.804625
28.283333	1	0.718750
28.300000	1	0.642125
28.316667	1	0.574750
28.333333	1	0.515750
28.350000	1	0.463500
28.366667	1	0.418875
28.383333	1	0.381250
28.400000	1	0.349375
28.416667	1	0.323625
28.433333	1	0.302000
28.450000	1	0.285250
28.466667	1	0.273250
28.483333	1	0.264375
28.500000	1	0.259625
28.516667	1	0.258375
28.533333	1	0.259625
28.550000	1	0.263500
28.566667	1	0.269000
28.583333	1	0.276875
28.600000	1	0.286250
28.616667	1	0.296750
28.633333	1	0.308625
28.650000	1	0.322125
28.666667	1	0.335750
28.683333	1	0.349750
28.700000	1	0.363500
28.716667	1	0.377375
28.733333	1	0.391125
28.750000	1	0.404125
28.766667	1	0.416625
28.783333	1	0.428000
28.800000	1	0.439500
28.816667	1	0.449000
28.833333	1	0.457250
28.850000	1	0.464625
28.866667	1	0.471000
28.883333	1	0.475875
28.900000	1	0.479625
28.916667	1	0.481750
28.933333	1	0.482625
28.950000	1	0.481500
28.966667	1	0.479375
28.983333	1	0.476125
29.000000	1	0.470750
29.016667	1	0.464750
29.033333	1	0.457125
29.050000	1	0.448250
29.066667	1	0.438625
29.083333	1	0.427875
29.100000	1	0.415875
29.116667	1	0.403750
29.133333	1	0.390000
29.150000	1	0.375750
29.166667	1	0.360500
29.183333	1	0.345625
29.200000	1	0.330250
29.216667	1	0.314500
29.233333	1	0.298500
29.250000	1	0.283000
29.266667	1	0.267125
29.283333	1	0.251375
29.300000	1	0.234750
29.316667	1	0.219125
29.333333	1	0.204375
29.350000	1	0.189625
29.366667	1	0.174625
29.383333	1	0.161375
29.400000	1	0.148250
29.416667	1	0.136500
29.433333	1	0.124625
29.450000	1	0.113125
29.466667	1	0.102125
29.483333	1	0.091125
29.500000	1	0.081500
29.516667	1	0.072125
29.533333	1	0.063375
29.550000	1	0.055375
29.566667	1	0.047750
29.583333	1	0.041000
29.600000	1	0.034875
29.616667	1	0.028375
29.633333	1	0.022500
29.650000	1	0.017250
29.666667	1	0.012375
29.683333	1	0.008500
29.700000	1	0.005000
29.716667	1	0.001750
29.733333	1	-0.001375
29.750000	1	-0.004000
29.766667	1	-0.006625
29.783333	1	-0.008500
29.800000	1	-0.009375
29.816667	1	-0.009375
29.833333	1	-0.010375
29.850000	1	-0.011125
29.866667	1	-0.011125
29.883333	1	-0.011625
29.900000	1	-0.011375
29.916667	1	-0.011000
29.933333	1	-0.010875
29.950000	1	-0.010500
29.966667	1	-0.009500
29.983333	1	-0.008500
30.000000	1	-0.007500
30.016667	1	-0.007625
30.033333	1	-0.006750
30.050000	1	-0.005000
30.066667	1	-0.003250
30.083333	1	-0.001750
30.100000	1	0.000000
30.116667	1	0.000875
30.133333	1	0.002250
30.150000	1	0.004250
30.166667	1	0.005875
30.183333	1	0.007375
30.200000	1	0.009625
30.216667	1	0.011000
30.233333	1	0.012625
30.250000	1	0.014500
30.266667	1	0.016375
30.283333	1	0.018125
30.300000	1	0.020000
30.316667	1	0.022125
30.333333	1	0.024250
30.350000	1	0.025750
30.366667	1	0.028625
30.383333	1	0.030750
30.400000	1	0.033250
30.416667	1	0.035875
30.433333	1	0.038375
30.450000	1	0.041000
30.466667	1	0.043750
30.483333	1	0.046500
30.500000	1	0.050125
30.516667	1	0.054000
30.533333	1	0.058250
30.550000	1	0.062375
30.566667	1	0.066750
30.583333	1	0.072250
30.600000	1	0.076750
30.616667	1	0.083125
30.633333	1	0.088875
30.650000	1	0.095375
30.666667	1	0.102250
30.683333	1	0.110125
30.700000	1	0.117375
30.716667	1	0.125250
30.733333	1	0.133500
30.750000	1	0.143125
30.766667	1	0.152875
30.783333	1	0.162875
30.800000	1	0.173375
30.816667	1	0.185375
30.833333	1	0.197750
30.850000	1	0.212000
30.866667	1	0.227000
30.883333	1	0.243750
30.900000	1	0.261875
30.916667	1	0.282500
30.933333	1	0.305250
30.950000	1	0.330750
30.966667	1	0.360375
30.983333	1	0.394125
31.000000	1	0.431875
31.016667	1	0.476000
31.033333	1	0.526500
31.050000	1	0.583750
31.066667	1	0.649750
31.083333	1	0.724375
31.100000	1	0.809000
31.116667	1	0.904875
31.133333	1	1.012500
31.150000	1	1.134375
31.166667	1	1.268625
31.183333	1	1.417750
31.200000	1	1.581125
31.216667	1	1.760125
31.233333	1	1.954250
31.250000	1	2.163500
31.266667	1	2.386375
31.283333	1	2.622000
31.300000	1	2.869000
31.316667	1	3.126625
31.333333	1	3.392000
31.350000	1	3.662875
31.366667	1	3.936500
31.383333	1	4.210750
31.400000	1	4.482125
31.416667	1	4.747250
31.433333	1	5.003375
31.450000	1	5.246000
31.466667	1	5.471500
31.483333	1	5.677625
31.500000	1	5.861625
31.516667	1	6.020500
31.533333	1	6.152875
31.550000	1	6.256875
31.566667	1	6.330750
31.583333	1	6.374375
31.600000	1	6.386875
31.616667	1	6.367625
31.633333	1	6.318625
31.650000	1	6.241875
31.666667	1	6.138375
31.683333	1	6.009500
31.700000	1	5.857375
31.716667	1	5.684625
31.733333	1	5.494875
31.750000	1	5.290125
31.766667	1	5.073250
31.783333	1	4.847250
31.800000	1	4.613625
31.816667	1	4.375750
31.833333	1	4.135625
31.850000	1	3.896000
31.866667	1	3.658875
31.883333	1	3.426000
31.900000	1	3.198875
31.916667	1	2.980125
31.933333	1	2.768875
31.950000	1	2.566625
31.966667	1	2.373250
31.983333	1	2.190125
32.000000	1	2.015750
32.016667	1	1.851625
32.033333	1	1.697875
32.050000	1	1.553625
32.066667	1	1.419375
32.083333	1	1.294750
32.100000	1	1.178500
32.116667	1	1.070875
32.133333	1	0.971250
32.150000	1	0.878625
32.166667	1	0.793625
32.183333	1	0.715375
32.200000	1	0.643500
32.216667	1	0.577750
32.233333	1	0.516500
32.250000	1	0.460750
32.266667	1	0.409625
32.283333	1	0.363125
32.300000	1	0.320375
32.316667	1	0.281375
32.333333	1	0.246250
32.350000	1	0.214250
32.366667	1	0.184875
32.383333	1	0.158875
32.400000	1	0.134875
32.416667	1	0.113500
32.433333	1	0.093500
32.450000	1	0.075750
32.466667	1	0.060000
32.483333	1	0.045250
32.500000	1	0.032750
32.516667	1	0.021125
32.533333	1	0.011125
32.550000	1	0.002375
32.566667	1	-0.005375
32.583333	1	-0.013000
32.600000	1	-0.019000
32.616667	1	-0.024625
32.633333	1	-0.029875
32.650000	1	-0.035375
32.666667	1	-0.040125
32.683333	1	-0.044000
32.700000	1	-0.048000
32.716667	1	-0.051250
32.733333	1	-0.054375
32.750000	1	-0.057875
32.766667	1	-0.060625
32.783333	1	-0.064375
32.800000	1	-0.067125
32.816667	1	-0.069750
32.833333	1	-0.072250
32.850000	1	-0.074750
32.866667	1	-0.078125
32.883333	1	-0.081250
32.900000	1	-0.084000
32.916667	1	-0.085875
32.933333	1	-0.088625
32.950000	1	-0.091500
32.966667	1	-0.093750
32.983333	1	-0.096000
33.000000	1	-0.097875
33.016667	1	-0.100000
33.033333	1	-0.102000
33.050000	1	-0.103875
33.066667	1	-0.105500
33.083333	1	-0.106875
33.100000	1	-0.108250
33.116667	1	-0.109125
33.133333	1	-0.110125
33.150000	1	-0.110000
33.166667	1	-0.110125
33.183333	1	-0.110000
33.200000	1	-0.110000
33.216667	1	-0.109500
33.233333	1	-0.108875
33.250000	1	-0.107250
33.266667	1	-0.105875
33.283333	1	-0.104250
33.300000	1	-0.102750
33.316667	1	-0.101375
33.333333	1	-0.099250
33.350000	1	-0.097125
33.366667	1	-0.094625
33.383333	1	-0.092000
33.400000	1	-0.089875
33.416667	1	-0.087250
33.433333	1	-0.084750
33.450000	1	-0.082000
33.466667	1	-0.079000
33.483333	1	-0.076125
33.500000	1	-0.072875
33.516667	1	-0.069875
33.533333	1	-0.067375
33.550000	1	-0.064250
33.566667	1	-0.060000
33.583333	1	-0.057375
33.600000	1	-0.054500
33.616667	1	-0.051500
33.633333	1	-0.048125
33.650000	1	-0.044875
33.666667	1	-0.041250
33.683333	1	-0.038250
33.700000	1	-0.034750
33.716667	1	-0.031250
33.733333	1	-0.027125
33.750000	1	-0.023250
33.766667	1	-0.019375
33.783333	1	-0.015750
33.800000	1	-0.012625
33.816667	1	-0.009125
33.833333	1	-0.005375
33.850000	1	-0.002250
33.866667	1	0.001250
33.883333	1	0.003750
33.900000	1	0.006375
33.916667	1	0.008750
33.933333	1	0.011750
33.950000	1	0.013875
33.966667	1	0.016625
33.983333	1	0.019000
34.000000	1	0.021000
34.016667	1	0.022625
34.033333	1	0.024625
34.050000	1	0.025500
34.066667	1	0.026250
34.083333	1	0.026875
34.100000	1	0.027750
34.116667	1	0.028000
34.133333	1	0.028375
34.150000	1	0.028875
34.166667	1	0.028750
34.183333	1	0.028500
34.200000	1	0.027750
34.216667	1	0.026875
34.233333	1	0.026125
34.250000	1	0.025250
34.266667	1	0.024375
34.283333	1	0.023250
34.300000	1	0.021875
34.316667	1	0.020375
34.333333	1	0.019500
34.350000	1	0.018375
34.366667	1	0.018000
34.383333	1	0.017000
34.400000	1	0.015250
34.416667	1	0.014875
34.433333	1	0.014125
34.450000	1	0.013625
34.466667	1	0.013500
34.483333	1	0.012875
34.500000	1	0.013250
34.516667	1	0.013750
34.533333	1	0.014625
34.550000	1	0.015250
34.566667	1	0.016125
34.583333	1	0.017375
34.600000	1	0.018125
34.616667	1	0.019250
34.633333	1	0.020000
34.650000	1	0.021250
34.666667	1	0.022375
34.683333	1	0.023625
34.700000	1	0.024500
34.716667	1	0.026125
34.733333	1	0.027250
34.750000	1	0.027750
34.766667	1	0.028375
34.783333	1	0.030125
34.800000	1	0.030375
34.816667	1	0.031500
34.833333	1	0.032125
34.850000	1	0.032875
34.866667	1	0.032500
34.883333	1	0.032500
34.900000	1	0.032500
34.916667	1	0.031375
34.933333	1	0.031250
34.950000	1	0.030250
34.966667	1	0.029500
34.983333	1	0.028625
35.000000	1	0.027375
35.016667	1	0.026000
35.033333	1	0.024625
35.050000	1	0.022500
35.066667	1	0.020750
35.083333	1	0.018875
35.100000	1	0.017500
35.116667	1	0.015750
35.133333	1	0.014125
35.150000	1	0.011625
35.166667	1	0.008750
35.183333	1	0.006375
35.200000	1	0.003750
35.216667	1	0.001750
35.233333	1	-0.000625
35.250000	1	-0.002375
35.266667	1	-0.004000
35.283333	1	-0.006250
35.300000	1	-0.008000
35.316667	1	-0.009250
35.333333	1	-0.010250
35.350000	1	-0.011500
35.366667	1	-0.012625
35.383333	1	-0.013625
35.400000	1	-0.015125
35.416667	1	-0.016000
35.433333	1	-0.017000
35.450000	1	-0.017500
35.466667	1	-0.018375
35.483333	1	-0.019125
35.500000	1	-0.019000
35.516667	1	-0.018625
35.533333	1	-0.018125
35.550000	1	-0.017250
35.566667	1	-0.016750
35.583333	1	-0.016375
35.600000	1	-0.015500
35.616667	1	-0.014375
35.633333	1	-0.013375
35.650000	1	-0.012750
35.666667	1	-0.012125
35.683333	1	-0.011375
35.700000	1	-0.010125
35.716667	1	-0.009625
35.733333	1	-0.009000
35.750000	1	-0.007875
35.766667	1	-0.006750
35.783333	1	-0.005750
35.800000	1	-0.004625
35.816667	1	-0.003750
35.833333	1	-0.003000
35.850000	1	-0.002625
35.866667	1	-0.001500
35.883333	1	-0.000625
35.900000	1	0.000125
35.916667	1	0.000250
35.933333	1	0.000000
35.950000	1	-0.000250
35.966667	1	-0.000750
35.983333	1	-0.001750
36.000000	1	-0.002000
36.016667	1	-0.002125
36.033333	1	-0.003375
36.050000	1	-0.004625
36.066667	1	-0.005750
36.083333	1	-0.006875
36.100000	1	-0.008250
36.116667	1	-0.009875
36.133333	1	-0.012000
36.150000	1	-0.013250
36.166667	1	-0.015625
36.183333	1	-0.017250
36.200000	1	-0.019875
36.216667	1	-0.023375
36.233333	1	-0.025625
36.250000	1	-0.027125
36.266667	1	-0.028750
36.283333	1	-0.030625
36.300000	1	-0.032875
36.316667	1	-0.035250
36.333333	1	-0.036500
36.350000	1	-0.038000
36.366667	1	-0.039500
36.383333	1	-0.040625
36.400000	1	-0.042500
36.416667	1	-0.044250
36.433333	1	-0.045000
36.450000	1	-0.046000
36.466667	1	-0.046250
36.483333	1	-0.047375
36.500000	1	-0.046750
36.516667	1	-0.046375
36.533333	1	-0.046625
36.550000	1	-0.047125
36.566667	1	-0.047000
36.583333	1	-0.047000
36.600000	1	-0.046625
36.616667	1	-0.046750
36.633333	1	-0.047000
36.650000	1	-0.046375
36.666667	1	-0.047375
36.683333	1	-0.046875
36.700000	1	-0.047250
36.716667	1	-0.046875
36.733333	1	-0.047625
36.750000	1	-0.047125
36.766667	1	-0.047750
36.783333	1	-0.048250
36.800000	1	-0.048875
36.816667	1	-0.049000
36.833333	1	-0.049750
36.850000	1	-0.050750
36.866667	1	-0.051750
36.883333	1	-0.052125
36.900000	1	-0.053125
36.916667	1	-0.054500
36.933333	1	-0.055750
36.950000	1	-0.056000
36.966667	1	-0.056125
36.983333	1	-0.056750
37.000000	1	-0.057500
37.016667	1	-0.058500
37.033333	1	-0.058750
37.050000	1	-0.059250
37.066667	1	-0.060125
37.083333	1	-0.060125
37.100000	1	-0.060125
37.116667	1	-0.060250
37.133333	1	-0.061000
37.150000	1	-0.062125
37.166667	1	-0.062250
37.183333	1	-0.062625
37.200000	1	-0.063000
37.216667	1	-0.062875
37.233333	1	-0.063125
37.250000	1	-0.063625
37.266667	1	-0.064125
37.283333	1	-0.063875
37.300000	1	-0.064000
37.316667	1	-0.064750
37.333333	1	-0.065375
37.350000	1	-0.066375
37.366667	1	-0.066750
37.383333	1	-0.067750
37.400000	1	-0.068625
37.416667	1	-0.069875
37.433333	1	-0.070250
37.450000	1	-0.072125
37.466667	1	-0.073250
37.483333	1	-0.074000
37.500000	1	-0.074625
37.516667	1	-0.075125
37.533333	1	-0.076250
37.550000	1	-0.077500
37.566667	1	-0.079500
37.583333	1	-0.080500
37.600000	1	-0.081625
37.616667	1	-0.082750
37.633333	1	-0.083875
37.650000	1	-0.084250
37.666667	1	-0.085125
37.683333	1	-0.085875
37.700000	1	-0.086750
37.716667	1	-0.087625
37.733333	1	-0.088625
37.750000	1	-0.089250
37.766667	1	-0.089625
37.783333	1	-0.090125
37.800000	1	-0.091250
37.816667	1	-0.092625
37.833333	1	-0.093500
37.850000	1	-0.094000
37.866667	1	-0.094875
37.883333	1	-0.095000
37.900000	1	-0.095500
37.916667	1	-0.095500
37.933333	1	-0.095250
37.950000	1	-0.095875
37.966667	1	-0.095625
37.983333	1	-0.096125
38.000000	1	-0.095875
38.016667	1	-0.096375
38.033333	1	-0.096500
38.050000	1	-0.096125
38.066667	1	-0.095375
38.083333	1	-0.095625
38.100000	1	-0.095250
38.116667	1	-0.094375
38.133333	1	-0.094250
38.150000	1	-0.094500
38.166667	1	-0.094000
38.183333	1	-0.093875
38.200000	1	-0.093250
38.216667	1	-0.093375
38.233333	1	-0.093000
38.250000	1	-0.093000
38.266667	1	-0.093250
38.283333	1	-0.092625
38.300000	1	-0.091500
38.316667	1	-0.091750
38.333333	1	-0.091500
38.350000	1	-0.090875
38.366667	1	-0.090875
38.383333	1	-0.090125
38.400000	1	-0.089500
38.416667	1	-0.089000
38.433333	1	-0.089000
38.450000	1	-0.088750
38.466667	1	-0.088125
38.483333	1	-0.087875
38.500000	1	-0.087750
38.516667	1	-0.086500
38.533333	1	-0.085875
38.550000	1	-0.085000
38.566667	1	-0.084375
38.583333	1	-0.083500
38.600000	1	-0.082750
38.616667	1	-0.082125
38.633333	1	-0.081375
38.650000	1	-0.080625
38.666667	1	-0.080000
38.683333	1	-0.079625
38.700000	1	-0.078625
38.716667	1	-0.078125
38.733333	1	-0.078125
38.750000	1	-0.077000
38.766667	1	-0.076375
38.783333	1	-0.076375
38.800000	1	-0.076250
38.816667	1	-0.076250
38.833333	1	-0.076250
38.850000	1	-0.076375
38.866667	1	-0.076250
38.883333	1	-0.076125
38.900000	1	-0.075000
38.916667	1	-0.075250
38.933333	1	-0.075625
38.950000	1	-0.075625
38.966667	1	-0.076250
38.983333	1	-0.076375
39.000000	1	-0.076375
39.016667	1	-0.076625
39.033333	1	-0.076250
39.050000	1	-0.076875
39.066667	1	-0.077250
39.083333	1	-0.077625
39.100000	1	-0.077250
39.116667	1	-0.078750
39.133333	1	-0.079250
39.150000	1	-0.080125
39.166667	1	-0.081000
39.183333	1	-0.082125
39.200000	1	-0.083750
39.216667	1	-0.084750
39.233333	1	-0.085250
39.250000	1	-0.086375
39.266667	1	-0.088250
39.283333	1	-0.089875
39.300000	1	-0.091125
39.316667	1	-0.092625
39.333333	1	-0.094500
39.350000	1	-0.095875
39.366667	1	-0.098250
39.383333	1	-0.100250
39.400000	1	-0.101750
39.416667	1	-0.103500
39.433333	1	-0.104750
39.450000	1	-0.106375
39.466667	1	-0.108250
39.483333	1	-0.110000
39.500000	1	-0.112000
39.516667	1	-0.114125
39.533333	1	-0.116000
39.550000	1	-0.117125
39.566667	1	-0.118625
39.583333	1	-0.120125
39.600000	1	-0.122250
39.616667	1	-0.123625
39.633333	1	-0.123875
39.650000	1	-0.124750
39.666667	1	-0.125500
39.683333	1	-0.126375
39.700000	1	-0.126875
39.716667	1	-0.127875
39.733333	1	-0.128000
39.750000	1	-0.128250
39.766667	1	-0.128750
39.783333	1	-0.128625
39.800000	1	-0.128750
39.816667	1	-0.129125
39.833333	1	-0.129375
39.850000	1	-0.128500
39.866667	1	-0.128875
39.883333	1	-0.129375
39.900000	1	-0.129625
39.916667	1	-0.129750
39.933333	1	-0.129375
39.950000	1	-0.129125
39.966667	1	-0.128250
39.983333	1	-0.128125
40.000000	1	-0.127625
