URL	chrom://bioreactor/micro_cm7/HPLC_Ultimate_3000/Users/markusar/20240708_MA_pHrange1.seq/684.smp/RI_1.channel/RI_1.chm
Channel	RI_1

Injection Information:
Data Vault	micro_cm7
Sequence	20240708_MA_pHrange1
Name	Pv3_20H_2
Number	43
Position	BD7
Comment	
Processing Method	
Instrument Method	run_25B_method
Type	Unknown
Status	Finished
Inject Time	09.07.2024 20:15:21 +02:00
Volume (µl)	20.0000
Dilution Factor	1.0000
Weight	1.0000

Chromatogram Data Information:
Time Min. (min)	0.000000
Time Max. (min)	40.000000
Data Points	2401
Detector	RI
Generating Data System	Chromeleon 7.3.2.11814
Exporting Data System	Chromeleon 7.3.2.0
Operator	Instrument Controller
Signal Quantity	Refractive 
Signal Unit	µRIU
Signal Min.	-0.081125
Signal Max.	83.906250
Channel	RI_1
Driver Name	RID520Driver.dll
Channel Type	Evaluation
Min. Step (s)	1
Max. Step (s)	1
Average Step (s)	1

Signal Parameter Information:
Signal Info	

Chromatogram Data:
Time (min)	Step (s)	Value (µRIU)
0.000000	n.a.	0.021750
0.016667	1	0.019375
0.033333	1	0.018125
0.050000	1	0.016500
0.066667	1	0.014875
0.083333	1	0.013500
0.100000	1	0.012625
0.116667	1	0.010625
0.133333	1	0.009000
0.150000	1	0.007125
0.166667	1	0.005500
0.183333	1	0.004250
0.200000	1	0.003250
0.216667	1	0.002250
0.233333	1	0.000875
0.250000	1	-0.000250
0.266667	1	-0.001750
0.283333	1	-0.002750
0.300000	1	-0.004125
0.316667	1	-0.005000
0.333333	1	-0.006125
0.350000	1	-0.007375
0.366667	1	-0.008500
0.383333	1	-0.009625
0.400000	1	-0.010500
0.416667	1	-0.011000
0.433333	1	-0.009625
0.450000	1	-0.007500
0.466667	1	-0.005500
0.483333	1	-0.003875
0.500000	1	-0.002875
0.516667	1	-0.001500
0.533333	1	-0.000875
0.550000	1	-0.000625
0.566667	1	-0.001125
0.583333	1	-0.002250
0.600000	1	-0.003125
0.616667	1	-0.004500
0.633333	1	-0.003875
0.650000	1	-0.003125
0.666667	1	-0.002375
0.683333	1	-0.002000
0.700000	1	-0.001500
0.716667	1	-0.000250
0.733333	1	0.001000
0.750000	1	0.001750
0.766667	1	0.002375
0.783333	1	0.003375
0.800000	1	0.004125
0.816667	1	0.004500
0.833333	1	0.004625
0.850000	1	0.005125
0.866667	1	0.005875
0.883333	1	0.006750
0.900000	1	0.007500
0.916667	1	0.007625
0.933333	1	0.008250
0.950000	1	0.008875
0.966667	1	0.009625
0.983333	1	0.010250
1.000000	1	0.010875
1.016667	1	0.011750
1.033333	1	0.012000
1.050000	1	0.013375
1.066667	1	0.014250
1.083333	1	0.014875
1.100000	1	0.015625
1.116667	1	0.016625
1.133333	1	0.017500
1.150000	1	0.018375
1.166667	1	0.019625
1.183333	1	0.021250
1.200000	1	0.022250
1.216667	1	0.023375
1.233333	1	0.024500
1.250000	1	0.025500
1.266667	1	0.027375
1.283333	1	0.028750
1.300000	1	0.030625
1.316667	1	0.031375
1.333333	1	0.032500
1.350000	1	0.034250
1.366667	1	0.034500
1.383333	1	0.035875
1.400000	1	0.036750
1.416667	1	0.037375
1.433333	1	0.038000
1.450000	1	0.039000
1.466667	1	0.039750
1.483333	1	0.040250
1.500000	1	0.040375
1.516667	1	0.040750
1.533333	1	0.040875
1.550000	1	0.040375
1.566667	1	0.040125
1.583333	1	0.039500
1.600000	1	0.038875
1.616667	1	0.038500
1.633333	1	0.038250
1.650000	1	0.037375
1.666667	1	0.036000
1.683333	1	0.034125
1.700000	1	0.031750
1.716667	1	0.029875
1.733333	1	0.027875
1.750000	1	0.025375
1.766667	1	0.023625
1.783333	1	0.022125
1.800000	1	0.020375
1.816667	1	0.017875
1.833333	1	0.015875
1.850000	1	0.014000
1.866667	1	0.012000
1.883333	1	0.010125
1.900000	1	0.008250
1.916667	1	0.006250
1.933333	1	0.004250
1.950000	1	0.002375
1.966667	1	0.000500
1.983333	1	-0.000750
2.000000	1	-0.002250
2.016667	1	-0.004125
2.033333	1	-0.005750
2.050000	1	-0.007250
2.066667	1	-0.008875
2.083333	1	-0.009875
2.100000	1	-0.011375
2.116667	1	-0.013125
2.133333	1	-0.014125
2.150000	1	-0.015875
2.166667	1	-0.017875
2.183333	1	-0.019500
2.200000	1	-0.020625
2.216667	1	-0.021875
2.233333	1	-0.023500
2.250000	1	-0.025250
2.266667	1	-0.025875
2.283333	1	-0.027125
2.300000	1	-0.027875
2.316667	1	-0.028375
2.333333	1	-0.029875
2.350000	1	-0.030875
2.366667	1	-0.031625
2.383333	1	-0.031625
2.400000	1	-0.031000
2.416667	1	-0.030750
2.433333	1	-0.031125
2.450000	1	-0.031125
2.466667	1	-0.030375
2.483333	1	-0.029750
2.500000	1	-0.028875
2.516667	1	-0.027125
2.533333	1	-0.025250
2.550000	1	-0.023125
2.566667	1	-0.020750
2.583333	1	-0.018000
2.600000	1	-0.014875
2.616667	1	-0.012250
2.633333	1	-0.009250
2.650000	1	-0.007000
2.666667	1	-0.004250
2.683333	1	-0.001500
2.700000	1	0.001375
2.716667	1	0.004000
2.733333	1	0.007125
2.750000	1	0.009875
2.766667	1	0.013250
2.783333	1	0.016625
2.800000	1	0.018875
2.816667	1	0.021625
2.833333	1	0.024000
2.850000	1	0.026500
2.866667	1	0.028125
2.883333	1	0.029750
2.900000	1	0.031750
2.916667	1	0.033250
2.933333	1	0.034125
2.950000	1	0.035000
2.966667	1	0.035875
2.983333	1	0.036000
3.000000	1	0.036750
3.016667	1	0.037375
3.033333	1	0.037875
3.050000	1	0.038125
3.066667	1	0.038250
3.083333	1	0.038500
3.100000	1	0.038750
3.116667	1	0.037625
3.133333	1	0.037375
3.150000	1	0.036375
3.166667	1	0.037000
3.183333	1	0.037250
3.200000	1	0.037375
3.216667	1	0.036750
3.233333	1	0.036625
3.250000	1	0.036625
3.266667	1	0.036250
3.283333	1	0.036125
3.300000	1	0.036250
3.316667	1	0.036500
3.333333	1	0.036000
3.350000	1	0.035625
3.366667	1	0.035500
3.383333	1	0.036750
3.400000	1	0.036125
3.416667	1	0.036875
3.433333	1	0.037125
3.450000	1	0.037750
3.466667	1	0.037625
3.483333	1	0.038250
3.500000	1	0.037875
3.516667	1	0.038375
3.533333	1	0.038125
3.550000	1	0.037750
3.566667	1	0.037375
3.583333	1	0.036250
3.600000	1	0.035375
3.616667	1	0.034750
3.633333	1	0.034000
3.650000	1	0.033375
3.666667	1	0.033500
3.683333	1	0.032000
3.700000	1	0.031250
3.716667	1	0.030375
3.733333	1	0.029500
3.750000	1	0.028500
3.766667	1	0.027375
3.783333	1	0.026625
3.800000	1	0.025625
3.816667	1	0.024500
3.833333	1	0.023625
3.850000	1	0.022375
3.866667	1	0.021250
3.883333	1	0.020250
3.900000	1	0.019375
3.916667	1	0.018375
3.933333	1	0.017875
3.950000	1	0.018875
3.966667	1	0.018750
3.983333	1	0.018250
4.000000	1	0.018250
4.016667	1	0.018750
4.033333	1	0.019000
4.050000	1	0.019750
4.066667	1	0.020625
4.083333	1	0.021000
4.100000	1	0.021125
4.116667	1	0.023125
4.133333	1	0.024125
4.150000	1	0.026000
4.166667	1	0.028000
4.183333	1	0.030000
4.200000	1	0.032000
4.216667	1	0.034125
4.233333	1	0.036625
4.250000	1	0.039250
4.266667	1	0.042375
4.283333	1	0.045125
4.300000	1	0.047750
4.316667	1	0.051250
4.333333	1	0.055000
4.350000	1	0.058625
4.366667	1	0.062625
4.383333	1	0.066000
4.400000	1	0.069625
4.416667	1	0.073875
4.433333	1	0.078250
4.450000	1	0.082375
4.466667	1	0.086000
4.483333	1	0.090000
4.500000	1	0.094000
4.516667	1	0.097625
4.533333	1	0.101000
4.550000	1	0.104750
4.566667	1	0.108500
4.583333	1	0.111875
4.600000	1	0.115125
4.616667	1	0.118250
4.633333	1	0.121375
4.650000	1	0.124750
4.666667	1	0.128125
4.683333	1	0.131000
4.700000	1	0.133125
4.716667	1	0.135875
4.733333	1	0.138125
4.750000	1	0.141125
4.766667	1	0.143625
4.783333	1	0.146375
4.800000	1	0.148125
4.816667	1	0.150375
4.833333	1	0.152625
4.850000	1	0.155375
4.866667	1	0.157375
4.883333	1	0.159875
4.900000	1	0.162125
4.916667	1	0.164375
4.933333	1	0.166750
4.950000	1	0.169750
4.966667	1	0.171625
4.983333	1	0.174500
5.000000	1	0.177500
5.016667	1	0.179375
5.033333	1	0.182000
5.050000	1	0.184125
5.066667	1	0.186500
5.083333	1	0.189125
5.100000	1	0.192000
5.116667	1	0.193875
5.133333	1	0.196625
5.150000	1	0.200125
5.166667	1	0.202500
5.183333	1	0.205250
5.200000	1	0.207875
5.216667	1	0.210750
5.233333	1	0.213500
5.250000	1	0.216125
5.266667	1	0.218625
5.283333	1	0.220875
5.300000	1	0.223125
5.316667	1	0.226375
5.333333	1	0.228250
5.350000	1	0.230000
5.366667	1	0.231875
5.383333	1	0.234125
5.400000	1	0.236000
5.416667	1	0.238000
5.433333	1	0.239750
5.450000	1	0.241375
5.466667	1	0.242375
5.483333	1	0.243750
5.500000	1	0.244250
5.516667	1	0.244875
5.533333	1	0.245250
5.550000	1	0.245625
5.566667	1	0.245750
5.583333	1	0.245750
5.600000	1	0.244750
5.616667	1	0.243000
5.633333	1	0.241625
5.650000	1	0.240250
5.666667	1	0.238000
5.683333	1	0.235750
5.700000	1	0.233625
5.716667	1	0.230625
5.733333	1	0.228125
5.750000	1	0.224875
5.766667	1	0.221625
5.783333	1	0.218125
5.800000	1	0.214625
5.816667	1	0.210875
5.833333	1	0.206750
5.850000	1	0.201875
5.866667	1	0.197500
5.883333	1	0.192875
5.900000	1	0.188000
5.916667	1	0.183375
5.933333	1	0.178875
5.950000	1	0.174125
5.966667	1	0.169000
5.983333	1	0.163875
6.000000	1	0.158625
6.016667	1	0.153875
6.033333	1	0.149375
6.050000	1	0.145250
6.066667	1	0.141125
6.083333	1	0.136750
6.100000	1	0.132625
6.116667	1	0.129000
6.133333	1	0.125750
6.150000	1	0.122000
6.166667	1	0.118750
6.183333	1	0.115125
6.200000	1	0.112000
6.216667	1	0.108500
6.233333	1	0.106125
6.250000	1	0.103375
6.266667	1	0.100500
6.283333	1	0.098625
6.300000	1	0.096500
6.316667	1	0.094000
6.333333	1	0.091750
6.350000	1	0.090250
6.366667	1	0.088375
6.383333	1	0.086750
6.400000	1	0.085375
6.416667	1	0.083375
6.433333	1	0.082500
6.450000	1	0.081250
6.466667	1	0.080250
6.483333	1	0.078875
6.500000	1	0.077875
6.516667	1	0.077250
6.533333	1	0.075750
6.550000	1	0.075125
6.566667	1	0.074750
6.583333	1	0.074000
6.600000	1	0.073500
6.616667	1	0.073250
6.633333	1	0.072500
6.650000	1	0.072125
6.666667	1	0.071875
6.683333	1	0.071375
6.700000	1	0.070750
6.716667	1	0.069625
6.733333	1	0.069250
6.750000	1	0.068625
6.766667	1	0.068250
6.783333	1	0.067500
6.800000	1	0.067500
6.816667	1	0.067125
6.833333	1	0.066625
6.850000	1	0.066875
6.866667	1	0.066500
6.883333	1	0.066125
6.900000	1	0.066125
6.916667	1	0.066750
6.933333	1	0.066875
6.950000	1	0.067250
6.966667	1	0.067875
6.983333	1	0.067875
7.000000	1	0.068875
7.016667	1	0.069250
7.033333	1	0.070750
7.050000	1	0.072250
7.066667	1	0.073500
7.083333	1	0.075000
7.100000	1	0.076625
7.116667	1	0.077500
7.133333	1	0.079500
7.150000	1	0.081375
7.166667	1	0.084125
7.183333	1	0.086375
7.200000	1	0.089625
7.216667	1	0.091875
7.233333	1	0.094250
7.250000	1	0.097000
7.266667	1	0.099250
7.283333	1	0.100625
7.300000	1	0.102875
7.316667	1	0.105750
7.333333	1	0.107625
7.350000	1	0.110250
7.366667	1	0.112375
7.383333	1	0.114500
7.400000	1	0.116125
7.416667	1	0.117500
7.433333	1	0.118375
7.450000	1	0.119125
7.466667	1	0.119875
7.483333	1	0.121125
7.500000	1	0.120750
7.516667	1	0.120375
7.533333	1	0.120625
7.550000	1	0.120500
7.566667	1	0.119875
7.583333	1	0.118500
7.600000	1	0.115875
7.616667	1	0.114125
7.633333	1	0.111750
7.650000	1	0.109625
7.666667	1	0.107125
7.683333	1	0.104375
7.700000	1	0.100750
7.716667	1	0.097375
7.733333	1	0.093500
7.750000	1	0.089375
7.766667	1	0.085250
7.783333	1	0.081375
7.800000	1	0.076875
7.816667	1	0.072125
7.833333	1	0.067500
7.850000	1	0.062000
7.866667	1	0.057250
7.883333	1	0.052125
7.900000	1	0.047375
7.916667	1	0.041875
7.933333	1	0.036250
7.950000	1	0.030875
7.966667	1	0.025625
7.983333	1	0.020375
8.000000	1	0.015375
8.016667	1	0.009500
8.033333	1	0.004250
8.050000	1	-0.000500
8.066667	1	-0.006500
8.083333	1	-0.010875
8.100000	1	-0.016000
8.116667	1	-0.020250
8.133333	1	-0.025125
8.150000	1	-0.030125
8.166667	1	-0.034000
8.183333	1	-0.038000
8.200000	1	-0.041750
8.216667	1	-0.044625
8.233333	1	-0.047500
8.250000	1	-0.050250
8.266667	1	-0.052375
8.283333	1	-0.053750
8.300000	1	-0.054875
8.316667	1	-0.056125
8.333333	1	-0.056750
8.350000	1	-0.057250
8.366667	1	-0.057250
8.383333	1	-0.056750
8.400000	1	-0.057250
8.416667	1	-0.056000
8.433333	1	-0.054750
8.450000	1	-0.053375
8.466667	1	-0.051625
8.483333	1	-0.049875
8.500000	1	-0.047250
8.516667	1	-0.045000
8.533333	1	-0.042250
8.550000	1	-0.038875
8.566667	1	-0.036375
8.583333	1	-0.033500
8.600000	1	-0.030125
8.616667	1	-0.026750
8.633333	1	-0.024000
8.650000	1	-0.020750
8.666667	1	-0.017875
8.683333	1	-0.014875
8.700000	1	-0.011750
8.716667	1	-0.008875
8.733333	1	-0.006000
8.750000	1	-0.003250
8.766667	1	-0.000125
8.783333	1	0.002375
8.800000	1	0.004625
8.816667	1	0.007625
8.833333	1	0.009500
8.850000	1	0.011875
8.866667	1	0.014000
8.883333	1	0.015250
8.900000	1	0.017250
8.916667	1	0.019500
8.933333	1	0.020625
8.950000	1	0.020875
8.966667	1	0.022125
8.983333	1	0.023000
9.000000	1	0.022250
9.016667	1	0.022250
9.033333	1	0.022375
9.050000	1	0.022500
9.066667	1	0.021750
9.083333	1	0.020625
9.100000	1	0.019375
9.116667	1	0.018125
9.133333	1	0.016625
9.150000	1	0.014875
9.166667	1	0.014375
9.183333	1	0.013375
9.200000	1	0.011875
9.216667	1	0.009625
9.233333	1	0.008125
9.250000	1	0.006125
9.266667	1	0.004500
9.283333	1	0.002500
9.300000	1	0.000500
9.316667	1	-0.000750
9.333333	1	-0.001625
9.350000	1	-0.002375
9.366667	1	-0.003875
9.383333	1	-0.005125
9.400000	1	-0.006250
9.416667	1	-0.006875
9.433333	1	-0.008250
9.450000	1	-0.008375
9.466667	1	-0.008250
9.483333	1	-0.007875
9.500000	1	-0.008375
9.516667	1	-0.009375
9.533333	1	-0.009000
9.550000	1	-0.008375
9.566667	1	-0.008125
9.583333	1	-0.008125
9.600000	1	-0.008000
9.616667	1	-0.008375
9.633333	1	-0.008125
9.650000	1	-0.008000
9.666667	1	-0.007750
9.683333	1	-0.008125
9.700000	1	-0.008000
9.716667	1	-0.009000
9.733333	1	-0.009250
9.750000	1	-0.009375
9.766667	1	-0.010375
9.783333	1	-0.011000
9.800000	1	-0.012250
9.816667	1	-0.012500
9.833333	1	-0.012750
9.850000	1	-0.014125
9.866667	1	-0.015375
9.883333	1	-0.016625
9.900000	1	-0.017625
9.916667	1	-0.018625
9.933333	1	-0.019375
9.950000	1	-0.020250
9.966667	1	-0.020625
9.983333	1	-0.021000
10.000000	1	-0.020500
10.016667	1	-0.019625
10.033333	1	-0.018125
10.050000	1	-0.016875
10.066667	1	-0.014250
10.083333	1	-0.010625
10.100000	1	-0.006375
10.116667	1	-0.001000
10.133333	1	0.005125
10.150000	1	0.011500
10.166667	1	0.019000
10.183333	1	0.027375
10.200000	1	0.036750
10.216667	1	0.047250
10.233333	1	0.058375
10.250000	1	0.071125
10.266667	1	0.086000
10.283333	1	0.102375
10.300000	1	0.119875
10.316667	1	0.140500
10.333333	1	0.162750
10.350000	1	0.185000
10.366667	1	0.205250
10.383333	1	0.221625
10.400000	1	0.231375
10.416667	1	0.228500
10.433333	1	0.207875
10.450000	1	0.167500
10.466667	1	0.106875
10.483333	1	0.031875
10.500000	1	-0.040750
10.516667	1	-0.081125
10.533333	1	-0.043125
10.550000	1	0.134125
10.566667	1	0.525375
10.583333	1	1.210125
10.600000	1	2.266000
10.616667	1	3.764250
10.633333	1	5.761750
10.650000	1	8.294500
10.666667	1	11.393125
10.683333	1	15.070125
10.700000	1	19.329750
10.716667	1	24.159750
10.733333	1	29.536625
10.750000	1	35.423125
10.766667	1	41.757875
10.783333	1	48.454500
10.800000	1	55.387875
10.816667	1	62.357000
10.833333	1	69.045500
10.850000	1	75.001000
10.866667	1	79.623375
10.883333	1	82.208500
10.900000	1	82.121625
10.916667	1	79.045500
10.933333	1	73.166625
10.950000	1	65.174625
10.966667	1	56.050000
10.983333	1	46.775125
11.000000	1	38.102875
11.016667	1	30.477125
11.033333	1	24.072125
11.050000	1	18.867500
11.066667	1	14.742625
11.083333	1	11.536125
11.100000	1	9.079625
11.116667	1	7.217750
11.133333	1	5.815000
11.150000	1	4.761000
11.166667	1	3.967750
11.183333	1	3.367750
11.200000	1	2.910875
11.216667	1	2.558750
11.233333	1	2.284250
11.250000	1	2.066750
11.266667	1	1.891375
11.283333	1	1.748250
11.300000	1	1.629750
11.316667	1	1.529250
11.333333	1	1.444750
11.350000	1	1.372125
11.366667	1	1.309750
11.383333	1	1.256375
11.400000	1	1.209125
11.416667	1	1.168250
11.433333	1	1.133500
11.450000	1	1.102750
11.466667	1	1.077500
11.483333	1	1.054875
11.500000	1	1.035250
11.516667	1	1.018625
11.533333	1	1.005250
11.550000	1	0.993625
11.566667	1	0.984125
11.583333	1	0.976625
11.600000	1	0.970250
11.616667	1	0.966875
11.633333	1	0.964750
11.650000	1	0.964000
11.666667	1	0.963750
11.683333	1	0.966125
11.700000	1	0.970250
11.716667	1	0.975500
11.733333	1	0.982875
11.750000	1	0.990750
11.766667	1	0.999750
11.783333	1	1.009625
11.800000	1	1.020500
11.816667	1	1.031500
11.833333	1	1.042750
11.850000	1	1.054250
11.866667	1	1.064750
11.883333	1	1.074125
11.900000	1	1.083250
11.916667	1	1.090500
11.933333	1	1.097125
11.950000	1	1.102000
11.966667	1	1.106250
11.983333	1	1.110000
12.000000	1	1.113250
12.016667	1	1.116250
12.033333	1	1.118750
12.050000	1	1.121125
12.066667	1	1.123250
12.083333	1	1.126750
12.100000	1	1.129875
12.116667	1	1.133375
12.133333	1	1.137375
12.150000	1	1.141500
12.166667	1	1.145875
12.183333	1	1.150750
12.200000	1	1.156750
12.216667	1	1.164125
12.233333	1	1.171750
12.250000	1	1.181750
12.266667	1	1.194250
12.283333	1	1.210000
12.300000	1	1.229125
12.316667	1	1.255250
12.333333	1	1.287750
12.350000	1	1.330625
12.366667	1	1.386625
12.383333	1	1.459250
12.400000	1	1.553000
12.416667	1	1.673000
12.433333	1	1.824875
12.450000	1	2.013750
12.466667	1	2.245375
12.483333	1	2.526000
12.500000	1	2.860250
12.516667	1	3.252250
12.533333	1	3.704500
12.550000	1	4.217250
12.566667	1	4.788625
12.583333	1	5.412625
12.600000	1	6.081875
12.616667	1	6.781750
12.633333	1	7.502000
12.650000	1	8.226875
12.666667	1	8.942250
12.683333	1	9.634500
12.700000	1	10.294000
12.716667	1	10.913875
12.733333	1	11.492250
12.750000	1	12.031250
12.766667	1	12.538250
12.783333	1	13.022125
12.800000	1	13.492875
12.816667	1	13.962375
12.833333	1	14.442000
12.850000	1	14.938875
12.866667	1	15.461125
12.883333	1	16.013500
12.900000	1	16.598875
12.916667	1	17.218375
12.933333	1	17.870500
12.950000	1	18.554875
12.966667	1	19.270125
12.983333	1	20.014250
13.000000	1	20.784875
13.016667	1	21.580625
13.033333	1	22.400625
13.050000	1	23.245250
13.066667	1	24.112000
13.083333	1	25.000375
13.100000	1	25.909625
13.116667	1	26.840125
13.133333	1	27.788625
13.150000	1	28.756750
13.166667	1	29.743250
13.183333	1	30.748750
13.200000	1	31.773000
13.216667	1	32.815750
13.233333	1	33.877750
13.250000	1	34.960125
13.266667	1	36.062875
13.283333	1	37.186875
13.300000	1	38.331875
13.316667	1	39.498375
13.333333	1	40.688000
13.350000	1	41.899500
13.366667	1	43.134250
13.383333	1	44.392500
13.400000	1	45.673500
13.416667	1	46.978500
13.433333	1	48.309875
13.450000	1	49.668250
13.466667	1	51.054750
13.483333	1	52.471000
13.500000	1	53.916250
13.516667	1	55.390875
13.533333	1	56.894625
13.550000	1	58.428500
13.566667	1	59.993125
13.583333	1	61.589500
13.600000	1	63.216375
13.616667	1	64.876000
13.633333	1	66.569125
13.650000	1	68.299375
13.666667	1	70.067250
13.683333	1	71.872500
13.700000	1	73.717500
13.716667	1	75.600625
13.733333	1	77.512625
13.750000	1	79.423750
13.766667	1	81.242500
13.783333	1	82.785750
13.800000	1	83.780000
13.816667	1	83.906250
13.833333	1	82.845250
13.850000	1	80.306375
13.866667	1	76.063875
13.883333	1	70.052125
13.900000	1	62.492875
13.916667	1	53.952000
13.933333	1	45.203750
13.950000	1	36.976250
13.966667	1	29.760875
13.983333	1	23.756375
14.000000	1	18.936125
14.016667	1	15.149750
14.033333	1	12.220875
14.050000	1	9.984500
14.066667	1	8.299000
14.083333	1	7.042125
14.100000	1	6.113375
14.116667	1	5.428875
14.133333	1	4.921750
14.150000	1	4.542625
14.166667	1	4.253750
14.183333	1	4.030125
14.200000	1	3.853125
14.216667	1	3.709125
14.233333	1	3.589000
14.250000	1	3.487500
14.266667	1	3.399875
14.283333	1	3.322875
14.300000	1	3.253750
14.316667	1	3.192000
14.333333	1	3.137375
14.350000	1	3.088625
14.366667	1	3.045625
14.383333	1	3.007875
14.400000	1	2.977500
14.416667	1	2.955750
14.433333	1	2.943625
14.450000	1	2.945125
14.466667	1	2.963750
14.483333	1	3.005625
14.500000	1	3.079625
14.516667	1	3.197625
14.533333	1	3.376750
14.550000	1	3.640125
14.566667	1	4.018125
14.583333	1	4.547750
14.600000	1	5.279750
14.616667	1	6.272375
14.633333	1	7.597125
14.650000	1	9.328625
14.666667	1	11.544000
14.683333	1	14.317000
14.700000	1	17.702875
14.716667	1	21.730375
14.733333	1	26.401250
14.750000	1	31.666875
14.766667	1	37.429000
14.783333	1	43.526250
14.800000	1	49.760375
14.816667	1	55.891125
14.833333	1	61.651625
14.850000	1	66.764750
14.866667	1	70.967375
14.883333	1	74.038750
14.900000	1	75.817375
14.916667	1	76.222500
14.933333	1	75.256625
14.950000	1	73.004875
14.966667	1	69.624250
14.983333	1	65.329125
15.000000	1	60.357375
15.016667	1	54.955500
15.033333	1	49.359000
15.050000	1	43.782000
15.066667	1	38.403125
15.083333	1	33.357000
15.100000	1	28.735750
15.116667	1	24.590500
15.133333	1	20.939125
15.150000	1	17.770250
15.166667	1	15.056125
15.183333	1	12.759000
15.200000	1	10.831250
15.216667	1	9.225250
15.233333	1	7.896750
15.250000	1	6.803875
15.266667	1	5.909375
15.283333	1	5.181375
15.300000	1	4.592250
15.316667	1	4.119000
15.333333	1	3.740375
15.350000	1	3.440250
15.366667	1	3.204500
15.383333	1	3.022625
15.400000	1	2.884375
15.416667	1	2.781000
15.433333	1	2.705875
15.450000	1	2.653125
15.466667	1	2.616375
15.483333	1	2.591125
15.500000	1	2.571750
15.516667	1	2.555750
15.533333	1	2.539125
15.550000	1	2.519250
15.566667	1	2.495625
15.583333	1	2.467375
15.600000	1	2.433625
15.616667	1	2.395625
15.633333	1	2.354875
15.650000	1	2.311375
15.666667	1	2.267000
15.683333	1	2.224000
15.700000	1	2.182625
15.716667	1	2.142500
15.733333	1	2.104250
15.750000	1	2.067250
15.766667	1	2.032625
15.783333	1	1.998625
15.800000	1	1.964625
15.816667	1	1.931125
15.833333	1	1.897250
15.850000	1	1.862625
15.866667	1	1.828625
15.883333	1	1.794875
15.900000	1	1.763125
15.916667	1	1.732375
15.933333	1	1.704125
15.950000	1	1.678875
15.966667	1	1.656750
15.983333	1	1.639000
16.000000	1	1.624125
16.016667	1	1.612875
16.033333	1	1.605000
16.050000	1	1.598500
16.066667	1	1.594375
16.083333	1	1.590625
16.100000	1	1.587750
16.116667	1	1.584500
16.133333	1	1.580625
16.150000	1	1.575750
16.166667	1	1.569000
16.183333	1	1.560750
16.200000	1	1.551375
16.216667	1	1.540000
16.233333	1	1.526250
16.250000	1	1.511000
16.266667	1	1.495000
16.283333	1	1.478625
16.300000	1	1.461000
16.316667	1	1.442625
16.333333	1	1.423750
16.350000	1	1.406250
16.366667	1	1.388250
16.383333	1	1.371625
16.400000	1	1.356500
16.416667	1	1.343125
16.433333	1	1.331750
16.450000	1	1.322000
16.466667	1	1.315000
16.483333	1	1.310250
16.500000	1	1.307750
16.516667	1	1.308500
16.533333	1	1.311500
16.550000	1	1.315625
16.566667	1	1.321625
16.583333	1	1.328000
16.600000	1	1.334875
16.616667	1	1.340750
16.633333	1	1.346750
16.650000	1	1.351375
16.666667	1	1.354250
16.683333	1	1.356000
16.700000	1	1.355125
16.716667	1	1.354250
16.733333	1	1.352625
16.750000	1	1.351125
16.766667	1	1.349875
16.783333	1	1.349000
16.800000	1	1.348625
16.816667	1	1.349375
16.833333	1	1.350875
16.850000	1	1.352875
16.866667	1	1.355125
16.883333	1	1.358000
16.900000	1	1.360375
16.916667	1	1.361750
16.933333	1	1.362125
16.950000	1	1.360625
16.966667	1	1.357750
16.983333	1	1.355125
17.000000	1	1.350375
17.016667	1	1.344500
17.033333	1	1.338375
17.050000	1	1.331125
17.066667	1	1.323125
17.083333	1	1.314750
17.100000	1	1.307375
17.116667	1	1.300000
17.133333	1	1.293250
17.150000	1	1.287750
17.166667	1	1.283000
17.183333	1	1.278875
17.200000	1	1.276250
17.216667	1	1.274125
17.233333	1	1.273000
17.250000	1	1.272375
17.266667	1	1.272250
17.283333	1	1.272625
17.300000	1	1.273625
17.316667	1	1.275000
17.333333	1	1.277000
17.350000	1	1.279250
17.366667	1	1.281250
17.383333	1	1.283125
17.400000	1	1.285125
17.416667	1	1.287125
17.433333	1	1.288250
17.450000	1	1.287875
17.466667	1	1.287125
17.483333	1	1.284625
17.500000	1	1.281000
17.516667	1	1.276000
17.533333	1	1.269000
17.550000	1	1.260250
17.566667	1	1.250625
17.583333	1	1.239500
17.600000	1	1.226875
17.616667	1	1.212625
17.633333	1	1.197500
17.650000	1	1.181750
17.666667	1	1.166625
17.683333	1	1.150375
17.700000	1	1.134000
17.716667	1	1.118000
17.733333	1	1.101875
17.750000	1	1.086625
17.766667	1	1.072500
17.783333	1	1.058875
17.800000	1	1.045625
17.816667	1	1.034000
17.833333	1	1.022750
17.850000	1	1.013125
17.866667	1	1.003375
17.883333	1	0.995250
17.900000	1	0.987125
17.916667	1	0.979875
17.933333	1	0.972750
17.950000	1	0.967125
17.966667	1	0.962125
17.983333	1	0.957625
18.000000	1	0.953125
18.016667	1	0.947500
18.033333	1	0.942375
18.050000	1	0.937250
18.066667	1	0.931875
18.083333	1	0.926000
18.100000	1	0.921000
18.116667	1	0.916750
18.133333	1	0.910500
18.150000	1	0.906125
18.166667	1	0.902625
18.183333	1	0.899250
18.200000	1	0.896875
18.216667	1	0.895375
18.233333	1	0.894375
18.250000	1	0.894625
18.266667	1	0.894875
18.283333	1	0.895125
18.300000	1	0.896250
18.316667	1	0.897750
18.333333	1	0.900125
18.350000	1	0.902750
18.366667	1	0.905500
18.383333	1	0.908750
18.400000	1	0.912750
18.416667	1	0.916750
18.433333	1	0.921125
18.450000	1	0.927000
18.466667	1	0.934125
18.483333	1	0.942250
18.500000	1	0.951875
18.516667	1	0.963375
18.533333	1	0.975625
18.550000	1	0.990875
18.566667	1	1.007750
18.583333	1	1.027000
18.600000	1	1.048125
18.616667	1	1.071250
18.633333	1	1.096000
18.650000	1	1.123375
18.666667	1	1.152250
18.683333	1	1.182750
18.700000	1	1.214625
18.716667	1	1.248000
18.733333	1	1.283375
18.750000	1	1.319000
18.766667	1	1.355750
18.783333	1	1.393250
18.800000	1	1.429625
18.816667	1	1.465750
18.833333	1	1.499875
18.850000	1	1.532250
18.866667	1	1.561625
18.883333	1	1.587000
18.900000	1	1.607000
18.916667	1	1.622125
18.933333	1	1.631000
18.950000	1	1.633375
18.966667	1	1.629250
18.983333	1	1.617250
19.000000	1	1.597625
19.016667	1	1.571250
19.033333	1	1.538250
19.050000	1	1.499750
19.066667	1	1.457000
19.083333	1	1.410875
19.100000	1	1.362500
19.116667	1	1.312250
19.133333	1	1.263500
19.150000	1	1.216500
19.166667	1	1.173125
19.183333	1	1.134625
19.200000	1	1.101875
19.216667	1	1.077500
19.233333	1	1.062125
19.250000	1	1.056625
19.266667	1	1.064250
19.283333	1	1.083125
19.300000	1	1.115125
19.316667	1	1.163250
19.333333	1	1.226875
19.350000	1	1.306250
19.366667	1	1.401125
19.383333	1	1.511250
19.400000	1	1.635125
19.416667	1	1.770625
19.433333	1	1.914875
19.450000	1	2.064250
19.466667	1	2.215250
19.483333	1	2.363375
19.500000	1	2.503875
19.516667	1	2.632250
19.533333	1	2.745250
19.550000	1	2.838250
19.566667	1	2.909000
19.583333	1	2.954125
19.600000	1	2.974250
19.616667	1	2.966625
19.633333	1	2.933125
19.650000	1	2.875875
19.666667	1	2.796875
19.683333	1	2.700875
19.700000	1	2.590000
19.716667	1	2.467750
19.733333	1	2.338375
19.750000	1	2.204750
19.766667	1	2.071000
19.783333	1	1.938250
19.800000	1	1.809000
19.816667	1	1.685625
19.833333	1	1.568875
19.850000	1	1.459250
19.866667	1	1.357750
19.883333	1	1.265000
19.900000	1	1.179750
19.916667	1	1.102625
19.933333	1	1.033750
19.950000	1	0.972500
19.966667	1	0.917875
19.983333	1	0.870250
20.000000	1	0.828125
20.016667	1	0.791500
20.033333	1	0.760250
20.050000	1	0.735250
20.066667	1	0.715500
20.083333	1	0.700750
20.100000	1	0.689875
20.116667	1	0.683875
20.133333	1	0.681375
20.150000	1	0.682875
20.166667	1	0.687375
20.183333	1	0.694875
20.200000	1	0.704625
20.216667	1	0.716500
20.233333	1	0.729500
20.250000	1	0.743500
20.266667	1	0.756500
20.283333	1	0.768875
20.300000	1	0.779375
20.316667	1	0.787875
20.333333	1	0.793750
20.350000	1	0.796125
20.366667	1	0.794875
20.383333	1	0.790500
20.400000	1	0.782625
20.416667	1	0.771625
20.433333	1	0.758375
20.450000	1	0.743500
20.466667	1	0.727125
20.483333	1	0.711125
20.500000	1	0.695875
20.516667	1	0.682375
20.533333	1	0.671625
20.550000	1	0.664500
20.566667	1	0.662000
20.583333	1	0.666125
20.600000	1	0.676125
20.616667	1	0.693375
20.633333	1	0.718750
20.650000	1	0.753500
20.666667	1	0.797000
20.683333	1	0.848750
20.700000	1	0.909125
20.716667	1	0.977500
20.733333	1	1.052375
20.750000	1	1.132625
20.766667	1	1.216250
20.783333	1	1.300875
20.800000	1	1.384375
20.816667	1	1.464000
20.833333	1	1.538250
20.850000	1	1.602500
20.866667	1	1.655875
20.883333	1	1.696125
20.900000	1	1.722500
20.916667	1	1.733625
20.933333	1	1.730250
20.950000	1	1.711875
20.966667	1	1.679000
20.983333	1	1.634375
21.000000	1	1.577750
21.016667	1	1.512750
21.033333	1	1.442500
21.050000	1	1.368125
21.066667	1	1.291625
21.083333	1	1.214625
21.100000	1	1.138500
21.116667	1	1.066500
21.133333	1	0.997875
21.150000	1	0.933625
21.166667	1	0.875375
21.183333	1	0.821625
21.200000	1	0.773375
21.216667	1	0.730000
21.233333	1	0.691750
21.250000	1	0.657750
21.266667	1	0.628125
21.283333	1	0.602750
21.300000	1	0.580750
21.316667	1	0.561250
21.333333	1	0.544875
21.350000	1	0.530250
21.366667	1	0.517625
21.383333	1	0.507000
21.400000	1	0.497500
21.416667	1	0.489875
21.433333	1	0.483000
21.450000	1	0.477000
21.466667	1	0.471500
21.483333	1	0.466625
21.500000	1	0.462750
21.516667	1	0.459625
21.533333	1	0.456750
21.550000	1	0.453875
21.566667	1	0.452375
21.583333	1	0.450625
21.600000	1	0.450125
21.616667	1	0.450625
21.633333	1	0.451875
21.650000	1	0.454000
21.666667	1	0.456750
21.683333	1	0.460500
21.700000	1	0.465375
21.716667	1	0.470875
21.733333	1	0.478125
21.750000	1	0.485750
21.766667	1	0.493750
21.783333	1	0.502625
21.800000	1	0.512125
21.816667	1	0.522375
21.833333	1	0.532750
21.850000	1	0.543750
21.866667	1	0.554750
21.883333	1	0.566000
21.900000	1	0.577500
21.916667	1	0.588750
21.933333	1	0.598375
21.950000	1	0.608000
21.966667	1	0.617000
21.983333	1	0.625000
22.000000	1	0.632250
22.016667	1	0.638375
22.033333	1	0.643875
22.050000	1	0.647000
22.066667	1	0.649625
22.083333	1	0.651375
22.100000	1	0.652375
22.116667	1	0.651875
22.133333	1	0.649875
22.150000	1	0.646625
22.166667	1	0.642750
22.183333	1	0.637250
22.200000	1	0.630750
22.216667	1	0.622250
22.233333	1	0.612625
22.250000	1	0.602250
22.266667	1	0.590250
22.283333	1	0.577375
22.300000	1	0.563875
22.316667	1	0.549500
22.333333	1	0.534875
22.350000	1	0.520250
22.366667	1	0.504750
22.383333	1	0.489250
22.400000	1	0.473375
22.416667	1	0.458125
22.433333	1	0.443500
22.450000	1	0.429000
22.466667	1	0.415625
22.483333	1	0.403375
22.500000	1	0.392125
22.516667	1	0.381375
22.533333	1	0.371500
22.550000	1	0.363000
22.566667	1	0.355375
22.583333	1	0.347500
22.600000	1	0.341250
22.616667	1	0.335125
22.633333	1	0.329250
22.650000	1	0.324875
22.666667	1	0.320500
22.683333	1	0.316875
22.700000	1	0.314000
22.716667	1	0.311750
22.733333	1	0.309250
22.750000	1	0.307000
22.766667	1	0.304375
22.783333	1	0.302250
22.800000	1	0.301375
22.816667	1	0.300125
22.833333	1	0.298500
22.850000	1	0.297375
22.866667	1	0.296375
22.883333	1	0.295125
22.900000	1	0.294875
22.916667	1	0.294375
22.933333	1	0.294375
22.950000	1	0.294750
22.966667	1	0.294750
22.983333	1	0.295500
23.000000	1	0.296250
23.016667	1	0.297250
23.033333	1	0.298250
23.050000	1	0.299750
23.066667	1	0.301250
23.083333	1	0.303250
23.100000	1	0.304500
23.116667	1	0.307000
23.133333	1	0.309000
23.150000	1	0.311000
23.166667	1	0.313125
23.183333	1	0.314875
23.200000	1	0.316375
23.216667	1	0.318500
23.233333	1	0.320625
23.250000	1	0.323375
23.266667	1	0.326375
23.283333	1	0.329625
23.300000	1	0.335125
23.316667	1	0.341500
23.333333	1	0.349750
23.350000	1	0.359375
23.366667	1	0.372625
23.383333	1	0.389750
23.400000	1	0.410875
23.416667	1	0.438500
23.433333	1	0.472000
23.450000	1	0.512375
23.466667	1	0.562500
23.483333	1	0.623500
23.500000	1	0.695250
23.516667	1	0.781250
23.533333	1	0.882500
23.550000	1	1.000000
23.566667	1	1.135875
23.583333	1	1.290125
23.600000	1	1.462625
23.616667	1	1.654250
23.633333	1	1.864250
23.650000	1	2.091125
23.666667	1	2.333625
23.683333	1	2.587500
23.700000	1	2.850500
23.716667	1	3.119125
23.733333	1	3.389000
23.750000	1	3.654250
23.766667	1	3.909250
23.783333	1	4.148625
23.800000	1	4.366750
23.816667	1	4.557875
23.833333	1	4.718750
23.850000	1	4.844750
23.866667	1	4.933500
23.883333	1	4.983250
23.900000	1	4.993500
23.916667	1	4.964750
23.933333	1	4.898625
23.950000	1	4.797250
23.966667	1	4.664125
23.983333	1	4.503250
24.000000	1	4.318625
24.016667	1	4.115250
24.033333	1	3.898500
24.050000	1	3.673750
24.066667	1	3.443750
24.083333	1	3.213750
24.100000	1	2.985750
24.116667	1	2.763125
24.133333	1	2.548250
24.150000	1	2.343500
24.166667	1	2.150500
24.183333	1	1.970375
24.200000	1	1.802375
24.216667	1	1.648125
24.233333	1	1.506125
24.250000	1	1.378000
24.266667	1	1.260500
24.283333	1	1.156375
24.300000	1	1.062375
24.316667	1	0.978375
24.333333	1	0.904250
24.350000	1	0.838500
24.366667	1	0.780625
24.383333	1	0.731125
24.400000	1	0.688375
24.416667	1	0.651500
24.433333	1	0.620125
24.450000	1	0.593375
24.466667	1	0.570500
24.483333	1	0.551875
24.500000	1	0.536250
24.516667	1	0.523625
24.533333	1	0.512875
24.550000	1	0.504125
24.566667	1	0.496250
24.583333	1	0.489500
24.600000	1	0.483125
24.616667	1	0.478250
24.633333	1	0.473750
24.650000	1	0.468625
24.666667	1	0.464000
24.683333	1	0.458750
24.700000	1	0.454000
24.716667	1	0.449000
24.733333	1	0.444125
24.750000	1	0.438000
24.766667	1	0.432500
24.783333	1	0.426750
24.800000	1	0.421000
24.816667	1	0.414625
24.833333	1	0.408750
24.850000	1	0.403250
24.866667	1	0.397875
24.883333	1	0.392625
24.900000	1	0.387250
24.916667	1	0.382375
24.933333	1	0.377125
24.950000	1	0.372125
24.966667	1	0.367750
24.983333	1	0.363875
25.000000	1	0.360375
25.016667	1	0.356625
25.033333	1	0.352750
25.050000	1	0.348875
25.066667	1	0.346250
25.083333	1	0.343375
25.100000	1	0.340250
25.116667	1	0.336375
25.133333	1	0.333625
25.150000	1	0.330625
25.166667	1	0.328500
25.183333	1	0.326125
25.200000	1	0.323500
25.216667	1	0.320875
25.233333	1	0.318625
25.250000	1	0.316625
25.266667	1	0.314625
25.283333	1	0.313000
25.300000	1	0.311250
25.316667	1	0.309750
25.333333	1	0.308375
25.350000	1	0.306250
25.366667	1	0.304875
25.383333	1	0.303250
25.400000	1	0.302500
25.416667	1	0.301750
25.433333	1	0.301250
25.450000	1	0.301250
25.466667	1	0.301250
25.483333	1	0.301500
25.500000	1	0.302125
25.516667	1	0.303250
25.533333	1	0.303875
25.550000	1	0.304500
25.566667	1	0.305375
25.583333	1	0.305875
25.600000	1	0.306750
25.616667	1	0.307625
25.633333	1	0.308875
25.650000	1	0.310375
25.666667	1	0.311500
25.683333	1	0.312250
25.700000	1	0.313500
25.716667	1	0.315000
25.733333	1	0.315750
25.750000	1	0.316375
25.766667	1	0.317375
25.783333	1	0.318250
25.800000	1	0.318625
25.816667	1	0.319125
25.833333	1	0.319875
25.850000	1	0.320750
25.866667	1	0.321625
25.883333	1	0.322375
25.900000	1	0.323250
25.916667	1	0.325625
25.933333	1	0.328625
25.950000	1	0.330500
25.966667	1	0.332500
25.983333	1	0.335375
26.000000	1	0.337750
26.016667	1	0.341375
26.033333	1	0.344375
26.050000	1	0.349125
26.066667	1	0.353625
26.083333	1	0.358125
26.100000	1	0.362500
26.116667	1	0.366875
26.133333	1	0.371375
26.150000	1	0.376500
26.166667	1	0.380750
26.183333	1	0.385000
26.200000	1	0.388375
26.216667	1	0.392000
26.233333	1	0.395750
26.250000	1	0.398750
26.266667	1	0.399500
26.283333	1	0.400875
26.300000	1	0.402375
26.316667	1	0.402625
26.333333	1	0.402250
26.350000	1	0.400625
26.366667	1	0.398250
26.383333	1	0.394625
26.400000	1	0.391500
26.416667	1	0.387375
26.433333	1	0.382750
26.450000	1	0.377250
26.466667	1	0.371250
26.483333	1	0.364750
26.500000	1	0.358000
26.516667	1	0.350375
26.533333	1	0.343250
26.550000	1	0.335375
26.566667	1	0.326625
26.583333	1	0.319000
26.600000	1	0.310875
26.616667	1	0.303250
26.633333	1	0.295500
26.650000	1	0.288125
26.666667	1	0.280125
26.683333	1	0.273250
26.700000	1	0.267500
26.716667	1	0.260750
26.733333	1	0.254500
26.750000	1	0.248375
26.766667	1	0.243375
26.783333	1	0.238875
26.800000	1	0.233750
26.816667	1	0.230125
26.833333	1	0.227000
26.850000	1	0.224750
26.866667	1	0.222125
26.883333	1	0.220500
26.900000	1	0.218875
26.916667	1	0.217625
26.933333	1	0.217250
26.950000	1	0.217375
26.966667	1	0.218000
26.983333	1	0.218625
27.000000	1	0.220250
27.016667	1	0.222125
27.033333	1	0.224500
27.050000	1	0.227375
27.066667	1	0.230625
27.083333	1	0.234250
27.100000	1	0.239625
27.116667	1	0.245375
27.133333	1	0.252125
27.150000	1	0.259875
27.166667	1	0.269375
27.183333	1	0.280125
27.200000	1	0.292125
27.216667	1	0.306875
27.233333	1	0.323875
27.250000	1	0.343625
27.266667	1	0.366500
27.283333	1	0.393125
27.300000	1	0.423500
27.316667	1	0.459000
27.333333	1	0.500500
27.350000	1	0.547500
27.366667	1	0.602375
27.383333	1	0.664375
27.400000	1	0.734750
27.416667	1	0.814500
27.433333	1	0.904500
27.450000	1	1.006500
27.466667	1	1.119750
27.483333	1	1.244125
27.500000	1	1.381125
27.516667	1	1.530750
27.533333	1	1.692625
27.550000	1	1.866500
27.566667	1	2.051875
27.583333	1	2.247125
27.600000	1	2.451375
27.616667	1	2.662375
27.633333	1	2.878500
27.650000	1	3.098625
27.666667	1	3.318875
27.683333	1	3.536500
27.700000	1	3.748375
27.716667	1	3.951125
27.733333	1	4.141625
27.750000	1	4.315875
27.766667	1	4.471875
27.783333	1	4.606000
27.800000	1	4.715750
27.816667	1	4.799375
27.833333	1	4.854875
27.850000	1	4.881000
27.866667	1	4.877625
27.883333	1	4.843750
27.900000	1	4.780250
27.916667	1	4.690125
27.933333	1	4.572875
27.950000	1	4.432250
27.966667	1	4.270875
27.983333	1	4.092125
28.000000	1	3.898875
28.016667	1	3.694625
28.033333	1	3.482500
28.050000	1	3.266000
28.066667	1	3.047875
28.083333	1	2.831875
28.100000	1	2.619875
28.116667	1	2.415000
28.133333	1	2.217375
28.150000	1	2.030125
28.166667	1	1.853500
28.183333	1	1.689000
28.200000	1	1.536250
28.216667	1	1.396250
28.233333	1	1.267750
28.250000	1	1.151250
28.266667	1	1.045500
28.283333	1	0.950375
28.300000	1	0.865750
28.316667	1	0.791125
28.333333	1	0.726125
28.350000	1	0.669500
28.366667	1	0.620375
28.383333	1	0.578375
28.400000	1	0.543375
28.416667	1	0.514625
28.433333	1	0.490750
28.450000	1	0.472000
28.466667	1	0.458125
28.483333	1	0.447625
28.500000	1	0.440500
28.516667	1	0.437125
28.533333	1	0.436500
28.550000	1	0.438375
28.566667	1	0.442000
28.583333	1	0.447625
28.600000	1	0.455375
28.616667	1	0.464125
28.633333	1	0.473500
28.650000	1	0.484125
28.666667	1	0.494750
28.683333	1	0.506125
28.700000	1	0.517375
28.716667	1	0.528875
28.733333	1	0.540000
28.750000	1	0.550250
28.766667	1	0.559875
28.783333	1	0.568750
28.800000	1	0.576500
28.816667	1	0.583750
28.833333	1	0.590375
28.850000	1	0.595500
28.866667	1	0.599125
28.883333	1	0.602250
28.900000	1	0.603375
28.916667	1	0.604000
28.933333	1	0.603500
28.950000	1	0.601000
28.966667	1	0.597500
28.983333	1	0.593250
29.000000	1	0.587625
29.016667	1	0.581375
29.033333	1	0.573000
29.050000	1	0.564125
29.066667	1	0.554500
29.083333	1	0.543750
29.100000	1	0.532875
29.116667	1	0.520250
29.133333	1	0.506875
29.150000	1	0.493000
29.166667	1	0.478750
29.183333	1	0.464375
29.200000	1	0.449375
29.216667	1	0.434875
29.233333	1	0.419875
29.250000	1	0.404750
29.266667	1	0.389625
29.283333	1	0.373875
29.300000	1	0.359375
29.316667	1	0.344375
29.333333	1	0.329500
29.350000	1	0.316125
29.366667	1	0.302625
29.383333	1	0.289125
29.400000	1	0.276375
29.416667	1	0.263500
29.433333	1	0.251375
29.450000	1	0.240500
29.466667	1	0.228875
29.483333	1	0.218625
29.500000	1	0.209125
29.516667	1	0.199875
29.533333	1	0.191000
29.550000	1	0.182875
29.566667	1	0.175250
29.583333	1	0.168500
29.600000	1	0.162375
29.616667	1	0.156750
29.633333	1	0.151750
29.650000	1	0.146500
29.666667	1	0.141375
29.683333	1	0.136750
29.700000	1	0.132500
29.716667	1	0.129125
29.733333	1	0.126500
29.750000	1	0.124000
29.766667	1	0.121250
29.783333	1	0.119375
29.800000	1	0.117125
29.816667	1	0.116250
29.833333	1	0.114625
29.850000	1	0.113375
29.866667	1	0.112625
29.883333	1	0.111375
29.900000	1	0.111375
29.916667	1	0.111625
29.933333	1	0.111625
29.950000	1	0.112000
29.966667	1	0.112375
29.983333	1	0.113250
30.000000	1	0.114500
30.016667	1	0.115625
30.033333	1	0.116625
30.050000	1	0.118500
30.066667	1	0.120750
30.083333	1	0.122000
30.100000	1	0.123875
30.116667	1	0.125625
30.133333	1	0.127750
30.150000	1	0.129500
30.166667	1	0.130750
30.183333	1	0.132375
30.200000	1	0.134875
30.216667	1	0.138250
30.233333	1	0.141500
30.250000	1	0.144000
30.266667	1	0.146250
30.283333	1	0.149125
30.300000	1	0.151750
30.316667	1	0.154250
30.333333	1	0.156375
30.350000	1	0.158625
30.366667	1	0.161500
30.383333	1	0.164750
30.400000	1	0.167500
30.416667	1	0.170375
30.433333	1	0.172875
30.450000	1	0.175500
30.466667	1	0.178375
30.483333	1	0.181125
30.500000	1	0.184125
30.516667	1	0.187000
30.533333	1	0.190125
30.550000	1	0.194125
30.566667	1	0.198000
30.583333	1	0.202125
30.600000	1	0.206375
30.616667	1	0.210250
30.633333	1	0.214500
30.650000	1	0.219250
30.666667	1	0.224125
30.683333	1	0.229250
30.700000	1	0.234625
30.716667	1	0.241375
30.733333	1	0.248000
30.750000	1	0.255625
30.766667	1	0.263000
30.783333	1	0.271625
30.800000	1	0.280625
30.816667	1	0.289875
30.833333	1	0.300000
30.850000	1	0.311500
30.866667	1	0.322750
30.883333	1	0.335375
30.900000	1	0.349000
30.916667	1	0.364125
30.933333	1	0.380250
30.950000	1	0.398250
30.966667	1	0.418250
30.983333	1	0.440625
31.000000	1	0.465125
31.016667	1	0.492250
31.033333	1	0.523500
31.050000	1	0.557500
31.066667	1	0.594375
31.083333	1	0.635750
31.100000	1	0.681500
31.116667	1	0.731125
31.133333	1	0.785375
31.150000	1	0.844875
31.166667	1	0.909750
31.183333	1	0.979500
31.200000	1	1.055625
31.216667	1	1.136500
31.233333	1	1.223000
31.250000	1	1.313500
31.266667	1	1.408250
31.283333	1	1.506625
31.300000	1	1.607750
31.316667	1	1.711500
31.333333	1	1.817250
31.350000	1	1.922625
31.366667	1	2.027625
31.383333	1	2.131250
31.400000	1	2.231750
31.416667	1	2.328125
31.433333	1	2.419375
31.450000	1	2.503500
31.466667	1	2.579750
31.483333	1	2.646750
31.500000	1	2.704375
31.516667	1	2.750750
31.533333	1	2.785500
31.550000	1	2.809500
31.566667	1	2.821875
31.583333	1	2.821250
31.600000	1	2.809250
31.616667	1	2.785500
31.633333	1	2.750500
31.650000	1	2.704500
31.666667	1	2.648500
31.683333	1	2.584125
31.700000	1	2.512000
31.716667	1	2.432625
31.733333	1	2.347625
31.750000	1	2.257750
31.766667	1	2.165000
31.783333	1	2.068500
31.800000	1	1.970375
31.816667	1	1.872250
31.833333	1	1.774875
31.850000	1	1.676875
31.866667	1	1.581625
31.883333	1	1.488625
31.900000	1	1.398875
31.916667	1	1.312375
31.933333	1	1.229750
31.950000	1	1.151375
31.966667	1	1.076875
31.983333	1	1.006625
32.000000	1	0.940125
32.016667	1	0.877750
32.033333	1	0.819375
32.050000	1	0.764875
32.066667	1	0.714750
32.083333	1	0.667125
32.100000	1	0.623750
32.116667	1	0.582750
32.133333	1	0.545250
32.150000	1	0.510625
32.166667	1	0.478500
32.183333	1	0.448625
32.200000	1	0.421000
32.216667	1	0.395750
32.233333	1	0.371625
32.250000	1	0.349500
32.266667	1	0.328875
32.283333	1	0.310125
32.300000	1	0.291375
32.316667	1	0.274625
32.333333	1	0.259750
32.350000	1	0.245125
32.366667	1	0.232375
32.383333	1	0.220625
32.400000	1	0.210000
32.416667	1	0.199375
32.433333	1	0.190000
32.450000	1	0.181250
32.466667	1	0.173125
32.483333	1	0.166000
32.500000	1	0.159500
32.516667	1	0.153875
32.533333	1	0.147875
32.550000	1	0.141875
32.566667	1	0.137375
32.583333	1	0.133000
32.600000	1	0.128875
32.616667	1	0.125625
32.633333	1	0.122750
32.650000	1	0.119625
32.666667	1	0.116750
32.683333	1	0.114000
32.700000	1	0.111625
32.716667	1	0.109500
32.733333	1	0.107375
32.750000	1	0.105750
32.766667	1	0.104250
32.783333	1	0.102625
32.800000	1	0.100875
32.816667	1	0.098875
32.833333	1	0.096750
32.850000	1	0.095500
32.866667	1	0.093625
32.883333	1	0.092000
32.900000	1	0.090375
32.916667	1	0.089375
32.933333	1	0.088500
32.950000	1	0.087375
32.966667	1	0.086625
32.983333	1	0.085500
33.000000	1	0.084625
33.016667	1	0.084250
33.033333	1	0.083375
33.050000	1	0.083375
33.066667	1	0.082625
33.083333	1	0.082375
33.100000	1	0.082000
33.116667	1	0.082000
33.133333	1	0.082375
33.150000	1	0.083250
33.166667	1	0.084375
33.183333	1	0.084625
33.200000	1	0.085375
33.216667	1	0.086125
33.233333	1	0.087375
33.250000	1	0.089125
33.266667	1	0.090375
33.283333	1	0.092250
33.300000	1	0.093625
33.316667	1	0.095125
33.333333	1	0.098250
33.350000	1	0.099875
33.366667	1	0.102500
33.383333	1	0.105250
33.400000	1	0.107500
33.416667	1	0.109750
33.433333	1	0.112000
33.450000	1	0.114500
33.466667	1	0.117250
33.483333	1	0.119500
33.500000	1	0.122250
33.516667	1	0.125250
33.533333	1	0.128250
33.550000	1	0.131000
33.566667	1	0.134000
33.583333	1	0.137250
33.600000	1	0.139750
33.616667	1	0.142750
33.633333	1	0.144875
33.650000	1	0.147750
33.666667	1	0.151000
33.683333	1	0.153500
33.700000	1	0.156000
33.716667	1	0.158875
33.733333	1	0.161000
33.750000	1	0.163500
33.766667	1	0.165750
33.783333	1	0.168375
33.800000	1	0.170625
33.816667	1	0.172125
33.833333	1	0.174000
33.850000	1	0.175125
33.866667	1	0.176750
33.883333	1	0.178500
33.900000	1	0.179750
33.916667	1	0.180875
33.933333	1	0.182000
33.950000	1	0.183250
33.966667	1	0.183875
33.983333	1	0.183375
34.000000	1	0.184125
34.016667	1	0.184750
34.033333	1	0.184625
34.050000	1	0.184125
34.066667	1	0.184375
34.083333	1	0.183625
34.100000	1	0.182750
34.116667	1	0.181750
34.133333	1	0.181125
34.150000	1	0.181875
34.166667	1	0.181500
34.183333	1	0.181250
34.200000	1	0.180875
34.216667	1	0.180625
34.233333	1	0.180125
34.250000	1	0.179750
34.266667	1	0.179500
34.283333	1	0.179000
34.300000	1	0.179375
34.316667	1	0.178625
34.333333	1	0.178625
34.350000	1	0.179375
34.366667	1	0.180250
34.383333	1	0.181125
34.400000	1	0.180375
34.416667	1	0.181500
34.433333	1	0.182250
34.450000	1	0.183500
34.466667	1	0.184000
34.483333	1	0.184875
34.500000	1	0.186125
34.516667	1	0.187125
34.533333	1	0.188250
34.550000	1	0.189500
34.566667	1	0.190375
34.583333	1	0.191500
34.600000	1	0.192625
34.616667	1	0.193625
34.633333	1	0.194000
34.650000	1	0.194000
34.666667	1	0.194750
34.683333	1	0.195250
34.700000	1	0.195375
34.716667	1	0.195750
34.733333	1	0.195875
34.750000	1	0.200625
34.766667	1	0.199000
34.783333	1	0.196750
34.800000	1	0.194500
34.816667	1	0.192875
34.833333	1	0.191500
34.850000	1	0.190000
34.866667	1	0.188625
34.883333	1	0.186375
34.900000	1	0.184625
34.916667	1	0.183125
34.933333	1	0.181250
34.950000	1	0.179625
34.966667	1	0.177625
34.983333	1	0.175500
35.000000	1	0.173500
35.016667	1	0.171375
35.033333	1	0.169875
35.050000	1	0.167750
35.066667	1	0.166250
35.083333	1	0.165000
35.100000	1	0.163000
35.116667	1	0.161500
35.133333	1	0.159875
35.150000	1	0.158875
35.166667	1	0.157500
35.183333	1	0.156500
35.200000	1	0.156000
35.216667	1	0.155250
35.233333	1	0.153500
35.250000	1	0.153125
35.266667	1	0.152750
35.283333	1	0.153000
35.300000	1	0.153250
35.316667	1	0.153125
35.333333	1	0.153500
35.350000	1	0.154250
35.366667	1	0.154875
35.383333	1	0.155500
35.400000	1	0.155750
35.416667	1	0.157125
35.433333	1	0.158250
35.450000	1	0.159625
35.466667	1	0.160875
35.483333	1	0.162000
35.500000	1	0.163500
35.516667	1	0.165250
35.533333	1	0.166750
35.550000	1	0.168125
35.566667	1	0.169375
35.583333	1	0.170250
35.600000	1	0.171000
35.616667	1	0.172625
35.633333	1	0.174125
35.650000	1	0.176250
35.666667	1	0.177125
35.683333	1	0.178000
35.700000	1	0.179000
35.716667	1	0.180375
35.733333	1	0.180500
35.750000	1	0.181375
35.766667	1	0.181875
35.783333	1	0.182625
35.800000	1	0.182875
35.816667	1	0.182875
35.833333	1	0.183000
35.850000	1	0.183500
35.866667	1	0.183375
35.883333	1	0.183750
35.900000	1	0.184375
35.916667	1	0.184625
35.933333	1	0.184625
35.950000	1	0.184375
35.966667	1	0.183750
35.983333	1	0.183500
36.000000	1	0.184000
36.016667	1	0.184500
36.033333	1	0.184000
36.050000	1	0.183375
36.066667	1	0.184250
36.083333	1	0.185000
36.100000	1	0.186000
36.116667	1	0.186125
36.133333	1	0.187375
36.150000	1	0.188375
36.166667	1	0.188750
36.183333	1	0.189750
36.200000	1	0.190750
36.216667	1	0.191750
36.233333	1	0.192250
36.250000	1	0.192875
36.266667	1	0.193750
36.283333	1	0.194500
36.300000	1	0.195250
36.316667	1	0.196375
36.333333	1	0.196625
36.350000	1	0.197875
36.366667	1	0.198500
36.383333	1	0.198875
36.400000	1	0.199125
36.416667	1	0.200375
36.433333	1	0.200125
36.450000	1	0.199375
36.466667	1	0.199000
36.483333	1	0.198750
36.500000	1	0.197750
36.516667	1	0.197000
36.533333	1	0.195500
36.550000	1	0.194250
36.566667	1	0.192125
36.583333	1	0.189500
36.600000	1	0.186500
36.616667	1	0.183625
36.633333	1	0.181125
36.650000	1	0.178500
36.666667	1	0.176125
36.683333	1	0.173375
36.700000	1	0.170750
36.716667	1	0.167375
36.733333	1	0.163500
36.750000	1	0.159250
36.766667	1	0.155750
36.783333	1	0.151875
36.800000	1	0.148750
36.816667	1	0.145125
36.833333	1	0.142000
36.850000	1	0.137625
36.866667	1	0.133750
36.883333	1	0.130125
36.900000	1	0.126500
36.916667	1	0.122750
36.933333	1	0.119125
36.950000	1	0.115250
36.966667	1	0.112625
36.983333	1	0.108875
37.000000	1	0.105750
37.016667	1	0.103250
37.033333	1	0.100750
37.050000	1	0.098125
37.066667	1	0.095250
37.083333	1	0.093000
37.100000	1	0.091000
37.116667	1	0.089500
37.133333	1	0.088375
37.150000	1	0.086000
37.166667	1	0.084250
37.183333	1	0.083000
37.200000	1	0.082000
37.216667	1	0.081125
37.233333	1	0.080125
37.250000	1	0.079125
37.266667	1	0.078250
37.283333	1	0.076625
37.300000	1	0.075625
37.316667	1	0.075500
37.333333	1	0.075125
37.350000	1	0.074750
37.366667	1	0.074375
37.383333	1	0.073500
37.400000	1	0.073000
37.416667	1	0.072000
37.433333	1	0.071000
37.450000	1	0.070750
37.466667	1	0.070250
37.483333	1	0.069250
37.500000	1	0.068125
37.516667	1	0.068125
37.533333	1	0.067750
37.550000	1	0.066500
37.566667	1	0.065875
37.583333	1	0.064875
37.600000	1	0.064000
37.616667	1	0.063500
37.633333	1	0.062625
37.650000	1	0.061875
37.666667	1	0.061250
37.683333	1	0.060000
37.700000	1	0.059125
37.716667	1	0.058375
37.733333	1	0.057500
37.750000	1	0.056875
37.766667	1	0.056000
37.783333	1	0.054750
37.800000	1	0.053375
37.816667	1	0.052125
37.833333	1	0.051750
37.850000	1	0.050125
37.866667	1	0.049000
37.883333	1	0.048250
37.900000	1	0.046625
37.916667	1	0.045875
37.933333	1	0.044500
37.950000	1	0.043250
37.966667	1	0.041625
37.983333	1	0.040500
38.000000	1	0.039375
38.016667	1	0.038250
38.033333	1	0.036375
38.050000	1	0.035625
38.066667	1	0.034625
38.083333	1	0.033250
38.100000	1	0.032875
38.116667	1	0.031750
38.133333	1	0.031250
38.150000	1	0.030750
38.166667	1	0.030125
38.183333	1	0.030250
38.200000	1	0.029500
38.216667	1	0.029125
38.233333	1	0.029125
38.250000	1	0.029500
38.266667	1	0.030500
38.283333	1	0.031750
38.300000	1	0.032625
38.316667	1	0.033625
38.333333	1	0.035250
38.350000	1	0.036375
38.366667	1	0.038125
38.383333	1	0.039750
38.400000	1	0.042000
38.416667	1	0.044250
38.433333	1	0.046250
38.450000	1	0.048625
38.466667	1	0.051375
38.483333	1	0.054250
38.500000	1	0.056625
38.516667	1	0.059875
38.533333	1	0.062500
38.550000	1	0.065625
38.566667	1	0.068125
38.583333	1	0.071000
38.600000	1	0.074625
38.616667	1	0.077250
38.633333	1	0.079875
38.650000	1	0.082375
38.666667	1	0.085000
38.683333	1	0.087375
38.700000	1	0.089250
38.716667	1	0.092000
38.733333	1	0.093750
38.750000	1	0.095750
38.766667	1	0.097750
38.783333	1	0.100000
38.800000	1	0.101625
38.816667	1	0.103125
38.833333	1	0.105000
38.850000	1	0.105750
38.866667	1	0.106625
38.883333	1	0.107750
38.900000	1	0.109625
38.916667	1	0.110250
38.933333	1	0.110250
38.950000	1	0.109375
38.966667	1	0.109250
38.983333	1	0.108500
39.000000	1	0.107250
39.016667	1	0.106500
39.033333	1	0.104750
39.050000	1	0.103000
39.066667	1	0.101250
39.083333	1	0.099125
39.100000	1	0.096625
39.116667	1	0.094000
39.133333	1	0.090875
39.150000	1	0.087750
39.166667	1	0.084750
39.183333	1	0.082000
39.200000	1	0.078625
39.216667	1	0.075000
39.233333	1	0.071000
39.250000	1	0.067500
39.266667	1	0.064250
39.283333	1	0.060500
39.300000	1	0.056500
39.316667	1	0.053000
39.333333	1	0.050000
39.350000	1	0.047125
39.366667	1	0.044250
39.383333	1	0.041125
39.400000	1	0.037750
39.416667	1	0.034125
39.433333	1	0.029875
39.450000	1	0.026375
39.466667	1	0.023875
39.483333	1	0.021500
39.500000	1	0.019125
39.516667	1	0.017125
39.533333	1	0.015125
39.550000	1	0.012500
39.566667	1	0.010750
39.583333	1	0.008750
39.600000	1	0.006625
39.616667	1	0.005250
39.633333	1	0.003875
39.650000	1	0.002625
39.666667	1	0.002125
39.683333	1	0.001625
39.700000	1	0.001250
39.716667	1	0.000875
39.733333	1	0.000250
39.750000	1	0.000000
39.766667	1	0.000500
39.783333	1	0.001500
39.800000	1	0.001500
39.816667	1	0.002375
39.833333	1	0.002875
39.850000	1	0.003750
39.866667	1	0.004750
39.883333	1	0.006000
39.900000	1	0.006875
39.916667	1	0.008000
39.933333	1	0.008375
39.950000	1	0.008875
39.966667	1	0.010000
39.983333	1	0.010750
40.000000	1	0.011625
