URL	chrom://bioreactor/micro_cm7/HPLC_Ultimate_3000/Users/markusar/20240708_MA_pHrange1.seq/200.smp/RI_1.channel/RI_1.chm
Channel	RI_1

Injection Information:
Data Vault	micro_cm7
Sequence	20240708_MA_pHrange1
Name	Pv3_5.7_1
Number	27
Position	BC3
Comment	
Processing Method	
Instrument Method	run_25B_method
Type	Unknown
Status	Finished
Inject Time	09.07.2024 09:19:46 +02:00
Volume (µl)	20.0000
Dilution Factor	1.0000
Weight	1.0000

Chromatogram Data Information:
Time Min. (min)	0.000000
Time Max. (min)	40.000000
Data Points	2401
Detector	RI
Generating Data System	Chromeleon 7.3.2.11814
Exporting Data System	Chromeleon 7.3.2.0
Operator	Instrument Controller
Signal Quantity	Refractive 
Signal Unit	µRIU
Signal Min.	-0.039375
Signal Max.	83.373750
Channel	RI_1
Driver Name	RID520Driver.dll
Channel Type	Evaluation
Min. Step (s)	1
Max. Step (s)	1
Average Step (s)	1

Signal Parameter Information:
Signal Info	

Chromatogram Data:
Time (min)	Step (s)	Value (µRIU)
0.000000	n.a.	-0.013125
0.016667	1	-0.012125
0.033333	1	-0.010750
0.050000	1	-0.010000
0.066667	1	-0.008625
0.083333	1	-0.007500
0.100000	1	-0.006250
0.116667	1	-0.005000
0.133333	1	-0.003625
0.150000	1	-0.002375
0.166667	1	-0.000500
0.183333	1	0.000375
0.200000	1	0.002625
0.216667	1	0.003125
0.233333	1	0.004875
0.250000	1	0.006875
0.266667	1	0.009000
0.283333	1	0.010625
0.300000	1	0.013000
0.316667	1	0.015125
0.333333	1	0.017000
0.350000	1	0.018875
0.366667	1	0.020750
0.383333	1	0.022000
0.400000	1	0.023750
0.416667	1	0.025875
0.433333	1	0.029125
0.450000	1	0.033125
0.466667	1	0.036500
0.483333	1	0.039500
0.500000	1	0.042375
0.516667	1	0.044625
0.533333	1	0.046500
0.550000	1	0.047625
0.566667	1	0.048250
0.583333	1	0.048125
0.600000	1	0.047375
0.616667	1	0.046250
0.633333	1	0.046125
0.650000	1	0.046250
0.666667	1	0.046375
0.683333	1	0.046375
0.700000	1	0.046375
0.716667	1	0.046625
0.733333	1	0.046375
0.750000	1	0.046375
0.766667	1	0.045125
0.783333	1	0.044750
0.800000	1	0.044000
0.816667	1	0.043250
0.833333	1	0.042625
0.850000	1	0.041875
0.866667	1	0.040875
0.883333	1	0.040250
0.900000	1	0.039125
0.916667	1	0.037500
0.933333	1	0.035750
0.950000	1	0.033875
0.966667	1	0.032625
0.983333	1	0.031250
1.000000	1	0.030250
1.016667	1	0.028375
1.033333	1	0.026875
1.050000	1	0.025500
1.066667	1	0.024250
1.083333	1	0.023375
1.100000	1	0.021875
1.116667	1	0.020500
1.133333	1	0.018875
1.150000	1	0.017750
1.166667	1	0.016250
1.183333	1	0.015125
1.200000	1	0.013625
1.216667	1	0.012875
1.233333	1	0.012125
1.250000	1	0.011375
1.266667	1	0.010125
1.283333	1	0.009500
1.300000	1	0.008875
1.316667	1	0.007375
1.333333	1	0.006250
1.350000	1	0.006125
1.366667	1	0.005250
1.383333	1	0.003625
1.400000	1	0.002500
1.416667	1	0.002625
1.433333	1	0.002250
1.450000	1	0.001125
1.466667	1	0.000000
1.483333	1	-0.000875
1.500000	1	-0.001375
1.516667	1	-0.002250
1.533333	1	-0.003000
1.550000	1	-0.004000
1.566667	1	-0.004500
1.583333	1	-0.005750
1.600000	1	-0.006250
1.616667	1	-0.007375
1.633333	1	-0.007750
1.650000	1	-0.008875
1.666667	1	-0.009625
1.683333	1	-0.009750
1.700000	1	-0.010500
1.716667	1	-0.012000
1.733333	1	-0.012000
1.750000	1	-0.013875
1.766667	1	-0.014750
1.783333	1	-0.015250
1.800000	1	-0.015875
1.816667	1	-0.016375
1.833333	1	-0.017125
1.850000	1	-0.017625
1.866667	1	-0.017875
1.883333	1	-0.017750
1.900000	1	-0.018250
1.916667	1	-0.018875
1.933333	1	-0.019250
1.950000	1	-0.019250
1.966667	1	-0.019875
1.983333	1	-0.019375
2.000000	1	-0.019000
2.016667	1	-0.019375
2.033333	1	-0.020125
2.050000	1	-0.020500
2.066667	1	-0.020375
2.083333	1	-0.020625
2.100000	1	-0.020875
2.116667	1	-0.020875
2.133333	1	-0.021500
2.150000	1	-0.021750
2.166667	1	-0.022250
2.183333	1	-0.022500
2.200000	1	-0.022875
2.216667	1	-0.022625
2.233333	1	-0.022750
2.250000	1	-0.023125
2.266667	1	-0.022875
2.283333	1	-0.023000
2.300000	1	-0.023875
2.316667	1	-0.024375
2.333333	1	-0.024625
2.350000	1	-0.024875
2.366667	1	-0.025625
2.383333	1	-0.025500
2.400000	1	-0.025250
2.416667	1	-0.024750
2.433333	1	-0.024125
2.450000	1	-0.023375
2.466667	1	-0.023125
2.483333	1	-0.022500
2.500000	1	-0.021875
2.516667	1	-0.021250
2.533333	1	-0.020375
2.550000	1	-0.020000
2.566667	1	-0.019000
2.583333	1	-0.018125
2.600000	1	-0.017750
2.616667	1	-0.016000
2.633333	1	-0.015125
2.650000	1	-0.014875
2.666667	1	-0.013750
2.683333	1	-0.012250
2.700000	1	-0.010625
2.716667	1	-0.009375
2.733333	1	-0.007625
2.750000	1	-0.005500
2.766667	1	-0.003875
2.783333	1	-0.002750
2.800000	1	-0.001375
2.816667	1	0.000875
2.833333	1	0.002875
2.850000	1	0.004125
2.866667	1	0.005250
2.883333	1	0.006875
2.900000	1	0.007875
2.916667	1	0.009625
2.933333	1	0.010875
2.950000	1	0.011875
2.966667	1	0.013250
2.983333	1	0.014625
3.000000	1	0.016625
3.016667	1	0.017375
3.033333	1	0.018250
3.050000	1	0.019250
3.066667	1	0.019625
3.083333	1	0.020000
3.100000	1	0.020500
3.116667	1	0.020250
3.133333	1	0.020500
3.150000	1	0.020250
3.166667	1	0.019500
3.183333	1	0.020250
3.200000	1	0.020125
3.216667	1	0.019750
3.233333	1	0.019000
3.250000	1	0.018750
3.266667	1	0.018375
3.283333	1	0.018125
3.300000	1	0.017250
3.316667	1	0.016375
3.333333	1	0.014875
3.350000	1	0.014375
3.366667	1	0.013500
3.383333	1	0.014125
3.400000	1	0.013875
3.416667	1	0.014250
3.433333	1	0.014750
3.450000	1	0.014750
3.466667	1	0.014750
3.483333	1	0.014500
3.500000	1	0.014375
3.516667	1	0.014750
3.533333	1	0.015125
3.550000	1	0.015250
3.566667	1	0.015250
3.583333	1	0.015375
3.600000	1	0.016375
3.616667	1	0.017250
3.633333	1	0.018000
3.650000	1	0.018750
3.666667	1	0.019500
3.683333	1	0.020625
3.700000	1	0.021000
3.716667	1	0.021750
3.733333	1	0.023125
3.750000	1	0.024250
3.766667	1	0.025125
3.783333	1	0.025250
3.800000	1	0.026125
3.816667	1	0.026375
3.833333	1	0.026750
3.850000	1	0.027250
3.866667	1	0.028500
3.883333	1	0.029500
3.900000	1	0.030500
3.916667	1	0.031875
3.933333	1	0.032625
3.950000	1	0.033125
3.966667	1	0.034500
3.983333	1	0.036125
4.000000	1	0.036750
4.016667	1	0.038375
4.033333	1	0.039125
4.050000	1	0.041000
4.066667	1	0.041625
4.083333	1	0.042500
4.100000	1	0.043375
4.116667	1	0.044750
4.133333	1	0.045625
4.150000	1	0.046625
4.166667	1	0.047625
4.183333	1	0.048625
4.200000	1	0.050250
4.216667	1	0.051875
4.233333	1	0.053500
4.250000	1	0.054500
4.266667	1	0.055500
4.283333	1	0.056375
4.300000	1	0.057875
4.316667	1	0.059000
4.333333	1	0.059750
4.350000	1	0.060625
4.366667	1	0.062125
4.383333	1	0.063125
4.400000	1	0.064750
4.416667	1	0.066750
4.433333	1	0.068375
4.450000	1	0.069125
4.466667	1	0.070750
4.483333	1	0.071500
4.500000	1	0.072250
4.516667	1	0.073625
4.533333	1	0.074000
4.550000	1	0.076625
4.566667	1	0.078375
4.583333	1	0.080250
4.600000	1	0.081500
4.616667	1	0.083500
4.633333	1	0.084875
4.650000	1	0.087000
4.666667	1	0.088750
4.683333	1	0.090500
4.700000	1	0.092750
4.716667	1	0.094750
4.733333	1	0.096375
4.750000	1	0.098125
4.766667	1	0.100375
4.783333	1	0.102500
4.800000	1	0.105125
4.816667	1	0.107875
4.833333	1	0.110250
4.850000	1	0.113250
4.866667	1	0.116125
4.883333	1	0.119000
4.900000	1	0.121750
4.916667	1	0.124500
4.933333	1	0.127500
4.950000	1	0.131125
4.966667	1	0.134625
4.983333	1	0.139000
5.000000	1	0.142750
5.016667	1	0.146625
5.033333	1	0.150875
5.050000	1	0.155000
5.066667	1	0.159375
5.083333	1	0.162875
5.100000	1	0.167875
5.116667	1	0.172125
5.133333	1	0.176250
5.150000	1	0.181000
5.166667	1	0.185625
5.183333	1	0.190625
5.200000	1	0.195000
5.216667	1	0.198875
5.233333	1	0.203250
5.250000	1	0.207500
5.266667	1	0.211250
5.283333	1	0.215500
5.300000	1	0.219375
5.316667	1	0.222750
5.333333	1	0.226000
5.350000	1	0.230375
5.366667	1	0.233500
5.383333	1	0.236750
5.400000	1	0.239750
5.416667	1	0.241875
5.433333	1	0.244250
5.450000	1	0.246750
5.466667	1	0.248625
5.483333	1	0.250750
5.500000	1	0.251625
5.516667	1	0.253000
5.533333	1	0.254125
5.550000	1	0.254875
5.566667	1	0.255750
5.583333	1	0.256000
5.600000	1	0.256125
5.616667	1	0.255375
5.633333	1	0.254000
5.650000	1	0.252625
5.666667	1	0.250875
5.683333	1	0.249875
5.700000	1	0.247875
5.716667	1	0.245375
5.733333	1	0.242625
5.750000	1	0.239875
5.766667	1	0.237000
5.783333	1	0.234000
5.800000	1	0.230750
5.816667	1	0.227250
5.833333	1	0.223375
5.850000	1	0.219375
5.866667	1	0.215375
5.883333	1	0.211250
5.900000	1	0.207250
5.916667	1	0.202500
5.933333	1	0.198625
5.950000	1	0.194125
5.966667	1	0.189625
5.983333	1	0.185500
6.000000	1	0.180875
6.016667	1	0.176875
6.033333	1	0.172250
6.050000	1	0.167375
6.066667	1	0.163125
6.083333	1	0.158750
6.100000	1	0.154750
6.116667	1	0.150375
6.133333	1	0.146375
6.150000	1	0.142000
6.166667	1	0.138125
6.183333	1	0.134375
6.200000	1	0.130375
6.216667	1	0.126625
6.233333	1	0.122250
6.250000	1	0.119250
6.266667	1	0.115750
6.283333	1	0.112250
6.300000	1	0.107625
6.316667	1	0.104000
6.333333	1	0.100875
6.350000	1	0.097875
6.366667	1	0.094500
6.383333	1	0.091500
6.400000	1	0.088250
6.416667	1	0.085750
6.433333	1	0.083125
6.450000	1	0.080750
6.466667	1	0.078625
6.483333	1	0.076250
6.500000	1	0.074500
6.516667	1	0.072250
6.533333	1	0.070875
6.550000	1	0.069125
6.566667	1	0.067625
6.583333	1	0.066750
6.600000	1	0.065375
6.616667	1	0.064500
6.633333	1	0.064375
6.650000	1	0.063375
6.666667	1	0.062375
6.683333	1	0.061875
6.700000	1	0.061875
6.716667	1	0.062000
6.733333	1	0.062000
6.750000	1	0.063000
6.766667	1	0.063875
6.783333	1	0.063625
6.800000	1	0.063625
6.816667	1	0.064500
6.833333	1	0.065625
6.850000	1	0.066750
6.866667	1	0.067500
6.883333	1	0.068375
6.900000	1	0.068875
6.916667	1	0.070375
6.933333	1	0.071375
6.950000	1	0.072875
6.966667	1	0.074125
6.983333	1	0.075750
7.000000	1	0.077500
7.016667	1	0.078750
7.033333	1	0.080750
7.050000	1	0.081750
7.066667	1	0.082625
7.083333	1	0.084750
7.100000	1	0.086375
7.116667	1	0.088250
7.133333	1	0.089875
7.150000	1	0.091875
7.166667	1	0.093875
7.183333	1	0.095625
7.200000	1	0.098375
7.216667	1	0.100750
7.233333	1	0.102875
7.250000	1	0.105250
7.266667	1	0.107625
7.283333	1	0.109625
7.300000	1	0.111875
7.316667	1	0.114125
7.333333	1	0.116125
7.350000	1	0.117750
7.366667	1	0.119750
7.383333	1	0.121125
7.400000	1	0.122375
7.416667	1	0.123500
7.433333	1	0.125000
7.450000	1	0.126250
7.466667	1	0.126500
7.483333	1	0.127000
7.500000	1	0.127250
7.516667	1	0.127125
7.533333	1	0.126625
7.550000	1	0.126500
7.566667	1	0.125875
7.583333	1	0.124625
7.600000	1	0.122750
7.616667	1	0.120500
7.633333	1	0.118625
7.650000	1	0.116250
7.666667	1	0.113375
7.683333	1	0.110625
7.700000	1	0.107625
7.716667	1	0.104125
7.733333	1	0.100750
7.750000	1	0.096750
7.766667	1	0.092750
7.783333	1	0.088875
7.800000	1	0.084250
7.816667	1	0.079250
7.833333	1	0.074125
7.850000	1	0.069250
7.866667	1	0.064875
7.883333	1	0.060625
7.900000	1	0.055750
7.916667	1	0.051500
7.933333	1	0.047000
7.950000	1	0.042625
7.966667	1	0.038500
7.983333	1	0.034500
8.000000	1	0.031000
8.016667	1	0.027000
8.033333	1	0.023125
8.050000	1	0.018500
8.066667	1	0.015000
8.083333	1	0.011000
8.100000	1	0.007500
8.116667	1	0.004875
8.133333	1	0.001875
8.150000	1	0.000000
8.166667	1	-0.002875
8.183333	1	-0.005125
8.200000	1	-0.007125
8.216667	1	-0.009000
8.233333	1	-0.011000
8.250000	1	-0.012875
8.266667	1	-0.014125
8.283333	1	-0.015625
8.300000	1	-0.016750
8.316667	1	-0.017375
8.333333	1	-0.018625
8.350000	1	-0.019125
8.366667	1	-0.020375
8.383333	1	-0.020750
8.400000	1	-0.021500
8.416667	1	-0.022250
8.433333	1	-0.023500
8.450000	1	-0.023750
8.466667	1	-0.024750
8.483333	1	-0.025125
8.500000	1	-0.025375
8.516667	1	-0.025750
8.533333	1	-0.026125
8.550000	1	-0.027125
8.566667	1	-0.027875
8.583333	1	-0.028625
8.600000	1	-0.029125
8.616667	1	-0.030000
8.633333	1	-0.030375
8.650000	1	-0.030750
8.666667	1	-0.031000
8.683333	1	-0.031250
8.700000	1	-0.032000
8.716667	1	-0.032500
8.733333	1	-0.032750
8.750000	1	-0.033375
8.766667	1	-0.033875
8.783333	1	-0.034250
8.800000	1	-0.033750
8.816667	1	-0.034125
8.833333	1	-0.033625
8.850000	1	-0.033125
8.866667	1	-0.032750
8.883333	1	-0.032000
8.900000	1	-0.031625
8.916667	1	-0.031125
8.933333	1	-0.030500
8.950000	1	-0.029125
8.966667	1	-0.027875
8.983333	1	-0.026750
9.000000	1	-0.026375
9.016667	1	-0.026125
9.033333	1	-0.025250
9.050000	1	-0.024125
9.066667	1	-0.023375
9.083333	1	-0.022250
9.100000	1	-0.021875
9.116667	1	-0.020875
9.133333	1	-0.020000
9.150000	1	-0.019000
9.166667	1	-0.018000
9.183333	1	-0.016750
9.200000	1	-0.016125
9.216667	1	-0.015000
9.233333	1	-0.014000
9.250000	1	-0.013250
9.266667	1	-0.012250
9.283333	1	-0.012125
9.300000	1	-0.011375
9.316667	1	-0.010875
9.333333	1	-0.010000
9.350000	1	-0.009625
9.366667	1	-0.008625
9.383333	1	-0.007625
9.400000	1	-0.007250
9.416667	1	-0.007500
9.433333	1	-0.006750
9.450000	1	-0.006500
9.466667	1	-0.006125
9.483333	1	-0.006125
9.500000	1	-0.006000
9.516667	1	-0.005875
9.533333	1	-0.005500
9.550000	1	-0.005250
9.566667	1	-0.005875
9.583333	1	-0.006500
9.600000	1	-0.006375
9.616667	1	-0.007125
9.633333	1	-0.007625
9.650000	1	-0.007375
9.666667	1	-0.007750
9.683333	1	-0.008375
9.700000	1	-0.008625
9.716667	1	-0.009250
9.733333	1	-0.011000
9.750000	1	-0.011750
9.766667	1	-0.012000
9.783333	1	-0.012750
9.800000	1	-0.012875
9.816667	1	-0.012625
9.833333	1	-0.014125
9.850000	1	-0.014250
9.866667	1	-0.014625
9.883333	1	-0.015500
9.900000	1	-0.016250
9.916667	1	-0.015875
9.933333	1	-0.015625
9.950000	1	-0.015000
9.966667	1	-0.014625
9.983333	1	-0.013625
10.000000	1	-0.012375
10.016667	1	-0.011125
10.033333	1	-0.008625
10.050000	1	-0.006250
10.066667	1	-0.003250
10.083333	1	0.000500
10.100000	1	0.005000
10.116667	1	0.010500
10.133333	1	0.017000
10.150000	1	0.024125
10.166667	1	0.032500
10.183333	1	0.040875
10.200000	1	0.050625
10.216667	1	0.062125
10.233333	1	0.074250
10.250000	1	0.088750
10.266667	1	0.104875
10.283333	1	0.122500
10.300000	1	0.143125
10.316667	1	0.166750
10.333333	1	0.192000
10.350000	1	0.219625
10.366667	1	0.247750
10.383333	1	0.275375
10.400000	1	0.300250
10.416667	1	0.318125
10.433333	1	0.326625
10.450000	1	0.322875
10.466667	1	0.303875
10.483333	1	0.273750
10.500000	1	0.241500
10.516667	1	0.227500
10.533333	1	0.266000
10.550000	1	0.406500
10.566667	1	0.711625
10.583333	1	1.254875
10.600000	1	2.108625
10.616667	1	3.341250
10.633333	1	5.004250
10.650000	1	7.134000
10.666667	1	9.751750
10.683333	1	12.859125
10.700000	1	16.440500
10.716667	1	20.459000
10.733333	1	24.848000
10.750000	1	29.508125
10.766667	1	34.284500
10.783333	1	38.961250
10.800000	1	43.246375
10.816667	1	46.769625
10.833333	1	49.124750
10.850000	1	49.957125
10.866667	1	49.063750
10.883333	1	46.481000
10.900000	1	42.502875
10.916667	1	37.607375
10.933333	1	32.325250
10.950000	1	27.117500
10.966667	1	22.310625
10.983333	1	18.086125
11.000000	1	14.510750
11.016667	1	11.570625
11.033333	1	9.208875
11.050000	1	7.346250
11.066667	1	5.896750
11.083333	1	4.780125
11.100000	1	3.924375
11.116667	1	3.270375
11.133333	1	2.771625
11.150000	1	2.389375
11.166667	1	2.095250
11.183333	1	1.866500
11.200000	1	1.686750
11.216667	1	1.544250
11.233333	1	1.429250
11.250000	1	1.335500
11.266667	1	1.258125
11.283333	1	1.193250
11.300000	1	1.138000
11.316667	1	1.091250
11.333333	1	1.050625
11.350000	1	1.015875
11.366667	1	0.985375
11.383333	1	0.959625
11.400000	1	0.937625
11.416667	1	0.918000
11.433333	1	0.901000
11.450000	1	0.886125
11.466667	1	0.874375
11.483333	1	0.863875
11.500000	1	0.855000
11.516667	1	0.846500
11.533333	1	0.840250
11.550000	1	0.834500
11.566667	1	0.830000
11.583333	1	0.826625
11.600000	1	0.824375
11.616667	1	0.822625
11.633333	1	0.822750
11.650000	1	0.824250
11.666667	1	0.826375
11.683333	1	0.830125
11.700000	1	0.834750
11.716667	1	0.840750
11.733333	1	0.847250
11.750000	1	0.855000
11.766667	1	0.863000
11.783333	1	0.871375
11.800000	1	0.880625
11.816667	1	0.889625
11.833333	1	0.898125
11.850000	1	0.906125
11.866667	1	0.914500
11.883333	1	0.921375
11.900000	1	0.927125
11.916667	1	0.932250
11.933333	1	0.936625
11.950000	1	0.940000
11.966667	1	0.943125
11.983333	1	0.946250
12.000000	1	0.948875
12.016667	1	0.951625
12.033333	1	0.953875
12.050000	1	0.956750
12.066667	1	0.959250
12.083333	1	0.962375
12.100000	1	0.966500
12.116667	1	0.970750
12.133333	1	0.976125
12.150000	1	0.981125
12.166667	1	0.987750
12.183333	1	0.994250
12.200000	1	1.002750
12.216667	1	1.013250
12.233333	1	1.025375
12.250000	1	1.040625
12.266667	1	1.060500
12.283333	1	1.086500
12.300000	1	1.120000
12.316667	1	1.163125
12.333333	1	1.218125
12.350000	1	1.289750
12.366667	1	1.380125
12.383333	1	1.494125
12.400000	1	1.637250
12.416667	1	1.813000
12.433333	1	2.026750
12.450000	1	2.282125
12.466667	1	2.584875
12.483333	1	2.938625
12.500000	1	3.347000
12.516667	1	3.812875
12.533333	1	4.336750
12.550000	1	4.916750
12.566667	1	5.549250
12.583333	1	6.226625
12.600000	1	6.938625
12.616667	1	7.671250
12.633333	1	8.411375
12.650000	1	9.145250
12.666667	1	9.859250
12.683333	1	10.542375
12.700000	1	11.187250
12.716667	1	11.791000
12.733333	1	12.355125
12.750000	1	12.884375
12.766667	1	13.386875
12.783333	1	13.873375
12.800000	1	14.356375
12.816667	1	14.843750
12.833333	1	15.345250
12.850000	1	15.868625
12.866667	1	16.420250
12.883333	1	17.003000
12.900000	1	17.618875
12.916667	1	18.267250
12.933333	1	18.948000
12.950000	1	19.659125
12.966667	1	20.399000
12.983333	1	21.165500
13.000000	1	21.958125
13.016667	1	22.774125
13.033333	1	23.612875
13.050000	1	24.472875
13.066667	1	25.355125
13.083333	1	26.259625
13.100000	1	27.184625
13.116667	1	28.130250
13.133333	1	29.094000
13.150000	1	30.077750
13.166667	1	31.080250
13.183333	1	32.102375
13.200000	1	33.141625
13.216667	1	34.198875
13.233333	1	35.275750
13.250000	1	36.373625
13.266667	1	37.493000
13.283333	1	38.634625
13.300000	1	39.798000
13.316667	1	40.983625
13.333333	1	42.191875
13.350000	1	43.423500
13.366667	1	44.678500
13.383333	1	45.957125
13.400000	1	47.259250
13.416667	1	48.584875
13.433333	1	49.937750
13.450000	1	51.318125
13.466667	1	52.726750
13.483333	1	54.165375
13.500000	1	55.633750
13.516667	1	57.131750
13.533333	1	58.659500
13.550000	1	60.218000
13.566667	1	61.808250
13.583333	1	63.430250
13.600000	1	65.082500
13.616667	1	66.767625
13.633333	1	68.487500
13.650000	1	70.244750
13.666667	1	72.040375
13.683333	1	73.876000
13.700000	1	75.747500
13.716667	1	77.646250
13.733333	1	79.525875
13.750000	1	81.269250
13.766667	1	82.654625
13.783333	1	83.373750
13.800000	1	83.083000
13.816667	1	81.455250
13.833333	1	78.207500
13.850000	1	73.169250
13.866667	1	66.401625
13.883333	1	58.307125
13.900000	1	49.586000
13.916667	1	41.031375
13.933333	1	33.272750
13.950000	1	26.646250
13.966667	1	21.228000
13.983333	1	16.922250
14.000000	1	13.563250
14.016667	1	10.976500
14.033333	1	9.009125
14.050000	1	7.530625
14.066667	1	6.430250
14.083333	1	5.617125
14.100000	1	5.016750
14.116667	1	4.571000
14.133333	1	4.235125
14.150000	1	3.978375
14.166667	1	3.776875
14.183333	1	3.615250
14.200000	1	3.484000
14.216667	1	3.373125
14.233333	1	3.278250
14.250000	1	3.195500
14.266667	1	3.122125
14.283333	1	3.057500
14.300000	1	2.999125
14.316667	1	2.946125
14.333333	1	2.898625
14.350000	1	2.855875
14.366667	1	2.819875
14.383333	1	2.789750
14.400000	1	2.766750
14.416667	1	2.753250
14.433333	1	2.750750
14.450000	1	2.764625
14.466667	1	2.799250
14.483333	1	2.862375
14.500000	1	2.964125
14.516667	1	3.121000
14.533333	1	3.354250
14.550000	1	3.692750
14.566667	1	4.174500
14.583333	1	4.846750
14.600000	1	5.768375
14.616667	1	7.010500
14.633333	1	8.652375
14.650000	1	10.777875
14.666667	1	13.466500
14.683333	1	16.786375
14.700000	1	20.781125
14.716667	1	25.457000
14.733333	1	30.776125
14.750000	1	36.650750
14.766667	1	42.932750
14.783333	1	49.407750
14.800000	1	55.830625
14.816667	1	61.924000
14.833333	1	67.399125
14.850000	1	71.975500
14.866667	1	75.410625
14.883333	1	77.524625
14.900000	1	78.218000
14.916667	1	77.479500
14.933333	1	75.388875
14.950000	1	72.100375
14.966667	1	67.829750
14.983333	1	62.832625
15.000000	1	57.362375
15.016667	1	51.666375
15.033333	1	45.962750
15.050000	1	40.436750
15.066667	1	35.231250
15.083333	1	30.442500
15.100000	1	26.129500
15.116667	1	22.313375
15.133333	1	18.987000
15.150000	1	16.123125
15.166667	1	13.685375
15.183333	1	11.630125
15.200000	1	9.908125
15.216667	1	8.473250
15.233333	1	7.285125
15.250000	1	6.305625
15.266667	1	5.502125
15.283333	1	4.846625
15.300000	1	4.313750
15.316667	1	3.883875
15.333333	1	3.539250
15.350000	1	3.265250
15.366667	1	3.050000
15.383333	1	2.882875
15.400000	1	2.756375
15.416667	1	2.661625
15.433333	1	2.591250
15.450000	1	2.539500
15.466667	1	2.501750
15.483333	1	2.472250
15.500000	1	2.445875
15.516667	1	2.421375
15.533333	1	2.395625
15.550000	1	2.366250
15.566667	1	2.332625
15.583333	1	2.295375
15.600000	1	2.254250
15.616667	1	2.210875
15.633333	1	2.165750
15.650000	1	2.120500
15.666667	1	2.076250
15.683333	1	2.034000
15.700000	1	1.993750
15.716667	1	1.955375
15.733333	1	1.919125
15.750000	1	1.884125
15.766667	1	1.849625
15.783333	1	1.817000
15.800000	1	1.783500
15.816667	1	1.750250
15.833333	1	1.716125
15.850000	1	1.682875
15.866667	1	1.650625
15.883333	1	1.619125
15.900000	1	1.589000
15.916667	1	1.561875
15.933333	1	1.538125
15.950000	1	1.517500
15.966667	1	1.499750
15.983333	1	1.486500
16.000000	1	1.476500
16.016667	1	1.468750
16.033333	1	1.464250
16.050000	1	1.462000
16.066667	1	1.461375
16.083333	1	1.460500
16.100000	1	1.459000
16.116667	1	1.457250
16.133333	1	1.454125
16.150000	1	1.450125
16.166667	1	1.444500
16.183333	1	1.437000
16.200000	1	1.427625
16.216667	1	1.417625
16.233333	1	1.406875
16.250000	1	1.393625
16.266667	1	1.380125
16.283333	1	1.365250
16.300000	1	1.350125
16.316667	1	1.334750
16.333333	1	1.319875
16.350000	1	1.305625
16.366667	1	1.291500
16.383333	1	1.278750
16.400000	1	1.267375
16.416667	1	1.258125
16.433333	1	1.250500
16.450000	1	1.245000
16.466667	1	1.242250
16.483333	1	1.242000
16.500000	1	1.244500
16.516667	1	1.249125
16.533333	1	1.255125
16.550000	1	1.261875
16.566667	1	1.269125
16.583333	1	1.276375
16.600000	1	1.283375
16.616667	1	1.289375
16.633333	1	1.293750
16.650000	1	1.296625
16.666667	1	1.298250
16.683333	1	1.297750
16.700000	1	1.296375
16.716667	1	1.294125
16.733333	1	1.291500
16.750000	1	1.289375
16.766667	1	1.288125
16.783333	1	1.287625
16.800000	1	1.288125
16.816667	1	1.289125
16.833333	1	1.290875
16.850000	1	1.293125
16.866667	1	1.295375
16.883333	1	1.297000
16.900000	1	1.298750
16.916667	1	1.299875
16.933333	1	1.299500
16.950000	1	1.297000
16.966667	1	1.294375
16.983333	1	1.289625
17.000000	1	1.283500
17.016667	1	1.276875
17.033333	1	1.268375
17.050000	1	1.260125
17.066667	1	1.251875
17.083333	1	1.243750
17.100000	1	1.235875
17.116667	1	1.228750
17.133333	1	1.222250
17.150000	1	1.216625
17.166667	1	1.212750
17.183333	1	1.209500
17.200000	1	1.206875
17.216667	1	1.205000
17.233333	1	1.205375
17.250000	1	1.205625
17.266667	1	1.206625
17.283333	1	1.208250
17.300000	1	1.210375
17.316667	1	1.213125
17.333333	1	1.216875
17.350000	1	1.220750
17.366667	1	1.225125
17.383333	1	1.229375
17.400000	1	1.233250
17.416667	1	1.236625
17.433333	1	1.238250
17.450000	1	1.240625
17.466667	1	1.241625
17.483333	1	1.240500
17.500000	1	1.238375
17.516667	1	1.234250
17.533333	1	1.229125
17.550000	1	1.222500
17.566667	1	1.214000
17.583333	1	1.204750
17.600000	1	1.193000
17.616667	1	1.181250
17.633333	1	1.167250
17.650000	1	1.152875
17.666667	1	1.138125
17.683333	1	1.122875
17.700000	1	1.107875
17.716667	1	1.091875
17.733333	1	1.077000
17.750000	1	1.061750
17.766667	1	1.047250
17.783333	1	1.033750
17.800000	1	1.020125
17.816667	1	1.008000
17.833333	1	0.995625
17.850000	1	0.984500
17.866667	1	0.973750
17.883333	1	0.964000
17.900000	1	0.954875
17.916667	1	0.945875
17.933333	1	0.937750
17.950000	1	0.929750
17.966667	1	0.922500
17.983333	1	0.915125
18.000000	1	0.907750
18.016667	1	0.899750
18.033333	1	0.892500
18.050000	1	0.884375
18.066667	1	0.877125
18.083333	1	0.868625
18.100000	1	0.861250
18.116667	1	0.854250
18.133333	1	0.847125
18.150000	1	0.840750
18.166667	1	0.835625
18.183333	1	0.831625
18.200000	1	0.828125
18.216667	1	0.826125
18.233333	1	0.823500
18.250000	1	0.822000
18.266667	1	0.821250
18.283333	1	0.820875
18.300000	1	0.822125
18.316667	1	0.822750
18.333333	1	0.824000
18.350000	1	0.825000
18.366667	1	0.826875
18.383333	1	0.830000
18.400000	1	0.832625
18.416667	1	0.836500
18.433333	1	0.841500
18.450000	1	0.847000
18.466667	1	0.854500
18.483333	1	0.864125
18.500000	1	0.874875
18.516667	1	0.886875
18.533333	1	0.900875
18.550000	1	0.917125
18.566667	1	0.935125
18.583333	1	0.955250
18.600000	1	0.976500
18.616667	1	1.000125
18.633333	1	1.024875
18.650000	1	1.051875
18.666667	1	1.079625
18.683333	1	1.109625
18.700000	1	1.141125
18.716667	1	1.173500
18.733333	1	1.207625
18.750000	1	1.242500
18.766667	1	1.277750
18.783333	1	1.313000
18.800000	1	1.347375
18.816667	1	1.380625
18.833333	1	1.412625
18.850000	1	1.441500
18.866667	1	1.466875
18.883333	1	1.487875
18.900000	1	1.504500
18.916667	1	1.515500
18.933333	1	1.519000
18.950000	1	1.516375
18.966667	1	1.507375
18.983333	1	1.490500
19.000000	1	1.467375
19.016667	1	1.437500
19.033333	1	1.402500
19.050000	1	1.362375
19.066667	1	1.318000
19.083333	1	1.271125
19.100000	1	1.223125
19.116667	1	1.175500
19.133333	1	1.129750
19.150000	1	1.087000
19.166667	1	1.048250
19.183333	1	1.015625
19.200000	1	0.989500
19.216667	1	0.972500
19.233333	1	0.965250
19.250000	1	0.968625
19.266667	1	0.984250
19.283333	1	1.013000
19.300000	1	1.056375
19.316667	1	1.113625
19.333333	1	1.185625
19.350000	1	1.272500
19.366667	1	1.373750
19.383333	1	1.487125
19.400000	1	1.610500
19.416667	1	1.742125
19.433333	1	1.877500
19.450000	1	2.013625
19.466667	1	2.146500
19.483333	1	2.272000
19.500000	1	2.385000
19.516667	1	2.482500
19.533333	1	2.561250
19.550000	1	2.618375
19.566667	1	2.651625
19.583333	1	2.662125
19.600000	1	2.648375
19.616667	1	2.611750
19.633333	1	2.555000
19.650000	1	2.479625
19.666667	1	2.388750
19.683333	1	2.286000
19.700000	1	2.175125
19.716667	1	2.058125
19.733333	1	1.938500
19.750000	1	1.819250
19.766667	1	1.701625
19.783333	1	1.588500
19.800000	1	1.480125
19.816667	1	1.378375
19.833333	1	1.282750
19.850000	1	1.194875
19.866667	1	1.113500
19.883333	1	1.039875
19.900000	1	0.972375
19.916667	1	0.911625
19.933333	1	0.857750
19.950000	1	0.810875
19.966667	1	0.767750
19.983333	1	0.730625
20.000000	1	0.698875
20.016667	1	0.672125
20.033333	1	0.650625
20.050000	1	0.633375
20.066667	1	0.620375
20.083333	1	0.612000
20.100000	1	0.608250
20.116667	1	0.607750
20.133333	1	0.610625
20.150000	1	0.617625
20.166667	1	0.627000
20.183333	1	0.639375
20.200000	1	0.652750
20.216667	1	0.667125
20.233333	1	0.682625
20.250000	1	0.697875
20.266667	1	0.711625
20.283333	1	0.724125
20.300000	1	0.734250
20.316667	1	0.742125
20.333333	1	0.745625
20.350000	1	0.746000
20.366667	1	0.743000
20.383333	1	0.736500
20.400000	1	0.726875
20.416667	1	0.714500
20.433333	1	0.700875
20.450000	1	0.685500
20.466667	1	0.669750
20.483333	1	0.654875
20.500000	1	0.641500
20.516667	1	0.630500
20.533333	1	0.622625
20.550000	1	0.618875
20.566667	1	0.620500
20.583333	1	0.628250
20.600000	1	0.643375
20.616667	1	0.665875
20.633333	1	0.696500
20.650000	1	0.736000
20.666667	1	0.783500
20.683333	1	0.839125
20.700000	1	0.903000
20.716667	1	0.973875
20.733333	1	1.050875
20.750000	1	1.132250
20.766667	1	1.216375
20.783333	1	1.299875
20.800000	1	1.381375
20.816667	1	1.457500
20.833333	1	1.526875
20.850000	1	1.585375
20.866667	1	1.632000
20.883333	1	1.664875
20.900000	1	1.683125
20.916667	1	1.686500
20.933333	1	1.674250
20.950000	1	1.648375
20.966667	1	1.609000
20.983333	1	1.558000
21.000000	1	1.497500
21.016667	1	1.430250
21.033333	1	1.358000
21.050000	1	1.283000
21.066667	1	1.206750
21.083333	1	1.132000
21.100000	1	1.059375
21.116667	1	0.989750
21.133333	1	0.924500
21.150000	1	0.863500
21.166667	1	0.807875
21.183333	1	0.757125
21.200000	1	0.711250
21.216667	1	0.670750
21.233333	1	0.635000
21.250000	1	0.603625
21.266667	1	0.576250
21.283333	1	0.552000
21.300000	1	0.531250
21.316667	1	0.513625
21.333333	1	0.497875
21.350000	1	0.484625
21.366667	1	0.473250
21.383333	1	0.463000
21.400000	1	0.454500
21.416667	1	0.446750
21.433333	1	0.440375
21.450000	1	0.434125
21.466667	1	0.428500
21.483333	1	0.423375
21.500000	1	0.419250
21.516667	1	0.415875
21.533333	1	0.412500
21.550000	1	0.410125
21.566667	1	0.407625
21.583333	1	0.405750
21.600000	1	0.404750
21.616667	1	0.404875
21.633333	1	0.405375
21.650000	1	0.407250
21.666667	1	0.409750
21.683333	1	0.412750
21.700000	1	0.417250
21.716667	1	0.422625
21.733333	1	0.429000
21.750000	1	0.436375
21.766667	1	0.443875
21.783333	1	0.452375
21.800000	1	0.461875
21.816667	1	0.471625
21.833333	1	0.482375
21.850000	1	0.493250
21.866667	1	0.504375
21.883333	1	0.515375
21.900000	1	0.525750
21.916667	1	0.536250
21.933333	1	0.546375
21.950000	1	0.555875
21.966667	1	0.565500
21.983333	1	0.573750
22.000000	1	0.580875
22.016667	1	0.586750
22.033333	1	0.592250
22.050000	1	0.597125
22.066667	1	0.600500
22.083333	1	0.603875
22.100000	1	0.606250
22.116667	1	0.607250
22.133333	1	0.607375
22.150000	1	0.606500
22.166667	1	0.604250
22.183333	1	0.601375
22.200000	1	0.597375
22.216667	1	0.591750
22.233333	1	0.584750
22.250000	1	0.577750
22.266667	1	0.569875
22.283333	1	0.560375
22.300000	1	0.549625
22.316667	1	0.537500
22.333333	1	0.525625
22.350000	1	0.512875
22.366667	1	0.500375
22.383333	1	0.487625
22.400000	1	0.474750
22.416667	1	0.461375
22.433333	1	0.448250
22.450000	1	0.435750
22.466667	1	0.424000
22.483333	1	0.412000
22.500000	1	0.401250
22.516667	1	0.391000
22.533333	1	0.381500
22.550000	1	0.372000
22.566667	1	0.363375
22.583333	1	0.355125
22.600000	1	0.347000
22.616667	1	0.340000
22.633333	1	0.333000
22.650000	1	0.326125
22.666667	1	0.318625
22.683333	1	0.312500
22.700000	1	0.306125
22.716667	1	0.300125
22.733333	1	0.294375
22.750000	1	0.289500
22.766667	1	0.283375
22.783333	1	0.277750
22.800000	1	0.272000
22.816667	1	0.266500
22.833333	1	0.261875
22.850000	1	0.257000
22.866667	1	0.252500
22.883333	1	0.248875
22.900000	1	0.244500
22.916667	1	0.241250
22.933333	1	0.238500
22.950000	1	0.236375
22.966667	1	0.234250
22.983333	1	0.232875
23.000000	1	0.232375
23.016667	1	0.230875
23.033333	1	0.231000
23.050000	1	0.231750
23.066667	1	0.233500
23.083333	1	0.234875
23.100000	1	0.236500
23.116667	1	0.238625
23.133333	1	0.241000
23.150000	1	0.243625
23.166667	1	0.246625
23.183333	1	0.250250
23.200000	1	0.253500
23.216667	1	0.257625
23.233333	1	0.262500
23.250000	1	0.267375
23.266667	1	0.272750
23.283333	1	0.278875
23.300000	1	0.287625
23.316667	1	0.297875
23.333333	1	0.310500
23.350000	1	0.326250
23.366667	1	0.345250
23.383333	1	0.369500
23.400000	1	0.399125
23.416667	1	0.435500
23.433333	1	0.480250
23.450000	1	0.535000
23.466667	1	0.600750
23.483333	1	0.679500
23.500000	1	0.773125
23.516667	1	0.883375
23.533333	1	1.013125
23.550000	1	1.162000
23.566667	1	1.331250
23.583333	1	1.522875
23.600000	1	1.736750
23.616667	1	1.970250
23.633333	1	2.224750
23.650000	1	2.496500
23.666667	1	2.783000
23.683333	1	3.080750
23.700000	1	3.385500
23.716667	1	3.691000
23.733333	1	3.991375
23.750000	1	4.281125
23.766667	1	4.553250
23.783333	1	4.800250
23.800000	1	5.017875
23.816667	1	5.199125
23.833333	1	5.340750
23.850000	1	5.439750
23.866667	1	5.494750
23.883333	1	5.503875
23.900000	1	5.467500
23.916667	1	5.389000
23.933333	1	5.270375
23.950000	1	5.115500
23.966667	1	4.929750
23.983333	1	4.716500
24.000000	1	4.484250
24.016667	1	4.236250
24.033333	1	3.978625
24.050000	1	3.716750
24.066667	1	3.454875
24.083333	1	3.196375
24.100000	1	2.944750
24.116667	1	2.703125
24.133333	1	2.473125
24.150000	1	2.256000
24.166667	1	2.053125
24.183333	1	1.865250
24.200000	1	1.692250
24.216667	1	1.533875
24.233333	1	1.389875
24.250000	1	1.260750
24.266667	1	1.143375
24.283333	1	1.038250
24.300000	1	0.945375
24.316667	1	0.863750
24.333333	1	0.790750
24.350000	1	0.727750
24.366667	1	0.673000
24.383333	1	0.625750
24.400000	1	0.585250
24.416667	1	0.550500
24.433333	1	0.521750
24.450000	1	0.497625
24.466667	1	0.477750
24.483333	1	0.461875
24.500000	1	0.448500
24.516667	1	0.437875
24.533333	1	0.429500
24.550000	1	0.422125
24.566667	1	0.416375
24.583333	1	0.411750
24.600000	1	0.407750
24.616667	1	0.403750
24.633333	1	0.400000
24.650000	1	0.396625
24.666667	1	0.393625
24.683333	1	0.390125
24.700000	1	0.386000
24.716667	1	0.381250
24.733333	1	0.377250
24.750000	1	0.372250
24.766667	1	0.367500
24.783333	1	0.362125
24.800000	1	0.357000
24.816667	1	0.351375
24.833333	1	0.346000
24.850000	1	0.340875
24.866667	1	0.335875
24.883333	1	0.331375
24.900000	1	0.327125
24.916667	1	0.323250
24.933333	1	0.319375
24.950000	1	0.315875
24.966667	1	0.312500
24.983333	1	0.309125
25.000000	1	0.305750
25.016667	1	0.303875
25.033333	1	0.301375
25.050000	1	0.299125
25.066667	1	0.298125
25.083333	1	0.296875
25.100000	1	0.295750
25.116667	1	0.294625
25.133333	1	0.293000
25.150000	1	0.292000
25.166667	1	0.291000
25.183333	1	0.289250
25.200000	1	0.288250
25.216667	1	0.286625
25.233333	1	0.286000
25.250000	1	0.284375
25.266667	1	0.283250
25.283333	1	0.282875
25.300000	1	0.282625
25.316667	1	0.281375
25.333333	1	0.280250
25.350000	1	0.279625
25.366667	1	0.278875
25.383333	1	0.277375
25.400000	1	0.276875
25.416667	1	0.276375
25.433333	1	0.275000
25.450000	1	0.274250
25.466667	1	0.273625
25.483333	1	0.272750
25.500000	1	0.272500
25.516667	1	0.272875
25.533333	1	0.272375
25.550000	1	0.272375
25.566667	1	0.272000
25.583333	1	0.272250
25.600000	1	0.271375
25.616667	1	0.271000
25.633333	1	0.269750
25.650000	1	0.268375
25.666667	1	0.266875
25.683333	1	0.265625
25.700000	1	0.264125
25.716667	1	0.262625
25.733333	1	0.261250
25.750000	1	0.260000
25.766667	1	0.259125
25.783333	1	0.257000
25.800000	1	0.255250
25.816667	1	0.253125
25.833333	1	0.251500
25.850000	1	0.250000
25.866667	1	0.249750
25.883333	1	0.248750
25.900000	1	0.248250
25.916667	1	0.248875
25.933333	1	0.249125
25.950000	1	0.249625
25.966667	1	0.250750
25.983333	1	0.252750
26.000000	1	0.254875
26.016667	1	0.257625
26.033333	1	0.260500
26.050000	1	0.263875
26.066667	1	0.268125
26.083333	1	0.272750
26.100000	1	0.277000
26.116667	1	0.281750
26.133333	1	0.286500
26.150000	1	0.291125
26.166667	1	0.295500
26.183333	1	0.300375
26.200000	1	0.304250
26.216667	1	0.308375
26.233333	1	0.312625
26.250000	1	0.316375
26.266667	1	0.320000
26.283333	1	0.322750
26.300000	1	0.324500
26.316667	1	0.325500
26.333333	1	0.326000
26.350000	1	0.326125
26.366667	1	0.325250
26.383333	1	0.323125
26.400000	1	0.320750
26.416667	1	0.317250
26.433333	1	0.313500
26.450000	1	0.309250
26.466667	1	0.305500
26.483333	1	0.300750
26.500000	1	0.295625
26.516667	1	0.289125
26.533333	1	0.283375
26.550000	1	0.277500
26.566667	1	0.271750
26.583333	1	0.265500
26.600000	1	0.259625
26.616667	1	0.253125
26.633333	1	0.247125
26.650000	1	0.241250
26.666667	1	0.235500
26.683333	1	0.230125
26.700000	1	0.224875
26.716667	1	0.220375
26.733333	1	0.216000
26.750000	1	0.211375
26.766667	1	0.207000
26.783333	1	0.203375
26.800000	1	0.199750
26.816667	1	0.197250
26.833333	1	0.194375
26.850000	1	0.191750
26.866667	1	0.189875
26.883333	1	0.188625
26.900000	1	0.188250
26.916667	1	0.187500
26.933333	1	0.186875
26.950000	1	0.187500
26.966667	1	0.188625
26.983333	1	0.189750
27.000000	1	0.191500
27.016667	1	0.193625
27.033333	1	0.196625
27.050000	1	0.198625
27.066667	1	0.203125
27.083333	1	0.207500
27.100000	1	0.212875
27.116667	1	0.218750
27.133333	1	0.226125
27.150000	1	0.234000
27.166667	1	0.243250
27.183333	1	0.253875
27.200000	1	0.266500
27.216667	1	0.281750
27.233333	1	0.299500
27.250000	1	0.319625
27.266667	1	0.343000
27.283333	1	0.370250
27.300000	1	0.401625
27.316667	1	0.438375
27.333333	1	0.481000
27.350000	1	0.530125
27.366667	1	0.585000
27.383333	1	0.648500
27.400000	1	0.720125
27.416667	1	0.801750
27.433333	1	0.893375
27.450000	1	0.995625
27.466667	1	1.109250
27.483333	1	1.235500
27.500000	1	1.373750
27.516667	1	1.523875
27.533333	1	1.685250
27.550000	1	1.859375
27.566667	1	2.043250
27.583333	1	2.235375
27.600000	1	2.436250
27.616667	1	2.642625
27.633333	1	2.853750
27.650000	1	3.065875
27.666667	1	3.277250
27.683333	1	3.484375
27.700000	1	3.683750
27.716667	1	3.872500
27.733333	1	4.047500
27.750000	1	4.205000
27.766667	1	4.343250
27.783333	1	4.457500
27.800000	1	4.547500
27.816667	1	4.610750
27.833333	1	4.646125
27.850000	1	4.652250
27.866667	1	4.629875
27.883333	1	4.578750
27.900000	1	4.500250
27.916667	1	4.395250
27.933333	1	4.266875
27.950000	1	4.117375
27.966667	1	3.950625
27.983333	1	3.768375
28.000000	1	3.575250
28.016667	1	3.374000
28.033333	1	3.167000
28.050000	1	2.958000
28.066667	1	2.749500
28.083333	1	2.544500
28.100000	1	2.345000
28.116667	1	2.152250
28.133333	1	1.968500
28.150000	1	1.795500
28.166667	1	1.633375
28.183333	1	1.483125
28.200000	1	1.344375
28.216667	1	1.217125
28.233333	1	1.101250
28.250000	1	0.995875
28.266667	1	0.900375
28.283333	1	0.815375
28.300000	1	0.740625
28.316667	1	0.674875
28.333333	1	0.616875
28.350000	1	0.567375
28.366667	1	0.525250
28.383333	1	0.488875
28.400000	1	0.459000
28.416667	1	0.434750
28.433333	1	0.414375
28.450000	1	0.399375
28.466667	1	0.388000
28.483333	1	0.380500
28.500000	1	0.376250
28.516667	1	0.374875
28.533333	1	0.376125
28.550000	1	0.379500
28.566667	1	0.385000
28.583333	1	0.391750
28.600000	1	0.400750
28.616667	1	0.409500
28.633333	1	0.420000
28.650000	1	0.431250
28.666667	1	0.442750
28.683333	1	0.453750
28.700000	1	0.465125
28.716667	1	0.476875
28.733333	1	0.487250
28.750000	1	0.497625
28.766667	1	0.506750
28.783333	1	0.516375
28.800000	1	0.524875
28.816667	1	0.532875
28.833333	1	0.539375
28.850000	1	0.544500
28.866667	1	0.549000
28.883333	1	0.552375
28.900000	1	0.553750
28.916667	1	0.553875
28.933333	1	0.552500
28.950000	1	0.550500
28.966667	1	0.547000
28.983333	1	0.542500
29.000000	1	0.537125
29.016667	1	0.529875
29.033333	1	0.521625
29.050000	1	0.512875
29.066667	1	0.503500
29.083333	1	0.493875
29.100000	1	0.482625
29.116667	1	0.470125
29.133333	1	0.457125
29.150000	1	0.443750
29.166667	1	0.429750
29.183333	1	0.415625
29.200000	1	0.401250
29.216667	1	0.386375
29.233333	1	0.371875
29.250000	1	0.356500
29.266667	1	0.341625
29.283333	1	0.326625
29.300000	1	0.313000
29.316667	1	0.298250
29.333333	1	0.284125
29.350000	1	0.270375
29.366667	1	0.257375
29.383333	1	0.244375
29.400000	1	0.231500
29.416667	1	0.219875
29.433333	1	0.209000
29.450000	1	0.198125
29.466667	1	0.187625
29.483333	1	0.178000
29.500000	1	0.168625
29.516667	1	0.159750
29.533333	1	0.152125
29.550000	1	0.144000
29.566667	1	0.137750
29.583333	1	0.131625
29.600000	1	0.126000
29.616667	1	0.121125
29.633333	1	0.116250
29.650000	1	0.112000
29.666667	1	0.108125
29.683333	1	0.104000
29.700000	1	0.100875
29.716667	1	0.098125
29.733333	1	0.095375
29.750000	1	0.093000
29.766667	1	0.091375
29.783333	1	0.089875
29.800000	1	0.088500
29.816667	1	0.087125
29.833333	1	0.086625
29.850000	1	0.085750
29.866667	1	0.085500
29.883333	1	0.085000
29.900000	1	0.084500
29.916667	1	0.084500
29.933333	1	0.084625
29.950000	1	0.084625
29.966667	1	0.084250
29.983333	1	0.084250
30.000000	1	0.084375
30.016667	1	0.084250
30.033333	1	0.084250
30.050000	1	0.084375
30.066667	1	0.084875
30.083333	1	0.085000
30.100000	1	0.085500
30.116667	1	0.085875
30.133333	1	0.085750
30.150000	1	0.085750
30.166667	1	0.086000
30.183333	1	0.086375
30.200000	1	0.086125
30.216667	1	0.086125
30.233333	1	0.086125
30.250000	1	0.086375
30.266667	1	0.086000
30.283333	1	0.086000
30.300000	1	0.085625
30.316667	1	0.085500
30.333333	1	0.085375
30.350000	1	0.085000
30.366667	1	0.085500
30.383333	1	0.086625
30.400000	1	0.087000
30.416667	1	0.088000
30.433333	1	0.089125
30.450000	1	0.090625
30.466667	1	0.091625
30.483333	1	0.093750
30.500000	1	0.096000
30.516667	1	0.099125
30.533333	1	0.101750
30.550000	1	0.105250
30.566667	1	0.108875
30.583333	1	0.112625
30.600000	1	0.117125
30.616667	1	0.122500
30.633333	1	0.127875
30.650000	1	0.133625
30.666667	1	0.140250
30.683333	1	0.146125
30.700000	1	0.153000
30.716667	1	0.161000
30.733333	1	0.168875
30.750000	1	0.177750
30.766667	1	0.187375
30.783333	1	0.197250
30.800000	1	0.207500
30.816667	1	0.219500
30.833333	1	0.231875
30.850000	1	0.245500
30.866667	1	0.260375
30.883333	1	0.276125
30.900000	1	0.293875
30.916667	1	0.312750
30.933333	1	0.333375
30.950000	1	0.357125
30.966667	1	0.383500
30.983333	1	0.412375
31.000000	1	0.445500
31.016667	1	0.482500
31.033333	1	0.525125
31.050000	1	0.572500
31.066667	1	0.625625
31.083333	1	0.685125
31.100000	1	0.750875
31.116667	1	0.824250
31.133333	1	0.905250
31.150000	1	0.994875
31.166667	1	1.092875
31.183333	1	1.200000
31.200000	1	1.316250
31.216667	1	1.441875
31.233333	1	1.574875
31.250000	1	1.717125
31.266667	1	1.866500
31.283333	1	2.022250
31.300000	1	2.184250
31.316667	1	2.350000
31.333333	1	2.519375
31.350000	1	2.689375
31.366667	1	2.859500
31.383333	1	3.027500
31.400000	1	3.190875
31.416667	1	3.348500
31.433333	1	3.496500
31.450000	1	3.634750
31.466667	1	3.760625
31.483333	1	3.872250
31.500000	1	3.968500
31.516667	1	4.047250
31.533333	1	4.108000
31.550000	1	4.151125
31.566667	1	4.174000
31.583333	1	4.178750
31.600000	1	4.163875
31.616667	1	4.130500
31.633333	1	4.078625
31.650000	1	4.010000
31.666667	1	3.925625
31.683333	1	3.826875
31.700000	1	3.714875
31.716667	1	3.591750
31.733333	1	3.459625
31.750000	1	3.320250
31.766667	1	3.174250
31.783333	1	3.024500
31.800000	1	2.872375
31.816667	1	2.719000
31.833333	1	2.564625
31.850000	1	2.412375
31.866667	1	2.264125
31.883333	1	2.119500
31.900000	1	1.978625
31.916667	1	1.843375
31.933333	1	1.714250
31.950000	1	1.591250
31.966667	1	1.474000
31.983333	1	1.363750
32.000000	1	1.260250
32.016667	1	1.162750
32.033333	1	1.071875
32.050000	1	0.986625
32.066667	1	0.908000
32.083333	1	0.834750
32.100000	1	0.766750
32.116667	1	0.704375
32.133333	1	0.646875
32.150000	1	0.593875
32.166667	1	0.545125
32.183333	1	0.499375
32.200000	1	0.457500
32.216667	1	0.419625
32.233333	1	0.384125
32.250000	1	0.351500
32.266667	1	0.321750
32.283333	1	0.293875
32.300000	1	0.268000
32.316667	1	0.244750
32.333333	1	0.223375
32.350000	1	0.204375
32.366667	1	0.186625
32.383333	1	0.170750
32.400000	1	0.155625
32.416667	1	0.141625
32.433333	1	0.128625
32.450000	1	0.116750
32.466667	1	0.105875
32.483333	1	0.097125
32.500000	1	0.088625
32.516667	1	0.081250
32.533333	1	0.074250
32.550000	1	0.068125
32.566667	1	0.062750
32.583333	1	0.058375
32.600000	1	0.053875
32.616667	1	0.049750
32.633333	1	0.045250
32.650000	1	0.041500
32.666667	1	0.038500
32.683333	1	0.035500
32.700000	1	0.032250
32.716667	1	0.030125
32.733333	1	0.027625
32.750000	1	0.025625
32.766667	1	0.023500
32.783333	1	0.021625
32.800000	1	0.020125
32.816667	1	0.018375
32.833333	1	0.016625
32.850000	1	0.015500
32.866667	1	0.013875
32.883333	1	0.012500
32.900000	1	0.011250
32.916667	1	0.011000
32.933333	1	0.010625
32.950000	1	0.010375
32.966667	1	0.009750
32.983333	1	0.009375
33.000000	1	0.008500
33.016667	1	0.008375
33.033333	1	0.007625
33.050000	1	0.007125
33.066667	1	0.007125
33.083333	1	0.006875
33.100000	1	0.006625
33.116667	1	0.007375
33.133333	1	0.007750
33.150000	1	0.009000
33.166667	1	0.009625
33.183333	1	0.009750
33.200000	1	0.009375
33.216667	1	0.010000
33.233333	1	0.010250
33.250000	1	0.011125
33.266667	1	0.011375
33.283333	1	0.012250
33.300000	1	0.013000
33.316667	1	0.013625
33.333333	1	0.014625
33.350000	1	0.016125
33.366667	1	0.017125
33.383333	1	0.018750
33.400000	1	0.019500
33.416667	1	0.020375
33.433333	1	0.022250
33.450000	1	0.023125
33.466667	1	0.024000
33.483333	1	0.025875
33.500000	1	0.027500
33.516667	1	0.028500
33.533333	1	0.029875
33.550000	1	0.031125
33.566667	1	0.033250
33.583333	1	0.035375
33.600000	1	0.037500
33.616667	1	0.039500
33.633333	1	0.041750
33.650000	1	0.044000
33.666667	1	0.046375
33.683333	1	0.048125
33.700000	1	0.050875
33.716667	1	0.053250
33.733333	1	0.056375
33.750000	1	0.059125
33.766667	1	0.062125
33.783333	1	0.065125
33.800000	1	0.068000
33.816667	1	0.070250
33.833333	1	0.072625
33.850000	1	0.075250
33.866667	1	0.077625
33.883333	1	0.080625
33.900000	1	0.083625
33.916667	1	0.086250
33.933333	1	0.088750
33.950000	1	0.090625
33.966667	1	0.093125
33.983333	1	0.096125
34.000000	1	0.097750
34.016667	1	0.098875
34.033333	1	0.100000
34.050000	1	0.101125
34.066667	1	0.101625
34.083333	1	0.102625
34.100000	1	0.103750
34.116667	1	0.103875
34.133333	1	0.104500
34.150000	1	0.105500
34.166667	1	0.106250
34.183333	1	0.106000
34.200000	1	0.105625
34.216667	1	0.105250
34.233333	1	0.105500
34.250000	1	0.105375
34.266667	1	0.105375
34.283333	1	0.105250
34.300000	1	0.105125
34.316667	1	0.105750
34.333333	1	0.105875
34.350000	1	0.106250
34.366667	1	0.107125
34.383333	1	0.106750
34.400000	1	0.106500
34.416667	1	0.106750
34.433333	1	0.106875
34.450000	1	0.106875
34.466667	1	0.106500
34.483333	1	0.105875
34.500000	1	0.105625
34.516667	1	0.105625
34.533333	1	0.106000
34.550000	1	0.105500
34.566667	1	0.105500
34.583333	1	0.104625
34.600000	1	0.103500
34.616667	1	0.103000
34.633333	1	0.102250
34.650000	1	0.101375
34.666667	1	0.100250
34.683333	1	0.098750
34.700000	1	0.096625
34.716667	1	0.095125
34.733333	1	0.093500
34.750000	1	0.091625
34.766667	1	0.089625
34.783333	1	0.087500
34.800000	1	0.085250
34.816667	1	0.082875
34.833333	1	0.080375
34.850000	1	0.078000
34.866667	1	0.075625
34.883333	1	0.072625
34.900000	1	0.069500
34.916667	1	0.067125
34.933333	1	0.064500
34.950000	1	0.061875
34.966667	1	0.058750
34.983333	1	0.056125
35.000000	1	0.053875
35.016667	1	0.051250
35.033333	1	0.048875
35.050000	1	0.046125
35.066667	1	0.043750
35.083333	1	0.041125
35.100000	1	0.038875
35.116667	1	0.037125
35.133333	1	0.034875
35.150000	1	0.033000
35.166667	1	0.030375
35.183333	1	0.029000
35.200000	1	0.027625
35.216667	1	0.026375
35.233333	1	0.025125
35.250000	1	0.023500
35.266667	1	0.022625
35.283333	1	0.022000
35.300000	1	0.020875
35.316667	1	0.020500
35.333333	1	0.020375
35.350000	1	0.020500
35.366667	1	0.020500
35.383333	1	0.020750
35.400000	1	0.021125
35.416667	1	0.022000
35.433333	1	0.022375
35.450000	1	0.022375
35.466667	1	0.023375
35.483333	1	0.024875
35.500000	1	0.026125
35.516667	1	0.027125
35.533333	1	0.028625
35.550000	1	0.029875
35.566667	1	0.031125
35.583333	1	0.032500
35.600000	1	0.034375
35.616667	1	0.036250
35.633333	1	0.038500
35.650000	1	0.040250
35.666667	1	0.042125
35.683333	1	0.043750
35.700000	1	0.045125
35.716667	1	0.046375
35.733333	1	0.048375
35.750000	1	0.050375
35.766667	1	0.051625
35.783333	1	0.052750
35.800000	1	0.054875
35.816667	1	0.055500
35.833333	1	0.056375
35.850000	1	0.057375
35.866667	1	0.058250
35.883333	1	0.059625
35.900000	1	0.060000
35.916667	1	0.061000
35.933333	1	0.061750
35.950000	1	0.062500
35.966667	1	0.063000
35.983333	1	0.063750
36.000000	1	0.064000
36.016667	1	0.064250
36.033333	1	0.064750
36.050000	1	0.065000
36.066667	1	0.065750
36.083333	1	0.066000
36.100000	1	0.066125
36.116667	1	0.067125
36.133333	1	0.068000
36.150000	1	0.068375
36.166667	1	0.069250
36.183333	1	0.069375
36.200000	1	0.070750
36.216667	1	0.071250
36.233333	1	0.071250
36.250000	1	0.071250
36.266667	1	0.071375
36.283333	1	0.072625
36.300000	1	0.073125
36.316667	1	0.073250
36.333333	1	0.075000
36.350000	1	0.075750
36.366667	1	0.076750
36.383333	1	0.077500
36.400000	1	0.077625
36.416667	1	0.078250
36.433333	1	0.078250
36.450000	1	0.077750
36.466667	1	0.078125
36.483333	1	0.078125
36.500000	1	0.078250
36.516667	1	0.077500
36.533333	1	0.077250
36.550000	1	0.075875
36.566667	1	0.075000
36.583333	1	0.074250
36.600000	1	0.072875
36.616667	1	0.071625
36.633333	1	0.069875
36.650000	1	0.067625
36.666667	1	0.065500
36.683333	1	0.064125
36.700000	1	0.062375
36.716667	1	0.059875
36.733333	1	0.057750
36.750000	1	0.055750
36.766667	1	0.053250
36.783333	1	0.051125
36.800000	1	0.049125
36.816667	1	0.047000
36.833333	1	0.043500
36.850000	1	0.041250
36.866667	1	0.038625
36.883333	1	0.036250
36.900000	1	0.034500
36.916667	1	0.032250
36.933333	1	0.030500
36.950000	1	0.028750
36.966667	1	0.027750
36.983333	1	0.026125
37.000000	1	0.024875
37.016667	1	0.023625
37.033333	1	0.022625
37.050000	1	0.022125
37.066667	1	0.022125
37.083333	1	0.021500
37.100000	1	0.021250
37.116667	1	0.021625
37.133333	1	0.021750
37.150000	1	0.022625
37.166667	1	0.023000
37.183333	1	0.022875
37.200000	1	0.023000
37.216667	1	0.023250
37.233333	1	0.024125
37.250000	1	0.024875
37.266667	1	0.025750
37.283333	1	0.026375
37.300000	1	0.027000
37.316667	1	0.027750
37.333333	1	0.028375
37.350000	1	0.029250
37.366667	1	0.029750
37.383333	1	0.030000
37.400000	1	0.030500
37.416667	1	0.030500
37.433333	1	0.031125
37.450000	1	0.031000
37.466667	1	0.030750
37.483333	1	0.030750
37.500000	1	0.030375
37.516667	1	0.029875
37.533333	1	0.029750
37.550000	1	0.029000
37.566667	1	0.028625
37.583333	1	0.028625
37.600000	1	0.028250
37.616667	1	0.027000
37.633333	1	0.025875
37.650000	1	0.025500
37.666667	1	0.024500
37.683333	1	0.023750
37.700000	1	0.023000
37.716667	1	0.022250
37.733333	1	0.021375
37.750000	1	0.020625
37.766667	1	0.020000
37.783333	1	0.018375
37.800000	1	0.017625
37.816667	1	0.016625
37.833333	1	0.015500
37.850000	1	0.015250
37.866667	1	0.014875
37.883333	1	0.014625
37.900000	1	0.014750
37.916667	1	0.014000
37.933333	1	0.013500
37.950000	1	0.012750
37.966667	1	0.012875
37.983333	1	0.012750
38.000000	1	0.013000
38.016667	1	0.013000
38.033333	1	0.013250
38.050000	1	0.013500
38.066667	1	0.013625
38.083333	1	0.013750
38.100000	1	0.013750
38.116667	1	0.014125
38.133333	1	0.014000
38.150000	1	0.014750
38.166667	1	0.015125
38.183333	1	0.015250
38.200000	1	0.015250
38.216667	1	0.015000
38.233333	1	0.014750
38.250000	1	0.014625
38.266667	1	0.014375
38.283333	1	0.014125
38.300000	1	0.014625
38.316667	1	0.014375
38.333333	1	0.014250
38.350000	1	0.013250
38.366667	1	0.012875
38.383333	1	0.012125
38.400000	1	0.011500
38.416667	1	0.010375
38.433333	1	0.009625
38.450000	1	0.009125
38.466667	1	0.008000
38.483333	1	0.006875
38.500000	1	0.006500
38.516667	1	0.005875
38.533333	1	0.003750
38.550000	1	0.002375
38.566667	1	0.001000
38.583333	1	0.000000
38.600000	1	-0.001750
38.616667	1	-0.002875
38.633333	1	-0.004250
38.650000	1	-0.006125
38.666667	1	-0.007625
38.683333	1	-0.008500
38.700000	1	-0.009625
38.716667	1	-0.010250
38.733333	1	-0.010625
38.750000	1	-0.010250
38.766667	1	-0.010375
38.783333	1	-0.011250
38.800000	1	-0.011875
38.816667	1	-0.012375
38.833333	1	-0.013125
38.850000	1	-0.012875
38.866667	1	-0.013000
38.883333	1	-0.013125
38.900000	1	-0.012375
38.916667	1	-0.012375
38.933333	1	-0.012375
38.950000	1	-0.012000
38.966667	1	-0.011125
38.983333	1	-0.010625
39.000000	1	-0.010000
39.016667	1	-0.009750
39.033333	1	-0.009125
39.050000	1	-0.010375
39.066667	1	-0.010500
39.083333	1	-0.011000
39.100000	1	-0.011625
39.116667	1	-0.011125
39.133333	1	-0.011250
39.150000	1	-0.011875
39.166667	1	-0.011750
39.183333	1	-0.012500
39.200000	1	-0.013000
39.216667	1	-0.014500
39.233333	1	-0.015625
39.250000	1	-0.016750
39.266667	1	-0.017125
39.283333	1	-0.017875
39.300000	1	-0.020125
39.316667	1	-0.021375
39.333333	1	-0.022125
39.350000	1	-0.023500
39.366667	1	-0.024375
39.383333	1	-0.025125
39.400000	1	-0.026500
39.416667	1	-0.027500
39.433333	1	-0.028500
39.450000	1	-0.029375
39.466667	1	-0.030500
39.483333	1	-0.030625
39.500000	1	-0.031500
39.516667	1	-0.032125
39.533333	1	-0.032625
39.550000	1	-0.033000
39.566667	1	-0.033750
39.583333	1	-0.034000
39.600000	1	-0.034750
39.616667	1	-0.034750
39.633333	1	-0.035000
39.650000	1	-0.035375
39.666667	1	-0.035500
39.683333	1	-0.035625
39.700000	1	-0.035625
39.716667	1	-0.035500
39.733333	1	-0.036000
39.750000	1	-0.036625
39.766667	1	-0.036500
39.783333	1	-0.037500
39.800000	1	-0.037875
39.816667	1	-0.038125
39.833333	1	-0.038625
39.850000	1	-0.038625
39.866667	1	-0.038750
39.883333	1	-0.038375
39.900000	1	-0.038875
39.916667	1	-0.039000
39.933333	1	-0.038875
39.950000	1	-0.039375
39.966667	1	-0.038875
39.983333	1	-0.039375
40.000000	1	-0.038875
