URL	chrom://bioreactor/micro_cm7/HPLC_Ultimate_3000/Users/markusar/20240716_MA_pHrange2.seq/200.smp/RI_1.channel/RI_1.chm
Channel	RI_1

Injection Information:
Data Vault	micro_cm7
Sequence	20240716_MA_pHrange2
Name	Pv3_40H_1
Number	22
Position	BB10
Comment	
Processing Method	
Instrument Method	run_25B_method
Type	Unknown
Status	Finished
Inject Time	17.07.2024 08:26:51 +02:00
Volume (µl)	20.0000
Dilution Factor	1.0000
Weight	1.0000

Chromatogram Data Information:
Time Min. (min)	0.000000
Time Max. (min)	40.000000
Data Points	2401
Detector	RI
Generating Data System	Chromeleon 7.3.2.11814
Exporting Data System	Chromeleon 7.3.2.0
Operator	Instrument Controller
Signal Quantity	Refractive 
Signal Unit	µRIU
Signal Min.	-0.191375
Signal Max.	106.224250
Channel	RI_1
Driver Name	RID520Driver.dll
Channel Type	Evaluation
Min. Step (s)	1
Max. Step (s)	1
Average Step (s)	1

Signal Parameter Information:
Signal Info	

Chromatogram Data:
Time (min)	Step (s)	Value (µRIU)
0.000000	n.a.	0.053875
0.016667	1	0.052375
0.033333	1	0.051250
0.050000	1	0.050000
0.066667	1	0.048500
0.083333	1	0.047000
0.100000	1	0.044750
0.116667	1	0.042750
0.133333	1	0.040000
0.150000	1	0.037750
0.166667	1	0.035500
0.183333	1	0.033250
0.200000	1	0.031125
0.216667	1	0.028875
0.233333	1	0.027000
0.250000	1	0.025250
0.266667	1	0.022500
0.283333	1	0.020500
0.300000	1	0.018250
0.316667	1	0.016000
0.333333	1	0.014375
0.350000	1	0.012000
0.366667	1	0.009375
0.383333	1	0.007375
0.400000	1	0.005875
0.416667	1	0.004125
0.433333	1	0.003750
0.450000	1	0.005125
0.466667	1	0.005625
0.483333	1	0.005625
0.500000	1	0.005875
0.516667	1	0.005500
0.533333	1	0.005375
0.550000	1	0.003625
0.566667	1	0.001750
0.583333	1	0.000500
0.600000	1	-0.000125
0.616667	1	-0.001125
0.633333	1	-0.002250
0.650000	1	-0.002625
0.666667	1	-0.002625
0.683333	1	-0.002500
0.700000	1	-0.002125
0.716667	1	-0.001500
0.733333	1	-0.000875
0.750000	1	-0.000500
0.766667	1	-0.000375
0.783333	1	0.000000
0.800000	1	0.000875
0.816667	1	0.001625
0.833333	1	0.002250
0.850000	1	0.003250
0.866667	1	0.004125
0.883333	1	0.004875
0.900000	1	0.005625
0.916667	1	0.007000
0.933333	1	0.008250
0.950000	1	0.008375
0.966667	1	0.009500
0.983333	1	0.010500
1.000000	1	0.012250
1.016667	1	0.013250
1.033333	1	0.015250
1.050000	1	0.017500
1.066667	1	0.019500
1.083333	1	0.021500
1.100000	1	0.022750
1.116667	1	0.024875
1.133333	1	0.026750
1.150000	1	0.029250
1.166667	1	0.031000
1.183333	1	0.033250
1.200000	1	0.035375
1.216667	1	0.038125
1.233333	1	0.040750
1.250000	1	0.043875
1.266667	1	0.046500
1.283333	1	0.048875
1.300000	1	0.051375
1.316667	1	0.053500
1.333333	1	0.056125
1.350000	1	0.058750
1.366667	1	0.060375
1.383333	1	0.062500
1.400000	1	0.064500
1.416667	1	0.066000
1.433333	1	0.068125
1.450000	1	0.070250
1.466667	1	0.071625
1.483333	1	0.073625
1.500000	1	0.074750
1.516667	1	0.076000
1.533333	1	0.076500
1.550000	1	0.076750
1.566667	1	0.077500
1.583333	1	0.077625
1.600000	1	0.077625
1.616667	1	0.077625
1.633333	1	0.076625
1.650000	1	0.075250
1.666667	1	0.074000
1.683333	1	0.072750
1.700000	1	0.070625
1.716667	1	0.067750
1.733333	1	0.065000
1.750000	1	0.062125
1.766667	1	0.059125
1.783333	1	0.055000
1.800000	1	0.051500
1.816667	1	0.047750
1.833333	1	0.044375
1.850000	1	0.040125
1.866667	1	0.035875
1.883333	1	0.031375
1.900000	1	0.027375
1.916667	1	0.023250
1.933333	1	0.019500
1.950000	1	0.015250
1.966667	1	0.011500
1.983333	1	0.007000
2.000000	1	0.003750
2.016667	1	0.000000
2.033333	1	-0.003875
2.050000	1	-0.006875
2.066667	1	-0.009875
2.083333	1	-0.013500
2.100000	1	-0.016500
2.116667	1	-0.018500
2.133333	1	-0.021250
2.150000	1	-0.022750
2.166667	1	-0.025000
2.183333	1	-0.026750
2.200000	1	-0.028500
2.216667	1	-0.029375
2.233333	1	-0.030500
2.250000	1	-0.030625
2.266667	1	-0.031750
2.283333	1	-0.032250
2.300000	1	-0.032875
2.316667	1	-0.033250
2.333333	1	-0.033625
2.350000	1	-0.034125
2.366667	1	-0.033875
2.383333	1	-0.033750
2.400000	1	-0.033625
2.416667	1	-0.033875
2.433333	1	-0.033500
2.450000	1	-0.033500
2.466667	1	-0.032500
2.483333	1	-0.032875
2.500000	1	-0.032250
2.516667	1	-0.031000
2.533333	1	-0.030500
2.550000	1	-0.030625
2.566667	1	-0.030500
2.583333	1	-0.029875
2.600000	1	-0.029375
2.616667	1	-0.029125
2.633333	1	-0.028625
2.650000	1	-0.028125
2.666667	1	-0.026875
2.683333	1	-0.026000
2.700000	1	-0.025500
2.716667	1	-0.024375
2.733333	1	-0.023500
2.750000	1	-0.022625
2.766667	1	-0.022000
2.783333	1	-0.020625
2.800000	1	-0.020250
2.816667	1	-0.019500
2.833333	1	-0.018125
2.850000	1	-0.016750
2.866667	1	-0.015500
2.883333	1	-0.014375
2.900000	1	-0.012750
2.916667	1	-0.011250
2.933333	1	-0.010000
2.950000	1	-0.008500
2.966667	1	-0.007500
2.983333	1	-0.005750
3.000000	1	-0.004750
3.016667	1	-0.003000
3.033333	1	-0.001250
3.050000	1	0.000750
3.066667	1	0.002500
3.083333	1	0.004250
3.100000	1	0.006250
3.116667	1	0.007875
3.133333	1	0.010500
3.150000	1	0.012250
3.166667	1	0.015250
3.183333	1	0.018000
3.200000	1	0.020375
3.216667	1	0.022750
3.233333	1	0.025500
3.250000	1	0.027875
3.266667	1	0.030375
3.283333	1	0.033250
3.300000	1	0.035875
3.316667	1	0.038500
3.333333	1	0.040875
3.350000	1	0.043625
3.366667	1	0.046375
3.383333	1	0.049000
3.400000	1	0.051500
3.416667	1	0.054000
3.433333	1	0.056000
3.450000	1	0.057750
3.466667	1	0.059250
3.483333	1	0.061125
3.500000	1	0.062375
3.516667	1	0.063875
3.533333	1	0.065125
3.550000	1	0.065625
3.566667	1	0.066875
3.583333	1	0.067250
3.600000	1	0.067750
3.616667	1	0.067750
3.633333	1	0.067875
3.650000	1	0.069000
3.666667	1	0.068875
3.683333	1	0.068500
3.700000	1	0.068250
3.716667	1	0.068375
3.733333	1	0.067625
3.750000	1	0.066750
3.766667	1	0.066500
3.783333	1	0.066000
3.800000	1	0.065125
3.816667	1	0.064125
3.833333	1	0.063250
3.850000	1	0.062875
3.866667	1	0.061750
3.883333	1	0.060750
3.900000	1	0.060000
3.916667	1	0.058875
3.933333	1	0.057750
3.950000	1	0.056875
3.966667	1	0.056750
3.983333	1	0.056500
4.000000	1	0.056125
4.016667	1	0.056125
4.033333	1	0.055750
4.050000	1	0.055375
4.066667	1	0.056000
4.083333	1	0.056000
4.100000	1	0.056000
4.116667	1	0.057125
4.133333	1	0.057625
4.150000	1	0.057875
4.166667	1	0.058375
4.183333	1	0.059000
4.200000	1	0.059875
4.216667	1	0.060750
4.233333	1	0.061750
4.250000	1	0.062625
4.266667	1	0.064000
4.283333	1	0.065250
4.300000	1	0.066500
4.316667	1	0.068625
4.333333	1	0.069875
4.350000	1	0.071625
4.366667	1	0.073125
4.383333	1	0.074750
4.400000	1	0.077125
4.416667	1	0.079750
4.433333	1	0.082000
4.450000	1	0.084125
4.466667	1	0.086750
4.483333	1	0.088625
4.500000	1	0.090500
4.516667	1	0.092625
4.533333	1	0.094625
4.550000	1	0.096875
4.566667	1	0.099250
4.583333	1	0.101375
4.600000	1	0.103750
4.616667	1	0.106375
4.633333	1	0.108500
4.650000	1	0.110875
4.666667	1	0.113000
4.683333	1	0.115875
4.700000	1	0.118625
4.716667	1	0.120625
4.733333	1	0.123250
4.750000	1	0.126000
4.766667	1	0.128125
4.783333	1	0.130500
4.800000	1	0.133750
4.816667	1	0.136125
4.833333	1	0.138625
4.850000	1	0.141125
4.866667	1	0.143375
4.883333	1	0.146250
4.900000	1	0.148625
4.916667	1	0.151375
4.933333	1	0.153875
4.950000	1	0.156625
4.966667	1	0.159125
4.983333	1	0.161875
5.000000	1	0.165500
5.016667	1	0.168000
5.033333	1	0.170375
5.050000	1	0.173375
5.066667	1	0.176125
5.083333	1	0.179000
5.100000	1	0.181750
5.116667	1	0.183875
5.133333	1	0.187125
5.150000	1	0.189500
5.166667	1	0.191625
5.183333	1	0.193500
5.200000	1	0.196375
5.216667	1	0.198375
5.233333	1	0.200500
5.250000	1	0.202375
5.266667	1	0.203875
5.283333	1	0.205625
5.300000	1	0.206750
5.316667	1	0.208750
5.333333	1	0.210625
5.350000	1	0.211625
5.366667	1	0.212625
5.383333	1	0.214000
5.400000	1	0.214500
5.416667	1	0.215000
5.433333	1	0.215375
5.450000	1	0.215625
5.466667	1	0.216250
5.483333	1	0.216250
5.500000	1	0.215875
5.516667	1	0.215625
5.533333	1	0.215125
5.550000	1	0.215125
5.566667	1	0.214375
5.583333	1	0.213625
5.600000	1	0.212625
5.616667	1	0.212000
5.633333	1	0.211000
5.650000	1	0.210125
5.666667	1	0.208000
5.683333	1	0.206250
5.700000	1	0.204375
5.716667	1	0.202250
5.733333	1	0.200250
5.750000	1	0.198875
5.766667	1	0.196625
5.783333	1	0.194125
5.800000	1	0.191750
5.816667	1	0.189000
5.833333	1	0.185875
5.850000	1	0.182500
5.866667	1	0.179250
5.883333	1	0.175625
5.900000	1	0.172125
5.916667	1	0.169125
5.933333	1	0.165000
5.950000	1	0.160750
5.966667	1	0.157250
5.983333	1	0.152375
6.000000	1	0.148125
6.016667	1	0.143000
6.033333	1	0.138375
6.050000	1	0.134375
6.066667	1	0.129125
6.083333	1	0.124000
6.100000	1	0.118625
6.116667	1	0.113875
6.133333	1	0.108875
6.150000	1	0.104250
6.166667	1	0.099500
6.183333	1	0.094625
6.200000	1	0.090250
6.216667	1	0.085750
6.233333	1	0.081250
6.250000	1	0.077250
6.266667	1	0.072500
6.283333	1	0.068250
6.300000	1	0.064125
6.316667	1	0.059750
6.333333	1	0.057250
6.350000	1	0.054250
6.366667	1	0.051875
6.383333	1	0.049625
6.400000	1	0.047125
6.416667	1	0.044875
6.433333	1	0.042500
6.450000	1	0.040875
6.466667	1	0.039125
6.483333	1	0.037750
6.500000	1	0.035625
6.516667	1	0.034625
6.533333	1	0.034000
6.550000	1	0.033375
6.566667	1	0.032875
6.583333	1	0.032125
6.600000	1	0.032875
6.616667	1	0.033625
6.633333	1	0.034250
6.650000	1	0.035625
6.666667	1	0.037375
6.683333	1	0.038250
6.700000	1	0.040250
6.716667	1	0.042250
6.733333	1	0.044875
6.750000	1	0.047875
6.766667	1	0.050500
6.783333	1	0.053250
6.800000	1	0.056250
6.816667	1	0.059875
6.833333	1	0.063250
6.850000	1	0.066875
6.866667	1	0.070375
6.883333	1	0.073250
6.900000	1	0.076750
6.916667	1	0.080125
6.933333	1	0.083250
6.950000	1	0.086625
6.966667	1	0.090250
6.983333	1	0.094375
7.000000	1	0.097625
7.016667	1	0.100625
7.033333	1	0.103500
7.050000	1	0.106125
7.066667	1	0.108250
7.083333	1	0.110375
7.100000	1	0.112375
7.116667	1	0.114125
7.133333	1	0.115750
7.150000	1	0.117125
7.166667	1	0.118750
7.183333	1	0.120625
7.200000	1	0.122125
7.216667	1	0.122875
7.233333	1	0.123625
7.250000	1	0.124125
7.266667	1	0.123625
7.283333	1	0.123750
7.300000	1	0.123750
7.316667	1	0.123500
7.333333	1	0.123250
7.350000	1	0.123000
7.366667	1	0.123000
7.383333	1	0.122375
7.400000	1	0.121500
7.416667	1	0.120750
7.433333	1	0.119500
7.450000	1	0.118500
7.466667	1	0.117500
7.483333	1	0.116375
7.500000	1	0.115375
7.516667	1	0.114625
7.533333	1	0.114125
7.550000	1	0.113375
7.566667	1	0.112625
7.583333	1	0.112125
7.600000	1	0.111125
7.616667	1	0.109125
7.633333	1	0.107500
7.650000	1	0.106125
7.666667	1	0.104125
7.683333	1	0.102375
7.700000	1	0.100625
7.716667	1	0.099125
7.733333	1	0.097125
7.750000	1	0.094625
7.766667	1	0.091375
7.783333	1	0.088625
7.800000	1	0.086000
7.816667	1	0.083000
7.833333	1	0.080000
7.850000	1	0.076500
7.866667	1	0.072375
7.883333	1	0.068500
7.900000	1	0.065000
7.916667	1	0.061250
7.933333	1	0.056625
7.950000	1	0.052750
7.966667	1	0.048750
7.983333	1	0.044875
8.000000	1	0.040500
8.016667	1	0.036625
8.033333	1	0.032375
8.050000	1	0.028500
8.066667	1	0.025500
8.083333	1	0.022750
8.100000	1	0.019500
8.116667	1	0.016875
8.133333	1	0.015375
8.150000	1	0.013250
8.166667	1	0.011250
8.183333	1	0.009375
8.200000	1	0.008875
8.216667	1	0.007625
8.233333	1	0.007375
8.250000	1	0.007625
8.266667	1	0.008000
8.283333	1	0.008000
8.300000	1	0.008500
8.316667	1	0.008875
8.333333	1	0.010125
8.350000	1	0.011250
8.366667	1	0.013500
8.383333	1	0.014250
8.400000	1	0.015375
8.416667	1	0.016500
8.433333	1	0.017625
8.450000	1	0.018625
8.466667	1	0.020250
8.483333	1	0.020500
8.500000	1	0.022500
8.516667	1	0.023625
8.533333	1	0.024500
8.550000	1	0.025125
8.566667	1	0.025875
8.583333	1	0.026375
8.600000	1	0.026125
8.616667	1	0.025625
8.633333	1	0.025000
8.650000	1	0.024000
8.666667	1	0.022375
8.683333	1	0.021750
8.700000	1	0.020875
8.716667	1	0.020375
8.733333	1	0.019375
8.750000	1	0.018625
8.766667	1	0.017500
8.783333	1	0.015875
8.800000	1	0.014625
8.816667	1	0.013125
8.833333	1	0.011750
8.850000	1	0.010375
8.866667	1	0.008125
8.883333	1	0.006500
8.900000	1	0.005125
8.916667	1	0.004125
8.933333	1	0.002250
8.950000	1	0.000750
8.966667	1	-0.000125
8.983333	1	-0.001750
9.000000	1	-0.002750
9.016667	1	-0.004375
9.033333	1	-0.005625
9.050000	1	-0.007000
9.066667	1	-0.008250
9.083333	1	-0.008750
9.100000	1	-0.009875
9.116667	1	-0.011375
9.133333	1	-0.012000
9.150000	1	-0.012500
9.166667	1	-0.013375
9.183333	1	-0.014000
9.200000	1	-0.015125
9.216667	1	-0.016500
9.233333	1	-0.017500
9.250000	1	-0.018000
9.266667	1	-0.018500
9.283333	1	-0.019625
9.300000	1	-0.020625
9.316667	1	-0.021750
9.333333	1	-0.022625
9.350000	1	-0.022625
9.366667	1	-0.023750
9.383333	1	-0.024750
9.400000	1	-0.025625
9.416667	1	-0.026500
9.433333	1	-0.026750
9.450000	1	-0.027250
9.466667	1	-0.027500
9.483333	1	-0.028500
9.500000	1	-0.028625
9.516667	1	-0.028375
9.533333	1	-0.029125
9.550000	1	-0.029875
9.566667	1	-0.030000
9.583333	1	-0.029875
9.600000	1	-0.030250
9.616667	1	-0.031375
9.633333	1	-0.031250
9.650000	1	-0.032000
9.666667	1	-0.032125
9.683333	1	-0.031875
9.700000	1	-0.031625
9.716667	1	-0.031375
9.733333	1	-0.030625
9.750000	1	-0.030125
9.766667	1	-0.029250
9.783333	1	-0.029375
9.800000	1	-0.028375
9.816667	1	-0.028125
9.833333	1	-0.027625
9.850000	1	-0.026875
9.866667	1	-0.026000
9.883333	1	-0.024875
9.900000	1	-0.023750
9.916667	1	-0.022375
9.933333	1	-0.020625
9.950000	1	-0.019375
9.966667	1	-0.016500
9.983333	1	-0.014125
10.000000	1	-0.011625
10.016667	1	-0.008250
10.033333	1	-0.003750
10.050000	1	0.000500
10.066667	1	0.005250
10.083333	1	0.011500
10.100000	1	0.017625
10.116667	1	0.025000
10.133333	1	0.033125
10.150000	1	0.041625
10.166667	1	0.050500
10.183333	1	0.059250
10.200000	1	0.068625
10.216667	1	0.079000
10.233333	1	0.090000
10.250000	1	0.101500
10.266667	1	0.114250
10.283333	1	0.127500
10.300000	1	0.142125
10.316667	1	0.157375
10.333333	1	0.172500
10.350000	1	0.185625
10.366667	1	0.193375
10.383333	1	0.193875
10.400000	1	0.179125
10.416667	1	0.145750
10.433333	1	0.089625
10.450000	1	0.013250
10.466667	1	-0.073375
10.483333	1	-0.152125
10.500000	1	-0.191375
10.516667	1	-0.145000
10.533333	1	0.044125
10.550000	1	0.442000
10.566667	1	1.119625
10.583333	1	2.144750
10.600000	1	3.581750
10.616667	1	5.484000
10.633333	1	7.889750
10.650000	1	10.826625
10.666667	1	14.313375
10.683333	1	18.361500
10.700000	1	22.965750
10.716667	1	28.115375
10.733333	1	33.791000
10.750000	1	39.958500
10.766667	1	46.572125
10.783333	1	53.591375
10.800000	1	60.957125
10.816667	1	68.588000
10.833333	1	76.356500
10.850000	1	84.084750
10.866667	1	91.488375
10.883333	1	98.119000
10.900000	1	103.313875
10.916667	1	106.224250
10.933333	1	105.986750
10.950000	1	102.037000
10.966667	1	94.434250
10.983333	1	83.944500
11.000000	1	71.843500
11.016667	1	59.498750
11.033333	1	48.001250
11.050000	1	37.976750
11.066667	1	29.650250
11.083333	1	22.971000
11.100000	1	17.749250
11.116667	1	13.742125
11.133333	1	10.708750
11.150000	1	8.433125
11.166667	1	6.736000
11.183333	1	5.471375
11.200000	1	4.526875
11.216667	1	3.817750
11.233333	1	3.280625
11.250000	1	2.870000
11.266667	1	2.551500
11.283333	1	2.300500
11.300000	1	2.099250
11.316667	1	1.935875
11.333333	1	1.800875
11.350000	1	1.688500
11.366667	1	1.594375
11.383333	1	1.513750
11.400000	1	1.444625
11.416667	1	1.385625
11.433333	1	1.335375
11.450000	1	1.291750
11.466667	1	1.254000
11.483333	1	1.221625
11.500000	1	1.193875
11.516667	1	1.169750
11.533333	1	1.149375
11.550000	1	1.131875
11.566667	1	1.116750
11.583333	1	1.104000
11.600000	1	1.093625
11.616667	1	1.085000
11.633333	1	1.078125
11.650000	1	1.072750
11.666667	1	1.069000
11.683333	1	1.066875
11.700000	1	1.065625
11.716667	1	1.066500
11.733333	1	1.069500
11.750000	1	1.073250
11.766667	1	1.078500
11.783333	1	1.084125
11.800000	1	1.090875
11.816667	1	1.098625
11.833333	1	1.106250
11.850000	1	1.114500
11.866667	1	1.122875
11.883333	1	1.130250
11.900000	1	1.136000
11.916667	1	1.142125
11.933333	1	1.146750
11.950000	1	1.149875
11.966667	1	1.151750
11.983333	1	1.153500
12.000000	1	1.153750
12.016667	1	1.153750
12.033333	1	1.152250
12.050000	1	1.151250
12.066667	1	1.150375
12.083333	1	1.149000
12.100000	1	1.148750
12.116667	1	1.147500
12.133333	1	1.147375
12.150000	1	1.147375
12.166667	1	1.147625
12.183333	1	1.148875
12.200000	1	1.150500
12.216667	1	1.152625
12.233333	1	1.156250
12.250000	1	1.161500
12.266667	1	1.169125
12.283333	1	1.178750
12.300000	1	1.191875
12.316667	1	1.209625
12.333333	1	1.234500
12.350000	1	1.266625
12.366667	1	1.309625
12.383333	1	1.366625
12.400000	1	1.441125
12.416667	1	1.537375
12.433333	1	1.659875
12.450000	1	1.813875
12.466667	1	2.004750
12.483333	1	2.237875
12.500000	1	2.518000
12.516667	1	2.849125
12.533333	1	3.233750
12.550000	1	3.674250
12.566667	1	4.170125
12.583333	1	4.718625
12.600000	1	5.314875
12.616667	1	5.951375
12.633333	1	6.618875
12.650000	1	7.305250
12.666667	1	7.998875
12.683333	1	8.688250
12.700000	1	9.359750
12.716667	1	10.005125
12.733333	1	10.618250
12.750000	1	11.196500
12.766667	1	11.741875
12.783333	1	12.258500
12.800000	1	12.755000
12.816667	1	13.240625
12.833333	1	13.725875
12.850000	1	14.220000
12.866667	1	14.731750
12.883333	1	15.268250
12.900000	1	15.832750
12.916667	1	16.428750
12.933333	1	17.057750
12.950000	1	17.718875
12.966667	1	18.412375
12.983333	1	19.136375
13.000000	1	19.888375
13.016667	1	20.666000
13.033333	1	21.469250
13.050000	1	22.297625
13.066667	1	23.149250
13.083333	1	24.023500
13.100000	1	24.918875
13.116667	1	25.834625
13.133333	1	26.768625
13.150000	1	27.721750
13.166667	1	28.694625
13.183333	1	29.686250
13.200000	1	30.695875
13.216667	1	31.723500
13.233333	1	32.770625
13.250000	1	33.838750
13.266667	1	34.927375
13.283333	1	36.037125
13.300000	1	37.167750
13.316667	1	38.319500
13.333333	1	39.491875
13.350000	1	40.686250
13.366667	1	41.903250
13.383333	1	43.143625
13.400000	1	44.407000
13.416667	1	45.694875
13.433333	1	47.007875
13.450000	1	48.347500
13.466667	1	49.714750
13.483333	1	51.110125
13.500000	1	52.534375
13.516667	1	53.987750
13.533333	1	55.470625
13.550000	1	56.982875
13.566667	1	58.525500
13.583333	1	60.099000
13.600000	1	61.701625
13.616667	1	63.335500
13.633333	1	65.003750
13.650000	1	66.707125
13.666667	1	68.446750
13.683333	1	70.222125
13.700000	1	72.036125
13.716667	1	73.886000
13.733333	1	75.771000
13.750000	1	77.683125
13.766667	1	79.581250
13.783333	1	81.359625
13.800000	1	82.828375
13.816667	1	83.740500
13.833333	1	83.850875
13.850000	1	82.946750
13.866667	1	80.825125
13.883333	1	77.258500
13.900000	1	72.024500
13.916667	1	65.070250
13.933333	1	56.689125
13.950000	1	47.582250
13.966667	1	38.658375
13.983333	1	30.692500
14.000000	1	24.084125
14.016667	1	18.867875
14.033333	1	14.871375
14.050000	1	11.858875
14.066667	1	9.611250
14.083333	1	7.947375
14.100000	1	6.724250
14.116667	1	5.828750
14.133333	1	5.172000
14.150000	1	4.685875
14.166667	1	4.321500
14.183333	1	4.042500
14.200000	1	3.825625
14.216667	1	3.652625
14.233333	1	3.510750
14.250000	1	3.391875
14.266667	1	3.290250
14.283333	1	3.202125
14.300000	1	3.124375
14.316667	1	3.055000
14.333333	1	2.992875
14.350000	1	2.936875
14.366667	1	2.886500
14.383333	1	2.843375
14.400000	1	2.808125
14.416667	1	2.781375
14.433333	1	2.765500
14.450000	1	2.764625
14.466667	1	2.782250
14.483333	1	2.826125
14.500000	1	2.905000
14.516667	1	3.029750
14.533333	1	3.218000
14.550000	1	3.490250
14.566667	1	3.872250
14.583333	1	4.398000
14.600000	1	5.109750
14.616667	1	6.056125
14.633333	1	7.294625
14.650000	1	8.888750
14.666667	1	10.902750
14.683333	1	13.401500
14.700000	1	16.439750
14.716667	1	20.057750
14.733333	1	24.273500
14.750000	1	29.073375
14.766667	1	34.403000
14.783333	1	40.164625
14.800000	1	46.226125
14.816667	1	52.412625
14.833333	1	58.509875
14.850000	1	64.274375
14.866667	1	69.453625
14.883333	1	73.798125
14.900000	1	77.091250
14.916667	1	79.163125
14.933333	1	79.907125
14.950000	1	79.291250
14.966667	1	77.361125
14.983333	1	74.236750
15.000000	1	70.090125
15.016667	1	65.136000
15.033333	1	59.616250
15.050000	1	53.778500
15.066667	1	47.859750
15.083333	1	42.064375
15.100000	1	36.559500
15.116667	1	31.464875
15.133333	1	26.857500
15.150000	1	22.772750
15.166667	1	19.218375
15.183333	1	16.172750
15.200000	1	13.594875
15.216667	1	11.436375
15.233333	1	9.647250
15.250000	1	8.175750
15.266667	1	6.973500
15.283333	1	5.999000
15.300000	1	5.211250
15.316667	1	4.578375
15.333333	1	4.071000
15.350000	1	3.666500
15.366667	1	3.345625
15.383333	1	3.092125
15.400000	1	2.893500
15.416667	1	2.739625
15.433333	1	2.621625
15.450000	1	2.533125
15.466667	1	2.467250
15.483333	1	2.418375
15.500000	1	2.383375
15.516667	1	2.356125
15.533333	1	2.333625
15.550000	1	2.313000
15.566667	1	2.291500
15.583333	1	2.266750
15.600000	1	2.239500
15.616667	1	2.207875
15.633333	1	2.172375
15.650000	1	2.132750
15.666667	1	2.090375
15.683333	1	2.046750
15.700000	1	2.003375
15.716667	1	1.960625
15.733333	1	1.919375
15.750000	1	1.879125
15.766667	1	1.841000
15.783333	1	1.805125
15.800000	1	1.770625
15.816667	1	1.738000
15.833333	1	1.705375
15.850000	1	1.673750
15.866667	1	1.642625
15.883333	1	1.612875
15.900000	1	1.583500
15.916667	1	1.555500
15.933333	1	1.528500
15.950000	1	1.503375
15.966667	1	1.480750
15.983333	1	1.460375
16.000000	1	1.443125
16.016667	1	1.429625
16.033333	1	1.418250
16.050000	1	1.409750
16.066667	1	1.403750
16.083333	1	1.400000
16.100000	1	1.397875
16.116667	1	1.395875
16.133333	1	1.394750
16.150000	1	1.393375
16.166667	1	1.391375
16.183333	1	1.388250
16.200000	1	1.383625
16.216667	1	1.377250
16.233333	1	1.369375
16.250000	1	1.359375
16.266667	1	1.347750
16.283333	1	1.334750
16.300000	1	1.321125
16.316667	1	1.306250
16.333333	1	1.291125
16.350000	1	1.275125
16.366667	1	1.258500
16.383333	1	1.243125
16.400000	1	1.227625
16.416667	1	1.212625
16.433333	1	1.197875
16.450000	1	1.184625
16.466667	1	1.173000
16.483333	1	1.163375
16.500000	1	1.155125
16.516667	1	1.149000
16.533333	1	1.145250
16.550000	1	1.143375
16.566667	1	1.143375
16.583333	1	1.145000
16.600000	1	1.147500
16.616667	1	1.150750
16.633333	1	1.155125
16.650000	1	1.159625
16.666667	1	1.163375
16.683333	1	1.166500
16.700000	1	1.168375
16.716667	1	1.169750
16.733333	1	1.170500
16.750000	1	1.170125
16.766667	1	1.169875
16.783333	1	1.169000
16.800000	1	1.168125
16.816667	1	1.167875
16.833333	1	1.169000
16.850000	1	1.169625
16.866667	1	1.170750
16.883333	1	1.172250
16.900000	1	1.173375
16.916667	1	1.174625
16.933333	1	1.176500
16.950000	1	1.178000
16.966667	1	1.177875
16.983333	1	1.177375
17.000000	1	1.176000
17.016667	1	1.173500
17.033333	1	1.170125
17.050000	1	1.166375
17.066667	1	1.162000
17.083333	1	1.156875
17.100000	1	1.151875
17.116667	1	1.147500
17.133333	1	1.143375
17.150000	1	1.140250
17.166667	1	1.137625
17.183333	1	1.136000
17.200000	1	1.134250
17.216667	1	1.134250
17.233333	1	1.134500
17.250000	1	1.136125
17.266667	1	1.137875
17.283333	1	1.141000
17.300000	1	1.144125
17.316667	1	1.147875
17.333333	1	1.151750
17.350000	1	1.155250
17.366667	1	1.158875
17.383333	1	1.163125
17.400000	1	1.167125
17.416667	1	1.171375
17.433333	1	1.174875
17.450000	1	1.177625
17.466667	1	1.179500
17.483333	1	1.180625
17.500000	1	1.180625
17.516667	1	1.179000
17.533333	1	1.176250
17.550000	1	1.171750
17.566667	1	1.166250
17.583333	1	1.158250
17.600000	1	1.149125
17.616667	1	1.138375
17.633333	1	1.126375
17.650000	1	1.113125
17.666667	1	1.099000
17.683333	1	1.084500
17.700000	1	1.069750
17.716667	1	1.053000
17.733333	1	1.036875
17.750000	1	1.021500
17.766667	1	1.007000
17.783333	1	0.991875
17.800000	1	0.977750
17.816667	1	0.964250
17.833333	1	0.951625
17.850000	1	0.939625
17.866667	1	0.927875
17.883333	1	0.916875
17.900000	1	0.906375
17.916667	1	0.896375
17.933333	1	0.886875
17.950000	1	0.878750
17.966667	1	0.870750
17.983333	1	0.863625
18.000000	1	0.856125
18.016667	1	0.849000
18.033333	1	0.841750
18.050000	1	0.835250
18.066667	1	0.828125
18.083333	1	0.820625
18.100000	1	0.813875
18.116667	1	0.807250
18.133333	1	0.800625
18.150000	1	0.794250
18.166667	1	0.788750
18.183333	1	0.782875
18.200000	1	0.778000
18.216667	1	0.773750
18.233333	1	0.769625
18.250000	1	0.767000
18.266667	1	0.764750
18.283333	1	0.763250
18.300000	1	0.762000
18.316667	1	0.760750
18.333333	1	0.761250
18.350000	1	0.761750
18.366667	1	0.762625
18.383333	1	0.764125
18.400000	1	0.765875
18.416667	1	0.768750
18.433333	1	0.771875
18.450000	1	0.776000
18.466667	1	0.781125
18.483333	1	0.787250
18.500000	1	0.794375
18.516667	1	0.802875
18.533333	1	0.813250
18.550000	1	0.825375
18.566667	1	0.839750
18.583333	1	0.856000
18.600000	1	0.874250
18.616667	1	0.894625
18.633333	1	0.917750
18.650000	1	0.942750
18.666667	1	0.970375
18.683333	1	0.999750
18.700000	1	1.031375
18.716667	1	1.064375
18.733333	1	1.099000
18.750000	1	1.134625
18.766667	1	1.171875
18.783333	1	1.210000
18.800000	1	1.247875
18.816667	1	1.285000
18.833333	1	1.320875
18.850000	1	1.355375
18.866667	1	1.387750
18.883333	1	1.416125
18.900000	1	1.440750
18.916667	1	1.460750
18.933333	1	1.475375
18.950000	1	1.483625
18.966667	1	1.486375
18.983333	1	1.482125
19.000000	1	1.471000
19.016667	1	1.452875
19.033333	1	1.428875
19.050000	1	1.398000
19.066667	1	1.361750
19.083333	1	1.320250
19.100000	1	1.275750
19.116667	1	1.229000
19.133333	1	1.181000
19.150000	1	1.133000
19.166667	1	1.086125
19.183333	1	1.040500
19.200000	1	0.998375
19.216667	1	0.960500
19.233333	1	0.928375
19.250000	1	0.901750
19.266667	1	0.881625
19.283333	1	0.868000
19.300000	1	0.862375
19.316667	1	0.864500
19.333333	1	0.875750
19.350000	1	0.896375
19.366667	1	0.925750
19.383333	1	0.964000
19.400000	1	1.011125
19.416667	1	1.066625
19.433333	1	1.129250
19.450000	1	1.199875
19.466667	1	1.275875
19.483333	1	1.356750
19.500000	1	1.440625
19.516667	1	1.525125
19.533333	1	1.608750
19.550000	1	1.688875
19.566667	1	1.762500
19.583333	1	1.829375
19.600000	1	1.885250
19.616667	1	1.929375
19.633333	1	1.961000
19.650000	1	1.978125
19.666667	1	1.980625
19.683333	1	1.968375
19.700000	1	1.942250
19.716667	1	1.903875
19.733333	1	1.854000
19.750000	1	1.794250
19.766667	1	1.726250
19.783333	1	1.653250
19.800000	1	1.575750
19.816667	1	1.496375
19.833333	1	1.415625
19.850000	1	1.336250
19.866667	1	1.259250
19.883333	1	1.184750
19.900000	1	1.113500
19.916667	1	1.046500
19.933333	1	0.984875
19.950000	1	0.928250
19.966667	1	0.875625
19.983333	1	0.827875
20.000000	1	0.785500
20.016667	1	0.748000
20.033333	1	0.714625
20.050000	1	0.685375
20.066667	1	0.661375
20.083333	1	0.641625
20.100000	1	0.625625
20.116667	1	0.614000
20.133333	1	0.606250
20.150000	1	0.602500
20.166667	1	0.601750
20.183333	1	0.603375
20.200000	1	0.608625
20.216667	1	0.615875
20.233333	1	0.625125
20.250000	1	0.636250
20.266667	1	0.648000
20.283333	1	0.659750
20.300000	1	0.672125
20.316667	1	0.683125
20.333333	1	0.693250
20.350000	1	0.701000
20.366667	1	0.707750
20.383333	1	0.711750
20.400000	1	0.713500
20.416667	1	0.712750
20.433333	1	0.710125
20.450000	1	0.705250
20.466667	1	0.699250
20.483333	1	0.692500
20.500000	1	0.686375
20.516667	1	0.681250
20.533333	1	0.678125
20.550000	1	0.677500
20.566667	1	0.680250
20.583333	1	0.687750
20.600000	1	0.700250
20.616667	1	0.718625
20.633333	1	0.743625
20.650000	1	0.776000
20.666667	1	0.815250
20.683333	1	0.860250
20.700000	1	0.912625
20.716667	1	0.971000
20.733333	1	1.034375
20.750000	1	1.101250
20.766667	1	1.170750
20.783333	1	1.240375
20.800000	1	1.308000
20.816667	1	1.371875
20.833333	1	1.429500
20.850000	1	1.480375
20.866667	1	1.520500
20.883333	1	1.548875
20.900000	1	1.565750
20.916667	1	1.570000
20.933333	1	1.560125
20.950000	1	1.537875
20.966667	1	1.503250
20.983333	1	1.457250
21.000000	1	1.402375
21.016667	1	1.340125
21.033333	1	1.272125
21.050000	1	1.201625
21.066667	1	1.129500
21.083333	1	1.057375
21.100000	1	0.986500
21.116667	1	0.918500
21.133333	1	0.854625
21.150000	1	0.794750
21.166667	1	0.740375
21.183333	1	0.690875
21.200000	1	0.646500
21.216667	1	0.607250
21.233333	1	0.573750
21.250000	1	0.543500
21.266667	1	0.518000
21.283333	1	0.496375
21.300000	1	0.477750
21.316667	1	0.462250
21.333333	1	0.449250
21.350000	1	0.437500
21.366667	1	0.427125
21.383333	1	0.419375
21.400000	1	0.413000
21.416667	1	0.407375
21.433333	1	0.403125
21.450000	1	0.399000
21.466667	1	0.395750
21.483333	1	0.393125
21.500000	1	0.391500
21.516667	1	0.389375
21.533333	1	0.387750
21.550000	1	0.386875
21.566667	1	0.386250
21.583333	1	0.386625
21.600000	1	0.386625
21.616667	1	0.387750
21.633333	1	0.389125
21.650000	1	0.390875
21.666667	1	0.393000
21.683333	1	0.396250
21.700000	1	0.400250
21.716667	1	0.403875
21.733333	1	0.409250
21.750000	1	0.414375
21.766667	1	0.420250
21.783333	1	0.426750
21.800000	1	0.433875
21.816667	1	0.440500
21.833333	1	0.447875
21.850000	1	0.455125
21.866667	1	0.463125
21.883333	1	0.470375
21.900000	1	0.478125
21.916667	1	0.486375
21.933333	1	0.494750
21.950000	1	0.503500
21.966667	1	0.511000
21.983333	1	0.518750
22.000000	1	0.526625
22.016667	1	0.534250
22.033333	1	0.541500
22.050000	1	0.548500
22.066667	1	0.554625
22.083333	1	0.560375
22.100000	1	0.566500
22.116667	1	0.570875
22.133333	1	0.574625
22.150000	1	0.577250
22.166667	1	0.578875
22.183333	1	0.578500
22.200000	1	0.577750
22.216667	1	0.575250
22.233333	1	0.572000
22.250000	1	0.566750
22.266667	1	0.560500
22.283333	1	0.553500
22.300000	1	0.544750
22.316667	1	0.534750
22.333333	1	0.524000
22.350000	1	0.512250
22.366667	1	0.499625
22.383333	1	0.486500
22.400000	1	0.473500
22.416667	1	0.460250
22.433333	1	0.446500
22.450000	1	0.433125
22.466667	1	0.420500
22.483333	1	0.408625
22.500000	1	0.397125
22.516667	1	0.386500
22.533333	1	0.376625
22.550000	1	0.366750
22.566667	1	0.358375
22.583333	1	0.350125
22.600000	1	0.342750
22.616667	1	0.336375
22.633333	1	0.331000
22.650000	1	0.326125
22.666667	1	0.322000
22.683333	1	0.318375
22.700000	1	0.315500
22.716667	1	0.312500
22.733333	1	0.309500
22.750000	1	0.306875
22.766667	1	0.304625
22.783333	1	0.302750
22.800000	1	0.301000
22.816667	1	0.298875
22.833333	1	0.297375
22.850000	1	0.296625
22.866667	1	0.295750
22.883333	1	0.294750
22.900000	1	0.293625
22.916667	1	0.293000
22.933333	1	0.292250
22.950000	1	0.292000
22.966667	1	0.291750
22.983333	1	0.291375
23.000000	1	0.291125
23.016667	1	0.291000
23.033333	1	0.290750
23.050000	1	0.290750
23.066667	1	0.291125
23.083333	1	0.291625
23.100000	1	0.292750
23.116667	1	0.293375
23.133333	1	0.294125
23.150000	1	0.295000
23.166667	1	0.295750
23.183333	1	0.296875
23.200000	1	0.297750
23.216667	1	0.299000
23.233333	1	0.301125
23.250000	1	0.303750
23.266667	1	0.307375
23.283333	1	0.312125
23.300000	1	0.318250
23.316667	1	0.326000
23.333333	1	0.335500
23.350000	1	0.348375
23.366667	1	0.364750
23.383333	1	0.386375
23.400000	1	0.412125
23.416667	1	0.443250
23.433333	1	0.481375
23.450000	1	0.527625
23.466667	1	0.582625
23.483333	1	0.647625
23.500000	1	0.724250
23.516667	1	0.813000
23.533333	1	0.915500
23.550000	1	1.032500
23.566667	1	1.164875
23.583333	1	1.313250
23.600000	1	1.478625
23.616667	1	1.661125
23.633333	1	1.859750
23.650000	1	2.074500
23.666667	1	2.304250
23.683333	1	2.546375
23.700000	1	2.799625
23.716667	1	3.061000
23.733333	1	3.326250
23.750000	1	3.591625
23.766667	1	3.852000
23.783333	1	4.102625
23.800000	1	4.337875
23.816667	1	4.553375
23.833333	1	4.744250
23.850000	1	4.905500
23.866667	1	5.034750
23.883333	1	5.127750
23.900000	1	5.183625
23.916667	1	5.199750
23.933333	1	5.177750
23.950000	1	5.117125
23.966667	1	5.020250
23.983333	1	4.890500
24.000000	1	4.731125
24.016667	1	4.546250
24.033333	1	4.340875
24.050000	1	4.119625
24.066667	1	3.887625
24.083333	1	3.648625
24.100000	1	3.407250
24.116667	1	3.166625
24.133333	1	2.930875
24.150000	1	2.702875
24.166667	1	2.485375
24.183333	1	2.279375
24.200000	1	2.085500
24.216667	1	1.906875
24.233333	1	1.742125
24.250000	1	1.592375
24.266667	1	1.456500
24.283333	1	1.333250
24.300000	1	1.222750
24.316667	1	1.124750
24.333333	1	1.038000
24.350000	1	0.961125
24.366667	1	0.893875
24.383333	1	0.834750
24.400000	1	0.783375
24.416667	1	0.738750
24.433333	1	0.700875
24.450000	1	0.667875
24.466667	1	0.638875
24.483333	1	0.614000
24.500000	1	0.592750
24.516667	1	0.574125
24.533333	1	0.557875
24.550000	1	0.543375
24.566667	1	0.530750
24.583333	1	0.519125
24.600000	1	0.507875
24.616667	1	0.497875
24.633333	1	0.487250
24.650000	1	0.477000
24.666667	1	0.466875
24.683333	1	0.457250
24.700000	1	0.448000
24.716667	1	0.437750
24.733333	1	0.427375
24.750000	1	0.417125
24.766667	1	0.407125
24.783333	1	0.397125
24.800000	1	0.387375
24.816667	1	0.377750
24.833333	1	0.367875
24.850000	1	0.358500
24.866667	1	0.349500
24.883333	1	0.340875
24.900000	1	0.333000
24.916667	1	0.324875
24.933333	1	0.317375
24.950000	1	0.310750
24.966667	1	0.303375
24.983333	1	0.297500
25.000000	1	0.291500
25.016667	1	0.286000
25.033333	1	0.280125
25.050000	1	0.275125
25.066667	1	0.270375
25.083333	1	0.266125
25.100000	1	0.261500
25.116667	1	0.256875
25.133333	1	0.252625
25.150000	1	0.249000
25.166667	1	0.245375
25.183333	1	0.241250
25.200000	1	0.238125
25.216667	1	0.235250
25.233333	1	0.231625
25.250000	1	0.228500
25.266667	1	0.225500
25.283333	1	0.222750
25.300000	1	0.220750
25.316667	1	0.218750
25.333333	1	0.217125
25.350000	1	0.214875
25.366667	1	0.213500
25.383333	1	0.212375
25.400000	1	0.211375
25.416667	1	0.211000
25.433333	1	0.210500
25.450000	1	0.210750
25.466667	1	0.210750
25.483333	1	0.211375
25.500000	1	0.212625
25.516667	1	0.213750
25.533333	1	0.215000
25.550000	1	0.217000
25.566667	1	0.219000
25.583333	1	0.220625
25.600000	1	0.223125
25.616667	1	0.225125
25.633333	1	0.228250
25.650000	1	0.230750
25.666667	1	0.233625
25.683333	1	0.236250
25.700000	1	0.238250
25.716667	1	0.241750
25.733333	1	0.245375
25.750000	1	0.248625
25.766667	1	0.251750
25.783333	1	0.254875
25.800000	1	0.258125
25.816667	1	0.261625
25.833333	1	0.265375
25.850000	1	0.269875
25.866667	1	0.274250
25.883333	1	0.279125
25.900000	1	0.283250
25.916667	1	0.288000
25.933333	1	0.292625
25.950000	1	0.297875
25.966667	1	0.303500
25.983333	1	0.309000
26.000000	1	0.314625
26.016667	1	0.320750
26.033333	1	0.327000
26.050000	1	0.332875
26.066667	1	0.339750
26.083333	1	0.346000
26.100000	1	0.352625
26.116667	1	0.358750
26.133333	1	0.364375
26.150000	1	0.370000
26.166667	1	0.375250
26.183333	1	0.380250
26.200000	1	0.384375
26.216667	1	0.388875
26.233333	1	0.392250
26.250000	1	0.395375
26.266667	1	0.397625
26.283333	1	0.398625
26.300000	1	0.399000
26.316667	1	0.398875
26.333333	1	0.397625
26.350000	1	0.396125
26.366667	1	0.393375
26.383333	1	0.390750
26.400000	1	0.386375
26.416667	1	0.382375
26.433333	1	0.377125
26.450000	1	0.371500
26.466667	1	0.364875
26.483333	1	0.357625
26.500000	1	0.350375
26.516667	1	0.342500
26.533333	1	0.334375
26.550000	1	0.326125
26.566667	1	0.317000
26.583333	1	0.308375
26.600000	1	0.299750
26.616667	1	0.292000
26.633333	1	0.283625
26.650000	1	0.275500
26.666667	1	0.267125
26.683333	1	0.259500
26.700000	1	0.251375
26.716667	1	0.243375
26.733333	1	0.235750
26.750000	1	0.228875
26.766667	1	0.222625
26.783333	1	0.216125
26.800000	1	0.210000
26.816667	1	0.204750
26.833333	1	0.200375
26.850000	1	0.196125
26.866667	1	0.192250
26.883333	1	0.187500
26.900000	1	0.184500
26.916667	1	0.181250
26.933333	1	0.179000
26.950000	1	0.176625
26.966667	1	0.174625
26.983333	1	0.173625
27.000000	1	0.173750
27.016667	1	0.174625
27.033333	1	0.175875
27.050000	1	0.177375
27.066667	1	0.179750
27.083333	1	0.184125
27.100000	1	0.189000
27.116667	1	0.195125
27.133333	1	0.202125
27.150000	1	0.210750
27.166667	1	0.221875
27.183333	1	0.234000
27.200000	1	0.248500
27.216667	1	0.265000
27.233333	1	0.284750
27.250000	1	0.306750
27.266667	1	0.332875
27.283333	1	0.363000
27.300000	1	0.397250
27.316667	1	0.436375
27.333333	1	0.480125
27.350000	1	0.529250
27.366667	1	0.584625
27.383333	1	0.646750
27.400000	1	0.716750
27.416667	1	0.794125
27.433333	1	0.879250
27.450000	1	0.973375
27.466667	1	1.076625
27.483333	1	1.189125
27.500000	1	1.311000
27.516667	1	1.441625
27.533333	1	1.581000
27.550000	1	1.728875
27.566667	1	1.884625
27.583333	1	2.048125
27.600000	1	2.218125
27.616667	1	2.393250
27.633333	1	2.571375
27.650000	1	2.752000
27.666667	1	2.932625
27.683333	1	3.111375
27.700000	1	3.285000
27.716667	1	3.452000
27.733333	1	3.608750
27.750000	1	3.753125
27.766667	1	3.884750
27.783333	1	3.998750
27.800000	1	4.092750
27.816667	1	4.166875
27.833333	1	4.219000
27.850000	1	4.247125
27.866667	1	4.251125
27.883333	1	4.231000
27.900000	1	4.186250
27.916667	1	4.117625
27.933333	1	4.027125
27.950000	1	3.916375
27.966667	1	3.785875
27.983333	1	3.639625
28.000000	1	3.479000
28.016667	1	3.307375
28.033333	1	3.127625
28.050000	1	2.941375
28.066667	1	2.752250
28.083333	1	2.562750
28.100000	1	2.375625
28.116667	1	2.192875
28.133333	1	2.016500
28.150000	1	1.848250
28.166667	1	1.688250
28.183333	1	1.538625
28.200000	1	1.400250
28.216667	1	1.272375
28.233333	1	1.155500
28.250000	1	1.049375
28.266667	1	0.953625
28.283333	1	0.867750
28.300000	1	0.792000
28.316667	1	0.725625
28.333333	1	0.667500
28.350000	1	0.618125
28.366667	1	0.575625
28.383333	1	0.540375
28.400000	1	0.510375
28.416667	1	0.487625
28.433333	1	0.468750
28.450000	1	0.454125
28.466667	1	0.444500
28.483333	1	0.437250
28.500000	1	0.433875
28.516667	1	0.432625
28.533333	1	0.434750
28.550000	1	0.438625
28.566667	1	0.443875
28.583333	1	0.451000
28.600000	1	0.459875
28.616667	1	0.469750
28.633333	1	0.479750
28.650000	1	0.490250
28.666667	1	0.502375
28.683333	1	0.513375
28.700000	1	0.524875
28.716667	1	0.535750
28.733333	1	0.547250
28.750000	1	0.557875
28.766667	1	0.568000
28.783333	1	0.577125
28.800000	1	0.586125
28.816667	1	0.594250
28.833333	1	0.601125
28.850000	1	0.606875
28.866667	1	0.611500
28.883333	1	0.615125
28.900000	1	0.617500
28.916667	1	0.619500
28.933333	1	0.619625
28.950000	1	0.618875
28.966667	1	0.616750
28.983333	1	0.613625
29.000000	1	0.609000
29.016667	1	0.603625
29.033333	1	0.596000
29.050000	1	0.588000
29.066667	1	0.579750
29.083333	1	0.569375
29.100000	1	0.558500
29.116667	1	0.546250
29.133333	1	0.533625
29.150000	1	0.520625
29.166667	1	0.506875
29.183333	1	0.492250
29.200000	1	0.477375
29.216667	1	0.463000
29.233333	1	0.448000
29.250000	1	0.432500
29.266667	1	0.416625
29.283333	1	0.400125
29.300000	1	0.383750
29.316667	1	0.367375
29.333333	1	0.351250
29.350000	1	0.335375
29.366667	1	0.320000
29.383333	1	0.305000
29.400000	1	0.291125
29.416667	1	0.276625
29.433333	1	0.263000
29.450000	1	0.249375
29.466667	1	0.236250
29.483333	1	0.224000
29.500000	1	0.212250
29.516667	1	0.201125
29.533333	1	0.190375
29.550000	1	0.180000
29.566667	1	0.170625
29.583333	1	0.161750
29.600000	1	0.152625
29.616667	1	0.145125
29.633333	1	0.137875
29.650000	1	0.130375
29.666667	1	0.123875
29.683333	1	0.118250
29.700000	1	0.112125
29.716667	1	0.107250
29.733333	1	0.102500
29.750000	1	0.098000
29.766667	1	0.093375
29.783333	1	0.090375
29.800000	1	0.086750
29.816667	1	0.083500
29.833333	1	0.080875
29.850000	1	0.078000
29.866667	1	0.075000
29.883333	1	0.072375
29.900000	1	0.070375
29.916667	1	0.068375
29.933333	1	0.066375
29.950000	1	0.064250
29.966667	1	0.062750
29.983333	1	0.061375
30.000000	1	0.060000
30.016667	1	0.058625
30.033333	1	0.057250
30.050000	1	0.055750
30.066667	1	0.054625
30.083333	1	0.054250
30.100000	1	0.053750
30.116667	1	0.052625
30.133333	1	0.052125
30.150000	1	0.051500
30.166667	1	0.052250
30.183333	1	0.052500
30.200000	1	0.053375
30.216667	1	0.054000
30.233333	1	0.054375
30.250000	1	0.055250
30.266667	1	0.056250
30.283333	1	0.057500
30.300000	1	0.058625
30.316667	1	0.060375
30.333333	1	0.062625
30.350000	1	0.065250
30.366667	1	0.067375
30.383333	1	0.070250
30.400000	1	0.073750
30.416667	1	0.078000
30.433333	1	0.081375
30.450000	1	0.085500
30.466667	1	0.090000
30.483333	1	0.094625
30.500000	1	0.099625
30.516667	1	0.105625
30.533333	1	0.111500
30.550000	1	0.117500
30.566667	1	0.124375
30.583333	1	0.131875
30.600000	1	0.139500
30.616667	1	0.147875
30.633333	1	0.156875
30.650000	1	0.166375
30.666667	1	0.176125
30.683333	1	0.186500
30.700000	1	0.197875
30.716667	1	0.209500
30.733333	1	0.222875
30.750000	1	0.237250
30.766667	1	0.253500
30.783333	1	0.270375
30.800000	1	0.288625
30.816667	1	0.309500
30.833333	1	0.332750
30.850000	1	0.357500
30.866667	1	0.385750
30.883333	1	0.416250
30.900000	1	0.451000
30.916667	1	0.489000
30.933333	1	0.531000
30.950000	1	0.578375
30.966667	1	0.630500
30.983333	1	0.688375
31.000000	1	0.752625
31.016667	1	0.823250
31.033333	1	0.901000
31.050000	1	0.985875
31.066667	1	1.079000
31.083333	1	1.179125
31.100000	1	1.287250
31.116667	1	1.403875
31.133333	1	1.528875
31.150000	1	1.661625
31.166667	1	1.801875
31.183333	1	1.950000
31.200000	1	2.105625
31.216667	1	2.267125
31.233333	1	2.432250
31.250000	1	2.600625
31.266667	1	2.771250
31.283333	1	2.943000
31.300000	1	3.113000
31.316667	1	3.280250
31.333333	1	3.442000
31.350000	1	3.597250
31.366667	1	3.743875
31.383333	1	3.879625
31.400000	1	4.004250
31.416667	1	4.113500
31.433333	1	4.207750
31.450000	1	4.285125
31.466667	1	4.344875
31.483333	1	4.384875
31.500000	1	4.405375
31.516667	1	4.406750
31.533333	1	4.388250
31.550000	1	4.350750
31.566667	1	4.294375
31.583333	1	4.220875
31.600000	1	4.131000
31.616667	1	4.025375
31.633333	1	3.905375
31.650000	1	3.773875
31.666667	1	3.632375
31.683333	1	3.481500
31.700000	1	3.324875
31.716667	1	3.163375
31.733333	1	2.998875
31.750000	1	2.833500
31.766667	1	2.667750
31.783333	1	2.503125
31.800000	1	2.340750
31.816667	1	2.182625
31.833333	1	2.029625
31.850000	1	1.882750
31.866667	1	1.742625
31.883333	1	1.608750
31.900000	1	1.482250
31.916667	1	1.363625
31.933333	1	1.252375
31.950000	1	1.149000
31.966667	1	1.053250
31.983333	1	0.964875
32.000000	1	0.883250
32.016667	1	0.808625
32.033333	1	0.740875
32.050000	1	0.678000
32.066667	1	0.620750
32.083333	1	0.569250
32.100000	1	0.522375
32.116667	1	0.479750
32.133333	1	0.441875
32.150000	1	0.407375
32.166667	1	0.376250
32.183333	1	0.348125
32.200000	1	0.322875
32.216667	1	0.299875
32.233333	1	0.278875
32.250000	1	0.259875
32.266667	1	0.242500
32.283333	1	0.226875
32.300000	1	0.212000
32.316667	1	0.198875
32.333333	1	0.186625
32.350000	1	0.175750
32.366667	1	0.165375
32.383333	1	0.154875
32.400000	1	0.145875
32.416667	1	0.137750
32.433333	1	0.129750
32.450000	1	0.121625
32.466667	1	0.114500
32.483333	1	0.107750
32.500000	1	0.101750
32.516667	1	0.096250
32.533333	1	0.091000
32.550000	1	0.086125
32.566667	1	0.082000
32.583333	1	0.077375
32.600000	1	0.073625
32.616667	1	0.069375
32.633333	1	0.066750
32.650000	1	0.064750
32.666667	1	0.062375
32.683333	1	0.060625
32.700000	1	0.058750
32.716667	1	0.057375
32.733333	1	0.056625
32.750000	1	0.055375
32.766667	1	0.055125
32.783333	1	0.054750
32.800000	1	0.055375
32.816667	1	0.055125
32.833333	1	0.055125
32.850000	1	0.055125
32.866667	1	0.055500
32.883333	1	0.055500
32.900000	1	0.056250
32.916667	1	0.056500
32.933333	1	0.056750
32.950000	1	0.057875
32.966667	1	0.057750
32.983333	1	0.058125
33.000000	1	0.057875
33.016667	1	0.058250
33.033333	1	0.057875
33.050000	1	0.058000
33.066667	1	0.057625
33.083333	1	0.056750
33.100000	1	0.056000
33.116667	1	0.055625
33.133333	1	0.055000
33.150000	1	0.054375
33.166667	1	0.053375
33.183333	1	0.052375
33.200000	1	0.051625
33.216667	1	0.051125
33.233333	1	0.051000
33.250000	1	0.050250
33.266667	1	0.048750
33.283333	1	0.047500
33.300000	1	0.047125
33.316667	1	0.046250
33.333333	1	0.045250
33.350000	1	0.044500
33.366667	1	0.044375
33.383333	1	0.044125
33.400000	1	0.043750
33.416667	1	0.043750
33.433333	1	0.044000
33.450000	1	0.044500
33.466667	1	0.045125
33.483333	1	0.046375
33.500000	1	0.047125
33.516667	1	0.047375
33.533333	1	0.048750
33.550000	1	0.050000
33.566667	1	0.051375
33.583333	1	0.053000
33.600000	1	0.054625
33.616667	1	0.056625
33.633333	1	0.059500
33.650000	1	0.061750
33.666667	1	0.064000
33.683333	1	0.067000
33.700000	1	0.069250
33.716667	1	0.071500
33.733333	1	0.074875
33.750000	1	0.078000
33.766667	1	0.081375
33.783333	1	0.085125
33.800000	1	0.089125
33.816667	1	0.092750
33.833333	1	0.096250
33.850000	1	0.100000
33.866667	1	0.104375
33.883333	1	0.108875
33.900000	1	0.113375
33.916667	1	0.118000
33.933333	1	0.122625
33.950000	1	0.127500
33.966667	1	0.132125
33.983333	1	0.136750
34.000000	1	0.141625
34.016667	1	0.146500
34.033333	1	0.151375
34.050000	1	0.155625
34.066667	1	0.159875
34.083333	1	0.163125
34.100000	1	0.166625
34.116667	1	0.170250
34.133333	1	0.174000
34.150000	1	0.177250
34.166667	1	0.180500
34.183333	1	0.183500
34.200000	1	0.185750
34.216667	1	0.188500
34.233333	1	0.190500
34.250000	1	0.192250
34.266667	1	0.193875
34.283333	1	0.194625
34.300000	1	0.195375
34.316667	1	0.196875
34.333333	1	0.197625
34.350000	1	0.198875
34.366667	1	0.199625
34.383333	1	0.200125
34.400000	1	0.200250
34.416667	1	0.201000
34.433333	1	0.201375
34.450000	1	0.201625
34.466667	1	0.202250
34.483333	1	0.202625
34.500000	1	0.203125
34.516667	1	0.203625
34.533333	1	0.204125
34.550000	1	0.204250
34.566667	1	0.204875
34.583333	1	0.205750
34.600000	1	0.206250
34.616667	1	0.206375
34.633333	1	0.206875
34.650000	1	0.207375
34.666667	1	0.207625
34.683333	1	0.207375
34.700000	1	0.207250
34.716667	1	0.207125
34.733333	1	0.206000
34.750000	1	0.205625
34.766667	1	0.205500
34.783333	1	0.204625
34.800000	1	0.203750
34.816667	1	0.202750
34.833333	1	0.201125
34.850000	1	0.199000
34.866667	1	0.196750
34.883333	1	0.194625
34.900000	1	0.192750
34.916667	1	0.190625
34.933333	1	0.188750
34.950000	1	0.185625
34.966667	1	0.182750
34.983333	1	0.180000
35.000000	1	0.177125
35.016667	1	0.174125
35.033333	1	0.171375
35.050000	1	0.168125
35.066667	1	0.164875
35.083333	1	0.161750
35.100000	1	0.158250
35.116667	1	0.155375
35.133333	1	0.152375
35.150000	1	0.149250
35.166667	1	0.146625
35.183333	1	0.144000
35.200000	1	0.141750
35.216667	1	0.139250
35.233333	1	0.136375
35.250000	1	0.134500
35.266667	1	0.131875
35.283333	1	0.129750
35.300000	1	0.128500
35.316667	1	0.127375
35.333333	1	0.125375
35.350000	1	0.124125
35.366667	1	0.123000
35.383333	1	0.121625
35.400000	1	0.120250
35.416667	1	0.119000
35.433333	1	0.119125
35.450000	1	0.118750
35.466667	1	0.118875
35.483333	1	0.118750
35.500000	1	0.119125
35.516667	1	0.119500
35.533333	1	0.120625
35.550000	1	0.121125
35.566667	1	0.122125
35.583333	1	0.122625
35.600000	1	0.124000
35.616667	1	0.126250
35.633333	1	0.128000
35.650000	1	0.129375
35.666667	1	0.130250
35.683333	1	0.131875
35.700000	1	0.134500
35.716667	1	0.136000
35.733333	1	0.138250
35.750000	1	0.139875
35.766667	1	0.142375
35.783333	1	0.143750
35.800000	1	0.145750
35.816667	1	0.147500
35.833333	1	0.149375
35.850000	1	0.150500
35.866667	1	0.151250
35.883333	1	0.152625
35.900000	1	0.153500
35.916667	1	0.154125
35.933333	1	0.154375
35.950000	1	0.155625
35.966667	1	0.155250
35.983333	1	0.155250
36.000000	1	0.155375
36.016667	1	0.155750
36.033333	1	0.155375
36.050000	1	0.155250
36.066667	1	0.154500
36.083333	1	0.154500
36.100000	1	0.153875
36.116667	1	0.153375
36.133333	1	0.153250
36.150000	1	0.152625
36.166667	1	0.152250
36.183333	1	0.151625
36.200000	1	0.150750
36.216667	1	0.150000
36.233333	1	0.149000
36.250000	1	0.148750
36.266667	1	0.148000
36.283333	1	0.147750
36.300000	1	0.147250
36.316667	1	0.146500
36.333333	1	0.145375
36.350000	1	0.144625
36.366667	1	0.144250
36.383333	1	0.143125
36.400000	1	0.141500
36.416667	1	0.140000
36.433333	1	0.138750
36.450000	1	0.136125
36.466667	1	0.133750
36.483333	1	0.131250
36.500000	1	0.128750
36.516667	1	0.126000
36.533333	1	0.123625
36.550000	1	0.120250
36.566667	1	0.117125
36.583333	1	0.114375
36.600000	1	0.111500
36.616667	1	0.108375
36.633333	1	0.104250
36.650000	1	0.100500
36.666667	1	0.096625
36.683333	1	0.093875
36.700000	1	0.090750
36.716667	1	0.087625
36.733333	1	0.084625
36.750000	1	0.081375
36.766667	1	0.078500
36.783333	1	0.075250
36.800000	1	0.071875
36.816667	1	0.068875
36.833333	1	0.065500
36.850000	1	0.062375
36.866667	1	0.058875
36.883333	1	0.056875
36.900000	1	0.054000
36.916667	1	0.051250
36.933333	1	0.048750
36.950000	1	0.046000
36.966667	1	0.042625
36.983333	1	0.040125
37.000000	1	0.037125
37.016667	1	0.034375
37.033333	1	0.032125
37.050000	1	0.029000
37.066667	1	0.026375
37.083333	1	0.024000
37.100000	1	0.021375
37.116667	1	0.018625
37.133333	1	0.015875
37.150000	1	0.013250
37.166667	1	0.011250
37.183333	1	0.009125
37.200000	1	0.007875
37.216667	1	0.005500
37.233333	1	0.003750
37.250000	1	0.002625
37.266667	1	0.001375
37.283333	1	0.000250
37.300000	1	0.000375
37.316667	1	0.000000
37.333333	1	-0.000125
37.350000	1	-0.000125
37.366667	1	0.000125
37.383333	1	-0.000250
37.400000	1	0.000500
37.416667	1	0.001625
37.433333	1	0.002000
37.450000	1	0.002250
37.466667	1	0.002750
37.483333	1	0.003500
37.500000	1	0.005500
37.516667	1	0.007250
37.533333	1	0.008375
37.550000	1	0.009375
37.566667	1	0.009875
37.583333	1	0.011375
37.600000	1	0.012625
37.616667	1	0.013625
37.633333	1	0.015000
37.650000	1	0.016000
37.666667	1	0.017000
37.683333	1	0.018125
37.700000	1	0.019000
37.716667	1	0.019875
37.733333	1	0.021125
37.750000	1	0.021625
37.766667	1	0.022625
37.783333	1	0.023375
37.800000	1	0.024625
37.816667	1	0.025125
37.833333	1	0.025500
37.850000	1	0.026250
37.866667	1	0.026750
37.883333	1	0.027125
37.900000	1	0.027625
37.916667	1	0.028625
37.933333	1	0.028750
37.950000	1	0.029250
37.966667	1	0.029875
37.983333	1	0.030375
38.000000	1	0.030875
38.016667	1	0.031750
38.033333	1	0.032000
38.050000	1	0.032125
38.066667	1	0.032125
38.083333	1	0.032125
38.100000	1	0.033250
38.116667	1	0.034125
38.133333	1	0.034875
38.150000	1	0.035375
38.166667	1	0.035625
38.183333	1	0.036750
38.200000	1	0.037750
38.216667	1	0.038250
38.233333	1	0.038625
38.250000	1	0.039375
38.266667	1	0.038750
38.283333	1	0.039375
38.300000	1	0.040500
38.316667	1	0.040875
38.333333	1	0.041625
38.350000	1	0.042000
38.366667	1	0.042625
38.383333	1	0.043625
38.400000	1	0.044625
38.416667	1	0.045500
38.433333	1	0.046375
38.450000	1	0.046875
38.466667	1	0.047375
38.483333	1	0.048125
38.500000	1	0.048750
38.516667	1	0.049250
38.533333	1	0.050375
38.550000	1	0.051500
38.566667	1	0.052750
38.583333	1	0.054000
38.600000	1	0.055500
38.616667	1	0.057125
38.633333	1	0.058875
38.650000	1	0.060875
38.666667	1	0.062375
38.683333	1	0.064375
38.700000	1	0.066375
38.716667	1	0.068500
38.733333	1	0.070875
38.750000	1	0.073500
38.766667	1	0.075250
38.783333	1	0.077625
38.800000	1	0.079625
38.816667	1	0.082125
38.833333	1	0.084250
38.850000	1	0.086250
38.866667	1	0.088250
38.883333	1	0.090625
38.900000	1	0.092250
38.916667	1	0.094000
38.933333	1	0.095250
38.950000	1	0.096750
38.966667	1	0.098125
38.983333	1	0.099375
39.000000	1	0.099625
39.016667	1	0.100125
39.033333	1	0.101250
39.050000	1	0.101750
39.066667	1	0.101625
39.083333	1	0.101875
39.100000	1	0.101750
39.116667	1	0.101875
39.133333	1	0.101125
39.150000	1	0.099875
39.166667	1	0.099000
39.183333	1	0.097750
39.200000	1	0.095875
39.216667	1	0.093625
39.233333	1	0.091875
39.250000	1	0.089625
39.266667	1	0.088125
39.283333	1	0.086625
39.300000	1	0.084875
39.316667	1	0.081500
39.333333	1	0.078375
39.350000	1	0.075750
39.366667	1	0.072500
39.383333	1	0.069750
39.400000	1	0.066250
39.416667	1	0.062750
39.433333	1	0.059500
39.450000	1	0.055500
39.466667	1	0.051750
39.483333	1	0.047750
39.500000	1	0.043375
39.516667	1	0.039125
39.533333	1	0.034250
39.550000	1	0.029375
39.566667	1	0.024750
39.583333	1	0.020625
39.600000	1	0.016250
39.616667	1	0.012250
39.633333	1	0.007250
39.650000	1	0.003000
39.666667	1	-0.001625
39.683333	1	-0.005125
39.700000	1	-0.009375
39.716667	1	-0.012875
39.733333	1	-0.016250
39.750000	1	-0.020000
39.766667	1	-0.023250
39.783333	1	-0.026125
39.800000	1	-0.028625
39.816667	1	-0.031375
39.833333	1	-0.033375
39.850000	1	-0.034750
39.866667	1	-0.036000
39.883333	1	-0.037000
39.900000	1	-0.037625
39.916667	1	-0.038250
39.933333	1	-0.038750
39.950000	1	-0.038750
39.966667	1	-0.038375
39.983333	1	-0.037875
40.000000	1	-0.037500
