URL	chrom://bioreactor/micro_cm7/HPLC_Ultimate_3000/Users/markusar/20240708_MA_pHrange1.seq/977.smp/RI_1.channel/RI_1.chm
Channel	RI_1

Injection Information:
Data Vault	micro_cm7
Sequence	20240708_MA_pHrange1
Name	Pv3_20H_1
Number	42
Position	BD6
Comment	
Processing Method	
Instrument Method	run_25B_method
Type	Unknown
Status	Finished
Inject Time	09.07.2024 19:34:23 +02:00
Volume (µl)	20.0000
Dilution Factor	1.0000
Weight	1.0000

Chromatogram Data Information:
Time Min. (min)	0.000000
Time Max. (min)	40.000000
Data Points	2401
Detector	RI
Generating Data System	Chromeleon 7.3.2.11814
Exporting Data System	Chromeleon 7.3.2.0
Operator	Instrument Controller
Signal Quantity	Refractive 
Signal Unit	µRIU
Signal Min.	-0.088875
Signal Max.	83.047250
Channel	RI_1
Driver Name	RID520Driver.dll
Channel Type	Evaluation
Min. Step (s)	1
Max. Step (s)	1
Average Step (s)	1

Signal Parameter Information:
Signal Info	

Chromatogram Data:
Time (min)	Step (s)	Value (µRIU)
0.000000	n.a.	-0.029750
0.016667	1	-0.026625
0.033333	1	-0.023125
0.050000	1	-0.019625
0.066667	1	-0.015875
0.083333	1	-0.012625
0.100000	1	-0.008500
0.116667	1	-0.005000
0.133333	1	-0.002125
0.150000	1	0.001000
0.166667	1	0.004750
0.183333	1	0.008000
0.200000	1	0.010750
0.216667	1	0.014250
0.233333	1	0.017250
0.250000	1	0.020750
0.266667	1	0.023000
0.283333	1	0.025250
0.300000	1	0.027375
0.316667	1	0.029125
0.333333	1	0.030500
0.350000	1	0.032000
0.366667	1	0.033125
0.383333	1	0.033875
0.400000	1	0.033375
0.416667	1	0.034375
0.433333	1	0.036000
0.450000	1	0.037125
0.466667	1	0.038375
0.483333	1	0.039500
0.500000	1	0.039625
0.516667	1	0.040375
0.533333	1	0.039500
0.550000	1	0.038125
0.566667	1	0.035750
0.583333	1	0.032250
0.600000	1	0.028875
0.616667	1	0.025125
0.633333	1	0.022250
0.650000	1	0.020250
0.666667	1	0.017750
0.683333	1	0.016000
0.700000	1	0.014500
0.716667	1	0.013375
0.733333	1	0.011875
0.750000	1	0.010750
0.766667	1	0.009375
0.783333	1	0.008375
0.800000	1	0.007500
0.816667	1	0.006625
0.833333	1	0.006000
0.850000	1	0.005625
0.866667	1	0.005375
0.883333	1	0.005625
0.900000	1	0.006000
0.916667	1	0.006125
0.933333	1	0.005000
0.950000	1	0.004625
0.966667	1	0.004625
0.983333	1	0.005000
1.000000	1	0.004875
1.016667	1	0.004875
1.033333	1	0.005750
1.050000	1	0.006250
1.066667	1	0.006000
1.083333	1	0.006625
1.100000	1	0.007250
1.116667	1	0.007625
1.133333	1	0.008375
1.150000	1	0.009125
1.166667	1	0.009250
1.183333	1	0.010500
1.200000	1	0.011875
1.216667	1	0.012750
1.233333	1	0.013000
1.250000	1	0.013875
1.266667	1	0.014875
1.283333	1	0.015500
1.300000	1	0.016125
1.316667	1	0.017125
1.333333	1	0.018000
1.350000	1	0.019250
1.366667	1	0.019500
1.383333	1	0.020500
1.400000	1	0.021625
1.416667	1	0.023250
1.433333	1	0.023750
1.450000	1	0.025125
1.466667	1	0.026500
1.483333	1	0.027625
1.500000	1	0.029000
1.516667	1	0.030375
1.533333	1	0.031625
1.550000	1	0.031625
1.566667	1	0.032250
1.583333	1	0.032500
1.600000	1	0.032625
1.616667	1	0.032625
1.633333	1	0.032750
1.650000	1	0.033000
1.666667	1	0.032500
1.683333	1	0.032500
1.700000	1	0.032000
1.716667	1	0.032000
1.733333	1	0.031750
1.750000	1	0.031125
1.766667	1	0.030250
1.783333	1	0.029125
1.800000	1	0.028500
1.816667	1	0.027625
1.833333	1	0.026750
1.850000	1	0.026125
1.866667	1	0.025125
1.883333	1	0.023750
1.900000	1	0.022500
1.916667	1	0.020875
1.933333	1	0.020000
1.950000	1	0.017875
1.966667	1	0.016625
1.983333	1	0.015500
2.000000	1	0.014625
2.016667	1	0.012625
2.033333	1	0.011625
2.050000	1	0.010625
2.066667	1	0.009500
2.083333	1	0.008000
2.100000	1	0.006375
2.116667	1	0.004750
2.133333	1	0.004000
2.150000	1	0.002875
2.166667	1	0.001125
2.183333	1	-0.000625
2.200000	1	-0.002375
2.216667	1	-0.003875
2.233333	1	-0.005250
2.250000	1	-0.006250
2.266667	1	-0.007500
2.283333	1	-0.009000
2.300000	1	-0.010875
2.316667	1	-0.013125
2.333333	1	-0.014875
2.350000	1	-0.017000
2.366667	1	-0.018750
2.383333	1	-0.020875
2.400000	1	-0.022875
2.416667	1	-0.024875
2.433333	1	-0.026625
2.450000	1	-0.028375
2.466667	1	-0.029625
2.483333	1	-0.031625
2.500000	1	-0.032875
2.516667	1	-0.033625
2.533333	1	-0.034500
2.550000	1	-0.036375
2.566667	1	-0.037875
2.583333	1	-0.039375
2.600000	1	-0.039625
2.616667	1	-0.040875
2.633333	1	-0.041125
2.650000	1	-0.041375
2.666667	1	-0.041125
2.683333	1	-0.041250
2.700000	1	-0.041250
2.716667	1	-0.040625
2.733333	1	-0.040250
2.750000	1	-0.038875
2.766667	1	-0.037500
2.783333	1	-0.036000
2.800000	1	-0.035000
2.816667	1	-0.033375
2.833333	1	-0.031625
2.850000	1	-0.029125
2.866667	1	-0.025875
2.883333	1	-0.023875
2.900000	1	-0.021500
2.916667	1	-0.018375
2.933333	1	-0.015750
2.950000	1	-0.013125
2.966667	1	-0.009875
2.983333	1	-0.006000
3.000000	1	-0.003000
3.016667	1	-0.000500
3.033333	1	0.002750
3.050000	1	0.005875
3.066667	1	0.008750
3.083333	1	0.012125
3.100000	1	0.015000
3.116667	1	0.018500
3.133333	1	0.021875
3.150000	1	0.024000
3.166667	1	0.028125
3.183333	1	0.031625
3.200000	1	0.034375
3.216667	1	0.037000
3.233333	1	0.039500
3.250000	1	0.042125
3.266667	1	0.045250
3.283333	1	0.048250
3.300000	1	0.050250
3.316667	1	0.052875
3.333333	1	0.054750
3.350000	1	0.057125
3.366667	1	0.059250
3.383333	1	0.061875
3.400000	1	0.063875
3.416667	1	0.065875
3.433333	1	0.067750
3.450000	1	0.069750
3.466667	1	0.071250
3.483333	1	0.073375
3.500000	1	0.075125
3.516667	1	0.076500
3.533333	1	0.077250
3.550000	1	0.077875
3.566667	1	0.079250
3.583333	1	0.080750
3.600000	1	0.081625
3.616667	1	0.082750
3.633333	1	0.082750
3.650000	1	0.082750
3.666667	1	0.083000
3.683333	1	0.082750
3.700000	1	0.082625
3.716667	1	0.081750
3.733333	1	0.080750
3.750000	1	0.079875
3.766667	1	0.079125
3.783333	1	0.078250
3.800000	1	0.077875
3.816667	1	0.076250
3.833333	1	0.074750
3.850000	1	0.073250
3.866667	1	0.071250
3.883333	1	0.070000
3.900000	1	0.068125
3.916667	1	0.067125
3.933333	1	0.065125
3.950000	1	0.062750
3.966667	1	0.061000
3.983333	1	0.058750
4.000000	1	0.056750
4.016667	1	0.054500
4.033333	1	0.052875
4.050000	1	0.050000
4.066667	1	0.047750
4.083333	1	0.046375
4.100000	1	0.044500
4.116667	1	0.043125
4.133333	1	0.041750
4.150000	1	0.040625
4.166667	1	0.039250
4.183333	1	0.038250
4.200000	1	0.037750
4.216667	1	0.037250
4.233333	1	0.036750
4.250000	1	0.037000
4.266667	1	0.036500
4.283333	1	0.036625
4.300000	1	0.036375
4.316667	1	0.036375
4.333333	1	0.036875
4.350000	1	0.037875
4.366667	1	0.038625
4.383333	1	0.040250
4.400000	1	0.041375
4.416667	1	0.042000
4.433333	1	0.043625
4.450000	1	0.045625
4.466667	1	0.046875
4.483333	1	0.048125
4.500000	1	0.050625
4.516667	1	0.052625
4.533333	1	0.054750
4.550000	1	0.056375
4.566667	1	0.059250
4.583333	1	0.061750
4.600000	1	0.064375
4.616667	1	0.066375
4.633333	1	0.068250
4.650000	1	0.070875
4.666667	1	0.073500
4.683333	1	0.076000
4.700000	1	0.078000
4.716667	1	0.080125
4.733333	1	0.082250
4.750000	1	0.084625
4.766667	1	0.086750
4.783333	1	0.089875
4.800000	1	0.092125
4.816667	1	0.094375
4.833333	1	0.097125
4.850000	1	0.101125
4.866667	1	0.104125
4.883333	1	0.107500
4.900000	1	0.110375
4.916667	1	0.113875
4.933333	1	0.117750
4.950000	1	0.121250
4.966667	1	0.125250
4.983333	1	0.130375
5.000000	1	0.134875
5.016667	1	0.140125
5.033333	1	0.144875
5.050000	1	0.150000
5.066667	1	0.155000
5.083333	1	0.160375
5.100000	1	0.166125
5.116667	1	0.171625
5.133333	1	0.176750
5.150000	1	0.182875
5.166667	1	0.188375
5.183333	1	0.194375
5.200000	1	0.200000
5.216667	1	0.205500
5.233333	1	0.210875
5.250000	1	0.216250
5.266667	1	0.221750
5.283333	1	0.227125
5.300000	1	0.231375
5.316667	1	0.235750
5.333333	1	0.240625
5.350000	1	0.244500
5.366667	1	0.249125
5.383333	1	0.252625
5.400000	1	0.256125
5.416667	1	0.259000
5.433333	1	0.261125
5.450000	1	0.263000
5.466667	1	0.264875
5.483333	1	0.266375
5.500000	1	0.267000
5.516667	1	0.267375
5.533333	1	0.268125
5.550000	1	0.267875
5.566667	1	0.267125
5.583333	1	0.266375
5.600000	1	0.265750
5.616667	1	0.264500
5.633333	1	0.262750
5.650000	1	0.261125
5.666667	1	0.258875
5.683333	1	0.256625
5.700000	1	0.254000
5.716667	1	0.251625
5.733333	1	0.249125
5.750000	1	0.245875
5.766667	1	0.242500
5.783333	1	0.238625
5.800000	1	0.234875
5.816667	1	0.230500
5.833333	1	0.226250
5.850000	1	0.221750
5.866667	1	0.217750
5.883333	1	0.213625
5.900000	1	0.209750
5.916667	1	0.204875
5.933333	1	0.199750
5.950000	1	0.194125
5.966667	1	0.189250
5.983333	1	0.185000
6.000000	1	0.180250
6.016667	1	0.175000
6.033333	1	0.170375
6.050000	1	0.165000
6.066667	1	0.159375
6.083333	1	0.154625
6.100000	1	0.149875
6.116667	1	0.144750
6.133333	1	0.140625
6.150000	1	0.136375
6.166667	1	0.131000
6.183333	1	0.126625
6.200000	1	0.122375
6.216667	1	0.118000
6.233333	1	0.114500
6.250000	1	0.110875
6.266667	1	0.106250
6.283333	1	0.102625
6.300000	1	0.099500
6.316667	1	0.096625
6.333333	1	0.092875
6.350000	1	0.090000
6.366667	1	0.087250
6.383333	1	0.085375
6.400000	1	0.082875
6.416667	1	0.080500
6.433333	1	0.078250
6.450000	1	0.075375
6.466667	1	0.073375
6.483333	1	0.071625
6.500000	1	0.070125
6.516667	1	0.068625
6.533333	1	0.067125
6.550000	1	0.066500
6.566667	1	0.065375
6.583333	1	0.064000
6.600000	1	0.063000
6.616667	1	0.061375
6.633333	1	0.060750
6.650000	1	0.059500
6.666667	1	0.058625
6.683333	1	0.057875
6.700000	1	0.056750
6.716667	1	0.056125
6.733333	1	0.055875
6.750000	1	0.055500
6.766667	1	0.054875
6.783333	1	0.054000
6.800000	1	0.053875
6.816667	1	0.053625
6.833333	1	0.053500
6.850000	1	0.052375
6.866667	1	0.052125
6.883333	1	0.052250
6.900000	1	0.052250
6.916667	1	0.052500
6.933333	1	0.052875
6.950000	1	0.052500
6.966667	1	0.053000
6.983333	1	0.053750
7.000000	1	0.054500
7.016667	1	0.055375
7.033333	1	0.056500
7.050000	1	0.057875
7.066667	1	0.059500
7.083333	1	0.061500
7.100000	1	0.063375
7.116667	1	0.065500
7.133333	1	0.067875
7.150000	1	0.071000
7.166667	1	0.074125
7.183333	1	0.077250
7.200000	1	0.079750
7.216667	1	0.083250
7.233333	1	0.086000
7.250000	1	0.089750
7.266667	1	0.093625
7.283333	1	0.096875
7.300000	1	0.099500
7.316667	1	0.102500
7.333333	1	0.106000
7.350000	1	0.108250
7.366667	1	0.111250
7.383333	1	0.113125
7.400000	1	0.114625
7.416667	1	0.116625
7.433333	1	0.117750
7.450000	1	0.119375
7.466667	1	0.119500
7.483333	1	0.119625
7.500000	1	0.119000
7.516667	1	0.117875
7.533333	1	0.117125
7.550000	1	0.115875
7.566667	1	0.113500
7.583333	1	0.111125
7.600000	1	0.108625
7.616667	1	0.105750
7.633333	1	0.102875
7.650000	1	0.099625
7.666667	1	0.096000
7.683333	1	0.092250
7.700000	1	0.088625
7.716667	1	0.085000
7.733333	1	0.081125
7.750000	1	0.077250
7.766667	1	0.073125
7.783333	1	0.068750
7.800000	1	0.065000
7.816667	1	0.060625
7.833333	1	0.057000
7.850000	1	0.052625
7.866667	1	0.048750
7.883333	1	0.045000
7.900000	1	0.041625
7.916667	1	0.038375
7.933333	1	0.035000
7.950000	1	0.032125
7.966667	1	0.029750
7.983333	1	0.027500
8.000000	1	0.024375
8.016667	1	0.022500
8.033333	1	0.020625
8.050000	1	0.018750
8.066667	1	0.017250
8.083333	1	0.015875
8.100000	1	0.014500
8.116667	1	0.013500
8.133333	1	0.012875
8.150000	1	0.012125
8.166667	1	0.012375
8.183333	1	0.012750
8.200000	1	0.012375
8.216667	1	0.012500
8.233333	1	0.012750
8.250000	1	0.012875
8.266667	1	0.013125
8.283333	1	0.013750
8.300000	1	0.012750
8.316667	1	0.012750
8.333333	1	0.012750
8.350000	1	0.012750
8.366667	1	0.012500
8.383333	1	0.013250
8.400000	1	0.013625
8.416667	1	0.013375
8.433333	1	0.013000
8.450000	1	0.012750
8.466667	1	0.012750
8.483333	1	0.012500
8.500000	1	0.011625
8.516667	1	0.010750
8.533333	1	0.008750
8.550000	1	0.007625
8.566667	1	0.006375
8.583333	1	0.005250
8.600000	1	0.002750
8.616667	1	0.000500
8.633333	1	-0.001625
8.650000	1	-0.003875
8.666667	1	-0.007125
8.683333	1	-0.010000
8.700000	1	-0.012875
8.716667	1	-0.015500
8.733333	1	-0.018000
8.750000	1	-0.021250
8.766667	1	-0.024000
8.783333	1	-0.027500
8.800000	1	-0.030500
8.816667	1	-0.034375
8.833333	1	-0.037750
8.850000	1	-0.040625
8.866667	1	-0.043375
8.883333	1	-0.046250
8.900000	1	-0.048875
8.916667	1	-0.051250
8.933333	1	-0.053375
8.950000	1	-0.055625
8.966667	1	-0.057750
8.983333	1	-0.059250
9.000000	1	-0.061250
9.016667	1	-0.062625
9.033333	1	-0.063875
9.050000	1	-0.064500
9.066667	1	-0.064875
9.083333	1	-0.064750
9.100000	1	-0.064500
9.116667	1	-0.063375
9.133333	1	-0.062625
9.150000	1	-0.061625
9.166667	1	-0.060250
9.183333	1	-0.058250
9.200000	1	-0.056000
9.216667	1	-0.054000
9.233333	1	-0.052750
9.250000	1	-0.050250
9.266667	1	-0.047875
9.283333	1	-0.045125
9.300000	1	-0.042000
9.316667	1	-0.038875
9.333333	1	-0.035250
9.350000	1	-0.031500
9.366667	1	-0.028625
9.383333	1	-0.026125
9.400000	1	-0.023375
9.416667	1	-0.020250
9.433333	1	-0.018000
9.450000	1	-0.014750
9.466667	1	-0.012625
9.483333	1	-0.010250
9.500000	1	-0.007875
9.516667	1	-0.005250
9.533333	1	-0.002750
9.550000	1	-0.001125
9.566667	1	0.000250
9.583333	1	0.001875
9.600000	1	0.003250
9.616667	1	0.004625
9.633333	1	0.005500
9.650000	1	0.007000
9.666667	1	0.008375
9.683333	1	0.009500
9.700000	1	0.010500
9.716667	1	0.011500
9.733333	1	0.011625
9.750000	1	0.012500
9.766667	1	0.012875
9.783333	1	0.013000
9.800000	1	0.012625
9.816667	1	0.012500
9.833333	1	0.011750
9.850000	1	0.011750
9.866667	1	0.010750
9.883333	1	0.010000
9.900000	1	0.008875
9.916667	1	0.008000
9.933333	1	0.007625
9.950000	1	0.007125
9.966667	1	0.006000
9.983333	1	0.005625
10.000000	1	0.005000
10.016667	1	0.004625
10.033333	1	0.004375
10.050000	1	0.004375
10.066667	1	0.004875
10.083333	1	0.006000
10.100000	1	0.007500
10.116667	1	0.009625
10.133333	1	0.012125
10.150000	1	0.016000
10.166667	1	0.020875
10.183333	1	0.026875
10.200000	1	0.034625
10.216667	1	0.043375
10.233333	1	0.053250
10.250000	1	0.064375
10.266667	1	0.077500
10.283333	1	0.092500
10.300000	1	0.110375
10.316667	1	0.129375
10.333333	1	0.149375
10.350000	1	0.171500
10.366667	1	0.192125
10.383333	1	0.209500
10.400000	1	0.220125
10.416667	1	0.219125
10.433333	1	0.202000
10.450000	1	0.165125
10.466667	1	0.107375
10.483333	1	0.033750
10.500000	1	-0.040875
10.516667	1	-0.088875
10.533333	1	-0.067625
10.550000	1	0.082750
10.566667	1	0.434500
10.583333	1	1.067500
10.600000	1	2.059875
10.616667	1	3.484875
10.633333	1	5.401000
10.650000	1	7.848625
10.666667	1	10.858750
10.683333	1	14.446125
10.700000	1	18.615125
10.716667	1	23.355625
10.733333	1	28.645875
10.750000	1	34.449500
10.766667	1	40.706625
10.783333	1	47.332875
10.800000	1	54.205500
10.816667	1	61.127750
10.833333	1	67.795000
10.850000	1	73.761000
10.866667	1	78.435375
10.883333	1	81.122375
10.900000	1	81.188000
10.916667	1	78.298125
10.933333	1	72.616625
10.950000	1	64.803750
10.966667	1	55.824500
10.983333	1	46.655875
11.000000	1	38.051750
11.016667	1	30.464750
11.033333	1	24.076250
11.050000	1	18.879375
11.066667	1	14.755250
11.083333	1	11.545500
11.100000	1	9.085125
11.116667	1	7.219125
11.133333	1	5.813750
11.150000	1	4.756875
11.166667	1	3.962000
11.183333	1	3.361500
11.200000	1	2.904000
11.216667	1	2.551875
11.233333	1	2.278500
11.250000	1	2.062750
11.266667	1	1.888625
11.283333	1	1.746000
11.300000	1	1.628625
11.316667	1	1.529875
11.333333	1	1.445875
11.350000	1	1.375000
11.366667	1	1.313250
11.383333	1	1.260125
11.400000	1	1.214250
11.416667	1	1.175250
11.433333	1	1.141500
11.450000	1	1.112250
11.466667	1	1.087500
11.483333	1	1.065625
11.500000	1	1.047750
11.516667	1	1.032125
11.533333	1	1.018500
11.550000	1	1.006625
11.566667	1	0.996875
11.583333	1	0.989500
11.600000	1	0.984250
11.616667	1	0.980250
11.633333	1	0.977750
11.650000	1	0.975625
11.666667	1	0.975750
11.683333	1	0.977250
11.700000	1	0.980250
11.716667	1	0.984750
11.733333	1	0.990750
11.750000	1	0.997000
11.766667	1	1.004375
11.783333	1	1.012375
11.800000	1	1.021750
11.816667	1	1.031125
11.833333	1	1.040250
11.850000	1	1.049875
11.866667	1	1.058750
11.883333	1	1.067500
11.900000	1	1.074500
11.916667	1	1.080500
11.933333	1	1.085375
11.950000	1	1.089500
11.966667	1	1.092500
11.983333	1	1.095000
12.000000	1	1.097375
12.016667	1	1.099375
12.033333	1	1.100250
12.050000	1	1.101875
12.066667	1	1.103625
12.083333	1	1.105750
12.100000	1	1.108625
12.116667	1	1.111625
12.133333	1	1.114375
12.150000	1	1.117250
12.166667	1	1.121000
12.183333	1	1.125500
12.200000	1	1.131000
12.216667	1	1.137375
12.233333	1	1.144375
12.250000	1	1.154125
12.266667	1	1.165375
12.283333	1	1.180000
12.300000	1	1.198625
12.316667	1	1.223000
12.333333	1	1.254750
12.350000	1	1.296250
12.366667	1	1.351000
12.383333	1	1.421375
12.400000	1	1.512250
12.416667	1	1.628500
12.433333	1	1.776250
12.450000	1	1.960000
12.466667	1	2.186875
12.483333	1	2.462000
12.500000	1	2.789875
12.516667	1	3.174375
12.533333	1	3.618625
12.550000	1	4.124625
12.566667	1	4.688625
12.583333	1	5.306250
12.600000	1	5.969125
12.616667	1	6.666250
12.633333	1	7.383500
12.650000	1	8.107500
12.666667	1	8.823875
12.683333	1	9.518500
12.700000	1	10.181000
12.716667	1	10.805125
12.733333	1	11.387000
12.750000	1	11.929750
12.766667	1	12.439625
12.783333	1	12.926500
12.800000	1	13.400875
12.816667	1	13.872750
12.833333	1	14.351625
12.850000	1	14.849125
12.866667	1	15.370500
12.883333	1	15.921375
12.900000	1	16.505500
12.916667	1	17.123125
12.933333	1	17.773875
12.950000	1	18.455875
12.966667	1	19.168750
12.983333	1	19.910250
13.000000	1	20.679750
13.016667	1	21.473250
13.033333	1	22.290750
13.050000	1	23.131750
13.066667	1	23.995250
13.083333	1	24.881500
13.100000	1	25.788250
13.116667	1	26.715375
13.133333	1	27.662000
13.150000	1	28.627500
13.166667	1	29.611000
13.183333	1	30.614375
13.200000	1	31.635625
13.216667	1	32.674625
13.233333	1	33.732750
13.250000	1	34.811250
13.266667	1	35.910375
13.283333	1	37.030625
13.300000	1	38.172625
13.316667	1	39.336375
13.333333	1	40.522375
13.350000	1	41.730875
13.366667	1	42.962375
13.383333	1	44.217000
13.400000	1	45.494625
13.416667	1	46.795250
13.433333	1	48.121875
13.450000	1	49.475250
13.466667	1	50.857875
13.483333	1	52.268750
13.500000	1	53.710000
13.516667	1	55.181250
13.533333	1	56.682000
13.550000	1	58.211125
13.566667	1	59.771625
13.583333	1	61.362625
13.600000	1	62.984125
13.616667	1	64.637375
13.633333	1	66.326375
13.650000	1	68.050750
13.666667	1	69.813125
13.683333	1	71.614375
13.700000	1	73.454125
13.716667	1	75.330625
13.733333	1	77.232750
13.750000	1	79.115625
13.766667	1	80.865750
13.783333	1	82.273250
13.800000	1	83.047250
13.816667	1	82.862625
13.833333	1	81.406500
13.850000	1	78.406375
13.866667	1	73.677125
13.883333	1	67.229500
13.900000	1	59.386250
13.916667	1	50.791000
13.933333	1	42.221500
13.950000	1	34.340625
13.966667	1	27.546625
13.983333	1	21.958750
14.000000	1	17.507250
14.016667	1	14.027875
14.033333	1	11.346875
14.050000	1	9.307625
14.066667	1	7.775875
14.083333	1	6.637000
14.100000	1	5.796250
14.116667	1	5.175375
14.133333	1	4.714500
14.150000	1	4.368000
14.166667	1	4.103000
14.183333	1	3.895625
14.200000	1	3.729625
14.216667	1	3.593875
14.233333	1	3.480500
14.250000	1	3.382875
14.266667	1	3.298500
14.283333	1	3.223125
14.300000	1	3.156000
14.316667	1	3.095125
14.333333	1	3.040500
14.350000	1	2.992000
14.366667	1	2.948125
14.383333	1	2.911125
14.400000	1	2.880250
14.416667	1	2.857750
14.433333	1	2.845125
14.450000	1	2.844875
14.466667	1	2.861875
14.483333	1	2.901750
14.500000	1	2.973500
14.516667	1	3.088250
14.533333	1	3.263000
14.550000	1	3.519875
14.566667	1	3.889750
14.583333	1	4.410375
14.600000	1	5.129500
14.616667	1	6.107750
14.633333	1	7.414625
14.650000	1	9.126875
14.666667	1	11.324500
14.683333	1	14.080750
14.700000	1	17.454750
14.716667	1	21.478500
14.733333	1	26.154250
14.750000	1	31.440625
14.766667	1	37.242375
14.783333	1	43.402625
14.800000	1	49.720500
14.816667	1	55.956500
14.833333	1	61.841125
14.850000	1	67.092000
14.866667	1	71.439875
14.883333	1	74.653250
14.900000	1	76.566375
14.916667	1	77.087125
14.933333	1	76.212750
14.950000	1	74.022500
14.966667	1	70.671125
14.983333	1	66.376375
15.000000	1	61.379000
15.016667	1	55.929125
15.033333	1	50.267750
15.050000	1	44.615250
15.066667	1	39.152625
15.083333	1	34.019125
15.100000	1	29.313250
15.116667	1	25.087375
15.133333	1	21.360250
15.150000	1	18.121750
15.166667	1	15.345500
15.183333	1	12.993375
15.200000	1	11.018250
15.216667	1	9.372375
15.233333	1	8.008375
15.250000	1	6.885625
15.266667	1	5.966125
15.283333	1	5.216875
15.300000	1	4.610125
15.316667	1	4.120875
15.333333	1	3.728875
15.350000	1	3.417500
15.366667	1	3.172875
15.383333	1	2.982750
15.400000	1	2.837375
15.416667	1	2.728375
15.433333	1	2.649375
15.450000	1	2.592375
15.466667	1	2.553375
15.483333	1	2.525500
15.500000	1	2.504875
15.516667	1	2.487500
15.533333	1	2.469750
15.550000	1	2.450000
15.566667	1	2.426500
15.583333	1	2.397375
15.600000	1	2.364125
15.616667	1	2.326750
15.633333	1	2.286375
15.650000	1	2.243375
15.666667	1	2.200875
15.683333	1	2.158125
15.700000	1	2.116875
15.716667	1	2.077625
15.733333	1	2.040875
15.750000	1	2.005000
15.766667	1	1.970250
15.783333	1	1.936125
15.800000	1	1.902625
15.816667	1	1.869500
15.833333	1	1.836125
15.850000	1	1.802500
15.866667	1	1.769625
15.883333	1	1.736875
15.900000	1	1.704750
15.916667	1	1.675125
15.933333	1	1.648000
15.950000	1	1.623750
15.966667	1	1.603000
15.983333	1	1.586000
16.000000	1	1.571625
16.016667	1	1.560875
16.033333	1	1.553375
16.050000	1	1.547875
16.066667	1	1.544750
16.083333	1	1.543125
16.100000	1	1.541625
16.116667	1	1.539750
16.133333	1	1.538000
16.150000	1	1.534875
16.166667	1	1.530750
16.183333	1	1.525250
16.200000	1	1.518625
16.216667	1	1.509875
16.233333	1	1.499375
16.250000	1	1.487625
16.266667	1	1.474250
16.283333	1	1.460375
16.300000	1	1.445875
16.316667	1	1.429625
16.333333	1	1.413500
16.350000	1	1.398125
16.366667	1	1.383250
16.383333	1	1.368500
16.400000	1	1.355125
16.416667	1	1.342375
16.433333	1	1.331750
16.450000	1	1.322625
16.466667	1	1.316125
16.483333	1	1.312125
16.500000	1	1.310750
16.516667	1	1.310750
16.533333	1	1.314250
16.550000	1	1.318500
16.566667	1	1.324000
16.583333	1	1.330375
16.600000	1	1.336750
16.616667	1	1.342500
16.633333	1	1.347375
16.650000	1	1.350625
16.666667	1	1.353125
16.683333	1	1.353875
16.700000	1	1.352875
16.716667	1	1.351000
16.733333	1	1.348875
16.750000	1	1.346375
16.766667	1	1.343875
16.783333	1	1.342250
16.800000	1	1.340500
16.816667	1	1.340625
16.833333	1	1.340500
16.850000	1	1.341375
16.866667	1	1.343500
16.883333	1	1.345500
16.900000	1	1.346500
16.916667	1	1.347000
16.933333	1	1.347625
16.950000	1	1.346125
16.966667	1	1.343625
16.983333	1	1.340375
17.000000	1	1.335500
17.016667	1	1.329000
17.033333	1	1.322000
17.050000	1	1.313875
17.066667	1	1.305500
17.083333	1	1.297000
17.100000	1	1.288875
17.116667	1	1.281625
17.133333	1	1.274625
17.150000	1	1.267500
17.166667	1	1.262125
17.183333	1	1.257375
17.200000	1	1.253750
17.216667	1	1.251000
17.233333	1	1.249250
17.250000	1	1.248875
17.266667	1	1.248375
17.283333	1	1.248500
17.300000	1	1.249500
17.316667	1	1.251375
17.333333	1	1.253375
17.350000	1	1.255125
17.366667	1	1.257750
17.383333	1	1.260250
17.400000	1	1.261875
17.416667	1	1.264000
17.433333	1	1.265500
17.450000	1	1.266500
17.466667	1	1.266625
17.483333	1	1.265375
17.500000	1	1.262750
17.516667	1	1.258750
17.533333	1	1.252625
17.550000	1	1.246000
17.566667	1	1.237000
17.583333	1	1.226625
17.600000	1	1.214875
17.616667	1	1.201750
17.633333	1	1.187500
17.650000	1	1.173000
17.666667	1	1.157750
17.683333	1	1.141750
17.700000	1	1.126125
17.716667	1	1.110125
17.733333	1	1.094750
17.750000	1	1.079125
17.766667	1	1.063750
17.783333	1	1.049750
17.800000	1	1.035625
17.816667	1	1.022250
17.833333	1	1.009875
17.850000	1	0.998125
17.866667	1	0.988000
17.883333	1	0.978250
17.900000	1	0.969125
17.916667	1	0.960500
17.933333	1	0.952125
17.950000	1	0.944125
17.966667	1	0.936375
17.983333	1	0.929875
18.000000	1	0.923000
18.016667	1	0.915500
18.033333	1	0.907750
18.050000	1	0.900250
18.066667	1	0.892750
18.083333	1	0.884875
18.100000	1	0.876625
18.116667	1	0.869375
18.133333	1	0.862625
18.150000	1	0.856125
18.166667	1	0.849250
18.183333	1	0.844375
18.200000	1	0.839625
18.216667	1	0.835625
18.233333	1	0.832375
18.250000	1	0.829750
18.266667	1	0.828000
18.283333	1	0.827625
18.300000	1	0.827375
18.316667	1	0.827250
18.333333	1	0.828000
18.350000	1	0.829625
18.366667	1	0.832250
18.383333	1	0.834250
18.400000	1	0.836500
18.416667	1	0.840125
18.433333	1	0.844500
18.450000	1	0.850625
18.466667	1	0.857750
18.483333	1	0.866125
18.500000	1	0.875875
18.516667	1	0.887625
18.533333	1	0.900500
18.550000	1	0.916125
18.566667	1	0.933875
18.583333	1	0.953750
18.600000	1	0.975375
18.616667	1	0.999250
18.633333	1	1.025000
18.650000	1	1.053000
18.666667	1	1.083125
18.683333	1	1.113875
18.700000	1	1.147250
18.716667	1	1.182000
18.733333	1	1.216875
18.750000	1	1.254500
18.766667	1	1.292500
18.783333	1	1.331250
18.800000	1	1.369375
18.816667	1	1.406875
18.833333	1	1.442625
18.850000	1	1.476750
18.866667	1	1.507125
18.883333	1	1.534250
18.900000	1	1.556375
18.916667	1	1.573250
18.933333	1	1.584000
18.950000	1	1.587625
18.966667	1	1.585000
18.983333	1	1.574875
19.000000	1	1.557500
19.016667	1	1.533500
19.033333	1	1.502250
19.050000	1	1.464875
19.066667	1	1.423750
19.083333	1	1.378500
19.100000	1	1.330375
19.116667	1	1.280375
19.133333	1	1.231000
19.150000	1	1.182250
19.166667	1	1.136875
19.183333	1	1.094875
19.200000	1	1.058875
19.216667	1	1.029125
19.233333	1	1.006375
19.250000	1	0.991625
19.266667	1	0.986875
19.283333	1	0.993125
19.300000	1	1.011375
19.316667	1	1.041125
19.333333	1	1.083250
19.350000	1	1.138750
19.366667	1	1.206250
19.383333	1	1.286250
19.400000	1	1.377625
19.416667	1	1.478125
19.433333	1	1.586875
19.450000	1	1.700250
19.466667	1	1.816125
19.483333	1	1.931125
19.500000	1	2.040000
19.516667	1	2.140625
19.533333	1	2.230625
19.550000	1	2.305000
19.566667	1	2.363000
19.583333	1	2.402375
19.600000	1	2.422000
19.616667	1	2.421500
19.633333	1	2.401875
19.650000	1	2.363375
19.666667	1	2.307375
19.683333	1	2.237875
19.700000	1	2.156250
19.716667	1	2.065750
19.733333	1	1.969125
19.750000	1	1.868000
19.766667	1	1.766375
19.783333	1	1.665000
19.800000	1	1.564500
19.816667	1	1.468000
19.833333	1	1.376000
19.850000	1	1.289375
19.866667	1	1.209375
19.883333	1	1.134750
19.900000	1	1.066750
19.916667	1	1.003875
19.933333	1	0.947250
19.950000	1	0.896500
19.966667	1	0.850500
19.983333	1	0.810500
20.000000	1	0.775375
20.016667	1	0.745500
20.033333	1	0.719250
20.050000	1	0.698250
20.066667	1	0.681750
20.083333	1	0.669125
20.100000	1	0.660625
20.116667	1	0.656625
20.133333	1	0.656000
20.150000	1	0.659000
20.166667	1	0.664875
20.183333	1	0.673750
20.200000	1	0.684250
20.216667	1	0.697250
20.233333	1	0.711000
20.250000	1	0.725125
20.266667	1	0.739625
20.283333	1	0.753125
20.300000	1	0.764625
20.316667	1	0.773625
20.333333	1	0.780500
20.350000	1	0.783625
20.366667	1	0.783375
20.383333	1	0.779625
20.400000	1	0.772500
20.416667	1	0.762500
20.433333	1	0.750250
20.450000	1	0.736000
20.466667	1	0.720500
20.483333	1	0.705125
20.500000	1	0.690625
20.516667	1	0.678250
20.533333	1	0.667625
20.550000	1	0.661250
20.566667	1	0.659375
20.583333	1	0.663625
20.600000	1	0.673500
20.616667	1	0.691375
20.633333	1	0.716750
20.650000	1	0.750625
20.666667	1	0.793000
20.683333	1	0.844500
20.700000	1	0.904625
20.716667	1	0.972375
20.733333	1	1.046375
20.750000	1	1.126125
20.766667	1	1.209125
20.783333	1	1.293375
20.800000	1	1.376250
20.816667	1	1.456250
20.833333	1	1.529875
20.850000	1	1.594875
20.866667	1	1.647750
20.883333	1	1.688625
20.900000	1	1.715375
20.916667	1	1.727125
20.933333	1	1.723875
20.950000	1	1.706375
20.966667	1	1.673875
20.983333	1	1.629375
21.000000	1	1.574625
21.016667	1	1.510250
21.033333	1	1.439125
21.050000	1	1.364375
21.066667	1	1.286625
21.083333	1	1.209500
21.100000	1	1.134125
21.116667	1	1.060875
21.133333	1	0.991750
21.150000	1	0.927000
21.166667	1	0.866750
21.183333	1	0.811875
21.200000	1	0.761875
21.216667	1	0.717000
21.233333	1	0.677250
21.250000	1	0.641500
21.266667	1	0.610375
21.283333	1	0.583750
21.300000	1	0.560125
21.316667	1	0.539250
21.333333	1	0.521750
21.350000	1	0.505875
21.366667	1	0.491875
21.383333	1	0.480625
21.400000	1	0.470250
21.416667	1	0.462000
21.433333	1	0.454500
21.450000	1	0.447125
21.466667	1	0.440500
21.483333	1	0.434875
21.500000	1	0.429750
21.516667	1	0.425125
21.533333	1	0.421375
21.550000	1	0.417750
21.566667	1	0.414875
21.583333	1	0.412875
21.600000	1	0.411000
21.616667	1	0.409875
21.633333	1	0.409125
21.650000	1	0.409000
21.666667	1	0.410000
21.683333	1	0.412750
21.700000	1	0.416125
21.716667	1	0.419250
21.733333	1	0.424750
21.750000	1	0.430125
21.766667	1	0.437000
21.783333	1	0.444000
21.800000	1	0.451500
21.816667	1	0.460250
21.833333	1	0.469125
21.850000	1	0.478750
21.866667	1	0.488750
21.883333	1	0.499000
21.900000	1	0.509375
21.916667	1	0.520000
21.933333	1	0.531000
21.950000	1	0.541500
21.966667	1	0.551125
21.983333	1	0.561125
22.000000	1	0.571500
22.016667	1	0.581500
22.033333	1	0.590375
22.050000	1	0.599125
22.066667	1	0.606500
22.083333	1	0.613250
22.100000	1	0.620625
22.116667	1	0.625625
22.133333	1	0.631375
22.150000	1	0.634875
22.166667	1	0.637875
22.183333	1	0.639750
22.200000	1	0.640375
22.216667	1	0.639500
22.233333	1	0.637750
22.250000	1	0.633875
22.266667	1	0.629250
22.283333	1	0.623125
22.300000	1	0.616000
22.316667	1	0.607500
22.333333	1	0.598250
22.350000	1	0.588250
22.366667	1	0.577250
22.383333	1	0.565875
22.400000	1	0.553625
22.416667	1	0.540750
22.433333	1	0.529000
22.450000	1	0.516875
22.466667	1	0.504875
22.483333	1	0.493250
22.500000	1	0.482500
22.516667	1	0.471500
22.533333	1	0.461375
22.550000	1	0.451125
22.566667	1	0.441125
22.583333	1	0.431750
22.600000	1	0.422500
22.616667	1	0.414000
22.633333	1	0.405625
22.650000	1	0.398250
22.666667	1	0.390125
22.683333	1	0.382875
22.700000	1	0.375750
22.716667	1	0.368625
22.733333	1	0.362000
22.750000	1	0.355750
22.766667	1	0.349625
22.783333	1	0.343750
22.800000	1	0.337875
22.816667	1	0.332375
22.833333	1	0.326500
22.850000	1	0.321875
22.866667	1	0.317000
22.883333	1	0.312375
22.900000	1	0.307625
22.916667	1	0.303875
22.933333	1	0.301125
22.950000	1	0.298125
22.966667	1	0.296125
22.983333	1	0.294750
23.000000	1	0.293625
23.016667	1	0.292250
23.033333	1	0.291875
23.050000	1	0.292125
23.066667	1	0.292250
23.083333	1	0.293375
23.100000	1	0.295125
23.116667	1	0.295875
23.133333	1	0.298125
23.150000	1	0.299750
23.166667	1	0.302250
23.183333	1	0.304875
23.200000	1	0.308000
23.216667	1	0.311125
23.233333	1	0.314125
23.250000	1	0.317375
23.266667	1	0.321625
23.283333	1	0.325500
23.300000	1	0.331250
23.316667	1	0.337625
23.333333	1	0.346125
23.350000	1	0.356375
23.366667	1	0.368875
23.383333	1	0.385375
23.400000	1	0.406125
23.416667	1	0.431375
23.433333	1	0.462375
23.450000	1	0.500000
23.466667	1	0.547000
23.483333	1	0.603000
23.500000	1	0.670250
23.516667	1	0.750500
23.533333	1	0.844500
23.550000	1	0.955125
23.566667	1	1.082125
23.583333	1	1.226875
23.600000	1	1.388875
23.616667	1	1.568750
23.633333	1	1.766625
23.650000	1	1.980375
23.666667	1	2.208625
23.683333	1	2.449750
23.700000	1	2.700000
23.716667	1	2.956250
23.733333	1	3.213000
23.750000	1	3.466000
23.766667	1	3.710250
23.783333	1	3.939375
23.800000	1	4.147750
23.816667	1	4.331750
23.833333	1	4.487875
23.850000	1	4.610125
23.866667	1	4.697250
23.883333	1	4.747875
23.900000	1	4.760375
23.916667	1	4.736000
23.933333	1	4.675625
23.950000	1	4.580500
23.966667	1	4.455750
23.983333	1	4.302750
24.000000	1	4.128625
24.016667	1	3.936375
24.033333	1	3.730375
24.050000	1	3.516000
24.066667	1	3.297500
24.083333	1	3.077875
24.100000	1	2.860000
24.116667	1	2.647750
24.133333	1	2.443250
24.150000	1	2.248000
24.166667	1	2.063000
24.183333	1	1.890250
24.200000	1	1.730000
24.216667	1	1.582500
24.233333	1	1.446875
24.250000	1	1.323625
24.266667	1	1.212375
24.283333	1	1.112125
24.300000	1	1.022000
24.316667	1	0.941625
24.333333	1	0.870625
24.350000	1	0.808000
24.366667	1	0.752250
24.383333	1	0.704750
24.400000	1	0.663125
24.416667	1	0.627250
24.433333	1	0.597125
24.450000	1	0.571250
24.466667	1	0.549625
24.483333	1	0.531375
24.500000	1	0.516125
24.516667	1	0.503625
24.533333	1	0.492875
24.550000	1	0.484125
24.566667	1	0.477125
24.583333	1	0.469875
24.600000	1	0.463750
24.616667	1	0.457750
24.633333	1	0.452000
24.650000	1	0.446750
24.666667	1	0.441375
24.683333	1	0.435750
24.700000	1	0.429750
24.716667	1	0.423625
24.733333	1	0.417000
24.750000	1	0.410625
24.766667	1	0.404250
24.783333	1	0.398250
24.800000	1	0.391500
24.816667	1	0.384500
24.833333	1	0.377625
24.850000	1	0.371750
24.866667	1	0.366125
24.883333	1	0.360375
24.900000	1	0.355000
24.916667	1	0.349375
24.933333	1	0.343875
24.950000	1	0.339750
24.966667	1	0.335875
24.983333	1	0.331750
25.000000	1	0.328750
25.016667	1	0.325750
25.033333	1	0.322500
25.050000	1	0.319125
25.066667	1	0.316875
25.083333	1	0.314250
25.100000	1	0.311750
25.116667	1	0.309375
25.133333	1	0.306500
25.150000	1	0.303125
25.166667	1	0.300250
25.183333	1	0.296875
25.200000	1	0.294625
25.216667	1	0.291250
25.233333	1	0.288250
25.250000	1	0.284500
25.266667	1	0.281125
25.283333	1	0.278125
25.300000	1	0.275250
25.316667	1	0.271750
25.333333	1	0.268250
25.350000	1	0.265250
25.366667	1	0.262375
25.383333	1	0.259750
25.400000	1	0.257500
25.416667	1	0.254875
25.433333	1	0.253500
25.450000	1	0.252250
25.466667	1	0.251000
25.483333	1	0.250250
25.500000	1	0.250125
25.516667	1	0.250875
25.533333	1	0.251000
25.550000	1	0.251375
25.566667	1	0.252875
25.583333	1	0.254625
25.600000	1	0.256125
25.616667	1	0.258375
25.633333	1	0.259750
25.650000	1	0.260375
25.666667	1	0.262750
25.683333	1	0.265250
25.700000	1	0.267125
25.716667	1	0.269375
25.733333	1	0.271750
25.750000	1	0.274250
25.766667	1	0.276500
25.783333	1	0.278375
25.800000	1	0.280000
25.816667	1	0.281375
25.833333	1	0.283750
25.850000	1	0.285250
25.866667	1	0.286750
25.883333	1	0.288875
25.900000	1	0.291125
25.916667	1	0.293500
25.933333	1	0.296750
25.950000	1	0.299000
25.966667	1	0.301250
25.983333	1	0.304250
26.000000	1	0.307125
26.016667	1	0.310250
26.033333	1	0.313000
26.050000	1	0.316250
26.066667	1	0.320375
26.083333	1	0.324250
26.100000	1	0.328500
26.116667	1	0.332375
26.133333	1	0.336375
26.150000	1	0.340375
26.166667	1	0.344750
26.183333	1	0.348375
26.200000	1	0.351625
26.216667	1	0.354125
26.233333	1	0.357500
26.250000	1	0.360625
26.266667	1	0.363125
26.283333	1	0.365000
26.300000	1	0.366625
26.316667	1	0.367000
26.333333	1	0.367125
26.350000	1	0.366375
26.366667	1	0.364625
26.383333	1	0.363000
26.400000	1	0.361625
26.416667	1	0.359125
26.433333	1	0.356500
26.450000	1	0.353000
26.466667	1	0.349125
26.483333	1	0.344500
26.500000	1	0.339625
26.516667	1	0.333750
26.533333	1	0.328375
26.550000	1	0.322875
26.566667	1	0.317500
26.583333	1	0.311875
26.600000	1	0.305125
26.616667	1	0.299000
26.633333	1	0.293250
26.650000	1	0.287625
26.666667	1	0.282250
26.683333	1	0.277125
26.700000	1	0.272000
26.716667	1	0.268125
26.733333	1	0.263375
26.750000	1	0.258750
26.766667	1	0.254375
26.783333	1	0.251000
26.800000	1	0.247125
26.816667	1	0.243625
26.833333	1	0.239875
26.850000	1	0.237500
26.866667	1	0.235250
26.883333	1	0.233125
26.900000	1	0.230875
26.916667	1	0.229750
26.933333	1	0.228875
26.950000	1	0.227375
26.966667	1	0.226500
26.983333	1	0.226000
27.000000	1	0.225625
27.016667	1	0.225750
27.033333	1	0.226750
27.050000	1	0.227875
27.066667	1	0.228750
27.083333	1	0.231000
27.100000	1	0.233500
27.116667	1	0.237500
27.133333	1	0.242250
27.150000	1	0.247875
27.166667	1	0.255375
27.183333	1	0.264250
27.200000	1	0.274250
27.216667	1	0.286875
27.233333	1	0.302000
27.250000	1	0.319750
27.266667	1	0.340625
27.283333	1	0.365375
27.300000	1	0.394875
27.316667	1	0.429000
27.333333	1	0.467625
27.350000	1	0.513750
27.366667	1	0.566125
27.383333	1	0.626000
27.400000	1	0.694875
27.416667	1	0.773000
27.433333	1	0.861125
27.450000	1	0.959250
27.466667	1	1.070000
27.483333	1	1.192125
27.500000	1	1.326250
27.516667	1	1.473625
27.533333	1	1.633125
27.550000	1	1.804375
27.566667	1	1.986625
27.583333	1	2.178625
27.600000	1	2.380125
27.616667	1	2.588250
27.633333	1	2.801125
27.650000	1	3.017875
27.666667	1	3.235750
27.683333	1	3.451375
27.700000	1	3.661750
27.716667	1	3.862625
27.733333	1	4.051125
27.750000	1	4.224750
27.766667	1	4.379250
27.783333	1	4.512000
27.800000	1	4.621500
27.816667	1	4.705750
27.833333	1	4.762000
27.850000	1	4.790125
27.866667	1	4.787875
27.883333	1	4.756750
27.900000	1	4.696250
27.916667	1	4.608250
27.933333	1	4.494625
27.950000	1	4.357750
27.966667	1	4.199750
27.983333	1	4.024375
28.000000	1	3.834750
28.016667	1	3.633875
28.033333	1	3.425625
28.050000	1	3.213375
28.066667	1	2.998500
28.083333	1	2.785125
28.100000	1	2.575875
28.116667	1	2.372875
28.133333	1	2.177750
28.150000	1	1.992750
28.166667	1	1.818500
28.183333	1	1.655375
28.200000	1	1.504125
28.216667	1	1.364750
28.233333	1	1.237625
28.250000	1	1.121750
28.266667	1	1.017250
28.283333	1	0.924375
28.300000	1	0.841250
28.316667	1	0.768250
28.333333	1	0.703875
28.350000	1	0.648000
28.366667	1	0.600125
28.383333	1	0.559375
28.400000	1	0.525375
28.416667	1	0.497625
28.433333	1	0.475125
28.450000	1	0.458375
28.466667	1	0.445125
28.483333	1	0.435875
28.500000	1	0.430000
28.516667	1	0.427625
28.533333	1	0.427250
28.550000	1	0.429875
28.566667	1	0.434500
28.583333	1	0.441000
28.600000	1	0.448625
28.616667	1	0.457625
28.633333	1	0.468250
28.650000	1	0.479125
28.666667	1	0.490375
28.683333	1	0.502250
28.700000	1	0.514250
28.716667	1	0.525375
28.733333	1	0.536000
28.750000	1	0.545375
28.766667	1	0.554500
28.783333	1	0.563625
28.800000	1	0.572125
28.816667	1	0.580000
28.833333	1	0.586625
28.850000	1	0.591500
28.866667	1	0.595750
28.883333	1	0.598375
28.900000	1	0.600125
28.916667	1	0.600375
28.933333	1	0.599000
28.950000	1	0.597250
28.966667	1	0.593625
28.983333	1	0.589000
29.000000	1	0.583250
29.016667	1	0.576125
29.033333	1	0.567625
29.050000	1	0.558625
29.066667	1	0.548750
29.083333	1	0.538000
29.100000	1	0.526375
29.116667	1	0.514500
29.133333	1	0.501500
29.150000	1	0.487875
29.166667	1	0.474000
29.183333	1	0.459750
29.200000	1	0.445250
29.216667	1	0.429750
29.233333	1	0.415125
29.250000	1	0.400375
29.266667	1	0.385375
29.283333	1	0.370500
29.300000	1	0.355875
29.316667	1	0.342125
29.333333	1	0.328000
29.350000	1	0.314625
29.366667	1	0.302125
29.383333	1	0.289375
29.400000	1	0.276750
29.416667	1	0.264500
29.433333	1	0.253000
29.450000	1	0.241500
29.466667	1	0.230750
29.483333	1	0.220250
29.500000	1	0.211500
29.516667	1	0.202250
29.533333	1	0.193500
29.550000	1	0.184875
29.566667	1	0.177000
29.583333	1	0.169500
29.600000	1	0.162750
29.616667	1	0.156000
29.633333	1	0.150500
29.650000	1	0.144250
29.666667	1	0.139000
29.683333	1	0.134750
29.700000	1	0.130000
29.716667	1	0.125875
29.733333	1	0.122125
29.750000	1	0.119125
29.766667	1	0.116500
29.783333	1	0.113875
29.800000	1	0.112125
29.816667	1	0.110875
29.833333	1	0.109625
29.850000	1	0.109000
29.866667	1	0.108000
29.883333	1	0.107250
29.900000	1	0.107125
29.916667	1	0.107000
29.933333	1	0.106250
29.950000	1	0.107125
29.966667	1	0.108125
29.983333	1	0.109125
30.000000	1	0.110250
30.016667	1	0.111500
30.033333	1	0.113250
30.050000	1	0.114875
30.066667	1	0.116875
30.083333	1	0.118875
30.100000	1	0.120750
30.116667	1	0.122250
30.133333	1	0.123625
30.150000	1	0.124500
30.166667	1	0.126375
30.183333	1	0.128125
30.200000	1	0.129625
30.216667	1	0.130750
30.233333	1	0.131625
30.250000	1	0.132750
30.266667	1	0.134000
30.283333	1	0.134750
30.300000	1	0.135875
30.316667	1	0.137125
30.333333	1	0.137625
30.350000	1	0.137375
30.366667	1	0.138250
30.383333	1	0.139000
30.400000	1	0.139750
30.416667	1	0.141000
30.433333	1	0.142125
30.450000	1	0.143500
30.466667	1	0.144375
30.483333	1	0.146000
30.500000	1	0.147500
30.516667	1	0.149250
30.533333	1	0.151125
30.550000	1	0.154125
30.566667	1	0.156750
30.583333	1	0.160125
30.600000	1	0.164125
30.616667	1	0.168625
30.633333	1	0.173125
30.650000	1	0.178750
30.666667	1	0.184750
30.683333	1	0.190875
30.700000	1	0.197750
30.716667	1	0.205375
30.733333	1	0.213875
30.750000	1	0.223125
30.766667	1	0.233250
30.783333	1	0.243125
30.800000	1	0.254250
30.816667	1	0.266000
30.833333	1	0.278750
30.850000	1	0.292875
30.866667	1	0.306875
30.883333	1	0.323375
30.900000	1	0.340750
30.916667	1	0.359125
30.933333	1	0.379000
30.950000	1	0.403000
30.966667	1	0.428375
30.983333	1	0.456750
31.000000	1	0.487750
31.016667	1	0.522500
31.033333	1	0.561375
31.050000	1	0.604375
31.066667	1	0.651750
31.083333	1	0.704375
31.100000	1	0.762500
31.116667	1	0.826750
31.133333	1	0.896625
31.150000	1	0.974375
31.166667	1	1.059375
31.183333	1	1.151250
31.200000	1	1.250250
31.216667	1	1.357125
31.233333	1	1.470750
31.250000	1	1.590625
31.266667	1	1.716500
31.283333	1	1.847750
31.300000	1	1.983500
31.316667	1	2.123500
31.333333	1	2.264750
31.350000	1	2.407625
31.366667	1	2.549375
31.383333	1	2.689500
31.400000	1	2.825625
31.416667	1	2.956500
31.433333	1	3.080250
31.450000	1	3.195875
31.466667	1	3.300375
31.483333	1	3.392625
31.500000	1	3.471625
31.516667	1	3.536375
31.533333	1	3.586250
31.550000	1	3.619625
31.566667	1	3.637000
31.583333	1	3.638250
31.600000	1	3.623375
31.616667	1	3.591750
31.633333	1	3.545625
31.650000	1	3.484000
31.666667	1	3.410000
31.683333	1	3.322500
31.700000	1	3.225250
31.716667	1	3.117750
31.733333	1	3.002750
31.750000	1	2.881125
31.766667	1	2.754000
31.783333	1	2.624125
31.800000	1	2.491500
31.816667	1	2.357875
31.833333	1	2.224375
31.850000	1	2.092750
31.866667	1	1.963500
31.883333	1	1.837875
31.900000	1	1.716500
31.916667	1	1.599500
31.933333	1	1.487875
31.950000	1	1.381625
31.966667	1	1.281125
31.983333	1	1.186125
32.000000	1	1.097500
32.016667	1	1.013875
32.033333	1	0.935750
32.050000	1	0.863625
32.066667	1	0.796375
32.083333	1	0.733750
32.100000	1	0.675625
32.116667	1	0.622625
32.133333	1	0.574750
32.150000	1	0.529875
32.166667	1	0.489125
32.183333	1	0.451750
32.200000	1	0.417000
32.216667	1	0.384750
32.233333	1	0.355000
32.250000	1	0.327000
32.266667	1	0.302125
32.283333	1	0.279375
32.300000	1	0.258125
32.316667	1	0.238625
32.333333	1	0.221000
32.350000	1	0.204875
32.366667	1	0.189625
32.383333	1	0.175875
32.400000	1	0.162750
32.416667	1	0.151000
32.433333	1	0.139750
32.450000	1	0.130125
32.466667	1	0.121375
32.483333	1	0.113000
32.500000	1	0.105500
32.516667	1	0.098875
32.533333	1	0.092875
32.550000	1	0.087250
32.566667	1	0.082875
32.583333	1	0.079000
32.600000	1	0.075500
32.616667	1	0.071750
32.633333	1	0.068375
32.650000	1	0.065500
32.666667	1	0.063000
32.683333	1	0.060875
32.700000	1	0.058250
32.716667	1	0.056250
32.733333	1	0.055125
32.750000	1	0.053875
32.766667	1	0.052250
32.783333	1	0.050625
32.800000	1	0.048750
32.816667	1	0.047250
32.833333	1	0.045875
32.850000	1	0.043750
32.866667	1	0.041250
32.883333	1	0.039000
32.900000	1	0.036875
32.916667	1	0.034625
32.933333	1	0.033125
32.950000	1	0.031250
32.966667	1	0.029000
32.983333	1	0.026250
33.000000	1	0.023750
33.016667	1	0.020875
33.033333	1	0.018500
33.050000	1	0.016375
33.066667	1	0.014500
33.083333	1	0.012625
33.100000	1	0.010250
33.116667	1	0.009250
33.133333	1	0.008250
33.150000	1	0.007250
33.166667	1	0.006250
33.183333	1	0.005125
33.200000	1	0.004250
33.216667	1	0.004375
33.233333	1	0.004500
33.250000	1	0.004750
33.266667	1	0.004875
33.283333	1	0.005500
33.300000	1	0.007000
33.316667	1	0.008500
33.333333	1	0.009875
33.350000	1	0.011125
33.366667	1	0.012625
33.383333	1	0.014875
33.400000	1	0.017250
33.416667	1	0.020250
33.433333	1	0.022625
33.450000	1	0.025250
33.466667	1	0.026750
33.483333	1	0.030000
33.500000	1	0.033000
33.516667	1	0.035750
33.533333	1	0.038500
33.550000	1	0.041750
33.566667	1	0.045500
33.583333	1	0.048750
33.600000	1	0.052375
33.616667	1	0.055500
33.633333	1	0.058375
33.650000	1	0.061000
33.666667	1	0.064000
33.683333	1	0.066375
33.700000	1	0.069375
33.716667	1	0.072625
33.733333	1	0.075625
33.750000	1	0.078875
33.766667	1	0.081375
33.783333	1	0.084250
33.800000	1	0.086750
33.816667	1	0.089000
33.833333	1	0.091625
33.850000	1	0.093875
33.866667	1	0.095500
33.883333	1	0.097000
33.900000	1	0.098625
33.916667	1	0.100000
33.933333	1	0.101875
33.950000	1	0.103750
33.966667	1	0.105000
33.983333	1	0.105875
34.000000	1	0.107375
34.016667	1	0.108250
34.033333	1	0.109500
34.050000	1	0.110250
34.066667	1	0.110875
34.083333	1	0.111875
34.100000	1	0.112875
34.116667	1	0.113125
34.133333	1	0.113125
34.150000	1	0.113500
34.166667	1	0.113625
34.183333	1	0.113625
34.200000	1	0.113500
34.216667	1	0.113250
34.233333	1	0.113875
34.250000	1	0.114375
34.266667	1	0.114625
34.283333	1	0.114625
34.300000	1	0.115250
34.316667	1	0.115750
34.333333	1	0.116125
34.350000	1	0.116875
34.366667	1	0.117750
34.383333	1	0.118375
34.400000	1	0.119750
34.416667	1	0.119875
34.433333	1	0.120500
34.450000	1	0.121875
34.466667	1	0.123000
34.483333	1	0.123125
34.500000	1	0.124250
34.516667	1	0.125375
34.533333	1	0.125875
34.550000	1	0.127000
34.566667	1	0.127750
34.583333	1	0.128750
34.600000	1	0.130125
34.616667	1	0.131375
34.633333	1	0.132500
34.650000	1	0.133625
34.666667	1	0.133500
34.683333	1	0.134250
34.700000	1	0.134750
34.716667	1	0.135250
34.733333	1	0.135125
34.750000	1	0.136000
34.766667	1	0.136500
34.783333	1	0.136500
34.800000	1	0.136000
34.816667	1	0.136000
34.833333	1	0.135625
34.850000	1	0.135625
34.866667	1	0.134625
34.883333	1	0.133750
34.900000	1	0.133125
34.916667	1	0.132125
34.933333	1	0.131125
34.950000	1	0.131000
34.966667	1	0.130375
34.983333	1	0.129625
35.000000	1	0.129000
35.016667	1	0.127625
35.033333	1	0.126125
35.050000	1	0.124625
35.066667	1	0.123250
35.083333	1	0.122875
35.100000	1	0.121750
35.116667	1	0.121125
35.133333	1	0.119875
35.150000	1	0.119375
35.166667	1	0.119250
35.183333	1	0.118375
35.200000	1	0.118000
35.216667	1	0.117500
35.233333	1	0.117375
35.250000	1	0.117625
35.266667	1	0.117625
35.283333	1	0.118000
35.300000	1	0.117625
35.316667	1	0.117875
35.333333	1	0.118250
35.350000	1	0.119000
35.366667	1	0.119750
35.383333	1	0.120250
35.400000	1	0.121875
35.416667	1	0.122750
35.433333	1	0.123625
35.450000	1	0.124500
35.466667	1	0.126125
35.483333	1	0.127500
35.500000	1	0.128875
35.516667	1	0.130125
35.533333	1	0.131250
35.550000	1	0.132625
35.566667	1	0.134000
35.583333	1	0.135125
35.600000	1	0.136375
35.616667	1	0.137250
35.633333	1	0.138375
35.650000	1	0.139375
35.666667	1	0.140625
35.683333	1	0.141125
35.700000	1	0.142000
35.716667	1	0.142500
35.733333	1	0.143500
35.750000	1	0.143875
35.766667	1	0.144500
35.783333	1	0.145250
35.800000	1	0.144375
35.816667	1	0.144000
35.833333	1	0.144375
35.850000	1	0.144875
35.866667	1	0.144375
35.883333	1	0.143750
35.900000	1	0.143625
35.916667	1	0.143000
35.933333	1	0.142750
35.950000	1	0.141625
35.966667	1	0.141375
35.983333	1	0.141250
36.000000	1	0.140750
36.016667	1	0.140375
36.033333	1	0.139625
36.050000	1	0.139000
36.066667	1	0.138500
36.083333	1	0.137625
36.100000	1	0.136875
36.116667	1	0.136500
36.133333	1	0.135875
36.150000	1	0.134875
36.166667	1	0.134500
36.183333	1	0.134625
36.200000	1	0.133000
36.216667	1	0.132625
36.233333	1	0.131750
36.250000	1	0.130875
36.266667	1	0.130750
36.283333	1	0.129625
36.300000	1	0.128875
36.316667	1	0.128500
36.333333	1	0.126375
36.350000	1	0.124750
36.366667	1	0.123500
36.383333	1	0.122250
36.400000	1	0.120875
36.416667	1	0.119125
36.433333	1	0.117500
36.450000	1	0.116625
36.466667	1	0.115625
36.483333	1	0.113875
36.500000	1	0.111750
36.516667	1	0.110000
36.533333	1	0.108375
36.550000	1	0.106625
36.566667	1	0.104750
36.583333	1	0.102500
36.600000	1	0.099625
36.616667	1	0.097625
36.633333	1	0.095000
36.650000	1	0.091750
36.666667	1	0.089500
36.683333	1	0.086500
36.700000	1	0.083375
36.716667	1	0.080875
36.733333	1	0.078125
36.750000	1	0.075125
36.766667	1	0.071500
36.783333	1	0.068875
36.800000	1	0.065875
36.816667	1	0.062625
36.833333	1	0.060750
36.850000	1	0.058000
36.866667	1	0.055250
36.883333	1	0.052750
36.900000	1	0.050500
36.916667	1	0.048375
36.933333	1	0.046250
36.950000	1	0.044000
36.966667	1	0.042125
36.983333	1	0.041375
37.000000	1	0.040375
37.016667	1	0.039125
37.033333	1	0.037875
37.050000	1	0.037250
37.066667	1	0.036500
37.083333	1	0.035875
37.100000	1	0.036500
37.116667	1	0.037125
37.133333	1	0.037250
37.150000	1	0.037750
37.166667	1	0.038625
37.183333	1	0.039250
37.200000	1	0.040875
37.216667	1	0.042375
37.233333	1	0.043750
37.250000	1	0.045500
37.266667	1	0.046750
37.283333	1	0.047375
37.300000	1	0.049375
37.316667	1	0.050875
37.333333	1	0.052125
37.350000	1	0.053375
37.366667	1	0.054625
37.383333	1	0.055625
37.400000	1	0.056125
37.416667	1	0.056500
37.433333	1	0.056625
37.450000	1	0.057000
37.466667	1	0.057500
37.483333	1	0.057250
37.500000	1	0.056500
37.516667	1	0.056500
37.533333	1	0.055250
37.550000	1	0.054000
37.566667	1	0.052125
37.583333	1	0.051500
37.600000	1	0.049875
37.616667	1	0.048125
37.633333	1	0.045875
37.650000	1	0.043375
37.666667	1	0.040750
37.683333	1	0.038375
37.700000	1	0.035750
37.716667	1	0.032750
37.733333	1	0.029375
37.750000	1	0.026750
37.766667	1	0.024250
37.783333	1	0.020625
37.800000	1	0.017625
37.816667	1	0.014625
37.833333	1	0.011375
37.850000	1	0.008250
37.866667	1	0.005625
37.883333	1	0.003250
37.900000	1	0.000875
37.916667	1	-0.001000
37.933333	1	-0.002625
37.950000	1	-0.004500
37.966667	1	-0.006500
37.983333	1	-0.006625
38.000000	1	-0.007125
38.016667	1	-0.007875
38.033333	1	-0.008250
38.050000	1	-0.007750
38.066667	1	-0.008250
38.083333	1	-0.007750
38.100000	1	-0.007250
38.116667	1	-0.006125
38.133333	1	-0.004500
38.150000	1	-0.003125
38.166667	1	-0.002500
38.183333	1	-0.000625
38.200000	1	0.000875
38.216667	1	0.003375
38.233333	1	0.005000
38.250000	1	0.007500
38.266667	1	0.009750
38.283333	1	0.012500
38.300000	1	0.014625
38.316667	1	0.017625
38.333333	1	0.019875
38.350000	1	0.023125
38.366667	1	0.025000
38.383333	1	0.027625
38.400000	1	0.030750
38.416667	1	0.032875
38.433333	1	0.035000
38.450000	1	0.036500
38.466667	1	0.038250
38.483333	1	0.041000
38.500000	1	0.044000
38.516667	1	0.046250
38.533333	1	0.048750
38.550000	1	0.050750
38.566667	1	0.053750
38.583333	1	0.055375
38.600000	1	0.057875
38.616667	1	0.059375
38.633333	1	0.060750
38.650000	1	0.061875
38.666667	1	0.063875
38.683333	1	0.065625
38.700000	1	0.066375
38.716667	1	0.067500
38.733333	1	0.067750
38.750000	1	0.067750
38.766667	1	0.066875
38.783333	1	0.067250
38.800000	1	0.067250
38.816667	1	0.066750
38.833333	1	0.067375
38.850000	1	0.067250
38.866667	1	0.066375
38.883333	1	0.065875
38.900000	1	0.064750
38.916667	1	0.063625
38.933333	1	0.062625
38.950000	1	0.062125
38.966667	1	0.060375
38.983333	1	0.059625
39.000000	1	0.058875
39.016667	1	0.057375
39.033333	1	0.056000
39.050000	1	0.054500
39.066667	1	0.053000
39.083333	1	0.052750
39.100000	1	0.052375
39.116667	1	0.051500
39.133333	1	0.050875
39.150000	1	0.049875
39.166667	1	0.049125
39.183333	1	0.048125
39.200000	1	0.047000
39.216667	1	0.046250
39.233333	1	0.046000
39.250000	1	0.045250
39.266667	1	0.045000
39.283333	1	0.044250
39.300000	1	0.043750
39.316667	1	0.043500
39.333333	1	0.043000
39.350000	1	0.042000
39.366667	1	0.041500
39.383333	1	0.040625
39.400000	1	0.039875
39.416667	1	0.039125
39.433333	1	0.037875
39.450000	1	0.036875
39.466667	1	0.036125
39.483333	1	0.034625
39.500000	1	0.033375
39.516667	1	0.032000
39.533333	1	0.030750
39.550000	1	0.028875
39.566667	1	0.027625
39.583333	1	0.025375
39.600000	1	0.023375
39.616667	1	0.021375
39.633333	1	0.019000
39.650000	1	0.016875
39.666667	1	0.015125
39.683333	1	0.013250
39.700000	1	0.011125
39.716667	1	0.009625
39.733333	1	0.007500
39.750000	1	0.005500
39.766667	1	0.003750
39.783333	1	0.002125
39.800000	1	0.000500
39.816667	1	-0.000500
39.833333	1	-0.000875
39.850000	1	-0.002250
39.866667	1	-0.002875
39.883333	1	-0.003500
39.900000	1	-0.003375
39.916667	1	-0.003250
39.933333	1	-0.002375
39.950000	1	-0.001875
39.966667	1	-0.002000
39.983333	1	-0.001125
40.000000	1	0.000000
