URL	chrom://bioreactor/micro_cm7/HPLC_Ultimate_3000/Users/markusar/20240716_MA_pHrange2.seq/127.smp/RI_1.channel/RI_1.chm
Channel	RI_1

Injection Information:
Data Vault	micro_cm7
Sequence	20240716_MA_pHrange2
Name	Pv3_25H_4
Number	13
Position	BB1
Comment	
Processing Method	
Instrument Method	run_25B_method
Type	Unknown
Status	Finished
Inject Time	17.07.2024 02:18:07 +02:00
Volume (µl)	20.0000
Dilution Factor	1.0000
Weight	1.0000

Chromatogram Data Information:
Time Min. (min)	0.000000
Time Max. (min)	40.000000
Data Points	2401
Detector	RI
Generating Data System	Chromeleon 7.3.2.11814
Exporting Data System	Chromeleon 7.3.2.0
Operator	Instrument Controller
Signal Quantity	Refractive 
Signal Unit	µRIU
Signal Min.	-0.150000
Signal Max.	85.096250
Channel	RI_1
Driver Name	RID520Driver.dll
Channel Type	Evaluation
Min. Step (s)	1
Max. Step (s)	1
Average Step (s)	1

Signal Parameter Information:
Signal Info	

Chromatogram Data:
Time (min)	Step (s)	Value (µRIU)
0.000000	n.a.	0.012250
0.016667	1	0.012750
0.033333	1	0.013250
0.050000	1	0.013250
0.066667	1	0.013625
0.083333	1	0.014625
0.100000	1	0.015375
0.116667	1	0.015375
0.133333	1	0.015250
0.150000	1	0.015875
0.166667	1	0.015750
0.183333	1	0.015500
0.200000	1	0.016000
0.216667	1	0.016375
0.233333	1	0.016875
0.250000	1	0.016750
0.266667	1	0.016375
0.283333	1	0.016750
0.300000	1	0.017000
0.316667	1	0.017375
0.333333	1	0.017750
0.350000	1	0.017250
0.366667	1	0.016625
0.383333	1	0.016000
0.400000	1	0.016000
0.416667	1	0.016500
0.433333	1	0.017375
0.450000	1	0.018000
0.466667	1	0.019750
0.483333	1	0.020750
0.500000	1	0.022375
0.516667	1	0.022625
0.533333	1	0.022125
0.550000	1	0.021250
0.566667	1	0.019250
0.583333	1	0.017375
0.600000	1	0.014875
0.616667	1	0.013125
0.633333	1	0.011375
0.650000	1	0.010250
0.666667	1	0.008750
0.683333	1	0.008000
0.700000	1	0.006500
0.716667	1	0.005750
0.733333	1	0.004500
0.750000	1	0.003500
0.766667	1	0.002250
0.783333	1	0.001000
0.800000	1	-0.000375
0.816667	1	-0.001875
0.833333	1	-0.002875
0.850000	1	-0.004125
0.866667	1	-0.005375
0.883333	1	-0.006250
0.900000	1	-0.007750
0.916667	1	-0.009375
0.933333	1	-0.010750
0.950000	1	-0.013000
0.966667	1	-0.014250
0.983333	1	-0.015875
1.000000	1	-0.017375
1.016667	1	-0.018500
1.033333	1	-0.019750
1.050000	1	-0.020750
1.066667	1	-0.022000
1.083333	1	-0.023000
1.100000	1	-0.023875
1.116667	1	-0.024625
1.133333	1	-0.025000
1.150000	1	-0.026500
1.166667	1	-0.027250
1.183333	1	-0.028000
1.200000	1	-0.028750
1.216667	1	-0.028750
1.233333	1	-0.028750
1.250000	1	-0.029000
1.266667	1	-0.029000
1.283333	1	-0.029250
1.300000	1	-0.029125
1.316667	1	-0.028875
1.333333	1	-0.028875
1.350000	1	-0.028625
1.366667	1	-0.029000
1.383333	1	-0.028625
1.400000	1	-0.028625
1.416667	1	-0.028750
1.433333	1	-0.028500
1.450000	1	-0.028625
1.466667	1	-0.028875
1.483333	1	-0.028750
1.500000	1	-0.028625
1.516667	1	-0.029750
1.533333	1	-0.029500
1.550000	1	-0.029750
1.566667	1	-0.029875
1.583333	1	-0.030250
1.600000	1	-0.030625
1.616667	1	-0.031000
1.633333	1	-0.031625
1.650000	1	-0.032125
1.666667	1	-0.032125
1.683333	1	-0.032750
1.700000	1	-0.033000
1.716667	1	-0.033375
1.733333	1	-0.034250
1.750000	1	-0.035125
1.766667	1	-0.035250
1.783333	1	-0.036125
1.800000	1	-0.036625
1.816667	1	-0.037375
1.833333	1	-0.037500
1.850000	1	-0.038000
1.866667	1	-0.037250
1.883333	1	-0.037625
1.900000	1	-0.038375
1.916667	1	-0.038625
1.933333	1	-0.038625
1.950000	1	-0.038375
1.966667	1	-0.038375
1.983333	1	-0.037875
2.000000	1	-0.037250
2.016667	1	-0.036125
2.033333	1	-0.035375
2.050000	1	-0.035000
2.066667	1	-0.034000
2.083333	1	-0.033375
2.100000	1	-0.031500
2.116667	1	-0.030875
2.133333	1	-0.030000
2.150000	1	-0.029250
2.166667	1	-0.028500
2.183333	1	-0.027875
2.200000	1	-0.027125
2.216667	1	-0.026125
2.233333	1	-0.025125
2.250000	1	-0.024125
2.266667	1	-0.022875
2.283333	1	-0.022000
2.300000	1	-0.021125
2.316667	1	-0.020875
2.333333	1	-0.020625
2.350000	1	-0.020000
2.366667	1	-0.020000
2.383333	1	-0.020500
2.400000	1	-0.020500
2.416667	1	-0.020500
2.433333	1	-0.019750
2.450000	1	-0.019750
2.466667	1	-0.019875
2.483333	1	-0.020250
2.500000	1	-0.020125
2.516667	1	-0.020500
2.533333	1	-0.020250
2.550000	1	-0.020375
2.566667	1	-0.020625
2.583333	1	-0.021000
2.600000	1	-0.021750
2.616667	1	-0.021875
2.633333	1	-0.021625
2.650000	1	-0.021250
2.666667	1	-0.021125
2.683333	1	-0.019875
2.700000	1	-0.019375
2.716667	1	-0.019000
2.733333	1	-0.018625
2.750000	1	-0.017000
2.766667	1	-0.014875
2.783333	1	-0.013125
2.800000	1	-0.011375
2.816667	1	-0.009625
2.833333	1	-0.008000
2.850000	1	-0.005500
2.866667	1	-0.002750
2.883333	1	-0.000250
2.900000	1	0.002250
2.916667	1	0.005125
2.933333	1	0.008125
2.950000	1	0.010875
2.966667	1	0.014375
2.983333	1	0.017250
3.000000	1	0.020500
3.016667	1	0.023250
3.033333	1	0.026500
3.050000	1	0.029875
3.066667	1	0.033250
3.083333	1	0.036250
3.100000	1	0.038875
3.116667	1	0.041250
3.133333	1	0.044250
3.150000	1	0.046500
3.166667	1	0.049000
3.183333	1	0.050625
3.200000	1	0.052875
3.216667	1	0.055000
3.233333	1	0.056875
3.250000	1	0.058625
3.266667	1	0.059500
3.283333	1	0.059625
3.300000	1	0.060375
3.316667	1	0.060875
3.333333	1	0.060750
3.350000	1	0.060750
3.366667	1	0.061125
3.383333	1	0.061000
3.400000	1	0.060000
3.416667	1	0.059375
3.433333	1	0.058250
3.450000	1	0.057375
3.466667	1	0.056125
3.483333	1	0.055625
3.500000	1	0.054750
3.516667	1	0.054000
3.533333	1	0.052750
3.550000	1	0.051375
3.566667	1	0.050750
3.583333	1	0.050375
3.600000	1	0.049125
3.616667	1	0.048375
3.633333	1	0.047625
3.650000	1	0.047375
3.666667	1	0.046875
3.683333	1	0.046250
3.700000	1	0.045875
3.716667	1	0.044875
3.733333	1	0.045250
3.750000	1	0.045000
3.766667	1	0.045125
3.783333	1	0.046250
3.800000	1	0.046875
3.816667	1	0.047125
3.833333	1	0.048125
3.850000	1	0.049250
3.866667	1	0.050125
3.883333	1	0.050625
3.900000	1	0.051500
3.916667	1	0.052500
3.933333	1	0.053875
3.950000	1	0.055125
3.966667	1	0.056875
3.983333	1	0.058250
4.000000	1	0.059250
4.016667	1	0.061250
4.033333	1	0.062625
4.050000	1	0.063875
4.066667	1	0.065500
4.083333	1	0.066625
4.100000	1	0.068500
4.116667	1	0.070750
4.133333	1	0.071625
4.150000	1	0.073000
4.166667	1	0.074500
4.183333	1	0.076500
4.200000	1	0.079125
4.216667	1	0.081375
4.233333	1	0.083875
4.250000	1	0.086625
4.266667	1	0.088125
4.283333	1	0.090250
4.300000	1	0.092375
4.316667	1	0.094750
4.333333	1	0.096625
4.350000	1	0.099125
4.366667	1	0.101125
4.383333	1	0.103500
4.400000	1	0.105625
4.416667	1	0.107625
4.433333	1	0.110250
4.450000	1	0.112250
4.466667	1	0.114500
4.483333	1	0.115750
4.500000	1	0.117250
4.516667	1	0.119250
4.533333	1	0.120375
4.550000	1	0.121750
4.566667	1	0.123500
4.583333	1	0.124625
4.600000	1	0.125375
4.616667	1	0.125750
4.633333	1	0.126750
4.650000	1	0.127875
4.666667	1	0.127875
4.683333	1	0.128125
4.700000	1	0.128250
4.716667	1	0.129000
4.733333	1	0.130125
4.750000	1	0.129875
4.766667	1	0.129875
4.783333	1	0.130375
4.800000	1	0.131000
4.816667	1	0.131625
4.833333	1	0.132125
4.850000	1	0.132625
4.866667	1	0.132500
4.883333	1	0.133625
4.900000	1	0.134250
4.916667	1	0.135500
4.933333	1	0.136625
4.950000	1	0.138125
4.966667	1	0.139750
4.983333	1	0.141250
5.000000	1	0.142500
5.016667	1	0.144375
5.033333	1	0.146500
5.050000	1	0.148750
5.066667	1	0.150125
5.083333	1	0.152125
5.100000	1	0.153750
5.116667	1	0.155625
5.133333	1	0.157250
5.150000	1	0.159500
5.166667	1	0.161500
5.183333	1	0.164625
5.200000	1	0.167125
5.216667	1	0.169125
5.233333	1	0.171125
5.250000	1	0.173625
5.266667	1	0.175250
5.283333	1	0.176375
5.300000	1	0.177625
5.316667	1	0.178750
5.333333	1	0.180625
5.350000	1	0.181875
5.366667	1	0.184125
5.383333	1	0.185375
5.400000	1	0.186250
5.416667	1	0.187625
5.433333	1	0.188375
5.450000	1	0.188250
5.466667	1	0.188750
5.483333	1	0.189125
5.500000	1	0.189375
5.516667	1	0.189375
5.533333	1	0.189125
5.550000	1	0.188250
5.566667	1	0.188500
5.583333	1	0.188750
5.600000	1	0.188500
5.616667	1	0.187625
5.633333	1	0.186500
5.650000	1	0.184875
5.666667	1	0.183750
5.683333	1	0.181625
5.700000	1	0.180375
5.716667	1	0.177625
5.733333	1	0.175625
5.750000	1	0.174000
5.766667	1	0.172125
5.783333	1	0.169750
5.800000	1	0.166875
5.816667	1	0.164125
5.833333	1	0.161250
5.850000	1	0.158750
5.866667	1	0.156125
5.883333	1	0.153375
5.900000	1	0.150375
5.916667	1	0.146625
5.933333	1	0.143375
5.950000	1	0.141000
5.966667	1	0.138000
5.983333	1	0.135625
6.000000	1	0.132875
6.016667	1	0.129500
6.033333	1	0.126625
6.050000	1	0.123750
6.066667	1	0.121875
6.083333	1	0.119375
6.100000	1	0.116125
6.116667	1	0.112250
6.133333	1	0.109875
6.150000	1	0.106375
6.166667	1	0.103125
6.183333	1	0.100375
6.200000	1	0.097375
6.216667	1	0.093625
6.233333	1	0.090875
6.250000	1	0.088000
6.266667	1	0.084375
6.283333	1	0.082000
6.300000	1	0.079000
6.316667	1	0.076000
6.333333	1	0.073375
6.350000	1	0.069875
6.366667	1	0.067125
6.383333	1	0.064125
6.400000	1	0.060875
6.416667	1	0.058375
6.433333	1	0.055625
6.450000	1	0.052625
6.466667	1	0.049125
6.483333	1	0.047125
6.500000	1	0.043500
6.516667	1	0.040875
6.533333	1	0.038250
6.550000	1	0.036375
6.566667	1	0.034500
6.583333	1	0.032000
6.600000	1	0.030750
6.616667	1	0.029250
6.633333	1	0.027875
6.650000	1	0.026750
6.666667	1	0.025250
6.683333	1	0.025125
6.700000	1	0.024500
6.716667	1	0.024000
6.733333	1	0.023500
6.750000	1	0.023375
6.766667	1	0.023250
6.783333	1	0.024125
6.800000	1	0.024500
6.816667	1	0.025375
6.833333	1	0.026375
6.850000	1	0.027625
6.866667	1	0.029500
6.883333	1	0.031000
6.900000	1	0.033375
6.916667	1	0.035250
6.933333	1	0.036875
6.950000	1	0.039375
6.966667	1	0.041375
6.983333	1	0.044125
7.000000	1	0.046625
7.016667	1	0.049250
7.033333	1	0.051625
7.050000	1	0.054250
7.066667	1	0.057125
7.083333	1	0.059375
7.100000	1	0.061500
7.116667	1	0.064250
7.133333	1	0.066375
7.150000	1	0.068625
7.166667	1	0.070750
7.183333	1	0.073125
7.200000	1	0.074875
7.216667	1	0.076250
7.233333	1	0.077500
7.250000	1	0.078625
7.266667	1	0.079750
7.283333	1	0.080375
7.300000	1	0.081000
7.316667	1	0.081750
7.333333	1	0.082250
7.350000	1	0.082500
7.366667	1	0.083250
7.383333	1	0.083125
7.400000	1	0.083500
7.416667	1	0.083750
7.433333	1	0.083250
7.450000	1	0.082375
7.466667	1	0.082375
7.483333	1	0.081625
7.500000	1	0.081625
7.516667	1	0.081125
7.533333	1	0.080625
7.550000	1	0.080125
7.566667	1	0.079625
7.583333	1	0.079250
7.600000	1	0.078250
7.616667	1	0.077625
7.633333	1	0.077125
7.650000	1	0.076750
7.666667	1	0.075500
7.683333	1	0.074375
7.700000	1	0.072750
7.716667	1	0.071875
7.733333	1	0.070750
7.750000	1	0.069125
7.766667	1	0.067375
7.783333	1	0.065375
7.800000	1	0.063250
7.816667	1	0.061375
7.833333	1	0.059000
7.850000	1	0.056375
7.866667	1	0.054125
7.883333	1	0.050625
7.900000	1	0.047875
7.916667	1	0.045000
7.933333	1	0.042500
7.950000	1	0.039250
7.966667	1	0.036000
7.983333	1	0.032875
8.000000	1	0.029875
8.016667	1	0.026000
8.033333	1	0.022750
8.050000	1	0.020000
8.066667	1	0.017000
8.083333	1	0.013750
8.100000	1	0.011000
8.116667	1	0.007750
8.133333	1	0.005375
8.150000	1	0.002750
8.166667	1	0.000250
8.183333	1	-0.001875
8.200000	1	-0.004000
8.216667	1	-0.006000
8.233333	1	-0.008125
8.250000	1	-0.010125
8.266667	1	-0.011250
8.283333	1	-0.012375
8.300000	1	-0.013875
8.316667	1	-0.015125
8.333333	1	-0.015875
8.350000	1	-0.016625
8.366667	1	-0.017250
8.383333	1	-0.018250
8.400000	1	-0.019250
8.416667	1	-0.019500
8.433333	1	-0.019875
8.450000	1	-0.020250
8.466667	1	-0.020125
8.483333	1	-0.020000
8.500000	1	-0.020125
8.516667	1	-0.020000
8.533333	1	-0.020125
8.550000	1	-0.019875
8.566667	1	-0.019750
8.583333	1	-0.020125
8.600000	1	-0.020000
8.616667	1	-0.019500
8.633333	1	-0.019625
8.650000	1	-0.020125
8.666667	1	-0.020250
8.683333	1	-0.019625
8.700000	1	-0.019375
8.716667	1	-0.019375
8.733333	1	-0.018750
8.750000	1	-0.018625
8.766667	1	-0.018375
8.783333	1	-0.018250
8.800000	1	-0.018000
8.816667	1	-0.017500
8.833333	1	-0.017500
8.850000	1	-0.017125
8.866667	1	-0.017250
8.883333	1	-0.017125
8.900000	1	-0.016875
8.916667	1	-0.016375
8.933333	1	-0.015875
8.950000	1	-0.015500
8.966667	1	-0.015625
8.983333	1	-0.014375
9.000000	1	-0.013500
9.016667	1	-0.013625
9.033333	1	-0.012875
9.050000	1	-0.012500
9.066667	1	-0.011875
9.083333	1	-0.011125
9.100000	1	-0.009875
9.116667	1	-0.008500
9.133333	1	-0.008250
9.150000	1	-0.007500
9.166667	1	-0.006750
9.183333	1	-0.005750
9.200000	1	-0.004875
9.216667	1	-0.003875
9.233333	1	-0.003125
9.250000	1	-0.001875
9.266667	1	-0.001000
9.283333	1	-0.000625
9.300000	1	-0.000125
9.316667	1	0.000875
9.333333	1	0.001250
9.350000	1	0.001875
9.366667	1	0.002125
9.383333	1	0.002125
9.400000	1	0.002250
9.416667	1	0.002500
9.433333	1	0.003000
9.450000	1	0.003000
9.466667	1	0.002750
9.483333	1	0.002500
9.500000	1	0.003000
9.516667	1	0.002625
9.533333	1	0.003250
9.550000	1	0.003125
9.566667	1	0.003125
9.583333	1	0.002875
9.600000	1	0.002750
9.616667	1	0.002250
9.633333	1	0.002625
9.650000	1	0.001750
9.666667	1	0.001500
9.683333	1	0.001250
9.700000	1	0.000125
9.716667	1	0.000375
9.733333	1	0.000500
9.750000	1	0.000500
9.766667	1	0.000000
9.783333	1	-0.000375
9.800000	1	-0.000750
9.816667	1	-0.000750
9.833333	1	-0.001250
9.850000	1	-0.001500
9.866667	1	-0.002250
9.883333	1	-0.002625
9.900000	1	-0.002875
9.916667	1	-0.002500
9.933333	1	-0.003250
9.950000	1	-0.004000
9.966667	1	-0.004625
9.983333	1	-0.004375
10.000000	1	-0.004375
10.016667	1	-0.005000
10.033333	1	-0.005750
10.050000	1	-0.005375
10.066667	1	-0.005000
10.083333	1	-0.003750
10.100000	1	-0.002625
10.116667	1	-0.000875
10.133333	1	0.002000
10.150000	1	0.004625
10.166667	1	0.008375
10.183333	1	0.012500
10.200000	1	0.017875
10.216667	1	0.024125
10.233333	1	0.031875
10.250000	1	0.041125
10.266667	1	0.052125
10.283333	1	0.064625
10.300000	1	0.079125
10.316667	1	0.095375
10.333333	1	0.112375
10.350000	1	0.128625
10.366667	1	0.143125
10.383333	1	0.151375
10.400000	1	0.149375
10.416667	1	0.131750
10.433333	1	0.095250
10.450000	1	0.039250
10.466667	1	-0.031125
10.483333	1	-0.102250
10.500000	1	-0.150000
10.516667	1	-0.136000
10.533333	1	-0.010750
10.550000	1	0.285000
10.566667	1	0.816125
10.583333	1	1.648750
10.600000	1	2.847125
10.616667	1	4.465000
10.633333	1	6.543500
10.650000	1	9.110500
10.666667	1	12.188625
10.683333	1	15.786250
10.700000	1	19.902625
10.716667	1	24.524625
10.733333	1	29.630125
10.750000	1	35.183125
10.766667	1	41.129875
10.783333	1	47.412500
10.800000	1	53.952500
10.816667	1	60.618625
10.833333	1	67.216250
10.850000	1	73.455875
10.866667	1	78.917500
10.883333	1	83.022750
10.900000	1	85.096250
10.916667	1	84.523750
10.933333	1	80.993125
10.950000	1	74.688125
10.966667	1	66.304750
10.983333	1	56.830625
11.000000	1	47.262625
11.016667	1	38.371750
11.033333	1	30.605000
11.050000	1	24.113875
11.066667	1	18.860625
11.083333	1	14.708375
11.100000	1	11.487125
11.116667	1	9.021000
11.133333	1	7.152125
11.150000	1	5.743750
11.166667	1	4.684875
11.183333	1	3.888000
11.200000	1	3.284875
11.216667	1	2.824625
11.233333	1	2.470625
11.250000	1	2.193875
11.266667	1	1.976000
11.283333	1	1.801250
11.300000	1	1.658625
11.316667	1	1.540625
11.333333	1	1.442000
11.350000	1	1.359500
11.366667	1	1.288625
11.383333	1	1.228625
11.400000	1	1.176625
11.416667	1	1.132125
11.433333	1	1.094375
11.450000	1	1.061625
11.466667	1	1.033500
11.483333	1	1.009375
11.500000	1	0.989000
11.516667	1	0.971875
11.533333	1	0.957250
11.550000	1	0.944375
11.566667	1	0.933875
11.583333	1	0.925750
11.600000	1	0.918750
11.616667	1	0.913125
11.633333	1	0.908750
11.650000	1	0.906500
11.666667	1	0.904625
11.683333	1	0.904625
11.700000	1	0.906125
11.716667	1	0.909125
11.733333	1	0.912000
11.750000	1	0.916125
11.766667	1	0.921000
11.783333	1	0.927625
11.800000	1	0.935375
11.816667	1	0.943125
11.833333	1	0.951375
11.850000	1	0.959625
11.866667	1	0.967250
11.883333	1	0.974750
11.900000	1	0.981125
11.916667	1	0.987250
11.933333	1	0.992625
11.950000	1	0.997125
11.966667	1	1.000125
11.983333	1	1.001875
12.000000	1	1.003375
12.016667	1	1.005000
12.033333	1	1.006250
12.050000	1	1.007250
12.066667	1	1.008500
12.083333	1	1.009500
12.100000	1	1.011625
12.116667	1	1.013125
12.133333	1	1.015750
12.150000	1	1.018500
12.166667	1	1.022250
12.183333	1	1.026500
12.200000	1	1.030875
12.216667	1	1.037125
12.233333	1	1.045125
12.250000	1	1.054250
12.266667	1	1.065875
12.283333	1	1.080625
12.300000	1	1.099875
12.316667	1	1.124875
12.333333	1	1.158000
12.350000	1	1.200250
12.366667	1	1.255250
12.383333	1	1.326000
12.400000	1	1.417625
12.416667	1	1.532250
12.433333	1	1.676125
12.450000	1	1.853625
12.466667	1	2.070500
12.483333	1	2.331375
12.500000	1	2.639375
12.516667	1	2.999625
12.533333	1	3.412750
12.550000	1	3.881750
12.566667	1	4.406125
12.583333	1	4.983000
12.600000	1	5.605250
12.616667	1	6.265500
12.633333	1	6.954250
12.650000	1	7.659250
12.666667	1	8.368000
12.683333	1	9.068125
12.700000	1	9.747125
12.716667	1	10.396500
12.733333	1	11.010375
12.750000	1	11.586875
12.766667	1	12.128000
12.783333	1	12.641125
12.800000	1	13.134000
12.816667	1	13.616625
12.833333	1	14.100125
12.850000	1	14.593625
12.866667	1	15.106000
12.883333	1	15.643625
12.900000	1	16.212125
12.916667	1	16.811125
12.933333	1	17.444750
12.950000	1	18.110125
12.966667	1	18.807875
12.983333	1	19.535750
13.000000	1	20.291250
13.016667	1	21.072500
13.033333	1	21.878875
13.050000	1	22.710000
13.066667	1	23.564500
13.083333	1	24.441375
13.100000	1	25.339375
13.116667	1	26.257875
13.133333	1	27.194000
13.150000	1	28.150000
13.166667	1	29.124625
13.183333	1	30.118500
13.200000	1	31.130125
13.216667	1	32.161375
13.233333	1	33.210875
13.250000	1	34.281750
13.266667	1	35.373500
13.283333	1	36.486500
13.300000	1	37.620375
13.316667	1	38.775500
13.333333	1	39.951625
13.350000	1	41.149750
13.366667	1	42.370250
13.383333	1	43.613875
13.400000	1	44.880500
13.416667	1	46.171125
13.433333	1	47.486875
13.450000	1	48.829875
13.466667	1	50.201000
13.483333	1	51.599375
13.500000	1	53.026625
13.516667	1	54.483250
13.533333	1	55.970625
13.550000	1	57.486750
13.566667	1	59.033625
13.583333	1	60.610625
13.600000	1	62.217250
13.616667	1	63.855125
13.633333	1	65.526250
13.650000	1	67.233500
13.666667	1	68.976125
13.683333	1	70.755625
13.700000	1	72.572125
13.716667	1	74.425000
13.733333	1	76.313125
13.750000	1	78.222500
13.766667	1	80.104875
13.783333	1	81.838375
13.800000	1	83.211625
13.816667	1	83.970250
13.833333	1	83.856750
13.850000	1	82.645500
13.866667	1	80.103250
13.883333	1	75.987250
13.900000	1	70.117875
13.916667	1	62.574875
13.933333	1	53.826000
13.950000	1	44.680750
13.966667	1	36.028000
13.983333	1	28.515375
14.000000	1	22.395125
14.016667	1	17.608500
14.033333	1	13.953375
14.050000	1	11.197500
14.066667	1	9.139875
14.083333	1	7.616625
14.100000	1	6.496875
14.116667	1	5.675875
14.133333	1	5.072375
14.150000	1	4.624750
14.166667	1	4.287250
14.183333	1	4.029125
14.200000	1	3.826750
14.216667	1	3.664375
14.233333	1	3.531250
14.250000	1	3.418750
14.266667	1	3.323500
14.283333	1	3.239750
14.300000	1	3.165375
14.316667	1	3.099000
14.333333	1	3.039375
14.350000	1	2.984875
14.366667	1	2.936875
14.383333	1	2.894875
14.400000	1	2.860500
14.416667	1	2.834250
14.433333	1	2.817625
14.450000	1	2.813125
14.466667	1	2.825250
14.483333	1	2.859750
14.500000	1	2.924250
14.516667	1	3.028625
14.533333	1	3.187625
14.550000	1	3.419875
14.566667	1	3.748500
14.583333	1	4.203125
14.600000	1	4.821375
14.616667	1	5.648000
14.633333	1	6.736625
14.650000	1	8.143875
14.666667	1	9.931875
14.683333	1	12.158875
14.700000	1	14.878375
14.716667	1	18.128000
14.733333	1	21.924250
14.750000	1	26.254000
14.766667	1	31.065375
14.783333	1	36.265250
14.800000	1	41.725750
14.816667	1	47.280125
14.833333	1	52.726875
14.850000	1	57.839625
14.866667	1	62.384250
14.883333	1	66.133750
14.900000	1	68.895875
14.916667	1	70.526625
14.933333	1	70.943625
14.950000	1	70.133500
14.966667	1	68.156500
14.983333	1	65.139375
15.000000	1	61.250750
15.016667	1	56.694125
15.033333	1	51.690375
15.050000	1	46.463375
15.066667	1	41.218500
15.083333	1	36.131250
15.100000	1	31.336125
15.116667	1	26.932250
15.133333	1	22.976125
15.150000	1	19.490250
15.166667	1	16.471500
15.183333	1	13.895500
15.200000	1	11.723625
15.216667	1	9.910750
15.233333	1	8.410875
15.250000	1	7.179875
15.266667	1	6.175500
15.283333	1	5.360625
15.300000	1	4.703625
15.316667	1	4.175375
15.333333	1	3.753500
15.350000	1	3.417250
15.366667	1	3.151375
15.383333	1	2.943625
15.400000	1	2.782500
15.416667	1	2.658750
15.433333	1	2.565750
15.450000	1	2.497000
15.466667	1	2.448625
15.483333	1	2.414000
15.500000	1	2.389250
15.516667	1	2.370250
15.533333	1	2.355000
15.550000	1	2.339250
15.566667	1	2.321500
15.583333	1	2.299000
15.600000	1	2.271875
15.616667	1	2.239125
15.633333	1	2.201750
15.650000	1	2.161250
15.666667	1	2.117125
15.683333	1	2.071625
15.700000	1	2.026500
15.716667	1	1.981250
15.733333	1	1.938125
15.750000	1	1.897125
15.766667	1	1.857875
15.783333	1	1.820750
15.800000	1	1.785500
15.816667	1	1.752375
15.833333	1	1.720000
15.850000	1	1.688500
15.866667	1	1.658000
15.883333	1	1.628625
15.900000	1	1.601375
15.916667	1	1.575625
15.933333	1	1.551500
15.950000	1	1.530250
15.966667	1	1.510750
15.983333	1	1.494875
16.000000	1	1.481625
16.016667	1	1.471125
16.033333	1	1.464125
16.050000	1	1.459250
16.066667	1	1.456875
16.083333	1	1.456250
16.100000	1	1.456750
16.116667	1	1.456750
16.133333	1	1.456250
16.150000	1	1.454625
16.166667	1	1.451375
16.183333	1	1.446750
16.200000	1	1.439125
16.216667	1	1.429750
16.233333	1	1.418000
16.250000	1	1.404375
16.266667	1	1.389000
16.283333	1	1.373000
16.300000	1	1.355750
16.316667	1	1.337750
16.333333	1	1.319125
16.350000	1	1.301500
16.366667	1	1.283875
16.383333	1	1.266625
16.400000	1	1.249750
16.416667	1	1.234125
16.433333	1	1.220000
16.450000	1	1.207750
16.466667	1	1.197250
16.483333	1	1.188875
16.500000	1	1.182750
16.516667	1	1.178375
16.533333	1	1.176625
16.550000	1	1.177625
16.566667	1	1.179750
16.583333	1	1.183500
16.600000	1	1.188000
16.616667	1	1.193750
16.633333	1	1.199250
16.650000	1	1.205000
16.666667	1	1.210250
16.683333	1	1.214500
16.700000	1	1.217375
16.716667	1	1.219625
16.733333	1	1.220625
16.750000	1	1.221250
16.766667	1	1.221500
16.783333	1	1.221250
16.800000	1	1.221125
16.816667	1	1.220625
16.833333	1	1.221500
16.850000	1	1.222500
16.866667	1	1.224125
16.883333	1	1.226250
16.900000	1	1.228250
16.916667	1	1.229125
16.933333	1	1.230125
16.950000	1	1.230500
16.966667	1	1.230500
16.983333	1	1.229250
17.000000	1	1.226375
17.016667	1	1.223250
17.033333	1	1.218875
17.050000	1	1.213875
17.066667	1	1.208375
17.083333	1	1.202375
17.100000	1	1.196625
17.116667	1	1.190750
17.133333	1	1.184875
17.150000	1	1.180000
17.166667	1	1.175625
17.183333	1	1.172125
17.200000	1	1.170125
17.216667	1	1.168250
17.233333	1	1.167000
17.250000	1	1.167000
17.266667	1	1.167125
17.283333	1	1.168000
17.300000	1	1.169875
17.316667	1	1.172125
17.333333	1	1.174000
17.350000	1	1.176500
17.366667	1	1.179750
17.383333	1	1.182750
17.400000	1	1.186375
17.416667	1	1.188750
17.433333	1	1.191125
17.450000	1	1.192625
17.466667	1	1.193375
17.483333	1	1.193625
17.500000	1	1.192500
17.516667	1	1.190875
17.533333	1	1.187625
17.550000	1	1.182250
17.566667	1	1.176000
17.583333	1	1.168375
17.600000	1	1.159125
17.616667	1	1.148875
17.633333	1	1.136500
17.650000	1	1.122500
17.666667	1	1.108500
17.683333	1	1.094500
17.700000	1	1.080250
17.716667	1	1.065125
17.733333	1	1.049750
17.750000	1	1.035500
17.766667	1	1.021625
17.783333	1	1.008000
17.800000	1	0.994625
17.816667	1	0.982250
17.833333	1	0.970750
17.850000	1	0.959000
17.866667	1	0.948375
17.883333	1	0.939000
17.900000	1	0.929750
17.916667	1	0.921250
17.933333	1	0.913250
17.950000	1	0.905250
17.966667	1	0.897875
17.983333	1	0.891375
18.000000	1	0.885625
18.016667	1	0.879875
18.033333	1	0.873625
18.050000	1	0.868375
18.066667	1	0.863000
18.083333	1	0.857500
18.100000	1	0.851750
18.116667	1	0.845875
18.133333	1	0.841000
18.150000	1	0.835875
18.166667	1	0.831000
18.183333	1	0.826375
18.200000	1	0.822750
18.216667	1	0.819250
18.233333	1	0.816500
18.250000	1	0.813750
18.266667	1	0.812000
18.283333	1	0.811125
18.300000	1	0.810000
18.316667	1	0.810000
18.333333	1	0.810000
18.350000	1	0.810000
18.366667	1	0.811375
18.383333	1	0.812625
18.400000	1	0.813375
18.416667	1	0.815125
18.433333	1	0.817125
18.450000	1	0.819375
18.466667	1	0.822125
18.483333	1	0.826000
18.500000	1	0.832000
18.516667	1	0.838625
18.533333	1	0.846625
18.550000	1	0.856375
18.566667	1	0.867750
18.583333	1	0.881375
18.600000	1	0.896875
18.616667	1	0.915000
18.633333	1	0.934125
18.650000	1	0.956750
18.666667	1	0.980250
18.683333	1	1.006125
18.700000	1	1.034125
18.716667	1	1.064500
18.733333	1	1.095500
18.750000	1	1.127000
18.766667	1	1.160625
18.783333	1	1.194500
18.800000	1	1.229250
18.816667	1	1.262500
18.833333	1	1.296125
18.850000	1	1.326625
18.866667	1	1.354750
18.883333	1	1.379875
18.900000	1	1.401625
18.916667	1	1.418625
18.933333	1	1.430125
18.950000	1	1.436000
18.966667	1	1.435625
18.983333	1	1.428500
19.000000	1	1.415625
19.016667	1	1.395750
19.033333	1	1.370125
19.050000	1	1.339750
19.066667	1	1.304625
19.083333	1	1.265625
19.100000	1	1.224250
19.116667	1	1.182375
19.133333	1	1.140500
19.150000	1	1.101000
19.166667	1	1.065250
19.183333	1	1.034625
19.200000	1	1.010875
19.216667	1	0.995625
19.233333	1	0.990875
19.250000	1	0.997750
19.266667	1	1.018375
19.283333	1	1.054000
19.300000	1	1.105375
19.316667	1	1.174750
19.333333	1	1.263500
19.350000	1	1.371875
19.366667	1	1.500750
19.383333	1	1.651625
19.400000	1	1.822875
19.416667	1	2.014750
19.433333	1	2.224250
19.450000	1	2.448500
19.466667	1	2.684000
19.483333	1	2.927000
19.500000	1	3.170875
19.516667	1	3.410000
19.533333	1	3.637250
19.550000	1	3.847875
19.566667	1	4.033750
19.583333	1	4.189500
19.600000	1	4.308750
19.616667	1	4.388625
19.633333	1	4.426000
19.650000	1	4.419875
19.666667	1	4.371250
19.683333	1	4.282250
19.700000	1	4.156875
19.716667	1	3.999750
19.733333	1	3.816625
19.750000	1	3.613125
19.766667	1	3.395250
19.783333	1	3.168875
19.800000	1	2.940625
19.816667	1	2.714500
19.833333	1	2.495875
19.850000	1	2.286000
19.866667	1	2.089000
19.883333	1	1.906250
19.900000	1	1.738250
19.916667	1	1.585750
19.933333	1	1.448000
19.950000	1	1.324375
19.966667	1	1.214625
19.983333	1	1.118000
20.000000	1	1.033000
20.016667	1	0.959875
20.033333	1	0.896000
20.050000	1	0.841250
20.066667	1	0.795000
20.083333	1	0.756625
20.100000	1	0.725625
20.116667	1	0.700375
20.133333	1	0.681250
20.150000	1	0.667500
20.166667	1	0.658625
20.183333	1	0.653000
20.200000	1	0.651250
20.216667	1	0.652875
20.233333	1	0.656000
20.250000	1	0.662250
20.266667	1	0.669875
20.283333	1	0.677625
20.300000	1	0.685625
20.316667	1	0.693375
20.333333	1	0.699875
20.350000	1	0.705250
20.366667	1	0.708625
20.383333	1	0.709500
20.400000	1	0.708000
20.416667	1	0.705375
20.433333	1	0.699750
20.450000	1	0.692625
20.466667	1	0.684625
20.483333	1	0.676375
20.500000	1	0.668000
20.516667	1	0.661750
20.533333	1	0.657750
20.550000	1	0.656250
20.566667	1	0.659625
20.583333	1	0.667000
20.600000	1	0.680875
20.616667	1	0.700875
20.633333	1	0.727875
20.650000	1	0.762500
20.666667	1	0.805125
20.683333	1	0.855000
20.700000	1	0.911250
20.716667	1	0.974375
20.733333	1	1.043125
20.750000	1	1.115750
20.766667	1	1.191125
20.783333	1	1.267750
20.800000	1	1.342375
20.816667	1	1.412500
20.833333	1	1.477750
20.850000	1	1.533625
20.866667	1	1.579000
20.883333	1	1.613250
20.900000	1	1.634625
20.916667	1	1.641625
20.933333	1	1.634500
20.950000	1	1.613375
20.966667	1	1.579125
20.983333	1	1.533250
21.000000	1	1.478000
21.016667	1	1.414000
21.033333	1	1.342875
21.050000	1	1.268750
21.066667	1	1.192500
21.083333	1	1.115125
21.100000	1	1.040250
21.116667	1	0.967625
21.133333	1	0.899750
21.150000	1	0.836250
21.166667	1	0.777500
21.183333	1	0.724875
21.200000	1	0.676375
21.216667	1	0.633500
21.233333	1	0.596125
21.250000	1	0.562500
21.266667	1	0.533250
21.283333	1	0.508500
21.300000	1	0.487500
21.316667	1	0.470000
21.333333	1	0.454750
21.350000	1	0.441625
21.366667	1	0.430500
21.383333	1	0.421625
21.400000	1	0.412875
21.416667	1	0.406625
21.433333	1	0.400750
21.450000	1	0.396375
21.466667	1	0.392125
21.483333	1	0.389500
21.500000	1	0.387125
21.516667	1	0.385250
21.533333	1	0.383375
21.550000	1	0.382500
21.566667	1	0.382250
21.583333	1	0.382875
21.600000	1	0.384125
21.616667	1	0.385625
21.633333	1	0.387750
21.650000	1	0.390250
21.666667	1	0.394375
21.683333	1	0.399250
21.700000	1	0.405125
21.716667	1	0.411625
21.733333	1	0.418750
21.750000	1	0.427875
21.766667	1	0.437750
21.783333	1	0.448375
21.800000	1	0.459875
21.816667	1	0.471750
21.833333	1	0.484125
21.850000	1	0.497375
21.866667	1	0.511000
21.883333	1	0.525250
21.900000	1	0.539375
21.916667	1	0.553875
21.933333	1	0.567625
21.950000	1	0.581375
21.966667	1	0.594625
21.983333	1	0.607125
22.000000	1	0.617875
22.016667	1	0.628250
22.033333	1	0.637125
22.050000	1	0.644750
22.066667	1	0.650500
22.083333	1	0.654750
22.100000	1	0.657625
22.116667	1	0.658000
22.133333	1	0.657625
22.150000	1	0.656125
22.166667	1	0.653000
22.183333	1	0.647625
22.200000	1	0.641000
22.216667	1	0.633125
22.233333	1	0.624000
22.250000	1	0.613250
22.266667	1	0.600750
22.283333	1	0.588000
22.300000	1	0.574625
22.316667	1	0.559625
22.333333	1	0.544125
22.350000	1	0.528250
22.366667	1	0.511750
22.383333	1	0.495125
22.400000	1	0.478500
22.416667	1	0.462125
22.433333	1	0.446750
22.450000	1	0.430500
22.466667	1	0.415000
22.483333	1	0.400000
22.500000	1	0.386375
22.516667	1	0.372500
22.533333	1	0.359875
22.550000	1	0.347750
22.566667	1	0.336875
22.583333	1	0.327125
22.600000	1	0.317750
22.616667	1	0.308875
22.633333	1	0.300750
22.650000	1	0.294375
22.666667	1	0.287000
22.683333	1	0.280500
22.700000	1	0.274625
22.716667	1	0.269250
22.733333	1	0.264375
22.750000	1	0.259500
22.766667	1	0.255375
22.783333	1	0.252000
22.800000	1	0.248375
22.816667	1	0.245250
22.833333	1	0.241625
22.850000	1	0.238625
22.866667	1	0.237000
22.883333	1	0.234625
22.900000	1	0.232500
22.916667	1	0.231500
22.933333	1	0.230875
22.950000	1	0.230375
22.966667	1	0.229875
22.983333	1	0.229750
23.000000	1	0.230250
23.016667	1	0.231000
23.033333	1	0.231625
23.050000	1	0.233250
23.066667	1	0.234625
23.083333	1	0.236375
23.100000	1	0.238625
23.116667	1	0.240375
23.133333	1	0.242875
23.150000	1	0.245500
23.166667	1	0.248500
23.183333	1	0.251375
23.200000	1	0.254625
23.216667	1	0.258000
23.233333	1	0.261750
23.250000	1	0.266250
23.266667	1	0.271000
23.283333	1	0.278125
23.300000	1	0.286125
23.316667	1	0.295875
23.333333	1	0.308625
23.350000	1	0.324750
23.366667	1	0.343875
23.383333	1	0.367125
23.400000	1	0.396625
23.416667	1	0.432250
23.433333	1	0.475750
23.450000	1	0.528875
23.466667	1	0.591500
23.483333	1	0.666250
23.500000	1	0.753875
23.516667	1	0.855625
23.533333	1	0.973125
23.550000	1	1.108250
23.566667	1	1.261375
23.583333	1	1.434250
23.600000	1	1.626375
23.616667	1	1.839625
23.633333	1	2.072250
23.650000	1	2.323375
23.666667	1	2.591750
23.683333	1	2.875875
23.700000	1	3.172500
23.716667	1	3.477250
23.733333	1	3.787125
23.750000	1	4.096125
23.766667	1	4.398875
23.783333	1	4.688875
23.800000	1	4.960250
23.816667	1	5.206625
23.833333	1	5.422000
23.850000	1	5.602500
23.866667	1	5.742250
23.883333	1	5.840000
23.900000	1	5.893125
23.916667	1	5.900375
23.933333	1	5.861000
23.950000	1	5.776625
23.966667	1	5.651000
23.983333	1	5.487375
24.000000	1	5.290375
24.016667	1	5.065125
24.033333	1	4.816500
24.050000	1	4.551750
24.066667	1	4.274500
24.083333	1	3.990750
24.100000	1	3.705750
24.116667	1	3.423500
24.133333	1	3.148500
24.150000	1	2.883125
24.166667	1	2.630250
24.183333	1	2.392375
24.200000	1	2.170500
24.216667	1	1.965375
24.233333	1	1.777125
24.250000	1	1.604875
24.266667	1	1.450125
24.283333	1	1.310875
24.300000	1	1.185875
24.316667	1	1.074875
24.333333	1	0.976625
24.350000	1	0.889875
24.366667	1	0.814750
24.383333	1	0.748500
24.400000	1	0.692000
24.416667	1	0.642500
24.433333	1	0.600500
24.450000	1	0.564500
24.466667	1	0.534000
24.483333	1	0.508000
24.500000	1	0.485625
24.516667	1	0.467125
24.533333	1	0.450625
24.550000	1	0.436625
24.566667	1	0.425250
24.583333	1	0.414500
24.600000	1	0.405000
24.616667	1	0.396500
24.633333	1	0.389000
24.650000	1	0.381500
24.666667	1	0.375000
24.683333	1	0.368500
24.700000	1	0.362125
24.716667	1	0.355125
24.733333	1	0.348500
24.750000	1	0.342500
24.766667	1	0.337125
24.783333	1	0.330875
24.800000	1	0.324750
24.816667	1	0.318875
24.833333	1	0.313250
24.850000	1	0.307875
24.866667	1	0.303625
24.883333	1	0.299625
24.900000	1	0.296250
24.916667	1	0.292875
24.933333	1	0.288875
24.950000	1	0.285500
24.966667	1	0.282875
24.983333	1	0.280750
25.000000	1	0.278000
25.016667	1	0.275750
25.033333	1	0.273625
25.050000	1	0.270500
25.066667	1	0.268125
25.083333	1	0.266250
25.100000	1	0.264000
25.116667	1	0.261875
25.133333	1	0.259875
25.150000	1	0.257250
25.166667	1	0.254125
25.183333	1	0.250500
25.200000	1	0.247625
25.216667	1	0.244000
25.233333	1	0.241375
25.250000	1	0.238500
25.266667	1	0.235250
25.283333	1	0.232500
25.300000	1	0.229625
25.316667	1	0.226875
25.333333	1	0.224625
25.350000	1	0.221125
25.366667	1	0.218125
25.383333	1	0.215375
25.400000	1	0.212875
25.416667	1	0.211125
25.433333	1	0.209500
25.450000	1	0.208625
25.466667	1	0.207500
25.483333	1	0.207250
25.500000	1	0.206500
25.516667	1	0.206000
25.533333	1	0.206000
25.550000	1	0.206750
25.566667	1	0.207750
25.583333	1	0.208000
25.600000	1	0.208875
25.616667	1	0.209625
25.633333	1	0.211250
25.650000	1	0.212375
25.666667	1	0.213250
25.683333	1	0.214750
25.700000	1	0.216125
25.716667	1	0.217250
25.733333	1	0.218875
25.750000	1	0.219875
25.766667	1	0.221125
25.783333	1	0.222875
25.800000	1	0.224000
25.816667	1	0.225375
25.833333	1	0.227250
25.850000	1	0.229125
25.866667	1	0.230875
25.883333	1	0.233000
25.900000	1	0.235625
25.916667	1	0.237625
25.933333	1	0.240625
25.950000	1	0.243250
25.966667	1	0.246500
25.983333	1	0.249625
26.000000	1	0.253000
26.016667	1	0.256875
26.033333	1	0.260125
26.050000	1	0.264000
26.066667	1	0.268500
26.083333	1	0.272625
26.100000	1	0.277000
26.116667	1	0.281000
26.133333	1	0.285125
26.150000	1	0.289125
26.166667	1	0.292500
26.183333	1	0.296125
26.200000	1	0.298750
26.216667	1	0.301250
26.233333	1	0.303875
26.250000	1	0.305750
26.266667	1	0.306750
26.283333	1	0.308000
26.300000	1	0.307625
26.316667	1	0.306625
26.333333	1	0.305375
26.350000	1	0.303500
26.366667	1	0.300875
26.383333	1	0.298500
26.400000	1	0.295125
26.416667	1	0.291625
26.433333	1	0.287625
26.450000	1	0.282625
26.466667	1	0.277875
26.483333	1	0.272250
26.500000	1	0.266625
26.516667	1	0.261000
26.533333	1	0.255250
26.550000	1	0.249000
26.566667	1	0.242875
26.583333	1	0.237000
26.600000	1	0.230250
26.616667	1	0.223500
26.633333	1	0.218375
26.650000	1	0.212500
26.666667	1	0.206750
26.683333	1	0.202250
26.700000	1	0.197375
26.716667	1	0.192000
26.733333	1	0.186750
26.750000	1	0.182625
26.766667	1	0.178375
26.783333	1	0.175125
26.800000	1	0.171625
26.816667	1	0.168625
26.833333	1	0.165875
26.850000	1	0.163500
26.866667	1	0.161875
26.883333	1	0.160125
26.900000	1	0.159000
26.916667	1	0.157625
26.933333	1	0.156750
26.950000	1	0.155875
26.966667	1	0.155125
26.983333	1	0.156250
27.000000	1	0.157000
27.016667	1	0.158875
27.033333	1	0.161500
27.050000	1	0.164125
27.066667	1	0.167750
27.083333	1	0.172125
27.100000	1	0.178000
27.116667	1	0.184375
27.133333	1	0.191625
27.150000	1	0.200125
27.166667	1	0.210125
27.183333	1	0.221625
27.200000	1	0.235500
27.216667	1	0.251625
27.233333	1	0.270375
27.250000	1	0.291375
27.266667	1	0.315625
27.283333	1	0.343500
27.300000	1	0.375500
27.316667	1	0.412750
27.333333	1	0.454875
27.350000	1	0.502000
27.366667	1	0.555875
27.383333	1	0.615875
27.400000	1	0.683625
27.416667	1	0.758875
27.433333	1	0.842750
27.450000	1	0.936000
27.466667	1	1.038375
27.483333	1	1.151250
27.500000	1	1.273500
27.516667	1	1.405125
27.533333	1	1.547125
27.550000	1	1.699000
27.566667	1	1.859875
27.583333	1	2.027625
27.600000	1	2.203500
27.616667	1	2.384250
27.633333	1	2.569875
27.650000	1	2.758375
27.666667	1	2.947750
27.683333	1	3.135250
27.700000	1	3.317750
27.716667	1	3.493750
27.733333	1	3.659125
27.750000	1	3.812375
27.766667	1	3.950750
27.783333	1	4.071750
27.800000	1	4.172750
27.816667	1	4.251875
27.833333	1	4.308250
27.850000	1	4.339250
27.866667	1	4.344625
27.883333	1	4.323375
27.900000	1	4.277750
27.916667	1	4.206750
27.933333	1	4.112375
27.950000	1	3.995250
27.966667	1	3.859000
27.983333	1	3.705250
28.000000	1	3.537000
28.016667	1	3.356750
28.033333	1	3.167250
28.050000	1	2.972625
28.066667	1	2.775250
28.083333	1	2.577000
28.100000	1	2.380750
28.116667	1	2.189500
28.133333	1	2.005125
28.150000	1	1.828750
28.166667	1	1.662000
28.183333	1	1.505500
28.200000	1	1.360625
28.216667	1	1.228000
28.233333	1	1.105750
28.250000	1	0.994875
28.266667	1	0.895250
28.283333	1	0.806500
28.300000	1	0.728250
28.316667	1	0.659500
28.333333	1	0.599500
28.350000	1	0.548000
28.366667	1	0.504125
28.383333	1	0.467875
28.400000	1	0.437875
28.416667	1	0.413875
28.433333	1	0.395000
28.450000	1	0.381500
28.466667	1	0.371625
28.483333	1	0.365125
28.500000	1	0.362125
28.516667	1	0.362375
28.533333	1	0.364750
28.550000	1	0.369875
28.566667	1	0.376750
28.583333	1	0.384625
28.600000	1	0.394250
28.616667	1	0.405000
28.633333	1	0.416625
28.650000	1	0.428125
28.666667	1	0.439875
28.683333	1	0.451500
28.700000	1	0.463500
28.716667	1	0.475375
28.733333	1	0.486625
28.750000	1	0.497625
28.766667	1	0.507750
28.783333	1	0.516500
28.800000	1	0.524750
28.816667	1	0.531750
28.833333	1	0.537375
28.850000	1	0.543750
28.866667	1	0.547625
28.883333	1	0.550000
28.900000	1	0.551750
28.916667	1	0.552500
28.933333	1	0.552000
28.950000	1	0.550250
28.966667	1	0.547375
28.983333	1	0.543000
29.000000	1	0.537625
29.016667	1	0.531250
29.033333	1	0.523625
29.050000	1	0.515750
29.066667	1	0.506125
29.083333	1	0.496500
29.100000	1	0.485750
29.116667	1	0.473250
29.133333	1	0.462000
29.150000	1	0.449500
29.166667	1	0.435875
29.183333	1	0.422625
29.200000	1	0.408875
29.216667	1	0.394875
29.233333	1	0.381750
29.250000	1	0.367000
29.266667	1	0.352875
29.283333	1	0.338625
29.300000	1	0.324375
29.316667	1	0.311375
29.333333	1	0.298125
29.350000	1	0.284875
29.366667	1	0.272000
29.383333	1	0.260000
29.400000	1	0.248750
29.416667	1	0.237625
29.433333	1	0.226500
29.450000	1	0.216000
29.466667	1	0.206500
29.483333	1	0.197375
29.500000	1	0.188000
29.516667	1	0.179250
29.533333	1	0.171750
29.550000	1	0.164125
29.566667	1	0.157500
29.583333	1	0.152000
29.600000	1	0.145750
29.616667	1	0.140500
29.633333	1	0.135625
29.650000	1	0.131250
29.666667	1	0.126875
29.683333	1	0.123375
29.700000	1	0.119500
29.716667	1	0.116000
29.733333	1	0.112875
29.750000	1	0.110000
29.766667	1	0.107375
29.783333	1	0.104875
29.800000	1	0.102625
29.816667	1	0.100125
29.833333	1	0.098375
29.850000	1	0.096875
29.866667	1	0.095125
29.883333	1	0.093375
29.900000	1	0.091750
29.916667	1	0.090375
29.933333	1	0.089500
29.950000	1	0.088125
29.966667	1	0.086500
29.983333	1	0.085000
30.000000	1	0.083875
30.016667	1	0.082500
30.033333	1	0.081625
30.050000	1	0.080375
30.066667	1	0.079625
30.083333	1	0.078500
30.100000	1	0.076875
30.116667	1	0.076250
30.133333	1	0.075000
30.150000	1	0.073750
30.166667	1	0.072125
30.183333	1	0.070375
30.200000	1	0.068875
30.216667	1	0.067375
30.233333	1	0.065875
30.250000	1	0.065000
30.266667	1	0.063500
30.283333	1	0.062250
30.300000	1	0.060875
30.316667	1	0.060375
30.333333	1	0.059250
30.350000	1	0.058875
30.366667	1	0.058375
30.383333	1	0.058125
30.400000	1	0.058750
30.416667	1	0.059500
30.433333	1	0.060375
30.450000	1	0.062000
30.466667	1	0.063250
30.483333	1	0.065375
30.500000	1	0.068000
30.516667	1	0.071500
30.533333	1	0.075125
30.550000	1	0.079875
30.566667	1	0.084625
30.583333	1	0.090375
30.600000	1	0.097250
30.616667	1	0.104250
30.633333	1	0.111750
30.650000	1	0.119750
30.666667	1	0.128875
30.683333	1	0.138750
30.700000	1	0.150250
30.716667	1	0.162750
30.733333	1	0.175375
30.750000	1	0.190000
30.766667	1	0.206375
30.783333	1	0.223875
30.800000	1	0.243500
30.816667	1	0.265375
30.833333	1	0.290125
30.850000	1	0.317250
30.866667	1	0.347500
30.883333	1	0.381375
30.900000	1	0.418500
30.916667	1	0.460375
30.933333	1	0.507875
30.950000	1	0.560625
30.966667	1	0.619125
30.983333	1	0.685625
31.000000	1	0.758250
31.016667	1	0.839500
31.033333	1	0.928875
31.050000	1	1.027375
31.066667	1	1.136125
31.083333	1	1.255000
31.100000	1	1.383750
31.116667	1	1.523750
31.133333	1	1.674625
31.150000	1	1.836125
31.166667	1	2.008000
31.183333	1	2.190375
31.200000	1	2.381875
31.216667	1	2.581875
31.233333	1	2.790000
31.250000	1	3.003875
31.266667	1	3.221750
31.283333	1	3.442250
31.300000	1	3.663125
31.316667	1	3.880750
31.333333	1	4.095250
31.350000	1	4.302125
31.366667	1	4.499500
31.383333	1	4.684500
31.400000	1	4.855625
31.416667	1	5.011625
31.433333	1	5.148000
31.450000	1	5.263625
31.466667	1	5.356750
31.483333	1	5.426500
31.500000	1	5.472500
31.516667	1	5.492625
31.533333	1	5.488000
31.550000	1	5.458375
31.566667	1	5.404750
31.583333	1	5.327125
31.600000	1	5.227500
31.616667	1	5.107125
31.633333	1	4.967625
31.650000	1	4.811000
31.666667	1	4.639750
31.683333	1	4.456125
31.700000	1	4.262375
31.716667	1	4.061375
31.733333	1	3.855125
31.750000	1	3.645750
31.766667	1	3.433750
31.783333	1	3.223625
31.800000	1	3.015375
31.816667	1	2.811500
31.833333	1	2.612250
31.850000	1	2.419750
31.866667	1	2.235250
31.883333	1	2.059125
31.900000	1	1.891875
31.916667	1	1.733750
31.933333	1	1.585000
31.950000	1	1.445875
31.966667	1	1.317000
31.983333	1	1.196375
32.000000	1	1.084750
32.016667	1	0.981750
32.033333	1	0.887250
32.050000	1	0.801625
32.066667	1	0.723000
32.083333	1	0.651625
32.100000	1	0.586250
32.116667	1	0.527375
32.133333	1	0.474125
32.150000	1	0.425750
32.166667	1	0.381625
32.183333	1	0.342875
32.200000	1	0.307125
32.216667	1	0.274750
32.233333	1	0.245375
32.250000	1	0.219500
32.266667	1	0.195625
32.283333	1	0.174250
32.300000	1	0.155000
32.316667	1	0.138000
32.333333	1	0.122375
32.350000	1	0.108375
32.366667	1	0.095625
32.383333	1	0.084250
32.400000	1	0.073375
32.416667	1	0.064000
32.433333	1	0.055625
32.450000	1	0.047625
32.466667	1	0.040250
32.483333	1	0.034000
32.500000	1	0.027875
32.516667	1	0.022875
32.533333	1	0.018125
32.550000	1	0.014125
32.566667	1	0.010125
32.583333	1	0.007250
32.600000	1	0.005000
32.616667	1	0.003125
32.633333	1	0.000625
32.650000	1	-0.001000
32.666667	1	-0.002625
32.683333	1	-0.003875
32.700000	1	-0.005125
32.716667	1	-0.005875
32.733333	1	-0.006750
32.750000	1	-0.006625
32.766667	1	-0.006875
32.783333	1	-0.007125
32.800000	1	-0.007625
32.816667	1	-0.007500
32.833333	1	-0.007375
32.850000	1	-0.007250
32.866667	1	-0.006875
32.883333	1	-0.007000
32.900000	1	-0.007000
32.916667	1	-0.006875
32.933333	1	-0.007125
32.950000	1	-0.006500
32.966667	1	-0.006000
32.983333	1	-0.005500
33.000000	1	-0.005375
33.016667	1	-0.005500
33.033333	1	-0.005875
33.050000	1	-0.005875
33.066667	1	-0.005250
33.083333	1	-0.005125
33.100000	1	-0.004750
33.116667	1	-0.004500
33.133333	1	-0.004625
33.150000	1	-0.004750
33.166667	1	-0.004750
33.183333	1	-0.004875
33.200000	1	-0.004750
33.216667	1	-0.004500
33.233333	1	-0.003500
33.250000	1	-0.002875
33.266667	1	-0.002500
33.283333	1	-0.001875
33.300000	1	-0.001250
33.316667	1	-0.001125
33.333333	1	-0.000250
33.350000	1	0.000625
33.366667	1	0.001625
33.383333	1	0.003125
33.400000	1	0.004750
33.416667	1	0.005875
33.433333	1	0.007625
33.450000	1	0.009125
33.466667	1	0.010625
33.483333	1	0.012375
33.500000	1	0.014375
33.516667	1	0.016750
33.533333	1	0.020000
33.550000	1	0.022375
33.566667	1	0.024625
33.583333	1	0.026750
33.600000	1	0.029000
33.616667	1	0.032375
33.633333	1	0.035125
33.650000	1	0.037750
33.666667	1	0.040750
33.683333	1	0.043375
33.700000	1	0.046000
33.716667	1	0.048875
33.733333	1	0.051375
33.750000	1	0.054375
33.766667	1	0.056875
33.783333	1	0.059250
33.800000	1	0.061500
33.816667	1	0.063750
33.833333	1	0.066125
33.850000	1	0.068500
33.866667	1	0.070625
33.883333	1	0.072125
33.900000	1	0.074000
33.916667	1	0.075750
33.933333	1	0.077250
33.950000	1	0.078500
33.966667	1	0.079375
33.983333	1	0.080625
34.000000	1	0.081250
34.016667	1	0.081875
34.033333	1	0.082750
34.050000	1	0.083250
34.066667	1	0.084375
34.083333	1	0.084625
34.100000	1	0.085000
34.116667	1	0.085750
34.133333	1	0.085875
34.150000	1	0.087125
34.166667	1	0.088125
34.183333	1	0.089000
34.200000	1	0.089625
34.216667	1	0.090250
34.233333	1	0.090750
34.250000	1	0.092000
34.266667	1	0.093500
34.283333	1	0.094625
34.300000	1	0.096250
34.316667	1	0.096750
34.333333	1	0.097875
34.350000	1	0.099625
34.366667	1	0.100375
34.383333	1	0.102375
34.400000	1	0.103625
34.416667	1	0.105125
34.433333	1	0.106875
34.450000	1	0.107000
34.466667	1	0.107625
34.483333	1	0.108250
34.500000	1	0.109125
34.516667	1	0.110250
34.533333	1	0.111125
34.550000	1	0.112125
34.566667	1	0.112250
34.583333	1	0.113250
34.600000	1	0.113000
34.616667	1	0.112625
34.633333	1	0.112875
34.650000	1	0.112375
34.666667	1	0.112000
34.683333	1	0.111250
34.700000	1	0.110500
34.716667	1	0.109250
34.733333	1	0.108375
34.750000	1	0.107250
34.766667	1	0.105625
34.783333	1	0.104500
34.800000	1	0.102625
34.816667	1	0.100625
34.833333	1	0.099250
34.850000	1	0.097625
34.866667	1	0.095750
34.883333	1	0.093000
34.900000	1	0.091500
34.916667	1	0.089375
34.933333	1	0.087500
34.950000	1	0.085625
34.966667	1	0.083125
34.983333	1	0.081000
35.000000	1	0.079000
35.016667	1	0.076875
35.033333	1	0.075875
35.050000	1	0.074625
35.066667	1	0.072625
35.083333	1	0.071375
35.100000	1	0.070375
35.116667	1	0.069625
35.133333	1	0.068375
35.150000	1	0.067750
35.166667	1	0.066875
35.183333	1	0.066000
35.200000	1	0.064750
35.216667	1	0.065000
35.233333	1	0.063875
35.250000	1	0.063125
35.266667	1	0.062875
35.283333	1	0.062625
35.300000	1	0.063000
35.316667	1	0.063000
35.333333	1	0.063375
35.350000	1	0.063875
35.366667	1	0.064500
35.383333	1	0.065250
35.400000	1	0.066000
35.416667	1	0.066375
35.433333	1	0.067000
35.450000	1	0.067250
35.466667	1	0.068500
35.483333	1	0.069125
35.500000	1	0.070375
35.516667	1	0.071250
35.533333	1	0.072500
35.550000	1	0.073500
35.566667	1	0.074750
35.583333	1	0.075500
35.600000	1	0.076000
35.616667	1	0.076875
35.633333	1	0.078000
35.650000	1	0.079000
35.666667	1	0.080000
35.683333	1	0.080375
35.700000	1	0.081000
35.716667	1	0.081750
35.733333	1	0.082250
35.750000	1	0.082750
35.766667	1	0.084125
35.783333	1	0.084625
35.800000	1	0.084875
35.816667	1	0.085250
35.833333	1	0.085625
35.850000	1	0.086375
35.866667	1	0.087000
35.883333	1	0.087875
35.900000	1	0.089000
35.916667	1	0.089375
35.933333	1	0.089875
35.950000	1	0.091250
35.966667	1	0.092000
35.983333	1	0.092625
36.000000	1	0.093750
36.016667	1	0.093875
36.033333	1	0.094625
36.050000	1	0.095125
36.066667	1	0.095875
36.083333	1	0.096500
36.100000	1	0.097125
36.116667	1	0.097750
36.133333	1	0.098125
36.150000	1	0.098125
36.166667	1	0.098875
36.183333	1	0.099000
36.200000	1	0.099250
36.216667	1	0.099750
36.233333	1	0.099875
36.250000	1	0.099875
36.266667	1	0.099125
36.283333	1	0.097875
36.300000	1	0.097500
36.316667	1	0.096250
36.333333	1	0.095000
36.350000	1	0.093375
36.366667	1	0.091625
36.383333	1	0.090250
36.400000	1	0.088250
36.416667	1	0.086125
36.433333	1	0.083250
36.450000	1	0.080625
36.466667	1	0.078375
36.483333	1	0.075625
36.500000	1	0.072000
36.516667	1	0.068625
36.533333	1	0.065625
36.550000	1	0.062250
36.566667	1	0.058375
36.583333	1	0.055000
36.600000	1	0.051125
36.616667	1	0.046875
36.633333	1	0.043125
36.650000	1	0.039375
36.666667	1	0.035625
36.683333	1	0.032375
36.700000	1	0.028250
36.716667	1	0.024625
36.733333	1	0.021000
36.750000	1	0.017500
36.766667	1	0.013750
36.783333	1	0.010750
36.800000	1	0.007375
36.816667	1	0.003875
36.833333	1	0.001125
36.850000	1	-0.001000
36.866667	1	-0.003875
36.883333	1	-0.006250
36.900000	1	-0.008375
36.916667	1	-0.011000
36.933333	1	-0.013000
36.950000	1	-0.015000
36.966667	1	-0.016375
36.983333	1	-0.017875
37.000000	1	-0.019250
37.016667	1	-0.020750
37.033333	1	-0.022250
37.050000	1	-0.023500
37.066667	1	-0.024625
37.083333	1	-0.025125
37.100000	1	-0.025625
37.116667	1	-0.026000
37.133333	1	-0.026125
37.150000	1	-0.026750
37.166667	1	-0.027875
37.183333	1	-0.028000
37.200000	1	-0.027500
37.216667	1	-0.027625
37.233333	1	-0.027250
37.250000	1	-0.027500
37.266667	1	-0.027375
37.283333	1	-0.027250
37.300000	1	-0.026375
37.316667	1	-0.025875
37.333333	1	-0.025375
37.350000	1	-0.025500
37.366667	1	-0.025000
37.383333	1	-0.024625
37.400000	1	-0.024375
37.416667	1	-0.024500
37.433333	1	-0.023750
37.450000	1	-0.022750
37.466667	1	-0.022625
37.483333	1	-0.021875
37.500000	1	-0.021750
37.516667	1	-0.021500
37.533333	1	-0.021500
37.550000	1	-0.021500
37.566667	1	-0.021250
37.583333	1	-0.021500
37.600000	1	-0.021250
37.616667	1	-0.021375
37.633333	1	-0.021125
37.650000	1	-0.021250
37.666667	1	-0.022250
37.683333	1	-0.022500
37.700000	1	-0.022625
37.716667	1	-0.023000
37.733333	1	-0.023500
37.750000	1	-0.024125
37.766667	1	-0.024875
37.783333	1	-0.025250
37.800000	1	-0.025500
37.816667	1	-0.026500
37.833333	1	-0.026375
37.850000	1	-0.027000
37.866667	1	-0.026875
37.883333	1	-0.026625
37.900000	1	-0.027375
37.916667	1	-0.028125
37.933333	1	-0.028375
37.950000	1	-0.029000
37.966667	1	-0.029000
37.983333	1	-0.028750
38.000000	1	-0.029125
38.016667	1	-0.029125
38.033333	1	-0.029125
38.050000	1	-0.029250
38.066667	1	-0.029250
38.083333	1	-0.028625
38.100000	1	-0.028625
38.116667	1	-0.028250
38.133333	1	-0.027500
38.150000	1	-0.027500
38.166667	1	-0.027250
38.183333	1	-0.026750
38.200000	1	-0.026375
38.216667	1	-0.026500
38.233333	1	-0.025875
38.250000	1	-0.025500
38.266667	1	-0.025125
38.283333	1	-0.024375
38.300000	1	-0.023875
38.316667	1	-0.022625
38.333333	1	-0.022000
38.350000	1	-0.021375
38.366667	1	-0.020500
38.383333	1	-0.020250
38.400000	1	-0.018875
38.416667	1	-0.017000
38.433333	1	-0.016375
38.450000	1	-0.015000
38.466667	1	-0.013375
38.483333	1	-0.011750
38.500000	1	-0.010500
38.516667	1	-0.009250
38.533333	1	-0.007875
38.550000	1	-0.006250
38.566667	1	-0.004750
38.583333	1	-0.003750
38.600000	1	-0.002625
38.616667	1	-0.001375
38.633333	1	-0.000500
38.650000	1	0.000000
38.666667	1	0.001250
38.683333	1	0.001250
38.700000	1	0.001875
38.716667	1	0.001750
38.733333	1	0.002125
38.750000	1	0.002000
38.766667	1	0.002000
38.783333	1	0.001750
38.800000	1	0.002000
38.816667	1	0.000875
38.833333	1	-0.000375
38.850000	1	-0.001125
38.866667	1	-0.001625
38.883333	1	-0.003000
38.900000	1	-0.004500
38.916667	1	-0.005750
38.933333	1	-0.006375
38.950000	1	-0.007375
38.966667	1	-0.008750
38.983333	1	-0.009875
39.000000	1	-0.011375
39.016667	1	-0.012500
39.033333	1	-0.013125
39.050000	1	-0.014375
39.066667	1	-0.015125
39.083333	1	-0.015750
39.100000	1	-0.016625
39.116667	1	-0.017000
39.133333	1	-0.017625
39.150000	1	-0.018125
39.166667	1	-0.018625
39.183333	1	-0.018625
39.200000	1	-0.018875
39.216667	1	-0.019500
39.233333	1	-0.019750
39.250000	1	-0.020125
39.266667	1	-0.020375
39.283333	1	-0.021000
39.300000	1	-0.021750
39.316667	1	-0.022500
39.333333	1	-0.022875
39.350000	1	-0.023125
39.366667	1	-0.024000
39.383333	1	-0.023750
39.400000	1	-0.024625
39.416667	1	-0.025000
39.433333	1	-0.025625
39.450000	1	-0.026000
39.466667	1	-0.026500
39.483333	1	-0.026750
39.500000	1	-0.027125
39.516667	1	-0.027500
39.533333	1	-0.028750
39.550000	1	-0.029375
39.566667	1	-0.029000
39.583333	1	-0.029000
39.600000	1	-0.029250
39.616667	1	-0.029000
39.633333	1	-0.028625
39.650000	1	-0.028625
39.666667	1	-0.028000
39.683333	1	-0.027000
39.700000	1	-0.027250
39.716667	1	-0.027000
39.733333	1	-0.026125
39.750000	1	-0.024750
39.766667	1	-0.024000
39.783333	1	-0.023125
39.800000	1	-0.021500
39.816667	1	-0.019500
39.833333	1	-0.018125
39.850000	1	-0.016250
39.866667	1	-0.014500
39.883333	1	-0.012750
39.900000	1	-0.011250
39.916667	1	-0.009500
39.933333	1	-0.007875
39.950000	1	-0.006125
39.966667	1	-0.004625
39.983333	1	-0.002500
40.000000	1	-0.000250
