URL	chrom://bioreactor/micro_cm7/HPLC_Ultimate_3000/Users/markusar/20240716_MA_pHrange2.seq/240.smp/RI_1.channel/RI_1.chm
Channel	RI_1

Injection Information:
Data Vault	micro_cm7
Sequence	20240716_MA_pHrange2
Name	Pv3_40H_4
Number	25
Position	BC1
Comment	
Processing Method	
Instrument Method	run_25B_method
Type	Unknown
Status	Finished
Inject Time	17.07.2024 10:29:46 +02:00
Volume (µl)	20.0000
Dilution Factor	1.0000
Weight	1.0000

Chromatogram Data Information:
Time Min. (min)	0.000000
Time Max. (min)	40.000000
Data Points	2401
Detector	RI
Generating Data System	Chromeleon 7.3.2.11814
Exporting Data System	Chromeleon 7.3.2.0
Operator	Instrument Controller
Signal Quantity	Refractive 
Signal Unit	µRIU
Signal Min.	-0.266125
Signal Max.	103.653625
Channel	RI_1
Driver Name	RID520Driver.dll
Channel Type	Evaluation
Min. Step (s)	1
Max. Step (s)	1
Average Step (s)	1

Signal Parameter Information:
Signal Info	

Chromatogram Data:
Time (min)	Step (s)	Value (µRIU)
0.000000	n.a.	0.067500
0.016667	1	0.069125
0.033333	1	0.070000
0.050000	1	0.071000
0.066667	1	0.072250
0.083333	1	0.073500
0.100000	1	0.075375
0.116667	1	0.077250
0.133333	1	0.078625
0.150000	1	0.079875
0.166667	1	0.081000
0.183333	1	0.082250
0.200000	1	0.083250
0.216667	1	0.084875
0.233333	1	0.086000
0.250000	1	0.087375
0.266667	1	0.088250
0.283333	1	0.089375
0.300000	1	0.090875
0.316667	1	0.092500
0.333333	1	0.093000
0.350000	1	0.094125
0.366667	1	0.095125
0.383333	1	0.095750
0.400000	1	0.095875
0.416667	1	0.095875
0.433333	1	0.097000
0.450000	1	0.099125
0.466667	1	0.100875
0.483333	1	0.102500
0.500000	1	0.103625
0.516667	1	0.103500
0.533333	1	0.101875
0.550000	1	0.099875
0.566667	1	0.097750
0.583333	1	0.095250
0.600000	1	0.091750
0.616667	1	0.088250
0.633333	1	0.084375
0.650000	1	0.081875
0.666667	1	0.078250
0.683333	1	0.074750
0.700000	1	0.071625
0.716667	1	0.068000
0.733333	1	0.064500
0.750000	1	0.060250
0.766667	1	0.056500
0.783333	1	0.052750
0.800000	1	0.048625
0.816667	1	0.045125
0.833333	1	0.041000
0.850000	1	0.037250
0.866667	1	0.033375
0.883333	1	0.029875
0.900000	1	0.026625
0.916667	1	0.023500
0.933333	1	0.020875
0.950000	1	0.017500
0.966667	1	0.014500
0.983333	1	0.012000
1.000000	1	0.009375
1.016667	1	0.007625
1.033333	1	0.005750
1.050000	1	0.003750
1.066667	1	0.001250
1.083333	1	-0.000250
1.100000	1	-0.002750
1.116667	1	-0.004375
1.133333	1	-0.006500
1.150000	1	-0.008500
1.166667	1	-0.010000
1.183333	1	-0.012125
1.200000	1	-0.013875
1.216667	1	-0.015875
1.233333	1	-0.017125
1.250000	1	-0.018500
1.266667	1	-0.020125
1.283333	1	-0.021750
1.300000	1	-0.023500
1.316667	1	-0.024750
1.333333	1	-0.026875
1.350000	1	-0.028750
1.366667	1	-0.030000
1.383333	1	-0.031125
1.400000	1	-0.032375
1.416667	1	-0.033875
1.433333	1	-0.034750
1.450000	1	-0.036375
1.466667	1	-0.037250
1.483333	1	-0.037625
1.500000	1	-0.037875
1.516667	1	-0.038250
1.533333	1	-0.038500
1.550000	1	-0.038250
1.566667	1	-0.037875
1.583333	1	-0.037500
1.600000	1	-0.037000
1.616667	1	-0.035625
1.633333	1	-0.034500
1.650000	1	-0.033250
1.666667	1	-0.031250
1.683333	1	-0.030250
1.700000	1	-0.028500
1.716667	1	-0.026875
1.733333	1	-0.025625
1.750000	1	-0.024000
1.766667	1	-0.022125
1.783333	1	-0.020125
1.800000	1	-0.018875
1.816667	1	-0.017375
1.833333	1	-0.015625
1.850000	1	-0.014125
1.866667	1	-0.012625
1.883333	1	-0.011250
1.900000	1	-0.009250
1.916667	1	-0.008250
1.933333	1	-0.007125
1.950000	1	-0.006000
1.966667	1	-0.005000
1.983333	1	-0.003500
2.000000	1	-0.002875
2.016667	1	-0.002500
2.033333	1	-0.002000
2.050000	1	-0.001500
2.066667	1	-0.000625
2.083333	1	0.000125
2.100000	1	0.001000
2.116667	1	0.001375
2.133333	1	0.001375
2.150000	1	0.001375
2.166667	1	0.002125
2.183333	1	0.002625
2.200000	1	0.002500
2.216667	1	0.002375
2.233333	1	0.003625
2.250000	1	0.003750
2.266667	1	0.004000
2.283333	1	0.004750
2.300000	1	0.005125
2.316667	1	0.006000
2.333333	1	0.006250
2.350000	1	0.007000
2.366667	1	0.007375
2.383333	1	0.007250
2.400000	1	0.008000
2.416667	1	0.008625
2.433333	1	0.008875
2.450000	1	0.009125
2.466667	1	0.010125
2.483333	1	0.009500
2.500000	1	0.009500
2.516667	1	0.009250
2.533333	1	0.009750
2.550000	1	0.009875
2.566667	1	0.009625
2.583333	1	0.008875
2.600000	1	0.009625
2.616667	1	0.010375
2.633333	1	0.009750
2.650000	1	0.009875
2.666667	1	0.009625
2.683333	1	0.009625
2.700000	1	0.009625
2.716667	1	0.009875
2.733333	1	0.010125
2.750000	1	0.010250
2.766667	1	0.010500
2.783333	1	0.010750
2.800000	1	0.011750
2.816667	1	0.013250
2.833333	1	0.014250
2.850000	1	0.016000
2.866667	1	0.017000
2.883333	1	0.019000
2.900000	1	0.021500
2.916667	1	0.023125
2.933333	1	0.024875
2.950000	1	0.026750
2.966667	1	0.029125
2.983333	1	0.031000
3.000000	1	0.033000
3.016667	1	0.036000
3.033333	1	0.038625
3.050000	1	0.041375
3.066667	1	0.044000
3.083333	1	0.045875
3.100000	1	0.048625
3.116667	1	0.051625
3.133333	1	0.053750
3.150000	1	0.056500
3.166667	1	0.059000
3.183333	1	0.061875
3.200000	1	0.065125
3.216667	1	0.067625
3.233333	1	0.070625
3.250000	1	0.073000
3.266667	1	0.076125
3.283333	1	0.079750
3.300000	1	0.082875
3.316667	1	0.086000
3.333333	1	0.089500
3.350000	1	0.092000
3.366667	1	0.094500
3.383333	1	0.097750
3.400000	1	0.101250
3.416667	1	0.104500
3.433333	1	0.108125
3.450000	1	0.111125
3.466667	1	0.114000
3.483333	1	0.116625
3.500000	1	0.119000
3.516667	1	0.121375
3.533333	1	0.124250
3.550000	1	0.126375
3.566667	1	0.127500
3.583333	1	0.128375
3.600000	1	0.130875
3.616667	1	0.131750
3.633333	1	0.132375
3.650000	1	0.133750
3.666667	1	0.134125
3.683333	1	0.132875
3.700000	1	0.132750
3.716667	1	0.131875
3.733333	1	0.130625
3.750000	1	0.129125
3.766667	1	0.127250
3.783333	1	0.125500
3.800000	1	0.123625
3.816667	1	0.121250
3.833333	1	0.118875
3.850000	1	0.115875
3.866667	1	0.112750
3.883333	1	0.109875
3.900000	1	0.106625
3.916667	1	0.104250
3.933333	1	0.100375
3.950000	1	0.097500
3.966667	1	0.094625
3.983333	1	0.092375
4.000000	1	0.089750
4.016667	1	0.087250
4.033333	1	0.085000
4.050000	1	0.083625
4.066667	1	0.082000
4.083333	1	0.080625
4.100000	1	0.079750
4.116667	1	0.078875
4.133333	1	0.079500
4.150000	1	0.078750
4.166667	1	0.079250
4.183333	1	0.079625
4.200000	1	0.081625
4.216667	1	0.083375
4.233333	1	0.085500
4.250000	1	0.088625
4.266667	1	0.091750
4.283333	1	0.094375
4.300000	1	0.098125
4.316667	1	0.101875
4.333333	1	0.105125
4.350000	1	0.109500
4.366667	1	0.113375
4.383333	1	0.117750
4.400000	1	0.122500
4.416667	1	0.126875
4.433333	1	0.130875
4.450000	1	0.135500
4.466667	1	0.140375
4.483333	1	0.145375
4.500000	1	0.149250
4.516667	1	0.153750
4.533333	1	0.157375
4.550000	1	0.161375
4.566667	1	0.165875
4.583333	1	0.170000
4.600000	1	0.173375
4.616667	1	0.176500
4.633333	1	0.179500
4.650000	1	0.182125
4.666667	1	0.185500
4.683333	1	0.188125
4.700000	1	0.191125
4.716667	1	0.194250
4.733333	1	0.197000
4.750000	1	0.200250
4.766667	1	0.203375
4.783333	1	0.206000
4.800000	1	0.209125
4.816667	1	0.211875
4.833333	1	0.214875
4.850000	1	0.218000
4.866667	1	0.221000
4.883333	1	0.224875
4.900000	1	0.227875
4.916667	1	0.231750
4.933333	1	0.235750
4.950000	1	0.239500
4.966667	1	0.243375
4.983333	1	0.247250
5.000000	1	0.251250
5.016667	1	0.256125
5.033333	1	0.259875
5.050000	1	0.264125
5.066667	1	0.268250
5.083333	1	0.271875
5.100000	1	0.275375
5.116667	1	0.279875
5.133333	1	0.284500
5.150000	1	0.288250
5.166667	1	0.291500
5.183333	1	0.294875
5.200000	1	0.297875
5.216667	1	0.301125
5.233333	1	0.303250
5.250000	1	0.305625
5.266667	1	0.307875
5.283333	1	0.309375
5.300000	1	0.309750
5.316667	1	0.310250
5.333333	1	0.310625
5.350000	1	0.310375
5.366667	1	0.309000
5.383333	1	0.307375
5.400000	1	0.305250
5.416667	1	0.303125
5.433333	1	0.300250
5.450000	1	0.297000
5.466667	1	0.293250
5.483333	1	0.289125
5.500000	1	0.285125
5.516667	1	0.280625
5.533333	1	0.274875
5.550000	1	0.269375
5.566667	1	0.264500
5.583333	1	0.259250
5.600000	1	0.253625
5.616667	1	0.247625
5.633333	1	0.241625
5.650000	1	0.235250
5.666667	1	0.228750
5.683333	1	0.222375
5.700000	1	0.216000
5.716667	1	0.209625
5.733333	1	0.203750
5.750000	1	0.197625
5.766667	1	0.191375
5.783333	1	0.185500
5.800000	1	0.179250
5.816667	1	0.173625
5.833333	1	0.167750
5.850000	1	0.162000
5.866667	1	0.155875
5.883333	1	0.150250
5.900000	1	0.144375
5.916667	1	0.138750
5.933333	1	0.133250
5.950000	1	0.128500
5.966667	1	0.122500
5.983333	1	0.117125
6.000000	1	0.112750
6.016667	1	0.107750
6.033333	1	0.103125
6.050000	1	0.098625
6.066667	1	0.093875
6.083333	1	0.089625
6.100000	1	0.085375
6.116667	1	0.081125
6.133333	1	0.076500
6.150000	1	0.072875
6.166667	1	0.069500
6.183333	1	0.066125
6.200000	1	0.061875
6.216667	1	0.058375
6.233333	1	0.054750
6.250000	1	0.051125
6.266667	1	0.047625
6.283333	1	0.044750
6.300000	1	0.041875
6.316667	1	0.039000
6.333333	1	0.036875
6.350000	1	0.034500
6.366667	1	0.032375
6.383333	1	0.030125
6.400000	1	0.028250
6.416667	1	0.026375
6.433333	1	0.024500
6.450000	1	0.022625
6.466667	1	0.021000
6.483333	1	0.019375
6.500000	1	0.018500
6.516667	1	0.017250
6.533333	1	0.016250
6.550000	1	0.016000
6.566667	1	0.015250
6.583333	1	0.015000
6.600000	1	0.015125
6.616667	1	0.015750
6.633333	1	0.016250
6.650000	1	0.017500
6.666667	1	0.017875
6.683333	1	0.019250
6.700000	1	0.020875
6.716667	1	0.023375
6.733333	1	0.025875
6.750000	1	0.029250
6.766667	1	0.032375
6.783333	1	0.036250
6.800000	1	0.039625
6.816667	1	0.044250
6.833333	1	0.049375
6.850000	1	0.054125
6.866667	1	0.059625
6.883333	1	0.064750
6.900000	1	0.070250
6.916667	1	0.075750
6.933333	1	0.082000
6.950000	1	0.088000
6.966667	1	0.094125
6.983333	1	0.100500
7.000000	1	0.106500
7.016667	1	0.112375
7.033333	1	0.117875
7.050000	1	0.123500
7.066667	1	0.129500
7.083333	1	0.135125
7.100000	1	0.140375
7.116667	1	0.145625
7.133333	1	0.150250
7.150000	1	0.154500
7.166667	1	0.159250
7.183333	1	0.163375
7.200000	1	0.167250
7.216667	1	0.170500
7.233333	1	0.174125
7.250000	1	0.176375
7.266667	1	0.178875
7.283333	1	0.180875
7.300000	1	0.182125
7.316667	1	0.183625
7.333333	1	0.184750
7.350000	1	0.185000
7.366667	1	0.185250
7.383333	1	0.185500
7.400000	1	0.185375
7.416667	1	0.184625
7.433333	1	0.183125
7.450000	1	0.182125
7.466667	1	0.180625
7.483333	1	0.178875
7.500000	1	0.176875
7.516667	1	0.175125
7.533333	1	0.172750
7.550000	1	0.171000
7.566667	1	0.167750
7.583333	1	0.164625
7.600000	1	0.161625
7.616667	1	0.158625
7.633333	1	0.155250
7.650000	1	0.151000
7.666667	1	0.147125
7.683333	1	0.143250
7.700000	1	0.139250
7.716667	1	0.135125
7.733333	1	0.131375
7.750000	1	0.126750
7.766667	1	0.122375
7.783333	1	0.117125
7.800000	1	0.112875
7.816667	1	0.108125
7.833333	1	0.104000
7.850000	1	0.098750
7.866667	1	0.094375
7.883333	1	0.090000
7.900000	1	0.085125
7.916667	1	0.080375
7.933333	1	0.075500
7.950000	1	0.071500
7.966667	1	0.067625
7.983333	1	0.063500
8.000000	1	0.059500
8.016667	1	0.055875
8.033333	1	0.052875
8.050000	1	0.049750
8.066667	1	0.047000
8.083333	1	0.044000
8.100000	1	0.041000
8.116667	1	0.038375
8.133333	1	0.035875
8.150000	1	0.033625
8.166667	1	0.031750
8.183333	1	0.030125
8.200000	1	0.027625
8.216667	1	0.026125
8.233333	1	0.025000
8.250000	1	0.023125
8.266667	1	0.021125
8.283333	1	0.019750
8.300000	1	0.018875
8.316667	1	0.018000
8.333333	1	0.016875
8.350000	1	0.015750
8.366667	1	0.015000
8.383333	1	0.014125
8.400000	1	0.013375
8.416667	1	0.012375
8.433333	1	0.011625
8.450000	1	0.010750
8.466667	1	0.010250
8.483333	1	0.009500
8.500000	1	0.008375
8.516667	1	0.008000
8.533333	1	0.007375
8.550000	1	0.006750
8.566667	1	0.006375
8.583333	1	0.005375
8.600000	1	0.004875
8.616667	1	0.004625
8.633333	1	0.004250
8.650000	1	0.004000
8.666667	1	0.003250
8.683333	1	0.003375
8.700000	1	0.003250
8.716667	1	0.003375
8.733333	1	0.003000
8.750000	1	0.003375
8.766667	1	0.003500
8.783333	1	0.003250
8.800000	1	0.003000
8.816667	1	0.002750
8.833333	1	0.002875
8.850000	1	0.002875
8.866667	1	0.003375
8.883333	1	0.004125
8.900000	1	0.004500
8.916667	1	0.004625
8.933333	1	0.004500
8.950000	1	0.005250
8.966667	1	0.005125
8.983333	1	0.005000
9.000000	1	0.004875
9.016667	1	0.004375
9.033333	1	0.004125
9.050000	1	0.004250
9.066667	1	0.004500
9.083333	1	0.004125
9.100000	1	0.004125
9.116667	1	0.003750
9.133333	1	0.003000
9.150000	1	0.002500
9.166667	1	0.001875
9.183333	1	0.000750
9.200000	1	0.000000
9.216667	1	-0.000375
9.233333	1	-0.001750
9.250000	1	-0.003250
9.266667	1	-0.004375
9.283333	1	-0.005875
9.300000	1	-0.008000
9.316667	1	-0.009750
9.333333	1	-0.011625
9.350000	1	-0.013875
9.366667	1	-0.016125
9.383333	1	-0.018125
9.400000	1	-0.020500
9.416667	1	-0.022625
9.433333	1	-0.024500
9.450000	1	-0.026625
9.466667	1	-0.028750
9.483333	1	-0.030750
9.500000	1	-0.032500
9.516667	1	-0.034125
9.533333	1	-0.035500
9.550000	1	-0.036125
9.566667	1	-0.037625
9.583333	1	-0.039250
9.600000	1	-0.040125
9.616667	1	-0.041250
9.633333	1	-0.042000
9.650000	1	-0.042625
9.666667	1	-0.043500
9.683333	1	-0.043625
9.700000	1	-0.043625
9.716667	1	-0.043625
9.733333	1	-0.043000
9.750000	1	-0.042625
9.766667	1	-0.041750
9.783333	1	-0.040625
9.800000	1	-0.039625
9.816667	1	-0.038125
9.833333	1	-0.036625
9.850000	1	-0.035000
9.866667	1	-0.033750
9.883333	1	-0.031500
9.900000	1	-0.029250
9.916667	1	-0.027125
9.933333	1	-0.024125
9.950000	1	-0.021500
9.966667	1	-0.018625
9.983333	1	-0.015375
10.000000	1	-0.012000
10.016667	1	-0.008125
10.033333	1	-0.004375
10.050000	1	-0.000250
10.066667	1	0.004000
10.083333	1	0.008000
10.100000	1	0.012250
10.116667	1	0.016750
10.133333	1	0.020875
10.150000	1	0.025625
10.166667	1	0.030500
10.183333	1	0.035500
10.200000	1	0.040000
10.216667	1	0.046375
10.233333	1	0.052625
10.250000	1	0.059625
10.266667	1	0.067875
10.283333	1	0.077000
10.300000	1	0.087625
10.316667	1	0.099250
10.333333	1	0.111000
10.350000	1	0.122000
10.366667	1	0.129250
10.383333	1	0.130000
10.400000	1	0.118875
10.416667	1	0.090125
10.433333	1	0.040750
10.450000	1	-0.029750
10.466667	1	-0.116375
10.483333	1	-0.204000
10.500000	1	-0.266125
10.516667	1	-0.263125
10.533333	1	-0.143500
10.550000	1	0.155250
10.566667	1	0.702125
10.583333	1	1.564750
10.600000	1	2.809500
10.616667	1	4.493750
10.633333	1	6.661125
10.650000	1	9.341625
10.666667	1	12.560375
10.683333	1	16.328500
10.700000	1	20.649000
10.716667	1	25.512125
10.733333	1	30.902375
10.750000	1	36.792375
10.766667	1	43.145125
10.783333	1	49.912875
10.800000	1	57.040500
10.816667	1	64.452375
10.833333	1	72.038250
10.850000	1	79.635625
10.866667	1	87.003625
10.883333	1	93.754250
10.900000	1	99.305750
10.916667	1	102.887750
10.933333	1	103.653625
10.950000	1	100.944750
10.966667	1	94.617750
10.983333	1	85.208250
11.000000	1	73.825125
11.016667	1	61.796250
11.033333	1	50.285000
11.050000	1	40.044125
11.066667	1	31.400625
11.083333	1	24.383000
11.100000	1	18.843375
11.116667	1	14.561625
11.133333	1	11.301625
11.150000	1	8.846250
11.166667	1	7.011750
11.183333	1	5.644500
11.200000	1	4.623375
11.216667	1	3.858500
11.233333	1	3.281750
11.250000	1	2.841625
11.266667	1	2.502000
11.283333	1	2.236250
11.300000	1	2.025375
11.316667	1	1.855250
11.333333	1	1.715625
11.350000	1	1.600625
11.366667	1	1.504125
11.383333	1	1.423375
11.400000	1	1.354875
11.416667	1	1.297000
11.433333	1	1.247875
11.450000	1	1.204750
11.466667	1	1.169375
11.483333	1	1.139000
11.500000	1	1.113250
11.516667	1	1.091250
11.533333	1	1.072625
11.550000	1	1.056125
11.566667	1	1.043000
11.583333	1	1.032250
11.600000	1	1.022250
11.616667	1	1.014000
11.633333	1	1.008000
11.650000	1	1.003875
11.666667	1	1.000750
11.683333	1	0.998750
11.700000	1	0.997500
11.716667	1	0.998625
11.733333	1	0.999875
11.750000	1	1.002625
11.766667	1	1.006250
11.783333	1	1.011125
11.800000	1	1.016750
11.816667	1	1.023625
11.833333	1	1.030250
11.850000	1	1.037125
11.866667	1	1.043125
11.883333	1	1.049250
11.900000	1	1.055125
11.916667	1	1.059875
11.933333	1	1.063250
11.950000	1	1.065500
11.966667	1	1.066750
11.983333	1	1.067875
12.000000	1	1.067250
12.016667	1	1.066250
12.033333	1	1.064750
12.050000	1	1.062750
12.066667	1	1.061375
12.083333	1	1.059500
12.100000	1	1.058875
12.116667	1	1.057375
12.133333	1	1.057250
12.150000	1	1.057250
12.166667	1	1.058000
12.183333	1	1.059125
12.200000	1	1.061125
12.216667	1	1.064125
12.233333	1	1.068125
12.250000	1	1.074000
12.266667	1	1.081375
12.283333	1	1.091250
12.300000	1	1.104875
12.316667	1	1.122125
12.333333	1	1.144750
12.350000	1	1.175625
12.366667	1	1.215250
12.383333	1	1.268500
12.400000	1	1.337125
12.416667	1	1.426250
12.433333	1	1.539875
12.450000	1	1.682750
12.466667	1	1.861500
12.483333	1	2.079750
12.500000	1	2.343375
12.516667	1	2.655875
12.533333	1	3.020750
12.550000	1	3.440125
12.566667	1	3.914250
12.583333	1	4.442000
12.600000	1	5.019750
12.616667	1	5.640250
12.633333	1	6.295500
12.650000	1	6.974500
12.666667	1	7.667750
12.683333	1	8.361125
12.700000	1	9.042125
12.716667	1	9.700750
12.733333	1	10.331125
12.750000	1	10.927625
12.766667	1	11.491375
12.783333	1	12.025125
12.800000	1	12.536375
12.816667	1	13.032250
12.833333	1	13.523125
12.850000	1	14.020000
12.866667	1	14.530125
12.883333	1	15.061750
12.900000	1	15.619875
12.916667	1	16.208500
12.933333	1	16.827375
12.950000	1	17.479750
12.966667	1	18.164000
12.983333	1	18.879125
13.000000	1	19.622875
13.016667	1	20.392500
13.033333	1	21.187125
13.050000	1	22.006750
13.066667	1	22.850625
13.083333	1	23.716750
13.100000	1	24.604625
13.116667	1	25.513125
13.133333	1	26.441375
13.150000	1	27.388750
13.166667	1	28.355125
13.183333	1	29.340000
13.200000	1	30.343500
13.216667	1	31.363125
13.233333	1	32.403125
13.250000	1	33.462500
13.266667	1	34.541875
13.283333	1	35.641625
13.300000	1	36.761500
13.316667	1	37.902500
13.333333	1	39.064125
13.350000	1	40.247000
13.366667	1	41.452750
13.383333	1	42.680500
13.400000	1	43.931625
13.416667	1	45.205125
13.433333	1	46.504000
13.450000	1	47.829875
13.466667	1	49.182000
13.483333	1	50.562750
13.500000	1	51.971625
13.516667	1	53.409750
13.533333	1	54.876125
13.550000	1	56.372750
13.566667	1	57.898375
13.583333	1	59.455125
13.600000	1	61.040375
13.616667	1	62.656750
13.633333	1	64.305375
13.650000	1	65.989250
13.666667	1	67.707875
13.683333	1	69.462250
13.700000	1	71.253500
13.716667	1	73.080875
13.733333	1	74.941000
13.750000	1	76.818625
13.766667	1	78.660250
13.783333	1	80.337375
13.800000	1	81.641000
13.816667	1	82.328500
13.833333	1	82.175500
13.850000	1	80.996375
13.866667	1	78.605125
13.883333	1	74.776625
13.900000	1	69.308375
13.916667	1	62.185875
13.933333	1	53.777875
13.950000	1	44.838750
13.966667	1	36.256125
13.983333	1	28.720625
14.000000	1	22.545750
14.016667	1	17.704250
14.033333	1	14.005375
14.050000	1	11.217375
14.066667	1	9.135375
14.083333	1	7.594250
14.100000	1	6.460250
14.116667	1	5.628750
14.133333	1	5.016875
14.150000	1	4.562625
14.166667	1	4.219625
14.183333	1	3.956000
14.200000	1	3.749875
14.216667	1	3.584000
14.233333	1	3.446625
14.250000	1	3.331875
14.266667	1	3.232500
14.283333	1	3.146000
14.300000	1	3.069125
14.316667	1	3.000500
14.333333	1	2.937750
14.350000	1	2.881125
14.366667	1	2.830750
14.383333	1	2.786000
14.400000	1	2.747250
14.416667	1	2.716875
14.433333	1	2.695000
14.450000	1	2.685375
14.466667	1	2.690875
14.483333	1	2.716750
14.500000	1	2.770125
14.516667	1	2.860125
14.533333	1	2.999750
14.550000	1	3.206250
14.566667	1	3.501375
14.583333	1	3.910375
14.600000	1	4.467250
14.616667	1	5.212500
14.633333	1	6.194375
14.650000	1	7.465375
14.666667	1	9.082750
14.683333	1	11.102625
14.700000	1	13.577000
14.716667	1	16.548000
14.733333	1	20.039875
14.750000	1	24.054250
14.766667	1	28.559750
14.783333	1	33.485875
14.800000	1	38.731375
14.816667	1	44.156000
14.833333	1	49.584875
14.850000	1	54.814625
14.866667	1	59.620375
14.883333	1	63.779500
14.900000	1	67.083125
14.916667	1	69.364125
14.933333	1	70.504625
14.950000	1	70.449125
14.966667	1	69.209750
14.983333	1	66.868000
15.000000	1	63.555250
15.016667	1	59.449125
15.033333	1	54.754000
15.050000	1	49.690625
15.066667	1	44.473625
15.083333	1	39.297625
15.100000	1	34.322250
15.116667	1	29.671000
15.133333	1	25.426875
15.150000	1	21.634375
15.166667	1	18.309500
15.183333	1	15.442625
15.200000	1	13.004125
15.216667	1	10.953000
15.233333	1	9.246625
15.250000	1	7.839125
15.266667	1	6.687125
15.283333	1	5.749500
15.300000	1	4.991375
15.316667	1	4.380875
15.333333	1	3.890750
15.350000	1	3.499250
15.366667	1	3.188625
15.383333	1	2.943125
15.400000	1	2.750625
15.416667	1	2.600750
15.433333	1	2.485500
15.450000	1	2.398625
15.466667	1	2.334500
15.483333	1	2.287125
15.500000	1	2.252625
15.516667	1	2.227250
15.533333	1	2.206500
15.550000	1	2.188625
15.566667	1	2.169750
15.583333	1	2.148500
15.600000	1	2.123875
15.616667	1	2.095250
15.633333	1	2.061750
15.650000	1	2.024875
15.666667	1	1.984500
15.683333	1	1.942250
15.700000	1	1.899250
15.716667	1	1.856750
15.733333	1	1.814875
15.750000	1	1.774375
15.766667	1	1.736125
15.783333	1	1.700750
15.800000	1	1.666875
15.816667	1	1.634750
15.833333	1	1.603250
15.850000	1	1.572875
15.866667	1	1.543125
15.883333	1	1.513875
15.900000	1	1.486500
15.916667	1	1.459250
15.933333	1	1.433750
15.950000	1	1.409500
15.966667	1	1.388000
15.983333	1	1.369250
16.000000	1	1.353000
16.016667	1	1.339625
16.033333	1	1.328625
16.050000	1	1.322000
16.066667	1	1.316750
16.083333	1	1.313500
16.100000	1	1.311750
16.116667	1	1.311875
16.133333	1	1.312625
16.150000	1	1.312875
16.166667	1	1.312250
16.183333	1	1.311000
16.200000	1	1.307250
16.216667	1	1.303500
16.233333	1	1.297500
16.250000	1	1.289250
16.266667	1	1.279625
16.283333	1	1.269625
16.300000	1	1.258000
16.316667	1	1.245250
16.333333	1	1.232250
16.350000	1	1.219750
16.366667	1	1.207125
16.383333	1	1.195000
16.400000	1	1.182875
16.416667	1	1.172250
16.433333	1	1.162125
16.450000	1	1.153625
16.466667	1	1.146625
16.483333	1	1.141125
16.500000	1	1.137375
16.516667	1	1.136125
16.533333	1	1.136500
16.550000	1	1.138250
16.566667	1	1.142375
16.583333	1	1.147875
16.600000	1	1.155000
16.616667	1	1.162375
16.633333	1	1.170500
16.650000	1	1.178000
16.666667	1	1.185500
16.683333	1	1.191750
16.700000	1	1.196625
16.716667	1	1.200500
16.733333	1	1.203375
16.750000	1	1.205250
16.766667	1	1.206625
16.783333	1	1.207125
16.800000	1	1.207250
16.816667	1	1.207000
16.833333	1	1.206875
16.850000	1	1.207000
16.866667	1	1.207250
16.883333	1	1.207625
16.900000	1	1.208000
16.916667	1	1.207875
16.933333	1	1.207250
16.950000	1	1.205875
16.966667	1	1.202000
16.983333	1	1.197875
17.000000	1	1.193750
17.016667	1	1.188250
17.033333	1	1.181875
17.050000	1	1.174000
17.066667	1	1.165875
17.083333	1	1.157125
17.100000	1	1.148000
17.116667	1	1.138375
17.133333	1	1.129625
17.150000	1	1.121500
17.166667	1	1.113250
17.183333	1	1.106000
17.200000	1	1.099500
17.216667	1	1.094250
17.233333	1	1.089875
17.250000	1	1.086000
17.266667	1	1.083250
17.283333	1	1.080750
17.300000	1	1.078500
17.316667	1	1.077250
17.333333	1	1.076250
17.350000	1	1.075750
17.366667	1	1.075500
17.383333	1	1.075625
17.400000	1	1.076000
17.416667	1	1.076500
17.433333	1	1.077375
17.450000	1	1.077000
17.466667	1	1.076375
17.483333	1	1.076000
17.500000	1	1.074125
17.516667	1	1.072000
17.533333	1	1.068875
17.550000	1	1.064625
17.566667	1	1.058625
17.583333	1	1.052000
17.600000	1	1.044000
17.616667	1	1.035000
17.633333	1	1.025375
17.650000	1	1.014625
17.666667	1	1.002750
17.683333	1	0.991250
17.700000	1	0.979375
17.716667	1	0.967500
17.733333	1	0.955750
17.750000	1	0.944125
17.766667	1	0.932750
17.783333	1	0.921875
17.800000	1	0.911875
17.816667	1	0.902875
17.833333	1	0.894125
17.850000	1	0.885500
17.866667	1	0.878250
17.883333	1	0.871375
17.900000	1	0.864875
17.916667	1	0.859250
17.933333	1	0.854500
17.950000	1	0.849750
17.966667	1	0.844500
17.983333	1	0.839500
18.000000	1	0.834375
18.016667	1	0.830375
18.033333	1	0.826625
18.050000	1	0.822625
18.066667	1	0.818750
18.083333	1	0.814625
18.100000	1	0.810375
18.116667	1	0.806500
18.133333	1	0.802125
18.150000	1	0.798125
18.166667	1	0.794750
18.183333	1	0.792000
18.200000	1	0.790000
18.216667	1	0.788000
18.233333	1	0.786750
18.250000	1	0.786875
18.266667	1	0.786625
18.283333	1	0.786500
18.300000	1	0.787625
18.316667	1	0.789750
18.333333	1	0.791625
18.350000	1	0.793875
18.366667	1	0.796875
18.383333	1	0.799500
18.400000	1	0.803250
18.416667	1	0.806375
18.433333	1	0.809875
18.450000	1	0.813875
18.466667	1	0.819125
18.483333	1	0.824250
18.500000	1	0.830500
18.516667	1	0.837250
18.533333	1	0.846000
18.550000	1	0.856375
18.566667	1	0.868250
18.583333	1	0.881000
18.600000	1	0.896375
18.616667	1	0.913250
18.633333	1	0.932250
18.650000	1	0.953125
18.666667	1	0.975500
18.683333	1	1.000500
18.700000	1	1.026125
18.716667	1	1.053625
18.733333	1	1.083000
18.750000	1	1.113500
18.766667	1	1.145500
18.783333	1	1.177250
18.800000	1	1.208875
18.816667	1	1.240875
18.833333	1	1.271750
18.850000	1	1.300000
18.866667	1	1.327500
18.883333	1	1.351875
18.900000	1	1.372625
18.916667	1	1.389125
18.933333	1	1.401125
18.950000	1	1.407875
18.966667	1	1.408625
18.983333	1	1.403000
19.000000	1	1.389875
19.016667	1	1.371750
19.033333	1	1.347875
19.050000	1	1.318250
19.066667	1	1.283875
19.083333	1	1.245875
19.100000	1	1.205500
19.116667	1	1.163750
19.133333	1	1.121375
19.150000	1	1.081125
19.166667	1	1.043125
19.183333	1	1.009500
19.200000	1	0.981625
19.216667	1	0.961125
19.233333	1	0.948875
19.250000	1	0.946625
19.266667	1	0.955250
19.283333	1	0.976625
19.300000	1	1.011625
19.316667	1	1.061125
19.333333	1	1.127125
19.350000	1	1.210250
19.366667	1	1.310875
19.383333	1	1.429500
19.400000	1	1.566750
19.416667	1	1.722000
19.433333	1	1.894000
19.450000	1	2.080250
19.466667	1	2.279875
19.483333	1	2.487500
19.500000	1	2.701000
19.516667	1	2.914625
19.533333	1	3.123125
19.550000	1	3.321875
19.566667	1	3.504250
19.583333	1	3.665250
19.600000	1	3.799250
19.616667	1	3.902250
19.633333	1	3.970250
19.650000	1	4.000875
19.666667	1	3.994500
19.683333	1	3.950750
19.700000	1	3.870875
19.716667	1	3.759000
19.733333	1	3.619750
19.750000	1	3.456875
19.766667	1	3.277000
19.783333	1	3.083750
19.800000	1	2.884125
19.816667	1	2.681875
19.833333	1	2.481500
19.850000	1	2.287375
19.866667	1	2.101875
19.883333	1	1.928125
19.900000	1	1.767500
19.916667	1	1.619500
19.933333	1	1.485625
19.950000	1	1.365625
19.966667	1	1.258750
19.983333	1	1.164250
20.000000	1	1.081375
20.016667	1	1.008625
20.033333	1	0.945875
20.050000	1	0.892375
20.066667	1	0.846875
20.083333	1	0.809625
20.100000	1	0.779000
20.116667	1	0.754000
20.133333	1	0.735125
20.150000	1	0.721000
20.166667	1	0.712000
20.183333	1	0.706000
20.200000	1	0.704500
20.216667	1	0.704625
20.233333	1	0.708250
20.250000	1	0.713750
20.266667	1	0.720500
20.283333	1	0.727750
20.300000	1	0.735250
20.316667	1	0.742750
20.333333	1	0.748625
20.350000	1	0.754250
20.366667	1	0.757875
20.383333	1	0.760250
20.400000	1	0.760875
20.416667	1	0.759375
20.433333	1	0.755875
20.450000	1	0.751125
20.466667	1	0.744875
20.483333	1	0.738000
20.500000	1	0.731500
20.516667	1	0.725625
20.533333	1	0.721375
20.550000	1	0.719875
20.566667	1	0.722375
20.583333	1	0.728625
20.600000	1	0.740375
20.616667	1	0.757375
20.633333	1	0.780750
20.650000	1	0.810250
20.666667	1	0.846125
20.683333	1	0.889625
20.700000	1	0.939625
20.716667	1	0.995125
20.733333	1	1.055875
20.750000	1	1.121375
20.766667	1	1.189250
20.783333	1	1.257500
20.800000	1	1.325625
20.816667	1	1.391000
20.833333	1	1.450875
20.850000	1	1.504000
20.866667	1	1.547875
20.883333	1	1.581000
20.900000	1	1.603000
20.916667	1	1.612500
20.933333	1	1.608875
20.950000	1	1.592875
20.966667	1	1.564125
20.983333	1	1.524875
21.000000	1	1.474875
21.016667	1	1.416750
21.033333	1	1.352000
21.050000	1	1.283250
21.066667	1	1.212750
21.083333	1	1.141750
21.100000	1	1.071250
21.116667	1	1.002625
21.133333	1	0.937750
21.150000	1	0.876500
21.166667	1	0.819625
21.183333	1	0.768375
21.200000	1	0.721625
21.216667	1	0.679000
21.233333	1	0.640750
21.250000	1	0.606875
21.266667	1	0.576625
21.283333	1	0.550500
21.300000	1	0.527875
21.316667	1	0.507125
21.333333	1	0.488875
21.350000	1	0.473375
21.366667	1	0.459500
21.383333	1	0.447000
21.400000	1	0.435875
21.416667	1	0.425625
21.433333	1	0.415750
21.450000	1	0.407125
21.466667	1	0.399125
21.483333	1	0.391750
21.500000	1	0.384750
21.516667	1	0.378250
21.533333	1	0.373125
21.550000	1	0.368625
21.566667	1	0.364500
21.583333	1	0.361250
21.600000	1	0.358250
21.616667	1	0.356375
21.633333	1	0.354375
21.650000	1	0.353750
21.666667	1	0.353750
21.683333	1	0.355250
21.700000	1	0.357000
21.716667	1	0.359875
21.733333	1	0.363375
21.750000	1	0.368500
21.766667	1	0.374125
21.783333	1	0.380625
21.800000	1	0.387875
21.816667	1	0.395875
21.833333	1	0.404750
21.850000	1	0.414375
21.866667	1	0.423250
21.883333	1	0.432875
21.900000	1	0.443250
21.916667	1	0.454375
21.933333	1	0.465375
21.950000	1	0.475750
21.966667	1	0.486375
21.983333	1	0.497500
22.000000	1	0.508125
22.016667	1	0.517125
22.033333	1	0.526500
22.050000	1	0.535000
22.066667	1	0.542750
22.083333	1	0.550250
22.100000	1	0.557000
22.116667	1	0.562375
22.133333	1	0.567125
22.150000	1	0.571000
22.166667	1	0.573375
22.183333	1	0.574750
22.200000	1	0.573875
22.216667	1	0.572625
22.233333	1	0.570000
22.250000	1	0.566875
22.266667	1	0.562375
22.283333	1	0.557000
22.300000	1	0.550375
22.316667	1	0.543125
22.333333	1	0.534875
22.350000	1	0.525500
22.366667	1	0.515375
22.383333	1	0.505250
22.400000	1	0.494875
22.416667	1	0.483750
22.433333	1	0.473125
22.450000	1	0.461875
22.466667	1	0.450375
22.483333	1	0.439875
22.500000	1	0.430000
22.516667	1	0.420875
22.533333	1	0.412375
22.550000	1	0.403875
22.566667	1	0.394750
22.583333	1	0.386000
22.600000	1	0.378250
22.616667	1	0.371125
22.633333	1	0.364125
22.650000	1	0.357375
22.666667	1	0.351375
22.683333	1	0.345500
22.700000	1	0.339875
22.716667	1	0.334125
22.733333	1	0.329000
22.750000	1	0.323500
22.766667	1	0.318625
22.783333	1	0.313000
22.800000	1	0.308000
22.816667	1	0.302750
22.833333	1	0.299625
22.850000	1	0.295750
22.866667	1	0.292125
22.883333	1	0.288625
22.900000	1	0.285000
22.916667	1	0.282375
22.933333	1	0.279625
22.950000	1	0.277875
22.966667	1	0.276875
22.983333	1	0.275750
23.000000	1	0.274750
23.016667	1	0.275000
23.033333	1	0.274750
23.050000	1	0.275125
23.066667	1	0.275375
23.083333	1	0.276500
23.100000	1	0.277250
23.116667	1	0.278500
23.133333	1	0.280250
23.150000	1	0.282625
23.166667	1	0.283875
23.183333	1	0.286375
23.200000	1	0.288750
23.216667	1	0.291875
23.233333	1	0.295125
23.250000	1	0.298375
23.266667	1	0.302750
23.283333	1	0.308125
23.300000	1	0.314750
23.316667	1	0.324000
23.333333	1	0.335125
23.350000	1	0.349500
23.366667	1	0.367750
23.383333	1	0.389000
23.400000	1	0.416250
23.416667	1	0.449875
23.433333	1	0.489875
23.450000	1	0.537375
23.466667	1	0.595375
23.483333	1	0.663375
23.500000	1	0.743500
23.516667	1	0.836500
23.533333	1	0.943875
23.550000	1	1.066750
23.566667	1	1.206750
23.583333	1	1.363250
23.600000	1	1.538625
23.616667	1	1.731625
23.633333	1	1.943000
23.650000	1	2.171250
23.666667	1	2.415750
23.683333	1	2.675750
23.700000	1	2.948500
23.716667	1	3.230375
23.733333	1	3.518375
23.750000	1	3.807625
23.766667	1	4.092875
23.783333	1	4.370250
23.800000	1	4.632000
23.816667	1	4.873625
23.833333	1	5.089625
23.850000	1	5.275750
23.866667	1	5.426000
23.883333	1	5.538375
23.900000	1	5.610375
23.916667	1	5.638875
23.933333	1	5.625125
23.950000	1	5.568500
23.966667	1	5.471625
23.983333	1	5.336750
24.000000	1	5.167625
24.016667	1	4.969125
24.033333	1	4.745875
24.050000	1	4.503750
24.066667	1	4.246750
24.083333	1	3.980875
24.100000	1	3.711000
24.116667	1	3.440875
24.133333	1	3.175375
24.150000	1	2.917375
24.166667	1	2.670500
24.183333	1	2.435750
24.200000	1	2.215625
24.216667	1	2.011250
24.233333	1	1.822750
24.250000	1	1.651250
24.266667	1	1.495500
24.283333	1	1.355000
24.300000	1	1.229625
24.316667	1	1.118500
24.333333	1	1.020000
24.350000	1	0.933250
24.366667	1	0.857625
24.383333	1	0.793250
24.400000	1	0.737625
24.416667	1	0.690500
24.433333	1	0.650125
24.450000	1	0.616125
24.466667	1	0.588750
24.483333	1	0.566625
24.500000	1	0.548500
24.516667	1	0.533625
24.533333	1	0.521250
24.550000	1	0.511750
24.566667	1	0.503500
24.583333	1	0.496875
24.600000	1	0.491750
24.616667	1	0.488250
24.633333	1	0.484750
24.650000	1	0.481625
24.666667	1	0.479625
24.683333	1	0.476750
24.700000	1	0.474375
24.716667	1	0.471000
24.733333	1	0.467500
24.750000	1	0.463875
24.766667	1	0.460875
24.783333	1	0.457750
24.800000	1	0.454000
24.816667	1	0.450000
24.833333	1	0.446000
24.850000	1	0.441875
24.866667	1	0.437375
24.883333	1	0.433125
24.900000	1	0.428750
24.916667	1	0.424250
24.933333	1	0.419500
24.950000	1	0.415375
24.966667	1	0.410625
24.983333	1	0.405250
25.000000	1	0.400500
25.016667	1	0.395500
25.033333	1	0.390250
25.050000	1	0.385875
25.066667	1	0.381125
25.083333	1	0.375875
25.100000	1	0.370500
25.116667	1	0.365625
25.133333	1	0.360000
25.150000	1	0.354750
25.166667	1	0.348500
25.183333	1	0.343375
25.200000	1	0.337875
25.216667	1	0.331875
25.233333	1	0.326125
25.250000	1	0.320875
25.266667	1	0.315375
25.283333	1	0.310000
25.300000	1	0.305125
25.316667	1	0.300000
25.333333	1	0.295500
25.350000	1	0.290250
25.366667	1	0.285250
25.383333	1	0.280875
25.400000	1	0.277000
25.416667	1	0.273750
25.433333	1	0.270875
25.450000	1	0.268000
25.466667	1	0.265750
25.483333	1	0.263250
25.500000	1	0.261000
25.516667	1	0.259500
25.533333	1	0.258750
25.550000	1	0.258250
25.566667	1	0.257375
25.583333	1	0.257125
25.600000	1	0.257750
25.616667	1	0.259000
25.633333	1	0.259875
25.650000	1	0.261000
25.666667	1	0.262375
25.683333	1	0.264625
25.700000	1	0.266500
25.716667	1	0.268875
25.733333	1	0.271875
25.750000	1	0.275125
25.766667	1	0.278125
25.783333	1	0.281750
25.800000	1	0.285750
25.816667	1	0.289500
25.833333	1	0.293750
25.850000	1	0.298500
25.866667	1	0.303375
25.883333	1	0.308125
25.900000	1	0.313875
25.916667	1	0.319875
25.933333	1	0.326500
25.950000	1	0.332625
25.966667	1	0.339625
25.983333	1	0.345875
26.000000	1	0.352625
26.016667	1	0.358750
26.033333	1	0.365375
26.050000	1	0.372750
26.066667	1	0.379625
26.083333	1	0.386000
26.100000	1	0.391875
26.116667	1	0.398375
26.133333	1	0.404000
26.150000	1	0.409375
26.166667	1	0.414625
26.183333	1	0.419000
26.200000	1	0.422875
26.216667	1	0.426125
26.233333	1	0.429125
26.250000	1	0.431500
26.266667	1	0.433625
26.283333	1	0.435250
26.300000	1	0.435375
26.316667	1	0.435375
26.333333	1	0.434375
26.350000	1	0.432625
26.366667	1	0.430375
26.383333	1	0.427125
26.400000	1	0.423625
26.416667	1	0.419625
26.433333	1	0.415500
26.450000	1	0.410000
26.466667	1	0.404125
26.483333	1	0.397625
26.500000	1	0.391250
26.516667	1	0.384875
26.533333	1	0.377500
26.550000	1	0.370875
26.566667	1	0.363250
26.583333	1	0.355375
26.600000	1	0.347125
26.616667	1	0.339125
26.633333	1	0.331625
26.650000	1	0.323750
26.666667	1	0.315875
26.683333	1	0.308375
26.700000	1	0.301250
26.716667	1	0.293625
26.733333	1	0.286125
26.750000	1	0.278375
26.766667	1	0.270875
26.783333	1	0.264875
26.800000	1	0.258125
26.816667	1	0.252250
26.833333	1	0.246875
26.850000	1	0.242125
26.866667	1	0.237500
26.883333	1	0.233250
26.900000	1	0.229250
26.916667	1	0.225375
26.933333	1	0.222250
26.950000	1	0.220000
26.966667	1	0.217250
26.983333	1	0.215750
27.000000	1	0.214500
27.016667	1	0.213500
27.033333	1	0.213625
27.050000	1	0.215125
27.066667	1	0.217125
27.083333	1	0.219125
27.100000	1	0.222500
27.116667	1	0.227500
27.133333	1	0.233375
27.150000	1	0.240250
27.166667	1	0.249250
27.183333	1	0.260000
27.200000	1	0.273250
27.216667	1	0.288500
27.233333	1	0.306875
27.250000	1	0.328000
27.266667	1	0.352500
27.283333	1	0.380250
27.300000	1	0.412125
27.316667	1	0.449000
27.333333	1	0.491500
27.350000	1	0.539375
27.366667	1	0.592750
27.383333	1	0.652875
27.400000	1	0.720750
27.416667	1	0.796125
27.433333	1	0.879625
27.450000	1	0.972375
27.466667	1	1.073875
27.483333	1	1.184875
27.500000	1	1.305625
27.516667	1	1.435250
27.533333	1	1.575125
27.550000	1	1.723375
27.566667	1	1.880125
27.583333	1	2.044750
27.600000	1	2.215875
27.616667	1	2.392250
27.633333	1	2.573500
27.650000	1	2.757375
27.666667	1	2.941500
27.683333	1	3.124625
27.700000	1	3.303125
27.716667	1	3.475625
27.733333	1	3.638500
27.750000	1	3.789625
27.766667	1	3.926625
27.783333	1	4.046750
27.800000	1	4.148750
27.816667	1	4.229625
27.833333	1	4.288000
27.850000	1	4.323500
27.866667	1	4.333375
27.883333	1	4.318625
27.900000	1	4.278625
27.916667	1	4.214875
27.933333	1	4.126750
27.950000	1	4.017375
27.966667	1	3.888625
27.983333	1	3.742875
28.000000	1	3.582375
28.016667	1	3.410125
28.033333	1	3.228125
28.050000	1	3.039875
28.066667	1	2.848500
28.083333	1	2.655375
28.100000	1	2.463750
28.116667	1	2.276500
28.133333	1	2.095125
28.150000	1	1.921500
28.166667	1	1.755875
28.183333	1	1.601000
28.200000	1	1.457000
28.216667	1	1.323500
28.233333	1	1.200625
28.250000	1	1.089375
28.266667	1	0.987750
28.283333	1	0.896375
28.300000	1	0.814750
28.316667	1	0.743000
28.333333	1	0.679625
28.350000	1	0.624625
28.366667	1	0.577250
28.383333	1	0.536875
28.400000	1	0.502250
28.416667	1	0.473125
28.433333	1	0.450125
28.450000	1	0.431750
28.466667	1	0.416375
28.483333	1	0.405375
28.500000	1	0.397625
28.516667	1	0.393125
28.533333	1	0.391625
28.550000	1	0.391500
28.566667	1	0.393875
28.583333	1	0.397625
28.600000	1	0.403000
28.616667	1	0.410250
28.633333	1	0.418500
28.650000	1	0.427250
28.666667	1	0.436875
28.683333	1	0.446500
28.700000	1	0.456875
28.716667	1	0.467875
28.733333	1	0.478375
28.750000	1	0.488125
28.766667	1	0.498375
28.783333	1	0.507625
28.800000	1	0.516750
28.816667	1	0.525000
28.833333	1	0.532125
28.850000	1	0.538750
28.866667	1	0.543875
28.883333	1	0.548125
28.900000	1	0.551625
28.916667	1	0.553250
28.933333	1	0.553750
28.950000	1	0.553375
28.966667	1	0.552000
28.983333	1	0.548750
29.000000	1	0.544750
29.016667	1	0.539500
29.033333	1	0.532625
29.050000	1	0.524625
29.066667	1	0.516250
29.083333	1	0.506250
29.100000	1	0.494875
29.116667	1	0.482750
29.133333	1	0.470250
29.150000	1	0.456625
29.166667	1	0.442375
29.183333	1	0.428375
29.200000	1	0.413750
29.216667	1	0.398500
29.233333	1	0.382125
29.250000	1	0.367000
29.266667	1	0.351375
29.283333	1	0.335500
29.300000	1	0.319750
29.316667	1	0.304250
29.333333	1	0.289000
29.350000	1	0.274750
29.366667	1	0.260875
29.383333	1	0.247375
29.400000	1	0.234125
29.416667	1	0.221750
29.433333	1	0.209875
29.450000	1	0.198750
29.466667	1	0.188000
29.483333	1	0.178500
29.500000	1	0.169500
29.516667	1	0.161750
29.533333	1	0.154625
29.550000	1	0.148250
29.566667	1	0.142250
29.583333	1	0.137500
29.600000	1	0.133250
29.616667	1	0.129750
29.633333	1	0.127000
29.650000	1	0.124375
29.666667	1	0.122875
29.683333	1	0.122000
29.700000	1	0.121875
29.716667	1	0.121875
29.733333	1	0.122500
29.750000	1	0.123125
29.766667	1	0.124375
29.783333	1	0.125625
29.800000	1	0.127125
29.816667	1	0.128625
29.833333	1	0.130500
29.850000	1	0.132875
29.866667	1	0.134500
29.883333	1	0.136125
29.900000	1	0.137750
29.916667	1	0.139000
29.933333	1	0.140250
29.950000	1	0.141250
29.966667	1	0.141875
29.983333	1	0.142500
30.000000	1	0.143375
30.016667	1	0.143375
30.033333	1	0.143000
30.050000	1	0.143375
30.066667	1	0.142625
30.083333	1	0.142125
30.100000	1	0.140875
30.116667	1	0.139125
30.133333	1	0.137375
30.150000	1	0.135000
30.166667	1	0.133500
30.183333	1	0.131375
30.200000	1	0.129625
30.216667	1	0.127125
30.233333	1	0.124625
30.250000	1	0.122000
30.266667	1	0.119625
30.283333	1	0.117250
30.300000	1	0.115750
30.316667	1	0.114000
30.333333	1	0.113250
30.350000	1	0.110875
30.366667	1	0.109000
30.383333	1	0.108375
30.400000	1	0.107875
30.416667	1	0.107750
30.433333	1	0.108125
30.450000	1	0.109250
30.466667	1	0.109750
30.483333	1	0.111625
30.500000	1	0.114375
30.516667	1	0.117750
30.533333	1	0.122250
30.550000	1	0.127000
30.566667	1	0.133000
30.583333	1	0.139750
30.600000	1	0.147125
30.616667	1	0.156000
30.633333	1	0.166000
30.650000	1	0.177375
30.666667	1	0.189750
30.683333	1	0.203625
30.700000	1	0.219500
30.716667	1	0.237500
30.733333	1	0.257500
30.750000	1	0.279625
30.766667	1	0.303625
30.783333	1	0.330875
30.800000	1	0.361625
30.816667	1	0.396875
30.833333	1	0.435375
30.850000	1	0.479125
30.866667	1	0.527875
30.883333	1	0.583250
30.900000	1	0.644750
30.916667	1	0.712750
30.933333	1	0.790000
30.950000	1	0.876375
30.966667	1	0.972375
30.983333	1	1.078750
31.000000	1	1.197750
31.016667	1	1.329125
31.033333	1	1.474375
31.050000	1	1.634000
31.066667	1	1.808500
31.083333	1	1.998125
31.100000	1	2.203375
31.116667	1	2.424500
31.133333	1	2.661000
31.150000	1	2.913500
31.166667	1	3.181125
31.183333	1	3.463000
31.200000	1	3.758375
31.216667	1	4.064000
31.233333	1	4.379875
31.250000	1	4.702500
31.266667	1	5.029250
31.283333	1	5.356000
31.300000	1	5.681250
31.316667	1	6.000750
31.333333	1	6.310000
31.350000	1	6.606625
31.366667	1	6.886375
31.383333	1	7.146250
31.400000	1	7.382500
31.416667	1	7.591500
31.433333	1	7.771125
31.450000	1	7.918125
31.466667	1	8.030500
31.483333	1	8.108000
31.500000	1	8.148375
31.516667	1	8.151500
31.533333	1	8.117750
31.550000	1	8.048125
31.566667	1	7.943250
31.583333	1	7.804875
31.600000	1	7.635875
31.616667	1	7.438250
31.633333	1	7.214250
31.650000	1	6.968125
31.666667	1	6.702125
31.683333	1	6.420125
31.700000	1	6.126625
31.716667	1	5.823750
31.733333	1	5.515750
31.750000	1	5.204500
31.766667	1	4.893625
31.783333	1	4.585000
31.800000	1	4.281125
31.816667	1	3.983250
31.833333	1	3.694375
31.850000	1	3.416750
31.866667	1	3.150500
31.883333	1	2.897125
31.900000	1	2.657375
31.916667	1	2.431500
31.933333	1	2.220500
31.950000	1	2.022625
31.966667	1	1.838625
31.983333	1	1.668500
32.000000	1	1.511000
32.016667	1	1.366250
32.033333	1	1.233750
32.050000	1	1.112250
32.066667	1	1.002250
32.083333	1	0.902500
32.100000	1	0.812375
32.116667	1	0.730750
32.133333	1	0.657625
32.150000	1	0.591875
32.166667	1	0.532500
32.183333	1	0.479500
32.200000	1	0.432375
32.216667	1	0.390250
32.233333	1	0.352250
32.250000	1	0.318125
32.266667	1	0.287875
32.283333	1	0.261250
32.300000	1	0.238125
32.316667	1	0.216750
32.333333	1	0.198500
32.350000	1	0.181875
32.366667	1	0.167375
32.383333	1	0.154250
32.400000	1	0.142875
32.416667	1	0.133125
32.433333	1	0.124375
32.450000	1	0.116250
32.466667	1	0.109625
32.483333	1	0.102875
32.500000	1	0.097625
32.516667	1	0.093375
32.533333	1	0.089625
32.550000	1	0.086750
32.566667	1	0.084375
32.583333	1	0.082250
32.600000	1	0.080250
32.616667	1	0.078500
32.633333	1	0.077500
32.650000	1	0.076625
32.666667	1	0.076875
32.683333	1	0.076625
32.700000	1	0.076500
32.716667	1	0.077125
32.733333	1	0.077625
32.750000	1	0.078875
32.766667	1	0.080250
32.783333	1	0.082250
32.800000	1	0.084125
32.816667	1	0.086125
32.833333	1	0.088375
32.850000	1	0.090875
32.866667	1	0.093125
32.883333	1	0.095625
32.900000	1	0.098875
32.916667	1	0.101000
32.933333	1	0.103500
32.950000	1	0.106500
32.966667	1	0.109250
32.983333	1	0.111625
33.000000	1	0.114375
33.016667	1	0.117125
33.033333	1	0.119625
33.050000	1	0.120875
33.066667	1	0.123125
33.083333	1	0.124375
33.100000	1	0.126250
33.116667	1	0.126875
33.133333	1	0.127750
33.150000	1	0.128625
33.166667	1	0.129375
33.183333	1	0.129625
33.200000	1	0.130125
33.216667	1	0.129875
33.233333	1	0.129500
33.250000	1	0.128875
33.266667	1	0.127750
33.283333	1	0.126375
33.300000	1	0.125000
33.316667	1	0.123750
33.333333	1	0.122375
33.350000	1	0.121250
33.366667	1	0.120000
33.383333	1	0.119125
33.400000	1	0.117875
33.416667	1	0.117125
33.433333	1	0.116250
33.450000	1	0.116000
33.466667	1	0.115000
33.483333	1	0.114500
33.500000	1	0.114625
33.516667	1	0.115125
33.533333	1	0.115375
33.550000	1	0.115750
33.566667	1	0.116125
33.583333	1	0.117625
33.600000	1	0.119000
33.616667	1	0.121000
33.633333	1	0.122875
33.650000	1	0.124875
33.666667	1	0.127750
33.683333	1	0.129500
33.700000	1	0.131625
33.716667	1	0.133750
33.733333	1	0.136250
33.750000	1	0.138875
33.766667	1	0.141000
33.783333	1	0.143125
33.800000	1	0.145625
33.816667	1	0.147125
33.833333	1	0.148875
33.850000	1	0.150250
33.866667	1	0.151625
33.883333	1	0.152875
33.900000	1	0.153125
33.916667	1	0.153875
33.933333	1	0.154625
33.950000	1	0.154750
33.966667	1	0.154500
33.983333	1	0.153625
34.000000	1	0.152375
34.016667	1	0.151500
34.033333	1	0.150875
34.050000	1	0.149125
34.066667	1	0.147375
34.083333	1	0.145750
34.100000	1	0.144250
34.116667	1	0.142375
34.133333	1	0.140750
34.150000	1	0.138625
34.166667	1	0.136625
34.183333	1	0.134375
34.200000	1	0.132125
34.216667	1	0.130000
34.233333	1	0.128125
34.250000	1	0.125875
34.266667	1	0.124375
34.283333	1	0.123125
34.300000	1	0.122375
34.316667	1	0.121375
34.333333	1	0.121000
34.350000	1	0.120125
34.366667	1	0.119250
34.383333	1	0.119375
34.400000	1	0.120000
34.416667	1	0.120125
34.433333	1	0.120500
34.450000	1	0.121250
34.466667	1	0.122625
34.483333	1	0.124375
34.500000	1	0.125750
34.516667	1	0.127625
34.533333	1	0.129375
34.550000	1	0.131375
34.566667	1	0.133000
34.583333	1	0.135125
34.600000	1	0.137625
34.616667	1	0.139625
34.633333	1	0.142000
34.650000	1	0.144875
34.666667	1	0.147375
34.683333	1	0.149625
34.700000	1	0.152250
34.716667	1	0.155125
34.733333	1	0.157750
34.750000	1	0.159875
34.766667	1	0.161750
34.783333	1	0.164625
34.800000	1	0.166625
34.816667	1	0.169000
34.833333	1	0.170750
34.850000	1	0.172625
34.866667	1	0.174000
34.883333	1	0.175250
34.900000	1	0.176375
34.916667	1	0.177375
34.933333	1	0.178125
34.950000	1	0.179250
34.966667	1	0.180125
34.983333	1	0.180750
35.000000	1	0.181500
35.016667	1	0.181875
35.033333	1	0.181375
35.050000	1	0.180750
35.066667	1	0.180625
35.083333	1	0.181000
35.100000	1	0.180625
35.116667	1	0.180125
35.133333	1	0.180250
35.150000	1	0.180125
35.166667	1	0.180000
35.183333	1	0.179625
35.200000	1	0.179250
35.216667	1	0.179250
35.233333	1	0.179625
35.250000	1	0.179375
35.266667	1	0.179625
35.283333	1	0.179125
35.300000	1	0.179125
35.316667	1	0.179250
35.333333	1	0.179750
35.350000	1	0.179000
35.366667	1	0.178875
35.383333	1	0.178375
35.400000	1	0.178250
35.416667	1	0.178250
35.433333	1	0.177750
35.450000	1	0.177875
35.466667	1	0.177625
35.483333	1	0.177125
35.500000	1	0.176000
35.516667	1	0.175500
35.533333	1	0.175250
35.550000	1	0.174250
35.566667	1	0.173625
35.583333	1	0.173000
35.600000	1	0.171500
35.616667	1	0.170000
35.633333	1	0.169000
35.650000	1	0.167375
35.666667	1	0.166000
35.683333	1	0.164750
35.700000	1	0.163875
35.716667	1	0.162625
35.733333	1	0.161125
35.750000	1	0.159500
35.766667	1	0.158125
35.783333	1	0.156625
35.800000	1	0.155250
35.816667	1	0.153500
35.833333	1	0.152000
35.850000	1	0.150375
35.866667	1	0.149625
35.883333	1	0.148500
35.900000	1	0.147500
35.916667	1	0.147000
35.933333	1	0.146375
35.950000	1	0.145125
35.966667	1	0.145125
35.983333	1	0.144375
36.000000	1	0.144375
36.016667	1	0.144125
36.033333	1	0.144000
36.050000	1	0.144375
36.066667	1	0.145375
36.083333	1	0.146500
36.100000	1	0.147000
36.116667	1	0.147625
36.133333	1	0.148000
36.150000	1	0.148750
36.166667	1	0.149875
36.183333	1	0.151000
36.200000	1	0.152250
36.216667	1	0.153125
36.233333	1	0.153500
36.250000	1	0.153875
36.266667	1	0.154500
36.283333	1	0.154750
36.300000	1	0.154750
36.316667	1	0.155000
36.333333	1	0.154875
36.350000	1	0.155750
36.366667	1	0.155375
36.383333	1	0.154750
36.400000	1	0.154375
36.416667	1	0.153000
36.433333	1	0.152125
36.450000	1	0.150750
36.466667	1	0.148500
36.483333	1	0.146375
36.500000	1	0.144375
36.516667	1	0.141875
36.533333	1	0.139500
36.550000	1	0.136875
36.566667	1	0.133000
36.583333	1	0.129625
36.600000	1	0.125875
36.616667	1	0.121875
36.633333	1	0.118000
36.650000	1	0.113375
36.666667	1	0.109375
36.683333	1	0.105750
36.700000	1	0.101250
36.716667	1	0.096625
36.733333	1	0.092125
36.750000	1	0.088375
36.766667	1	0.084125
36.783333	1	0.080125
36.800000	1	0.076250
36.816667	1	0.072500
36.833333	1	0.069750
36.850000	1	0.066500
36.866667	1	0.064000
36.883333	1	0.061625
36.900000	1	0.059125
36.916667	1	0.057000
36.933333	1	0.055375
36.950000	1	0.054500
36.966667	1	0.053750
36.983333	1	0.052750
37.000000	1	0.052500
37.016667	1	0.052375
37.033333	1	0.052625
37.050000	1	0.053625
37.066667	1	0.054000
37.083333	1	0.054875
37.100000	1	0.055750
37.116667	1	0.056625
37.133333	1	0.057750
37.150000	1	0.059000
37.166667	1	0.060375
37.183333	1	0.061625
37.200000	1	0.062375
37.216667	1	0.063125
37.233333	1	0.063750
37.250000	1	0.064750
37.266667	1	0.066000
37.283333	1	0.067250
37.300000	1	0.067875
37.316667	1	0.069000
37.333333	1	0.070000
37.350000	1	0.070000
37.366667	1	0.071000
37.383333	1	0.071625
37.400000	1	0.072625
37.416667	1	0.073250
37.433333	1	0.073500
37.450000	1	0.073625
37.466667	1	0.073750
37.483333	1	0.074750
37.500000	1	0.075625
37.516667	1	0.076000
37.533333	1	0.076375
37.550000	1	0.076750
37.566667	1	0.077125
37.583333	1	0.077500
37.600000	1	0.076625
37.616667	1	0.077250
37.633333	1	0.077000
37.650000	1	0.077125
37.666667	1	0.076750
37.683333	1	0.076250
37.700000	1	0.075875
37.716667	1	0.075625
37.733333	1	0.074500
37.750000	1	0.074125
37.766667	1	0.073250
37.783333	1	0.072375
37.800000	1	0.070875
37.816667	1	0.069625
37.833333	1	0.068000
37.850000	1	0.066875
37.866667	1	0.065500
37.883333	1	0.063875
37.900000	1	0.062000
37.916667	1	0.059875
37.933333	1	0.058500
37.950000	1	0.057125
37.966667	1	0.057000
37.983333	1	0.056125
38.000000	1	0.054500
38.016667	1	0.053875
38.033333	1	0.053375
38.050000	1	0.052500
38.066667	1	0.052125
38.083333	1	0.052000
38.100000	1	0.051500
38.116667	1	0.051000
38.133333	1	0.051125
38.150000	1	0.051500
38.166667	1	0.051250
38.183333	1	0.051375
38.200000	1	0.051750
38.216667	1	0.051625
38.233333	1	0.051375
38.250000	1	0.051500
38.266667	1	0.051750
38.283333	1	0.052125
38.300000	1	0.051750
38.316667	1	0.052000
38.333333	1	0.051000
38.350000	1	0.050250
38.366667	1	0.049375
38.383333	1	0.049125
38.400000	1	0.047875
38.416667	1	0.046500
38.433333	1	0.045250
38.450000	1	0.043875
38.466667	1	0.042250
38.483333	1	0.041375
38.500000	1	0.040000
38.516667	1	0.038625
38.533333	1	0.036625
38.550000	1	0.035750
38.566667	1	0.034250
38.583333	1	0.033375
38.600000	1	0.031875
38.616667	1	0.031250
38.633333	1	0.030750
38.650000	1	0.030000
38.666667	1	0.029500
38.683333	1	0.029125
38.700000	1	0.028750
38.716667	1	0.028500
38.733333	1	0.028500
38.750000	1	0.028500
38.766667	1	0.028500
38.783333	1	0.028875
38.800000	1	0.029250
38.816667	1	0.030000
38.833333	1	0.030000
38.850000	1	0.030875
38.866667	1	0.031375
38.883333	1	0.031375
38.900000	1	0.031875
38.916667	1	0.032375
38.933333	1	0.032250
38.950000	1	0.032375
38.966667	1	0.031750
38.983333	1	0.031375
39.000000	1	0.030875
39.016667	1	0.030625
39.033333	1	0.030375
39.050000	1	0.030500
39.066667	1	0.029750
39.083333	1	0.029125
39.100000	1	0.028625
39.116667	1	0.028625
39.133333	1	0.027875
39.150000	1	0.027125
39.166667	1	0.026625
39.183333	1	0.026500
39.200000	1	0.025625
39.216667	1	0.024625
39.233333	1	0.024750
39.250000	1	0.024250
39.266667	1	0.024500
39.283333	1	0.024875
39.300000	1	0.025500
39.316667	1	0.025750
39.333333	1	0.026625
39.350000	1	0.027250
39.366667	1	0.027875
39.383333	1	0.028375
39.400000	1	0.029375
39.416667	1	0.030125
39.433333	1	0.031125
39.450000	1	0.032750
39.466667	1	0.033625
39.483333	1	0.034250
39.500000	1	0.035000
39.516667	1	0.035750
39.533333	1	0.035875
39.550000	1	0.036000
39.566667	1	0.036750
39.583333	1	0.036250
39.600000	1	0.036000
39.616667	1	0.036125
39.633333	1	0.035875
39.650000	1	0.035500
39.666667	1	0.035250
39.683333	1	0.034625
39.700000	1	0.034250
39.716667	1	0.033750
39.733333	1	0.032375
39.750000	1	0.031750
39.766667	1	0.030875
39.783333	1	0.030625
39.800000	1	0.030750
39.816667	1	0.030625
39.833333	1	0.030250
39.850000	1	0.029875
39.866667	1	0.029750
39.883333	1	0.030250
39.900000	1	0.030875
39.916667	1	0.031500
39.933333	1	0.032250
39.950000	1	0.033875
39.966667	1	0.035375
39.983333	1	0.037250
40.000000	1	0.039375
