URL	chrom://bioreactor/micro_cm7/HPLC_Ultimate_3000/Users/markusar/20240708_MA_pHrange1.seq/612.smp/RI_1.channel/RI_1.chm
Channel	RI_1

Injection Information:
Data Vault	micro_cm7
Sequence	20240708_MA_pHrange1
Name	Pv3_6.5_5
Number	16
Position	BB4
Comment	
Processing Method	
Instrument Method	run_25B_method
Type	Unknown
Status	Finished
Inject Time	09.07.2024 01:49:03 +02:00
Volume (µl)	20.0000
Dilution Factor	1.0000
Weight	1.0000

Chromatogram Data Information:
Time Min. (min)	0.000000
Time Max. (min)	40.000000
Data Points	2401
Detector	RI
Generating Data System	Chromeleon 7.3.2.11814
Exporting Data System	Chromeleon 7.3.2.0
Operator	Instrument Controller
Signal Quantity	Refractive 
Signal Unit	µRIU
Signal Min.	-0.004125
Signal Max.	82.015625
Channel	RI_1
Driver Name	RID520Driver.dll
Channel Type	Evaluation
Min. Step (s)	1
Max. Step (s)	1
Average Step (s)	1

Signal Parameter Information:
Signal Info	

Chromatogram Data:
Time (min)	Step (s)	Value (µRIU)
0.000000	n.a.	0.031250
0.016667	1	0.031375
0.033333	1	0.031625
0.050000	1	0.032000
0.066667	1	0.032375
0.083333	1	0.032250
0.100000	1	0.033125
0.116667	1	0.033625
0.133333	1	0.033375
0.150000	1	0.033625
0.166667	1	0.034375
0.183333	1	0.034500
0.200000	1	0.034500
0.216667	1	0.034875
0.233333	1	0.035375
0.250000	1	0.035375
0.266667	1	0.036375
0.283333	1	0.037250
0.300000	1	0.037750
0.316667	1	0.038500
0.333333	1	0.039375
0.350000	1	0.040250
0.366667	1	0.040000
0.383333	1	0.039375
0.400000	1	0.039375
0.416667	1	0.040125
0.433333	1	0.042500
0.450000	1	0.045375
0.466667	1	0.047500
0.483333	1	0.050250
0.500000	1	0.051875
0.516667	1	0.052375
0.533333	1	0.053000
0.550000	1	0.053000
0.566667	1	0.052000
0.583333	1	0.051125
0.600000	1	0.050250
0.616667	1	0.048125
0.633333	1	0.045875
0.650000	1	0.044000
0.666667	1	0.043375
0.683333	1	0.043000
0.700000	1	0.042625
0.716667	1	0.042250
0.733333	1	0.041750
0.750000	1	0.041500
0.766667	1	0.041000
0.783333	1	0.040250
0.800000	1	0.039500
0.816667	1	0.039375
0.833333	1	0.039250
0.850000	1	0.038250
0.866667	1	0.037625
0.883333	1	0.036750
0.900000	1	0.036375
0.916667	1	0.035375
0.933333	1	0.034000
0.950000	1	0.033000
0.966667	1	0.032875
0.983333	1	0.031500
1.000000	1	0.029750
1.016667	1	0.029500
1.033333	1	0.028375
1.050000	1	0.028500
1.066667	1	0.028750
1.083333	1	0.028875
1.100000	1	0.028500
1.116667	1	0.028000
1.133333	1	0.027250
1.150000	1	0.026750
1.166667	1	0.026625
1.183333	1	0.027125
1.200000	1	0.027125
1.216667	1	0.027000
1.233333	1	0.026875
1.250000	1	0.026750
1.266667	1	0.026375
1.283333	1	0.025500
1.300000	1	0.025500
1.316667	1	0.024875
1.333333	1	0.023875
1.350000	1	0.022250
1.366667	1	0.021625
1.383333	1	0.022000
1.400000	1	0.021000
1.416667	1	0.021125
1.433333	1	0.019875
1.450000	1	0.019250
1.466667	1	0.018750
1.483333	1	0.017875
1.500000	1	0.017250
1.516667	1	0.015875
1.533333	1	0.015750
1.550000	1	0.015375
1.566667	1	0.014250
1.583333	1	0.014125
1.600000	1	0.012875
1.616667	1	0.012250
1.633333	1	0.012750
1.650000	1	0.012125
1.666667	1	0.011625
1.683333	1	0.011500
1.700000	1	0.011875
1.716667	1	0.011875
1.733333	1	0.012125
1.750000	1	0.011875
1.766667	1	0.013000
1.783333	1	0.013375
1.800000	1	0.013750
1.816667	1	0.014750
1.833333	1	0.015250
1.850000	1	0.015125
1.866667	1	0.015500
1.883333	1	0.015625
1.900000	1	0.016625
1.916667	1	0.017500
1.933333	1	0.017625
1.950000	1	0.018125
1.966667	1	0.018250
1.983333	1	0.018875
2.000000	1	0.019000
2.016667	1	0.019375
2.033333	1	0.019625
2.050000	1	0.019875
2.066667	1	0.019750
2.083333	1	0.019375
2.100000	1	0.019500
2.116667	1	0.018750
2.133333	1	0.018625
2.150000	1	0.017750
2.166667	1	0.016875
2.183333	1	0.016250
2.200000	1	0.015875
2.216667	1	0.015250
2.233333	1	0.014875
2.250000	1	0.014250
2.266667	1	0.013250
2.283333	1	0.012125
2.300000	1	0.011125
2.316667	1	0.010250
2.333333	1	0.008875
2.350000	1	0.007750
2.366667	1	0.007375
2.383333	1	0.006250
2.400000	1	0.005625
2.416667	1	0.004500
2.433333	1	0.003125
2.450000	1	0.001875
2.466667	1	0.001125
2.483333	1	0.000250
2.500000	1	-0.000500
2.516667	1	-0.001000
2.533333	1	-0.002125
2.550000	1	-0.003000
2.566667	1	-0.003375
2.583333	1	-0.003750
2.600000	1	-0.003500
2.616667	1	-0.003625
2.633333	1	-0.003250
2.650000	1	-0.003250
2.666667	1	-0.003125
2.683333	1	-0.002375
2.700000	1	-0.001625
2.716667	1	-0.000750
2.733333	1	-0.000500
2.750000	1	-0.000125
2.766667	1	0.001125
2.783333	1	0.001875
2.800000	1	0.004125
2.816667	1	0.004625
2.833333	1	0.005250
2.850000	1	0.006250
2.866667	1	0.006875
2.883333	1	0.008625
2.900000	1	0.009375
2.916667	1	0.009875
2.933333	1	0.010875
2.950000	1	0.011500
2.966667	1	0.011500
2.983333	1	0.012375
3.000000	1	0.013250
3.016667	1	0.014000
3.033333	1	0.015125
3.050000	1	0.015500
3.066667	1	0.015750
3.083333	1	0.015875
3.100000	1	0.016250
3.116667	1	0.017500
3.133333	1	0.017625
3.150000	1	0.017750
3.166667	1	0.018125
3.183333	1	0.018250
3.200000	1	0.018875
3.216667	1	0.019875
3.233333	1	0.020375
3.250000	1	0.021250
3.266667	1	0.021875
3.283333	1	0.022125
3.300000	1	0.022875
3.316667	1	0.023125
3.333333	1	0.023875
3.350000	1	0.024750
3.366667	1	0.024625
3.383333	1	0.026125
3.400000	1	0.026625
3.416667	1	0.027250
3.433333	1	0.028000
3.450000	1	0.028875
3.466667	1	0.029875
3.483333	1	0.030375
3.500000	1	0.031375
3.516667	1	0.032375
3.533333	1	0.032500
3.550000	1	0.034125
3.566667	1	0.034625
3.583333	1	0.035625
3.600000	1	0.036500
3.616667	1	0.037500
3.633333	1	0.038250
3.650000	1	0.039125
3.666667	1	0.039750
3.683333	1	0.041625
3.700000	1	0.042125
3.716667	1	0.042750
3.733333	1	0.043875
3.750000	1	0.043750
3.766667	1	0.045000
3.783333	1	0.045875
3.800000	1	0.047000
3.816667	1	0.048125
3.833333	1	0.048625
3.850000	1	0.049875
3.866667	1	0.050625
3.883333	1	0.051375
3.900000	1	0.052250
3.916667	1	0.052750
3.933333	1	0.053625
3.950000	1	0.054500
3.966667	1	0.055625
3.983333	1	0.056500
4.000000	1	0.058000
4.016667	1	0.058500
4.033333	1	0.059125
4.050000	1	0.059750
4.066667	1	0.060125
4.083333	1	0.061000
4.100000	1	0.061750
4.116667	1	0.062625
4.133333	1	0.062750
4.150000	1	0.063125
4.166667	1	0.064250
4.183333	1	0.065250
4.200000	1	0.066000
4.216667	1	0.066875
4.233333	1	0.067875
4.250000	1	0.068125
4.266667	1	0.069750
4.283333	1	0.070125
4.300000	1	0.070750
4.316667	1	0.070875
4.333333	1	0.072000
4.350000	1	0.072625
4.366667	1	0.073000
4.383333	1	0.073750
4.400000	1	0.074000
4.416667	1	0.074750
4.433333	1	0.075000
4.450000	1	0.075250
4.466667	1	0.076125
4.483333	1	0.077375
4.500000	1	0.078750
4.516667	1	0.079125
4.533333	1	0.080250
4.550000	1	0.081125
4.566667	1	0.081750
4.583333	1	0.082750
4.600000	1	0.083750
4.616667	1	0.085125
4.633333	1	0.086125
4.650000	1	0.086875
4.666667	1	0.087875
4.683333	1	0.088500
4.700000	1	0.089875
4.716667	1	0.091125
4.733333	1	0.092875
4.750000	1	0.094750
4.766667	1	0.096375
4.783333	1	0.098375
4.800000	1	0.100250
4.816667	1	0.101750
4.833333	1	0.104000
4.850000	1	0.106000
4.866667	1	0.108625
4.883333	1	0.110500
4.900000	1	0.112500
4.916667	1	0.114750
4.933333	1	0.117875
4.950000	1	0.120875
4.966667	1	0.124125
4.983333	1	0.127500
5.000000	1	0.131000
5.016667	1	0.134750
5.033333	1	0.138500
5.050000	1	0.142500
5.066667	1	0.146250
5.083333	1	0.149375
5.100000	1	0.153500
5.116667	1	0.157125
5.133333	1	0.161250
5.150000	1	0.165875
5.166667	1	0.170375
5.183333	1	0.174750
5.200000	1	0.179250
5.216667	1	0.183250
5.233333	1	0.187875
5.250000	1	0.192625
5.266667	1	0.196250
5.283333	1	0.200250
5.300000	1	0.203875
5.316667	1	0.207375
5.333333	1	0.211250
5.350000	1	0.214875
5.366667	1	0.218500
5.383333	1	0.221875
5.400000	1	0.225375
5.416667	1	0.229000
5.433333	1	0.231875
5.450000	1	0.234500
5.466667	1	0.238375
5.483333	1	0.240375
5.500000	1	0.242625
5.516667	1	0.244500
5.533333	1	0.246875
5.550000	1	0.248875
5.566667	1	0.251000
5.583333	1	0.252750
5.600000	1	0.254000
5.616667	1	0.255625
5.633333	1	0.256500
5.650000	1	0.257375
5.666667	1	0.258375
5.683333	1	0.258125
5.700000	1	0.257875
5.716667	1	0.258375
5.733333	1	0.257625
5.750000	1	0.256875
5.766667	1	0.256500
5.783333	1	0.255000
5.800000	1	0.253875
5.816667	1	0.252750
5.833333	1	0.250750
5.850000	1	0.249250
5.866667	1	0.247125
5.883333	1	0.244250
5.900000	1	0.241625
5.916667	1	0.238125
5.933333	1	0.235000
5.950000	1	0.232375
5.966667	1	0.228750
5.983333	1	0.225625
6.000000	1	0.221750
6.016667	1	0.218250
6.033333	1	0.214375
6.050000	1	0.210875
6.066667	1	0.206750
6.083333	1	0.201625
6.100000	1	0.196875
6.116667	1	0.192500
6.133333	1	0.188000
6.150000	1	0.183625
6.166667	1	0.179125
6.183333	1	0.174250
6.200000	1	0.169250
6.216667	1	0.164500
6.233333	1	0.160000
6.250000	1	0.155125
6.266667	1	0.150500
6.283333	1	0.146125
6.300000	1	0.141125
6.316667	1	0.136500
6.333333	1	0.132250
6.350000	1	0.128250
6.366667	1	0.124000
6.383333	1	0.119500
6.400000	1	0.116375
6.416667	1	0.113250
6.433333	1	0.110500
6.450000	1	0.107375
6.466667	1	0.105125
6.483333	1	0.102500
6.500000	1	0.100500
6.516667	1	0.098750
6.533333	1	0.097500
6.550000	1	0.096000
6.566667	1	0.095375
6.583333	1	0.094500
6.600000	1	0.093875
6.616667	1	0.093500
6.633333	1	0.092250
6.650000	1	0.091750
6.666667	1	0.092125
6.683333	1	0.091750
6.700000	1	0.091625
6.716667	1	0.092000
6.733333	1	0.092250
6.750000	1	0.092875
6.766667	1	0.093500
6.783333	1	0.093500
6.800000	1	0.093750
6.816667	1	0.094000
6.833333	1	0.094250
6.850000	1	0.094875
6.866667	1	0.094875
6.883333	1	0.096000
6.900000	1	0.096375
6.916667	1	0.097625
6.933333	1	0.098000
6.950000	1	0.098500
6.966667	1	0.099625
6.983333	1	0.100250
7.000000	1	0.101250
7.016667	1	0.102500
7.033333	1	0.103750
7.050000	1	0.104750
7.066667	1	0.105875
7.083333	1	0.106875
7.100000	1	0.107875
7.116667	1	0.109500
7.133333	1	0.111000
7.150000	1	0.113125
7.166667	1	0.115500
7.183333	1	0.117000
7.200000	1	0.118875
7.216667	1	0.121750
7.233333	1	0.124625
7.250000	1	0.127625
7.266667	1	0.129500
7.283333	1	0.131375
7.300000	1	0.133375
7.316667	1	0.135750
7.333333	1	0.138125
7.350000	1	0.140750
7.366667	1	0.142375
7.383333	1	0.143750
7.400000	1	0.145750
7.416667	1	0.147750
7.433333	1	0.149250
7.450000	1	0.149875
7.466667	1	0.151000
7.483333	1	0.151375
7.500000	1	0.152125
7.516667	1	0.151625
7.533333	1	0.151625
7.550000	1	0.151625
7.566667	1	0.150875
7.583333	1	0.150000
7.600000	1	0.148500
7.616667	1	0.147250
7.633333	1	0.145875
7.650000	1	0.143000
7.666667	1	0.140500
7.683333	1	0.137875
7.700000	1	0.135125
7.716667	1	0.132375
7.733333	1	0.129875
7.750000	1	0.126000
7.766667	1	0.122375
7.783333	1	0.118375
7.800000	1	0.114875
7.816667	1	0.111125
7.833333	1	0.107375
7.850000	1	0.103500
7.866667	1	0.099500
7.883333	1	0.094750
7.900000	1	0.091375
7.916667	1	0.086875
7.933333	1	0.083250
7.950000	1	0.079250
7.966667	1	0.075625
7.983333	1	0.071750
8.000000	1	0.068000
8.016667	1	0.064375
8.033333	1	0.061125
8.050000	1	0.057500
8.066667	1	0.054375
8.083333	1	0.051750
8.100000	1	0.048750
8.116667	1	0.046500
8.133333	1	0.043875
8.150000	1	0.041375
8.166667	1	0.039875
8.183333	1	0.037250
8.200000	1	0.035125
8.216667	1	0.032375
8.233333	1	0.030500
8.250000	1	0.028625
8.266667	1	0.026750
8.283333	1	0.024875
8.300000	1	0.023375
8.316667	1	0.021750
8.333333	1	0.021375
8.350000	1	0.020750
8.366667	1	0.020250
8.383333	1	0.020000
8.400000	1	0.019625
8.416667	1	0.019125
8.433333	1	0.018125
8.450000	1	0.018625
8.466667	1	0.018750
8.483333	1	0.019250
8.500000	1	0.019500
8.516667	1	0.019875
8.533333	1	0.020375
8.550000	1	0.021125
8.566667	1	0.021875
8.583333	1	0.022625
8.600000	1	0.023500
8.616667	1	0.024000
8.633333	1	0.024875
8.650000	1	0.026000
8.666667	1	0.027000
8.683333	1	0.027250
8.700000	1	0.028250
8.716667	1	0.029375
8.733333	1	0.029375
8.750000	1	0.029750
8.766667	1	0.030750
8.783333	1	0.031000
8.800000	1	0.030875
8.816667	1	0.030625
8.833333	1	0.030000
8.850000	1	0.029750
8.866667	1	0.029000
8.883333	1	0.028625
8.900000	1	0.028250
8.916667	1	0.027625
8.933333	1	0.026750
8.950000	1	0.025875
8.966667	1	0.025125
8.983333	1	0.023875
9.000000	1	0.023125
9.016667	1	0.022500
9.033333	1	0.021000
9.050000	1	0.020625
9.066667	1	0.019875
9.083333	1	0.019125
9.100000	1	0.017875
9.116667	1	0.017375
9.133333	1	0.016750
9.150000	1	0.016375
9.166667	1	0.015125
9.183333	1	0.014875
9.200000	1	0.013625
9.216667	1	0.012750
9.233333	1	0.012000
9.250000	1	0.011000
9.266667	1	0.010875
9.283333	1	0.010125
9.300000	1	0.010250
9.316667	1	0.009500
9.333333	1	0.008875
9.350000	1	0.008750
9.366667	1	0.008250
9.383333	1	0.007375
9.400000	1	0.006875
9.416667	1	0.005625
9.433333	1	0.005625
9.450000	1	0.005250
9.466667	1	0.004625
9.483333	1	0.004375
9.500000	1	0.003875
9.516667	1	0.003500
9.533333	1	0.003250
9.550000	1	0.002875
9.566667	1	0.003000
9.583333	1	0.002750
9.600000	1	0.002750
9.616667	1	0.002500
9.633333	1	0.002625
9.650000	1	0.002250
9.666667	1	0.001625
9.683333	1	0.001375
9.700000	1	0.001500
9.716667	1	0.001875
9.733333	1	0.002250
9.750000	1	0.002375
9.766667	1	0.002625
9.783333	1	0.003125
9.800000	1	0.003125
9.816667	1	0.003875
9.833333	1	0.002625
9.850000	1	0.003000
9.866667	1	0.003375
9.883333	1	0.003875
9.900000	1	0.004000
9.916667	1	0.004500
9.933333	1	0.004875
9.950000	1	0.004750
9.966667	1	0.004625
9.983333	1	0.004875
10.000000	1	0.006000
10.016667	1	0.006250
10.033333	1	0.006000
10.050000	1	0.007125
10.066667	1	0.007750
10.083333	1	0.008875
10.100000	1	0.011625
10.116667	1	0.014750
10.133333	1	0.018500
10.150000	1	0.023250
10.166667	1	0.029750
10.183333	1	0.037000
10.200000	1	0.045750
10.216667	1	0.056250
10.233333	1	0.069250
10.250000	1	0.083500
10.266667	1	0.100625
10.283333	1	0.120000
10.300000	1	0.141125
10.316667	1	0.165500
10.333333	1	0.192750
10.350000	1	0.221625
10.366667	1	0.250125
10.383333	1	0.278000
10.400000	1	0.300750
10.416667	1	0.316500
10.433333	1	0.320375
10.450000	1	0.309125
10.466667	1	0.280250
10.483333	1	0.235750
10.500000	1	0.186625
10.516667	1	0.151875
10.533333	1	0.169875
10.550000	1	0.292125
10.566667	1	0.585125
10.583333	1	1.124500
10.600000	1	1.986875
10.616667	1	3.241750
10.633333	1	4.943500
10.650000	1	7.128375
10.666667	1	9.819125
10.683333	1	13.015750
10.700000	1	16.704250
10.716667	1	20.842375
10.733333	1	25.360750
10.750000	1	30.150500
10.766667	1	35.044625
10.783333	1	39.810500
10.800000	1	44.133000
10.816667	1	47.618000
10.833333	1	49.844375
10.850000	1	50.460000
10.866667	1	49.294125
10.883333	1	46.433375
10.900000	1	42.222000
10.916667	1	37.170125
10.933333	1	31.812625
10.950000	1	26.594500
10.966667	1	21.815625
10.983333	1	17.640250
11.000000	1	14.117375
11.016667	1	11.227750
11.033333	1	8.911750
11.050000	1	7.089500
11.066667	1	5.674000
11.083333	1	4.586125
11.100000	1	3.755375
11.116667	1	3.122625
11.133333	1	2.639625
11.150000	1	2.270250
11.166667	1	1.986500
11.183333	1	1.766125
11.200000	1	1.593250
11.216667	1	1.456875
11.233333	1	1.347375
11.250000	1	1.258250
11.266667	1	1.184125
11.283333	1	1.122750
11.300000	1	1.071000
11.316667	1	1.027500
11.333333	1	0.989250
11.350000	1	0.956125
11.366667	1	0.928250
11.383333	1	0.904125
11.400000	1	0.882875
11.416667	1	0.863625
11.433333	1	0.847500
11.450000	1	0.833125
11.466667	1	0.820500
11.483333	1	0.809125
11.500000	1	0.798250
11.516667	1	0.789750
11.533333	1	0.783125
11.550000	1	0.777375
11.566667	1	0.772625
11.583333	1	0.768250
11.600000	1	0.765625
11.616667	1	0.763375
11.633333	1	0.763500
11.650000	1	0.765625
11.666667	1	0.769250
11.683333	1	0.773000
11.700000	1	0.778500
11.716667	1	0.785000
11.733333	1	0.792625
11.750000	1	0.801875
11.766667	1	0.810875
11.783333	1	0.821250
11.800000	1	0.832000
11.816667	1	0.843125
11.833333	1	0.853250
11.850000	1	0.863000
11.866667	1	0.871500
11.883333	1	0.879500
11.900000	1	0.886500
11.916667	1	0.893125
11.933333	1	0.898750
11.950000	1	0.904125
11.966667	1	0.909250
11.983333	1	0.914375
12.000000	1	0.918250
12.016667	1	0.922500
12.033333	1	0.926500
12.050000	1	0.932125
12.066667	1	0.937625
12.083333	1	0.943500
12.100000	1	0.949875
12.116667	1	0.956750
12.133333	1	0.964375
12.150000	1	0.972250
12.166667	1	0.981250
12.183333	1	0.991750
12.200000	1	1.003250
12.216667	1	1.016625
12.233333	1	1.034000
12.250000	1	1.054125
12.266667	1	1.078750
12.283333	1	1.108625
12.300000	1	1.147750
12.316667	1	1.196250
12.333333	1	1.256625
12.350000	1	1.334000
12.366667	1	1.430125
12.383333	1	1.550375
12.400000	1	1.699375
12.416667	1	1.881000
12.433333	1	2.100000
12.450000	1	2.362000
12.466667	1	2.670875
12.483333	1	3.032375
12.500000	1	3.449250
12.516667	1	3.923750
12.533333	1	4.456250
12.550000	1	5.045750
12.566667	1	5.686875
12.583333	1	6.372875
12.600000	1	7.090625
12.616667	1	7.828500
12.633333	1	8.570875
12.650000	1	9.302875
12.666667	1	10.013500
12.683333	1	10.690500
12.700000	1	11.328250
12.716667	1	11.922750
12.733333	1	12.477250
12.750000	1	12.998375
12.766667	1	13.495000
12.783333	1	13.977125
12.800000	1	14.456375
12.816667	1	14.941625
12.833333	1	15.443875
12.850000	1	15.968250
12.866667	1	16.522000
12.883333	1	17.107375
12.900000	1	17.725375
12.916667	1	18.376125
12.933333	1	19.060250
12.950000	1	19.774125
12.966667	1	20.517000
12.983333	1	21.286250
13.000000	1	22.080500
13.016667	1	22.896875
13.033333	1	23.737125
13.050000	1	24.599375
13.066667	1	25.482875
13.083333	1	26.387500
13.100000	1	27.313250
13.116667	1	28.259000
13.133333	1	29.223375
13.150000	1	30.206750
13.166667	1	31.209375
13.183333	1	32.230875
13.200000	1	33.270125
13.216667	1	34.328500
13.233333	1	35.406125
13.250000	1	36.504750
13.266667	1	37.624125
13.283333	1	38.765750
13.300000	1	39.930000
13.316667	1	41.116250
13.333333	1	42.325250
13.350000	1	43.557000
13.366667	1	44.811625
13.383333	1	46.091250
13.400000	1	47.394875
13.416667	1	48.723250
13.433333	1	50.079125
13.450000	1	51.463375
13.466667	1	52.877750
13.483333	1	54.321625
13.500000	1	55.796625
13.516667	1	57.301000
13.533333	1	58.836750
13.550000	1	60.402875
13.566667	1	62.000875
13.583333	1	63.631500
13.600000	1	65.294250
13.616667	1	66.989375
13.633333	1	68.719125
13.650000	1	70.485750
13.666667	1	72.291375
13.683333	1	74.133000
13.700000	1	76.005375
13.716667	1	77.870125
13.733333	1	79.630875
13.750000	1	81.096500
13.766667	1	81.993625
13.783333	1	82.015625
13.800000	1	80.871875
13.816667	1	78.296625
13.833333	1	74.067500
13.850000	1	68.106250
13.866667	1	60.626375
13.883333	1	52.196000
13.900000	1	43.596625
13.916667	1	35.564250
13.933333	1	28.571500
13.950000	1	22.785000
13.966667	1	18.158000
13.983333	1	14.536875
14.000000	1	11.745125
14.016667	1	9.616750
14.033333	1	8.014250
14.050000	1	6.819875
14.066667	1	5.936000
14.083333	1	5.283375
14.100000	1	4.799125
14.116667	1	4.435750
14.133333	1	4.158500
14.150000	1	3.942375
14.166667	1	3.770750
14.183333	1	3.630875
14.200000	1	3.513250
14.216667	1	3.413125
14.233333	1	3.326500
14.250000	1	3.249875
14.266667	1	3.181000
14.283333	1	3.118125
14.300000	1	3.061375
14.316667	1	3.009000
14.333333	1	2.962125
14.350000	1	2.920375
14.366667	1	2.882875
14.383333	1	2.852125
14.400000	1	2.827750
14.416667	1	2.812250
14.433333	1	2.807250
14.450000	1	2.815375
14.466667	1	2.842250
14.483333	1	2.893500
14.500000	1	2.980875
14.516667	1	3.117000
14.533333	1	3.320750
14.550000	1	3.617750
14.566667	1	4.042375
14.583333	1	4.637000
14.600000	1	5.452750
14.616667	1	6.550375
14.633333	1	8.001250
14.650000	1	9.876625
14.666667	1	12.243500
14.683333	1	15.156750
14.700000	1	18.648500
14.716667	1	22.713875
14.733333	1	27.313000
14.750000	1	32.357875
14.766667	1	37.708500
14.783333	1	43.174375
14.800000	1	48.538625
14.816667	1	53.562125
14.833333	1	58.001125
14.850000	1	61.623875
14.866667	1	64.239250
14.883333	1	65.713000
14.900000	1	65.980000
14.916667	1	65.054375
14.933333	1	63.022250
14.950000	1	60.030375
14.966667	1	56.267625
14.983333	1	51.952625
15.000000	1	47.300250
15.016667	1	42.511750
15.033333	1	37.761750
15.050000	1	33.196000
15.066667	1	28.921250
15.083333	1	25.010750
15.100000	1	21.503625
15.116667	1	18.411500
15.133333	1	15.723000
15.150000	1	13.413500
15.166667	1	11.449125
15.183333	1	9.793250
15.200000	1	8.406625
15.216667	1	7.250500
15.233333	1	6.291375
15.250000	1	5.499750
15.266667	1	4.849750
15.283333	1	4.318875
15.300000	1	3.887375
15.316667	1	3.539625
15.333333	1	3.262500
15.350000	1	3.043625
15.366667	1	2.873500
15.383333	1	2.743500
15.400000	1	2.647125
15.416667	1	2.576750
15.433333	1	2.527125
15.450000	1	2.493000
15.466667	1	2.469125
15.483333	1	2.450375
15.500000	1	2.435125
15.516667	1	2.418625
15.533333	1	2.399375
15.550000	1	2.375750
15.566667	1	2.347875
15.583333	1	2.315375
15.600000	1	2.279750
15.616667	1	2.242125
15.633333	1	2.202625
15.650000	1	2.163750
15.666667	1	2.125875
15.683333	1	2.090250
15.700000	1	2.057375
15.716667	1	2.026750
15.733333	1	1.997500
15.750000	1	1.969000
15.766667	1	1.941625
15.783333	1	1.914375
15.800000	1	1.886750
15.816667	1	1.859125
15.833333	1	1.830625
15.850000	1	1.802375
15.866667	1	1.775500
15.883333	1	1.749250
15.900000	1	1.725625
15.916667	1	1.704375
15.933333	1	1.686500
15.950000	1	1.671625
15.966667	1	1.661000
15.983333	1	1.653375
16.000000	1	1.648625
16.016667	1	1.646125
16.033333	1	1.644625
16.050000	1	1.643750
16.066667	1	1.641875
16.083333	1	1.639000
16.100000	1	1.633500
16.116667	1	1.625125
16.133333	1	1.614875
16.150000	1	1.602000
16.166667	1	1.586875
16.183333	1	1.569375
16.200000	1	1.550375
16.216667	1	1.530625
16.233333	1	1.509500
16.250000	1	1.487500
16.266667	1	1.465875
16.283333	1	1.443625
16.300000	1	1.422000
16.316667	1	1.400375
16.333333	1	1.380250
16.350000	1	1.361375
16.366667	1	1.343125
16.383333	1	1.327000
16.400000	1	1.312750
16.416667	1	1.301250
16.433333	1	1.292000
16.450000	1	1.285750
16.466667	1	1.281875
16.483333	1	1.280125
16.500000	1	1.281500
16.516667	1	1.284375
16.533333	1	1.289125
16.550000	1	1.294000
16.566667	1	1.300125
16.583333	1	1.306000
16.600000	1	1.311375
16.616667	1	1.315375
16.633333	1	1.318000
16.650000	1	1.318500
16.666667	1	1.317125
16.683333	1	1.314500
16.700000	1	1.310625
16.716667	1	1.307375
16.733333	1	1.303750
16.750000	1	1.299500
16.766667	1	1.296125
16.783333	1	1.294000
16.800000	1	1.292000
16.816667	1	1.291625
16.833333	1	1.293500
16.850000	1	1.295750
16.866667	1	1.298750
16.883333	1	1.300625
16.900000	1	1.302750
16.916667	1	1.304375
16.933333	1	1.303250
16.950000	1	1.301875
16.966667	1	1.299000
16.983333	1	1.294625
17.000000	1	1.288500
17.016667	1	1.282500
17.033333	1	1.275625
17.050000	1	1.268750
17.066667	1	1.261250
17.083333	1	1.253625
17.100000	1	1.246500
17.116667	1	1.240500
17.133333	1	1.235500
17.150000	1	1.231375
17.166667	1	1.228250
17.183333	1	1.226250
17.200000	1	1.225250
17.216667	1	1.225125
17.233333	1	1.226000
17.250000	1	1.228125
17.266667	1	1.230875
17.283333	1	1.234000
17.300000	1	1.238250
17.316667	1	1.241750
17.333333	1	1.247125
17.350000	1	1.252625
17.366667	1	1.258500
17.383333	1	1.264125
17.400000	1	1.269750
17.416667	1	1.273875
17.433333	1	1.277500
17.450000	1	1.280750
17.466667	1	1.282625
17.483333	1	1.283000
17.500000	1	1.281625
17.516667	1	1.279500
17.533333	1	1.274375
17.550000	1	1.268250
17.566667	1	1.260750
17.583333	1	1.251500
17.600000	1	1.240875
17.616667	1	1.229625
17.633333	1	1.217250
17.650000	1	1.203125
17.666667	1	1.189625
17.683333	1	1.175375
17.700000	1	1.160375
17.716667	1	1.145625
17.733333	1	1.131500
17.750000	1	1.116750
17.766667	1	1.101750
17.783333	1	1.088750
17.800000	1	1.075250
17.816667	1	1.061625
17.833333	1	1.048875
17.850000	1	1.036625
17.866667	1	1.025125
17.883333	1	1.013750
17.900000	1	1.002250
17.916667	1	0.991500
17.933333	1	0.980750
17.950000	1	0.970250
17.966667	1	0.960375
17.983333	1	0.951250
18.000000	1	0.941875
18.016667	1	0.932125
18.033333	1	0.921500
18.050000	1	0.911750
18.066667	1	0.902125
18.083333	1	0.893000
18.100000	1	0.884625
18.116667	1	0.877000
18.133333	1	0.869750
18.150000	1	0.863500
18.166667	1	0.858625
18.183333	1	0.854375
18.200000	1	0.851250
18.216667	1	0.849750
18.233333	1	0.848625
18.250000	1	0.847750
18.266667	1	0.847875
18.283333	1	0.849250
18.300000	1	0.850500
18.316667	1	0.852125
18.333333	1	0.854500
18.350000	1	0.857250
18.366667	1	0.860750
18.383333	1	0.863875
18.400000	1	0.868000
18.416667	1	0.872750
18.433333	1	0.878375
18.450000	1	0.886125
18.466667	1	0.894625
18.483333	1	0.904875
18.500000	1	0.916625
18.516667	1	0.930250
18.533333	1	0.945125
18.550000	1	0.961000
18.566667	1	0.979875
18.583333	1	1.000125
18.600000	1	1.022375
18.616667	1	1.047250
18.633333	1	1.072875
18.650000	1	1.100000
18.666667	1	1.129250
18.683333	1	1.160125
18.700000	1	1.192750
18.716667	1	1.226000
18.733333	1	1.259125
18.750000	1	1.293625
18.766667	1	1.328625
18.783333	1	1.364000
18.800000	1	1.398875
18.816667	1	1.432250
18.833333	1	1.464375
18.850000	1	1.493750
18.866667	1	1.519000
18.883333	1	1.541125
18.900000	1	1.558375
18.916667	1	1.569500
18.933333	1	1.574875
18.950000	1	1.573125
18.966667	1	1.565000
18.983333	1	1.549500
19.000000	1	1.527875
19.016667	1	1.500500
19.033333	1	1.467250
19.050000	1	1.430000
19.066667	1	1.390125
19.083333	1	1.348875
19.100000	1	1.308375
19.116667	1	1.270250
19.133333	1	1.236875
19.150000	1	1.210250
19.166667	1	1.192500
19.183333	1	1.187125
19.200000	1	1.195375
19.216667	1	1.222125
19.233333	1	1.267250
19.250000	1	1.335750
19.266667	1	1.429875
19.283333	1	1.551125
19.300000	1	1.702125
19.316667	1	1.883375
19.333333	1	2.095125
19.350000	1	2.336375
19.366667	1	2.604625
19.383333	1	2.896000
19.400000	1	3.204500
19.416667	1	3.523000
19.433333	1	3.842000
19.450000	1	4.152500
19.466667	1	4.443625
19.483333	1	4.707250
19.500000	1	4.932500
19.516667	1	5.112125
19.533333	1	5.239750
19.550000	1	5.311125
19.566667	1	5.324250
19.583333	1	5.280500
19.600000	1	5.181750
19.616667	1	5.033250
19.633333	1	4.841250
19.650000	1	4.613500
19.666667	1	4.358625
19.683333	1	4.084875
19.700000	1	3.800500
19.716667	1	3.513125
19.733333	1	3.229625
19.750000	1	2.954000
19.766667	1	2.691750
19.783333	1	2.445500
19.800000	1	2.216250
19.816667	1	2.005750
19.833333	1	1.815375
19.850000	1	1.644500
19.866667	1	1.491625
19.883333	1	1.356875
19.900000	1	1.238375
19.916667	1	1.134625
19.933333	1	1.043625
19.950000	1	0.965125
19.966667	1	0.897625
19.983333	1	0.840500
20.000000	1	0.791750
20.016667	1	0.752375
20.033333	1	0.719125
20.050000	1	0.693125
20.066667	1	0.673875
20.083333	1	0.659625
20.100000	1	0.651375
20.116667	1	0.647750
20.133333	1	0.647875
20.150000	1	0.652000
20.166667	1	0.659375
20.183333	1	0.669250
20.200000	1	0.680750
20.216667	1	0.693750
20.233333	1	0.707000
20.250000	1	0.719125
20.266667	1	0.731500
20.283333	1	0.741500
20.300000	1	0.749875
20.316667	1	0.755250
20.333333	1	0.757750
20.350000	1	0.758125
20.366667	1	0.754250
20.383333	1	0.748250
20.400000	1	0.739000
20.416667	1	0.726750
20.433333	1	0.713000
20.450000	1	0.698125
20.466667	1	0.684000
20.483333	1	0.670125
20.500000	1	0.658750
20.516667	1	0.649125
20.533333	1	0.642125
20.550000	1	0.639875
20.566667	1	0.643000
20.583333	1	0.652500
20.600000	1	0.668000
20.616667	1	0.691375
20.633333	1	0.721875
20.650000	1	0.761500
20.666667	1	0.809625
20.683333	1	0.866375
20.700000	1	0.931125
20.716667	1	1.002750
20.733333	1	1.080375
20.750000	1	1.162625
20.766667	1	1.247625
20.783333	1	1.333125
20.800000	1	1.416250
20.816667	1	1.494250
20.833333	1	1.565250
20.850000	1	1.625750
20.866667	1	1.674250
20.883333	1	1.709875
20.900000	1	1.730750
20.916667	1	1.735375
20.933333	1	1.725375
20.950000	1	1.701500
20.966667	1	1.663250
20.983333	1	1.613875
21.000000	1	1.554875
21.016667	1	1.487750
21.033333	1	1.415750
21.050000	1	1.339500
21.066667	1	1.263375
21.083333	1	1.186625
21.100000	1	1.111750
21.116667	1	1.040875
21.133333	1	0.973750
21.150000	1	0.911750
21.166667	1	0.854125
21.183333	1	0.801875
21.200000	1	0.755000
21.216667	1	0.713125
21.233333	1	0.676250
21.250000	1	0.643875
21.266667	1	0.615500
21.283333	1	0.591000
21.300000	1	0.569750
21.316667	1	0.552000
21.333333	1	0.536125
21.350000	1	0.523000
21.366667	1	0.511375
21.383333	1	0.501625
21.400000	1	0.493250
21.416667	1	0.486375
21.433333	1	0.481125
21.450000	1	0.476625
21.466667	1	0.473250
21.483333	1	0.469875
21.500000	1	0.467625
21.516667	1	0.466250
21.533333	1	0.465750
21.550000	1	0.466750
21.566667	1	0.468625
21.583333	1	0.471625
21.600000	1	0.475625
21.616667	1	0.481625
21.633333	1	0.488125
21.650000	1	0.496500
21.666667	1	0.507875
21.683333	1	0.520750
21.700000	1	0.535500
21.716667	1	0.552250
21.733333	1	0.571750
21.750000	1	0.592750
21.766667	1	0.616250
21.783333	1	0.641500
21.800000	1	0.667500
21.816667	1	0.695500
21.833333	1	0.723125
21.850000	1	0.751875
21.866667	1	0.779250
21.883333	1	0.805625
21.900000	1	0.831250
21.916667	1	0.854000
21.933333	1	0.874250
21.950000	1	0.891875
21.966667	1	0.905875
21.983333	1	0.916250
22.000000	1	0.923125
22.016667	1	0.926375
22.033333	1	0.925625
22.050000	1	0.921750
22.066667	1	0.914625
22.083333	1	0.905750
22.100000	1	0.893250
22.116667	1	0.879500
22.133333	1	0.863250
22.150000	1	0.845625
22.166667	1	0.827625
22.183333	1	0.807625
22.200000	1	0.787250
22.216667	1	0.766750
22.233333	1	0.746375
22.250000	1	0.725500
22.266667	1	0.704750
22.283333	1	0.683625
22.300000	1	0.663750
22.316667	1	0.643625
22.333333	1	0.624000
22.350000	1	0.603625
22.366667	1	0.584375
22.383333	1	0.566875
22.400000	1	0.549750
22.416667	1	0.533625
22.433333	1	0.518625
22.450000	1	0.503875
22.466667	1	0.489875
22.483333	1	0.477500
22.500000	1	0.465500
22.516667	1	0.454250
22.533333	1	0.444500
22.550000	1	0.435375
22.566667	1	0.426875
22.583333	1	0.419750
22.600000	1	0.412875
22.616667	1	0.406000
22.633333	1	0.399500
22.650000	1	0.393250
22.666667	1	0.387875
22.683333	1	0.383250
22.700000	1	0.378125
22.716667	1	0.373625
22.733333	1	0.368875
22.750000	1	0.365000
22.766667	1	0.360875
22.783333	1	0.356250
22.800000	1	0.352375
22.816667	1	0.348625
22.833333	1	0.345000
22.850000	1	0.341500
22.866667	1	0.339000
22.883333	1	0.335750
22.900000	1	0.333250
22.916667	1	0.330875
22.933333	1	0.329000
22.950000	1	0.327625
22.966667	1	0.326250
22.983333	1	0.326125
23.000000	1	0.325750
23.016667	1	0.325750
23.033333	1	0.325500
23.050000	1	0.327125
23.066667	1	0.329000
23.083333	1	0.331375
23.100000	1	0.334250
23.116667	1	0.337250
23.133333	1	0.340875
23.150000	1	0.343750
23.166667	1	0.347125
23.183333	1	0.351250
23.200000	1	0.355125
23.216667	1	0.358875
23.233333	1	0.363125
23.250000	1	0.368625
23.266667	1	0.375375
23.283333	1	0.382875
23.300000	1	0.392125
23.316667	1	0.403750
23.333333	1	0.418125
23.350000	1	0.435750
23.366667	1	0.458500
23.383333	1	0.486375
23.400000	1	0.521125
23.416667	1	0.564500
23.433333	1	0.617250
23.450000	1	0.682750
23.466667	1	0.761000
23.483333	1	0.855500
23.500000	1	0.968125
23.516667	1	1.101000
23.533333	1	1.255625
23.550000	1	1.434625
23.566667	1	1.639000
23.583333	1	1.868750
23.600000	1	2.125250
23.616667	1	2.405125
23.633333	1	2.710375
23.650000	1	3.035000
23.666667	1	3.377625
23.683333	1	3.732250
23.700000	1	4.094125
23.716667	1	4.456125
23.733333	1	4.811000
23.750000	1	5.151500
23.766667	1	5.469000
23.783333	1	5.756625
23.800000	1	6.007375
23.816667	1	6.214625
23.833333	1	6.374000
23.850000	1	6.482375
23.866667	1	6.536875
23.883333	1	6.538125
23.900000	1	6.486500
23.916667	1	6.384250
23.933333	1	6.235250
23.950000	1	6.045000
23.966667	1	5.819000
23.983333	1	5.562875
24.000000	1	5.283500
24.016667	1	4.987875
24.033333	1	4.682750
24.050000	1	4.373250
24.066667	1	4.064625
24.083333	1	3.760750
24.100000	1	3.465500
24.116667	1	3.181875
24.133333	1	2.913375
24.150000	1	2.660875
24.166667	1	2.424875
24.183333	1	2.206500
24.200000	1	2.005125
24.216667	1	1.821750
24.233333	1	1.653625
24.250000	1	1.502625
24.266667	1	1.366375
24.283333	1	1.245000
24.300000	1	1.135750
24.316667	1	1.039125
24.333333	1	0.954000
24.350000	1	0.878875
24.366667	1	0.812125
24.383333	1	0.754625
24.400000	1	0.704625
24.416667	1	0.662000
24.433333	1	0.625375
24.450000	1	0.594250
24.466667	1	0.567750
24.483333	1	0.544875
24.500000	1	0.525750
24.516667	1	0.509500
24.533333	1	0.495750
24.550000	1	0.484750
24.566667	1	0.475000
24.583333	1	0.465875
24.600000	1	0.458375
24.616667	1	0.450625
24.633333	1	0.443625
24.650000	1	0.436250
24.666667	1	0.429125
24.683333	1	0.422250
24.700000	1	0.415625
24.716667	1	0.408500
24.733333	1	0.401250
24.750000	1	0.393625
24.766667	1	0.385875
24.783333	1	0.378500
24.800000	1	0.371250
24.816667	1	0.364000
24.833333	1	0.356375
24.850000	1	0.349125
24.866667	1	0.342125
24.883333	1	0.336250
24.900000	1	0.330500
24.916667	1	0.325500
24.933333	1	0.320375
24.950000	1	0.316125
24.966667	1	0.311625
24.983333	1	0.307375
25.000000	1	0.303250
25.016667	1	0.300125
25.033333	1	0.297000
25.050000	1	0.294250
25.066667	1	0.292125
25.083333	1	0.289875
25.100000	1	0.288375
25.116667	1	0.286125
25.133333	1	0.284375
25.150000	1	0.281875
25.166667	1	0.279500
25.183333	1	0.278000
25.200000	1	0.276000
25.216667	1	0.273375
25.233333	1	0.271125
25.250000	1	0.269250
25.266667	1	0.267000
25.283333	1	0.264875
25.300000	1	0.263250
25.316667	1	0.261875
25.333333	1	0.260500
25.350000	1	0.259250
25.366667	1	0.258375
25.383333	1	0.256750
25.400000	1	0.255625
25.416667	1	0.255375
25.433333	1	0.255000
25.450000	1	0.255250
25.466667	1	0.255875
25.483333	1	0.256625
25.500000	1	0.257875
25.516667	1	0.259500
25.533333	1	0.261500
25.550000	1	0.263625
25.566667	1	0.265625
25.583333	1	0.267750
25.600000	1	0.270250
25.616667	1	0.272375
25.633333	1	0.274125
25.650000	1	0.276375
25.666667	1	0.278375
25.683333	1	0.280125
25.700000	1	0.282250
25.716667	1	0.284000
25.733333	1	0.285875
25.750000	1	0.287375
25.766667	1	0.288500
25.783333	1	0.290250
25.800000	1	0.291625
25.816667	1	0.292875
25.833333	1	0.294000
25.850000	1	0.294750
25.866667	1	0.295250
25.883333	1	0.296750
25.900000	1	0.298000
25.916667	1	0.299625
25.933333	1	0.301750
25.950000	1	0.304375
25.966667	1	0.307500
25.983333	1	0.310500
26.000000	1	0.313750
26.016667	1	0.317625
26.033333	1	0.321000
26.050000	1	0.325750
26.066667	1	0.331125
26.083333	1	0.336625
26.100000	1	0.341625
26.116667	1	0.347625
26.133333	1	0.353500
26.150000	1	0.359750
26.166667	1	0.364875
26.183333	1	0.370625
26.200000	1	0.375875
26.216667	1	0.380000
26.233333	1	0.384125
26.250000	1	0.389125
26.266667	1	0.392250
26.283333	1	0.395375
26.300000	1	0.398375
26.316667	1	0.399625
26.333333	1	0.400500
26.350000	1	0.401250
26.366667	1	0.399250
26.383333	1	0.397625
26.400000	1	0.395625
26.416667	1	0.392875
26.433333	1	0.388375
26.450000	1	0.384375
26.466667	1	0.379000
26.483333	1	0.373500
26.500000	1	0.368000
26.516667	1	0.361625
26.533333	1	0.354750
26.550000	1	0.347750
26.566667	1	0.340250
26.583333	1	0.332750
26.600000	1	0.325000
26.616667	1	0.317375
26.633333	1	0.310500
26.650000	1	0.303375
26.666667	1	0.297125
26.683333	1	0.290500
26.700000	1	0.284125
26.716667	1	0.278750
26.733333	1	0.273250
26.750000	1	0.268000
26.766667	1	0.263375
26.783333	1	0.258125
26.800000	1	0.253875
26.816667	1	0.251000
26.833333	1	0.247375
26.850000	1	0.245125
26.866667	1	0.243250
26.883333	1	0.241250
26.900000	1	0.239375
26.916667	1	0.238375
26.933333	1	0.237750
26.950000	1	0.236625
26.966667	1	0.237125
26.983333	1	0.238125
27.000000	1	0.239500
27.016667	1	0.241500
27.033333	1	0.243875
27.050000	1	0.247000
27.066667	1	0.251625
27.083333	1	0.255750
27.100000	1	0.261375
27.116667	1	0.267625
27.133333	1	0.274250
27.150000	1	0.282375
27.166667	1	0.292500
27.183333	1	0.304125
27.200000	1	0.317625
27.216667	1	0.333000
27.233333	1	0.351000
27.250000	1	0.371625
27.266667	1	0.396375
27.283333	1	0.424625
27.300000	1	0.457500
27.316667	1	0.494875
27.333333	1	0.538125
27.350000	1	0.588000
27.366667	1	0.644625
27.383333	1	0.710375
27.400000	1	0.784125
27.416667	1	0.868750
27.433333	1	0.963500
27.450000	1	1.069750
27.466667	1	1.188375
27.483333	1	1.320000
27.500000	1	1.464500
27.516667	1	1.621250
27.533333	1	1.790500
27.550000	1	1.973125
27.566667	1	2.166750
27.583333	1	2.370500
27.600000	1	2.582125
27.616667	1	2.801375
27.633333	1	3.025125
27.650000	1	3.251500
27.666667	1	3.477125
27.683333	1	3.698750
27.700000	1	3.913000
27.716667	1	4.115625
27.733333	1	4.303750
27.750000	1	4.474750
27.766667	1	4.624500
27.783333	1	4.750625
27.800000	1	4.850375
27.816667	1	4.921625
27.833333	1	4.963625
27.850000	1	4.975250
27.866667	1	4.955500
27.883333	1	4.905875
27.900000	1	4.827500
27.916667	1	4.720000
27.933333	1	4.588000
27.950000	1	4.432500
27.966667	1	4.257125
27.983333	1	4.066125
28.000000	1	3.862125
28.016667	1	3.648625
28.033333	1	3.429000
28.050000	1	3.206750
28.066667	1	2.985000
28.083333	1	2.766250
28.100000	1	2.553250
28.116667	1	2.348125
28.133333	1	2.152125
28.150000	1	1.965875
28.166667	1	1.792000
28.183333	1	1.629500
28.200000	1	1.479000
28.216667	1	1.340750
28.233333	1	1.214125
28.250000	1	1.100375
28.266667	1	0.996750
28.283333	1	0.904250
28.300000	1	0.821625
28.316667	1	0.749250
28.333333	1	0.685500
28.350000	1	0.630750
28.366667	1	0.583500
28.383333	1	0.543125
28.400000	1	0.509125
28.416667	1	0.481000
28.433333	1	0.458375
28.450000	1	0.441125
28.466667	1	0.428750
28.483333	1	0.419500
28.500000	1	0.414000
28.516667	1	0.412250
28.533333	1	0.413000
28.550000	1	0.416125
28.566667	1	0.422250
28.583333	1	0.429500
28.600000	1	0.438625
28.616667	1	0.449625
28.633333	1	0.461500
28.650000	1	0.474000
28.666667	1	0.487000
28.683333	1	0.500375
28.700000	1	0.513625
28.716667	1	0.526500
28.733333	1	0.539125
28.750000	1	0.551000
28.766667	1	0.562875
28.783333	1	0.573875
28.800000	1	0.584125
28.816667	1	0.593125
28.833333	1	0.600875
28.850000	1	0.607125
28.866667	1	0.612250
28.883333	1	0.616875
28.900000	1	0.619125
28.916667	1	0.621125
28.933333	1	0.621500
28.950000	1	0.621000
28.966667	1	0.618250
28.983333	1	0.614125
29.000000	1	0.608500
29.016667	1	0.602750
29.033333	1	0.595500
29.050000	1	0.587250
29.066667	1	0.577125
29.083333	1	0.566250
29.100000	1	0.555375
29.116667	1	0.543250
29.133333	1	0.530000
29.150000	1	0.516625
29.166667	1	0.503625
29.183333	1	0.489125
29.200000	1	0.474875
29.216667	1	0.459750
29.233333	1	0.444500
29.250000	1	0.430000
29.266667	1	0.415250
29.283333	1	0.399875
29.300000	1	0.385000
29.316667	1	0.370250
29.333333	1	0.356375
29.350000	1	0.342375
29.366667	1	0.329250
29.383333	1	0.315750
29.400000	1	0.303250
29.416667	1	0.291375
29.433333	1	0.279625
29.450000	1	0.267875
29.466667	1	0.257750
29.483333	1	0.248000
29.500000	1	0.238500
29.516667	1	0.229875
29.533333	1	0.221125
29.550000	1	0.212875
29.566667	1	0.204750
29.583333	1	0.197750
29.600000	1	0.190875
29.616667	1	0.185000
29.633333	1	0.179500
29.650000	1	0.174500
29.666667	1	0.169625
29.683333	1	0.164750
29.700000	1	0.160375
29.716667	1	0.157125
29.733333	1	0.153500
29.750000	1	0.150125
29.766667	1	0.147625
29.783333	1	0.145625
29.800000	1	0.144125
29.816667	1	0.142750
29.833333	1	0.141000
29.850000	1	0.139125
29.866667	1	0.138250
29.883333	1	0.136625
29.900000	1	0.135375
29.916667	1	0.134250
29.933333	1	0.133750
29.950000	1	0.133625
29.966667	1	0.133375
29.983333	1	0.132500
30.000000	1	0.132000
30.016667	1	0.131500
30.033333	1	0.131500
30.050000	1	0.131375
30.066667	1	0.131875
30.083333	1	0.131375
30.100000	1	0.131500
30.116667	1	0.131750
30.133333	1	0.131375
30.150000	1	0.131875
30.166667	1	0.132625
30.183333	1	0.132625
30.200000	1	0.132750
30.216667	1	0.132875
30.233333	1	0.133750
30.250000	1	0.134625
30.266667	1	0.135125
30.283333	1	0.135750
30.300000	1	0.136000
30.316667	1	0.137125
30.333333	1	0.138000
30.350000	1	0.138875
30.366667	1	0.139625
30.383333	1	0.140375
30.400000	1	0.142000
30.416667	1	0.144000
30.433333	1	0.145625
30.450000	1	0.147375
30.466667	1	0.149375
30.483333	1	0.152375
30.500000	1	0.154625
30.516667	1	0.157250
30.533333	1	0.160875
30.550000	1	0.164375
30.566667	1	0.168125
30.583333	1	0.172625
30.600000	1	0.177750
30.616667	1	0.183000
30.633333	1	0.188750
30.650000	1	0.195500
30.666667	1	0.202500
30.683333	1	0.209375
30.700000	1	0.217125
30.716667	1	0.225750
30.733333	1	0.233625
30.750000	1	0.242750
30.766667	1	0.252625
30.783333	1	0.263000
30.800000	1	0.274625
30.816667	1	0.286875
30.833333	1	0.299500
30.850000	1	0.312875
30.866667	1	0.328000
30.883333	1	0.343250
30.900000	1	0.360750
30.916667	1	0.379500
30.933333	1	0.399875
30.950000	1	0.422375
30.966667	1	0.447500
30.983333	1	0.476125
31.000000	1	0.507875
31.016667	1	0.543500
31.033333	1	0.583875
31.050000	1	0.629625
31.066667	1	0.680625
31.083333	1	0.737375
31.100000	1	0.801125
31.116667	1	0.872625
31.133333	1	0.951750
31.150000	1	1.040375
31.166667	1	1.138000
31.183333	1	1.244625
31.200000	1	1.361125
31.216667	1	1.487750
31.233333	1	1.624000
31.250000	1	1.769625
31.266667	1	1.924625
31.283333	1	2.085875
31.300000	1	2.255125
31.316667	1	2.431250
31.333333	1	2.613000
31.350000	1	2.796875
31.366667	1	2.981875
31.383333	1	3.166875
31.400000	1	3.349125
31.416667	1	3.526750
31.433333	1	3.697375
31.450000	1	3.858375
31.466667	1	4.008500
31.483333	1	4.144250
31.500000	1	4.264375
31.516667	1	4.367500
31.533333	1	4.451750
31.550000	1	4.517500
31.566667	1	4.562125
31.583333	1	4.586125
31.600000	1	4.588375
31.616667	1	4.569875
31.633333	1	4.531625
31.650000	1	4.474250
31.666667	1	4.398250
31.683333	1	4.305375
31.700000	1	4.196500
31.716667	1	4.075500
31.733333	1	3.941500
31.750000	1	3.797250
31.766667	1	3.646375
31.783333	1	3.489000
31.800000	1	3.326500
31.816667	1	3.161375
31.833333	1	2.995500
31.850000	1	2.830000
31.866667	1	2.667625
31.883333	1	2.507875
31.900000	1	2.352125
31.916667	1	2.202000
31.933333	1	2.057250
31.950000	1	1.918750
31.966667	1	1.787875
31.983333	1	1.663250
32.000000	1	1.545875
32.016667	1	1.434750
32.033333	1	1.330875
32.050000	1	1.233250
32.066667	1	1.142500
32.083333	1	1.058125
32.100000	1	0.979000
32.116667	1	0.905750
32.133333	1	0.837625
32.150000	1	0.775125
32.166667	1	0.716625
32.183333	1	0.661625
32.200000	1	0.611125
32.216667	1	0.564000
32.233333	1	0.520250
32.250000	1	0.479625
32.266667	1	0.441750
32.283333	1	0.406750
32.300000	1	0.374250
32.316667	1	0.344125
32.333333	1	0.315875
32.350000	1	0.290000
32.366667	1	0.264375
32.383333	1	0.241875
32.400000	1	0.221625
32.416667	1	0.202750
32.433333	1	0.185625
32.450000	1	0.169875
32.466667	1	0.155125
32.483333	1	0.141375
32.500000	1	0.129375
32.516667	1	0.118625
32.533333	1	0.110000
32.550000	1	0.100625
32.566667	1	0.092750
32.583333	1	0.086500
32.600000	1	0.080000
32.616667	1	0.074000
32.633333	1	0.069250
32.650000	1	0.065000
32.666667	1	0.061875
32.683333	1	0.058375
32.700000	1	0.056000
32.716667	1	0.054125
32.733333	1	0.052250
32.750000	1	0.050625
32.766667	1	0.049625
32.783333	1	0.049250
32.800000	1	0.048750
32.816667	1	0.047875
32.833333	1	0.047250
32.850000	1	0.047000
32.866667	1	0.047000
32.883333	1	0.047000
32.900000	1	0.046875
32.916667	1	0.047625
32.933333	1	0.048125
32.950000	1	0.049750
32.966667	1	0.050250
32.983333	1	0.051375
33.000000	1	0.051750
33.016667	1	0.053250
33.033333	1	0.054875
33.050000	1	0.055125
33.066667	1	0.056250
33.083333	1	0.057625
33.100000	1	0.059375
33.116667	1	0.060625
33.133333	1	0.062000
33.150000	1	0.064625
33.166667	1	0.066875
33.183333	1	0.068750
33.200000	1	0.070375
33.216667	1	0.072000
33.233333	1	0.074000
33.250000	1	0.075750
33.266667	1	0.077625
33.283333	1	0.079125
33.300000	1	0.080125
33.316667	1	0.082375
33.333333	1	0.085625
33.350000	1	0.086750
33.366667	1	0.088875
33.383333	1	0.091375
33.400000	1	0.093625
33.416667	1	0.095000
33.433333	1	0.096500
33.450000	1	0.098125
33.466667	1	0.100000
33.483333	1	0.101625
33.500000	1	0.103000
33.516667	1	0.104875
33.533333	1	0.107125
33.550000	1	0.109250
33.566667	1	0.110625
33.583333	1	0.112375
33.600000	1	0.114875
33.616667	1	0.116125
33.633333	1	0.117625
33.650000	1	0.119000
33.666667	1	0.120875
33.683333	1	0.122500
33.700000	1	0.124375
33.716667	1	0.126000
33.733333	1	0.128125
33.750000	1	0.129625
33.766667	1	0.131000
33.783333	1	0.132625
33.800000	1	0.133750
33.816667	1	0.135625
33.833333	1	0.137125
33.850000	1	0.138625
33.866667	1	0.139375
33.883333	1	0.140375
33.900000	1	0.141875
33.916667	1	0.142375
33.933333	1	0.142750
33.950000	1	0.142750
33.966667	1	0.143625
33.983333	1	0.144125
34.000000	1	0.144500
34.016667	1	0.144375
34.033333	1	0.144875
34.050000	1	0.144500
34.066667	1	0.144875
34.083333	1	0.144750
34.100000	1	0.144125
34.116667	1	0.143750
34.133333	1	0.143125
34.150000	1	0.142750
34.166667	1	0.141750
34.183333	1	0.140875
34.200000	1	0.140375
34.216667	1	0.140000
34.233333	1	0.139750
34.250000	1	0.139000
34.266667	1	0.138625
34.283333	1	0.138000
34.300000	1	0.137125
34.316667	1	0.137375
34.333333	1	0.137000
34.350000	1	0.136750
34.366667	1	0.136500
34.383333	1	0.136375
34.400000	1	0.135750
34.416667	1	0.135625
34.433333	1	0.134625
34.450000	1	0.135125
34.466667	1	0.134500
34.483333	1	0.134375
34.500000	1	0.135000
34.516667	1	0.135000
34.533333	1	0.135375
34.550000	1	0.134875
34.566667	1	0.134625
34.583333	1	0.135000
34.600000	1	0.134875
34.616667	1	0.134875
34.633333	1	0.135125
34.650000	1	0.135375
34.666667	1	0.135500
34.683333	1	0.135500
34.700000	1	0.135125
34.716667	1	0.134750
34.733333	1	0.134250
34.750000	1	0.134125
34.766667	1	0.134375
34.783333	1	0.133875
34.800000	1	0.133250
34.816667	1	0.131875
34.833333	1	0.131375
34.850000	1	0.130125
34.866667	1	0.128625
34.883333	1	0.126750
34.900000	1	0.125250
34.916667	1	0.123375
34.933333	1	0.122000
34.950000	1	0.120875
34.966667	1	0.119375
34.983333	1	0.117375
35.000000	1	0.115750
35.016667	1	0.114500
35.033333	1	0.112750
35.050000	1	0.110375
35.066667	1	0.108875
35.083333	1	0.107000
35.100000	1	0.105000
35.116667	1	0.103625
35.133333	1	0.102875
35.150000	1	0.101125
35.166667	1	0.100000
35.183333	1	0.099375
35.200000	1	0.098500
35.216667	1	0.097750
35.233333	1	0.097000
35.250000	1	0.096125
35.266667	1	0.095625
35.283333	1	0.095500
35.300000	1	0.096125
35.316667	1	0.096250
35.333333	1	0.096375
35.350000	1	0.096750
35.366667	1	0.096500
35.383333	1	0.097375
35.400000	1	0.097625
35.416667	1	0.098250
35.433333	1	0.099500
35.450000	1	0.100500
35.466667	1	0.102250
35.483333	1	0.103500
35.500000	1	0.105000
35.516667	1	0.106250
35.533333	1	0.108500
35.550000	1	0.110375
35.566667	1	0.111750
35.583333	1	0.114000
35.600000	1	0.115375
35.616667	1	0.116500
35.633333	1	0.118500
35.650000	1	0.120500
35.666667	1	0.122000
35.683333	1	0.123500
35.700000	1	0.125250
35.716667	1	0.127625
35.733333	1	0.129125
35.750000	1	0.130500
35.766667	1	0.132125
35.783333	1	0.133625
35.800000	1	0.134250
35.816667	1	0.134875
35.833333	1	0.135375
35.850000	1	0.136500
35.866667	1	0.137000
35.883333	1	0.137750
35.900000	1	0.136875
35.916667	1	0.137000
35.933333	1	0.136250
35.950000	1	0.136625
35.966667	1	0.135875
35.983333	1	0.134500
36.000000	1	0.133875
36.016667	1	0.133125
36.033333	1	0.132125
36.050000	1	0.131875
36.066667	1	0.131375
36.083333	1	0.130125
36.100000	1	0.128750
36.116667	1	0.127625
36.133333	1	0.126750
36.150000	1	0.125875
36.166667	1	0.125000
36.183333	1	0.124000
36.200000	1	0.122625
36.216667	1	0.121875
36.233333	1	0.121625
36.250000	1	0.120625
36.266667	1	0.119875
36.283333	1	0.118875
36.300000	1	0.118750
36.316667	1	0.118000
36.333333	1	0.117625
36.350000	1	0.117000
36.366667	1	0.117625
36.383333	1	0.117625
36.400000	1	0.117000
36.416667	1	0.115125
36.433333	1	0.114375
36.450000	1	0.114750
36.466667	1	0.114500
36.483333	1	0.112000
36.500000	1	0.112000
36.516667	1	0.112500
36.533333	1	0.112375
36.550000	1	0.112000
36.566667	1	0.110750
36.583333	1	0.110125
36.600000	1	0.108875
36.616667	1	0.108375
36.633333	1	0.107750
36.650000	1	0.107375
36.666667	1	0.106750
36.683333	1	0.105500
36.700000	1	0.104875
36.716667	1	0.103500
36.733333	1	0.101875
36.750000	1	0.100375
36.766667	1	0.098875
36.783333	1	0.098125
36.800000	1	0.097125
36.816667	1	0.095750
36.833333	1	0.094375
36.850000	1	0.092875
36.866667	1	0.091500
36.883333	1	0.089875
36.900000	1	0.088250
36.916667	1	0.087500
36.933333	1	0.085875
36.950000	1	0.084125
36.966667	1	0.083125
36.983333	1	0.081500
37.000000	1	0.080750
37.016667	1	0.079625
37.033333	1	0.079625
37.050000	1	0.078125
37.066667	1	0.078250
37.083333	1	0.078000
37.100000	1	0.077250
37.116667	1	0.077500
37.133333	1	0.077875
37.150000	1	0.077875
37.166667	1	0.078375
37.183333	1	0.078125
37.200000	1	0.078625
37.216667	1	0.079000
37.233333	1	0.079500
37.250000	1	0.079375
37.266667	1	0.080000
37.283333	1	0.080625
37.300000	1	0.081875
37.316667	1	0.082125
37.333333	1	0.082750
37.350000	1	0.083250
37.366667	1	0.084250
37.383333	1	0.084500
37.400000	1	0.085625
37.416667	1	0.085875
37.433333	1	0.086625
37.450000	1	0.086750
37.466667	1	0.086625
37.483333	1	0.087375
37.500000	1	0.088000
37.516667	1	0.087875
37.533333	1	0.088125
37.550000	1	0.088500
37.566667	1	0.088000
37.583333	1	0.088000
37.600000	1	0.087250
37.616667	1	0.086125
37.633333	1	0.085625
37.650000	1	0.085000
37.666667	1	0.084750
37.683333	1	0.084125
37.700000	1	0.083250
37.716667	1	0.082375
37.733333	1	0.081375
37.750000	1	0.080625
37.766667	1	0.080125
37.783333	1	0.078375
37.800000	1	0.077375
37.816667	1	0.075875
37.833333	1	0.074625
37.850000	1	0.073500
37.866667	1	0.072250
37.883333	1	0.070875
37.900000	1	0.069500
37.916667	1	0.068125
37.933333	1	0.067125
37.950000	1	0.066500
37.966667	1	0.065250
37.983333	1	0.064000
38.000000	1	0.062375
38.016667	1	0.061750
38.033333	1	0.060625
38.050000	1	0.060250
38.066667	1	0.059875
38.083333	1	0.059250
38.100000	1	0.059000
38.116667	1	0.058875
38.133333	1	0.058250
38.150000	1	0.058125
38.166667	1	0.057875
38.183333	1	0.057875
38.200000	1	0.057000
38.216667	1	0.056875
38.233333	1	0.057250
38.250000	1	0.057250
38.266667	1	0.056875
38.283333	1	0.057125
38.300000	1	0.057500
38.316667	1	0.057875
38.333333	1	0.058000
38.350000	1	0.058500
38.366667	1	0.058125
38.383333	1	0.057625
38.400000	1	0.058125
38.416667	1	0.058625
38.433333	1	0.059250
38.450000	1	0.060000
38.466667	1	0.060625
38.483333	1	0.061375
38.500000	1	0.061625
38.516667	1	0.061750
38.533333	1	0.061875
38.550000	1	0.061875
38.566667	1	0.061750
38.583333	1	0.062375
38.600000	1	0.062750
38.616667	1	0.063250
38.633333	1	0.063875
38.650000	1	0.064000
38.666667	1	0.064875
38.683333	1	0.065000
38.700000	1	0.065500
38.716667	1	0.066000
38.733333	1	0.066625
38.750000	1	0.066750
38.766667	1	0.067250
38.783333	1	0.067750
38.800000	1	0.067625
38.816667	1	0.067375
38.833333	1	0.067125
38.850000	1	0.067000
38.866667	1	0.066625
38.883333	1	0.066750
38.900000	1	0.066750
38.916667	1	0.066375
38.933333	1	0.066250
38.950000	1	0.066125
38.966667	1	0.065625
38.983333	1	0.065125
39.000000	1	0.064125
39.016667	1	0.062750
39.033333	1	0.061375
39.050000	1	0.060750
39.066667	1	0.059625
39.083333	1	0.058125
39.100000	1	0.056750
39.116667	1	0.055125
39.133333	1	0.053375
39.150000	1	0.051250
39.166667	1	0.049375
39.183333	1	0.047250
39.200000	1	0.044750
39.216667	1	0.042375
39.233333	1	0.039875
39.250000	1	0.037375
39.266667	1	0.034625
39.283333	1	0.032750
39.300000	1	0.030250
39.316667	1	0.027000
39.333333	1	0.024625
39.350000	1	0.022625
39.366667	1	0.020000
39.383333	1	0.017375
39.400000	1	0.014500
39.416667	1	0.011875
39.433333	1	0.009875
39.450000	1	0.007750
39.466667	1	0.005750
39.483333	1	0.004500
39.500000	1	0.003125
39.516667	1	0.002125
39.533333	1	0.000625
39.550000	1	-0.000750
39.566667	1	-0.001500
39.583333	1	-0.002625
39.600000	1	-0.002875
39.616667	1	-0.003375
39.633333	1	-0.003625
39.650000	1	-0.003750
39.666667	1	-0.004125
39.683333	1	-0.003875
39.700000	1	-0.003875
39.716667	1	-0.004000
39.733333	1	-0.003750
39.750000	1	-0.003375
39.766667	1	-0.002875
39.783333	1	-0.002625
39.800000	1	-0.002000
39.816667	1	-0.001250
39.833333	1	-0.001000
39.850000	1	-0.000250
39.866667	1	0.000375
39.883333	1	0.000625
39.900000	1	0.001375
39.916667	1	0.002000
39.933333	1	0.002875
39.950000	1	0.003500
39.966667	1	0.003625
39.983333	1	0.004125
40.000000	1	0.004625
