URL	chrom://bioreactor/micro_cm7/HPLC_Ultimate_3000/Users/markusar/20240716_MA_pHrange2.seq/403.smp/RI_1.channel/RI_1.chm
Channel	RI_1

Injection Information:
Data Vault	micro_cm7
Sequence	20240716_MA_pHrange2
Name	Pv3_25H_3
Number	12
Position	BA12
Comment	
Processing Method	
Instrument Method	run_25B_method
Type	Unknown
Status	Finished
Inject Time	17.07.2024 01:37:09 +02:00
Volume (µl)	20.0000
Dilution Factor	1.0000
Weight	1.0000

Chromatogram Data Information:
Time Min. (min)	0.000000
Time Max. (min)	40.000000
Data Points	2401
Detector	RI
Generating Data System	Chromeleon 7.3.2.11814
Exporting Data System	Chromeleon 7.3.2.0
Operator	Instrument Controller
Signal Quantity	Refractive 
Signal Unit	µRIU
Signal Min.	-0.117500
Signal Max.	85.823250
Channel	RI_1
Driver Name	RID520Driver.dll
Channel Type	Evaluation
Min. Step (s)	1
Max. Step (s)	1
Average Step (s)	1

Signal Parameter Information:
Signal Info	

Chromatogram Data:
Time (min)	Step (s)	Value (µRIU)
0.000000	n.a.	0.018875
0.016667	1	0.018750
0.033333	1	0.019000
0.050000	1	0.018875
0.066667	1	0.018250
0.083333	1	0.018000
0.100000	1	0.017625
0.116667	1	0.017750
0.133333	1	0.017000
0.150000	1	0.016750
0.166667	1	0.015625
0.183333	1	0.015250
0.200000	1	0.014000
0.216667	1	0.012875
0.233333	1	0.011875
0.250000	1	0.010500
0.266667	1	0.009375
0.283333	1	0.008125
0.300000	1	0.006625
0.316667	1	0.005125
0.333333	1	0.003500
0.350000	1	0.002375
0.366667	1	0.000500
0.383333	1	-0.001875
0.400000	1	-0.004000
0.416667	1	-0.004875
0.433333	1	-0.005625
0.450000	1	-0.005750
0.466667	1	-0.006250
0.483333	1	-0.006750
0.500000	1	-0.007875
0.516667	1	-0.008750
0.533333	1	-0.010250
0.550000	1	-0.012625
0.566667	1	-0.015500
0.583333	1	-0.017875
0.600000	1	-0.021250
0.616667	1	-0.024500
0.633333	1	-0.026375
0.650000	1	-0.028125
0.666667	1	-0.029250
0.683333	1	-0.030875
0.700000	1	-0.032250
0.716667	1	-0.033625
0.733333	1	-0.035000
0.750000	1	-0.036500
0.766667	1	-0.036750
0.783333	1	-0.037125
0.800000	1	-0.037875
0.816667	1	-0.038750
0.833333	1	-0.039875
0.850000	1	-0.040375
0.866667	1	-0.040500
0.883333	1	-0.040750
0.900000	1	-0.041250
0.916667	1	-0.041125
0.933333	1	-0.040875
0.950000	1	-0.041250
0.966667	1	-0.040875
0.983333	1	-0.040000
1.000000	1	-0.039000
1.016667	1	-0.038000
1.033333	1	-0.037500
1.050000	1	-0.036875
1.066667	1	-0.036250
1.083333	1	-0.034750
1.100000	1	-0.033000
1.116667	1	-0.031625
1.133333	1	-0.029750
1.150000	1	-0.028750
1.166667	1	-0.026625
1.183333	1	-0.025250
1.200000	1	-0.023500
1.216667	1	-0.022125
1.233333	1	-0.019875
1.250000	1	-0.017750
1.266667	1	-0.016000
1.283333	1	-0.013500
1.300000	1	-0.012000
1.316667	1	-0.010375
1.333333	1	-0.009000
1.350000	1	-0.007750
1.366667	1	-0.007000
1.383333	1	-0.006000
1.400000	1	-0.004875
1.416667	1	-0.003625
1.433333	1	-0.002250
1.450000	1	-0.001625
1.466667	1	-0.001000
1.483333	1	-0.001125
1.500000	1	-0.001000
1.516667	1	-0.000625
1.533333	1	-0.001125
1.550000	1	-0.000750
1.566667	1	-0.001250
1.583333	1	-0.002000
1.600000	1	-0.002500
1.616667	1	-0.002500
1.633333	1	-0.002750
1.650000	1	-0.003125
1.666667	1	-0.004000
1.683333	1	-0.004500
1.700000	1	-0.005125
1.716667	1	-0.005875
1.733333	1	-0.006750
1.750000	1	-0.007500
1.766667	1	-0.007750
1.783333	1	-0.008625
1.800000	1	-0.009375
1.816667	1	-0.010000
1.833333	1	-0.010625
1.850000	1	-0.011375
1.866667	1	-0.011750
1.883333	1	-0.012000
1.900000	1	-0.011750
1.916667	1	-0.012000
1.933333	1	-0.012000
1.950000	1	-0.012500
1.966667	1	-0.013250
1.983333	1	-0.012875
2.000000	1	-0.012875
2.016667	1	-0.013250
2.033333	1	-0.013000
2.050000	1	-0.013000
2.066667	1	-0.013125
2.083333	1	-0.013500
2.100000	1	-0.013500
2.116667	1	-0.013875
2.133333	1	-0.013750
2.150000	1	-0.013375
2.166667	1	-0.013750
2.183333	1	-0.013750
2.200000	1	-0.013875
2.216667	1	-0.014250
2.233333	1	-0.014000
2.250000	1	-0.014125
2.266667	1	-0.013625
2.283333	1	-0.013500
2.300000	1	-0.013125
2.316667	1	-0.012750
2.333333	1	-0.012125
2.350000	1	-0.012125
2.366667	1	-0.011750
2.383333	1	-0.011500
2.400000	1	-0.011000
2.416667	1	-0.010625
2.433333	1	-0.010500
2.450000	1	-0.009625
2.466667	1	-0.009375
2.483333	1	-0.008375
2.500000	1	-0.007750
2.516667	1	-0.006750
2.533333	1	-0.005750
2.550000	1	-0.005750
2.566667	1	-0.005000
2.583333	1	-0.004375
2.600000	1	-0.003000
2.616667	1	-0.002250
2.633333	1	-0.002000
2.650000	1	-0.001125
2.666667	1	-0.000750
2.683333	1	0.000625
2.700000	1	0.001500
2.716667	1	0.002375
2.733333	1	0.004125
2.750000	1	0.005000
2.766667	1	0.006250
2.783333	1	0.007500
2.800000	1	0.008750
2.816667	1	0.009750
2.833333	1	0.010250
2.850000	1	0.011500
2.866667	1	0.012750
2.883333	1	0.013250
2.900000	1	0.014500
2.916667	1	0.015750
2.933333	1	0.016750
2.950000	1	0.017875
2.966667	1	0.019000
2.983333	1	0.020625
3.000000	1	0.022000
3.016667	1	0.022500
3.033333	1	0.023500
3.050000	1	0.024500
3.066667	1	0.025500
3.083333	1	0.026125
3.100000	1	0.027000
3.116667	1	0.028375
3.133333	1	0.029250
3.150000	1	0.030375
3.166667	1	0.030375
3.183333	1	0.031125
3.200000	1	0.032250
3.216667	1	0.033125
3.233333	1	0.034125
3.250000	1	0.034500
3.266667	1	0.035375
3.283333	1	0.036625
3.300000	1	0.036500
3.316667	1	0.037500
3.333333	1	0.038250
3.350000	1	0.038750
3.366667	1	0.039750
3.383333	1	0.040250
3.400000	1	0.040875
3.416667	1	0.041625
3.433333	1	0.042625
3.450000	1	0.043500
3.466667	1	0.044625
3.483333	1	0.045625
3.500000	1	0.047125
3.516667	1	0.048375
3.533333	1	0.049000
3.550000	1	0.050125
3.566667	1	0.051250
3.583333	1	0.052750
3.600000	1	0.053250
3.616667	1	0.053625
3.633333	1	0.055000
3.650000	1	0.055750
3.666667	1	0.057375
3.683333	1	0.058375
3.700000	1	0.058875
3.716667	1	0.059875
3.733333	1	0.061250
3.750000	1	0.061875
3.766667	1	0.063500
3.783333	1	0.064000
3.800000	1	0.065625
3.816667	1	0.066625
3.833333	1	0.068625
3.850000	1	0.070250
3.866667	1	0.071125
3.883333	1	0.072500
3.900000	1	0.073625
3.916667	1	0.074250
3.933333	1	0.075750
3.950000	1	0.077000
3.966667	1	0.078375
3.983333	1	0.079875
4.000000	1	0.081125
4.016667	1	0.082375
4.033333	1	0.083250
4.050000	1	0.084875
4.066667	1	0.086250
4.083333	1	0.086750
4.100000	1	0.087625
4.116667	1	0.088875
4.133333	1	0.089500
4.150000	1	0.090625
4.166667	1	0.091125
4.183333	1	0.091750
4.200000	1	0.093250
4.216667	1	0.094000
4.233333	1	0.094750
4.250000	1	0.095750
4.266667	1	0.096625
4.283333	1	0.097375
4.300000	1	0.098250
4.316667	1	0.099125
4.333333	1	0.100125
4.350000	1	0.101375
4.366667	1	0.102625
4.383333	1	0.103875
4.400000	1	0.104875
4.416667	1	0.106250
4.433333	1	0.107625
4.450000	1	0.109125
4.466667	1	0.110000
4.483333	1	0.111125
4.500000	1	0.111750
4.516667	1	0.112750
4.533333	1	0.113875
4.550000	1	0.114875
4.566667	1	0.115625
4.583333	1	0.116875
4.600000	1	0.117625
4.616667	1	0.118375
4.633333	1	0.119500
4.650000	1	0.119875
4.666667	1	0.120625
4.683333	1	0.121625
4.700000	1	0.121875
4.716667	1	0.122375
4.733333	1	0.123000
4.750000	1	0.123500
4.766667	1	0.124500
4.783333	1	0.125500
4.800000	1	0.126750
4.816667	1	0.128500
4.833333	1	0.129250
4.850000	1	0.130000
4.866667	1	0.131500
4.883333	1	0.132875
4.900000	1	0.135125
4.916667	1	0.136500
4.933333	1	0.138875
4.950000	1	0.141250
4.966667	1	0.143375
4.983333	1	0.145875
5.000000	1	0.148375
5.016667	1	0.151750
5.033333	1	0.155000
5.050000	1	0.157625
5.066667	1	0.161125
5.083333	1	0.164250
5.100000	1	0.167750
5.116667	1	0.170500
5.133333	1	0.173750
5.150000	1	0.176875
5.166667	1	0.180500
5.183333	1	0.183375
5.200000	1	0.186000
5.216667	1	0.188375
5.233333	1	0.190875
5.250000	1	0.193625
5.266667	1	0.196000
5.283333	1	0.198625
5.300000	1	0.199750
5.316667	1	0.201000
5.333333	1	0.203250
5.350000	1	0.204500
5.366667	1	0.205375
5.383333	1	0.206500
5.400000	1	0.206750
5.416667	1	0.207125
5.433333	1	0.207375
5.450000	1	0.206750
5.466667	1	0.205750
5.483333	1	0.204750
5.500000	1	0.204375
5.516667	1	0.203500
5.533333	1	0.202375
5.550000	1	0.200750
5.566667	1	0.199500
5.583333	1	0.197750
5.600000	1	0.196000
5.616667	1	0.193875
5.633333	1	0.191625
5.650000	1	0.188750
5.666667	1	0.186625
5.683333	1	0.183750
5.700000	1	0.180875
5.716667	1	0.178125
5.733333	1	0.175125
5.750000	1	0.171875
5.766667	1	0.167875
5.783333	1	0.165125
5.800000	1	0.162250
5.816667	1	0.159250
5.833333	1	0.156375
5.850000	1	0.153125
5.866667	1	0.149375
5.883333	1	0.145750
5.900000	1	0.141875
5.916667	1	0.137875
5.933333	1	0.134750
5.950000	1	0.131625
5.966667	1	0.128500
5.983333	1	0.125875
6.000000	1	0.123500
6.016667	1	0.120625
6.033333	1	0.117750
6.050000	1	0.114375
6.066667	1	0.111875
6.083333	1	0.108875
6.100000	1	0.106000
6.116667	1	0.102875
6.133333	1	0.100250
6.150000	1	0.098000
6.166667	1	0.095250
6.183333	1	0.093250
6.200000	1	0.090625
6.216667	1	0.088000
6.233333	1	0.086125
6.250000	1	0.083500
6.266667	1	0.081750
6.283333	1	0.079375
6.300000	1	0.077375
6.316667	1	0.075250
6.333333	1	0.074000
6.350000	1	0.072500
6.366667	1	0.071000
6.383333	1	0.068875
6.400000	1	0.067125
6.416667	1	0.066250
6.433333	1	0.064625
6.450000	1	0.063375
6.466667	1	0.062125
6.483333	1	0.061250
6.500000	1	0.060500
6.516667	1	0.060000
6.533333	1	0.059875
6.550000	1	0.059875
6.566667	1	0.060125
6.583333	1	0.060375
6.600000	1	0.060625
6.616667	1	0.061125
6.633333	1	0.060750
6.650000	1	0.061625
6.666667	1	0.063000
6.683333	1	0.063750
6.700000	1	0.065000
6.716667	1	0.065875
6.733333	1	0.067125
6.750000	1	0.069000
6.766667	1	0.070875
6.783333	1	0.072125
6.800000	1	0.073500
6.816667	1	0.075500
6.833333	1	0.077500
6.850000	1	0.079750
6.866667	1	0.081500
6.883333	1	0.083500
6.900000	1	0.085500
6.916667	1	0.086750
6.933333	1	0.088500
6.950000	1	0.090375
6.966667	1	0.092500
6.983333	1	0.094125
7.000000	1	0.096625
7.016667	1	0.098125
7.033333	1	0.100500
7.050000	1	0.101750
7.066667	1	0.103250
7.083333	1	0.105125
7.100000	1	0.106625
7.116667	1	0.107750
7.133333	1	0.109375
7.150000	1	0.110500
7.166667	1	0.111625
7.183333	1	0.112250
7.200000	1	0.113375
7.216667	1	0.113500
7.233333	1	0.114000
7.250000	1	0.114125
7.266667	1	0.114125
7.283333	1	0.114375
7.300000	1	0.113500
7.316667	1	0.112875
7.333333	1	0.111875
7.350000	1	0.111000
7.366667	1	0.110500
7.383333	1	0.108875
7.400000	1	0.106875
7.416667	1	0.105375
7.433333	1	0.103750
7.450000	1	0.100875
7.466667	1	0.097500
7.483333	1	0.095125
7.500000	1	0.092000
7.516667	1	0.089500
7.533333	1	0.086500
7.550000	1	0.084250
7.566667	1	0.081125
7.583333	1	0.077750
7.600000	1	0.074375
7.616667	1	0.070875
7.633333	1	0.067000
7.650000	1	0.063750
7.666667	1	0.059875
7.683333	1	0.056750
7.700000	1	0.053250
7.716667	1	0.050125
7.733333	1	0.046125
7.750000	1	0.042750
7.766667	1	0.039875
7.783333	1	0.037125
7.800000	1	0.033625
7.816667	1	0.030250
7.833333	1	0.027000
7.850000	1	0.023500
7.866667	1	0.020375
7.883333	1	0.017250
7.900000	1	0.014750
7.916667	1	0.013000
7.933333	1	0.011125
7.950000	1	0.009375
7.966667	1	0.007000
7.983333	1	0.004625
8.000000	1	0.002625
8.016667	1	0.000500
8.033333	1	-0.001000
8.050000	1	-0.002625
8.066667	1	-0.004875
8.083333	1	-0.006500
8.100000	1	-0.007750
8.116667	1	-0.008875
8.133333	1	-0.010000
8.150000	1	-0.010500
8.166667	1	-0.011125
8.183333	1	-0.011500
8.200000	1	-0.012375
8.216667	1	-0.012750
8.233333	1	-0.013000
8.250000	1	-0.013250
8.266667	1	-0.013750
8.283333	1	-0.013625
8.300000	1	-0.013375
8.316667	1	-0.012875
8.333333	1	-0.012250
8.350000	1	-0.011625
8.366667	1	-0.010875
8.383333	1	-0.008875
8.400000	1	-0.007875
8.416667	1	-0.006500
8.433333	1	-0.004750
8.450000	1	-0.003375
8.466667	1	-0.000250
8.483333	1	0.001125
8.500000	1	0.003500
8.516667	1	0.005875
8.533333	1	0.008375
8.550000	1	0.010500
8.566667	1	0.013375
8.583333	1	0.015250
8.600000	1	0.017625
8.616667	1	0.020000
8.633333	1	0.021875
8.650000	1	0.023250
8.666667	1	0.025375
8.683333	1	0.027000
8.700000	1	0.029250
8.716667	1	0.031375
8.733333	1	0.033000
8.750000	1	0.034250
8.766667	1	0.035500
8.783333	1	0.036750
8.800000	1	0.038125
8.816667	1	0.038500
8.833333	1	0.038375
8.850000	1	0.039750
8.866667	1	0.040250
8.883333	1	0.040375
8.900000	1	0.040750
8.916667	1	0.041375
8.933333	1	0.041625
8.950000	1	0.042000
8.966667	1	0.041750
8.983333	1	0.041000
9.000000	1	0.040375
9.016667	1	0.040250
9.033333	1	0.039625
9.050000	1	0.038125
9.066667	1	0.037250
9.083333	1	0.036250
9.100000	1	0.034875
9.116667	1	0.033250
9.133333	1	0.031750
9.150000	1	0.029625
9.166667	1	0.028000
9.183333	1	0.026000
9.200000	1	0.023625
9.216667	1	0.021000
9.233333	1	0.019000
9.250000	1	0.016375
9.266667	1	0.013750
9.283333	1	0.011250
9.300000	1	0.008500
9.316667	1	0.006000
9.333333	1	0.002625
9.350000	1	-0.000375
9.366667	1	-0.003000
9.383333	1	-0.005750
9.400000	1	-0.008750
9.416667	1	-0.011750
9.433333	1	-0.014125
9.450000	1	-0.016625
9.466667	1	-0.019750
9.483333	1	-0.022125
9.500000	1	-0.024625
9.516667	1	-0.026375
9.533333	1	-0.028500
9.550000	1	-0.030500
9.566667	1	-0.032375
9.583333	1	-0.034250
9.600000	1	-0.035875
9.616667	1	-0.037250
9.633333	1	-0.039000
9.650000	1	-0.040125
9.666667	1	-0.041125
9.683333	1	-0.041125
9.700000	1	-0.040875
9.716667	1	-0.041375
9.733333	1	-0.041625
9.750000	1	-0.041375
9.766667	1	-0.041375
9.783333	1	-0.041375
9.800000	1	-0.040250
9.816667	1	-0.039375
9.833333	1	-0.038500
9.850000	1	-0.037125
9.866667	1	-0.036000
9.883333	1	-0.034750
9.900000	1	-0.033125
9.916667	1	-0.031625
9.933333	1	-0.030500
9.950000	1	-0.028000
9.966667	1	-0.025750
9.983333	1	-0.023750
10.000000	1	-0.021375
10.016667	1	-0.019000
10.033333	1	-0.017375
10.050000	1	-0.014125
10.066667	1	-0.011125
10.083333	1	-0.006875
10.100000	1	-0.003250
10.116667	1	0.000750
10.133333	1	0.005250
10.150000	1	0.009875
10.166667	1	0.016125
10.183333	1	0.022625
10.200000	1	0.029500
10.216667	1	0.037500
10.233333	1	0.047125
10.250000	1	0.058000
10.266667	1	0.070125
10.283333	1	0.083625
10.300000	1	0.098625
10.316667	1	0.114500
10.333333	1	0.131875
10.350000	1	0.149125
10.366667	1	0.164250
10.383333	1	0.174375
10.400000	1	0.174875
10.416667	1	0.160625
10.433333	1	0.128125
10.450000	1	0.075625
10.466667	1	0.007750
10.483333	1	-0.064000
10.500000	1	-0.117500
10.516667	1	-0.116375
10.533333	1	-0.013625
10.550000	1	0.248875
10.566667	1	0.736000
10.583333	1	1.515375
10.600000	1	2.651375
10.616667	1	4.199500
10.633333	1	6.204875
10.650000	1	8.699250
10.666667	1	11.705500
10.683333	1	15.235625
10.700000	1	19.289625
10.716667	1	23.856500
10.733333	1	28.915250
10.750000	1	34.433625
10.766667	1	40.369750
10.783333	1	46.663625
10.800000	1	53.234625
10.816667	1	59.964375
10.833333	1	66.671000
10.850000	1	73.082875
10.866667	1	78.804000
10.883333	1	83.276625
10.900000	1	85.823250
10.916667	1	85.792750
10.933333	1	82.791000
10.950000	1	76.902500
10.966667	1	68.745125
10.983333	1	59.286375
11.000000	1	49.555750
11.016667	1	40.389625
11.033333	1	32.303375
11.050000	1	25.498750
11.066667	1	19.965125
11.083333	1	15.577875
11.100000	1	12.164750
11.116667	1	9.548750
11.133333	1	7.563875
11.150000	1	6.068500
11.166667	1	4.944875
11.183333	1	4.100625
11.200000	1	3.462875
11.216667	1	2.978000
11.233333	1	2.605750
11.250000	1	2.316625
11.266667	1	2.089500
11.283333	1	1.908375
11.300000	1	1.761750
11.316667	1	1.641000
11.333333	1	1.540625
11.350000	1	1.455625
11.366667	1	1.383500
11.383333	1	1.322625
11.400000	1	1.270125
11.416667	1	1.225375
11.433333	1	1.186750
11.450000	1	1.153375
11.466667	1	1.124500
11.483333	1	1.100375
11.500000	1	1.079000
11.516667	1	1.060500
11.533333	1	1.044500
11.550000	1	1.030625
11.566667	1	1.018875
11.583333	1	1.008625
11.600000	1	0.999375
11.616667	1	0.992375
11.633333	1	0.985875
11.650000	1	0.981500
11.666667	1	0.979000
11.683333	1	0.976625
11.700000	1	0.976375
11.716667	1	0.977250
11.733333	1	0.978750
11.750000	1	0.981000
11.766667	1	0.984750
11.783333	1	0.989750
11.800000	1	0.995125
11.816667	1	1.001625
11.833333	1	1.008000
11.850000	1	1.015000
11.866667	1	1.021750
11.883333	1	1.028000
11.900000	1	1.033875
11.916667	1	1.038875
11.933333	1	1.042500
11.950000	1	1.046125
11.966667	1	1.048375
11.983333	1	1.049125
12.000000	1	1.049625
12.016667	1	1.049625
12.033333	1	1.049250
12.050000	1	1.048375
12.066667	1	1.048125
12.083333	1	1.047750
12.100000	1	1.047375
12.116667	1	1.047250
12.133333	1	1.047000
12.150000	1	1.048250
12.166667	1	1.050000
12.183333	1	1.052000
12.200000	1	1.054750
12.216667	1	1.057625
12.233333	1	1.061875
12.250000	1	1.068375
12.266667	1	1.076750
12.283333	1	1.088875
12.300000	1	1.104500
12.316667	1	1.125500
12.333333	1	1.153250
12.350000	1	1.190625
12.366667	1	1.240000
12.383333	1	1.304375
12.400000	1	1.387750
12.416667	1	1.495125
12.433333	1	1.630250
12.450000	1	1.798500
12.466667	1	2.004500
12.483333	1	2.253250
12.500000	1	2.549750
12.516667	1	2.897625
12.533333	1	3.300250
12.550000	1	3.757875
12.566667	1	4.271125
12.583333	1	4.837750
12.600000	1	5.453375
12.616667	1	6.108750
12.633333	1	6.793750
12.650000	1	7.498125
12.666667	1	8.208250
12.683333	1	8.911500
12.700000	1	9.595625
12.716667	1	10.250750
12.733333	1	10.870125
12.750000	1	11.452375
12.766667	1	11.998000
12.783333	1	12.513875
12.800000	1	13.007250
12.816667	1	13.488875
12.833333	1	13.969875
12.850000	1	14.459500
12.866667	1	14.966500
12.883333	1	15.499500
12.900000	1	16.061750
12.916667	1	16.655500
12.933333	1	17.282625
12.950000	1	17.944375
12.966667	1	18.637125
12.983333	1	19.361500
13.000000	1	20.113625
13.016667	1	20.891375
13.033333	1	21.695250
13.050000	1	22.524125
13.066667	1	23.376750
13.083333	1	24.251000
13.100000	1	25.147125
13.116667	1	26.063375
13.133333	1	26.999000
13.150000	1	27.953000
13.166667	1	28.926625
13.183333	1	29.919375
13.200000	1	30.930625
13.216667	1	31.959250
13.233333	1	33.008625
13.250000	1	34.078125
13.266667	1	35.168625
13.283333	1	36.279375
13.300000	1	37.411625
13.316667	1	38.565250
13.333333	1	39.740375
13.350000	1	40.936625
13.366667	1	42.156625
13.383333	1	43.399375
13.400000	1	44.664375
13.416667	1	45.952625
13.433333	1	47.266000
13.450000	1	48.606250
13.466667	1	49.973500
13.483333	1	51.369500
13.500000	1	52.793875
13.516667	1	54.247875
13.533333	1	55.730875
13.550000	1	57.243875
13.566667	1	58.786500
13.583333	1	60.359750
13.600000	1	61.962875
13.616667	1	63.596750
13.633333	1	65.263750
13.650000	1	66.966250
13.666667	1	68.704250
13.683333	1	70.479125
13.700000	1	72.290250
13.716667	1	74.139000
13.733333	1	76.023875
13.750000	1	77.938625
13.766667	1	79.854250
13.783333	1	81.678750
13.800000	1	83.237125
13.816667	1	84.286000
13.833333	1	84.563500
13.850000	1	83.829500
13.866667	1	81.860125
13.883333	1	78.421000
13.900000	1	73.298250
13.916667	1	66.431375
13.933333	1	58.100750
13.950000	1	48.985375
13.966667	1	39.978750
13.983333	1	31.868875
14.000000	1	25.089125
14.016667	1	19.701375
14.033333	1	15.550875
14.050000	1	12.407000
14.066667	1	10.050750
14.083333	1	8.300000
14.100000	1	7.009250
14.116667	1	6.062125
14.133333	1	5.366875
14.150000	1	4.853125
14.166667	1	4.468375
14.183333	1	4.175500
14.200000	1	3.947625
14.216667	1	3.767125
14.233333	1	3.619500
14.250000	1	3.496125
14.266667	1	3.391250
14.283333	1	3.299875
14.300000	1	3.219375
14.316667	1	3.147875
14.333333	1	3.083000
14.350000	1	3.024250
14.366667	1	2.972500
14.383333	1	2.926625
14.400000	1	2.888750
14.416667	1	2.858250
14.433333	1	2.837625
14.450000	1	2.830250
14.466667	1	2.839375
14.483333	1	2.870000
14.500000	1	2.931250
14.516667	1	3.032625
14.533333	1	3.189875
14.550000	1	3.419625
14.566667	1	3.747750
14.583333	1	4.203250
14.600000	1	4.824750
14.616667	1	5.659375
14.633333	1	6.761375
14.650000	1	8.192000
14.666667	1	10.017000
14.683333	1	12.299250
14.700000	1	15.094875
14.716667	1	18.444875
14.733333	1	22.373375
14.750000	1	26.876750
14.766667	1	31.908500
14.783333	1	37.375625
14.800000	1	43.149875
14.816667	1	49.061625
14.833333	1	54.901875
14.850000	1	60.432250
14.866667	1	65.400875
14.883333	1	69.565875
14.900000	1	72.710625
14.916667	1	74.672000
14.933333	1	75.348125
14.950000	1	74.712875
14.966667	1	72.815625
14.983333	1	69.780375
15.000000	1	65.780500
15.016667	1	61.031125
15.033333	1	55.765875
15.050000	1	50.223750
15.066667	1	44.628875
15.083333	1	39.173875
15.100000	1	34.011625
15.116667	1	29.251875
15.133333	1	24.962500
15.150000	1	21.172750
15.166667	1	17.883750
15.183333	1	15.072375
15.200000	1	12.697375
15.216667	1	10.713125
15.233333	1	9.069125
15.250000	1	7.717625
15.266667	1	6.613125
15.283333	1	5.716625
15.300000	1	4.992500
15.316667	1	4.409625
15.333333	1	3.941750
15.350000	1	3.568375
15.366667	1	3.272250
15.383333	1	3.039000
15.400000	1	2.856500
15.416667	1	2.715750
15.433333	1	2.609125
15.450000	1	2.529750
15.466667	1	2.471000
15.483333	1	2.429625
15.500000	1	2.400125
15.516667	1	2.376875
15.533333	1	2.357625
15.550000	1	2.339375
15.566667	1	2.319750
15.583333	1	2.296250
15.600000	1	2.268750
15.616667	1	2.235625
15.633333	1	2.198250
15.650000	1	2.156875
15.666667	1	2.112625
15.683333	1	2.066875
15.700000	1	2.021125
15.716667	1	1.976500
15.733333	1	1.932875
15.750000	1	1.891000
15.766667	1	1.851250
15.783333	1	1.814250
15.800000	1	1.779375
15.816667	1	1.744875
15.833333	1	1.712125
15.850000	1	1.680250
15.866667	1	1.649750
15.883333	1	1.620125
15.900000	1	1.591750
15.916667	1	1.564500
15.933333	1	1.539125
15.950000	1	1.516250
15.966667	1	1.496000
15.983333	1	1.478250
16.000000	1	1.463750
16.016667	1	1.451000
16.033333	1	1.442750
16.050000	1	1.436250
16.066667	1	1.432000
16.083333	1	1.430125
16.100000	1	1.428875
16.116667	1	1.428125
16.133333	1	1.426625
16.150000	1	1.424875
16.166667	1	1.421625
16.183333	1	1.417125
16.200000	1	1.410875
16.216667	1	1.400875
16.233333	1	1.390250
16.250000	1	1.377375
16.266667	1	1.363375
16.283333	1	1.347500
16.300000	1	1.330625
16.316667	1	1.313000
16.333333	1	1.294875
16.350000	1	1.277500
16.366667	1	1.260375
16.383333	1	1.243250
16.400000	1	1.228000
16.416667	1	1.212625
16.433333	1	1.199125
16.450000	1	1.187375
16.466667	1	1.176375
16.483333	1	1.168500
16.500000	1	1.161750
16.516667	1	1.157875
16.533333	1	1.156125
16.550000	1	1.156625
16.566667	1	1.159375
16.583333	1	1.163625
16.600000	1	1.169625
16.616667	1	1.176000
16.633333	1	1.181875
16.650000	1	1.188125
16.666667	1	1.194250
16.683333	1	1.199250
16.700000	1	1.202875
16.716667	1	1.205375
16.733333	1	1.207375
16.750000	1	1.208875
16.766667	1	1.209250
16.783333	1	1.209625
16.800000	1	1.210000
16.816667	1	1.211125
16.833333	1	1.212375
16.850000	1	1.214625
16.866667	1	1.216750
16.883333	1	1.219000
16.900000	1	1.221250
16.916667	1	1.223750
16.933333	1	1.225625
16.950000	1	1.226875
16.966667	1	1.227125
16.983333	1	1.226500
17.000000	1	1.225250
17.016667	1	1.222250
17.033333	1	1.219125
17.050000	1	1.214625
17.066667	1	1.210500
17.083333	1	1.205500
17.100000	1	1.199750
17.116667	1	1.194125
17.133333	1	1.189125
17.150000	1	1.184500
17.166667	1	1.181125
17.183333	1	1.178125
17.200000	1	1.175500
17.216667	1	1.173750
17.233333	1	1.172625
17.250000	1	1.172375
17.266667	1	1.172500
17.283333	1	1.172750
17.300000	1	1.173500
17.316667	1	1.174875
17.333333	1	1.175875
17.350000	1	1.177875
17.366667	1	1.180000
17.383333	1	1.182000
17.400000	1	1.184500
17.416667	1	1.186375
17.433333	1	1.186750
17.450000	1	1.187125
17.466667	1	1.187000
17.483333	1	1.185625
17.500000	1	1.182750
17.516667	1	1.179250
17.533333	1	1.173500
17.550000	1	1.167500
17.566667	1	1.159250
17.583333	1	1.149500
17.600000	1	1.138875
17.616667	1	1.126000
17.633333	1	1.112625
17.650000	1	1.098375
17.666667	1	1.082250
17.683333	1	1.066750
17.700000	1	1.050250
17.716667	1	1.034375
17.733333	1	1.018625
17.750000	1	1.002750
17.766667	1	0.987750
17.783333	1	0.973125
17.800000	1	0.959250
17.816667	1	0.946250
17.833333	1	0.934625
17.850000	1	0.923375
17.866667	1	0.912500
17.883333	1	0.903000
17.900000	1	0.894250
17.916667	1	0.885625
17.933333	1	0.877875
17.950000	1	0.871000
17.966667	1	0.864500
17.983333	1	0.858750
18.000000	1	0.853375
18.016667	1	0.848375
18.033333	1	0.843500
18.050000	1	0.838125
18.066667	1	0.832875
18.083333	1	0.827625
18.100000	1	0.822750
18.116667	1	0.817625
18.133333	1	0.812000
18.150000	1	0.806875
18.166667	1	0.802625
18.183333	1	0.798500
18.200000	1	0.794125
18.216667	1	0.791125
18.233333	1	0.788250
18.250000	1	0.786625
18.266667	1	0.785250
18.283333	1	0.784625
18.300000	1	0.784250
18.316667	1	0.784375
18.333333	1	0.785125
18.350000	1	0.786000
18.366667	1	0.787125
18.383333	1	0.789000
18.400000	1	0.791500
18.416667	1	0.794500
18.433333	1	0.797750
18.450000	1	0.801250
18.466667	1	0.805375
18.483333	1	0.811375
18.500000	1	0.817625
18.516667	1	0.825750
18.533333	1	0.835625
18.550000	1	0.846625
18.566667	1	0.860000
18.583333	1	0.875500
18.600000	1	0.892625
18.616667	1	0.911500
18.633333	1	0.932750
18.650000	1	0.955750
18.666667	1	0.981375
18.683333	1	1.009500
18.700000	1	1.038125
18.716667	1	1.068500
18.733333	1	1.100625
18.750000	1	1.134625
18.766667	1	1.169000
18.783333	1	1.204250
18.800000	1	1.240500
18.816667	1	1.275625
18.833333	1	1.309875
18.850000	1	1.341750
18.866667	1	1.372000
18.883333	1	1.399125
18.900000	1	1.422125
18.916667	1	1.441500
18.933333	1	1.454375
18.950000	1	1.461750
18.966667	1	1.462625
18.983333	1	1.458250
19.000000	1	1.445750
19.016667	1	1.427500
19.033333	1	1.402000
19.050000	1	1.371500
19.066667	1	1.335625
19.083333	1	1.296250
19.100000	1	1.253875
19.116667	1	1.209750
19.133333	1	1.164750
19.150000	1	1.121500
19.166667	1	1.080750
19.183333	1	1.044750
19.200000	1	1.012625
19.216667	1	0.988125
19.233333	1	0.971000
19.250000	1	0.963625
19.266667	1	0.967250
19.283333	1	0.982000
19.300000	1	1.010375
19.316667	1	1.052250
19.333333	1	1.109375
19.350000	1	1.181750
19.366667	1	1.270000
19.383333	1	1.375125
19.400000	1	1.496000
19.416667	1	1.632625
19.433333	1	1.783750
19.450000	1	1.945625
19.466667	1	2.118125
19.483333	1	2.296625
19.500000	1	2.476750
19.516667	1	2.655500
19.533333	1	2.827125
19.550000	1	2.987250
19.566667	1	3.130000
19.583333	1	3.252250
19.600000	1	3.349125
19.616667	1	3.416500
19.633333	1	3.453125
19.650000	1	3.458125
19.666667	1	3.431000
19.683333	1	3.373625
19.700000	1	3.289125
19.716667	1	3.180125
19.733333	1	3.050375
19.750000	1	2.904500
19.766667	1	2.747000
19.783333	1	2.582250
19.800000	1	2.414125
19.816667	1	2.246000
19.833333	1	2.082125
19.850000	1	1.923750
19.866667	1	1.773750
19.883333	1	1.633625
19.900000	1	1.504500
19.916667	1	1.385875
19.933333	1	1.278500
19.950000	1	1.181125
19.966667	1	1.094500
19.983333	1	1.017250
20.000000	1	0.949500
20.016667	1	0.890375
20.033333	1	0.838750
20.050000	1	0.794375
20.066667	1	0.757000
20.083333	1	0.726125
20.100000	1	0.701375
20.116667	1	0.681500
20.133333	1	0.666750
20.150000	1	0.657375
20.166667	1	0.651250
20.183333	1	0.649250
20.200000	1	0.651000
20.216667	1	0.655500
20.233333	1	0.661750
20.250000	1	0.670125
20.266667	1	0.679625
20.283333	1	0.690000
20.300000	1	0.699875
20.316667	1	0.708875
20.333333	1	0.716750
20.350000	1	0.723500
20.366667	1	0.727875
20.383333	1	0.730125
20.400000	1	0.729750
20.416667	1	0.726875
20.433333	1	0.722375
20.450000	1	0.715875
20.466667	1	0.708750
20.483333	1	0.700125
20.500000	1	0.691875
20.516667	1	0.685000
20.533333	1	0.680125
20.550000	1	0.678000
20.566667	1	0.679750
20.583333	1	0.686250
20.600000	1	0.698500
20.616667	1	0.717375
20.633333	1	0.743750
20.650000	1	0.776625
20.666667	1	0.817250
20.683333	1	0.865500
20.700000	1	0.920625
20.716667	1	0.983125
20.733333	1	1.051375
20.750000	1	1.123750
20.766667	1	1.199125
20.783333	1	1.275750
20.800000	1	1.351750
20.816667	1	1.424000
20.833333	1	1.490375
20.850000	1	1.548625
20.866667	1	1.598000
20.883333	1	1.634625
20.900000	1	1.658750
20.916667	1	1.669375
20.933333	1	1.666000
20.950000	1	1.647250
20.966667	1	1.616500
20.983333	1	1.573500
21.000000	1	1.519625
21.016667	1	1.457250
21.033333	1	1.387750
21.050000	1	1.315000
21.066667	1	1.239375
21.083333	1	1.163500
21.100000	1	1.088875
21.116667	1	1.016750
21.133333	1	0.947875
21.150000	1	0.883625
21.166667	1	0.824500
21.183333	1	0.770875
21.200000	1	0.722375
21.216667	1	0.678625
21.233333	1	0.640625
21.250000	1	0.607000
21.266667	1	0.577750
21.283333	1	0.552875
21.300000	1	0.531125
21.316667	1	0.512500
21.333333	1	0.496625
21.350000	1	0.483375
21.366667	1	0.471750
21.383333	1	0.461750
21.400000	1	0.452500
21.416667	1	0.444875
21.433333	1	0.438750
21.450000	1	0.433250
21.466667	1	0.428125
21.483333	1	0.424625
21.500000	1	0.421000
21.516667	1	0.417875
21.533333	1	0.415625
21.550000	1	0.414125
21.566667	1	0.412625
21.583333	1	0.411500
21.600000	1	0.411125
21.616667	1	0.411500
21.633333	1	0.412750
21.650000	1	0.414875
21.666667	1	0.418000
21.683333	1	0.422500
21.700000	1	0.427250
21.716667	1	0.433250
21.733333	1	0.440250
21.750000	1	0.448125
21.766667	1	0.457125
21.783333	1	0.466750
21.800000	1	0.476625
21.816667	1	0.488000
21.833333	1	0.499375
21.850000	1	0.511625
21.866667	1	0.524750
21.883333	1	0.537750
21.900000	1	0.550625
21.916667	1	0.563750
21.933333	1	0.576750
21.950000	1	0.589750
21.966667	1	0.602125
21.983333	1	0.614000
22.000000	1	0.625250
22.016667	1	0.635250
22.033333	1	0.644875
22.050000	1	0.652750
22.066667	1	0.659750
22.083333	1	0.664875
22.100000	1	0.669500
22.116667	1	0.672750
22.133333	1	0.674250
22.150000	1	0.674500
22.166667	1	0.673000
22.183333	1	0.670125
22.200000	1	0.665750
22.216667	1	0.660000
22.233333	1	0.652375
22.250000	1	0.643500
22.266667	1	0.633375
22.283333	1	0.622375
22.300000	1	0.610250
22.316667	1	0.597250
22.333333	1	0.582750
22.350000	1	0.568250
22.366667	1	0.552875
22.383333	1	0.537625
22.400000	1	0.521125
22.416667	1	0.505250
22.433333	1	0.489375
22.450000	1	0.474375
22.466667	1	0.459000
22.483333	1	0.444750
22.500000	1	0.430500
22.516667	1	0.417125
22.533333	1	0.405125
22.550000	1	0.393875
22.566667	1	0.383375
22.583333	1	0.372750
22.600000	1	0.363250
22.616667	1	0.354125
22.633333	1	0.346375
22.650000	1	0.338500
22.666667	1	0.331250
22.683333	1	0.325250
22.700000	1	0.319750
22.716667	1	0.314250
22.733333	1	0.309125
22.750000	1	0.304375
22.766667	1	0.300000
22.783333	1	0.296125
22.800000	1	0.292000
22.816667	1	0.288750
22.833333	1	0.284625
22.850000	1	0.281250
22.866667	1	0.278625
22.883333	1	0.275375
22.900000	1	0.273125
22.916667	1	0.272000
22.933333	1	0.271000
22.950000	1	0.270250
22.966667	1	0.269375
22.983333	1	0.268750
23.000000	1	0.269125
23.016667	1	0.269875
23.033333	1	0.270750
23.050000	1	0.271625
23.066667	1	0.273000
23.083333	1	0.275500
23.100000	1	0.278250
23.116667	1	0.281000
23.133333	1	0.283500
23.150000	1	0.286375
23.166667	1	0.289500
23.183333	1	0.292875
23.200000	1	0.296250
23.216667	1	0.300375
23.233333	1	0.304750
23.250000	1	0.309750
23.266667	1	0.315500
23.283333	1	0.322625
23.300000	1	0.330875
23.316667	1	0.341125
23.333333	1	0.353500
23.350000	1	0.368500
23.366667	1	0.387750
23.383333	1	0.410250
23.400000	1	0.438625
23.416667	1	0.472625
23.433333	1	0.513500
23.450000	1	0.562625
23.466667	1	0.621125
23.483333	1	0.690500
23.500000	1	0.771625
23.516667	1	0.866750
23.533333	1	0.976875
23.550000	1	1.104125
23.566667	1	1.248000
23.583333	1	1.409750
23.600000	1	1.591250
23.616667	1	1.791500
23.633333	1	2.010375
23.650000	1	2.247500
23.666667	1	2.501500
23.683333	1	2.770750
23.700000	1	3.052625
23.716667	1	3.344125
23.733333	1	3.640125
23.750000	1	3.936250
23.766667	1	4.227000
23.783333	1	4.506250
23.800000	1	4.768500
23.816667	1	5.008375
23.833333	1	5.220000
23.850000	1	5.398000
23.866667	1	5.538500
23.883333	1	5.639500
23.900000	1	5.696250
23.916667	1	5.710000
23.933333	1	5.679625
23.950000	1	5.605500
23.966667	1	5.490625
23.983333	1	5.339250
24.000000	1	5.154750
24.016667	1	4.942625
24.033333	1	4.707250
24.050000	1	4.454625
24.066667	1	4.189750
24.083333	1	3.918000
24.100000	1	3.644625
24.116667	1	3.372125
24.133333	1	3.106000
24.150000	1	2.849250
24.166667	1	2.604500
24.183333	1	2.372500
24.200000	1	2.156375
24.216667	1	1.956500
24.233333	1	1.773625
24.250000	1	1.606250
24.266667	1	1.454500
24.283333	1	1.317875
24.300000	1	1.195375
24.316667	1	1.086750
24.333333	1	0.991375
24.350000	1	0.907000
24.366667	1	0.833125
24.383333	1	0.769250
24.400000	1	0.714125
24.416667	1	0.667750
24.433333	1	0.627750
24.450000	1	0.594125
24.466667	1	0.566250
24.483333	1	0.542625
24.500000	1	0.522750
24.516667	1	0.506625
24.533333	1	0.493500
24.550000	1	0.482875
24.566667	1	0.473500
24.583333	1	0.465250
24.600000	1	0.458500
24.616667	1	0.452625
24.633333	1	0.446750
24.650000	1	0.441250
24.666667	1	0.436250
24.683333	1	0.431250
24.700000	1	0.426375
24.716667	1	0.420750
24.733333	1	0.415375
24.750000	1	0.410000
24.766667	1	0.404125
24.783333	1	0.398375
24.800000	1	0.392125
24.816667	1	0.385875
24.833333	1	0.380375
24.850000	1	0.374000
24.866667	1	0.368125
24.883333	1	0.361875
24.900000	1	0.356000
24.916667	1	0.351000
24.933333	1	0.345750
24.950000	1	0.340500
24.966667	1	0.335250
24.983333	1	0.329875
25.000000	1	0.325500
25.016667	1	0.321250
25.033333	1	0.317125
25.050000	1	0.313500
25.066667	1	0.309750
25.083333	1	0.306000
25.100000	1	0.302500
25.116667	1	0.298875
25.133333	1	0.295750
25.150000	1	0.292500
25.166667	1	0.288625
25.183333	1	0.285250
25.200000	1	0.282000
25.216667	1	0.278750
25.233333	1	0.276250
25.250000	1	0.273375
25.266667	1	0.270750
25.283333	1	0.268500
25.300000	1	0.265875
25.316667	1	0.263875
25.333333	1	0.261250
25.350000	1	0.259625
25.366667	1	0.258250
25.383333	1	0.256125
25.400000	1	0.255125
25.416667	1	0.253375
25.433333	1	0.252750
25.450000	1	0.252500
25.466667	1	0.252625
25.483333	1	0.252000
25.500000	1	0.252625
25.516667	1	0.253000
25.533333	1	0.253875
25.550000	1	0.254500
25.566667	1	0.255750
25.583333	1	0.256250
25.600000	1	0.257375
25.616667	1	0.258875
25.633333	1	0.260375
25.650000	1	0.262000
25.666667	1	0.263500
25.683333	1	0.264875
25.700000	1	0.267000
25.716667	1	0.268125
25.733333	1	0.269625
25.750000	1	0.271250
25.766667	1	0.273000
25.783333	1	0.274625
25.800000	1	0.276375
25.816667	1	0.278250
25.833333	1	0.280375
25.850000	1	0.282500
25.866667	1	0.284750
25.883333	1	0.287125
25.900000	1	0.289500
25.916667	1	0.291625
25.933333	1	0.294625
25.950000	1	0.297000
25.966667	1	0.299625
25.983333	1	0.301625
26.000000	1	0.305125
26.016667	1	0.308625
26.033333	1	0.311875
26.050000	1	0.315875
26.066667	1	0.320125
26.083333	1	0.323875
26.100000	1	0.327750
26.116667	1	0.331375
26.133333	1	0.334875
26.150000	1	0.338000
26.166667	1	0.341250
26.183333	1	0.344000
26.200000	1	0.346625
26.216667	1	0.348500
26.233333	1	0.350000
26.250000	1	0.351375
26.266667	1	0.352000
26.283333	1	0.352625
26.300000	1	0.352750
26.316667	1	0.351625
26.333333	1	0.350375
26.350000	1	0.348125
26.366667	1	0.346000
26.383333	1	0.342750
26.400000	1	0.338500
26.416667	1	0.334125
26.433333	1	0.330000
26.450000	1	0.325000
26.466667	1	0.319750
26.483333	1	0.313750
26.500000	1	0.307375
26.516667	1	0.301375
26.533333	1	0.294875
26.550000	1	0.287750
26.566667	1	0.280875
26.583333	1	0.274000
26.600000	1	0.267000
26.616667	1	0.261250
26.633333	1	0.255625
26.650000	1	0.249125
26.666667	1	0.243875
26.683333	1	0.238625
26.700000	1	0.232625
26.716667	1	0.227000
26.733333	1	0.221625
26.750000	1	0.217125
26.766667	1	0.212750
26.783333	1	0.209000
26.800000	1	0.205375
26.816667	1	0.202125
26.833333	1	0.199125
26.850000	1	0.197000
26.866667	1	0.195375
26.883333	1	0.193500
26.900000	1	0.192250
26.916667	1	0.191375
26.933333	1	0.190875
26.950000	1	0.190375
26.966667	1	0.190875
26.983333	1	0.191500
27.000000	1	0.192250
27.016667	1	0.194375
27.033333	1	0.196375
27.050000	1	0.199500
27.066667	1	0.203125
27.083333	1	0.207375
27.100000	1	0.212750
27.116667	1	0.219500
27.133333	1	0.227500
27.150000	1	0.236125
27.166667	1	0.246375
27.183333	1	0.259000
27.200000	1	0.272625
27.216667	1	0.288250
27.233333	1	0.305875
27.250000	1	0.327500
27.266667	1	0.351250
27.283333	1	0.379125
27.300000	1	0.410750
27.316667	1	0.447375
27.333333	1	0.488250
27.350000	1	0.534750
27.366667	1	0.586875
27.383333	1	0.645500
27.400000	1	0.711250
27.416667	1	0.785125
27.433333	1	0.867250
27.450000	1	0.958875
27.466667	1	1.059625
27.483333	1	1.169750
27.500000	1	1.289625
27.516667	1	1.418750
27.533333	1	1.557750
27.550000	1	1.706750
27.566667	1	1.864250
27.583333	1	2.030000
27.600000	1	2.203250
27.616667	1	2.382500
27.633333	1	2.567000
27.650000	1	2.753625
27.666667	1	2.941250
27.683333	1	3.128125
27.700000	1	3.311125
27.716667	1	3.487500
27.733333	1	3.654000
27.750000	1	3.809500
27.766667	1	3.951250
27.783333	1	4.075125
27.800000	1	4.180875
27.816667	1	4.265125
27.833333	1	4.326250
27.850000	1	4.362750
27.866667	1	4.374750
27.883333	1	4.360750
27.900000	1	4.320875
27.916667	1	4.256250
27.933333	1	4.167750
27.950000	1	4.057000
27.966667	1	3.925625
27.983333	1	3.777750
28.000000	1	3.614500
28.016667	1	3.439500
28.033333	1	3.254125
28.050000	1	3.062625
28.066667	1	2.867375
28.083333	1	2.671250
28.100000	1	2.476375
28.116667	1	2.286250
28.133333	1	2.102625
28.150000	1	1.926375
28.166667	1	1.759250
28.183333	1	1.602875
28.200000	1	1.457250
28.216667	1	1.322000
28.233333	1	1.198250
28.250000	1	1.085875
28.266667	1	0.984250
28.283333	1	0.892875
28.300000	1	0.812000
28.316667	1	0.740000
28.333333	1	0.676750
28.350000	1	0.622875
28.366667	1	0.575625
28.383333	1	0.535375
28.400000	1	0.502125
28.416667	1	0.474375
28.433333	1	0.451750
28.450000	1	0.433875
28.466667	1	0.419625
28.483333	1	0.409625
28.500000	1	0.402875
28.516667	1	0.399250
28.533333	1	0.398000
28.550000	1	0.399000
28.566667	1	0.401250
28.583333	1	0.405750
28.600000	1	0.412000
28.616667	1	0.418875
28.633333	1	0.426875
28.650000	1	0.435750
28.666667	1	0.444250
28.683333	1	0.453750
28.700000	1	0.463250
28.716667	1	0.472250
28.733333	1	0.481250
28.750000	1	0.489375
28.766667	1	0.497125
28.783333	1	0.504250
28.800000	1	0.510750
28.816667	1	0.517000
28.833333	1	0.522250
28.850000	1	0.526375
28.866667	1	0.529625
28.883333	1	0.531625
28.900000	1	0.533000
28.916667	1	0.532750
28.933333	1	0.531250
28.950000	1	0.528500
28.966667	1	0.525000
28.983333	1	0.521000
29.000000	1	0.515125
29.016667	1	0.509375
29.033333	1	0.502750
29.050000	1	0.494750
29.066667	1	0.486000
29.083333	1	0.476250
29.100000	1	0.466250
29.116667	1	0.455875
29.133333	1	0.444500
29.150000	1	0.433000
29.166667	1	0.421250
29.183333	1	0.408500
29.200000	1	0.396125
29.216667	1	0.383500
29.233333	1	0.370875
29.250000	1	0.358125
29.266667	1	0.345500
29.283333	1	0.333375
29.300000	1	0.320750
29.316667	1	0.308125
29.333333	1	0.297000
29.350000	1	0.285500
29.366667	1	0.274500
29.383333	1	0.264375
29.400000	1	0.254000
29.416667	1	0.245125
29.433333	1	0.235750
29.450000	1	0.227750
29.466667	1	0.219125
29.483333	1	0.212000
29.500000	1	0.205125
29.516667	1	0.199250
29.533333	1	0.193125
29.550000	1	0.187000
29.566667	1	0.182000
29.583333	1	0.177250
29.600000	1	0.172875
29.616667	1	0.169000
29.633333	1	0.165625
29.650000	1	0.162375
29.666667	1	0.159500
29.683333	1	0.156625
29.700000	1	0.154500
29.716667	1	0.152250
29.733333	1	0.149875
29.750000	1	0.147875
29.766667	1	0.146875
29.783333	1	0.144750
29.800000	1	0.143750
29.816667	1	0.142750
29.833333	1	0.141125
29.850000	1	0.140250
29.866667	1	0.139375
29.883333	1	0.137500
29.900000	1	0.136000
29.916667	1	0.134625
29.933333	1	0.133750
29.950000	1	0.133250
29.966667	1	0.132000
29.983333	1	0.130625
30.000000	1	0.129375
30.016667	1	0.128125
30.033333	1	0.126875
30.050000	1	0.125875
30.066667	1	0.124625
30.083333	1	0.123625
30.100000	1	0.122625
30.116667	1	0.122250
30.133333	1	0.121500
30.150000	1	0.120125
30.166667	1	0.118875
30.183333	1	0.117750
30.200000	1	0.117250
30.216667	1	0.116250
30.233333	1	0.115750
30.250000	1	0.115000
30.266667	1	0.114250
30.283333	1	0.113500
30.300000	1	0.114250
30.316667	1	0.115125
30.333333	1	0.115125
30.350000	1	0.115375
30.366667	1	0.116625
30.383333	1	0.118125
30.400000	1	0.119125
30.416667	1	0.120750
30.433333	1	0.122500
30.450000	1	0.124625
30.466667	1	0.127375
30.483333	1	0.130625
30.500000	1	0.133750
30.516667	1	0.137000
30.533333	1	0.141250
30.550000	1	0.146000
30.566667	1	0.151625
30.583333	1	0.157000
30.600000	1	0.163375
30.616667	1	0.170375
30.633333	1	0.177875
30.650000	1	0.185875
30.666667	1	0.194750
30.683333	1	0.204625
30.700000	1	0.214250
30.716667	1	0.225375
30.733333	1	0.237875
30.750000	1	0.251875
30.766667	1	0.266000
30.783333	1	0.282250
30.800000	1	0.300125
30.816667	1	0.319875
30.833333	1	0.341125
30.850000	1	0.365250
30.866667	1	0.391500
30.883333	1	0.421125
30.900000	1	0.454125
30.916667	1	0.491250
30.933333	1	0.532875
30.950000	1	0.579125
30.966667	1	0.630750
30.983333	1	0.688625
31.000000	1	0.752875
31.016667	1	0.825375
31.033333	1	0.904500
31.050000	1	0.992125
31.066667	1	1.088875
31.083333	1	1.194750
31.100000	1	1.310250
31.116667	1	1.435500
31.133333	1	1.570875
31.150000	1	1.716375
31.166667	1	1.871375
31.183333	1	2.036375
31.200000	1	2.209875
31.216667	1	2.392000
31.233333	1	2.581875
31.250000	1	2.777250
31.266667	1	2.977250
31.283333	1	3.179750
31.300000	1	3.384250
31.316667	1	3.587250
31.333333	1	3.785375
31.350000	1	3.978625
31.366667	1	4.164750
31.383333	1	4.341750
31.400000	1	4.505750
31.416667	1	4.656000
31.433333	1	4.788875
31.450000	1	4.903250
31.466667	1	4.997125
31.483333	1	5.070250
31.500000	1	5.120625
31.516667	1	5.148125
31.533333	1	5.152125
31.550000	1	5.133000
31.566667	1	5.090625
31.583333	1	5.025750
31.600000	1	4.939875
31.616667	1	4.834375
31.633333	1	4.710625
31.650000	1	4.571250
31.666667	1	4.417625
31.683333	1	4.250500
31.700000	1	4.073875
31.716667	1	3.889125
31.733333	1	3.698625
31.750000	1	3.504875
31.766667	1	3.309000
31.783333	1	3.112750
31.800000	1	2.919000
31.816667	1	2.727750
31.833333	1	2.541250
31.850000	1	2.360625
31.866667	1	2.186875
31.883333	1	2.020375
31.900000	1	1.862625
31.916667	1	1.713000
31.933333	1	1.572125
31.950000	1	1.440625
31.966667	1	1.317000
31.983333	1	1.202625
32.000000	1	1.096375
32.016667	1	0.998625
32.033333	1	0.908625
32.050000	1	0.826875
32.066667	1	0.752000
32.083333	1	0.683250
32.100000	1	0.620750
32.116667	1	0.564000
32.133333	1	0.513375
32.150000	1	0.466875
32.166667	1	0.425125
32.183333	1	0.387125
32.200000	1	0.352875
32.216667	1	0.321875
32.233333	1	0.294125
32.250000	1	0.268750
32.266667	1	0.246375
32.283333	1	0.225875
32.300000	1	0.207500
32.316667	1	0.191000
32.333333	1	0.175625
32.350000	1	0.161625
32.366667	1	0.149250
32.383333	1	0.137500
32.400000	1	0.127250
32.416667	1	0.117875
32.433333	1	0.108750
32.450000	1	0.100500
32.466667	1	0.094000
32.483333	1	0.087000
32.500000	1	0.081500
32.516667	1	0.075750
32.533333	1	0.070500
32.550000	1	0.065625
32.566667	1	0.061625
32.583333	1	0.058250
32.600000	1	0.055500
32.616667	1	0.052750
32.633333	1	0.049125
32.650000	1	0.046750
32.666667	1	0.045000
32.683333	1	0.043250
32.700000	1	0.041375
32.716667	1	0.040000
32.733333	1	0.038625
32.750000	1	0.037375
32.766667	1	0.036500
32.783333	1	0.035750
32.800000	1	0.034625
32.816667	1	0.033750
32.833333	1	0.032875
32.850000	1	0.032125
32.866667	1	0.031875
32.883333	1	0.031250
32.900000	1	0.030500
32.916667	1	0.030125
32.933333	1	0.028625
32.950000	1	0.027500
32.966667	1	0.026750
32.983333	1	0.026875
33.000000	1	0.025875
33.016667	1	0.024875
33.033333	1	0.024000
33.050000	1	0.023000
33.066667	1	0.022500
33.083333	1	0.022000
33.100000	1	0.021125
33.116667	1	0.020500
33.133333	1	0.020250
33.150000	1	0.019500
33.166667	1	0.019125
33.183333	1	0.018625
33.200000	1	0.018375
33.216667	1	0.018750
33.233333	1	0.018750
33.250000	1	0.018250
33.266667	1	0.019000
33.283333	1	0.019250
33.300000	1	0.020250
33.316667	1	0.021375
33.333333	1	0.021875
33.350000	1	0.023250
33.366667	1	0.024625
33.383333	1	0.027375
33.400000	1	0.029375
33.416667	1	0.032250
33.433333	1	0.034625
33.450000	1	0.037250
33.466667	1	0.039875
33.483333	1	0.043000
33.500000	1	0.046250
33.516667	1	0.049750
33.533333	1	0.052875
33.550000	1	0.056250
33.566667	1	0.060500
33.583333	1	0.063500
33.600000	1	0.067000
33.616667	1	0.070625
33.633333	1	0.073875
33.650000	1	0.077500
33.666667	1	0.080875
33.683333	1	0.084250
33.700000	1	0.087500
33.716667	1	0.090750
33.733333	1	0.094250
33.750000	1	0.096375
33.766667	1	0.098875
33.783333	1	0.101375
33.800000	1	0.103250
33.816667	1	0.105250
33.833333	1	0.107000
33.850000	1	0.108750
33.866667	1	0.109750
33.883333	1	0.111000
33.900000	1	0.111500
33.916667	1	0.111625
33.933333	1	0.112125
33.950000	1	0.113125
33.966667	1	0.112875
33.983333	1	0.112625
34.000000	1	0.112625
34.016667	1	0.111625
34.033333	1	0.110750
34.050000	1	0.109375
34.066667	1	0.108375
34.083333	1	0.107125
34.100000	1	0.106125
34.116667	1	0.104875
34.133333	1	0.104750
34.150000	1	0.103375
34.166667	1	0.102250
34.183333	1	0.101875
34.200000	1	0.100875
34.216667	1	0.100750
34.233333	1	0.099750
34.250000	1	0.098625
34.266667	1	0.098000
34.283333	1	0.097625
34.300000	1	0.097500
34.316667	1	0.098250
34.333333	1	0.098875
34.350000	1	0.098750
34.366667	1	0.099375
34.383333	1	0.100375
34.400000	1	0.101875
34.416667	1	0.103250
34.433333	1	0.104875
34.450000	1	0.106750
34.466667	1	0.108500
34.483333	1	0.110125
34.500000	1	0.111750
34.516667	1	0.114250
34.533333	1	0.116875
34.550000	1	0.119125
34.566667	1	0.121500
34.583333	1	0.124000
34.600000	1	0.126375
34.616667	1	0.128750
34.633333	1	0.130750
34.650000	1	0.132500
34.666667	1	0.134000
34.683333	1	0.135125
34.700000	1	0.136625
34.716667	1	0.137375
34.733333	1	0.139000
34.750000	1	0.140000
34.766667	1	0.140125
34.783333	1	0.140500
34.800000	1	0.140500
34.816667	1	0.140375
34.833333	1	0.139750
34.850000	1	0.139375
34.866667	1	0.139000
34.883333	1	0.139125
34.900000	1	0.138500
34.916667	1	0.137625
34.933333	1	0.136000
34.950000	1	0.135750
34.966667	1	0.134625
34.983333	1	0.133750
35.000000	1	0.132375
35.016667	1	0.130875
35.033333	1	0.128875
35.050000	1	0.128000
35.066667	1	0.126875
35.083333	1	0.125875
35.100000	1	0.124500
35.116667	1	0.123125
35.133333	1	0.122125
35.150000	1	0.121000
35.166667	1	0.120875
35.183333	1	0.119875
35.200000	1	0.119750
35.216667	1	0.120250
35.233333	1	0.120000
35.250000	1	0.120125
35.266667	1	0.120250
35.283333	1	0.120500
35.300000	1	0.121000
35.316667	1	0.122125
35.333333	1	0.122875
35.350000	1	0.123750
35.366667	1	0.124875
35.383333	1	0.125875
35.400000	1	0.127000
35.416667	1	0.127750
35.433333	1	0.129125
35.450000	1	0.130375
35.466667	1	0.131750
35.483333	1	0.134000
35.500000	1	0.135375
35.516667	1	0.136500
35.533333	1	0.137375
35.550000	1	0.138625
35.566667	1	0.139375
35.583333	1	0.139875
35.600000	1	0.140500
35.616667	1	0.140875
35.633333	1	0.141375
35.650000	1	0.141875
35.666667	1	0.142000
35.683333	1	0.141875
35.700000	1	0.141625
35.716667	1	0.140875
35.733333	1	0.140375
35.750000	1	0.138750
35.766667	1	0.137875
35.783333	1	0.136000
35.800000	1	0.134375
35.816667	1	0.132250
35.833333	1	0.130375
35.850000	1	0.128750
35.866667	1	0.126375
35.883333	1	0.123875
35.900000	1	0.122500
35.916667	1	0.119750
35.933333	1	0.117375
35.950000	1	0.115000
35.966667	1	0.112500
35.983333	1	0.109875
36.000000	1	0.108000
36.016667	1	0.105500
36.033333	1	0.103750
36.050000	1	0.101250
36.066667	1	0.099125
36.083333	1	0.096500
36.100000	1	0.094875
36.116667	1	0.092875
36.133333	1	0.091625
36.150000	1	0.090250
36.166667	1	0.088250
36.183333	1	0.087250
36.200000	1	0.085625
36.216667	1	0.084250
36.233333	1	0.083500
36.250000	1	0.082875
36.266667	1	0.082500
36.283333	1	0.082000
36.300000	1	0.081250
36.316667	1	0.081250
36.333333	1	0.080750
36.350000	1	0.080625
36.366667	1	0.080500
36.383333	1	0.079500
36.400000	1	0.079250
36.416667	1	0.079375
36.433333	1	0.079375
36.450000	1	0.079250
36.466667	1	0.079000
36.483333	1	0.079125
36.500000	1	0.078750
36.516667	1	0.078250
36.533333	1	0.078125
36.550000	1	0.077125
36.566667	1	0.076125
36.583333	1	0.074875
36.600000	1	0.074375
36.616667	1	0.072875
36.633333	1	0.071125
36.650000	1	0.069625
36.666667	1	0.068375
36.683333	1	0.066750
36.700000	1	0.064875
36.716667	1	0.063000
36.733333	1	0.061250
36.750000	1	0.059125
36.766667	1	0.058250
36.783333	1	0.056875
36.800000	1	0.055125
36.816667	1	0.053500
36.833333	1	0.052500
36.850000	1	0.051125
36.866667	1	0.049750
36.883333	1	0.049250
36.900000	1	0.047875
36.916667	1	0.047000
36.933333	1	0.046625
36.950000	1	0.046375
36.966667	1	0.046000
36.983333	1	0.046125
37.000000	1	0.046250
37.016667	1	0.046250
37.033333	1	0.046875
37.050000	1	0.047875
37.066667	1	0.047750
37.083333	1	0.048500
37.100000	1	0.049375
37.116667	1	0.050875
37.133333	1	0.052250
37.150000	1	0.052750
37.166667	1	0.053625
37.183333	1	0.054250
37.200000	1	0.055500
37.216667	1	0.056750
37.233333	1	0.057125
37.250000	1	0.058000
37.266667	1	0.058625
37.283333	1	0.060000
37.300000	1	0.061000
37.316667	1	0.061125
37.333333	1	0.061750
37.350000	1	0.062500
37.366667	1	0.062875
37.383333	1	0.062625
37.400000	1	0.062375
37.416667	1	0.062875
37.433333	1	0.062125
37.450000	1	0.062500
37.466667	1	0.062250
37.483333	1	0.061625
37.500000	1	0.061250
37.516667	1	0.060250
37.533333	1	0.059375
37.550000	1	0.058250
37.566667	1	0.057125
37.583333	1	0.056250
37.600000	1	0.055125
37.616667	1	0.053750
37.633333	1	0.052250
37.650000	1	0.051125
37.666667	1	0.049250
37.683333	1	0.047500
37.700000	1	0.045000
37.716667	1	0.043250
37.733333	1	0.041375
37.750000	1	0.039125
37.766667	1	0.036375
37.783333	1	0.034000
37.800000	1	0.031375
37.816667	1	0.028625
37.833333	1	0.026375
37.850000	1	0.024500
37.866667	1	0.022375
37.883333	1	0.019875
37.900000	1	0.017625
37.916667	1	0.015750
37.933333	1	0.013750
37.950000	1	0.012125
37.966667	1	0.009875
37.983333	1	0.007500
38.000000	1	0.005500
38.016667	1	0.003750
38.033333	1	0.002000
38.050000	1	0.001000
38.066667	1	0.000000
38.083333	1	-0.001375
38.100000	1	-0.001750
38.116667	1	-0.002500
38.133333	1	-0.002375
38.150000	1	-0.002250
38.166667	1	-0.002000
38.183333	1	-0.002250
38.200000	1	-0.001625
38.216667	1	-0.000875
38.233333	1	-0.000750
38.250000	1	0.000125
38.266667	1	0.000875
38.283333	1	0.001500
38.300000	1	0.002875
38.316667	1	0.004500
38.333333	1	0.006500
38.350000	1	0.008250
38.366667	1	0.009125
38.383333	1	0.010625
38.400000	1	0.012250
38.416667	1	0.013625
38.433333	1	0.015250
38.450000	1	0.016625
38.466667	1	0.017250
38.483333	1	0.018750
38.500000	1	0.019375
38.516667	1	0.020750
38.533333	1	0.022375
38.550000	1	0.023125
38.566667	1	0.023875
38.583333	1	0.024500
38.600000	1	0.025250
38.616667	1	0.026625
38.633333	1	0.027375
38.650000	1	0.028750
38.666667	1	0.029625
38.683333	1	0.030125
38.700000	1	0.030375
38.716667	1	0.030875
38.733333	1	0.031250
38.750000	1	0.031125
38.766667	1	0.032250
38.783333	1	0.032750
38.800000	1	0.033250
38.816667	1	0.033500
38.833333	1	0.033250
38.850000	1	0.034125
38.866667	1	0.034375
38.883333	1	0.035250
38.900000	1	0.034500
38.916667	1	0.034250
38.933333	1	0.034000
38.950000	1	0.033750
38.966667	1	0.033000
38.983333	1	0.033000
39.000000	1	0.032750
39.016667	1	0.032375
39.033333	1	0.031500
39.050000	1	0.030625
39.066667	1	0.030750
39.083333	1	0.030250
39.100000	1	0.029875
39.116667	1	0.029375
39.133333	1	0.028250
39.150000	1	0.027625
39.166667	1	0.026375
39.183333	1	0.025875
39.200000	1	0.024875
39.216667	1	0.023375
39.233333	1	0.022250
39.250000	1	0.021625
39.266667	1	0.021125
39.283333	1	0.020125
39.300000	1	0.018750
39.316667	1	0.017625
39.333333	1	0.017250
39.350000	1	0.015875
39.366667	1	0.015000
39.383333	1	0.014250
39.400000	1	0.013750
39.416667	1	0.013375
39.433333	1	0.012875
39.450000	1	0.011875
39.466667	1	0.011500
39.483333	1	0.010875
39.500000	1	0.009875
39.516667	1	0.009625
39.533333	1	0.008750
39.550000	1	0.008125
39.566667	1	0.007875
39.583333	1	0.007125
39.600000	1	0.006875
39.616667	1	0.006250
39.633333	1	0.006500
39.650000	1	0.006000
39.666667	1	0.005750
39.683333	1	0.005750
39.700000	1	0.005375
39.716667	1	0.005375
39.733333	1	0.005875
39.750000	1	0.005500
39.766667	1	0.005375
39.783333	1	0.005875
39.800000	1	0.006125
39.816667	1	0.006375
39.833333	1	0.006750
39.850000	1	0.007375
39.866667	1	0.008000
39.883333	1	0.008250
39.900000	1	0.009000
39.916667	1	0.009500
39.933333	1	0.009250
39.950000	1	0.009250
39.966667	1	0.008875
39.983333	1	0.009500
40.000000	1	0.010250
