URL	chrom://bioreactor/micro_cm7/HPLC_Ultimate_3000/Users/markusar/20240716_MA_pHrange2.seq/647.smp/RI_1.channel/RI_1.chm
Channel	RI_1

Injection Information:
Data Vault	micro_cm7
Sequence	20240716_MA_pHrange2
Name	Pv3_25H_2
Number	11
Position	BA11
Comment	
Processing Method	
Instrument Method	run_25B_method
Type	Unknown
Status	Finished
Inject Time	17.07.2024 00:56:11 +02:00
Volume (µl)	20.0000
Dilution Factor	1.0000
Weight	1.0000

Chromatogram Data Information:
Time Min. (min)	0.000000
Time Max. (min)	40.000000
Data Points	2401
Detector	RI
Generating Data System	Chromeleon 7.3.2.11814
Exporting Data System	Chromeleon 7.3.2.0
Operator	Instrument Controller
Signal Quantity	Refractive 
Signal Unit	µRIU
Signal Min.	-0.123625
Signal Max.	86.246625
Channel	RI_1
Driver Name	RID520Driver.dll
Channel Type	Evaluation
Min. Step (s)	1
Max. Step (s)	1
Average Step (s)	1

Signal Parameter Information:
Signal Info	

Chromatogram Data:
Time (min)	Step (s)	Value (µRIU)
0.000000	n.a.	0.011375
0.016667	1	0.012250
0.033333	1	0.012250
0.050000	1	0.012750
0.066667	1	0.012875
0.083333	1	0.013125
0.100000	1	0.013750
0.116667	1	0.013875
0.133333	1	0.013625
0.150000	1	0.013625
0.166667	1	0.014000
0.183333	1	0.014000
0.200000	1	0.013625
0.216667	1	0.013500
0.233333	1	0.013500
0.250000	1	0.013500
0.266667	1	0.014250
0.283333	1	0.014250
0.300000	1	0.014125
0.316667	1	0.014250
0.333333	1	0.014375
0.350000	1	0.014250
0.366667	1	0.014500
0.383333	1	0.014375
0.400000	1	0.014500
0.416667	1	0.014500
0.433333	1	0.015625
0.450000	1	0.017250
0.466667	1	0.019875
0.483333	1	0.022500
0.500000	1	0.024375
0.516667	1	0.026000
0.533333	1	0.027500
0.550000	1	0.027875
0.566667	1	0.027000
0.583333	1	0.026250
0.600000	1	0.025125
0.616667	1	0.024750
0.633333	1	0.024500
0.650000	1	0.024500
0.666667	1	0.024375
0.683333	1	0.024500
0.700000	1	0.024875
0.716667	1	0.025750
0.733333	1	0.026125
0.750000	1	0.026500
0.766667	1	0.026500
0.783333	1	0.026125
0.800000	1	0.026500
0.816667	1	0.026625
0.833333	1	0.026125
0.850000	1	0.026000
0.866667	1	0.026250
0.883333	1	0.025750
0.900000	1	0.025875
0.916667	1	0.025875
0.933333	1	0.025625
0.950000	1	0.024875
0.966667	1	0.024625
0.983333	1	0.024250
1.000000	1	0.023750
1.016667	1	0.023375
1.033333	1	0.022875
1.050000	1	0.022250
1.066667	1	0.021750
1.083333	1	0.021375
1.100000	1	0.021125
1.116667	1	0.020875
1.133333	1	0.020750
1.150000	1	0.019750
1.166667	1	0.019250
1.183333	1	0.018375
1.200000	1	0.017500
1.216667	1	0.016625
1.233333	1	0.016250
1.250000	1	0.015375
1.266667	1	0.014625
1.283333	1	0.014125
1.300000	1	0.013375
1.316667	1	0.012375
1.333333	1	0.011375
1.350000	1	0.010000
1.366667	1	0.008875
1.383333	1	0.007375
1.400000	1	0.005875
1.416667	1	0.004625
1.433333	1	0.002875
1.450000	1	0.001625
1.466667	1	0.000625
1.483333	1	-0.000875
1.500000	1	-0.002875
1.516667	1	-0.003875
1.533333	1	-0.005375
1.550000	1	-0.006500
1.566667	1	-0.008500
1.583333	1	-0.010250
1.600000	1	-0.011625
1.616667	1	-0.013125
1.633333	1	-0.013875
1.650000	1	-0.015375
1.666667	1	-0.016375
1.683333	1	-0.018125
1.700000	1	-0.018625
1.716667	1	-0.019375
1.733333	1	-0.020375
1.750000	1	-0.022375
1.766667	1	-0.022625
1.783333	1	-0.023125
1.800000	1	-0.023875
1.816667	1	-0.024125
1.833333	1	-0.024750
1.850000	1	-0.025250
1.866667	1	-0.025625
1.883333	1	-0.025500
1.900000	1	-0.025750
1.916667	1	-0.025750
1.933333	1	-0.026000
1.950000	1	-0.026875
1.966667	1	-0.026750
1.983333	1	-0.026625
2.000000	1	-0.026875
2.016667	1	-0.026625
2.033333	1	-0.025625
2.050000	1	-0.025875
2.066667	1	-0.025250
2.083333	1	-0.025000
2.100000	1	-0.024500
2.116667	1	-0.023750
2.133333	1	-0.023375
2.150000	1	-0.022625
2.166667	1	-0.022250
2.183333	1	-0.021375
2.200000	1	-0.020375
2.216667	1	-0.019625
2.233333	1	-0.018375
2.250000	1	-0.017000
2.266667	1	-0.015875
2.283333	1	-0.014750
2.300000	1	-0.014000
2.316667	1	-0.013250
2.333333	1	-0.011625
2.350000	1	-0.010000
2.366667	1	-0.008500
2.383333	1	-0.006625
2.400000	1	-0.005125
2.416667	1	-0.003875
2.433333	1	-0.001875
2.450000	1	-0.000125
2.466667	1	0.001375
2.483333	1	0.003375
2.500000	1	0.005250
2.516667	1	0.006250
2.533333	1	0.007500
2.550000	1	0.009000
2.566667	1	0.010125
2.583333	1	0.011625
2.600000	1	0.012875
2.616667	1	0.014125
2.633333	1	0.015500
2.650000	1	0.016750
2.666667	1	0.017000
2.683333	1	0.017875
2.700000	1	0.018625
2.716667	1	0.018500
2.733333	1	0.019500
2.750000	1	0.020125
2.766667	1	0.020750
2.783333	1	0.021750
2.800000	1	0.022125
2.816667	1	0.021750
2.833333	1	0.022000
2.850000	1	0.022000
2.866667	1	0.022375
2.883333	1	0.022500
2.900000	1	0.022500
2.916667	1	0.022375
2.933333	1	0.022125
2.950000	1	0.022375
2.966667	1	0.022625
2.983333	1	0.022125
3.000000	1	0.022000
3.016667	1	0.022375
3.033333	1	0.022250
3.050000	1	0.022125
3.066667	1	0.022500
3.083333	1	0.022375
3.100000	1	0.022625
3.116667	1	0.022375
3.133333	1	0.022125
3.150000	1	0.022250
3.166667	1	0.021625
3.183333	1	0.022250
3.200000	1	0.022250
3.216667	1	0.022250
3.233333	1	0.022875
3.250000	1	0.023250
3.266667	1	0.023125
3.283333	1	0.023125
3.300000	1	0.024125
3.316667	1	0.024500
3.333333	1	0.024625
3.350000	1	0.025125
3.366667	1	0.026250
3.383333	1	0.027000
3.400000	1	0.027375
3.416667	1	0.027875
3.433333	1	0.029250
3.450000	1	0.029125
3.466667	1	0.030250
3.483333	1	0.031625
3.500000	1	0.032625
3.516667	1	0.034000
3.533333	1	0.035000
3.550000	1	0.035875
3.566667	1	0.036500
3.583333	1	0.037500
3.600000	1	0.038750
3.616667	1	0.039250
3.633333	1	0.040375
3.650000	1	0.041250
3.666667	1	0.042125
3.683333	1	0.042500
3.700000	1	0.043250
3.716667	1	0.043750
3.733333	1	0.044375
3.750000	1	0.045250
3.766667	1	0.046250
3.783333	1	0.046625
3.800000	1	0.046750
3.816667	1	0.046875
3.833333	1	0.047625
3.850000	1	0.048375
3.866667	1	0.048375
3.883333	1	0.049000
3.900000	1	0.050375
3.916667	1	0.051000
3.933333	1	0.051750
3.950000	1	0.052625
3.966667	1	0.053375
3.983333	1	0.054500
4.000000	1	0.055250
4.016667	1	0.055750
4.033333	1	0.057000
4.050000	1	0.059125
4.066667	1	0.060375
4.083333	1	0.061750
4.100000	1	0.063250
4.116667	1	0.064375
4.133333	1	0.065875
4.150000	1	0.067375
4.166667	1	0.069125
4.183333	1	0.071125
4.200000	1	0.072500
4.216667	1	0.074500
4.233333	1	0.076000
4.250000	1	0.078625
4.266667	1	0.079625
4.283333	1	0.080875
4.300000	1	0.083000
4.316667	1	0.084625
4.333333	1	0.085875
4.350000	1	0.087500
4.366667	1	0.088125
4.383333	1	0.089625
4.400000	1	0.090750
4.416667	1	0.091875
4.433333	1	0.093000
4.450000	1	0.094875
4.466667	1	0.096250
4.483333	1	0.097125
4.500000	1	0.097875
4.516667	1	0.098125
4.533333	1	0.099125
4.550000	1	0.100000
4.566667	1	0.100625
4.583333	1	0.101500
4.600000	1	0.102875
4.616667	1	0.102875
4.633333	1	0.103625
4.650000	1	0.105000
4.666667	1	0.105500
4.683333	1	0.106875
4.700000	1	0.107625
4.716667	1	0.109500
4.733333	1	0.110125
4.750000	1	0.111000
4.766667	1	0.112375
4.783333	1	0.113625
4.800000	1	0.114625
4.816667	1	0.115875
4.833333	1	0.117375
4.850000	1	0.119000
4.866667	1	0.120500
4.883333	1	0.122250
4.900000	1	0.123750
4.916667	1	0.125250
4.933333	1	0.127000
4.950000	1	0.128375
4.966667	1	0.130000
4.983333	1	0.131625
5.000000	1	0.133625
5.016667	1	0.136500
5.033333	1	0.139500
5.050000	1	0.142375
5.066667	1	0.144250
5.083333	1	0.146875
5.100000	1	0.149875
5.116667	1	0.152250
5.133333	1	0.155125
5.150000	1	0.157500
5.166667	1	0.160625
5.183333	1	0.162875
5.200000	1	0.165500
5.216667	1	0.168375
5.233333	1	0.170875
5.250000	1	0.173375
5.266667	1	0.175875
5.283333	1	0.178375
5.300000	1	0.180875
5.316667	1	0.183375
5.333333	1	0.186125
5.350000	1	0.187875
5.366667	1	0.189625
5.383333	1	0.191750
5.400000	1	0.194125
5.416667	1	0.195875
5.433333	1	0.197625
5.450000	1	0.198750
5.466667	1	0.199500
5.483333	1	0.200250
5.500000	1	0.200750
5.516667	1	0.200750
5.533333	1	0.201000
5.550000	1	0.200750
5.566667	1	0.200125
5.583333	1	0.200125
5.600000	1	0.199500
5.616667	1	0.198625
5.633333	1	0.197125
5.650000	1	0.195250
5.666667	1	0.193375
5.683333	1	0.191875
5.700000	1	0.190000
5.716667	1	0.187750
5.733333	1	0.185750
5.750000	1	0.183125
5.766667	1	0.180250
5.783333	1	0.177250
5.800000	1	0.174000
5.816667	1	0.170750
5.833333	1	0.167875
5.850000	1	0.164625
5.866667	1	0.161250
5.883333	1	0.157500
5.900000	1	0.154125
5.916667	1	0.150625
5.933333	1	0.147375
5.950000	1	0.144125
5.966667	1	0.140875
5.983333	1	0.137250
6.000000	1	0.134000
6.016667	1	0.130875
6.033333	1	0.127500
6.050000	1	0.124875
6.066667	1	0.121625
6.083333	1	0.118625
6.100000	1	0.115500
6.116667	1	0.112375
6.133333	1	0.110375
6.150000	1	0.107625
6.166667	1	0.104500
6.183333	1	0.101750
6.200000	1	0.098875
6.216667	1	0.096875
6.233333	1	0.094125
6.250000	1	0.091375
6.266667	1	0.088625
6.283333	1	0.086250
6.300000	1	0.084000
6.316667	1	0.082250
6.333333	1	0.080250
6.350000	1	0.078000
6.366667	1	0.075250
6.383333	1	0.073250
6.400000	1	0.070875
6.416667	1	0.068000
6.433333	1	0.065750
6.450000	1	0.064125
6.466667	1	0.062500
6.483333	1	0.060375
6.500000	1	0.058500
6.516667	1	0.057375
6.533333	1	0.055625
6.550000	1	0.054000
6.566667	1	0.052375
6.583333	1	0.050875
6.600000	1	0.049750
6.616667	1	0.049625
6.633333	1	0.049250
6.650000	1	0.048125
6.666667	1	0.047750
6.683333	1	0.047000
6.700000	1	0.046875
6.716667	1	0.046500
6.733333	1	0.046625
6.750000	1	0.046500
6.766667	1	0.046750
6.783333	1	0.047500
6.800000	1	0.048500
6.816667	1	0.048625
6.833333	1	0.050000
6.850000	1	0.051000
6.866667	1	0.051375
6.883333	1	0.052250
6.900000	1	0.053625
6.916667	1	0.055250
6.933333	1	0.056625
6.950000	1	0.058250
6.966667	1	0.060125
6.983333	1	0.061500
7.000000	1	0.063250
7.016667	1	0.065500
7.033333	1	0.067125
7.050000	1	0.069000
7.066667	1	0.070625
7.083333	1	0.073000
7.100000	1	0.074750
7.116667	1	0.076875
7.133333	1	0.078875
7.150000	1	0.080875
7.166667	1	0.082500
7.183333	1	0.084875
7.200000	1	0.086125
7.216667	1	0.088500
7.233333	1	0.090500
7.250000	1	0.091375
7.266667	1	0.092250
7.283333	1	0.093500
7.300000	1	0.094625
7.316667	1	0.095250
7.333333	1	0.095625
7.350000	1	0.096375
7.366667	1	0.097125
7.383333	1	0.097375
7.400000	1	0.097750
7.416667	1	0.096750
7.433333	1	0.095875
7.450000	1	0.094500
7.466667	1	0.093625
7.483333	1	0.092875
7.500000	1	0.091750
7.516667	1	0.090500
7.533333	1	0.088875
7.550000	1	0.087000
7.566667	1	0.085500
7.583333	1	0.083750
7.600000	1	0.081750
7.616667	1	0.079875
7.633333	1	0.077750
7.650000	1	0.075375
7.666667	1	0.073125
7.683333	1	0.071375
7.700000	1	0.069375
7.716667	1	0.067250
7.733333	1	0.065250
7.750000	1	0.064000
7.766667	1	0.062375
7.783333	1	0.060875
7.800000	1	0.059000
7.816667	1	0.057000
7.833333	1	0.056125
7.850000	1	0.055125
7.866667	1	0.053500
7.883333	1	0.052750
7.900000	1	0.052000
7.916667	1	0.051000
7.933333	1	0.049750
7.950000	1	0.049125
7.966667	1	0.048875
7.983333	1	0.048625
8.000000	1	0.048750
8.016667	1	0.047500
8.033333	1	0.046125
8.050000	1	0.046125
8.066667	1	0.045750
8.083333	1	0.045250
8.100000	1	0.044625
8.116667	1	0.044250
8.133333	1	0.043875
8.150000	1	0.043375
8.166667	1	0.042625
8.183333	1	0.042000
8.200000	1	0.041000
8.216667	1	0.039625
8.233333	1	0.039625
8.250000	1	0.038750
8.266667	1	0.038000
8.283333	1	0.037375
8.300000	1	0.036500
8.316667	1	0.035375
8.333333	1	0.034875
8.350000	1	0.033125
8.366667	1	0.032000
8.383333	1	0.031000
8.400000	1	0.028875
8.416667	1	0.027000
8.433333	1	0.025250
8.450000	1	0.023750
8.466667	1	0.022375
8.483333	1	0.020875
8.500000	1	0.019375
8.516667	1	0.017875
8.533333	1	0.017375
8.550000	1	0.015750
8.566667	1	0.014500
8.583333	1	0.012875
8.600000	1	0.011250
8.616667	1	0.010000
8.633333	1	0.008625
8.650000	1	0.006750
8.666667	1	0.004500
8.683333	1	0.002625
8.700000	1	0.000750
8.716667	1	-0.000125
8.733333	1	-0.001125
8.750000	1	-0.001875
8.766667	1	-0.003250
8.783333	1	-0.004625
8.800000	1	-0.005750
8.816667	1	-0.006500
8.833333	1	-0.007500
8.850000	1	-0.009000
8.866667	1	-0.009750
8.883333	1	-0.010375
8.900000	1	-0.011125
8.916667	1	-0.012250
8.933333	1	-0.013250
8.950000	1	-0.014500
8.966667	1	-0.015000
8.983333	1	-0.016250
9.000000	1	-0.016750
9.016667	1	-0.017375
9.033333	1	-0.019000
9.050000	1	-0.020250
9.066667	1	-0.020750
9.083333	1	-0.022375
9.100000	1	-0.023625
9.116667	1	-0.025000
9.133333	1	-0.026125
9.150000	1	-0.027125
9.166667	1	-0.028750
9.183333	1	-0.029625
9.200000	1	-0.030750
9.216667	1	-0.031875
9.233333	1	-0.033500
9.250000	1	-0.035250
9.266667	1	-0.036625
9.283333	1	-0.038000
9.300000	1	-0.039250
9.316667	1	-0.039875
9.333333	1	-0.041375
9.350000	1	-0.042625
9.366667	1	-0.044125
9.383333	1	-0.044625
9.400000	1	-0.045500
9.416667	1	-0.047125
9.433333	1	-0.048625
9.450000	1	-0.049750
9.466667	1	-0.050625
9.483333	1	-0.051875
9.500000	1	-0.052750
9.516667	1	-0.054125
9.533333	1	-0.054500
9.550000	1	-0.055375
9.566667	1	-0.056500
9.583333	1	-0.057125
9.600000	1	-0.058000
9.616667	1	-0.059125
9.633333	1	-0.059750
9.650000	1	-0.060625
9.666667	1	-0.061000
9.683333	1	-0.060250
9.700000	1	-0.060000
9.716667	1	-0.059375
9.733333	1	-0.059250
9.750000	1	-0.058500
9.766667	1	-0.057250
9.783333	1	-0.055875
9.800000	1	-0.054000
9.816667	1	-0.051875
9.833333	1	-0.049375
9.850000	1	-0.047625
9.866667	1	-0.044750
9.883333	1	-0.041500
9.900000	1	-0.039000
9.916667	1	-0.034750
9.933333	1	-0.030375
9.950000	1	-0.026375
9.966667	1	-0.022250
9.983333	1	-0.017750
10.000000	1	-0.014000
10.016667	1	-0.009250
10.033333	1	-0.004625
10.050000	1	0.000250
10.066667	1	0.004625
10.083333	1	0.009250
10.100000	1	0.014750
10.116667	1	0.019625
10.133333	1	0.024625
10.150000	1	0.029875
10.166667	1	0.034250
10.183333	1	0.040000
10.200000	1	0.046000
10.216667	1	0.052125
10.233333	1	0.059500
10.250000	1	0.067875
10.266667	1	0.077500
10.283333	1	0.088500
10.300000	1	0.101000
10.316667	1	0.115625
10.333333	1	0.131250
10.350000	1	0.147000
10.366667	1	0.161125
10.383333	1	0.171250
10.400000	1	0.172875
10.416667	1	0.161375
10.433333	1	0.132375
10.450000	1	0.083500
10.466667	1	0.017500
10.483333	1	-0.054625
10.500000	1	-0.112500
10.516667	1	-0.123625
10.533333	1	-0.041500
10.550000	1	0.189500
10.566667	1	0.634125
10.583333	1	1.360500
10.600000	1	2.433000
10.616667	1	3.908875
10.633333	1	5.835750
10.650000	1	8.246375
10.666667	1	11.167375
10.683333	1	14.611500
10.700000	1	18.581125
10.716667	1	23.067875
10.733333	1	28.052500
10.750000	1	33.505875
10.766667	1	39.385125
10.783333	1	45.634750
10.800000	1	52.177875
10.816667	1	58.906375
10.833333	1	65.650125
10.850000	1	72.154250
10.866667	1	78.050875
10.883333	1	82.809125
10.900000	1	85.767000
10.916667	1	86.246625
10.933333	1	83.786125
10.950000	1	78.369125
10.966667	1	70.530500
10.983333	1	61.199375
11.000000	1	51.419625
11.016667	1	42.079750
11.033333	1	33.755875
11.050000	1	26.701125
11.066667	1	20.932500
11.083333	1	16.341375
11.100000	1	12.758125
11.116667	1	10.004875
11.133333	1	7.913000
11.150000	1	6.334625
11.166667	1	5.148375
11.183333	1	4.256500
11.200000	1	3.583000
11.216667	1	3.071125
11.233333	1	2.678625
11.250000	1	2.373750
11.266667	1	2.134125
11.283333	1	1.943125
11.300000	1	1.788250
11.316667	1	1.660250
11.333333	1	1.554000
11.350000	1	1.464625
11.366667	1	1.388375
11.383333	1	1.323250
11.400000	1	1.267375
11.416667	1	1.219000
11.433333	1	1.177875
11.450000	1	1.142125
11.466667	1	1.111375
11.483333	1	1.084375
11.500000	1	1.060625
11.516667	1	1.040625
11.533333	1	1.023250
11.550000	1	1.008000
11.566667	1	0.995250
11.583333	1	0.985250
11.600000	1	0.976125
11.616667	1	0.968250
11.633333	1	0.962125
11.650000	1	0.958375
11.666667	1	0.955250
11.683333	1	0.953375
11.700000	1	0.953125
11.716667	1	0.954250
11.733333	1	0.957000
11.750000	1	0.960000
11.766667	1	0.964500
11.783333	1	0.970375
11.800000	1	0.977000
11.816667	1	0.984375
11.833333	1	0.992250
11.850000	1	0.999875
11.866667	1	1.007875
11.883333	1	1.014625
11.900000	1	1.021500
11.916667	1	1.027875
11.933333	1	1.033125
11.950000	1	1.037875
11.966667	1	1.041250
11.983333	1	1.044000
12.000000	1	1.045250
12.016667	1	1.046625
12.033333	1	1.047625
12.050000	1	1.048125
12.066667	1	1.048500
12.083333	1	1.048500
12.100000	1	1.049625
12.116667	1	1.050750
12.133333	1	1.052750
12.150000	1	1.054625
12.166667	1	1.056625
12.183333	1	1.060000
12.200000	1	1.063750
12.216667	1	1.068875
12.233333	1	1.074875
12.250000	1	1.082875
12.266667	1	1.092625
12.283333	1	1.104250
12.300000	1	1.120000
12.316667	1	1.141125
12.333333	1	1.168250
12.350000	1	1.203875
12.366667	1	1.251750
12.383333	1	1.313875
12.400000	1	1.394250
12.416667	1	1.496750
12.433333	1	1.626000
12.450000	1	1.787000
12.466667	1	1.985500
12.483333	1	2.226250
12.500000	1	2.513375
12.516667	1	2.852250
12.533333	1	3.244875
12.550000	1	3.692625
12.566667	1	4.196125
12.583333	1	4.754000
12.600000	1	5.360750
12.616667	1	6.009500
12.633333	1	6.689875
12.650000	1	7.391250
12.666667	1	8.100875
12.683333	1	8.806250
12.700000	1	9.493875
12.716667	1	10.154750
12.733333	1	10.780875
12.750000	1	11.369125
12.766667	1	11.920875
12.783333	1	12.441375
12.800000	1	12.939000
12.816667	1	13.422250
12.833333	1	13.902375
12.850000	1	14.389250
12.866667	1	14.892875
12.883333	1	15.420375
12.900000	1	15.976250
12.916667	1	16.564000
12.933333	1	17.184500
12.950000	1	17.838125
12.966667	1	18.525000
12.983333	1	19.242250
13.000000	1	19.989125
13.016667	1	20.761750
13.033333	1	21.560625
13.050000	1	22.383250
13.066667	1	23.230000
13.083333	1	24.098625
13.100000	1	24.990250
13.116667	1	25.902250
13.133333	1	26.833000
13.150000	1	27.783000
13.166667	1	28.752125
13.183333	1	29.740875
13.200000	1	30.747625
13.216667	1	31.773375
13.233333	1	32.817375
13.250000	1	33.881875
13.266667	1	34.967250
13.283333	1	36.073625
13.300000	1	37.201000
13.316667	1	38.350125
13.333333	1	39.519125
13.350000	1	40.710875
13.366667	1	41.925250
13.383333	1	43.163000
13.400000	1	44.422375
13.416667	1	45.704625
13.433333	1	47.012750
13.450000	1	48.347500
13.466667	1	49.709750
13.483333	1	51.100750
13.500000	1	52.519750
13.516667	1	53.967750
13.533333	1	55.445000
13.550000	1	56.951250
13.566667	1	58.488625
13.583333	1	60.056125
13.600000	1	61.654000
13.616667	1	63.281500
13.633333	1	64.941875
13.650000	1	66.637250
13.666667	1	68.368625
13.683333	1	70.136125
13.700000	1	71.941625
13.716667	1	73.783875
13.733333	1	75.662875
13.750000	1	77.576000
13.766667	1	79.503875
13.783333	1	81.379750
13.800000	1	83.055000
13.816667	1	84.299500
13.833333	1	84.844750
13.850000	1	84.433000
13.866667	1	82.821375
13.883333	1	79.762500
13.900000	1	75.015625
13.916667	1	68.478125
13.933333	1	60.358750
13.950000	1	51.264750
13.966667	1	42.084250
13.983333	1	33.665250
14.000000	1	26.532625
14.016667	1	20.815625
14.033333	1	16.391000
14.050000	1	13.030375
14.066667	1	10.508000
14.083333	1	8.631375
14.100000	1	7.246000
14.116667	1	6.229375
14.133333	1	5.483250
14.150000	1	4.934000
14.166667	1	4.524375
14.183333	1	4.214125
14.200000	1	3.973875
14.216667	1	3.784000
14.233333	1	3.630125
14.250000	1	3.501875
14.266667	1	3.393375
14.283333	1	3.299750
14.300000	1	3.217750
14.316667	1	3.145000
14.333333	1	3.079125
14.350000	1	3.020750
14.366667	1	2.968250
14.383333	1	2.921750
14.400000	1	2.882625
14.416667	1	2.851750
14.433333	1	2.830125
14.450000	1	2.821250
14.466667	1	2.828250
14.483333	1	2.856750
14.500000	1	2.914625
14.516667	1	3.011250
14.533333	1	3.160000
14.550000	1	3.380125
14.566667	1	3.696375
14.583333	1	4.136375
14.600000	1	4.738750
14.616667	1	5.550625
14.633333	1	6.627000
14.650000	1	8.029500
14.666667	1	9.825750
14.683333	1	12.083250
14.700000	1	14.862125
14.716667	1	18.212250
14.733333	1	22.160500
14.750000	1	26.705125
14.766667	1	31.807500
14.783333	1	37.379250
14.800000	1	43.295875
14.816667	1	49.389625
14.833333	1	55.451000
14.850000	1	61.237625
14.866667	1	66.493750
14.883333	1	70.964375
14.900000	1	74.422250
14.916667	1	76.686625
14.933333	1	77.643125
14.950000	1	77.246375
14.966667	1	75.535250
14.983333	1	72.622750
15.000000	1	68.679625
15.016667	1	63.917125
15.033333	1	58.575625
15.050000	1	52.902000
15.066667	1	47.130875
15.083333	1	41.468000
15.100000	1	36.078250
15.116667	1	31.085500
15.133333	1	26.565875
15.150000	1	22.557375
15.166667	1	19.065375
15.183333	1	16.071250
15.200000	1	13.534875
15.216667	1	11.410000
15.233333	1	9.645875
15.250000	1	8.192875
15.266667	1	7.003625
15.283333	1	6.036250
15.300000	1	5.253125
15.316667	1	4.621750
15.333333	1	4.115000
15.350000	1	3.709875
15.366667	1	3.387875
15.383333	1	3.133375
15.400000	1	2.934375
15.416667	1	2.779250
15.433333	1	2.661125
15.450000	1	2.572500
15.466667	1	2.507625
15.483333	1	2.460125
15.500000	1	2.425250
15.516667	1	2.399500
15.533333	1	2.378750
15.550000	1	2.359000
15.566667	1	2.338750
15.583333	1	2.315250
15.600000	1	2.287875
15.616667	1	2.255750
15.633333	1	2.218500
15.650000	1	2.177875
15.666667	1	2.134625
15.683333	1	2.089250
15.700000	1	2.043000
15.716667	1	1.998000
15.733333	1	1.953875
15.750000	1	1.912500
15.766667	1	1.873375
15.783333	1	1.836125
15.800000	1	1.801125
15.816667	1	1.767375
15.833333	1	1.735000
15.850000	1	1.704000
15.866667	1	1.673500
15.883333	1	1.644125
15.900000	1	1.615750
15.916667	1	1.587875
15.933333	1	1.561500
15.950000	1	1.537250
15.966667	1	1.516125
15.983333	1	1.497000
16.000000	1	1.481875
16.016667	1	1.469375
16.033333	1	1.459750
16.050000	1	1.453500
16.066667	1	1.448625
16.083333	1	1.446250
16.100000	1	1.445000
16.116667	1	1.444125
16.133333	1	1.443250
16.150000	1	1.442000
16.166667	1	1.439000
16.183333	1	1.434750
16.200000	1	1.428625
16.216667	1	1.420625
16.233333	1	1.411000
16.250000	1	1.399625
16.266667	1	1.385875
16.283333	1	1.370750
16.300000	1	1.355125
16.316667	1	1.338250
16.333333	1	1.320875
16.350000	1	1.304000
16.366667	1	1.286500
16.383333	1	1.269375
16.400000	1	1.253500
16.416667	1	1.238875
16.433333	1	1.224625
16.450000	1	1.211875
16.466667	1	1.201000
16.483333	1	1.192250
16.500000	1	1.185625
16.516667	1	1.181375
16.533333	1	1.179375
16.550000	1	1.180000
16.566667	1	1.181375
16.583333	1	1.185250
16.600000	1	1.190250
16.616667	1	1.196500
16.633333	1	1.202875
16.650000	1	1.209125
16.666667	1	1.214625
16.683333	1	1.219375
16.700000	1	1.223625
16.716667	1	1.226500
16.733333	1	1.228375
16.750000	1	1.229250
16.766667	1	1.229375
16.783333	1	1.229375
16.800000	1	1.229750
16.816667	1	1.230125
16.833333	1	1.231000
16.850000	1	1.231125
16.866667	1	1.232125
16.883333	1	1.234000
16.900000	1	1.236000
16.916667	1	1.237000
16.933333	1	1.238375
16.950000	1	1.238875
16.966667	1	1.238625
16.983333	1	1.237375
17.000000	1	1.235125
17.016667	1	1.231500
17.033333	1	1.226625
17.050000	1	1.221000
17.066667	1	1.214875
17.083333	1	1.208000
17.100000	1	1.201250
17.116667	1	1.195000
17.133333	1	1.189625
17.150000	1	1.183875
17.166667	1	1.179250
17.183333	1	1.175250
17.200000	1	1.172125
17.216667	1	1.170000
17.233333	1	1.169125
17.250000	1	1.168875
17.266667	1	1.169000
17.283333	1	1.170000
17.300000	1	1.171375
17.316667	1	1.172875
17.333333	1	1.174750
17.350000	1	1.177875
17.366667	1	1.180250
17.383333	1	1.183125
17.400000	1	1.186875
17.416667	1	1.188750
17.433333	1	1.191250
17.450000	1	1.193750
17.466667	1	1.195125
17.483333	1	1.195375
17.500000	1	1.194125
17.516667	1	1.191500
17.533333	1	1.188750
17.550000	1	1.184375
17.566667	1	1.177625
17.583333	1	1.169375
17.600000	1	1.160125
17.616667	1	1.149125
17.633333	1	1.137250
17.650000	1	1.124750
17.666667	1	1.111000
17.683333	1	1.096625
17.700000	1	1.082000
17.716667	1	1.067500
17.733333	1	1.052125
17.750000	1	1.037500
17.766667	1	1.023375
17.783333	1	1.009750
17.800000	1	0.996500
17.816667	1	0.984125
17.833333	1	0.972500
17.850000	1	0.961250
17.866667	1	0.951000
17.883333	1	0.940875
17.900000	1	0.931625
17.916667	1	0.923625
17.933333	1	0.915875
17.950000	1	0.908375
17.966667	1	0.900625
17.983333	1	0.893500
18.000000	1	0.887125
18.016667	1	0.881250
18.033333	1	0.874875
18.050000	1	0.868750
18.066667	1	0.862000
18.083333	1	0.854875
18.100000	1	0.848000
18.116667	1	0.841000
18.133333	1	0.834125
18.150000	1	0.827125
18.166667	1	0.820625
18.183333	1	0.814125
18.200000	1	0.808125
18.216667	1	0.803000
18.233333	1	0.798125
18.250000	1	0.794500
18.266667	1	0.791250
18.283333	1	0.788375
18.300000	1	0.786625
18.316667	1	0.785125
18.333333	1	0.784625
18.350000	1	0.784250
18.366667	1	0.784875
18.383333	1	0.785375
18.400000	1	0.786500
18.416667	1	0.788250
18.433333	1	0.791500
18.450000	1	0.794625
18.466667	1	0.798625
18.483333	1	0.803750
18.500000	1	0.810125
18.516667	1	0.818000
18.533333	1	0.827875
18.550000	1	0.839125
18.566667	1	0.853125
18.583333	1	0.868000
18.600000	1	0.885125
18.616667	1	0.904375
18.633333	1	0.926250
18.650000	1	0.950375
18.666667	1	0.975500
18.683333	1	1.003625
18.700000	1	1.033000
18.716667	1	1.063625
18.733333	1	1.095875
18.750000	1	1.129875
18.766667	1	1.164500
18.783333	1	1.200250
18.800000	1	1.235375
18.816667	1	1.270875
18.833333	1	1.304750
18.850000	1	1.337375
18.866667	1	1.367250
18.883333	1	1.393750
18.900000	1	1.417375
18.916667	1	1.436000
18.933333	1	1.449375
18.950000	1	1.457875
18.966667	1	1.459500
18.983333	1	1.455125
19.000000	1	1.443000
19.016667	1	1.424750
19.033333	1	1.400375
19.050000	1	1.369250
19.066667	1	1.333125
19.083333	1	1.292750
19.100000	1	1.249250
19.116667	1	1.202875
19.133333	1	1.157000
19.150000	1	1.111375
19.166667	1	1.067375
19.183333	1	1.026000
19.200000	1	0.989125
19.216667	1	0.958125
19.233333	1	0.933500
19.250000	1	0.916375
19.266667	1	0.908750
19.283333	1	0.911125
19.300000	1	0.924750
19.316667	1	0.950000
19.333333	1	0.986875
19.350000	1	1.037000
19.366667	1	1.100375
19.383333	1	1.177625
19.400000	1	1.268500
19.416667	1	1.372250
19.433333	1	1.487875
19.450000	1	1.613500
19.466667	1	1.748250
19.483333	1	1.888750
19.500000	1	2.032250
19.516667	1	2.175375
19.533333	1	2.313750
19.550000	1	2.444750
19.566667	1	2.563250
19.583333	1	2.666625
19.600000	1	2.750875
19.616667	1	2.812750
19.633333	1	2.851125
19.650000	1	2.865125
19.666667	1	2.854625
19.683333	1	2.819250
19.700000	1	2.761500
19.716667	1	2.683875
19.733333	1	2.588375
19.750000	1	2.479125
19.766667	1	2.360000
19.783333	1	2.232625
19.800000	1	2.101750
19.816667	1	1.969000
19.833333	1	1.838250
19.850000	1	1.711750
19.866667	1	1.590000
19.883333	1	1.474500
19.900000	1	1.366500
19.916667	1	1.266500
19.933333	1	1.175500
19.950000	1	1.092250
19.966667	1	1.015875
19.983333	1	0.947250
20.000000	1	0.887125
20.016667	1	0.833625
20.033333	1	0.786125
20.050000	1	0.744625
20.066667	1	0.709625
20.083333	1	0.680500
20.100000	1	0.656750
20.116667	1	0.638500
20.133333	1	0.624125
20.150000	1	0.614625
20.166667	1	0.609250
20.183333	1	0.607625
20.200000	1	0.609250
20.216667	1	0.613375
20.233333	1	0.620375
20.250000	1	0.629000
20.266667	1	0.638625
20.283333	1	0.649000
20.300000	1	0.659750
20.316667	1	0.670625
20.333333	1	0.679750
20.350000	1	0.687125
20.366667	1	0.692125
20.383333	1	0.695375
20.400000	1	0.696250
20.416667	1	0.694750
20.433333	1	0.690375
20.450000	1	0.684125
20.466667	1	0.676250
20.483333	1	0.667875
20.500000	1	0.659625
20.516667	1	0.652250
20.533333	1	0.646500
20.550000	1	0.643750
20.566667	1	0.644250
20.583333	1	0.650250
20.600000	1	0.661500
20.616667	1	0.678375
20.633333	1	0.702625
20.650000	1	0.734750
20.666667	1	0.773375
20.683333	1	0.820875
20.700000	1	0.874250
20.716667	1	0.936000
20.733333	1	1.002875
20.750000	1	1.075125
20.766667	1	1.151250
20.783333	1	1.228750
20.800000	1	1.306000
20.816667	1	1.380250
20.833333	1	1.448500
20.850000	1	1.509875
20.866667	1	1.561500
20.883333	1	1.602625
20.900000	1	1.630625
20.916667	1	1.644875
20.933333	1	1.644750
20.950000	1	1.630875
20.966667	1	1.603625
20.983333	1	1.563375
21.000000	1	1.513125
21.016667	1	1.453250
21.033333	1	1.386000
21.050000	1	1.314625
21.066667	1	1.240375
21.083333	1	1.164375
21.100000	1	1.090375
21.116667	1	1.018375
21.133333	1	0.950000
21.150000	1	0.885625
21.166667	1	0.826625
21.183333	1	0.772625
21.200000	1	0.724000
21.216667	1	0.680375
21.233333	1	0.642000
21.250000	1	0.607875
21.266667	1	0.578625
21.283333	1	0.553250
21.300000	1	0.532000
21.316667	1	0.513875
21.333333	1	0.498000
21.350000	1	0.485000
21.366667	1	0.474125
21.383333	1	0.464250
21.400000	1	0.455875
21.416667	1	0.449625
21.433333	1	0.443250
21.450000	1	0.438125
21.466667	1	0.433750
21.483333	1	0.430250
21.500000	1	0.427375
21.516667	1	0.424750
21.533333	1	0.422500
21.550000	1	0.421000
21.566667	1	0.419750
21.583333	1	0.419500
21.600000	1	0.419750
21.616667	1	0.419500
21.633333	1	0.420375
21.650000	1	0.422375
21.666667	1	0.424750
21.683333	1	0.427625
21.700000	1	0.431750
21.716667	1	0.435625
21.733333	1	0.440750
21.750000	1	0.446625
21.766667	1	0.453375
21.783333	1	0.460500
21.800000	1	0.467875
21.816667	1	0.476125
21.833333	1	0.485000
21.850000	1	0.493375
21.866667	1	0.502625
21.883333	1	0.512500
21.900000	1	0.522125
21.916667	1	0.531625
21.933333	1	0.542125
21.950000	1	0.552250
21.966667	1	0.562000
21.983333	1	0.571250
22.000000	1	0.579375
22.016667	1	0.587750
22.033333	1	0.594750
22.050000	1	0.601250
22.066667	1	0.607250
22.083333	1	0.612750
22.100000	1	0.616750
22.116667	1	0.620250
22.133333	1	0.622000
22.150000	1	0.622375
22.166667	1	0.622000
22.183333	1	0.620375
22.200000	1	0.617625
22.216667	1	0.613875
22.233333	1	0.608000
22.250000	1	0.600500
22.266667	1	0.592125
22.283333	1	0.582750
22.300000	1	0.572125
22.316667	1	0.560250
22.333333	1	0.548125
22.350000	1	0.534875
22.366667	1	0.520875
22.383333	1	0.506375
22.400000	1	0.491375
22.416667	1	0.476875
22.433333	1	0.462375
22.450000	1	0.447750
22.466667	1	0.434750
22.483333	1	0.420750
22.500000	1	0.407500
22.516667	1	0.395125
22.533333	1	0.383625
22.550000	1	0.373375
22.566667	1	0.364000
22.583333	1	0.355125
22.600000	1	0.347125
22.616667	1	0.339250
22.633333	1	0.331625
22.650000	1	0.325375
22.666667	1	0.319875
22.683333	1	0.314750
22.700000	1	0.310375
22.716667	1	0.306250
22.733333	1	0.301750
22.750000	1	0.298375
22.766667	1	0.294625
22.783333	1	0.291625
22.800000	1	0.288000
22.816667	1	0.285000
22.833333	1	0.282375
22.850000	1	0.279625
22.866667	1	0.277750
22.883333	1	0.275625
22.900000	1	0.273750
22.916667	1	0.273125
22.933333	1	0.272000
22.950000	1	0.271625
22.966667	1	0.270875
22.983333	1	0.270375
23.000000	1	0.270500
23.016667	1	0.270375
23.033333	1	0.270250
23.050000	1	0.271750
23.066667	1	0.272750
23.083333	1	0.273750
23.100000	1	0.275750
23.116667	1	0.277750
23.133333	1	0.279375
23.150000	1	0.281000
23.166667	1	0.282250
23.183333	1	0.283750
23.200000	1	0.286500
23.216667	1	0.289125
23.233333	1	0.291375
23.250000	1	0.294625
23.266667	1	0.298875
23.283333	1	0.303500
23.300000	1	0.309500
23.316667	1	0.317125
23.333333	1	0.327125
23.350000	1	0.339000
23.366667	1	0.354500
23.383333	1	0.374000
23.400000	1	0.398000
23.416667	1	0.427375
23.433333	1	0.463750
23.450000	1	0.507500
23.466667	1	0.560250
23.483333	1	0.623625
23.500000	1	0.698125
23.516667	1	0.786500
23.533333	1	0.888625
23.550000	1	1.006500
23.566667	1	1.141125
23.583333	1	1.293500
23.600000	1	1.462875
23.616667	1	1.651875
23.633333	1	1.859750
23.650000	1	2.085125
23.666667	1	2.327250
23.683333	1	2.584500
23.700000	1	2.854500
23.716667	1	3.134250
23.733333	1	3.420000
23.750000	1	3.706625
23.766667	1	3.989625
23.783333	1	4.262250
23.800000	1	4.520500
23.816667	1	4.757625
23.833333	1	4.969000
23.850000	1	5.149500
23.866667	1	5.293750
23.883333	1	5.399875
23.900000	1	5.465000
23.916667	1	5.488000
23.933333	1	5.468000
23.950000	1	5.406375
23.966667	1	5.304250
23.983333	1	5.166750
24.000000	1	4.996125
24.016667	1	4.797125
24.033333	1	4.575500
24.050000	1	4.336125
24.066667	1	4.084500
24.083333	1	3.825125
24.100000	1	3.562250
24.116667	1	3.300250
24.133333	1	3.043625
24.150000	1	2.794625
24.166667	1	2.557250
24.183333	1	2.332750
24.200000	1	2.122125
24.216667	1	1.926000
24.233333	1	1.746250
24.250000	1	1.582750
24.266667	1	1.433500
24.283333	1	1.299125
24.300000	1	1.178625
24.316667	1	1.071625
24.333333	1	0.976250
24.350000	1	0.892000
24.366667	1	0.818000
24.383333	1	0.754250
24.400000	1	0.699250
24.416667	1	0.652000
24.433333	1	0.611250
24.450000	1	0.576500
24.466667	1	0.547250
24.483333	1	0.523125
24.500000	1	0.503000
24.516667	1	0.485750
24.533333	1	0.472250
24.550000	1	0.461125
24.566667	1	0.451625
24.583333	1	0.443875
24.600000	1	0.437500
24.616667	1	0.431375
24.633333	1	0.426250
24.650000	1	0.421000
24.666667	1	0.416000
24.683333	1	0.412125
24.700000	1	0.408250
24.716667	1	0.404375
24.733333	1	0.400000
24.750000	1	0.396000
24.766667	1	0.391625
24.783333	1	0.387250
24.800000	1	0.383000
24.816667	1	0.378750
24.833333	1	0.374125
24.850000	1	0.370625
24.866667	1	0.366250
24.883333	1	0.362750
24.900000	1	0.359250
24.916667	1	0.355625
24.933333	1	0.352125
24.950000	1	0.348625
24.966667	1	0.345625
24.983333	1	0.342125
25.000000	1	0.338750
25.016667	1	0.336000
25.033333	1	0.333000
25.050000	1	0.330125
25.066667	1	0.327375
25.083333	1	0.325125
25.100000	1	0.322500
25.116667	1	0.319250
25.133333	1	0.316375
25.150000	1	0.313500
25.166667	1	0.310875
25.183333	1	0.308000
25.200000	1	0.304875
25.216667	1	0.301750
25.233333	1	0.298750
25.250000	1	0.295375
25.266667	1	0.292125
25.283333	1	0.289375
25.300000	1	0.286250
25.316667	1	0.283375
25.333333	1	0.280375
25.350000	1	0.277625
25.366667	1	0.274875
25.383333	1	0.272125
25.400000	1	0.269625
25.416667	1	0.267000
25.433333	1	0.265000
25.450000	1	0.262875
25.466667	1	0.261250
25.483333	1	0.259875
25.500000	1	0.258875
25.516667	1	0.258375
25.533333	1	0.258250
25.550000	1	0.258125
25.566667	1	0.258000
25.583333	1	0.257875
25.600000	1	0.258375
25.616667	1	0.259625
25.633333	1	0.260125
25.650000	1	0.261125
25.666667	1	0.262500
25.683333	1	0.264000
25.700000	1	0.265125
25.716667	1	0.266875
25.733333	1	0.268375
25.750000	1	0.270750
25.766667	1	0.273000
25.783333	1	0.275000
25.800000	1	0.277500
25.816667	1	0.280500
25.833333	1	0.282750
25.850000	1	0.285375
25.866667	1	0.288125
25.883333	1	0.291625
25.900000	1	0.294875
25.916667	1	0.298375
25.933333	1	0.301375
25.950000	1	0.304875
25.966667	1	0.309250
25.983333	1	0.312750
26.000000	1	0.316875
26.016667	1	0.320875
26.033333	1	0.325250
26.050000	1	0.329500
26.066667	1	0.333875
26.083333	1	0.338625
26.100000	1	0.342375
26.116667	1	0.346750
26.133333	1	0.350375
26.150000	1	0.353500
26.166667	1	0.356375
26.183333	1	0.359125
26.200000	1	0.362000
26.216667	1	0.363750
26.233333	1	0.365000
26.250000	1	0.366500
26.266667	1	0.366625
26.283333	1	0.365875
26.300000	1	0.365250
26.316667	1	0.362875
26.333333	1	0.360000
26.350000	1	0.357125
26.366667	1	0.352625
26.383333	1	0.348625
26.400000	1	0.343375
26.416667	1	0.337625
26.433333	1	0.331125
26.450000	1	0.324500
26.466667	1	0.317500
26.483333	1	0.310000
26.500000	1	0.302375
26.516667	1	0.294250
26.533333	1	0.286000
26.550000	1	0.277500
26.566667	1	0.268750
26.583333	1	0.259750
26.600000	1	0.251250
26.616667	1	0.242375
26.633333	1	0.234125
26.650000	1	0.225875
26.666667	1	0.218125
26.683333	1	0.210375
26.700000	1	0.201875
26.716667	1	0.193625
26.733333	1	0.186625
26.750000	1	0.179375
26.766667	1	0.173000
26.783333	1	0.167000
26.800000	1	0.161625
26.816667	1	0.156500
26.833333	1	0.152500
26.850000	1	0.148625
26.866667	1	0.145000
26.883333	1	0.142125
26.900000	1	0.139625
26.916667	1	0.137875
26.933333	1	0.136500
26.950000	1	0.136000
26.966667	1	0.135625
26.983333	1	0.136625
27.000000	1	0.138125
27.016667	1	0.140875
27.033333	1	0.143500
27.050000	1	0.147250
27.066667	1	0.152125
27.083333	1	0.158250
27.100000	1	0.165250
27.116667	1	0.173750
27.133333	1	0.182875
27.150000	1	0.193250
27.166667	1	0.204625
27.183333	1	0.218000
27.200000	1	0.233750
27.216667	1	0.251625
27.233333	1	0.272250
27.250000	1	0.294750
27.266667	1	0.320125
27.283333	1	0.349375
27.300000	1	0.382250
27.316667	1	0.419875
27.333333	1	0.461750
27.350000	1	0.508500
27.366667	1	0.561250
27.383333	1	0.620500
27.400000	1	0.686500
27.416667	1	0.760625
27.433333	1	0.841625
27.450000	1	0.931875
27.466667	1	1.030875
27.483333	1	1.139500
27.500000	1	1.257875
27.516667	1	1.385000
27.533333	1	1.522125
27.550000	1	1.668875
27.566667	1	1.824250
27.583333	1	1.987875
27.600000	1	2.157750
27.616667	1	2.334750
27.633333	1	2.516625
27.650000	1	2.701000
27.666667	1	2.887500
27.683333	1	3.072875
27.700000	1	3.254125
27.716667	1	3.430125
27.733333	1	3.597500
27.750000	1	3.752875
27.766667	1	3.894875
27.783333	1	4.020250
27.800000	1	4.127250
27.816667	1	4.213125
27.833333	1	4.277250
27.850000	1	4.317000
27.866667	1	4.332250
27.883333	1	4.321750
27.900000	1	4.286625
27.916667	1	4.226750
27.933333	1	4.142125
27.950000	1	4.035750
27.966667	1	3.908875
27.983333	1	3.764375
28.000000	1	3.604625
28.016667	1	3.431750
28.033333	1	3.249625
28.050000	1	3.061125
28.066667	1	2.868375
28.083333	1	2.673750
28.100000	1	2.480875
28.116667	1	2.291125
28.133333	1	2.107875
28.150000	1	1.932625
28.166667	1	1.766500
28.183333	1	1.610000
28.200000	1	1.464625
28.216667	1	1.330250
28.233333	1	1.207000
28.250000	1	1.095500
28.266667	1	0.993750
28.283333	1	0.902625
28.300000	1	0.821500
28.316667	1	0.749875
28.333333	1	0.687875
28.350000	1	0.635250
28.366667	1	0.588875
28.383333	1	0.550125
28.400000	1	0.517000
28.416667	1	0.490375
28.433333	1	0.469250
28.450000	1	0.452625
28.466667	1	0.439375
28.483333	1	0.430125
28.500000	1	0.424125
28.516667	1	0.422000
28.533333	1	0.422125
28.550000	1	0.424500
28.566667	1	0.428500
28.583333	1	0.434125
28.600000	1	0.441250
28.616667	1	0.449125
28.633333	1	0.457625
28.650000	1	0.467625
28.666667	1	0.477750
28.683333	1	0.487750
28.700000	1	0.497625
28.716667	1	0.507500
28.733333	1	0.516875
28.750000	1	0.525875
28.766667	1	0.534000
28.783333	1	0.541750
28.800000	1	0.549000
28.816667	1	0.555000
28.833333	1	0.560250
28.850000	1	0.564375
28.866667	1	0.567125
28.883333	1	0.569000
28.900000	1	0.570375
28.916667	1	0.570125
28.933333	1	0.569000
28.950000	1	0.565875
28.966667	1	0.561625
28.983333	1	0.556375
29.000000	1	0.550750
29.016667	1	0.544250
29.033333	1	0.536625
29.050000	1	0.527875
29.066667	1	0.517750
29.083333	1	0.507500
29.100000	1	0.496125
29.116667	1	0.484500
29.133333	1	0.471000
29.150000	1	0.458375
29.166667	1	0.444625
29.183333	1	0.430375
29.200000	1	0.416250
29.216667	1	0.402875
29.233333	1	0.388250
29.250000	1	0.374125
29.266667	1	0.359625
29.283333	1	0.345750
29.300000	1	0.331125
29.316667	1	0.317500
29.333333	1	0.304625
29.350000	1	0.292125
29.366667	1	0.279625
29.383333	1	0.268000
29.400000	1	0.256375
29.416667	1	0.244500
29.433333	1	0.234500
29.450000	1	0.224125
29.466667	1	0.215125
29.483333	1	0.206125
29.500000	1	0.197375
29.516667	1	0.189625
29.533333	1	0.182250
29.550000	1	0.175875
29.566667	1	0.170125
29.583333	1	0.164625
29.600000	1	0.159625
29.616667	1	0.155375
29.633333	1	0.151250
29.650000	1	0.148000
29.666667	1	0.145000
29.683333	1	0.142625
29.700000	1	0.140625
29.716667	1	0.139125
29.733333	1	0.137875
29.750000	1	0.136750
29.766667	1	0.136500
29.783333	1	0.135750
29.800000	1	0.134750
29.816667	1	0.134875
29.833333	1	0.135125
29.850000	1	0.135625
29.866667	1	0.135375
29.883333	1	0.135625
29.900000	1	0.136375
29.916667	1	0.137125
29.933333	1	0.136875
29.950000	1	0.138000
29.966667	1	0.137750
29.983333	1	0.138000
30.000000	1	0.138375
30.016667	1	0.138125
30.033333	1	0.138125
30.050000	1	0.137875
30.066667	1	0.137000
30.083333	1	0.135625
30.100000	1	0.135250
30.116667	1	0.134500
30.133333	1	0.133875
30.150000	1	0.133125
30.166667	1	0.131875
30.183333	1	0.131000
30.200000	1	0.129375
30.216667	1	0.128000
30.233333	1	0.127000
30.250000	1	0.125250
30.266667	1	0.124250
30.283333	1	0.123750
30.300000	1	0.122125
30.316667	1	0.121125
30.333333	1	0.120375
30.350000	1	0.119750
30.366667	1	0.119125
30.383333	1	0.118875
30.400000	1	0.118875
30.416667	1	0.118875
30.433333	1	0.120000
30.450000	1	0.121125
30.466667	1	0.122250
30.483333	1	0.123500
30.500000	1	0.125250
30.516667	1	0.128000
30.533333	1	0.131250
30.550000	1	0.134625
30.566667	1	0.139000
30.583333	1	0.143875
30.600000	1	0.149375
30.616667	1	0.155250
30.633333	1	0.162625
30.650000	1	0.169000
30.666667	1	0.176625
30.683333	1	0.185125
30.700000	1	0.194875
30.716667	1	0.204875
30.733333	1	0.216500
30.750000	1	0.228750
30.766667	1	0.242000
30.783333	1	0.256500
30.800000	1	0.273250
30.816667	1	0.291125
30.833333	1	0.311500
30.850000	1	0.333375
30.866667	1	0.357750
30.883333	1	0.385625
30.900000	1	0.417000
30.916667	1	0.450250
30.933333	1	0.488750
30.950000	1	0.531250
30.966667	1	0.578000
30.983333	1	0.630875
31.000000	1	0.690375
31.016667	1	0.756375
31.033333	1	0.829625
31.050000	1	0.910625
31.066667	1	0.999500
31.083333	1	1.097250
31.100000	1	1.204375
31.116667	1	1.319625
31.133333	1	1.445250
31.150000	1	1.580250
31.166667	1	1.725250
31.183333	1	1.879250
31.200000	1	2.041500
31.216667	1	2.212375
31.233333	1	2.390875
31.250000	1	2.575875
31.266667	1	2.764125
31.283333	1	2.956625
31.300000	1	3.150500
31.316667	1	3.343625
31.333333	1	3.534125
31.350000	1	3.720250
31.366667	1	3.899875
31.383333	1	4.071000
31.400000	1	4.230500
31.416667	1	4.376625
31.433333	1	4.507375
31.450000	1	4.621750
31.466667	1	4.717875
31.483333	1	4.793750
31.500000	1	4.847750
31.516667	1	4.880000
31.533333	1	4.890750
31.550000	1	4.878625
31.566667	1	4.845375
31.583333	1	4.790750
31.600000	1	4.715625
31.616667	1	4.621750
31.633333	1	4.509000
31.650000	1	4.380375
31.666667	1	4.237875
31.683333	1	4.082750
31.700000	1	3.917625
31.716667	1	3.744375
31.733333	1	3.565375
31.750000	1	3.381875
31.766667	1	3.196625
31.783333	1	3.010750
31.800000	1	2.825875
31.816667	1	2.644125
31.833333	1	2.465375
31.850000	1	2.291500
31.866667	1	2.124000
31.883333	1	1.964500
31.900000	1	1.812000
31.916667	1	1.668125
31.933333	1	1.532375
31.950000	1	1.405000
31.966667	1	1.285875
31.983333	1	1.175000
32.000000	1	1.071500
32.016667	1	0.976500
32.033333	1	0.888750
32.050000	1	0.808750
32.066667	1	0.735000
32.083333	1	0.668125
32.100000	1	0.607500
32.116667	1	0.551750
32.133333	1	0.502250
32.150000	1	0.456750
32.166667	1	0.415875
32.183333	1	0.378500
32.200000	1	0.345125
32.216667	1	0.315000
32.233333	1	0.287500
32.250000	1	0.262375
32.266667	1	0.239375
32.283333	1	0.218625
32.300000	1	0.200250
32.316667	1	0.183875
32.333333	1	0.168625
32.350000	1	0.155250
32.366667	1	0.141625
32.383333	1	0.130000
32.400000	1	0.119125
32.416667	1	0.109500
32.433333	1	0.100125
32.450000	1	0.092125
32.466667	1	0.084750
32.483333	1	0.077500
32.500000	1	0.071750
32.516667	1	0.065375
32.533333	1	0.059875
32.550000	1	0.054625
32.566667	1	0.050500
32.583333	1	0.046625
32.600000	1	0.043375
32.616667	1	0.040375
32.633333	1	0.037500
32.650000	1	0.034125
32.666667	1	0.031750
32.683333	1	0.029375
32.700000	1	0.027125
32.716667	1	0.025250
32.733333	1	0.023875
32.750000	1	0.022500
32.766667	1	0.021125
32.783333	1	0.019625
32.800000	1	0.018875
32.816667	1	0.017875
32.833333	1	0.017250
32.850000	1	0.016500
32.866667	1	0.015375
32.883333	1	0.015125
32.900000	1	0.015125
32.916667	1	0.014500
32.933333	1	0.014250
32.950000	1	0.014250
32.966667	1	0.014500
32.983333	1	0.015250
33.000000	1	0.015125
33.016667	1	0.015250
33.033333	1	0.015375
33.050000	1	0.015625
33.066667	1	0.015625
33.083333	1	0.016000
33.100000	1	0.016375
33.116667	1	0.016750
33.133333	1	0.017000
33.150000	1	0.017750
33.166667	1	0.018500
33.183333	1	0.018750
33.200000	1	0.019625
33.216667	1	0.020500
33.233333	1	0.020875
33.250000	1	0.021375
33.266667	1	0.022125
33.283333	1	0.023000
33.300000	1	0.023625
33.316667	1	0.024500
33.333333	1	0.025750
33.350000	1	0.026625
33.366667	1	0.027750
33.383333	1	0.029000
33.400000	1	0.030375
33.416667	1	0.031500
33.433333	1	0.032250
33.450000	1	0.033625
33.466667	1	0.034875
33.483333	1	0.036875
33.500000	1	0.038750
33.516667	1	0.040875
33.533333	1	0.042375
33.550000	1	0.044375
33.566667	1	0.047000
33.583333	1	0.048750
33.600000	1	0.050750
33.616667	1	0.052750
33.633333	1	0.055625
33.650000	1	0.057250
33.666667	1	0.059750
33.683333	1	0.062500
33.700000	1	0.065125
33.716667	1	0.068000
33.733333	1	0.071000
33.750000	1	0.074000
33.766667	1	0.077125
33.783333	1	0.080375
33.800000	1	0.083250
33.816667	1	0.085375
33.833333	1	0.087500
33.850000	1	0.090750
33.866667	1	0.093500
33.883333	1	0.095875
33.900000	1	0.098250
33.916667	1	0.100875
33.933333	1	0.103000
33.950000	1	0.105750
33.966667	1	0.107750
33.983333	1	0.108875
34.000000	1	0.111250
34.016667	1	0.112625
34.033333	1	0.113125
34.050000	1	0.114875
34.066667	1	0.116000
34.083333	1	0.117125
34.100000	1	0.117875
34.116667	1	0.118375
34.133333	1	0.118875
34.150000	1	0.119250
34.166667	1	0.119500
34.183333	1	0.119875
34.200000	1	0.120000
34.216667	1	0.120750
34.233333	1	0.120125
34.250000	1	0.120875
34.266667	1	0.121000
34.283333	1	0.120375
34.300000	1	0.120375
34.316667	1	0.121250
34.333333	1	0.122000
34.350000	1	0.123375
34.366667	1	0.124875
34.383333	1	0.125750
34.400000	1	0.127000
34.416667	1	0.128250
34.433333	1	0.129875
34.450000	1	0.131875
34.466667	1	0.133750
34.483333	1	0.136250
34.500000	1	0.138750
34.516667	1	0.140750
34.533333	1	0.143125
34.550000	1	0.145625
34.566667	1	0.148250
34.583333	1	0.151125
34.600000	1	0.154500
34.616667	1	0.156625
34.633333	1	0.159000
34.650000	1	0.161250
34.666667	1	0.162875
34.683333	1	0.165000
34.700000	1	0.166875
34.716667	1	0.169000
34.733333	1	0.171125
34.750000	1	0.172875
34.766667	1	0.173750
34.783333	1	0.174625
34.800000	1	0.175125
34.816667	1	0.175375
34.833333	1	0.175750
34.850000	1	0.175875
34.866667	1	0.175500
34.883333	1	0.175125
34.900000	1	0.174500
34.916667	1	0.173875
34.933333	1	0.172250
34.950000	1	0.170500
34.966667	1	0.168625
34.983333	1	0.167250
35.000000	1	0.166250
35.016667	1	0.163875
35.033333	1	0.162250
35.050000	1	0.159875
35.066667	1	0.157625
35.083333	1	0.155375
35.100000	1	0.152625
35.116667	1	0.150625
35.133333	1	0.148625
35.150000	1	0.146875
35.166667	1	0.143875
35.183333	1	0.141250
35.200000	1	0.139750
35.216667	1	0.137750
35.233333	1	0.136000
35.250000	1	0.134500
35.266667	1	0.132250
35.283333	1	0.130125
35.300000	1	0.128750
35.316667	1	0.127250
35.333333	1	0.125875
35.350000	1	0.125375
35.366667	1	0.123875
35.383333	1	0.122500
35.400000	1	0.122000
35.416667	1	0.121625
35.433333	1	0.120000
35.450000	1	0.119125
35.466667	1	0.118125
35.483333	1	0.117125
35.500000	1	0.116000
35.516667	1	0.116125
35.533333	1	0.115000
35.550000	1	0.114125
35.566667	1	0.113875
35.583333	1	0.112625
35.600000	1	0.112000
35.616667	1	0.111250
35.633333	1	0.110250
35.650000	1	0.109125
35.666667	1	0.108500
35.683333	1	0.107375
35.700000	1	0.106750
35.716667	1	0.105750
35.733333	1	0.104625
35.750000	1	0.103750
35.766667	1	0.102250
35.783333	1	0.101500
35.800000	1	0.100875
35.816667	1	0.100000
35.833333	1	0.098875
35.850000	1	0.098500
35.866667	1	0.097875
35.883333	1	0.097250
35.900000	1	0.096875
35.916667	1	0.095750
35.933333	1	0.094500
35.950000	1	0.094250
35.966667	1	0.093750
35.983333	1	0.093000
36.000000	1	0.092750
36.016667	1	0.093000
36.033333	1	0.092000
36.050000	1	0.091875
36.066667	1	0.091125
36.083333	1	0.091500
36.100000	1	0.091750
36.116667	1	0.092375
36.133333	1	0.092625
36.150000	1	0.092875
36.166667	1	0.093875
36.183333	1	0.094500
36.200000	1	0.094875
36.216667	1	0.096250
36.233333	1	0.096875
36.250000	1	0.097250
36.266667	1	0.098250
36.283333	1	0.098750
36.300000	1	0.100125
36.316667	1	0.100625
36.333333	1	0.100875
36.350000	1	0.101125
36.366667	1	0.102000
36.383333	1	0.102750
36.400000	1	0.102500
36.416667	1	0.102625
36.433333	1	0.103000
36.450000	1	0.103250
36.466667	1	0.102500
36.483333	1	0.102000
36.500000	1	0.101250
36.516667	1	0.100625
36.533333	1	0.099625
36.550000	1	0.099000
36.566667	1	0.098125
36.583333	1	0.096875
36.600000	1	0.096125
36.616667	1	0.095000
36.633333	1	0.092375
36.650000	1	0.091125
36.666667	1	0.090125
36.683333	1	0.087875
36.700000	1	0.086250
36.716667	1	0.084750
36.733333	1	0.083000
36.750000	1	0.081125
36.766667	1	0.079000
36.783333	1	0.076625
36.800000	1	0.073750
36.816667	1	0.072000
36.833333	1	0.068750
36.850000	1	0.066000
36.866667	1	0.063250
36.883333	1	0.060625
36.900000	1	0.057500
36.916667	1	0.054750
36.933333	1	0.052250
36.950000	1	0.049250
36.966667	1	0.046000
36.983333	1	0.043250
37.000000	1	0.040375
37.016667	1	0.037375
37.033333	1	0.034875
37.050000	1	0.032375
37.066667	1	0.030500
37.083333	1	0.028125
37.100000	1	0.025250
37.116667	1	0.023125
37.133333	1	0.020750
37.150000	1	0.018500
37.166667	1	0.017250
37.183333	1	0.016125
37.200000	1	0.014375
37.216667	1	0.013625
37.233333	1	0.012500
37.250000	1	0.012125
37.266667	1	0.011625
37.283333	1	0.011750
37.300000	1	0.011250
37.316667	1	0.011000
37.333333	1	0.011125
37.350000	1	0.011250
37.366667	1	0.011750
37.383333	1	0.012375
37.400000	1	0.013250
37.416667	1	0.013875
37.433333	1	0.014875
37.450000	1	0.015875
37.466667	1	0.016500
37.483333	1	0.017250
37.500000	1	0.018125
37.516667	1	0.019750
37.533333	1	0.020875
37.550000	1	0.021125
37.566667	1	0.021500
37.583333	1	0.022875
37.600000	1	0.024250
37.616667	1	0.024625
37.633333	1	0.024875
37.650000	1	0.025375
37.666667	1	0.026250
37.683333	1	0.027125
37.700000	1	0.027250
37.716667	1	0.027500
37.733333	1	0.028125
37.750000	1	0.027625
37.766667	1	0.027750
37.783333	1	0.027750
37.800000	1	0.027750
37.816667	1	0.028000
37.833333	1	0.027125
37.850000	1	0.027250
37.866667	1	0.026875
37.883333	1	0.026500
37.900000	1	0.026500
37.916667	1	0.025125
37.933333	1	0.025250
37.950000	1	0.024625
37.966667	1	0.024250
37.983333	1	0.023500
38.000000	1	0.023250
38.016667	1	0.023000
38.033333	1	0.022250
38.050000	1	0.021750
38.066667	1	0.021250
38.083333	1	0.021000
38.100000	1	0.020500
38.116667	1	0.019125
38.133333	1	0.018875
38.150000	1	0.018375
38.166667	1	0.017625
38.183333	1	0.017375
38.200000	1	0.017000
38.216667	1	0.016250
38.233333	1	0.016125
38.250000	1	0.015125
38.266667	1	0.014875
38.283333	1	0.014500
38.300000	1	0.014125
38.316667	1	0.014500
38.333333	1	0.014625
38.350000	1	0.014875
38.366667	1	0.015375
38.383333	1	0.015250
38.400000	1	0.015500
38.416667	1	0.015375
38.433333	1	0.015625
38.450000	1	0.015875
38.466667	1	0.016125
38.483333	1	0.016125
38.500000	1	0.016000
38.516667	1	0.016125
38.533333	1	0.016250
38.550000	1	0.016000
38.566667	1	0.015875
38.583333	1	0.016500
38.600000	1	0.016500
38.616667	1	0.016500
38.633333	1	0.015875
38.650000	1	0.015750
38.666667	1	0.015750
38.683333	1	0.015625
38.700000	1	0.015125
38.716667	1	0.014250
38.733333	1	0.013875
38.750000	1	0.014000
38.766667	1	0.013000
38.783333	1	0.012375
38.800000	1	0.011375
38.816667	1	0.010500
38.833333	1	0.009500
38.850000	1	0.008500
38.866667	1	0.007500
38.883333	1	0.006500
38.900000	1	0.005750
38.916667	1	0.004750
38.933333	1	0.003500
38.950000	1	0.002375
38.966667	1	0.001250
38.983333	1	0.000375
39.000000	1	-0.000250
39.016667	1	-0.001750
39.033333	1	-0.003125
39.050000	1	-0.004375
39.066667	1	-0.005250
39.083333	1	-0.006000
39.100000	1	-0.006750
39.116667	1	-0.007250
39.133333	1	-0.007625
39.150000	1	-0.009000
39.166667	1	-0.010250
39.183333	1	-0.010750
39.200000	1	-0.011125
39.216667	1	-0.011625
39.233333	1	-0.012375
39.250000	1	-0.012500
39.266667	1	-0.012875
39.283333	1	-0.013125
39.300000	1	-0.013375
39.316667	1	-0.013375
39.333333	1	-0.013500
39.350000	1	-0.013750
39.366667	1	-0.013875
39.383333	1	-0.014000
39.400000	1	-0.014000
39.416667	1	-0.014250
39.433333	1	-0.014250
39.450000	1	-0.014375
39.466667	1	-0.014750
39.483333	1	-0.014125
39.500000	1	-0.013750
39.516667	1	-0.013250
39.533333	1	-0.013125
39.550000	1	-0.013000
39.566667	1	-0.013125
39.583333	1	-0.012625
39.600000	1	-0.012500
39.616667	1	-0.012000
39.633333	1	-0.012500
39.650000	1	-0.012250
39.666667	1	-0.011750
39.683333	1	-0.011250
39.700000	1	-0.010375
39.716667	1	-0.009625
39.733333	1	-0.009500
39.750000	1	-0.009125
39.766667	1	-0.008500
39.783333	1	-0.007625
39.800000	1	-0.007250
39.816667	1	-0.006375
39.833333	1	-0.004875
39.850000	1	-0.004250
39.866667	1	-0.003750
39.883333	1	-0.003125
39.900000	1	-0.002625
39.916667	1	-0.002125
39.933333	1	-0.001250
39.950000	1	-0.000875
39.966667	1	0.000000
39.983333	1	0.000750
40.000000	1	0.000875
