URL	chrom://bioreactor/micro_cm7/HPLC_Ultimate_3000/Users/markusar/20240716_MA_pHrange2.seq/329.smp/RI_1.channel/RI_1.chm
Channel	RI_1

Injection Information:
Data Vault	micro_cm7
Sequence	20240716_MA_pHrange2
Name	Pv3_40H_3
Number	24
Position	BB12
Comment	
Processing Method	
Instrument Method	run_25B_method
Type	Unknown
Status	Finished
Inject Time	17.07.2024 09:48:48 +02:00
Volume (µl)	20.0000
Dilution Factor	1.0000
Weight	1.0000

Chromatogram Data Information:
Time Min. (min)	0.000000
Time Max. (min)	40.000000
Data Points	2401
Detector	RI
Generating Data System	Chromeleon 7.3.2.11814
Exporting Data System	Chromeleon 7.3.2.0
Operator	Instrument Controller
Signal Quantity	Refractive 
Signal Unit	µRIU
Signal Min.	-0.218625
Signal Max.	108.754875
Channel	RI_1
Driver Name	RID520Driver.dll
Channel Type	Evaluation
Min. Step (s)	1
Max. Step (s)	1
Average Step (s)	1

Signal Parameter Information:
Signal Info	

Chromatogram Data:
Time (min)	Step (s)	Value (µRIU)
0.000000	n.a.	-0.026625
0.016667	1	-0.025875
0.033333	1	-0.025750
0.050000	1	-0.026250
0.066667	1	-0.025750
0.083333	1	-0.025875
0.100000	1	-0.026250
0.116667	1	-0.026125
0.133333	1	-0.026875
0.150000	1	-0.027500
0.166667	1	-0.028500
0.183333	1	-0.028875
0.200000	1	-0.029875
0.216667	1	-0.031000
0.233333	1	-0.031500
0.250000	1	-0.032750
0.266667	1	-0.033500
0.283333	1	-0.035375
0.300000	1	-0.036750
0.316667	1	-0.037750
0.333333	1	-0.039625
0.350000	1	-0.041000
0.366667	1	-0.043250
0.383333	1	-0.044500
0.400000	1	-0.046375
0.416667	1	-0.047375
0.433333	1	-0.048750
0.450000	1	-0.048750
0.466667	1	-0.048000
0.483333	1	-0.047750
0.500000	1	-0.048250
0.516667	1	-0.048000
0.533333	1	-0.049250
0.550000	1	-0.050875
0.566667	1	-0.052500
0.583333	1	-0.055125
0.600000	1	-0.056750
0.616667	1	-0.059000
0.633333	1	-0.060125
0.650000	1	-0.061125
0.666667	1	-0.061625
0.683333	1	-0.062375
0.700000	1	-0.062125
0.716667	1	-0.061750
0.733333	1	-0.061375
0.750000	1	-0.061250
0.766667	1	-0.061000
0.783333	1	-0.060875
0.800000	1	-0.060375
0.816667	1	-0.059250
0.833333	1	-0.058250
0.850000	1	-0.057875
0.866667	1	-0.056875
0.883333	1	-0.055250
0.900000	1	-0.053500
0.916667	1	-0.052250
0.933333	1	-0.051125
0.950000	1	-0.049500
0.966667	1	-0.047750
0.983333	1	-0.045750
1.000000	1	-0.044000
1.016667	1	-0.042250
1.033333	1	-0.041000
1.050000	1	-0.039750
1.066667	1	-0.038250
1.083333	1	-0.036375
1.100000	1	-0.034250
1.116667	1	-0.032875
1.133333	1	-0.031750
1.150000	1	-0.030750
1.166667	1	-0.029375
1.183333	1	-0.027375
1.200000	1	-0.026500
1.216667	1	-0.025750
1.233333	1	-0.024250
1.250000	1	-0.022750
1.266667	1	-0.021750
1.283333	1	-0.020750
1.300000	1	-0.020125
1.316667	1	-0.019375
1.333333	1	-0.018375
1.350000	1	-0.017750
1.366667	1	-0.017000
1.383333	1	-0.016500
1.400000	1	-0.016125
1.416667	1	-0.015500
1.433333	1	-0.014875
1.450000	1	-0.013875
1.466667	1	-0.013375
1.483333	1	-0.013500
1.500000	1	-0.014000
1.516667	1	-0.015125
1.533333	1	-0.015625
1.550000	1	-0.016375
1.566667	1	-0.016750
1.583333	1	-0.017625
1.600000	1	-0.019000
1.616667	1	-0.020250
1.633333	1	-0.021125
1.650000	1	-0.022375
1.666667	1	-0.022875
1.683333	1	-0.024875
1.700000	1	-0.027125
1.716667	1	-0.029125
1.733333	1	-0.030875
1.750000	1	-0.032625
1.766667	1	-0.034000
1.783333	1	-0.036250
1.800000	1	-0.037875
1.816667	1	-0.040000
1.833333	1	-0.041500
1.850000	1	-0.043000
1.866667	1	-0.044750
1.883333	1	-0.046375
1.900000	1	-0.047375
1.916667	1	-0.048500
1.933333	1	-0.049750
1.950000	1	-0.050750
1.966667	1	-0.051750
1.983333	1	-0.052125
2.000000	1	-0.053125
2.016667	1	-0.053375
2.033333	1	-0.053875
2.050000	1	-0.054125
2.066667	1	-0.054625
2.083333	1	-0.054375
2.100000	1	-0.055125
2.116667	1	-0.054500
2.133333	1	-0.054125
2.150000	1	-0.053875
2.166667	1	-0.053750
2.183333	1	-0.053375
2.200000	1	-0.053500
2.216667	1	-0.053000
2.233333	1	-0.052500
2.250000	1	-0.051750
2.266667	1	-0.051250
2.283333	1	-0.050375
2.300000	1	-0.049750
2.316667	1	-0.049125
2.333333	1	-0.048500
2.350000	1	-0.047875
2.366667	1	-0.047625
2.383333	1	-0.047250
2.400000	1	-0.046375
2.416667	1	-0.045500
2.433333	1	-0.044375
2.450000	1	-0.043375
2.466667	1	-0.042625
2.483333	1	-0.041375
2.500000	1	-0.040250
2.516667	1	-0.038500
2.533333	1	-0.037375
2.550000	1	-0.036000
2.566667	1	-0.034375
2.583333	1	-0.032625
2.600000	1	-0.030875
2.616667	1	-0.029125
2.633333	1	-0.027500
2.650000	1	-0.025250
2.666667	1	-0.022500
2.683333	1	-0.020500
2.700000	1	-0.018625
2.716667	1	-0.016000
2.733333	1	-0.013250
2.750000	1	-0.011000
2.766667	1	-0.008125
2.783333	1	-0.005000
2.800000	1	-0.001625
2.816667	1	0.001250
2.833333	1	0.005000
2.850000	1	0.008625
2.866667	1	0.011750
2.883333	1	0.015125
2.900000	1	0.018500
2.916667	1	0.022000
2.933333	1	0.024875
2.950000	1	0.028500
2.966667	1	0.032500
2.983333	1	0.036125
3.000000	1	0.040625
3.016667	1	0.044375
3.033333	1	0.047875
3.050000	1	0.051625
3.066667	1	0.055000
3.083333	1	0.058625
3.100000	1	0.061750
3.116667	1	0.065250
3.133333	1	0.067875
3.150000	1	0.071500
3.166667	1	0.074250
3.183333	1	0.076625
3.200000	1	0.079000
3.216667	1	0.081750
3.233333	1	0.084250
3.250000	1	0.086250
3.266667	1	0.088500
3.283333	1	0.090250
3.300000	1	0.091625
3.316667	1	0.093750
3.333333	1	0.095250
3.350000	1	0.096250
3.366667	1	0.097250
3.383333	1	0.097500
3.400000	1	0.098875
3.416667	1	0.099750
3.433333	1	0.099875
3.450000	1	0.100875
3.466667	1	0.101000
3.483333	1	0.101125
3.500000	1	0.101500
3.516667	1	0.101500
3.533333	1	0.101125
3.550000	1	0.100625
3.566667	1	0.100250
3.583333	1	0.100375
3.600000	1	0.100250
3.616667	1	0.099875
3.633333	1	0.099625
3.650000	1	0.099875
3.666667	1	0.100500
3.683333	1	0.100250
3.700000	1	0.100375
3.716667	1	0.100000
3.733333	1	0.099250
3.750000	1	0.099000
3.766667	1	0.098625
3.783333	1	0.098125
3.800000	1	0.098125
3.816667	1	0.098000
3.833333	1	0.098000
3.850000	1	0.097500
3.866667	1	0.097625
3.883333	1	0.097500
3.900000	1	0.097500
3.916667	1	0.097875
3.933333	1	0.097625
3.950000	1	0.097250
3.966667	1	0.097875
3.983333	1	0.097500
4.000000	1	0.096875
4.016667	1	0.097125
4.033333	1	0.096500
4.050000	1	0.095750
4.066667	1	0.095375
4.083333	1	0.094500
4.100000	1	0.094000
4.116667	1	0.093500
4.133333	1	0.091875
4.150000	1	0.090375
4.166667	1	0.089500
4.183333	1	0.088750
4.200000	1	0.087625
4.216667	1	0.086250
4.233333	1	0.084625
4.250000	1	0.082750
4.266667	1	0.081250
4.283333	1	0.079125
4.300000	1	0.077375
4.316667	1	0.075250
4.333333	1	0.073625
4.350000	1	0.071125
4.366667	1	0.069625
4.383333	1	0.067875
4.400000	1	0.066000
4.416667	1	0.065000
4.433333	1	0.063500
4.450000	1	0.062375
4.466667	1	0.061875
4.483333	1	0.061500
4.500000	1	0.060750
4.516667	1	0.059875
4.533333	1	0.060500
4.550000	1	0.061625
4.566667	1	0.062375
4.583333	1	0.063500
4.600000	1	0.064625
4.616667	1	0.066125
4.633333	1	0.067875
4.650000	1	0.070750
4.666667	1	0.073125
4.683333	1	0.075625
4.700000	1	0.079000
4.716667	1	0.082375
4.733333	1	0.086125
4.750000	1	0.089500
4.766667	1	0.092750
4.783333	1	0.096875
4.800000	1	0.101125
4.816667	1	0.105500
4.833333	1	0.109875
4.850000	1	0.114000
4.866667	1	0.118375
4.883333	1	0.122625
4.900000	1	0.127250
4.916667	1	0.131500
4.933333	1	0.136250
4.950000	1	0.140500
4.966667	1	0.145125
4.983333	1	0.149625
5.000000	1	0.154500
5.016667	1	0.159375
5.033333	1	0.163375
5.050000	1	0.167125
5.066667	1	0.170625
5.083333	1	0.173875
5.100000	1	0.177375
5.116667	1	0.180375
5.133333	1	0.183250
5.150000	1	0.186250
5.166667	1	0.189500
5.183333	1	0.192875
5.200000	1	0.196375
5.216667	1	0.198750
5.233333	1	0.201500
5.250000	1	0.203500
5.266667	1	0.205500
5.283333	1	0.207500
5.300000	1	0.209500
5.316667	1	0.211000
5.333333	1	0.211500
5.350000	1	0.212500
5.366667	1	0.214000
5.383333	1	0.215250
5.400000	1	0.216000
5.416667	1	0.217125
5.433333	1	0.217750
5.450000	1	0.217875
5.466667	1	0.217375
5.483333	1	0.216625
5.500000	1	0.216125
5.516667	1	0.215500
5.533333	1	0.214250
5.550000	1	0.212625
5.566667	1	0.210750
5.583333	1	0.208375
5.600000	1	0.206875
5.616667	1	0.204125
5.633333	1	0.200875
5.650000	1	0.197625
5.666667	1	0.193750
5.683333	1	0.189375
5.700000	1	0.184500
5.716667	1	0.179750
5.733333	1	0.174625
5.750000	1	0.169000
5.766667	1	0.163500
5.783333	1	0.157750
5.800000	1	0.152000
5.816667	1	0.146250
5.833333	1	0.140000
5.850000	1	0.133250
5.866667	1	0.127000
5.883333	1	0.120125
5.900000	1	0.113375
5.916667	1	0.106500
5.933333	1	0.099750
5.950000	1	0.093875
5.966667	1	0.087500
5.983333	1	0.081375
6.000000	1	0.074625
6.016667	1	0.067875
6.033333	1	0.062000
6.050000	1	0.056750
6.066667	1	0.051250
6.083333	1	0.046125
6.100000	1	0.040750
6.116667	1	0.036750
6.133333	1	0.032375
6.150000	1	0.027875
6.166667	1	0.023625
6.183333	1	0.019125
6.200000	1	0.016875
6.216667	1	0.013875
6.233333	1	0.010625
6.250000	1	0.008000
6.266667	1	0.005375
6.283333	1	0.003125
6.300000	1	0.001750
6.316667	1	0.000375
6.333333	1	-0.000375
6.350000	1	-0.001500
6.366667	1	-0.002125
6.383333	1	-0.002500
6.400000	1	-0.002375
6.416667	1	-0.002875
6.433333	1	-0.003375
6.450000	1	-0.003625
6.466667	1	-0.003375
6.483333	1	-0.002750
6.500000	1	-0.002875
6.516667	1	-0.002375
6.533333	1	-0.001625
6.550000	1	-0.000375
6.566667	1	0.000500
6.583333	1	0.001500
6.600000	1	0.002625
6.616667	1	0.003750
6.633333	1	0.004625
6.650000	1	0.005750
6.666667	1	0.007250
6.683333	1	0.008625
6.700000	1	0.009750
6.716667	1	0.010875
6.733333	1	0.012250
6.750000	1	0.013500
6.766667	1	0.015250
6.783333	1	0.017000
6.800000	1	0.018750
6.816667	1	0.020000
6.833333	1	0.021250
6.850000	1	0.023125
6.866667	1	0.024750
6.883333	1	0.026875
6.900000	1	0.029125
6.916667	1	0.030500
6.933333	1	0.033125
6.950000	1	0.035000
6.966667	1	0.037750
6.983333	1	0.040125
7.000000	1	0.042500
7.016667	1	0.045500
7.033333	1	0.049125
7.050000	1	0.051750
7.066667	1	0.054500
7.083333	1	0.057875
7.100000	1	0.060625
7.116667	1	0.063875
7.133333	1	0.067250
7.150000	1	0.070375
7.166667	1	0.073375
7.183333	1	0.076250
7.200000	1	0.079500
7.216667	1	0.083000
7.233333	1	0.085500
7.250000	1	0.088250
7.266667	1	0.090375
7.283333	1	0.092250
7.300000	1	0.093375
7.316667	1	0.095000
7.333333	1	0.096375
7.350000	1	0.097125
7.366667	1	0.097125
7.383333	1	0.096875
7.400000	1	0.096250
7.416667	1	0.095125
7.433333	1	0.093875
7.450000	1	0.092000
7.466667	1	0.089500
7.483333	1	0.086875
7.500000	1	0.083375
7.516667	1	0.080375
7.533333	1	0.076125
7.550000	1	0.072000
7.566667	1	0.068250
7.583333	1	0.063250
7.600000	1	0.057875
7.616667	1	0.052875
7.633333	1	0.048125
7.650000	1	0.042750
7.666667	1	0.036875
7.683333	1	0.031250
7.700000	1	0.025125
7.716667	1	0.019625
7.733333	1	0.014375
7.750000	1	0.009250
7.766667	1	0.003625
7.783333	1	-0.001000
7.800000	1	-0.006000
7.816667	1	-0.011250
7.833333	1	-0.016375
7.850000	1	-0.021875
7.866667	1	-0.026750
7.883333	1	-0.031125
7.900000	1	-0.035625
7.916667	1	-0.039750
7.933333	1	-0.043875
7.950000	1	-0.048375
7.966667	1	-0.052375
7.983333	1	-0.056000
8.000000	1	-0.059875
8.016667	1	-0.063000
8.033333	1	-0.066500
8.050000	1	-0.070500
8.066667	1	-0.073750
8.083333	1	-0.076625
8.100000	1	-0.079625
8.116667	1	-0.081625
8.133333	1	-0.084125
8.150000	1	-0.086500
8.166667	1	-0.088125
8.183333	1	-0.090500
8.200000	1	-0.092500
8.216667	1	-0.094500
8.233333	1	-0.096000
8.250000	1	-0.097375
8.266667	1	-0.098625
8.283333	1	-0.100000
8.300000	1	-0.100375
8.316667	1	-0.100875
8.333333	1	-0.101125
8.350000	1	-0.101250
8.366667	1	-0.101750
8.383333	1	-0.101875
8.400000	1	-0.101875
8.416667	1	-0.101375
8.433333	1	-0.100875
8.450000	1	-0.099500
8.466667	1	-0.098500
8.483333	1	-0.097000
8.500000	1	-0.095750
8.516667	1	-0.094250
8.533333	1	-0.092875
8.550000	1	-0.090750
8.566667	1	-0.089375
8.583333	1	-0.087125
8.600000	1	-0.085000
8.616667	1	-0.082875
8.633333	1	-0.081375
8.650000	1	-0.079500
8.666667	1	-0.077500
8.683333	1	-0.074625
8.700000	1	-0.072250
8.716667	1	-0.069375
8.733333	1	-0.066625
8.750000	1	-0.063250
8.766667	1	-0.060375
8.783333	1	-0.057875
8.800000	1	-0.055250
8.816667	1	-0.052625
8.833333	1	-0.049750
8.850000	1	-0.047000
8.866667	1	-0.043625
8.883333	1	-0.040000
8.900000	1	-0.036500
8.916667	1	-0.032750
8.933333	1	-0.029250
8.950000	1	-0.025625
8.966667	1	-0.021750
8.983333	1	-0.017875
9.000000	1	-0.014000
9.016667	1	-0.010250
9.033333	1	-0.006500
9.050000	1	-0.002500
9.066667	1	0.001500
9.083333	1	0.004875
9.100000	1	0.008500
9.116667	1	0.012125
9.133333	1	0.016000
9.150000	1	0.019250
9.166667	1	0.022250
9.183333	1	0.025375
9.200000	1	0.028125
9.216667	1	0.030750
9.233333	1	0.032750
9.250000	1	0.034875
9.266667	1	0.036250
9.283333	1	0.036875
9.300000	1	0.038000
9.316667	1	0.038750
9.333333	1	0.038375
9.350000	1	0.038125
9.366667	1	0.037500
9.383333	1	0.036125
9.400000	1	0.034375
9.416667	1	0.032625
9.433333	1	0.030500
9.450000	1	0.028500
9.466667	1	0.025250
9.483333	1	0.022000
9.500000	1	0.019125
9.516667	1	0.015250
9.533333	1	0.010625
9.550000	1	0.006375
9.566667	1	0.002250
9.583333	1	-0.001625
9.600000	1	-0.005625
9.616667	1	-0.009875
9.633333	1	-0.014250
9.650000	1	-0.018250
9.666667	1	-0.022250
9.683333	1	-0.026375
9.700000	1	-0.030000
9.716667	1	-0.032875
9.733333	1	-0.036000
9.750000	1	-0.038625
9.766667	1	-0.041500
9.783333	1	-0.044250
9.800000	1	-0.046875
9.816667	1	-0.048625
9.833333	1	-0.050250
9.850000	1	-0.052125
9.866667	1	-0.053000
9.883333	1	-0.054000
9.900000	1	-0.054875
9.916667	1	-0.055000
9.933333	1	-0.055375
9.950000	1	-0.055125
9.966667	1	-0.054875
9.983333	1	-0.054250
10.000000	1	-0.053250
10.016667	1	-0.052375
10.033333	1	-0.051500
10.050000	1	-0.050125
10.066667	1	-0.048625
10.083333	1	-0.046500
10.100000	1	-0.043625
10.116667	1	-0.040250
10.133333	1	-0.036500
10.150000	1	-0.032250
10.166667	1	-0.026750
10.183333	1	-0.020250
10.200000	1	-0.012625
10.216667	1	-0.004375
10.233333	1	0.005125
10.250000	1	0.015375
10.266667	1	0.029125
10.283333	1	0.043625
10.300000	1	0.059250
10.316667	1	0.077125
10.333333	1	0.095000
10.350000	1	0.112250
10.366667	1	0.125625
10.383333	1	0.132625
10.400000	1	0.127750
10.416667	1	0.106125
10.433333	1	0.063000
10.450000	1	-0.001250
10.466667	1	-0.082000
10.483333	1	-0.163125
10.500000	1	-0.218625
10.516667	1	-0.208625
10.533333	1	-0.078750
10.550000	1	0.232625
10.566667	1	0.796250
10.583333	1	1.681375
10.600000	1	2.954250
10.616667	1	4.672250
10.633333	1	6.881625
10.650000	1	9.613000
10.666667	1	12.890875
10.683333	1	16.727375
10.700000	1	21.126125
10.716667	1	26.079125
10.733333	1	31.570750
10.750000	1	37.574125
10.766667	1	44.044500
10.783333	1	50.944625
10.800000	1	58.224500
10.816667	1	65.817250
10.833333	1	73.624250
10.850000	1	81.501750
10.866667	1	89.233375
10.883333	1	96.469500
10.900000	1	102.666250
10.916667	1	107.061875
10.933333	1	108.754875
10.950000	1	106.942000
10.966667	1	101.278875
10.983333	1	92.128625
11.000000	1	80.536500
11.016667	1	67.903250
11.033333	1	55.549375
11.050000	1	44.393625
11.066667	1	34.886000
11.083333	1	27.119000
11.100000	1	20.964875
11.116667	1	16.196750
11.133333	1	12.562875
11.150000	1	9.825125
11.166667	1	7.778750
11.183333	1	6.255625
11.200000	1	5.120625
11.216667	1	4.272375
11.233333	1	3.633625
11.250000	1	3.148250
11.266667	1	2.774125
11.283333	1	2.482250
11.300000	1	2.250375
11.316667	1	2.064500
11.333333	1	1.911750
11.350000	1	1.784250
11.366667	1	1.677625
11.383333	1	1.587750
11.400000	1	1.511125
11.416667	1	1.446125
11.433333	1	1.388875
11.450000	1	1.340125
11.466667	1	1.297500
11.483333	1	1.261125
11.500000	1	1.229375
11.516667	1	1.202125
11.533333	1	1.178375
11.550000	1	1.158250
11.566667	1	1.140250
11.583333	1	1.124500
11.600000	1	1.110750
11.616667	1	1.099000
11.633333	1	1.089125
11.650000	1	1.080750
11.666667	1	1.073875
11.683333	1	1.067750
11.700000	1	1.063625
11.716667	1	1.060625
11.733333	1	1.059875
11.750000	1	1.059625
11.766667	1	1.060750
11.783333	1	1.063250
11.800000	1	1.066500
11.816667	1	1.070500
11.833333	1	1.075125
11.850000	1	1.079875
11.866667	1	1.085250
11.883333	1	1.090500
11.900000	1	1.095375
11.916667	1	1.099500
11.933333	1	1.102125
11.950000	1	1.104375
11.966667	1	1.105750
11.983333	1	1.105500
12.000000	1	1.104125
12.016667	1	1.102125
12.033333	1	1.100250
12.050000	1	1.097625
12.066667	1	1.095000
12.083333	1	1.093250
12.100000	1	1.090625
12.116667	1	1.088625
12.133333	1	1.087000
12.150000	1	1.085500
12.166667	1	1.084500
12.183333	1	1.084500
12.200000	1	1.084750
12.216667	1	1.086000
12.233333	1	1.088125
12.250000	1	1.091750
12.266667	1	1.097875
12.283333	1	1.106000
12.300000	1	1.116500
12.316667	1	1.131500
12.333333	1	1.151000
12.350000	1	1.178125
12.366667	1	1.214625
12.383333	1	1.263375
12.400000	1	1.328250
12.416667	1	1.412500
12.433333	1	1.521250
12.450000	1	1.658875
12.466667	1	1.830750
12.483333	1	2.042750
12.500000	1	2.300625
12.516667	1	2.608000
12.533333	1	2.967500
12.550000	1	3.382500
12.566667	1	3.853625
12.583333	1	4.380000
12.600000	1	4.957375
12.616667	1	5.578625
12.633333	1	6.235625
12.650000	1	6.917375
12.666667	1	7.613125
12.683333	1	8.309250
12.700000	1	8.993750
12.716667	1	9.655625
12.733333	1	10.286250
12.750000	1	10.882875
12.766667	1	11.443250
12.783333	1	11.972125
12.800000	1	12.476625
12.816667	1	12.964375
12.833333	1	13.446250
12.850000	1	13.932375
12.866667	1	14.431750
12.883333	1	14.952625
12.900000	1	15.499500
12.916667	1	16.077500
12.933333	1	16.688750
12.950000	1	17.332750
12.966667	1	18.009625
12.983333	1	18.718375
13.000000	1	19.456875
13.016667	1	20.222750
13.033333	1	21.015000
13.050000	1	21.832875
13.066667	1	22.674750
13.083333	1	23.540125
13.100000	1	24.428250
13.116667	1	25.337250
13.133333	1	26.266000
13.150000	1	27.212625
13.166667	1	28.179000
13.183333	1	29.164875
13.200000	1	30.169000
13.216667	1	31.191375
13.233333	1	32.233750
13.250000	1	33.295375
13.266667	1	34.377750
13.283333	1	35.481750
13.300000	1	36.605625
13.316667	1	37.752250
13.333333	1	38.918125
13.350000	1	40.106750
13.366667	1	41.317375
13.383333	1	42.550750
13.400000	1	43.806500
13.416667	1	45.085250
13.433333	1	46.388750
13.450000	1	47.719500
13.466667	1	49.078000
13.483333	1	50.464000
13.500000	1	51.877750
13.516667	1	53.320500
13.533333	1	54.793250
13.550000	1	56.295250
13.566667	1	57.827625
13.583333	1	59.390375
13.600000	1	60.981375
13.616667	1	62.603125
13.633333	1	64.258125
13.650000	1	65.948125
13.666667	1	67.673250
13.683333	1	69.435625
13.700000	1	71.234625
13.716667	1	73.070375
13.733333	1	74.943000
13.750000	1	76.851750
13.766667	1	78.789250
13.783333	1	80.714750
13.800000	1	82.523625
13.816667	1	84.029875
13.833333	1	84.990875
13.850000	1	85.164875
13.866667	1	84.354000
13.883333	1	82.379375
13.900000	1	79.034250
13.916667	1	74.092000
13.933333	1	67.440000
13.950000	1	59.267875
13.966667	1	50.182375
13.983333	1	41.071500
14.000000	1	32.767750
14.016667	1	25.761625
14.033333	1	20.172500
14.050000	1	15.862625
14.066667	1	12.602375
14.083333	1	10.163750
14.100000	1	8.355500
14.116667	1	7.024375
14.133333	1	6.049375
14.150000	1	5.334125
14.166667	1	4.805250
14.183333	1	4.410125
14.200000	1	4.109250
14.216667	1	3.875625
14.233333	1	3.690875
14.250000	1	3.539625
14.266667	1	3.413875
14.283333	1	3.306125
14.300000	1	3.213250
14.316667	1	3.131875
14.333333	1	3.059375
14.350000	1	2.995000
14.366667	1	2.937125
14.383333	1	2.886500
14.400000	1	2.843125
14.416667	1	2.807750
14.433333	1	2.783375
14.450000	1	2.771375
14.466667	1	2.775375
14.483333	1	2.801125
14.500000	1	2.856375
14.516667	1	2.951500
14.533333	1	3.098875
14.550000	1	3.317625
14.566667	1	3.629750
14.583333	1	4.063250
14.600000	1	4.654375
14.616667	1	5.446375
14.633333	1	6.491000
14.650000	1	7.844500
14.666667	1	9.566875
14.683333	1	11.720875
14.700000	1	14.360875
14.716667	1	17.532750
14.733333	1	21.262250
14.750000	1	25.551750
14.766667	1	30.368625
14.783333	1	35.640750
14.800000	1	41.258625
14.816667	1	47.078125
14.833333	1	52.913625
14.850000	1	58.549000
14.866667	1	63.746000
14.883333	1	68.266625
14.900000	1	71.886375
14.916667	1	74.422500
14.933333	1	75.745125
14.950000	1	75.788250
14.966667	1	74.557500
14.983333	1	72.135500
15.000000	1	68.659500
15.016667	1	64.314375
15.033333	1	59.319125
15.050000	1	53.906250
15.066667	1	48.307125
15.083333	1	42.731250
15.100000	1	37.353625
15.116667	1	32.313250
15.133333	1	27.702375
15.150000	1	23.574625
15.166667	1	19.949500
15.183333	1	16.819625
15.200000	1	14.153625
15.216667	1	11.909875
15.233333	1	10.040625
15.250000	1	8.498000
15.266667	1	7.234750
15.283333	1	6.206375
15.300000	1	5.375125
15.316667	1	4.705250
15.333333	1	4.168500
15.350000	1	3.740500
15.366667	1	3.400250
15.383333	1	3.133375
15.400000	1	2.923750
15.416667	1	2.760750
15.433333	1	2.636000
15.450000	1	2.542125
15.466667	1	2.473750
15.483333	1	2.423500
15.500000	1	2.387250
15.516667	1	2.362250
15.533333	1	2.342125
15.550000	1	2.324500
15.566667	1	2.307625
15.583333	1	2.288875
15.600000	1	2.265750
15.616667	1	2.238250
15.633333	1	2.206750
15.650000	1	2.170375
15.666667	1	2.131250
15.683333	1	2.089500
15.700000	1	2.046750
15.716667	1	2.004000
15.733333	1	1.961625
15.750000	1	1.921125
15.766667	1	1.882125
15.783333	1	1.845375
15.800000	1	1.810500
15.816667	1	1.776750
15.833333	1	1.744625
15.850000	1	1.713250
15.866667	1	1.682625
15.883333	1	1.652000
15.900000	1	1.621750
15.916667	1	1.593000
15.933333	1	1.565125
15.950000	1	1.539250
15.966667	1	1.516000
15.983333	1	1.495625
16.000000	1	1.477375
16.016667	1	1.462500
16.033333	1	1.450000
16.050000	1	1.440125
16.066667	1	1.433375
16.083333	1	1.427875
16.100000	1	1.423625
16.116667	1	1.421000
16.133333	1	1.419125
16.150000	1	1.416375
16.166667	1	1.413125
16.183333	1	1.408000
16.200000	1	1.401125
16.216667	1	1.392750
16.233333	1	1.382875
16.250000	1	1.370875
16.266667	1	1.356250
16.283333	1	1.340625
16.300000	1	1.324125
16.316667	1	1.305875
16.333333	1	1.287750
16.350000	1	1.268625
16.366667	1	1.249750
16.383333	1	1.230625
16.400000	1	1.213000
16.416667	1	1.196000
16.433333	1	1.179750
16.450000	1	1.165125
16.466667	1	1.152875
16.483333	1	1.141500
16.500000	1	1.132875
16.516667	1	1.126875
16.533333	1	1.123000
16.550000	1	1.121875
16.566667	1	1.122750
16.583333	1	1.125500
16.600000	1	1.130250
16.616667	1	1.136750
16.633333	1	1.143875
16.650000	1	1.151250
16.666667	1	1.159000
16.683333	1	1.166750
16.700000	1	1.173750
16.716667	1	1.180000
16.733333	1	1.184250
16.750000	1	1.188250
16.766667	1	1.191125
16.783333	1	1.194125
16.800000	1	1.197375
16.816667	1	1.200000
16.833333	1	1.202500
16.850000	1	1.206375
16.866667	1	1.209750
16.883333	1	1.213125
16.900000	1	1.216250
16.916667	1	1.219375
16.933333	1	1.222500
16.950000	1	1.224375
16.966667	1	1.225750
16.983333	1	1.226000
17.000000	1	1.224500
17.016667	1	1.222500
17.033333	1	1.219125
17.050000	1	1.214625
17.066667	1	1.210000
17.083333	1	1.204500
17.100000	1	1.198250
17.116667	1	1.191500
17.133333	1	1.186125
17.150000	1	1.180875
17.166667	1	1.176375
17.183333	1	1.172875
17.200000	1	1.170250
17.216667	1	1.167625
17.233333	1	1.166250
17.250000	1	1.165625
17.266667	1	1.165625
17.283333	1	1.165875
17.300000	1	1.166500
17.316667	1	1.167500
17.333333	1	1.169500
17.350000	1	1.171500
17.366667	1	1.174000
17.383333	1	1.175750
17.400000	1	1.177125
17.416667	1	1.179375
17.433333	1	1.181000
17.450000	1	1.181875
17.466667	1	1.181750
17.483333	1	1.181375
17.500000	1	1.179500
17.516667	1	1.176500
17.533333	1	1.171875
17.550000	1	1.166750
17.566667	1	1.159125
17.583333	1	1.150125
17.600000	1	1.141000
17.616667	1	1.129500
17.633333	1	1.116750
17.650000	1	1.102875
17.666667	1	1.088625
17.683333	1	1.073375
17.700000	1	1.058125
17.716667	1	1.042375
17.733333	1	1.026375
17.750000	1	1.010875
17.766667	1	0.996500
17.783333	1	0.982625
17.800000	1	0.969125
17.816667	1	0.956250
17.833333	1	0.944125
17.850000	1	0.932875
17.866667	1	0.922375
17.883333	1	0.913125
17.900000	1	0.904625
17.916667	1	0.897000
17.933333	1	0.890125
17.950000	1	0.883875
17.966667	1	0.878000
17.983333	1	0.872750
18.000000	1	0.867125
18.016667	1	0.862625
18.033333	1	0.857875
18.050000	1	0.853500
18.066667	1	0.848750
18.083333	1	0.844250
18.100000	1	0.839875
18.116667	1	0.835000
18.133333	1	0.830625
18.150000	1	0.825625
18.166667	1	0.820500
18.183333	1	0.816250
18.200000	1	0.811500
18.216667	1	0.807250
18.233333	1	0.803000
18.250000	1	0.799125
18.266667	1	0.796000
18.283333	1	0.793250
18.300000	1	0.790875
18.316667	1	0.788000
18.333333	1	0.785625
18.350000	1	0.784125
18.366667	1	0.782625
18.383333	1	0.780875
18.400000	1	0.779875
18.416667	1	0.779500
18.433333	1	0.778750
18.450000	1	0.778875
18.466667	1	0.779250
18.483333	1	0.781250
18.500000	1	0.784375
18.516667	1	0.788125
18.533333	1	0.793750
18.550000	1	0.801000
18.566667	1	0.810750
18.583333	1	0.822125
18.600000	1	0.835500
18.616667	1	0.851000
18.633333	1	0.869750
18.650000	1	0.890750
18.666667	1	0.914125
18.683333	1	0.939375
18.700000	1	0.967375
18.716667	1	0.997500
18.733333	1	1.029500
18.750000	1	1.062875
18.766667	1	1.098125
18.783333	1	1.134000
18.800000	1	1.170500
18.816667	1	1.207375
18.833333	1	1.243000
18.850000	1	1.278000
18.866667	1	1.310250
18.883333	1	1.340000
18.900000	1	1.366500
18.916667	1	1.388250
18.933333	1	1.406125
18.950000	1	1.417500
18.966667	1	1.422750
18.983333	1	1.422000
19.000000	1	1.414125
19.016667	1	1.399750
19.033333	1	1.378625
19.050000	1	1.351125
19.066667	1	1.318625
19.083333	1	1.281000
19.100000	1	1.239125
19.116667	1	1.195375
19.133333	1	1.151250
19.150000	1	1.107125
19.166667	1	1.064125
19.183333	1	1.025000
19.200000	1	0.990500
19.216667	1	0.962250
19.233333	1	0.941000
19.250000	1	0.928250
19.266667	1	0.925250
19.283333	1	0.934375
19.300000	1	0.954875
19.316667	1	0.988500
19.333333	1	1.036875
19.350000	1	1.101125
19.366667	1	1.181375
19.383333	1	1.277500
19.400000	1	1.390875
19.416667	1	1.519875
19.433333	1	1.663625
19.450000	1	1.820375
19.466667	1	1.990125
19.483333	1	2.168250
19.500000	1	2.352000
19.516667	1	2.537000
19.533333	1	2.719125
19.550000	1	2.894625
19.566667	1	3.055750
19.583333	1	3.199875
19.600000	1	3.320750
19.616667	1	3.416000
19.633333	1	3.481500
19.650000	1	3.514875
19.666667	1	3.515375
19.683333	1	3.483250
19.700000	1	3.419750
19.716667	1	3.328500
19.733333	1	3.211500
19.750000	1	3.074375
19.766667	1	2.919000
19.783333	1	2.752250
19.800000	1	2.577625
19.816667	1	2.400750
19.833333	1	2.224250
19.850000	1	2.052000
19.866667	1	1.886875
19.883333	1	1.730500
19.900000	1	1.584625
19.916667	1	1.450625
19.933333	1	1.328375
19.950000	1	1.217375
19.966667	1	1.117500
19.983333	1	1.028000
20.000000	1	0.949375
20.016667	1	0.880000
20.033333	1	0.819375
20.050000	1	0.767250
20.066667	1	0.723375
20.083333	1	0.685500
20.100000	1	0.654375
20.116667	1	0.629250
20.133333	1	0.609750
20.150000	1	0.595250
20.166667	1	0.584250
20.183333	1	0.577750
20.200000	1	0.574625
20.216667	1	0.574375
20.233333	1	0.577125
20.250000	1	0.582250
20.266667	1	0.588375
20.283333	1	0.595125
20.300000	1	0.602875
20.316667	1	0.611250
20.333333	1	0.618750
20.350000	1	0.625500
20.366667	1	0.630250
20.383333	1	0.634375
20.400000	1	0.636000
20.416667	1	0.636375
20.433333	1	0.634500
20.450000	1	0.630875
20.466667	1	0.627500
20.483333	1	0.623250
20.500000	1	0.619375
20.516667	1	0.616125
20.533333	1	0.615500
20.550000	1	0.618000
20.566667	1	0.624000
20.583333	1	0.634625
20.600000	1	0.650375
20.616667	1	0.672375
20.633333	1	0.701500
20.650000	1	0.737125
20.666667	1	0.780500
20.683333	1	0.830625
20.700000	1	0.887375
20.716667	1	0.950250
20.733333	1	1.019125
20.750000	1	1.092250
20.766667	1	1.167375
20.783333	1	1.243250
20.800000	1	1.319125
20.816667	1	1.391500
20.833333	1	1.459125
20.850000	1	1.518125
20.866667	1	1.567750
20.883333	1	1.605875
20.900000	1	1.632125
20.916667	1	1.644625
20.933333	1	1.643250
20.950000	1	1.628125
20.966667	1	1.599375
20.983333	1	1.559250
21.000000	1	1.508125
21.016667	1	1.447875
21.033333	1	1.380625
21.050000	1	1.308125
21.066667	1	1.233750
21.083333	1	1.158625
21.100000	1	1.083750
21.116667	1	1.011375
21.133333	1	0.942625
21.150000	1	0.877875
21.166667	1	0.818625
21.183333	1	0.763250
21.200000	1	0.712750
21.216667	1	0.668000
21.233333	1	0.628250
21.250000	1	0.593250
21.266667	1	0.562000
21.283333	1	0.534625
21.300000	1	0.511000
21.316667	1	0.490250
21.333333	1	0.472125
21.350000	1	0.456125
21.366667	1	0.442250
21.383333	1	0.429375
21.400000	1	0.418375
21.416667	1	0.409000
21.433333	1	0.399875
21.450000	1	0.391875
21.466667	1	0.384500
21.483333	1	0.376875
21.500000	1	0.369750
21.516667	1	0.363750
21.533333	1	0.358375
21.550000	1	0.353625
21.566667	1	0.349250
21.583333	1	0.345375
21.600000	1	0.342500
21.616667	1	0.340375
21.633333	1	0.338125
21.650000	1	0.336875
21.666667	1	0.336875
21.683333	1	0.337250
21.700000	1	0.338750
21.716667	1	0.341500
21.733333	1	0.344375
21.750000	1	0.348375
21.766667	1	0.353000
21.783333	1	0.359250
21.800000	1	0.366750
21.816667	1	0.374000
21.833333	1	0.381625
21.850000	1	0.390875
21.866667	1	0.400625
21.883333	1	0.410500
21.900000	1	0.421125
21.916667	1	0.432000
21.933333	1	0.442750
21.950000	1	0.453375
21.966667	1	0.464125
21.983333	1	0.474750
22.000000	1	0.485625
22.016667	1	0.496000
22.033333	1	0.505625
22.050000	1	0.514500
22.066667	1	0.523375
22.083333	1	0.531625
22.100000	1	0.538625
22.116667	1	0.544125
22.133333	1	0.549375
22.150000	1	0.554125
22.166667	1	0.557500
22.183333	1	0.559875
22.200000	1	0.560500
22.216667	1	0.559750
22.233333	1	0.557125
22.250000	1	0.553875
22.266667	1	0.549750
22.283333	1	0.544000
22.300000	1	0.537000
22.316667	1	0.529375
22.333333	1	0.520125
22.350000	1	0.510125
22.366667	1	0.499500
22.383333	1	0.488125
22.400000	1	0.476750
22.416667	1	0.464500
22.433333	1	0.452500
22.450000	1	0.440625
22.466667	1	0.429500
22.483333	1	0.418000
22.500000	1	0.407125
22.516667	1	0.396875
22.533333	1	0.386750
22.550000	1	0.377375
22.566667	1	0.368625
22.583333	1	0.360000
22.600000	1	0.351750
22.616667	1	0.343250
22.633333	1	0.336250
22.650000	1	0.329625
22.666667	1	0.323250
22.683333	1	0.316625
22.700000	1	0.310000
22.716667	1	0.304500
22.733333	1	0.298250
22.750000	1	0.292250
22.766667	1	0.286250
22.783333	1	0.280750
22.800000	1	0.275625
22.816667	1	0.269875
22.833333	1	0.263625
22.850000	1	0.257500
22.866667	1	0.251875
22.883333	1	0.247125
22.900000	1	0.242250
22.916667	1	0.237250
22.933333	1	0.232750
22.950000	1	0.227375
22.966667	1	0.223375
22.983333	1	0.219750
23.000000	1	0.215625
23.016667	1	0.212250
23.033333	1	0.210000
23.050000	1	0.207500
23.066667	1	0.205000
23.083333	1	0.202875
23.100000	1	0.201375
23.116667	1	0.200750
23.133333	1	0.200125
23.150000	1	0.200125
23.166667	1	0.199750
23.183333	1	0.200250
23.200000	1	0.201250
23.216667	1	0.202125
23.233333	1	0.204125
23.250000	1	0.207250
23.266667	1	0.211750
23.283333	1	0.216500
23.300000	1	0.222875
23.316667	1	0.230875
23.333333	1	0.241125
23.350000	1	0.255250
23.366667	1	0.273125
23.383333	1	0.294375
23.400000	1	0.321125
23.416667	1	0.354125
23.433333	1	0.394125
23.450000	1	0.442000
23.466667	1	0.499750
23.483333	1	0.568125
23.500000	1	0.648125
23.516667	1	0.741250
23.533333	1	0.848750
23.550000	1	0.971500
23.566667	1	1.111375
23.583333	1	1.269125
23.600000	1	1.445250
23.616667	1	1.639750
23.633333	1	1.852250
23.650000	1	2.082875
23.666667	1	2.330375
23.683333	1	2.592750
23.700000	1	2.868875
23.716667	1	3.154625
23.733333	1	3.446125
23.750000	1	3.739625
23.766667	1	4.030125
23.783333	1	4.312375
23.800000	1	4.579500
23.816667	1	4.827625
23.833333	1	5.050000
23.850000	1	5.242125
23.866667	1	5.399750
23.883333	1	5.519125
23.900000	1	5.597000
23.916667	1	5.631750
23.933333	1	5.623375
23.950000	1	5.572000
23.966667	1	5.480125
23.983333	1	5.349000
24.000000	1	5.183375
24.016667	1	4.987000
24.033333	1	4.765875
24.050000	1	4.525125
24.066667	1	4.269875
24.083333	1	4.005625
24.100000	1	3.736250
24.116667	1	3.465750
24.133333	1	3.199375
24.150000	1	2.940500
24.166667	1	2.692750
24.183333	1	2.457750
24.200000	1	2.236375
24.216667	1	2.030375
24.233333	1	1.840000
24.250000	1	1.666000
24.266667	1	1.508250
24.283333	1	1.366875
24.300000	1	1.239500
24.316667	1	1.125375
24.333333	1	1.025250
24.350000	1	0.936625
24.366667	1	0.859375
24.383333	1	0.791625
24.400000	1	0.733750
24.416667	1	0.683250
24.433333	1	0.640875
24.450000	1	0.604125
24.466667	1	0.573000
24.483333	1	0.546750
24.500000	1	0.524875
24.516667	1	0.506875
24.533333	1	0.491750
24.550000	1	0.479000
24.566667	1	0.467875
24.583333	1	0.457750
24.600000	1	0.449500
24.616667	1	0.441750
24.633333	1	0.434750
24.650000	1	0.428500
24.666667	1	0.423375
24.683333	1	0.417375
24.700000	1	0.411750
24.716667	1	0.407125
24.733333	1	0.401875
24.750000	1	0.397000
24.766667	1	0.392000
24.783333	1	0.387000
24.800000	1	0.381625
24.816667	1	0.377000
24.833333	1	0.372375
24.850000	1	0.368500
24.866667	1	0.364000
24.883333	1	0.360375
24.900000	1	0.356875
24.916667	1	0.353250
24.933333	1	0.349750
24.950000	1	0.346375
24.966667	1	0.343750
24.983333	1	0.342125
25.000000	1	0.339375
25.016667	1	0.337000
25.033333	1	0.335250
25.050000	1	0.333750
25.066667	1	0.331875
25.083333	1	0.330375
25.100000	1	0.328500
25.116667	1	0.327250
25.133333	1	0.326125
25.150000	1	0.324750
25.166667	1	0.323875
25.183333	1	0.323000
25.200000	1	0.321625
25.216667	1	0.320625
25.233333	1	0.320250
25.250000	1	0.319125
25.266667	1	0.318875
25.283333	1	0.318125
25.300000	1	0.317000
25.316667	1	0.315500
25.333333	1	0.314500
25.350000	1	0.314000
25.366667	1	0.313250
25.383333	1	0.312000
25.400000	1	0.311375
25.416667	1	0.310625
25.433333	1	0.310250
25.450000	1	0.310000
25.466667	1	0.309250
25.483333	1	0.308000
25.500000	1	0.308000
25.516667	1	0.307625
25.533333	1	0.307000
25.550000	1	0.306000
25.566667	1	0.305125
25.583333	1	0.304500
25.600000	1	0.303750
25.616667	1	0.303375
25.633333	1	0.303250
25.650000	1	0.303125
25.666667	1	0.302625
25.683333	1	0.302875
25.700000	1	0.302625
25.716667	1	0.302375
25.733333	1	0.302625
25.750000	1	0.302500
25.766667	1	0.302250
25.783333	1	0.302375
25.800000	1	0.302750
25.816667	1	0.303000
25.833333	1	0.303125
25.850000	1	0.304500
25.866667	1	0.305750
25.883333	1	0.307625
25.900000	1	0.309500
25.916667	1	0.311375
25.933333	1	0.313250
25.950000	1	0.315750
25.966667	1	0.317875
25.983333	1	0.320750
26.000000	1	0.323125
26.016667	1	0.325625
26.033333	1	0.328375
26.050000	1	0.331375
26.066667	1	0.334500
26.083333	1	0.337125
26.100000	1	0.339375
26.116667	1	0.341375
26.133333	1	0.343375
26.150000	1	0.344375
26.166667	1	0.345625
26.183333	1	0.346250
26.200000	1	0.346375
26.216667	1	0.346250
26.233333	1	0.346500
26.250000	1	0.345750
26.266667	1	0.344000
26.283333	1	0.341750
26.300000	1	0.339500
26.316667	1	0.336000
26.333333	1	0.331500
26.350000	1	0.327000
26.366667	1	0.322750
26.383333	1	0.317500
26.400000	1	0.311625
26.416667	1	0.304875
26.433333	1	0.298375
26.450000	1	0.292250
26.466667	1	0.284750
26.483333	1	0.277750
26.500000	1	0.270500
26.516667	1	0.263125
26.533333	1	0.255625
26.550000	1	0.248000
26.566667	1	0.240750
26.583333	1	0.234250
26.600000	1	0.227125
26.616667	1	0.220750
26.633333	1	0.214250
26.650000	1	0.208250
26.666667	1	0.203125
26.683333	1	0.198375
26.700000	1	0.193750
26.716667	1	0.189250
26.733333	1	0.185125
26.750000	1	0.181625
26.766667	1	0.178250
26.783333	1	0.175875
26.800000	1	0.174375
26.816667	1	0.172500
26.833333	1	0.172500
26.850000	1	0.171750
26.866667	1	0.172000
26.883333	1	0.171750
26.900000	1	0.172250
26.916667	1	0.173625
26.933333	1	0.175250
26.950000	1	0.177500
26.966667	1	0.179750
26.983333	1	0.182625
27.000000	1	0.185625
27.016667	1	0.188750
27.033333	1	0.192750
27.050000	1	0.197500
27.066667	1	0.203125
27.083333	1	0.209000
27.100000	1	0.215875
27.116667	1	0.223500
27.133333	1	0.232125
27.150000	1	0.242625
27.166667	1	0.253875
27.183333	1	0.266875
27.200000	1	0.281625
27.216667	1	0.298500
27.233333	1	0.317375
27.250000	1	0.339375
27.266667	1	0.365250
27.283333	1	0.394500
27.300000	1	0.427375
27.316667	1	0.465375
27.333333	1	0.507750
27.350000	1	0.556000
27.366667	1	0.609875
27.383333	1	0.670875
27.400000	1	0.737625
27.416667	1	0.812875
27.433333	1	0.895875
27.450000	1	0.987750
27.466667	1	1.089000
27.483333	1	1.199750
27.500000	1	1.319875
27.516667	1	1.449375
27.533333	1	1.588000
27.550000	1	1.735750
27.566667	1	1.892500
27.583333	1	2.057375
27.600000	1	2.228875
27.616667	1	2.407000
27.633333	1	2.590000
27.650000	1	2.776000
27.666667	1	2.963125
27.683333	1	3.149125
27.700000	1	3.332125
27.716667	1	3.509750
27.733333	1	3.678250
27.750000	1	3.836375
27.766667	1	3.980125
27.783333	1	4.108375
27.800000	1	4.218000
27.816667	1	4.307375
27.833333	1	4.374125
27.850000	1	4.417500
27.866667	1	4.435500
27.883333	1	4.427625
27.900000	1	4.394375
27.916667	1	4.336000
27.933333	1	4.253125
27.950000	1	4.147250
27.966667	1	4.020125
27.983333	1	3.874375
28.000000	1	3.712000
28.016667	1	3.536500
28.033333	1	3.350875
28.050000	1	3.157250
28.066667	1	2.957750
28.083333	1	2.756125
28.100000	1	2.556500
28.116667	1	2.359375
28.133333	1	2.168500
28.150000	1	1.984625
28.166667	1	1.809625
28.183333	1	1.644250
28.200000	1	1.489750
28.216667	1	1.346750
28.233333	1	1.214750
28.250000	1	1.094500
28.266667	1	0.985375
28.283333	1	0.887375
28.300000	1	0.800375
28.316667	1	0.722750
28.333333	1	0.654625
28.350000	1	0.595875
28.366667	1	0.545250
28.383333	1	0.502125
28.400000	1	0.465625
28.416667	1	0.434625
28.433333	1	0.409125
28.450000	1	0.390250
28.466667	1	0.375250
28.483333	1	0.363875
28.500000	1	0.356250
28.516667	1	0.352000
28.533333	1	0.349875
28.550000	1	0.350000
28.566667	1	0.352875
28.583333	1	0.357500
28.600000	1	0.363125
28.616667	1	0.370875
28.633333	1	0.379000
28.650000	1	0.388500
28.666667	1	0.398250
28.683333	1	0.408625
28.700000	1	0.418500
28.716667	1	0.429000
28.733333	1	0.438500
28.750000	1	0.448500
28.766667	1	0.458000
28.783333	1	0.465125
28.800000	1	0.472875
28.816667	1	0.479875
28.833333	1	0.485875
28.850000	1	0.491125
28.866667	1	0.495125
28.883333	1	0.498125
28.900000	1	0.500250
28.916667	1	0.501125
28.933333	1	0.500375
28.950000	1	0.499875
28.966667	1	0.497375
28.983333	1	0.493625
29.000000	1	0.489625
29.016667	1	0.484125
29.033333	1	0.478000
29.050000	1	0.471250
29.066667	1	0.463625
29.083333	1	0.455625
29.100000	1	0.446875
29.116667	1	0.437625
29.133333	1	0.427000
29.150000	1	0.416500
29.166667	1	0.406000
29.183333	1	0.396250
29.200000	1	0.386375
29.216667	1	0.375875
29.233333	1	0.365125
29.250000	1	0.354625
29.266667	1	0.344375
29.283333	1	0.334125
29.300000	1	0.323500
29.316667	1	0.312750
29.333333	1	0.302750
29.350000	1	0.293625
29.366667	1	0.284500
29.383333	1	0.275625
29.400000	1	0.267125
29.416667	1	0.258875
29.433333	1	0.250875
29.450000	1	0.243750
29.466667	1	0.237250
29.483333	1	0.229250
29.500000	1	0.222375
29.516667	1	0.216125
29.533333	1	0.210625
29.550000	1	0.204875
29.566667	1	0.199500
29.583333	1	0.194000
29.600000	1	0.188875
29.616667	1	0.183875
29.633333	1	0.179750
29.650000	1	0.176000
29.666667	1	0.171875
29.683333	1	0.168250
29.700000	1	0.164125
29.716667	1	0.160625
29.733333	1	0.157125
29.750000	1	0.153250
29.766667	1	0.150000
29.783333	1	0.148125
29.800000	1	0.146000
29.816667	1	0.143875
29.833333	1	0.141625
29.850000	1	0.139750
29.866667	1	0.137875
29.883333	1	0.136000
29.900000	1	0.134000
29.916667	1	0.132875
29.933333	1	0.131500
29.950000	1	0.130250
29.966667	1	0.128750
29.983333	1	0.126750
30.000000	1	0.125375
30.016667	1	0.123625
30.033333	1	0.121875
30.050000	1	0.120875
30.066667	1	0.119875
30.083333	1	0.118625
30.100000	1	0.116750
30.116667	1	0.115375
30.133333	1	0.113875
30.150000	1	0.112625
30.166667	1	0.111125
30.183333	1	0.108625
30.200000	1	0.107125
30.216667	1	0.105625
30.233333	1	0.104750
30.250000	1	0.102875
30.266667	1	0.101500
30.283333	1	0.099625
30.300000	1	0.098375
30.316667	1	0.096875
30.333333	1	0.096125
30.350000	1	0.094875
30.366667	1	0.095000
30.383333	1	0.094000
30.400000	1	0.093750
30.416667	1	0.094000
30.433333	1	0.094875
30.450000	1	0.095375
30.466667	1	0.097125
30.483333	1	0.098875
30.500000	1	0.100500
30.516667	1	0.102750
30.533333	1	0.105500
30.550000	1	0.108875
30.566667	1	0.112000
30.583333	1	0.116250
30.600000	1	0.120875
30.616667	1	0.126250
30.633333	1	0.132000
30.650000	1	0.137750
30.666667	1	0.145000
30.683333	1	0.152500
30.700000	1	0.160625
30.716667	1	0.169375
30.733333	1	0.179625
30.750000	1	0.190500
30.766667	1	0.202250
30.783333	1	0.215375
30.800000	1	0.229875
30.816667	1	0.245375
30.833333	1	0.262375
30.850000	1	0.281000
30.866667	1	0.300875
30.883333	1	0.323250
30.900000	1	0.348750
30.916667	1	0.376250
30.933333	1	0.405875
30.950000	1	0.439125
30.966667	1	0.475500
30.983333	1	0.516500
31.000000	1	0.561500
31.016667	1	0.610625
31.033333	1	0.664375
31.050000	1	0.723250
31.066667	1	0.787000
31.083333	1	0.856750
31.100000	1	0.931125
31.116667	1	1.012125
31.133333	1	1.098250
31.150000	1	1.190375
31.166667	1	1.287375
31.183333	1	1.389750
31.200000	1	1.497000
31.216667	1	1.608625
31.233333	1	1.724000
31.250000	1	1.841625
31.266667	1	1.961125
31.283333	1	2.081250
31.300000	1	2.201375
31.316667	1	2.319500
31.333333	1	2.434625
31.350000	1	2.545250
31.366667	1	2.650500
31.383333	1	2.748625
31.400000	1	2.838500
31.416667	1	2.918750
31.433333	1	2.988250
31.450000	1	3.046500
31.466667	1	3.092000
31.483333	1	3.124250
31.500000	1	3.143000
31.516667	1	3.147750
31.533333	1	3.138375
31.550000	1	3.115625
31.566667	1	3.079250
31.583333	1	3.030500
31.600000	1	2.969250
31.616667	1	2.896625
31.633333	1	2.813250
31.650000	1	2.721500
31.666667	1	2.622375
31.683333	1	2.515625
31.700000	1	2.404500
31.716667	1	2.289500
31.733333	1	2.171625
31.750000	1	2.052625
31.766667	1	1.933875
31.783333	1	1.815000
31.800000	1	1.698500
31.816667	1	1.583750
31.833333	1	1.472500
31.850000	1	1.364875
31.866667	1	1.262250
31.883333	1	1.164375
31.900000	1	1.071250
31.916667	1	0.983625
31.933333	1	0.901000
31.950000	1	0.824000
31.966667	1	0.752375
31.983333	1	0.685500
32.000000	1	0.624125
32.016667	1	0.566875
32.033333	1	0.514625
32.050000	1	0.466250
32.066667	1	0.421875
32.083333	1	0.382000
32.100000	1	0.345375
32.116667	1	0.312000
32.133333	1	0.281000
32.150000	1	0.253000
32.166667	1	0.227500
32.183333	1	0.204000
32.200000	1	0.183375
32.216667	1	0.164500
32.233333	1	0.147375
32.250000	1	0.131750
32.266667	1	0.117250
32.283333	1	0.104125
32.300000	1	0.092875
32.316667	1	0.082500
32.333333	1	0.072625
32.350000	1	0.063625
32.366667	1	0.056125
32.383333	1	0.049125
32.400000	1	0.042875
32.416667	1	0.037125
32.433333	1	0.032750
32.450000	1	0.028250
32.466667	1	0.024250
32.483333	1	0.020750
32.500000	1	0.017250
32.516667	1	0.013750
32.533333	1	0.011500
32.550000	1	0.009625
32.566667	1	0.007750
32.583333	1	0.006875
32.600000	1	0.005250
32.616667	1	0.004375
32.633333	1	0.003000
32.650000	1	0.001875
32.666667	1	0.000375
32.683333	1	-0.001375
32.700000	1	-0.002625
32.716667	1	-0.003750
32.733333	1	-0.005625
32.750000	1	-0.007250
32.766667	1	-0.008875
32.783333	1	-0.010750
32.800000	1	-0.012875
32.816667	1	-0.014125
32.833333	1	-0.016250
32.850000	1	-0.019250
32.866667	1	-0.021500
32.883333	1	-0.024875
32.900000	1	-0.027250
32.916667	1	-0.029375
32.933333	1	-0.032000
32.950000	1	-0.034500
32.966667	1	-0.036750
32.983333	1	-0.038875
33.000000	1	-0.041250
33.016667	1	-0.043625
33.033333	1	-0.045750
33.050000	1	-0.048000
33.066667	1	-0.050375
33.083333	1	-0.051750
33.100000	1	-0.053875
33.116667	1	-0.055500
33.133333	1	-0.057000
33.150000	1	-0.058375
33.166667	1	-0.059500
33.183333	1	-0.061125
33.200000	1	-0.061875
33.216667	1	-0.063500
33.233333	1	-0.063875
33.250000	1	-0.065000
33.266667	1	-0.065625
33.283333	1	-0.066500
33.300000	1	-0.067375
33.316667	1	-0.066750
33.333333	1	-0.066250
33.350000	1	-0.065375
33.366667	1	-0.064375
33.383333	1	-0.064125
33.400000	1	-0.063000
33.416667	1	-0.061500
33.433333	1	-0.059375
33.450000	1	-0.057625
33.466667	1	-0.055000
33.483333	1	-0.052375
33.500000	1	-0.049375
33.516667	1	-0.046125
33.533333	1	-0.042125
33.550000	1	-0.037500
33.566667	1	-0.032625
33.583333	1	-0.027750
33.600000	1	-0.022500
33.616667	1	-0.017000
33.633333	1	-0.011375
33.650000	1	-0.006250
33.666667	1	-0.000625
33.683333	1	0.004500
33.700000	1	0.009875
33.716667	1	0.015500
33.733333	1	0.021250
33.750000	1	0.028000
33.766667	1	0.033375
33.783333	1	0.038500
33.800000	1	0.044125
33.816667	1	0.049375
33.833333	1	0.054125
33.850000	1	0.058125
33.866667	1	0.062250
33.883333	1	0.066250
33.900000	1	0.069875
33.916667	1	0.073750
33.933333	1	0.077125
33.950000	1	0.080500
33.966667	1	0.083750
33.983333	1	0.086500
34.000000	1	0.088875
34.016667	1	0.091500
34.033333	1	0.092875
34.050000	1	0.094625
34.066667	1	0.095875
34.083333	1	0.097500
34.100000	1	0.099125
34.116667	1	0.100375
34.133333	1	0.101250
34.150000	1	0.102250
34.166667	1	0.102625
34.183333	1	0.103000
34.200000	1	0.104125
34.216667	1	0.105500
34.233333	1	0.106000
34.250000	1	0.106375
34.266667	1	0.107250
34.283333	1	0.108750
34.300000	1	0.109375
34.316667	1	0.110500
34.333333	1	0.111500
34.350000	1	0.113250
34.366667	1	0.114500
34.383333	1	0.115875
34.400000	1	0.117000
34.416667	1	0.118500
34.433333	1	0.120000
34.450000	1	0.122125
34.466667	1	0.124125
34.483333	1	0.125375
34.500000	1	0.127125
34.516667	1	0.129375
34.533333	1	0.132000
34.550000	1	0.134500
34.566667	1	0.137000
34.583333	1	0.138750
34.600000	1	0.140625
34.616667	1	0.142250
34.633333	1	0.143750
34.650000	1	0.145125
34.666667	1	0.145625
34.683333	1	0.146625
34.700000	1	0.146875
34.716667	1	0.147500
34.733333	1	0.147125
34.750000	1	0.146500
34.766667	1	0.146500
34.783333	1	0.145500
34.800000	1	0.143625
34.816667	1	0.141500
34.833333	1	0.139125
34.850000	1	0.136250
34.866667	1	0.133750
34.883333	1	0.130375
34.900000	1	0.126375
34.916667	1	0.122625
34.933333	1	0.118750
34.950000	1	0.114750
34.966667	1	0.111250
34.983333	1	0.107000
35.000000	1	0.103500
35.016667	1	0.099750
35.033333	1	0.096250
35.050000	1	0.093125
35.066667	1	0.089750
35.083333	1	0.086500
35.100000	1	0.084500
35.116667	1	0.081625
35.133333	1	0.079500
35.150000	1	0.078500
35.166667	1	0.076375
35.183333	1	0.075500
35.200000	1	0.073750
35.216667	1	0.073500
35.233333	1	0.073500
35.250000	1	0.074000
35.266667	1	0.074500
35.283333	1	0.075000
35.300000	1	0.076750
35.316667	1	0.078000
35.333333	1	0.078750
35.350000	1	0.080250
35.366667	1	0.082125
35.383333	1	0.083500
35.400000	1	0.084750
35.416667	1	0.086500
35.433333	1	0.088000
35.450000	1	0.089125
35.466667	1	0.091125
35.483333	1	0.093125
35.500000	1	0.094750
35.516667	1	0.096000
35.533333	1	0.096875
35.550000	1	0.097750
35.566667	1	0.098625
35.583333	1	0.098625
35.600000	1	0.098375
35.616667	1	0.098375
35.633333	1	0.097250
35.650000	1	0.096250
35.666667	1	0.094375
35.683333	1	0.092000
35.700000	1	0.089750
35.716667	1	0.087625
35.733333	1	0.085750
35.750000	1	0.082875
35.766667	1	0.080750
35.783333	1	0.078375
35.800000	1	0.075375
35.816667	1	0.071500
35.833333	1	0.068625
35.850000	1	0.065750
35.866667	1	0.063375
35.883333	1	0.060500
35.900000	1	0.058500
35.916667	1	0.056875
35.933333	1	0.055875
35.950000	1	0.054000
35.966667	1	0.052250
35.983333	1	0.051375
36.000000	1	0.051125
36.016667	1	0.051125
36.033333	1	0.051625
36.050000	1	0.052250
36.066667	1	0.052750
36.083333	1	0.053250
36.100000	1	0.053625
36.116667	1	0.055000
36.133333	1	0.056375
36.150000	1	0.057750
36.166667	1	0.059625
36.183333	1	0.062000
36.200000	1	0.064125
36.216667	1	0.065750
36.233333	1	0.067750
36.250000	1	0.069625
36.266667	1	0.071625
36.283333	1	0.072750
36.300000	1	0.073750
36.316667	1	0.075000
36.333333	1	0.076125
36.350000	1	0.077500
36.366667	1	0.077875
36.383333	1	0.078000
36.400000	1	0.078125
36.416667	1	0.078375
36.433333	1	0.077250
36.450000	1	0.076250
36.466667	1	0.075000
36.483333	1	0.073375
36.500000	1	0.071500
36.516667	1	0.070375
36.533333	1	0.069375
36.550000	1	0.067000
36.566667	1	0.064750
36.583333	1	0.062000
36.600000	1	0.058750
36.616667	1	0.055625
36.633333	1	0.052500
36.650000	1	0.049500
36.666667	1	0.045750
36.683333	1	0.042500
36.700000	1	0.038625
36.716667	1	0.035375
36.733333	1	0.031500
36.750000	1	0.028250
36.766667	1	0.024875
36.783333	1	0.020875
36.800000	1	0.016500
36.816667	1	0.012750
36.833333	1	0.008875
36.850000	1	0.005250
36.866667	1	0.001500
36.883333	1	-0.002625
36.900000	1	-0.006125
36.916667	1	-0.009125
36.933333	1	-0.011375
36.950000	1	-0.014625
36.966667	1	-0.017750
36.983333	1	-0.020500
37.000000	1	-0.022625
37.016667	1	-0.025500
37.033333	1	-0.027000
37.050000	1	-0.028250
37.066667	1	-0.029875
37.083333	1	-0.030625
37.100000	1	-0.030625
37.116667	1	-0.030625
37.133333	1	-0.030375
37.150000	1	-0.029250
37.166667	1	-0.028125
37.183333	1	-0.026625
37.200000	1	-0.024750
37.216667	1	-0.022500
37.233333	1	-0.019625
37.250000	1	-0.017125
37.266667	1	-0.013750
37.283333	1	-0.010250
37.300000	1	-0.006375
37.316667	1	-0.003000
37.333333	1	0.000500
37.350000	1	0.004500
37.366667	1	0.008625
37.383333	1	0.012000
37.400000	1	0.016500
37.416667	1	0.020125
37.433333	1	0.023250
37.450000	1	0.026875
37.466667	1	0.029875
37.483333	1	0.033375
37.500000	1	0.036125
37.516667	1	0.038625
37.533333	1	0.041375
37.550000	1	0.043500
37.566667	1	0.045000
37.583333	1	0.046375
37.600000	1	0.047000
37.616667	1	0.048125
37.633333	1	0.048875
37.650000	1	0.049625
37.666667	1	0.049750
37.683333	1	0.050250
37.700000	1	0.050000
37.716667	1	0.050250
37.733333	1	0.049500
37.750000	1	0.049125
37.766667	1	0.049125
37.783333	1	0.048250
37.800000	1	0.047250
37.816667	1	0.046250
37.833333	1	0.044750
37.850000	1	0.044375
37.866667	1	0.043000
37.883333	1	0.041875
37.900000	1	0.041250
37.916667	1	0.040250
37.933333	1	0.039375
37.950000	1	0.038875
37.966667	1	0.037500
37.983333	1	0.036250
38.000000	1	0.035625
38.016667	1	0.035375
38.033333	1	0.034750
38.050000	1	0.034125
38.066667	1	0.033375
38.083333	1	0.033000
38.100000	1	0.032750
38.116667	1	0.032750
38.133333	1	0.033000
38.150000	1	0.033375
38.166667	1	0.034500
38.183333	1	0.034750
38.200000	1	0.035750
38.216667	1	0.036000
38.233333	1	0.036750
38.250000	1	0.038500
38.266667	1	0.039000
38.283333	1	0.040625
38.300000	1	0.041875
38.316667	1	0.043000
38.333333	1	0.044000
38.350000	1	0.045500
38.366667	1	0.046750
38.383333	1	0.047750
38.400000	1	0.047875
38.416667	1	0.048750
38.433333	1	0.049500
38.450000	1	0.049875
38.466667	1	0.050000
38.483333	1	0.050750
38.500000	1	0.051000
38.516667	1	0.050125
38.533333	1	0.049125
38.550000	1	0.047375
38.566667	1	0.046500
38.583333	1	0.044625
38.600000	1	0.042875
38.616667	1	0.041000
38.633333	1	0.038750
38.650000	1	0.036875
38.666667	1	0.034625
38.683333	1	0.032125
38.700000	1	0.029375
38.716667	1	0.026500
38.733333	1	0.023375
38.750000	1	0.020250
38.766667	1	0.017625
38.783333	1	0.014250
38.800000	1	0.011375
38.816667	1	0.007875
38.833333	1	0.004875
38.850000	1	0.002375
38.866667	1	0.000000
38.883333	1	-0.001625
38.900000	1	-0.003875
38.916667	1	-0.006250
38.933333	1	-0.007875
38.950000	1	-0.009500
38.966667	1	-0.010625
38.983333	1	-0.011625
39.000000	1	-0.012500
39.016667	1	-0.013500
39.033333	1	-0.014125
39.050000	1	-0.015000
39.066667	1	-0.014875
39.083333	1	-0.015000
39.100000	1	-0.015875
39.116667	1	-0.016750
39.133333	1	-0.017375
39.150000	1	-0.017500
39.166667	1	-0.018125
39.183333	1	-0.019250
39.200000	1	-0.019875
39.216667	1	-0.021000
39.233333	1	-0.022250
39.250000	1	-0.023250
39.266667	1	-0.025125
39.283333	1	-0.026750
39.300000	1	-0.029000
39.316667	1	-0.031250
39.333333	1	-0.033375
39.350000	1	-0.036875
39.366667	1	-0.039750
39.383333	1	-0.042750
39.400000	1	-0.046500
39.416667	1	-0.050375
39.433333	1	-0.054750
39.450000	1	-0.059000
39.466667	1	-0.062750
39.483333	1	-0.066625
39.500000	1	-0.070750
39.516667	1	-0.074875
39.533333	1	-0.079250
39.550000	1	-0.083250
39.566667	1	-0.087750
39.583333	1	-0.091000
39.600000	1	-0.094375
39.616667	1	-0.097625
39.633333	1	-0.100875
39.650000	1	-0.103500
39.666667	1	-0.106000
39.683333	1	-0.108000
39.700000	1	-0.109250
39.716667	1	-0.110625
39.733333	1	-0.111375
39.750000	1	-0.111875
39.766667	1	-0.111500
39.783333	1	-0.111625
39.800000	1	-0.110875
39.816667	1	-0.110125
39.833333	1	-0.108875
39.850000	1	-0.107125
39.866667	1	-0.104750
39.883333	1	-0.102125
39.900000	1	-0.099625
39.916667	1	-0.097375
39.933333	1	-0.094750
39.950000	1	-0.091625
39.966667	1	-0.088750
39.983333	1	-0.085875
40.000000	1	-0.082875
