URL	chrom://bioreactor/micro_cm7/HPLC_Ultimate_3000/Users/markusar/20240708_MA_pHrange1.seq/909.smp/RI_1.channel/RI_1.chm
Channel	RI_1

Injection Information:
Data Vault	micro_cm7
Sequence	20240708_MA_pHrange1
Name	Pv3_5.7_4
Number	30
Position	BC6
Comment	
Processing Method	
Instrument Method	run_25B_method
Type	Unknown
Status	Finished
Inject Time	09.07.2024 11:22:41 +02:00
Volume (µl)	20.0000
Dilution Factor	1.0000
Weight	1.0000

Chromatogram Data Information:
Time Min. (min)	0.000000
Time Max. (min)	40.000000
Data Points	2401
Detector	RI
Generating Data System	Chromeleon 7.3.2.11814
Exporting Data System	Chromeleon 7.3.2.0
Operator	Instrument Controller
Signal Quantity	Refractive 
Signal Unit	µRIU
Signal Min.	-0.006000
Signal Max.	82.783250
Channel	RI_1
Driver Name	RID520Driver.dll
Channel Type	Evaluation
Min. Step (s)	1
Max. Step (s)	1
Average Step (s)	1

Signal Parameter Information:
Signal Info	

Chromatogram Data:
Time (min)	Step (s)	Value (µRIU)
0.000000	n.a.	0.045750
0.016667	1	0.045125
0.033333	1	0.044750
0.050000	1	0.044750
0.066667	1	0.044875
0.083333	1	0.044500
0.100000	1	0.044625
0.116667	1	0.045000
0.133333	1	0.044625
0.150000	1	0.044375
0.166667	1	0.044750
0.183333	1	0.044125
0.200000	1	0.044125
0.216667	1	0.044000
0.233333	1	0.043250
0.250000	1	0.042250
0.266667	1	0.041500
0.283333	1	0.041000
0.300000	1	0.040875
0.316667	1	0.039750
0.333333	1	0.039000
0.350000	1	0.038000
0.366667	1	0.036125
0.383333	1	0.034500
0.400000	1	0.033375
0.416667	1	0.032625
0.433333	1	0.032500
0.450000	1	0.032875
0.466667	1	0.033500
0.483333	1	0.034125
0.500000	1	0.033375
0.516667	1	0.032875
0.533333	1	0.031500
0.550000	1	0.030125
0.566667	1	0.028375
0.583333	1	0.026000
0.600000	1	0.023000
0.616667	1	0.020250
0.633333	1	0.017625
0.650000	1	0.015875
0.666667	1	0.014500
0.683333	1	0.013875
0.700000	1	0.012875
0.716667	1	0.012250
0.733333	1	0.011750
0.750000	1	0.011500
0.766667	1	0.011125
0.783333	1	0.011250
0.800000	1	0.011625
0.816667	1	0.010625
0.833333	1	0.010750
0.850000	1	0.011000
0.866667	1	0.010500
0.883333	1	0.010375
0.900000	1	0.010625
0.916667	1	0.011375
0.933333	1	0.012000
0.950000	1	0.012875
0.966667	1	0.013500
0.983333	1	0.013375
1.000000	1	0.013500
1.016667	1	0.014500
1.033333	1	0.015000
1.050000	1	0.015500
1.066667	1	0.016375
1.083333	1	0.017250
1.100000	1	0.017750
1.116667	1	0.018125
1.133333	1	0.019125
1.150000	1	0.019625
1.166667	1	0.020875
1.183333	1	0.021375
1.200000	1	0.022125
1.216667	1	0.023000
1.233333	1	0.024250
1.250000	1	0.024875
1.266667	1	0.025875
1.283333	1	0.026375
1.300000	1	0.026375
1.316667	1	0.027625
1.333333	1	0.028500
1.350000	1	0.029250
1.366667	1	0.029625
1.383333	1	0.029875
1.400000	1	0.030125
1.416667	1	0.030625
1.433333	1	0.031500
1.450000	1	0.031750
1.466667	1	0.032125
1.483333	1	0.032625
1.500000	1	0.033125
1.516667	1	0.033125
1.533333	1	0.033375
1.550000	1	0.033250
1.566667	1	0.033750
1.583333	1	0.034625
1.600000	1	0.034125
1.616667	1	0.034125
1.633333	1	0.034625
1.650000	1	0.034375
1.666667	1	0.034250
1.683333	1	0.034000
1.700000	1	0.033875
1.716667	1	0.033750
1.733333	1	0.033875
1.750000	1	0.034000
1.766667	1	0.034250
1.783333	1	0.034875
1.800000	1	0.035000
1.816667	1	0.034625
1.833333	1	0.034000
1.850000	1	0.033625
1.866667	1	0.033125
1.883333	1	0.032750
1.900000	1	0.032375
1.916667	1	0.032125
1.933333	1	0.031625
1.950000	1	0.031000
1.966667	1	0.030500
1.983333	1	0.030000
2.000000	1	0.030000
2.016667	1	0.029125
2.033333	1	0.027875
2.050000	1	0.027500
2.066667	1	0.026750
2.083333	1	0.026125
2.100000	1	0.024875
2.116667	1	0.023375
2.133333	1	0.022375
2.150000	1	0.021625
2.166667	1	0.020750
2.183333	1	0.020000
2.200000	1	0.018875
2.216667	1	0.017500
2.233333	1	0.016625
2.250000	1	0.015375
2.266667	1	0.014000
2.283333	1	0.013500
2.300000	1	0.012250
2.316667	1	0.012000
2.333333	1	0.010500
2.350000	1	0.009375
2.366667	1	0.007875
2.383333	1	0.007000
2.400000	1	0.005625
2.416667	1	0.005125
2.433333	1	0.004250
2.450000	1	0.003000
2.466667	1	0.002375
2.483333	1	0.001625
2.500000	1	0.001000
2.516667	1	0.000500
2.533333	1	0.000500
2.550000	1	-0.000125
2.566667	1	-0.000375
2.583333	1	-0.000375
2.600000	1	-0.001000
2.616667	1	-0.001500
2.633333	1	-0.002125
2.650000	1	-0.002875
2.666667	1	-0.002750
2.683333	1	-0.001750
2.700000	1	-0.001500
2.716667	1	-0.001125
2.733333	1	-0.001250
2.750000	1	-0.000875
2.766667	1	-0.000625
2.783333	1	-0.000375
2.800000	1	0.000000
2.816667	1	0.000750
2.833333	1	0.001500
2.850000	1	0.002750
2.866667	1	0.003125
2.883333	1	0.004125
2.900000	1	0.004875
2.916667	1	0.005500
2.933333	1	0.006500
2.950000	1	0.007625
2.966667	1	0.008500
2.983333	1	0.009750
3.000000	1	0.011000
3.016667	1	0.013000
3.033333	1	0.014000
3.050000	1	0.015500
3.066667	1	0.017375
3.083333	1	0.018250
3.100000	1	0.020250
3.116667	1	0.022000
3.133333	1	0.023500
3.150000	1	0.024750
3.166667	1	0.026375
3.183333	1	0.027375
3.200000	1	0.029125
3.216667	1	0.031000
3.233333	1	0.033125
3.250000	1	0.035000
3.266667	1	0.035875
3.283333	1	0.037250
3.300000	1	0.038875
3.316667	1	0.040625
3.333333	1	0.042125
3.350000	1	0.043750
3.366667	1	0.045500
3.383333	1	0.047750
3.400000	1	0.050125
3.416667	1	0.052000
3.433333	1	0.053375
3.450000	1	0.055375
3.466667	1	0.057125
3.483333	1	0.059375
3.500000	1	0.061750
3.516667	1	0.063625
3.533333	1	0.065625
3.550000	1	0.067625
3.566667	1	0.069500
3.583333	1	0.072000
3.600000	1	0.073625
3.616667	1	0.075375
3.633333	1	0.077250
3.650000	1	0.080000
3.666667	1	0.082000
3.683333	1	0.083375
3.700000	1	0.085125
3.716667	1	0.086250
3.733333	1	0.087375
3.750000	1	0.088625
3.766667	1	0.089625
3.783333	1	0.091500
3.800000	1	0.093000
3.816667	1	0.093000
3.833333	1	0.093625
3.850000	1	0.093750
3.866667	1	0.094375
3.883333	1	0.094500
3.900000	1	0.094375
3.916667	1	0.094500
3.933333	1	0.094125
3.950000	1	0.093625
3.966667	1	0.093000
3.983333	1	0.091375
4.000000	1	0.091250
4.016667	1	0.090000
4.033333	1	0.089625
4.050000	1	0.089125
4.066667	1	0.088000
4.083333	1	0.087000
4.100000	1	0.086000
4.116667	1	0.084750
4.133333	1	0.083750
4.150000	1	0.082250
4.166667	1	0.081500
4.183333	1	0.080250
4.200000	1	0.079875
4.216667	1	0.079250
4.233333	1	0.078875
4.250000	1	0.078750
4.266667	1	0.078500
4.283333	1	0.078875
4.300000	1	0.078125
4.316667	1	0.078375
4.333333	1	0.078125
4.350000	1	0.078250
4.366667	1	0.078250
4.383333	1	0.079000
4.400000	1	0.079500
4.416667	1	0.079750
4.433333	1	0.080125
4.450000	1	0.081000
4.466667	1	0.081125
4.483333	1	0.082500
4.500000	1	0.083875
4.516667	1	0.085125
4.533333	1	0.085625
4.550000	1	0.087375
4.566667	1	0.089000
4.583333	1	0.090750
4.600000	1	0.092750
4.616667	1	0.093875
4.633333	1	0.096000
4.650000	1	0.097625
4.666667	1	0.099750
4.683333	1	0.101000
4.700000	1	0.103375
4.716667	1	0.104875
4.733333	1	0.107250
4.750000	1	0.109250
4.766667	1	0.111500
4.783333	1	0.113500
4.800000	1	0.115500
4.816667	1	0.117750
4.833333	1	0.120250
4.850000	1	0.122125
4.866667	1	0.123750
4.883333	1	0.125875
4.900000	1	0.127875
4.916667	1	0.130250
4.933333	1	0.132875
4.950000	1	0.135000
4.966667	1	0.137625
4.983333	1	0.140125
5.000000	1	0.143500
5.016667	1	0.145875
5.033333	1	0.148625
5.050000	1	0.152000
5.066667	1	0.155000
5.083333	1	0.158375
5.100000	1	0.161250
5.116667	1	0.164500
5.133333	1	0.168125
5.150000	1	0.172125
5.166667	1	0.175375
5.183333	1	0.179500
5.200000	1	0.182625
5.216667	1	0.186250
5.233333	1	0.189875
5.250000	1	0.192875
5.266667	1	0.196750
5.283333	1	0.200375
5.300000	1	0.203875
5.316667	1	0.206250
5.333333	1	0.210125
5.350000	1	0.212750
5.366667	1	0.216375
5.383333	1	0.219250
5.400000	1	0.221875
5.416667	1	0.224625
5.433333	1	0.227125
5.450000	1	0.229125
5.466667	1	0.231375
5.483333	1	0.232875
5.500000	1	0.234500
5.516667	1	0.235250
5.533333	1	0.236250
5.550000	1	0.236625
5.566667	1	0.237500
5.583333	1	0.237750
5.600000	1	0.237875
5.616667	1	0.237875
5.633333	1	0.237000
5.650000	1	0.236000
5.666667	1	0.234750
5.683333	1	0.233000
5.700000	1	0.231750
5.716667	1	0.230000
5.733333	1	0.227875
5.750000	1	0.226125
5.766667	1	0.223750
5.783333	1	0.222125
5.800000	1	0.219750
5.816667	1	0.217375
5.833333	1	0.215125
5.850000	1	0.212125
5.866667	1	0.208500
5.883333	1	0.205500
5.900000	1	0.202625
5.916667	1	0.198875
5.933333	1	0.195875
5.950000	1	0.192875
5.966667	1	0.189875
5.983333	1	0.185750
6.000000	1	0.182500
6.016667	1	0.178625
6.033333	1	0.175875
6.050000	1	0.172500
6.066667	1	0.169625
6.083333	1	0.166125
6.100000	1	0.162250
6.116667	1	0.158875
6.133333	1	0.156375
6.150000	1	0.153250
6.166667	1	0.150250
6.183333	1	0.147750
6.200000	1	0.144250
6.216667	1	0.141375
6.233333	1	0.138375
6.250000	1	0.135125
6.266667	1	0.132000
6.283333	1	0.128875
6.300000	1	0.125875
6.316667	1	0.122875
6.333333	1	0.120375
6.350000	1	0.118375
6.366667	1	0.116500
6.383333	1	0.113750
6.400000	1	0.111625
6.416667	1	0.109500
6.433333	1	0.107500
6.450000	1	0.105625
6.466667	1	0.103500
6.483333	1	0.101875
6.500000	1	0.099250
6.516667	1	0.097250
6.533333	1	0.096000
6.550000	1	0.094625
6.566667	1	0.093500
6.583333	1	0.092250
6.600000	1	0.091000
6.616667	1	0.090000
6.633333	1	0.089000
6.650000	1	0.087625
6.666667	1	0.086500
6.683333	1	0.085500
6.700000	1	0.084125
6.716667	1	0.084000
6.733333	1	0.082875
6.750000	1	0.081375
6.766667	1	0.080750
6.783333	1	0.080375
6.800000	1	0.080375
6.816667	1	0.079875
6.833333	1	0.080000
6.850000	1	0.080625
6.866667	1	0.080625
6.883333	1	0.080750
6.900000	1	0.081250
6.916667	1	0.081250
6.933333	1	0.081500
6.950000	1	0.081875
6.966667	1	0.082750
6.983333	1	0.083500
7.000000	1	0.084750
7.016667	1	0.085000
7.033333	1	0.087000
7.050000	1	0.088000
7.066667	1	0.089625
7.083333	1	0.092125
7.100000	1	0.094250
7.116667	1	0.096875
7.133333	1	0.098250
7.150000	1	0.101000
7.166667	1	0.104125
7.183333	1	0.107250
7.200000	1	0.110000
7.216667	1	0.112750
7.233333	1	0.115625
7.250000	1	0.118375
7.266667	1	0.121000
7.283333	1	0.123625
7.300000	1	0.127125
7.316667	1	0.128875
7.333333	1	0.131375
7.350000	1	0.133875
7.366667	1	0.135625
7.383333	1	0.137500
7.400000	1	0.139750
7.416667	1	0.141250
7.433333	1	0.141875
7.450000	1	0.142375
7.466667	1	0.143000
7.483333	1	0.143875
7.500000	1	0.144500
7.516667	1	0.144750
7.533333	1	0.144000
7.550000	1	0.142625
7.566667	1	0.140750
7.583333	1	0.138750
7.600000	1	0.137125
7.616667	1	0.135625
7.633333	1	0.132750
7.650000	1	0.129750
7.666667	1	0.126625
7.683333	1	0.123500
7.700000	1	0.120375
7.716667	1	0.116375
7.733333	1	0.112250
7.750000	1	0.108375
7.766667	1	0.103875
7.783333	1	0.099625
7.800000	1	0.094625
7.816667	1	0.090250
7.833333	1	0.086000
7.850000	1	0.081375
7.866667	1	0.077375
7.883333	1	0.072250
7.900000	1	0.068000
7.916667	1	0.063875
7.933333	1	0.059500
7.950000	1	0.055125
7.966667	1	0.051000
7.983333	1	0.046500
8.000000	1	0.042375
8.016667	1	0.038625
8.033333	1	0.034875
8.050000	1	0.031125
8.066667	1	0.027625
8.083333	1	0.024875
8.100000	1	0.021625
8.116667	1	0.018875
8.133333	1	0.016125
8.150000	1	0.013250
8.166667	1	0.011125
8.183333	1	0.008500
8.200000	1	0.006750
8.216667	1	0.004500
8.233333	1	0.003000
8.250000	1	0.001250
8.266667	1	0.000000
8.283333	1	-0.000625
8.300000	1	-0.001875
8.316667	1	-0.002375
8.333333	1	-0.003250
8.350000	1	-0.004000
8.366667	1	-0.003625
8.383333	1	-0.003875
8.400000	1	-0.003375
8.416667	1	-0.003500
8.433333	1	-0.004250
8.450000	1	-0.004500
8.466667	1	-0.005000
8.483333	1	-0.004875
8.500000	1	-0.004375
8.516667	1	-0.004125
8.533333	1	-0.003875
8.550000	1	-0.003500
8.566667	1	-0.003000
8.583333	1	-0.002375
8.600000	1	-0.002500
8.616667	1	-0.002375
8.633333	1	-0.002250
8.650000	1	-0.001750
8.666667	1	-0.002125
8.683333	1	-0.002250
8.700000	1	-0.001500
8.716667	1	-0.000875
8.733333	1	-0.001500
8.750000	1	-0.000750
8.766667	1	-0.000500
8.783333	1	-0.000250
8.800000	1	-0.000625
8.816667	1	-0.000375
8.833333	1	-0.000125
8.850000	1	-0.000500
8.866667	1	-0.001125
8.883333	1	-0.001250
8.900000	1	-0.000750
8.916667	1	-0.000625
8.933333	1	-0.000500
8.950000	1	-0.000500
8.966667	1	-0.000625
8.983333	1	-0.000625
9.000000	1	-0.001125
9.016667	1	-0.001000
9.033333	1	-0.001500
9.050000	1	-0.001750
9.066667	1	-0.001875
9.083333	1	-0.001625
9.100000	1	-0.001875
9.116667	1	-0.002250
9.133333	1	-0.003125
9.150000	1	-0.003500
9.166667	1	-0.003125
9.183333	1	-0.003250
9.200000	1	-0.003750
9.216667	1	-0.004000
9.233333	1	-0.004375
9.250000	1	-0.004875
9.266667	1	-0.005000
9.283333	1	-0.005500
9.300000	1	-0.005625
9.316667	1	-0.005875
9.333333	1	-0.006000
9.350000	1	-0.006000
9.366667	1	-0.005500
9.383333	1	-0.005125
9.400000	1	-0.004625
9.416667	1	-0.005125
9.433333	1	-0.005750
9.450000	1	-0.005375
9.466667	1	-0.005250
9.483333	1	-0.005250
9.500000	1	-0.004750
9.516667	1	-0.004750
9.533333	1	-0.003750
9.550000	1	-0.003625
9.566667	1	-0.003375
9.583333	1	-0.002125
9.600000	1	-0.002125
9.616667	1	-0.001750
9.633333	1	-0.001250
9.650000	1	-0.000875
9.666667	1	-0.000750
9.683333	1	-0.000500
9.700000	1	0.000000
9.716667	1	0.000375
9.733333	1	0.000625
9.750000	1	0.000500
9.766667	1	0.000750
9.783333	1	0.001000
9.800000	1	0.001250
9.816667	1	0.002250
9.833333	1	0.002375
9.850000	1	0.002125
9.866667	1	0.001625
9.883333	1	0.001500
9.900000	1	0.002250
9.916667	1	0.002000
9.933333	1	0.001625
9.950000	1	0.001250
9.966667	1	0.001250
9.983333	1	0.001250
10.000000	1	0.000375
10.016667	1	0.000375
10.033333	1	-0.000250
10.050000	1	-0.000500
10.066667	1	0.000500
10.083333	1	0.002000
10.100000	1	0.004000
10.116667	1	0.006750
10.133333	1	0.010125
10.150000	1	0.014750
10.166667	1	0.020875
10.183333	1	0.028125
10.200000	1	0.036250
10.216667	1	0.045750
10.233333	1	0.056875
10.250000	1	0.070375
10.266667	1	0.085625
10.283333	1	0.102750
10.300000	1	0.123000
10.316667	1	0.145375
10.333333	1	0.170375
10.350000	1	0.197000
10.366667	1	0.225000
10.383333	1	0.251875
10.400000	1	0.275250
10.416667	1	0.292500
10.433333	1	0.299375
10.450000	1	0.292625
10.466667	1	0.271625
10.483333	1	0.237750
10.500000	1	0.199625
10.516667	1	0.177250
10.533333	1	0.203750
10.550000	1	0.328500
10.566667	1	0.612875
10.583333	1	1.129500
10.600000	1	1.951500
10.616667	1	3.145375
10.633333	1	4.766375
10.650000	1	6.849375
10.666667	1	9.417375
10.683333	1	12.472750
10.700000	1	16.001750
10.716667	1	19.967125
10.733333	1	24.305750
10.750000	1	28.920500
10.766667	1	33.659000
10.783333	1	38.314750
10.800000	1	42.600125
10.816667	1	46.152625
10.833333	1	48.570500
10.850000	1	49.498125
10.866667	1	48.723375
10.883333	1	46.268500
10.900000	1	42.409375
10.916667	1	37.610375
10.933333	1	32.395250
10.950000	1	27.224625
10.966667	1	22.428625
10.983333	1	18.197125
11.000000	1	14.602625
11.016667	1	11.637125
11.033333	1	9.250625
11.050000	1	7.366125
11.066667	1	5.898500
11.083333	1	4.767625
11.100000	1	3.902000
11.116667	1	3.242250
11.133333	1	2.739500
11.150000	1	2.355000
11.166667	1	2.059500
11.183333	1	1.830625
11.200000	1	1.651500
11.216667	1	1.509250
11.233333	1	1.395500
11.250000	1	1.303125
11.266667	1	1.227250
11.283333	1	1.163625
11.300000	1	1.110000
11.316667	1	1.064375
11.333333	1	1.025500
11.350000	1	0.991625
11.366667	1	0.962000
11.383333	1	0.936125
11.400000	1	0.913875
11.416667	1	0.895250
11.433333	1	0.878000
11.450000	1	0.863375
11.466667	1	0.849875
11.483333	1	0.838750
11.500000	1	0.829375
11.516667	1	0.820875
11.533333	1	0.813750
11.550000	1	0.807875
11.566667	1	0.803625
11.583333	1	0.799750
11.600000	1	0.797750
11.616667	1	0.796375
11.633333	1	0.796500
11.650000	1	0.798125
11.666667	1	0.801250
11.683333	1	0.805375
11.700000	1	0.809500
11.716667	1	0.816000
11.733333	1	0.823750
11.750000	1	0.831625
11.766667	1	0.840500
11.783333	1	0.850500
11.800000	1	0.861000
11.816667	1	0.871375
11.833333	1	0.881750
11.850000	1	0.891750
11.866667	1	0.901000
11.883333	1	0.909125
11.900000	1	0.917375
11.916667	1	0.924750
11.933333	1	0.931375
11.950000	1	0.937125
11.966667	1	0.942500
11.983333	1	0.947625
12.000000	1	0.952750
12.016667	1	0.957750
12.033333	1	0.962500
12.050000	1	0.967875
12.066667	1	0.973125
12.083333	1	0.978875
12.100000	1	0.984875
12.116667	1	0.991250
12.133333	1	0.998625
12.150000	1	1.006250
12.166667	1	1.014250
12.183333	1	1.023375
12.200000	1	1.033875
12.216667	1	1.046375
12.233333	1	1.060500
12.250000	1	1.077875
12.266667	1	1.099125
12.283333	1	1.126375
12.300000	1	1.161375
12.316667	1	1.205000
12.333333	1	1.260250
12.350000	1	1.331375
12.366667	1	1.421250
12.383333	1	1.534625
12.400000	1	1.675375
12.416667	1	1.847625
12.433333	1	2.056625
12.450000	1	2.307625
12.466667	1	2.604500
12.483333	1	2.952375
12.500000	1	3.355250
12.516667	1	3.814375
12.533333	1	4.330875
12.550000	1	4.902875
12.566667	1	5.527375
12.583333	1	6.198375
12.600000	1	6.904625
12.616667	1	7.633000
12.633333	1	8.370875
12.650000	1	9.103000
12.666667	1	9.816125
12.683333	1	10.500375
12.700000	1	11.146750
12.716667	1	11.753125
12.733333	1	12.318250
12.750000	1	12.848250
12.766667	1	13.350875
12.783333	1	13.837750
12.800000	1	14.318250
12.816667	1	14.803375
12.833333	1	15.302000
12.850000	1	15.822375
12.866667	1	16.370750
12.883333	1	16.950000
12.900000	1	17.562625
12.916667	1	18.208375
12.933333	1	18.885250
12.950000	1	19.593875
12.966667	1	20.331250
12.983333	1	21.096125
13.000000	1	21.886125
13.016667	1	22.699500
13.033333	1	23.535750
13.050000	1	24.393750
13.066667	1	25.274750
13.083333	1	26.176625
13.100000	1	27.099750
13.116667	1	28.042125
13.133333	1	29.003500
13.150000	1	29.984250
13.166667	1	30.983125
13.183333	1	32.001250
13.200000	1	33.038125
13.216667	1	34.093375
13.233333	1	35.167875
13.250000	1	36.262625
13.266667	1	37.379375
13.283333	1	38.517250
13.300000	1	39.677500
13.316667	1	40.859375
13.333333	1	42.064375
13.350000	1	43.292375
13.366667	1	44.543500
13.383333	1	45.819125
13.400000	1	47.117750
13.416667	1	48.440125
13.433333	1	49.788250
13.450000	1	51.163750
13.466667	1	52.569625
13.483333	1	54.005250
13.500000	1	55.469375
13.516667	1	56.964500
13.533333	1	58.489000
13.550000	1	60.043125
13.566667	1	61.630000
13.583333	1	63.248625
13.600000	1	64.897625
13.616667	1	66.578000
13.633333	1	68.295375
13.650000	1	70.048000
13.666667	1	71.839375
13.683333	1	73.669125
13.700000	1	75.534625
13.716667	1	77.421375
13.733333	1	79.272000
13.750000	1	80.950625
13.766667	1	82.222875
13.783333	1	82.783250
13.800000	1	82.310250
13.816667	1	80.505000
13.833333	1	77.111125
13.850000	1	71.973375
13.866667	1	65.162500
13.883333	1	57.085250
13.900000	1	48.436250
13.916667	1	39.998250
13.933333	1	32.381500
13.950000	1	25.904250
13.966667	1	20.625250
13.983333	1	16.442250
14.000000	1	13.187875
14.016667	1	10.689625
14.033333	1	8.792625
14.050000	1	7.371250
14.066667	1	6.315750
14.083333	1	5.536750
14.100000	1	4.961750
14.116667	1	4.534625
14.133333	1	4.212750
14.150000	1	3.965750
14.166667	1	3.771625
14.183333	1	3.616375
14.200000	1	3.489375
14.216667	1	3.382250
14.233333	1	3.291250
14.250000	1	3.211625
14.266667	1	3.141250
14.283333	1	3.077125
14.300000	1	3.019750
14.316667	1	2.967500
14.333333	1	2.921250
14.350000	1	2.879500
14.366667	1	2.843750
14.383333	1	2.813000
14.400000	1	2.790125
14.416667	1	2.774750
14.433333	1	2.769250
14.450000	1	2.778750
14.466667	1	2.805750
14.483333	1	2.857125
14.500000	1	2.943000
14.516667	1	3.076750
14.533333	1	3.276750
14.550000	1	3.568625
14.566667	1	3.984500
14.583333	1	4.565750
14.600000	1	5.364250
14.616667	1	6.441125
14.633333	1	7.866750
14.650000	1	9.715875
14.666667	1	12.060375
14.683333	1	14.962500
14.700000	1	18.460125
14.716667	1	22.561125
14.733333	1	27.238500
14.750000	1	32.416750
14.766667	1	37.967250
14.783333	1	43.707125
14.800000	1	49.420500
14.816667	1	54.862250
14.833333	1	59.776625
14.850000	1	63.914500
14.866667	1	67.058250
14.883333	1	69.040125
14.900000	1	69.765750
14.916667	1	69.218625
14.933333	1	67.460000
14.950000	1	64.622625
14.966667	1	60.892750
14.983333	1	56.491500
15.000000	1	51.647750
15.016667	1	46.582250
15.033333	1	41.492000
15.050000	1	36.546875
15.066667	1	31.877500
15.083333	1	27.574500
15.100000	1	23.693250
15.116667	1	20.256250
15.133333	1	17.257750
15.150000	1	14.674875
15.166667	1	12.475750
15.183333	1	10.621625
15.200000	1	9.068625
15.216667	1	7.777500
15.233333	1	6.707625
15.250000	1	5.826625
15.266667	1	5.104000
15.283333	1	4.514000
15.300000	1	4.036250
15.316667	1	3.651375
15.333333	1	3.343875
15.350000	1	3.100375
15.366667	1	2.909750
15.383333	1	2.763625
15.400000	1	2.653625
15.416667	1	2.572875
15.433333	1	2.514500
15.450000	1	2.473875
15.466667	1	2.446000
15.483333	1	2.424875
15.500000	1	2.407250
15.516667	1	2.391000
15.533333	1	2.371875
15.550000	1	2.349000
15.566667	1	2.322625
15.583333	1	2.291250
15.600000	1	2.255875
15.616667	1	2.217250
15.633333	1	2.177375
15.650000	1	2.136250
15.666667	1	2.096625
15.683333	1	2.058250
15.700000	1	2.022250
15.716667	1	1.988000
15.733333	1	1.955750
15.750000	1	1.925125
15.766667	1	1.895125
15.783333	1	1.865000
15.800000	1	1.836125
15.816667	1	1.806500
15.833333	1	1.777125
15.850000	1	1.747625
15.866667	1	1.718375
15.883333	1	1.689750
15.900000	1	1.662875
15.916667	1	1.639250
15.933333	1	1.617500
15.950000	1	1.600000
15.966667	1	1.584625
15.983333	1	1.573875
16.000000	1	1.565875
16.016667	1	1.560375
16.033333	1	1.557250
16.050000	1	1.554625
16.066667	1	1.552875
16.083333	1	1.550875
16.100000	1	1.548000
16.116667	1	1.543750
16.133333	1	1.537000
16.150000	1	1.528875
16.166667	1	1.517625
16.183333	1	1.505125
16.200000	1	1.491000
16.216667	1	1.474750
16.233333	1	1.457125
16.250000	1	1.438750
16.266667	1	1.420875
16.283333	1	1.401875
16.300000	1	1.382625
16.316667	1	1.363125
16.333333	1	1.344375
16.350000	1	1.327000
16.366667	1	1.310375
16.383333	1	1.295500
16.400000	1	1.281500
16.416667	1	1.270375
16.433333	1	1.261625
16.450000	1	1.254500
16.466667	1	1.250625
16.483333	1	1.249625
16.500000	1	1.250000
16.516667	1	1.252750
16.533333	1	1.257250
16.550000	1	1.263000
16.566667	1	1.269875
16.583333	1	1.277250
16.600000	1	1.283000
16.616667	1	1.288125
16.633333	1	1.292500
16.650000	1	1.295375
16.666667	1	1.296250
16.683333	1	1.295750
16.700000	1	1.294250
16.716667	1	1.292250
16.733333	1	1.290375
16.750000	1	1.288375
16.766667	1	1.286875
16.783333	1	1.286125
16.800000	1	1.286750
16.816667	1	1.288250
16.833333	1	1.290125
16.850000	1	1.292625
16.866667	1	1.295875
16.883333	1	1.299250
16.900000	1	1.301750
16.916667	1	1.303500
16.933333	1	1.304750
16.950000	1	1.304750
16.966667	1	1.302125
16.983333	1	1.298500
17.000000	1	1.293750
17.016667	1	1.287875
17.033333	1	1.280750
17.050000	1	1.273625
17.066667	1	1.267125
17.083333	1	1.260000
17.100000	1	1.254125
17.116667	1	1.247625
17.133333	1	1.242625
17.150000	1	1.238000
17.166667	1	1.234875
17.183333	1	1.232250
17.200000	1	1.230250
17.216667	1	1.229750
17.233333	1	1.229625
17.250000	1	1.230000
17.266667	1	1.231500
17.283333	1	1.234250
17.300000	1	1.236875
17.316667	1	1.239500
17.333333	1	1.243000
17.350000	1	1.246375
17.366667	1	1.250750
17.383333	1	1.254625
17.400000	1	1.258250
17.416667	1	1.261500
17.433333	1	1.263500
17.450000	1	1.264875
17.466667	1	1.264875
17.483333	1	1.264125
17.500000	1	1.261500
17.516667	1	1.256625
17.533333	1	1.250625
17.550000	1	1.243375
17.566667	1	1.234625
17.583333	1	1.224125
17.600000	1	1.212875
17.616667	1	1.200375
17.633333	1	1.187125
17.650000	1	1.171875
17.666667	1	1.156750
17.683333	1	1.141375
17.700000	1	1.126375
17.716667	1	1.110875
17.733333	1	1.095375
17.750000	1	1.080500
17.766667	1	1.067000
17.783333	1	1.053375
17.800000	1	1.039500
17.816667	1	1.026625
17.833333	1	1.014500
17.850000	1	1.002750
17.866667	1	0.990875
17.883333	1	0.980375
17.900000	1	0.970250
17.916667	1	0.960000
17.933333	1	0.950625
17.950000	1	0.941500
17.966667	1	0.932375
17.983333	1	0.923250
18.000000	1	0.913750
18.016667	1	0.904750
18.033333	1	0.895625
18.050000	1	0.886875
18.066667	1	0.878750
18.083333	1	0.870000
18.100000	1	0.861625
18.116667	1	0.853750
18.133333	1	0.846500
18.150000	1	0.840000
18.166667	1	0.833875
18.183333	1	0.829250
18.200000	1	0.825125
18.216667	1	0.822250
18.233333	1	0.820375
18.250000	1	0.819000
18.266667	1	0.818250
18.283333	1	0.818625
18.300000	1	0.819000
18.316667	1	0.820000
18.333333	1	0.821000
18.350000	1	0.822250
18.366667	1	0.824375
18.383333	1	0.826750
18.400000	1	0.830625
18.416667	1	0.834625
18.433333	1	0.839750
18.450000	1	0.845625
18.466667	1	0.852750
18.483333	1	0.861875
18.500000	1	0.872875
18.516667	1	0.884500
18.533333	1	0.899250
18.550000	1	0.915625
18.566667	1	0.933875
18.583333	1	0.953375
18.600000	1	0.975375
18.616667	1	0.999125
18.633333	1	1.025250
18.650000	1	1.053000
18.666667	1	1.082000
18.683333	1	1.112375
18.700000	1	1.144875
18.716667	1	1.178375
18.733333	1	1.213250
18.750000	1	1.248625
18.766667	1	1.284875
18.783333	1	1.320500
18.800000	1	1.356375
18.816667	1	1.391250
18.833333	1	1.423750
18.850000	1	1.454250
18.866667	1	1.480750
18.883333	1	1.503000
18.900000	1	1.521500
18.916667	1	1.533875
18.933333	1	1.539875
18.950000	1	1.539250
18.966667	1	1.532125
18.983333	1	1.517750
19.000000	1	1.497125
19.016667	1	1.469750
19.033333	1	1.436875
19.050000	1	1.400500
19.066667	1	1.361125
19.083333	1	1.320125
19.100000	1	1.278375
19.116667	1	1.237750
19.133333	1	1.201250
19.150000	1	1.169625
19.166667	1	1.146000
19.183333	1	1.131500
19.200000	1	1.129375
19.216667	1	1.141875
19.233333	1	1.169750
19.250000	1	1.217375
19.266667	1	1.286875
19.283333	1	1.380250
19.300000	1	1.498375
19.316667	1	1.643125
19.333333	1	1.815125
19.350000	1	2.015125
19.366667	1	2.241625
19.383333	1	2.490000
19.400000	1	2.758000
19.416667	1	3.040000
19.433333	1	3.328375
19.450000	1	3.616500
19.466667	1	3.894375
19.483333	1	4.152875
19.500000	1	4.384375
19.516667	1	4.580000
19.533333	1	4.734375
19.550000	1	4.841000
19.566667	1	4.896625
19.583333	1	4.900125
19.600000	1	4.852625
19.616667	1	4.756375
19.633333	1	4.616625
19.650000	1	4.438625
19.666667	1	4.230125
19.683333	1	3.998250
19.700000	1	3.750875
19.716667	1	3.493750
19.733333	1	3.235250
19.750000	1	2.980000
19.766667	1	2.732625
19.783333	1	2.496875
19.800000	1	2.274625
19.816667	1	2.068625
19.833333	1	1.880000
19.850000	1	1.709750
19.866667	1	1.555750
19.883333	1	1.418500
19.900000	1	1.296000
19.916667	1	1.188625
19.933333	1	1.094000
19.950000	1	1.011875
19.966667	1	0.940375
19.983333	1	0.878750
20.000000	1	0.826375
20.016667	1	0.782250
20.033333	1	0.744750
20.050000	1	0.714625
20.066667	1	0.691000
20.083333	1	0.674000
20.100000	1	0.661625
20.116667	1	0.653625
20.133333	1	0.650875
20.150000	1	0.652125
20.166667	1	0.656250
20.183333	1	0.664625
20.200000	1	0.673875
20.216667	1	0.685250
20.233333	1	0.697750
20.250000	1	0.710125
20.266667	1	0.721750
20.283333	1	0.732000
20.300000	1	0.740750
20.316667	1	0.746750
20.333333	1	0.750000
20.350000	1	0.750000
20.366667	1	0.747125
20.383333	1	0.740625
20.400000	1	0.730250
20.416667	1	0.718000
20.433333	1	0.704125
20.450000	1	0.690125
20.466667	1	0.675250
20.483333	1	0.660375
20.500000	1	0.646625
20.516667	1	0.635500
20.533333	1	0.627625
20.550000	1	0.624375
20.566667	1	0.626125
20.583333	1	0.634250
20.600000	1	0.649125
20.616667	1	0.671000
20.633333	1	0.700750
20.650000	1	0.738750
20.666667	1	0.786000
20.683333	1	0.841000
20.700000	1	0.904250
20.716667	1	0.974500
20.733333	1	1.050875
20.750000	1	1.131000
20.766667	1	1.213375
20.783333	1	1.296375
20.800000	1	1.377375
20.816667	1	1.453625
20.833333	1	1.521375
20.850000	1	1.580000
20.866667	1	1.626625
20.883333	1	1.659500
20.900000	1	1.678250
20.916667	1	1.682750
20.933333	1	1.672250
20.950000	1	1.647750
20.966667	1	1.609750
20.983333	1	1.560750
21.000000	1	1.502000
21.016667	1	1.436625
21.033333	1	1.366750
21.050000	1	1.293625
21.066667	1	1.218875
21.083333	1	1.145125
21.100000	1	1.073375
21.116667	1	1.004375
21.133333	1	0.940500
21.150000	1	0.881500
21.166667	1	0.827250
21.183333	1	0.777500
21.200000	1	0.733000
21.216667	1	0.693375
21.233333	1	0.658625
21.250000	1	0.628250
21.266667	1	0.601250
21.283333	1	0.577250
21.300000	1	0.557000
21.316667	1	0.540000
21.333333	1	0.524625
21.350000	1	0.511375
21.366667	1	0.500500
21.383333	1	0.491625
21.400000	1	0.483000
21.416667	1	0.475875
21.433333	1	0.469500
21.450000	1	0.463875
21.466667	1	0.458625
21.483333	1	0.454250
21.500000	1	0.451250
21.516667	1	0.449000
21.533333	1	0.447250
21.550000	1	0.446875
21.566667	1	0.446250
21.583333	1	0.446125
21.600000	1	0.448250
21.616667	1	0.451750
21.633333	1	0.455625
21.650000	1	0.461750
21.666667	1	0.469750
21.683333	1	0.478750
21.700000	1	0.489250
21.716667	1	0.501625
21.733333	1	0.516000
21.750000	1	0.531875
21.766667	1	0.549875
21.783333	1	0.568625
21.800000	1	0.588750
21.816667	1	0.610625
21.833333	1	0.632875
21.850000	1	0.655375
21.866667	1	0.677875
21.883333	1	0.699750
21.900000	1	0.721125
21.916667	1	0.741250
21.933333	1	0.759625
21.950000	1	0.775875
21.966667	1	0.790000
21.983333	1	0.801500
22.000000	1	0.810875
22.016667	1	0.817000
22.033333	1	0.820500
22.050000	1	0.821250
22.066667	1	0.820000
22.083333	1	0.816125
22.100000	1	0.809875
22.116667	1	0.802625
22.133333	1	0.792750
22.150000	1	0.782125
22.166667	1	0.770250
22.183333	1	0.756750
22.200000	1	0.742250
22.216667	1	0.727500
22.233333	1	0.711875
22.250000	1	0.695125
22.266667	1	0.678250
22.283333	1	0.660625
22.300000	1	0.643250
22.316667	1	0.625625
22.333333	1	0.608250
22.350000	1	0.591250
22.366667	1	0.573000
22.383333	1	0.556625
22.400000	1	0.540250
22.416667	1	0.524375
22.433333	1	0.508750
22.450000	1	0.494750
22.466667	1	0.480375
22.483333	1	0.467375
22.500000	1	0.455500
22.516667	1	0.443250
22.533333	1	0.432250
22.550000	1	0.422750
22.566667	1	0.413625
22.583333	1	0.405375
22.600000	1	0.397125
22.616667	1	0.389375
22.633333	1	0.382500
22.650000	1	0.375750
22.666667	1	0.369625
22.683333	1	0.363875
22.700000	1	0.358125
22.716667	1	0.353000
22.733333	1	0.348375
22.750000	1	0.344500
22.766667	1	0.340125
22.783333	1	0.336250
22.800000	1	0.332750
22.816667	1	0.329500
22.833333	1	0.326250
22.850000	1	0.324000
22.866667	1	0.321625
22.883333	1	0.320125
22.900000	1	0.318250
22.916667	1	0.317875
22.933333	1	0.317625
22.950000	1	0.317625
22.966667	1	0.318000
22.983333	1	0.318875
23.000000	1	0.320125
23.016667	1	0.321750
23.033333	1	0.323250
23.050000	1	0.326000
23.066667	1	0.329250
23.083333	1	0.332625
23.100000	1	0.336375
23.116667	1	0.339500
23.133333	1	0.342750
23.150000	1	0.345500
23.166667	1	0.349000
23.183333	1	0.351875
23.200000	1	0.355125
23.216667	1	0.358875
23.233333	1	0.362375
23.250000	1	0.366875
23.266667	1	0.372625
23.283333	1	0.378000
23.300000	1	0.385750
23.316667	1	0.394625
23.333333	1	0.406250
23.350000	1	0.421375
23.366667	1	0.440375
23.383333	1	0.465250
23.400000	1	0.496000
23.416667	1	0.534000
23.433333	1	0.582125
23.450000	1	0.641000
23.466667	1	0.712625
23.483333	1	0.799000
23.500000	1	0.902375
23.516667	1	1.025125
23.533333	1	1.168000
23.550000	1	1.333875
23.566667	1	1.523500
23.583333	1	1.738750
23.600000	1	1.978000
23.616667	1	2.242125
23.633333	1	2.528500
23.650000	1	2.835500
23.666667	1	3.160125
23.683333	1	3.496625
23.700000	1	3.841750
23.716667	1	4.189625
23.733333	1	4.531750
23.750000	1	4.861750
23.766667	1	5.172250
23.783333	1	5.454875
23.800000	1	5.704000
23.816667	1	5.913000
23.833333	1	6.077875
23.850000	1	6.194375
23.866667	1	6.260250
23.883333	1	6.274875
23.900000	1	6.238375
23.916667	1	6.153250
23.933333	1	6.022625
23.950000	1	5.849875
23.966667	1	5.640625
23.983333	1	5.401750
24.000000	1	5.139250
24.016667	1	4.858750
24.033333	1	4.566625
24.050000	1	4.268750
24.066667	1	3.970750
24.083333	1	3.676375
24.100000	1	3.388875
24.116667	1	3.112250
24.133333	1	2.848875
24.150000	1	2.600125
24.166667	1	2.368625
24.183333	1	2.153250
24.200000	1	1.954375
24.216667	1	1.773250
24.233333	1	1.608250
24.250000	1	1.459000
24.266667	1	1.325250
24.283333	1	1.205250
24.300000	1	1.099000
24.316667	1	1.004500
24.333333	1	0.921250
24.350000	1	0.848375
24.366667	1	0.784375
24.383333	1	0.728500
24.400000	1	0.680875
24.416667	1	0.640250
24.433333	1	0.606250
24.450000	1	0.576375
24.466667	1	0.551750
24.483333	1	0.531250
24.500000	1	0.513875
24.516667	1	0.499625
24.533333	1	0.487500
24.550000	1	0.477125
24.566667	1	0.469250
24.583333	1	0.462250
24.600000	1	0.455750
24.616667	1	0.450375
24.633333	1	0.444500
24.650000	1	0.439125
24.666667	1	0.433625
24.683333	1	0.428375
24.700000	1	0.421875
24.716667	1	0.416500
24.733333	1	0.410750
24.750000	1	0.405500
24.766667	1	0.399000
24.783333	1	0.393125
24.800000	1	0.386750
24.816667	1	0.380750
24.833333	1	0.374625
24.850000	1	0.368500
24.866667	1	0.362750
24.883333	1	0.356750
24.900000	1	0.351375
24.916667	1	0.346375
24.933333	1	0.341875
24.950000	1	0.337125
24.966667	1	0.332625
24.983333	1	0.328625
25.000000	1	0.324875
25.016667	1	0.321500
25.033333	1	0.318750
25.050000	1	0.316500
25.066667	1	0.314000
25.083333	1	0.311500
25.100000	1	0.308375
25.116667	1	0.306500
25.133333	1	0.304000
25.150000	1	0.302125
25.166667	1	0.300500
25.183333	1	0.298750
25.200000	1	0.296500
25.216667	1	0.295250
25.233333	1	0.293375
25.250000	1	0.291875
25.266667	1	0.291250
25.283333	1	0.290250
25.300000	1	0.289125
25.316667	1	0.288125
25.333333	1	0.287000
25.350000	1	0.286625
25.366667	1	0.285750
25.383333	1	0.285625
25.400000	1	0.285125
25.416667	1	0.285250
25.433333	1	0.285625
25.450000	1	0.286000
25.466667	1	0.287125
25.483333	1	0.288500
25.500000	1	0.289000
25.516667	1	0.289875
25.533333	1	0.291500
25.550000	1	0.293125
25.566667	1	0.294500
25.583333	1	0.295500
25.600000	1	0.295500
25.616667	1	0.297000
25.633333	1	0.298000
25.650000	1	0.299250
25.666667	1	0.300250
25.683333	1	0.300625
25.700000	1	0.301250
25.716667	1	0.302250
25.733333	1	0.302625
25.750000	1	0.303000
25.766667	1	0.303625
25.783333	1	0.303875
25.800000	1	0.304000
25.816667	1	0.304000
25.833333	1	0.304875
25.850000	1	0.304875
25.866667	1	0.305875
25.883333	1	0.306625
25.900000	1	0.307000
25.916667	1	0.307875
25.933333	1	0.309625
25.950000	1	0.310625
25.966667	1	0.312500
25.983333	1	0.314875
26.000000	1	0.318125
26.016667	1	0.321000
26.033333	1	0.323250
26.050000	1	0.326875
26.066667	1	0.330750
26.083333	1	0.335250
26.100000	1	0.339625
26.116667	1	0.343875
26.133333	1	0.347625
26.150000	1	0.351750
26.166667	1	0.355750
26.183333	1	0.360250
26.200000	1	0.363875
26.216667	1	0.366750
26.233333	1	0.370000
26.250000	1	0.372375
26.266667	1	0.374125
26.283333	1	0.375750
26.300000	1	0.376000
26.316667	1	0.376500
26.333333	1	0.375750
26.350000	1	0.375250
26.366667	1	0.372750
26.383333	1	0.370250
26.400000	1	0.367250
26.416667	1	0.363875
26.433333	1	0.359125
26.450000	1	0.354000
26.466667	1	0.349000
26.483333	1	0.343375
26.500000	1	0.337125
26.516667	1	0.330875
26.533333	1	0.324875
26.550000	1	0.318375
26.566667	1	0.311750
26.583333	1	0.304750
26.600000	1	0.297875
26.616667	1	0.291750
26.633333	1	0.285500
26.650000	1	0.279000
26.666667	1	0.273250
26.683333	1	0.266750
26.700000	1	0.261750
26.716667	1	0.256375
26.733333	1	0.252250
26.750000	1	0.248250
26.766667	1	0.244750
26.783333	1	0.240875
26.800000	1	0.237125
26.816667	1	0.235000
26.833333	1	0.233000
26.850000	1	0.231125
26.866667	1	0.229125
26.883333	1	0.228375
26.900000	1	0.228375
26.916667	1	0.228250
26.933333	1	0.228500
26.950000	1	0.229500
26.966667	1	0.230250
26.983333	1	0.232000
27.000000	1	0.233875
27.016667	1	0.236375
27.033333	1	0.239375
27.050000	1	0.242750
27.066667	1	0.247250
27.083333	1	0.252125
27.100000	1	0.257375
27.116667	1	0.264000
27.133333	1	0.271125
27.150000	1	0.279875
27.166667	1	0.289875
27.183333	1	0.301500
27.200000	1	0.314750
27.216667	1	0.330250
27.233333	1	0.347875
27.250000	1	0.368875
27.266667	1	0.392750
27.283333	1	0.421000
27.300000	1	0.454125
27.316667	1	0.491750
27.333333	1	0.534875
27.350000	1	0.584125
27.366667	1	0.640375
27.383333	1	0.704375
27.400000	1	0.777750
27.416667	1	0.860750
27.433333	1	0.954500
27.450000	1	1.059500
27.466667	1	1.175500
27.483333	1	1.304000
27.500000	1	1.444750
27.516667	1	1.598375
27.533333	1	1.763375
27.550000	1	1.939750
27.566667	1	2.127875
27.583333	1	2.325375
27.600000	1	2.529875
27.616667	1	2.741625
27.633333	1	2.957125
27.650000	1	3.174500
27.666667	1	3.389875
27.683333	1	3.601375
27.700000	1	3.805250
27.716667	1	3.998625
27.733333	1	4.177625
27.750000	1	4.339625
27.766667	1	4.481125
27.783333	1	4.599125
27.800000	1	4.692000
27.816667	1	4.757250
27.833333	1	4.794000
27.850000	1	4.801125
27.866667	1	4.779125
27.883333	1	4.727250
27.900000	1	4.647375
27.916667	1	4.541875
27.933333	1	4.411500
27.950000	1	4.259250
27.966667	1	4.089250
27.983333	1	3.904375
28.000000	1	3.707375
28.016667	1	3.501875
28.033333	1	3.290875
28.050000	1	3.077375
28.066667	1	2.864625
28.083333	1	2.655125
28.100000	1	2.451125
28.116667	1	2.254500
28.133333	1	2.067000
28.150000	1	1.889875
28.166667	1	1.723375
28.183333	1	1.569125
28.200000	1	1.427125
28.216667	1	1.296125
28.233333	1	1.177375
28.250000	1	1.069750
28.266667	1	0.972750
28.283333	1	0.885625
28.300000	1	0.807500
28.316667	1	0.739875
28.333333	1	0.680625
28.350000	1	0.627875
28.366667	1	0.583625
28.383333	1	0.546625
28.400000	1	0.515250
28.416667	1	0.489625
28.433333	1	0.469250
28.450000	1	0.452875
28.466667	1	0.441125
28.483333	1	0.433375
28.500000	1	0.428250
28.516667	1	0.425625
28.533333	1	0.426375
28.550000	1	0.428750
28.566667	1	0.432750
28.583333	1	0.438750
28.600000	1	0.446375
28.616667	1	0.455500
28.633333	1	0.466000
28.650000	1	0.477000
28.666667	1	0.487625
28.683333	1	0.498125
28.700000	1	0.508625
28.716667	1	0.519000
28.733333	1	0.529000
28.750000	1	0.538750
28.766667	1	0.547500
28.783333	1	0.555875
28.800000	1	0.563375
28.816667	1	0.570000
28.833333	1	0.575375
28.850000	1	0.579750
28.866667	1	0.583250
28.883333	1	0.585750
28.900000	1	0.587250
28.916667	1	0.586750
28.933333	1	0.585625
28.950000	1	0.583125
28.966667	1	0.578500
28.983333	1	0.573500
29.000000	1	0.567750
29.016667	1	0.560875
29.033333	1	0.553000
29.050000	1	0.544125
29.066667	1	0.534375
29.083333	1	0.524250
29.100000	1	0.513375
29.116667	1	0.501750
29.133333	1	0.488750
29.150000	1	0.476250
29.166667	1	0.463000
29.183333	1	0.449375
29.200000	1	0.435625
29.216667	1	0.422875
29.233333	1	0.408500
29.250000	1	0.394375
29.266667	1	0.381000
29.283333	1	0.366875
29.300000	1	0.353625
29.316667	1	0.340375
29.333333	1	0.327625
29.350000	1	0.314875
29.366667	1	0.302125
29.383333	1	0.289375
29.400000	1	0.278000
29.416667	1	0.266875
29.433333	1	0.256250
29.450000	1	0.245250
29.466667	1	0.235125
29.483333	1	0.225625
29.500000	1	0.216500
29.516667	1	0.207250
29.533333	1	0.198750
29.550000	1	0.190750
29.566667	1	0.183375
29.583333	1	0.176250
29.600000	1	0.169875
29.616667	1	0.163375
29.633333	1	0.157500
29.650000	1	0.152375
29.666667	1	0.147375
29.683333	1	0.142500
29.700000	1	0.138250
29.716667	1	0.134375
29.733333	1	0.130750
29.750000	1	0.127250
29.766667	1	0.124875
29.783333	1	0.123250
29.800000	1	0.121000
29.816667	1	0.118875
29.833333	1	0.117375
29.850000	1	0.116750
29.866667	1	0.116125
29.883333	1	0.114500
29.900000	1	0.114125
29.916667	1	0.113125
29.933333	1	0.113500
29.950000	1	0.114000
29.966667	1	0.115125
29.983333	1	0.116000
30.000000	1	0.117125
30.016667	1	0.118250
30.033333	1	0.119500
30.050000	1	0.120000
30.066667	1	0.120875
30.083333	1	0.122125
30.100000	1	0.123125
30.116667	1	0.124000
30.133333	1	0.125250
30.150000	1	0.126750
30.166667	1	0.127500
30.183333	1	0.128250
30.200000	1	0.130125
30.216667	1	0.130875
30.233333	1	0.132500
30.250000	1	0.133750
30.266667	1	0.134750
30.283333	1	0.135500
30.300000	1	0.135750
30.316667	1	0.136375
30.333333	1	0.136875
30.350000	1	0.137125
30.366667	1	0.137125
30.383333	1	0.138125
30.400000	1	0.140125
30.416667	1	0.140750
30.433333	1	0.140875
30.450000	1	0.142625
30.466667	1	0.143875
30.483333	1	0.145625
30.500000	1	0.148125
30.516667	1	0.150125
30.533333	1	0.152250
30.550000	1	0.155125
30.566667	1	0.158750
30.583333	1	0.162125
30.600000	1	0.166500
30.616667	1	0.171750
30.633333	1	0.177125
30.650000	1	0.182625
30.666667	1	0.188750
30.683333	1	0.195875
30.700000	1	0.203500
30.716667	1	0.211250
30.733333	1	0.220250
30.750000	1	0.229625
30.766667	1	0.239500
30.783333	1	0.250625
30.800000	1	0.262750
30.816667	1	0.275500
30.833333	1	0.290250
30.850000	1	0.305250
30.866667	1	0.322125
30.883333	1	0.340125
30.900000	1	0.359750
30.916667	1	0.382375
30.933333	1	0.407250
30.950000	1	0.435500
30.966667	1	0.466875
30.983333	1	0.502000
31.000000	1	0.542125
31.016667	1	0.587250
31.033333	1	0.637375
31.050000	1	0.695125
31.066667	1	0.759375
31.083333	1	0.831250
31.100000	1	0.911625
31.116667	1	1.000000
31.133333	1	1.098250
31.150000	1	1.206875
31.166667	1	1.325375
31.183333	1	1.455125
31.200000	1	1.595125
31.216667	1	1.745250
31.233333	1	1.905875
31.250000	1	2.076625
31.266667	1	2.255625
31.283333	1	2.442250
31.300000	1	2.636250
31.316667	1	2.834750
31.333333	1	3.036875
31.350000	1	3.239125
31.366667	1	3.440250
31.383333	1	3.639250
31.400000	1	3.832125
31.416667	1	4.017250
31.433333	1	4.192625
31.450000	1	4.354250
31.466667	1	4.501625
31.483333	1	4.632500
31.500000	1	4.743375
31.516667	1	4.834125
31.533333	1	4.903625
31.550000	1	4.950625
31.566667	1	4.975000
31.583333	1	4.976625
31.600000	1	4.955500
31.616667	1	4.912750
31.633333	1	4.848625
31.650000	1	4.765250
31.666667	1	4.662375
31.683333	1	4.542250
31.700000	1	4.407375
31.716667	1	4.260000
31.733333	1	4.102250
31.750000	1	3.936125
31.766667	1	3.762750
31.783333	1	3.585125
31.800000	1	3.404625
31.816667	1	3.222000
31.833333	1	3.040125
31.850000	1	2.861375
31.866667	1	2.685250
31.883333	1	2.513375
31.900000	1	2.347250
31.916667	1	2.188250
31.933333	1	2.035625
31.950000	1	1.890250
31.966667	1	1.752750
31.983333	1	1.622875
32.000000	1	1.501625
32.016667	1	1.386875
32.033333	1	1.279875
32.050000	1	1.180750
32.066667	1	1.088500
32.083333	1	1.002875
32.100000	1	0.923375
32.116667	1	0.850375
32.133333	1	0.783000
32.150000	1	0.720125
32.166667	1	0.662500
32.183333	1	0.609250
32.200000	1	0.559875
32.216667	1	0.515125
32.233333	1	0.473125
32.250000	1	0.434250
32.266667	1	0.399375
32.283333	1	0.367250
32.300000	1	0.337000
32.316667	1	0.309250
32.333333	1	0.283625
32.350000	1	0.260250
32.366667	1	0.238750
32.383333	1	0.218500
32.400000	1	0.200750
32.416667	1	0.184375
32.433333	1	0.169875
32.450000	1	0.155875
32.466667	1	0.144000
32.483333	1	0.132500
32.500000	1	0.122125
32.516667	1	0.113875
32.533333	1	0.106125
32.550000	1	0.098875
32.566667	1	0.092125
32.583333	1	0.086250
32.600000	1	0.080875
32.616667	1	0.076375
32.633333	1	0.072125
32.650000	1	0.069125
32.666667	1	0.065750
32.683333	1	0.063375
32.700000	1	0.060750
32.716667	1	0.058375
32.733333	1	0.056500
32.750000	1	0.054375
32.766667	1	0.053250
32.783333	1	0.052375
32.800000	1	0.052375
32.816667	1	0.051625
32.833333	1	0.051125
32.850000	1	0.050000
32.866667	1	0.048625
32.883333	1	0.047125
32.900000	1	0.046375
32.916667	1	0.045250
32.933333	1	0.044750
32.950000	1	0.044875
32.966667	1	0.044750
32.983333	1	0.043875
33.000000	1	0.043875
33.016667	1	0.043250
33.033333	1	0.043125
33.050000	1	0.042250
33.066667	1	0.041375
33.083333	1	0.040750
33.100000	1	0.040125
33.116667	1	0.039750
33.133333	1	0.039125
33.150000	1	0.038500
33.166667	1	0.038500
33.183333	1	0.038500
33.200000	1	0.037875
33.216667	1	0.037250
33.233333	1	0.036625
33.250000	1	0.036375
33.266667	1	0.036375
33.283333	1	0.035875
33.300000	1	0.035750
33.316667	1	0.036375
33.333333	1	0.036625
33.350000	1	0.036750
33.366667	1	0.036875
33.383333	1	0.037750
33.400000	1	0.038000
33.416667	1	0.039000
33.433333	1	0.039375
33.450000	1	0.040375
33.466667	1	0.041500
33.483333	1	0.041750
33.500000	1	0.043125
33.516667	1	0.044625
33.533333	1	0.045875
33.550000	1	0.046625
33.566667	1	0.048375
33.583333	1	0.049750
33.600000	1	0.051375
33.616667	1	0.053125
33.633333	1	0.054625
33.650000	1	0.056375
33.666667	1	0.057875
33.683333	1	0.059500
33.700000	1	0.060625
33.716667	1	0.062250
33.733333	1	0.064000
33.750000	1	0.065375
33.766667	1	0.067375
33.783333	1	0.069250
33.800000	1	0.071375
33.816667	1	0.072750
33.833333	1	0.074250
33.850000	1	0.075875
33.866667	1	0.076500
33.883333	1	0.077500
33.900000	1	0.078750
33.916667	1	0.080375
33.933333	1	0.081375
33.950000	1	0.083250
33.966667	1	0.085500
33.983333	1	0.086625
34.000000	1	0.087875
34.016667	1	0.089125
34.033333	1	0.090250
34.050000	1	0.091250
34.066667	1	0.093000
34.083333	1	0.094375
34.100000	1	0.096000
34.116667	1	0.097750
34.133333	1	0.099500
34.150000	1	0.101000
34.166667	1	0.102750
34.183333	1	0.104625
34.200000	1	0.106500
34.216667	1	0.108375
34.233333	1	0.110125
34.250000	1	0.111625
34.266667	1	0.114125
34.283333	1	0.115875
34.300000	1	0.117625
34.316667	1	0.120125
34.333333	1	0.122500
34.350000	1	0.124125
34.366667	1	0.124750
34.383333	1	0.126875
34.400000	1	0.128375
34.416667	1	0.130000
34.433333	1	0.132125
34.450000	1	0.134000
34.466667	1	0.134875
34.483333	1	0.137125
34.500000	1	0.139000
34.516667	1	0.140375
34.533333	1	0.142125
34.550000	1	0.143000
34.566667	1	0.144250
34.583333	1	0.145125
34.600000	1	0.145625
34.616667	1	0.145750
34.633333	1	0.146500
34.650000	1	0.147500
34.666667	1	0.148250
34.683333	1	0.147875
34.700000	1	0.148125
34.716667	1	0.148750
34.733333	1	0.148750
34.750000	1	0.148750
34.766667	1	0.148500
34.783333	1	0.148625
34.800000	1	0.148625
34.816667	1	0.147875
34.833333	1	0.148375
34.850000	1	0.148000
34.866667	1	0.147125
34.883333	1	0.147250
34.900000	1	0.147375
34.916667	1	0.147000
34.933333	1	0.146750
34.950000	1	0.146625
34.966667	1	0.146125
34.983333	1	0.145625
35.000000	1	0.145750
35.016667	1	0.144875
35.033333	1	0.144625
35.050000	1	0.143250
35.066667	1	0.142625
35.083333	1	0.142375
35.100000	1	0.141125
35.116667	1	0.140375
35.133333	1	0.140250
35.150000	1	0.139500
35.166667	1	0.139250
35.183333	1	0.138625
35.200000	1	0.138000
35.216667	1	0.137625
35.233333	1	0.137000
35.250000	1	0.137000
35.266667	1	0.135625
35.283333	1	0.135500
35.300000	1	0.134125
35.316667	1	0.134125
35.333333	1	0.134500
35.350000	1	0.134875
35.366667	1	0.135125
35.383333	1	0.135625
35.400000	1	0.135000
35.416667	1	0.135125
35.433333	1	0.135625
35.450000	1	0.136250
35.466667	1	0.137250
35.483333	1	0.137875
35.500000	1	0.139125
35.516667	1	0.140250
35.533333	1	0.141500
35.550000	1	0.142875
35.566667	1	0.143875
35.583333	1	0.145125
35.600000	1	0.146875
35.616667	1	0.148250
35.633333	1	0.149125
35.650000	1	0.150750
35.666667	1	0.152000
35.683333	1	0.152625
35.700000	1	0.153750
35.716667	1	0.155125
35.733333	1	0.156500
35.750000	1	0.157625
35.766667	1	0.158500
35.783333	1	0.159250
35.800000	1	0.160000
35.816667	1	0.160875
35.833333	1	0.161375
35.850000	1	0.161625
35.866667	1	0.162125
35.883333	1	0.162500
35.900000	1	0.162750
35.916667	1	0.162000
35.933333	1	0.162500
35.950000	1	0.162500
35.966667	1	0.162125
35.983333	1	0.161000
36.000000	1	0.159625
36.016667	1	0.158375
36.033333	1	0.157500
36.050000	1	0.156875
36.066667	1	0.156500
36.083333	1	0.156000
36.100000	1	0.156000
36.116667	1	0.155750
36.133333	1	0.155250
36.150000	1	0.155500
36.166667	1	0.155500
36.183333	1	0.154875
36.200000	1	0.153875
36.216667	1	0.153250
36.233333	1	0.153000
36.250000	1	0.152375
36.266667	1	0.152000
36.283333	1	0.151625
36.300000	1	0.151250
36.316667	1	0.151750
36.333333	1	0.151875
36.350000	1	0.151750
36.366667	1	0.151875
36.383333	1	0.150750
36.400000	1	0.150750
36.416667	1	0.150375
36.433333	1	0.150125
36.450000	1	0.150500
36.466667	1	0.150250
36.483333	1	0.149500
36.500000	1	0.149750
36.516667	1	0.148750
36.533333	1	0.148125
36.550000	1	0.147125
36.566667	1	0.146000
36.583333	1	0.144875
36.600000	1	0.143500
36.616667	1	0.142000
36.633333	1	0.140250
36.650000	1	0.138875
36.666667	1	0.137875
36.683333	1	0.136250
36.700000	1	0.134375
36.716667	1	0.132000
36.733333	1	0.129625
36.750000	1	0.127375
36.766667	1	0.125000
36.783333	1	0.122625
36.800000	1	0.120000
36.816667	1	0.117125
36.833333	1	0.114125
36.850000	1	0.111250
36.866667	1	0.109625
36.883333	1	0.106875
36.900000	1	0.103875
36.916667	1	0.101500
36.933333	1	0.099000
36.950000	1	0.096125
36.966667	1	0.093250
36.983333	1	0.090875
37.000000	1	0.088250
37.016667	1	0.085375
37.033333	1	0.082500
37.050000	1	0.079875
37.066667	1	0.078125
37.083333	1	0.076250
37.100000	1	0.074000
37.116667	1	0.071875
37.133333	1	0.069500
37.150000	1	0.067500
37.166667	1	0.065625
37.183333	1	0.063875
37.200000	1	0.061875
37.216667	1	0.060125
37.233333	1	0.058375
37.250000	1	0.056625
37.266667	1	0.054750
37.283333	1	0.053375
37.300000	1	0.052125
37.316667	1	0.050875
37.333333	1	0.049500
37.350000	1	0.048500
37.366667	1	0.046625
37.383333	1	0.045125
37.400000	1	0.043750
37.416667	1	0.042625
37.433333	1	0.040625
37.450000	1	0.039250
37.466667	1	0.037875
37.483333	1	0.037250
37.500000	1	0.036625
37.516667	1	0.035875
37.533333	1	0.034500
37.550000	1	0.033625
37.566667	1	0.032750
37.583333	1	0.032000
37.600000	1	0.031500
37.616667	1	0.031000
37.633333	1	0.030250
37.650000	1	0.030000
37.666667	1	0.029750
37.683333	1	0.030000
37.700000	1	0.029875
37.716667	1	0.030000
37.733333	1	0.029750
37.750000	1	0.029375
37.766667	1	0.030375
37.783333	1	0.031000
37.800000	1	0.031750
37.816667	1	0.032000
37.833333	1	0.032625
37.850000	1	0.033250
37.866667	1	0.033625
37.883333	1	0.034250
37.900000	1	0.035375
37.916667	1	0.036000
37.933333	1	0.036500
37.950000	1	0.036875
37.966667	1	0.037750
37.983333	1	0.037625
38.000000	1	0.037875
38.016667	1	0.038500
38.033333	1	0.038000
38.050000	1	0.038000
38.066667	1	0.037875
38.083333	1	0.038125
38.100000	1	0.038375
38.116667	1	0.038875
38.133333	1	0.038625
38.150000	1	0.038875
38.166667	1	0.038875
38.183333	1	0.039500
38.200000	1	0.039250
38.216667	1	0.039375
38.233333	1	0.039250
38.250000	1	0.040000
38.266667	1	0.040000
38.283333	1	0.040250
38.300000	1	0.041000
38.316667	1	0.042000
38.333333	1	0.043250
38.350000	1	0.044000
38.366667	1	0.045375
38.383333	1	0.046375
38.400000	1	0.047125
38.416667	1	0.048250
38.433333	1	0.049250
38.450000	1	0.051250
38.466667	1	0.052625
38.483333	1	0.055375
38.500000	1	0.057875
38.516667	1	0.060125
38.533333	1	0.062875
38.550000	1	0.064375
38.566667	1	0.066625
38.583333	1	0.068250
38.600000	1	0.070500
38.616667	1	0.072250
38.633333	1	0.074750
38.650000	1	0.076875
38.666667	1	0.079000
38.683333	1	0.080875
38.700000	1	0.083000
38.716667	1	0.084750
38.733333	1	0.086750
38.750000	1	0.088125
38.766667	1	0.089375
38.783333	1	0.090750
38.800000	1	0.091500
38.816667	1	0.092875
38.833333	1	0.093625
38.850000	1	0.094125
38.866667	1	0.094750
38.883333	1	0.095625
38.900000	1	0.095750
38.916667	1	0.096125
38.933333	1	0.095875
38.950000	1	0.095875
38.966667	1	0.095500
38.983333	1	0.094875
39.000000	1	0.094500
39.016667	1	0.094000
39.033333	1	0.093000
39.050000	1	0.092625
39.066667	1	0.092000
39.083333	1	0.091250
39.100000	1	0.090625
39.116667	1	0.090250
39.133333	1	0.089250
39.150000	1	0.087750
39.166667	1	0.086750
39.183333	1	0.086250
39.200000	1	0.085625
39.216667	1	0.084500
39.233333	1	0.083875
39.250000	1	0.083625
39.266667	1	0.083375
39.283333	1	0.082250
39.300000	1	0.081875
39.316667	1	0.081750
39.333333	1	0.081250
39.350000	1	0.079875
39.366667	1	0.079875
39.383333	1	0.079750
39.400000	1	0.079625
39.416667	1	0.078750
39.433333	1	0.078125
39.450000	1	0.078125
39.466667	1	0.077500
39.483333	1	0.076875
39.500000	1	0.076250
39.516667	1	0.076125
39.533333	1	0.075375
39.550000	1	0.074750
39.566667	1	0.073500
39.583333	1	0.072000
39.600000	1	0.071000
39.616667	1	0.069750
39.633333	1	0.069000
39.650000	1	0.067375
39.666667	1	0.066250
39.683333	1	0.064750
39.700000	1	0.063000
39.716667	1	0.060750
39.733333	1	0.059125
39.750000	1	0.057750
39.766667	1	0.056125
39.783333	1	0.054750
39.800000	1	0.052750
39.816667	1	0.051375
39.833333	1	0.050500
39.850000	1	0.049375
39.866667	1	0.048750
39.883333	1	0.047625
39.900000	1	0.046375
39.916667	1	0.045750
39.933333	1	0.045000
39.950000	1	0.044125
39.966667	1	0.043625
39.983333	1	0.043125
40.000000	1	0.043125
