URL	chrom://bioreactor/micro_cm7/HPLC_Ultimate_3000/Users/markusar/20240708_MA_pHrange1.seq/621.smp/RI_1.channel/RI_1.chm
Channel	RI_1

Injection Information:
Data Vault	micro_cm7
Sequence	20240708_MA_pHrange1
Name	Pv3_20H_3
Number	44
Position	BD8
Comment	
Processing Method	
Instrument Method	run_25B_method
Type	Unknown
Status	Finished
Inject Time	09.07.2024 20:56:20 +02:00
Volume (µl)	20.0000
Dilution Factor	1.0000
Weight	1.0000

Chromatogram Data Information:
Time Min. (min)	0.000000
Time Max. (min)	40.000000
Data Points	2401
Detector	RI
Generating Data System	Chromeleon 7.3.2.11814
Exporting Data System	Chromeleon 7.3.2.0
Operator	Instrument Controller
Signal Quantity	Refractive 
Signal Unit	µRIU
Signal Min.	-0.109875
Signal Max.	84.107125
Channel	RI_1
Driver Name	RID520Driver.dll
Channel Type	Evaluation
Min. Step (s)	1
Max. Step (s)	1
Average Step (s)	1

Signal Parameter Information:
Signal Info	

Chromatogram Data:
Time (min)	Step (s)	Value (µRIU)
0.000000	n.a.	0.010125
0.016667	1	0.011500
0.033333	1	0.013250
0.050000	1	0.014625
0.066667	1	0.016500
0.083333	1	0.017750
0.100000	1	0.018750
0.116667	1	0.019375
0.133333	1	0.019875
0.150000	1	0.021000
0.166667	1	0.020875
0.183333	1	0.021000
0.200000	1	0.021375
0.216667	1	0.021375
0.233333	1	0.021125
0.250000	1	0.020875
0.266667	1	0.020625
0.283333	1	0.020250
0.300000	1	0.020000
0.316667	1	0.019250
0.333333	1	0.019000
0.350000	1	0.018000
0.366667	1	0.016875
0.383333	1	0.015500
0.400000	1	0.014000
0.416667	1	0.012750
0.433333	1	0.012375
0.450000	1	0.013125
0.466667	1	0.014375
0.483333	1	0.015125
0.500000	1	0.015500
0.516667	1	0.015750
0.533333	1	0.015125
0.550000	1	0.014500
0.566667	1	0.013750
0.583333	1	0.012000
0.600000	1	0.010500
0.616667	1	0.009375
0.633333	1	0.008500
0.650000	1	0.007875
0.666667	1	0.007750
0.683333	1	0.007750
0.700000	1	0.007875
0.716667	1	0.008000
0.733333	1	0.008125
0.750000	1	0.009000
0.766667	1	0.009375
0.783333	1	0.009875
0.800000	1	0.010000
0.816667	1	0.011250
0.833333	1	0.011875
0.850000	1	0.012250
0.866667	1	0.012500
0.883333	1	0.013250
0.900000	1	0.013375
0.916667	1	0.014625
0.933333	1	0.015500
0.950000	1	0.015750
0.966667	1	0.016375
0.983333	1	0.016750
1.000000	1	0.016625
1.016667	1	0.016875
1.033333	1	0.017375
1.050000	1	0.017750
1.066667	1	0.017750
1.083333	1	0.018000
1.100000	1	0.018625
1.116667	1	0.018625
1.133333	1	0.018500
1.150000	1	0.019250
1.166667	1	0.019625
1.183333	1	0.019125
1.200000	1	0.019625
1.216667	1	0.019750
1.233333	1	0.019500
1.250000	1	0.019000
1.266667	1	0.018625
1.283333	1	0.018625
1.300000	1	0.017875
1.316667	1	0.017375
1.333333	1	0.016625
1.350000	1	0.016250
1.366667	1	0.015125
1.383333	1	0.013875
1.400000	1	0.012750
1.416667	1	0.011500
1.433333	1	0.009625
1.450000	1	0.008250
1.466667	1	0.006750
1.483333	1	0.005250
1.500000	1	0.003375
1.516667	1	0.001875
1.533333	1	0.000375
1.550000	1	-0.001250
1.566667	1	-0.002875
1.583333	1	-0.004875
1.600000	1	-0.007125
1.616667	1	-0.008750
1.633333	1	-0.010000
1.650000	1	-0.009875
1.666667	1	-0.010625
1.683333	1	-0.011625
1.700000	1	-0.012375
1.716667	1	-0.013375
1.733333	1	-0.013625
1.750000	1	-0.013875
1.766667	1	-0.013875
1.783333	1	-0.013500
1.800000	1	-0.012875
1.816667	1	-0.012750
1.833333	1	-0.012375
1.850000	1	-0.011750
1.866667	1	-0.010375
1.883333	1	-0.009000
1.900000	1	-0.008125
1.916667	1	-0.006750
1.933333	1	-0.005875
1.950000	1	-0.005125
1.966667	1	-0.004750
1.983333	1	-0.004625
2.000000	1	-0.004750
2.016667	1	-0.004500
2.033333	1	-0.004375
2.050000	1	-0.004500
2.066667	1	-0.005625
2.083333	1	-0.005375
2.100000	1	-0.005500
2.116667	1	-0.005500
2.133333	1	-0.006750
2.150000	1	-0.008000
2.166667	1	-0.009000
2.183333	1	-0.010250
2.200000	1	-0.011625
2.216667	1	-0.012625
2.233333	1	-0.014000
2.250000	1	-0.015125
2.266667	1	-0.016375
2.283333	1	-0.017500
2.300000	1	-0.018875
2.316667	1	-0.019875
2.333333	1	-0.020875
2.350000	1	-0.021500
2.366667	1	-0.022250
2.383333	1	-0.023125
2.400000	1	-0.023125
2.416667	1	-0.023625
2.433333	1	-0.023250
2.450000	1	-0.022500
2.466667	1	-0.022000
2.483333	1	-0.022000
2.500000	1	-0.021750
2.516667	1	-0.020625
2.533333	1	-0.020000
2.550000	1	-0.019375
2.566667	1	-0.018500
2.583333	1	-0.016500
2.600000	1	-0.015250
2.616667	1	-0.013875
2.633333	1	-0.012375
2.650000	1	-0.010625
2.666667	1	-0.008250
2.683333	1	-0.006750
2.700000	1	-0.005250
2.716667	1	-0.003500
2.733333	1	-0.002625
2.750000	1	-0.000750
2.766667	1	0.001250
2.783333	1	0.002750
2.800000	1	0.004375
2.816667	1	0.006000
2.833333	1	0.007125
2.850000	1	0.008750
2.866667	1	0.009500
2.883333	1	0.011000
2.900000	1	0.012375
2.916667	1	0.014125
2.933333	1	0.015000
2.950000	1	0.015750
2.966667	1	0.017000
2.983333	1	0.017625
3.000000	1	0.018625
3.016667	1	0.020250
3.033333	1	0.021750
3.050000	1	0.022500
3.066667	1	0.023625
3.083333	1	0.024375
3.100000	1	0.025375
3.116667	1	0.026125
3.133333	1	0.027625
3.150000	1	0.028750
3.166667	1	0.030125
3.183333	1	0.030625
3.200000	1	0.032375
3.216667	1	0.033750
3.233333	1	0.034625
3.250000	1	0.035625
3.266667	1	0.037375
3.283333	1	0.039125
3.300000	1	0.040375
3.316667	1	0.042125
3.333333	1	0.043500
3.350000	1	0.044500
3.366667	1	0.045375
3.383333	1	0.046500
3.400000	1	0.048125
3.416667	1	0.049125
3.433333	1	0.050500
3.450000	1	0.051875
3.466667	1	0.053750
3.483333	1	0.054250
3.500000	1	0.055375
3.516667	1	0.056375
3.533333	1	0.056750
3.550000	1	0.057625
3.566667	1	0.057875
3.583333	1	0.058250
3.600000	1	0.059000
3.616667	1	0.059250
3.633333	1	0.059625
3.650000	1	0.059875
3.666667	1	0.060000
3.683333	1	0.059375
3.700000	1	0.058250
3.716667	1	0.057125
3.733333	1	0.055875
3.750000	1	0.054750
3.766667	1	0.053125
3.783333	1	0.051500
3.800000	1	0.050125
3.816667	1	0.048250
3.833333	1	0.046500
3.850000	1	0.044625
3.866667	1	0.042500
3.883333	1	0.040750
3.900000	1	0.038250
3.916667	1	0.035375
3.933333	1	0.032625
3.950000	1	0.030625
3.966667	1	0.028500
3.983333	1	0.025750
4.000000	1	0.024125
4.016667	1	0.022125
4.033333	1	0.020125
4.050000	1	0.017750
4.066667	1	0.016625
4.083333	1	0.016125
4.100000	1	0.016000
4.116667	1	0.015875
4.133333	1	0.016375
4.150000	1	0.016750
4.166667	1	0.017875
4.183333	1	0.018750
4.200000	1	0.020125
4.216667	1	0.020750
4.233333	1	0.022250
4.250000	1	0.025000
4.266667	1	0.028000
4.283333	1	0.031375
4.300000	1	0.034500
4.316667	1	0.037500
4.333333	1	0.041250
4.350000	1	0.044500
4.366667	1	0.047875
4.383333	1	0.051625
4.400000	1	0.055750
4.416667	1	0.059500
4.433333	1	0.063750
4.450000	1	0.067500
4.466667	1	0.070750
4.483333	1	0.074125
4.500000	1	0.078000
4.516667	1	0.081000
4.533333	1	0.084500
4.550000	1	0.087375
4.566667	1	0.089375
4.583333	1	0.090875
4.600000	1	0.093125
4.616667	1	0.095000
4.633333	1	0.097375
4.650000	1	0.099750
4.666667	1	0.100500
4.683333	1	0.100625
4.700000	1	0.101125
4.716667	1	0.101875
4.733333	1	0.102375
4.750000	1	0.103125
4.766667	1	0.103250
4.783333	1	0.103250
4.800000	1	0.103375
4.816667	1	0.103750
4.833333	1	0.103375
4.850000	1	0.103625
4.866667	1	0.103875
4.883333	1	0.104625
4.900000	1	0.106375
4.916667	1	0.108875
4.933333	1	0.110375
4.950000	1	0.112375
4.966667	1	0.114625
4.983333	1	0.117250
5.000000	1	0.120000
5.016667	1	0.123000
5.033333	1	0.126750
5.050000	1	0.131125
5.066667	1	0.135375
5.083333	1	0.139750
5.100000	1	0.145250
5.116667	1	0.150625
5.133333	1	0.156000
5.150000	1	0.161500
5.166667	1	0.167750
5.183333	1	0.174125
5.200000	1	0.180500
5.216667	1	0.186250
5.233333	1	0.192125
5.250000	1	0.198625
5.266667	1	0.204875
5.283333	1	0.211000
5.300000	1	0.216750
5.316667	1	0.221000
5.333333	1	0.227000
5.350000	1	0.231750
5.366667	1	0.236250
5.383333	1	0.240375
5.400000	1	0.244625
5.416667	1	0.247875
5.433333	1	0.250750
5.450000	1	0.253000
5.466667	1	0.255375
5.483333	1	0.256500
5.500000	1	0.257875
5.516667	1	0.258500
5.533333	1	0.259250
5.550000	1	0.258750
5.566667	1	0.258250
5.583333	1	0.257500
5.600000	1	0.256500
5.616667	1	0.254625
5.633333	1	0.253125
5.650000	1	0.250500
5.666667	1	0.248000
5.683333	1	0.245750
5.700000	1	0.244000
5.716667	1	0.240125
5.733333	1	0.237375
5.750000	1	0.234000
5.766667	1	0.231250
5.783333	1	0.228875
5.800000	1	0.225875
5.816667	1	0.222875
5.833333	1	0.219250
5.850000	1	0.215625
5.866667	1	0.211875
5.883333	1	0.208250
5.900000	1	0.204750
5.916667	1	0.201000
5.933333	1	0.197625
5.950000	1	0.193875
5.966667	1	0.189750
5.983333	1	0.186000
6.000000	1	0.182000
6.016667	1	0.177875
6.033333	1	0.174375
6.050000	1	0.170625
6.066667	1	0.166625
6.083333	1	0.161625
6.100000	1	0.157375
6.116667	1	0.154000
6.133333	1	0.149875
6.150000	1	0.145250
6.166667	1	0.140500
6.183333	1	0.136250
6.200000	1	0.131750
6.216667	1	0.127250
6.233333	1	0.122875
6.250000	1	0.118125
6.266667	1	0.113750
6.283333	1	0.109500
6.300000	1	0.105625
6.316667	1	0.101875
6.333333	1	0.097875
6.350000	1	0.095125
6.366667	1	0.091125
6.383333	1	0.088250
6.400000	1	0.086000
6.416667	1	0.082875
6.433333	1	0.080500
6.450000	1	0.078750
6.466667	1	0.076875
6.483333	1	0.075375
6.500000	1	0.074125
6.516667	1	0.073000
6.533333	1	0.072375
6.550000	1	0.072250
6.566667	1	0.071500
6.583333	1	0.070875
6.600000	1	0.071250
6.616667	1	0.071750
6.633333	1	0.072125
6.650000	1	0.072250
6.666667	1	0.073000
6.683333	1	0.073125
6.700000	1	0.074000
6.716667	1	0.074000
6.733333	1	0.074875
6.750000	1	0.075375
6.766667	1	0.076000
6.783333	1	0.077125
6.800000	1	0.077750
6.816667	1	0.078750
6.833333	1	0.079625
6.850000	1	0.081250
6.866667	1	0.082125
6.883333	1	0.083625
6.900000	1	0.084500
6.916667	1	0.085500
6.933333	1	0.087250
6.950000	1	0.089125
6.966667	1	0.090875
6.983333	1	0.092375
7.000000	1	0.094000
7.016667	1	0.096375
7.033333	1	0.098625
7.050000	1	0.101000
7.066667	1	0.103750
7.083333	1	0.106750
7.100000	1	0.109625
7.116667	1	0.112750
7.133333	1	0.116625
7.150000	1	0.120375
7.166667	1	0.123875
7.183333	1	0.127250
7.200000	1	0.131125
7.216667	1	0.134375
7.233333	1	0.137375
7.250000	1	0.139750
7.266667	1	0.143250
7.283333	1	0.146250
7.300000	1	0.149500
7.316667	1	0.152625
7.333333	1	0.155750
7.350000	1	0.158625
7.366667	1	0.160625
7.383333	1	0.163000
7.400000	1	0.165000
7.416667	1	0.166625
7.433333	1	0.168000
7.450000	1	0.168875
7.466667	1	0.169250
7.483333	1	0.169375
7.500000	1	0.169375
7.516667	1	0.168750
7.533333	1	0.168250
7.550000	1	0.167500
7.566667	1	0.166125
7.583333	1	0.164375
7.600000	1	0.162375
7.616667	1	0.159875
7.633333	1	0.157000
7.650000	1	0.153625
7.666667	1	0.150125
7.683333	1	0.146875
7.700000	1	0.142375
7.716667	1	0.138500
7.733333	1	0.135000
7.750000	1	0.130750
7.766667	1	0.126750
7.783333	1	0.121500
7.800000	1	0.117500
7.816667	1	0.113250
7.833333	1	0.107875
7.850000	1	0.103625
7.866667	1	0.099250
7.883333	1	0.095000
7.900000	1	0.090375
7.916667	1	0.086250
7.933333	1	0.082375
7.950000	1	0.078125
7.966667	1	0.074625
7.983333	1	0.071500
8.000000	1	0.068250
8.016667	1	0.064125
8.033333	1	0.061125
8.050000	1	0.057625
8.066667	1	0.055250
8.083333	1	0.052375
8.100000	1	0.050375
8.116667	1	0.048250
8.133333	1	0.046000
8.150000	1	0.044250
8.166667	1	0.042625
8.183333	1	0.041125
8.200000	1	0.040250
8.216667	1	0.039125
8.233333	1	0.037500
8.250000	1	0.036250
8.266667	1	0.035625
8.283333	1	0.034250
8.300000	1	0.032750
8.316667	1	0.032000
8.333333	1	0.031000
8.350000	1	0.029875
8.366667	1	0.028875
8.383333	1	0.027125
8.400000	1	0.025875
8.416667	1	0.024375
8.433333	1	0.023125
8.450000	1	0.021625
8.466667	1	0.020500
8.483333	1	0.019375
8.500000	1	0.017500
8.516667	1	0.015625
8.533333	1	0.014875
8.550000	1	0.013125
8.566667	1	0.011125
8.583333	1	0.010250
8.600000	1	0.008625
8.616667	1	0.007000
8.633333	1	0.005625
8.650000	1	0.004875
8.666667	1	0.004250
8.683333	1	0.003125
8.700000	1	0.002500
8.716667	1	0.001875
8.733333	1	0.001375
8.750000	1	0.000625
8.766667	1	-0.000375
8.783333	1	-0.000625
8.800000	1	-0.001750
8.816667	1	-0.002625
8.833333	1	-0.003125
8.850000	1	-0.004375
8.866667	1	-0.005500
8.883333	1	-0.006250
8.900000	1	-0.007250
8.916667	1	-0.008500
8.933333	1	-0.010125
8.950000	1	-0.011500
8.966667	1	-0.013000
8.983333	1	-0.014875
9.000000	1	-0.016625
9.016667	1	-0.017875
9.033333	1	-0.019375
9.050000	1	-0.021500
9.066667	1	-0.023500
9.083333	1	-0.025875
9.100000	1	-0.028250
9.116667	1	-0.030875
9.133333	1	-0.033375
9.150000	1	-0.034875
9.166667	1	-0.036625
9.183333	1	-0.038750
9.200000	1	-0.040250
9.216667	1	-0.042500
9.233333	1	-0.044875
9.250000	1	-0.046750
9.266667	1	-0.048000
9.283333	1	-0.048750
9.300000	1	-0.049125
9.316667	1	-0.049000
9.333333	1	-0.049125
9.350000	1	-0.048500
9.366667	1	-0.048125
9.383333	1	-0.048500
9.400000	1	-0.047500
9.416667	1	-0.047125
9.433333	1	-0.046625
9.450000	1	-0.045250
9.466667	1	-0.044250
9.483333	1	-0.042375
9.500000	1	-0.040750
9.516667	1	-0.039250
9.533333	1	-0.036625
9.550000	1	-0.034750
9.566667	1	-0.032750
9.583333	1	-0.030625
9.600000	1	-0.028625
9.616667	1	-0.026875
9.633333	1	-0.024625
9.650000	1	-0.022875
9.666667	1	-0.021250
9.683333	1	-0.019750
9.700000	1	-0.017125
9.716667	1	-0.015250
9.733333	1	-0.013500
9.750000	1	-0.012000
9.766667	1	-0.010625
9.783333	1	-0.010375
9.800000	1	-0.009500
9.816667	1	-0.008375
9.833333	1	-0.007750
9.850000	1	-0.006500
9.866667	1	-0.005625
9.883333	1	-0.005125
9.900000	1	-0.004750
9.916667	1	-0.004375
9.933333	1	-0.004125
9.950000	1	-0.005125
9.966667	1	-0.005500
9.983333	1	-0.005500
10.000000	1	-0.005875
10.016667	1	-0.006500
10.033333	1	-0.006875
10.050000	1	-0.007000
10.066667	1	-0.006625
10.083333	1	-0.005750
10.100000	1	-0.004000
10.116667	1	-0.002375
10.133333	1	0.000750
10.150000	1	0.004125
10.166667	1	0.008875
10.183333	1	0.015500
10.200000	1	0.023375
10.216667	1	0.032250
10.233333	1	0.042625
10.250000	1	0.055125
10.266667	1	0.068875
10.283333	1	0.084125
10.300000	1	0.101750
10.316667	1	0.120625
10.333333	1	0.141750
10.350000	1	0.162250
10.366667	1	0.182875
10.383333	1	0.199375
10.400000	1	0.208500
10.416667	1	0.206625
10.433333	1	0.186875
10.450000	1	0.147125
10.466667	1	0.086750
10.483333	1	0.011500
10.500000	1	-0.062750
10.516667	1	-0.109875
10.533333	1	-0.082750
10.550000	1	0.077750
10.566667	1	0.445500
10.583333	1	1.098625
10.600000	1	2.116000
10.616667	1	3.568875
10.633333	1	5.514500
10.650000	1	7.993625
10.666667	1	11.034750
10.683333	1	14.654000
10.700000	1	18.855750
10.716667	1	23.628875
10.733333	1	28.952375
10.750000	1	34.790500
10.766667	1	41.081625
10.783333	1	47.748875
10.800000	1	54.672875
10.816667	1	61.666375
10.833333	1	68.434750
10.850000	1	74.548500
10.866667	1	79.426625
10.883333	1	82.370750
10.900000	1	82.717750
10.916667	1	80.082125
10.933333	1	74.567875
10.950000	1	66.798375
10.966667	1	57.733375
10.983333	1	48.378750
11.000000	1	39.533500
11.016667	1	31.691000
11.033333	1	25.060500
11.050000	1	19.648875
11.066667	1	15.344000
11.083333	1	11.990000
11.100000	1	9.414000
11.116667	1	7.458750
11.133333	1	5.984875
11.150000	1	4.877250
11.166667	1	4.044500
11.183333	1	3.415125
11.200000	1	2.935875
11.216667	1	2.568500
11.233333	1	2.281375
11.250000	1	2.056000
11.266667	1	1.874125
11.283333	1	1.726125
11.300000	1	1.603500
11.316667	1	1.501500
11.333333	1	1.414500
11.350000	1	1.340625
11.366667	1	1.277500
11.383333	1	1.222750
11.400000	1	1.175875
11.416667	1	1.135625
11.433333	1	1.101875
11.450000	1	1.072375
11.466667	1	1.047625
11.483333	1	1.026125
11.500000	1	1.008125
11.516667	1	0.993000
11.533333	1	0.980125
11.550000	1	0.970375
11.566667	1	0.962250
11.583333	1	0.955500
11.600000	1	0.950750
11.616667	1	0.946875
11.633333	1	0.945875
11.650000	1	0.946250
11.666667	1	0.948000
11.683333	1	0.950750
11.700000	1	0.955750
11.716667	1	0.962125
11.733333	1	0.969125
11.750000	1	0.977750
11.766667	1	0.987000
11.783333	1	0.997375
11.800000	1	1.008375
11.816667	1	1.019875
11.833333	1	1.032250
11.850000	1	1.043875
11.866667	1	1.054125
11.883333	1	1.064125
11.900000	1	1.072625
11.916667	1	1.080500
11.933333	1	1.087000
11.950000	1	1.092750
11.966667	1	1.097125
11.983333	1	1.101125
12.000000	1	1.103875
12.016667	1	1.106875
12.033333	1	1.110000
12.050000	1	1.112500
12.066667	1	1.115250
12.083333	1	1.118375
12.100000	1	1.121375
12.116667	1	1.124625
12.133333	1	1.128500
12.150000	1	1.132750
12.166667	1	1.136625
12.183333	1	1.141625
12.200000	1	1.147000
12.216667	1	1.153250
12.233333	1	1.161750
12.250000	1	1.171500
12.266667	1	1.184000
12.283333	1	1.199125
12.300000	1	1.218250
12.316667	1	1.243125
12.333333	1	1.275000
12.350000	1	1.317125
12.366667	1	1.371625
12.383333	1	1.442500
12.400000	1	1.534625
12.416667	1	1.651750
12.433333	1	1.799875
12.450000	1	1.984000
12.466667	1	2.211750
12.483333	1	2.486875
12.500000	1	2.815500
12.516667	1	3.200750
12.533333	1	3.646875
12.550000	1	4.154125
12.566667	1	4.718625
12.583333	1	5.337875
12.600000	1	6.003125
12.616667	1	6.702875
12.633333	1	7.423125
12.650000	1	8.150125
12.666667	1	8.869500
12.683333	1	9.567000
12.700000	1	10.232875
12.716667	1	10.858375
12.733333	1	11.442500
12.750000	1	11.985750
12.766667	1	12.495000
12.783333	1	12.980500
12.800000	1	13.450750
12.816667	1	13.918750
12.833333	1	14.394500
12.850000	1	14.885750
12.866667	1	15.403250
12.883333	1	15.950250
12.900000	1	16.529250
12.916667	1	17.142375
12.933333	1	17.788500
12.950000	1	18.467000
12.966667	1	19.177000
12.983333	1	19.916125
13.000000	1	20.682250
13.016667	1	21.474125
13.033333	1	22.290625
13.050000	1	23.131375
13.066667	1	23.994750
13.083333	1	24.880125
13.100000	1	25.786875
13.116667	1	26.714375
13.133333	1	27.661250
13.150000	1	28.626000
13.166667	1	29.610375
13.183333	1	30.613875
13.200000	1	31.636000
13.216667	1	32.676000
13.233333	1	33.734500
13.250000	1	34.814000
13.266667	1	35.913625
13.283333	1	37.035000
13.300000	1	38.176500
13.316667	1	39.340500
13.333333	1	40.526500
13.350000	1	41.735000
13.366667	1	42.966125
13.383333	1	44.221625
13.400000	1	45.498625
13.416667	1	46.799750
13.433333	1	48.126375
13.450000	1	49.479500
13.466667	1	50.862000
13.483333	1	52.272625
13.500000	1	53.714250
13.516667	1	55.185125
13.533333	1	56.684500
13.550000	1	58.213875
13.566667	1	59.774625
13.583333	1	61.366500
13.600000	1	62.988625
13.616667	1	64.643750
13.633333	1	66.333500
13.650000	1	68.058250
13.666667	1	69.821875
13.683333	1	71.624250
13.700000	1	73.464500
13.716667	1	75.342750
13.733333	1	77.254000
13.750000	1	79.172875
13.766667	1	81.021250
13.783333	1	82.636625
13.800000	1	83.766875
13.816667	1	84.107125
13.833333	1	83.349750
13.850000	1	81.217750
13.866667	1	77.485375
13.883333	1	72.038500
13.900000	1	64.986625
13.916667	1	56.766750
13.933333	1	48.073375
13.950000	1	39.656375
13.966667	1	32.098000
13.983333	1	25.694875
14.000000	1	20.490125
14.016667	1	16.369250
14.033333	1	13.163125
14.050000	1	10.702125
14.066667	1	8.837750
14.083333	1	7.443250
14.100000	1	6.409750
14.116667	1	5.647125
14.133333	1	5.084750
14.150000	1	4.665375
14.166667	1	4.348375
14.183333	1	4.105000
14.200000	1	3.912625
14.216667	1	3.758000
14.233333	1	3.630125
14.250000	1	3.522250
14.266667	1	3.429000
14.283333	1	3.347625
14.300000	1	3.275625
14.316667	1	3.211250
14.333333	1	3.152875
14.350000	1	3.100750
14.366667	1	3.055125
14.383333	1	3.015000
14.400000	1	2.982375
14.416667	1	2.957375
14.433333	1	2.942750
14.450000	1	2.940125
14.466667	1	2.954250
14.483333	1	2.991000
14.500000	1	3.057250
14.516667	1	3.166250
14.533333	1	3.331250
14.550000	1	3.575250
14.566667	1	3.926375
14.583333	1	4.420750
14.600000	1	5.104125
14.616667	1	6.032500
14.633333	1	7.272875
14.650000	1	8.897500
14.666667	1	10.982500
14.683333	1	13.598500
14.700000	1	16.802250
14.716667	1	20.624875
14.733333	1	25.068750
14.750000	1	30.099000
14.766667	1	35.626250
14.783333	1	41.501750
14.800000	1	47.538375
14.816667	1	53.510625
14.833333	1	59.163500
14.850000	1	64.226250
14.866667	1	68.440750
14.883333	1	71.584250
14.900000	1	73.493875
14.916667	1	74.077625
14.933333	1	73.328125
14.950000	1	71.313375
14.966667	1	68.177500
14.983333	1	64.124625
15.000000	1	59.381375
15.016667	1	54.184750
15.033333	1	48.764875
15.050000	1	43.334750
15.066667	1	38.075000
15.083333	1	33.121000
15.100000	1	28.570000
15.116667	1	24.477375
15.133333	1	20.861375
15.150000	1	17.716625
15.166667	1	15.018750
15.183333	1	12.732125
15.200000	1	10.811500
15.216667	1	9.211500
15.233333	1	7.886250
15.250000	1	6.795500
15.266667	1	5.903625
15.283333	1	5.177125
15.300000	1	4.589875
15.316667	1	4.117375
15.333333	1	3.739250
15.350000	1	3.439625
15.366667	1	3.205000
15.383333	1	3.022875
15.400000	1	2.885125
15.416667	1	2.782875
15.433333	1	2.708125
15.450000	1	2.655250
15.466667	1	2.619375
15.483333	1	2.595000
15.500000	1	2.577125
15.516667	1	2.562125
15.533333	1	2.547250
15.550000	1	2.529500
15.566667	1	2.506875
15.583333	1	2.478750
15.600000	1	2.445250
15.616667	1	2.407500
15.633333	1	2.366125
15.650000	1	2.322625
15.666667	1	2.278000
15.683333	1	2.233750
15.700000	1	2.190375
15.716667	1	2.148750
15.733333	1	2.109250
15.750000	1	2.071250
15.766667	1	2.035000
15.783333	1	1.999250
15.800000	1	1.964250
15.816667	1	1.929375
15.833333	1	1.894625
15.850000	1	1.859000
15.866667	1	1.823375
15.883333	1	1.788750
15.900000	1	1.755250
15.916667	1	1.723625
15.933333	1	1.693625
15.950000	1	1.667000
15.966667	1	1.643625
15.983333	1	1.624500
16.000000	1	1.608500
16.016667	1	1.595625
16.033333	1	1.586000
16.050000	1	1.579375
16.066667	1	1.574125
16.083333	1	1.570500
16.100000	1	1.566125
16.116667	1	1.562375
16.133333	1	1.558500
16.150000	1	1.552500
16.166667	1	1.545875
16.183333	1	1.537125
16.200000	1	1.527375
16.216667	1	1.515625
16.233333	1	1.502375
16.250000	1	1.488625
16.266667	1	1.472875
16.283333	1	1.456625
16.300000	1	1.440000
16.316667	1	1.423375
16.333333	1	1.406500
16.350000	1	1.390375
16.366667	1	1.374875
16.383333	1	1.359625
16.400000	1	1.346625
16.416667	1	1.334875
16.433333	1	1.324500
16.450000	1	1.316625
16.466667	1	1.310500
16.483333	1	1.307375
16.500000	1	1.306875
16.516667	1	1.308875
16.533333	1	1.313250
16.550000	1	1.319000
16.566667	1	1.325625
16.583333	1	1.334250
16.600000	1	1.342375
16.616667	1	1.349375
16.633333	1	1.355500
16.650000	1	1.361000
16.666667	1	1.364750
16.683333	1	1.366375
16.700000	1	1.366875
16.716667	1	1.366125
16.733333	1	1.364000
16.750000	1	1.362125
16.766667	1	1.359250
16.783333	1	1.357125
16.800000	1	1.355500
16.816667	1	1.354125
16.833333	1	1.354750
16.850000	1	1.355500
16.866667	1	1.356625
16.883333	1	1.357625
16.900000	1	1.358750
16.916667	1	1.358625
16.933333	1	1.357625
16.950000	1	1.356000
16.966667	1	1.353125
16.983333	1	1.349125
17.000000	1	1.344000
17.016667	1	1.337375
17.033333	1	1.330500
17.050000	1	1.322375
17.066667	1	1.314125
17.083333	1	1.305875
17.100000	1	1.298000
17.116667	1	1.291375
17.133333	1	1.284500
17.150000	1	1.278625
17.166667	1	1.274250
17.183333	1	1.270125
17.200000	1	1.267875
17.216667	1	1.266750
17.233333	1	1.266375
17.250000	1	1.267125
17.266667	1	1.269250
17.283333	1	1.271875
17.300000	1	1.274750
17.316667	1	1.278125
17.333333	1	1.281625
17.350000	1	1.285875
17.366667	1	1.290125
17.383333	1	1.294000
17.400000	1	1.298750
17.416667	1	1.302375
17.433333	1	1.305625
17.450000	1	1.307750
17.466667	1	1.309125
17.483333	1	1.309375
17.500000	1	1.307875
17.516667	1	1.304125
17.533333	1	1.299000
17.550000	1	1.291500
17.566667	1	1.282875
17.583333	1	1.272500
17.600000	1	1.260625
17.616667	1	1.247375
17.633333	1	1.232625
17.650000	1	1.216750
17.666667	1	1.200125
17.683333	1	1.182500
17.700000	1	1.165250
17.716667	1	1.147875
17.733333	1	1.130250
17.750000	1	1.113750
17.766667	1	1.097500
17.783333	1	1.081875
17.800000	1	1.066375
17.816667	1	1.052000
17.833333	1	1.038500
17.850000	1	1.026500
17.866667	1	1.014875
17.883333	1	1.003750
17.900000	1	0.993625
17.916667	1	0.984625
17.933333	1	0.975875
17.950000	1	0.967625
17.966667	1	0.959750
17.983333	1	0.952375
18.000000	1	0.945500
18.016667	1	0.937875
18.033333	1	0.930625
18.050000	1	0.923750
18.066667	1	0.917500
18.083333	1	0.910625
18.100000	1	0.904875
18.116667	1	0.899125
18.133333	1	0.893750
18.150000	1	0.888875
18.166667	1	0.884750
18.183333	1	0.881125
18.200000	1	0.878000
18.216667	1	0.875625
18.233333	1	0.874625
18.250000	1	0.873875
18.266667	1	0.874250
18.283333	1	0.875125
18.300000	1	0.876750
18.316667	1	0.878750
18.333333	1	0.880500
18.350000	1	0.883375
18.366667	1	0.886625
18.383333	1	0.889625
18.400000	1	0.893250
18.416667	1	0.897375
18.433333	1	0.902375
18.450000	1	0.908125
18.466667	1	0.915000
18.483333	1	0.922250
18.500000	1	0.931875
18.516667	1	0.943375
18.533333	1	0.956250
18.550000	1	0.970750
18.566667	1	0.987625
18.583333	1	1.006250
18.600000	1	1.026750
18.616667	1	1.048625
18.633333	1	1.072875
18.650000	1	1.098875
18.666667	1	1.126625
18.683333	1	1.157000
18.700000	1	1.188125
18.716667	1	1.221000
18.733333	1	1.254750
18.750000	1	1.289750
18.766667	1	1.325250
18.783333	1	1.361375
18.800000	1	1.397000
18.816667	1	1.432250
18.833333	1	1.466125
18.850000	1	1.497375
18.866667	1	1.526000
18.883333	1	1.551500
18.900000	1	1.571750
18.916667	1	1.586625
18.933333	1	1.594500
18.950000	1	1.596750
18.966667	1	1.592000
18.983333	1	1.580250
19.000000	1	1.560750
19.016667	1	1.534625
19.033333	1	1.502375
19.050000	1	1.464250
19.066667	1	1.421750
19.083333	1	1.375375
19.100000	1	1.327375
19.116667	1	1.278375
19.133333	1	1.230250
19.150000	1	1.185625
19.166667	1	1.144250
19.183333	1	1.109750
19.200000	1	1.082625
19.216667	1	1.063500
19.233333	1	1.056500
19.250000	1	1.062375
19.266667	1	1.082375
19.283333	1	1.118250
19.300000	1	1.170875
19.316667	1	1.242750
19.333333	1	1.333750
19.350000	1	1.445625
19.366667	1	1.577500
19.383333	1	1.728125
19.400000	1	1.896125
19.416667	1	2.079875
19.433333	1	2.274375
19.450000	1	2.476625
19.466667	1	2.680000
19.483333	1	2.880000
19.500000	1	3.070750
19.516667	1	3.245250
19.533333	1	3.398125
19.550000	1	3.525000
19.566667	1	3.620625
19.583333	1	3.682000
19.600000	1	3.707875
19.616667	1	3.697375
19.633333	1	3.652000
19.650000	1	3.574250
19.666667	1	3.467500
19.683333	1	3.336250
19.700000	1	3.184875
19.716667	1	3.018875
19.733333	1	2.843250
19.750000	1	2.662500
19.766667	1	2.481125
19.783333	1	2.302750
19.800000	1	2.130125
19.816667	1	1.966000
19.833333	1	1.811625
19.850000	1	1.668750
19.866667	1	1.537625
19.883333	1	1.417750
19.900000	1	1.309625
19.916667	1	1.213125
19.933333	1	1.126125
19.950000	1	1.050125
19.966667	1	0.983000
19.983333	1	0.923625
20.000000	1	0.872750
20.016667	1	0.829625
20.033333	1	0.793250
20.050000	1	0.763250
20.066667	1	0.739000
20.083333	1	0.720625
20.100000	1	0.707125
20.116667	1	0.698625
20.133333	1	0.695125
20.150000	1	0.695375
20.166667	1	0.699000
20.183333	1	0.706750
20.200000	1	0.716625
20.216667	1	0.729375
20.233333	1	0.743125
20.250000	1	0.757125
20.266667	1	0.771500
20.283333	1	0.785625
20.300000	1	0.797875
20.316667	1	0.807750
20.333333	1	0.815875
20.350000	1	0.820750
20.366667	1	0.821750
20.383333	1	0.819500
20.400000	1	0.814875
20.416667	1	0.805875
20.433333	1	0.795375
20.450000	1	0.783125
20.466667	1	0.768250
20.483333	1	0.754500
20.500000	1	0.740125
20.516667	1	0.728000
20.533333	1	0.717250
20.550000	1	0.710750
20.566667	1	0.709375
20.583333	1	0.712875
20.600000	1	0.722500
20.616667	1	0.739625
20.633333	1	0.764250
20.650000	1	0.797875
20.666667	1	0.839250
20.683333	1	0.888875
20.700000	1	0.946500
20.716667	1	1.013125
20.733333	1	1.085625
20.750000	1	1.163625
20.766667	1	1.245500
20.783333	1	1.328875
20.800000	1	1.411000
20.816667	1	1.489375
20.833333	1	1.561500
20.850000	1	1.624750
20.866667	1	1.676875
20.883333	1	1.716250
20.900000	1	1.741000
20.916667	1	1.751250
20.933333	1	1.747000
20.950000	1	1.727000
20.966667	1	1.693500
20.983333	1	1.647500
21.000000	1	1.590250
21.016667	1	1.524000
21.033333	1	1.451625
21.050000	1	1.375000
21.066667	1	1.295875
21.083333	1	1.217125
21.100000	1	1.140500
21.116667	1	1.065375
21.133333	1	0.995000
21.150000	1	0.928750
21.166667	1	0.867750
21.183333	1	0.812250
21.200000	1	0.761375
21.216667	1	0.716500
21.233333	1	0.676250
21.250000	1	0.641125
21.266667	1	0.610625
21.283333	1	0.583250
21.300000	1	0.559875
21.316667	1	0.539625
21.333333	1	0.522125
21.350000	1	0.507000
21.366667	1	0.493250
21.383333	1	0.482000
21.400000	1	0.471875
21.416667	1	0.463375
21.433333	1	0.455625
21.450000	1	0.448625
21.466667	1	0.442375
21.483333	1	0.436750
21.500000	1	0.431500
21.516667	1	0.428125
21.533333	1	0.424875
21.550000	1	0.422750
21.566667	1	0.421000
21.583333	1	0.419875
21.600000	1	0.419750
21.616667	1	0.420125
21.633333	1	0.421500
21.650000	1	0.424000
21.666667	1	0.427750
21.683333	1	0.431875
21.700000	1	0.438375
21.716667	1	0.446250
21.733333	1	0.454625
21.750000	1	0.464375
21.766667	1	0.475250
21.783333	1	0.487500
21.800000	1	0.499875
21.816667	1	0.513500
21.833333	1	0.527750
21.850000	1	0.542750
21.866667	1	0.557375
21.883333	1	0.572125
21.900000	1	0.587125
21.916667	1	0.601625
21.933333	1	0.615875
21.950000	1	0.629375
21.966667	1	0.641750
21.983333	1	0.652500
22.000000	1	0.662125
22.016667	1	0.670750
22.033333	1	0.678000
22.050000	1	0.683750
22.066667	1	0.687625
22.083333	1	0.689000
22.100000	1	0.690000
22.116667	1	0.689500
22.133333	1	0.686375
22.150000	1	0.682625
22.166667	1	0.677500
22.183333	1	0.670625
22.200000	1	0.662125
22.216667	1	0.652625
22.233333	1	0.641125
22.250000	1	0.628750
22.266667	1	0.615500
22.283333	1	0.601375
22.300000	1	0.586625
22.316667	1	0.570500
22.333333	1	0.553750
22.350000	1	0.536125
22.366667	1	0.519000
22.383333	1	0.501500
22.400000	1	0.483750
22.416667	1	0.466000
22.433333	1	0.449750
22.450000	1	0.433875
22.466667	1	0.419250
22.483333	1	0.405125
22.500000	1	0.391750
22.516667	1	0.379875
22.533333	1	0.368500
22.550000	1	0.358000
22.566667	1	0.348250
22.583333	1	0.338875
22.600000	1	0.330125
22.616667	1	0.323125
22.633333	1	0.316125
22.650000	1	0.310250
22.666667	1	0.304375
22.683333	1	0.298500
22.700000	1	0.293375
22.716667	1	0.288250
22.733333	1	0.283375
22.750000	1	0.278625
22.766667	1	0.274750
22.783333	1	0.270375
22.800000	1	0.266375
22.816667	1	0.262750
22.833333	1	0.259375
22.850000	1	0.255625
22.866667	1	0.252125
22.883333	1	0.249375
22.900000	1	0.247000
22.916667	1	0.244250
22.933333	1	0.241875
22.950000	1	0.240750
22.966667	1	0.239125
22.983333	1	0.238375
23.000000	1	0.238750
23.016667	1	0.238375
23.033333	1	0.239250
23.050000	1	0.239750
23.066667	1	0.241250
23.083333	1	0.243375
23.100000	1	0.245750
23.116667	1	0.248625
23.133333	1	0.252375
23.150000	1	0.255625
23.166667	1	0.259750
23.183333	1	0.263750
23.200000	1	0.268000
23.216667	1	0.272750
23.233333	1	0.278500
23.250000	1	0.284250
23.266667	1	0.289750
23.283333	1	0.296125
23.300000	1	0.304125
23.316667	1	0.314000
23.333333	1	0.325125
23.350000	1	0.338875
23.366667	1	0.355375
23.383333	1	0.375500
23.400000	1	0.400875
23.416667	1	0.432625
23.433333	1	0.470500
23.450000	1	0.515750
23.466667	1	0.570250
23.483333	1	0.636125
23.500000	1	0.714250
23.516667	1	0.805625
23.533333	1	0.912875
23.550000	1	1.036625
23.566667	1	1.178250
23.583333	1	1.339125
23.600000	1	1.519250
23.616667	1	1.720000
23.633333	1	1.939375
23.650000	1	2.177125
23.666667	1	2.430125
23.683333	1	2.696750
23.700000	1	2.973750
23.716667	1	3.256625
23.733333	1	3.541125
23.750000	1	3.821375
23.766667	1	4.092500
23.783333	1	4.346500
23.800000	1	4.578250
23.816667	1	4.783000
23.833333	1	4.955625
23.850000	1	5.093000
23.866667	1	5.191875
23.883333	1	5.249125
23.900000	1	5.265500
23.916667	1	5.239375
23.933333	1	5.172750
23.950000	1	5.069500
23.966667	1	4.931625
23.983333	1	4.764375
24.000000	1	4.572250
24.016667	1	4.360125
24.033333	1	4.132500
24.050000	1	3.895250
24.066667	1	3.652500
24.083333	1	3.408625
24.100000	1	3.166875
24.116667	1	2.930750
24.133333	1	2.702875
24.150000	1	2.486125
24.166667	1	2.282125
24.183333	1	2.091000
24.200000	1	1.912875
24.216667	1	1.749500
24.233333	1	1.600000
24.250000	1	1.464125
24.266667	1	1.341875
24.283333	1	1.231625
24.300000	1	1.132875
24.316667	1	1.045250
24.333333	1	0.967500
24.350000	1	0.898875
24.366667	1	0.839125
24.383333	1	0.787500
24.400000	1	0.742375
24.416667	1	0.703875
24.433333	1	0.670750
24.450000	1	0.642625
24.466667	1	0.619625
24.483333	1	0.599875
24.500000	1	0.583250
24.516667	1	0.568625
24.533333	1	0.556500
24.550000	1	0.545875
24.566667	1	0.536625
24.583333	1	0.529000
24.600000	1	0.522000
24.616667	1	0.513875
24.633333	1	0.506125
24.650000	1	0.499000
24.666667	1	0.492875
24.683333	1	0.485375
24.700000	1	0.477375
24.716667	1	0.470000
24.733333	1	0.462250
24.750000	1	0.454125
24.766667	1	0.446125
24.783333	1	0.438125
24.800000	1	0.429250
24.816667	1	0.421000
24.833333	1	0.412750
24.850000	1	0.405250
24.866667	1	0.398000
24.883333	1	0.390875
24.900000	1	0.384875
24.916667	1	0.378750
24.933333	1	0.372625
24.950000	1	0.367250
24.966667	1	0.361625
24.983333	1	0.357750
25.000000	1	0.353500
25.016667	1	0.349875
25.033333	1	0.347000
25.050000	1	0.344250
25.066667	1	0.341500
25.083333	1	0.338875
25.100000	1	0.337250
25.116667	1	0.335250
25.133333	1	0.333875
25.150000	1	0.331500
25.166667	1	0.330000
25.183333	1	0.328000
25.200000	1	0.326375
25.216667	1	0.324750
25.233333	1	0.323000
25.250000	1	0.321000
25.266667	1	0.319500
25.283333	1	0.317375
25.300000	1	0.315875
25.316667	1	0.314250
25.333333	1	0.312625
25.350000	1	0.310250
25.366667	1	0.308750
25.383333	1	0.306750
25.400000	1	0.303875
25.416667	1	0.301125
25.433333	1	0.299000
25.450000	1	0.297375
25.466667	1	0.295250
25.483333	1	0.293625
25.500000	1	0.291750
25.516667	1	0.289875
25.533333	1	0.287125
25.550000	1	0.284875
25.566667	1	0.282375
25.583333	1	0.280500
25.600000	1	0.278125
25.616667	1	0.275500
25.633333	1	0.272500
25.650000	1	0.270250
25.666667	1	0.267750
25.683333	1	0.264625
25.700000	1	0.262125
25.716667	1	0.259750
25.733333	1	0.256750
25.750000	1	0.254250
25.766667	1	0.251750
25.783333	1	0.249125
25.800000	1	0.246375
25.816667	1	0.243375
25.833333	1	0.241750
25.850000	1	0.240500
25.866667	1	0.239625
25.883333	1	0.239250
25.900000	1	0.239750
25.916667	1	0.240750
25.933333	1	0.242375
25.950000	1	0.243375
25.966667	1	0.245875
25.983333	1	0.249125
26.000000	1	0.252500
26.016667	1	0.256125
26.033333	1	0.261000
26.050000	1	0.266000
26.066667	1	0.271250
26.083333	1	0.276500
26.100000	1	0.283125
26.116667	1	0.290000
26.133333	1	0.296375
26.150000	1	0.303250
26.166667	1	0.310375
26.183333	1	0.316125
26.200000	1	0.321750
26.216667	1	0.327250
26.233333	1	0.332500
26.250000	1	0.337125
26.266667	1	0.342250
26.283333	1	0.345375
26.300000	1	0.348250
26.316667	1	0.349875
26.333333	1	0.350875
26.350000	1	0.350625
26.366667	1	0.349875
26.383333	1	0.348000
26.400000	1	0.345875
26.416667	1	0.343625
26.433333	1	0.339875
26.450000	1	0.335625
26.466667	1	0.330750
26.483333	1	0.324750
26.500000	1	0.318750
26.516667	1	0.312250
26.533333	1	0.305250
26.550000	1	0.297875
26.566667	1	0.290625
26.583333	1	0.282625
26.600000	1	0.275500
26.616667	1	0.267750
26.633333	1	0.260875
26.650000	1	0.253750
26.666667	1	0.247250
26.683333	1	0.241250
26.700000	1	0.235875
26.716667	1	0.230750
26.733333	1	0.225750
26.750000	1	0.220250
26.766667	1	0.215500
26.783333	1	0.210625
26.800000	1	0.207000
26.816667	1	0.204000
26.833333	1	0.202000
26.850000	1	0.200375
26.866667	1	0.198750
26.883333	1	0.198375
26.900000	1	0.198000
26.916667	1	0.198125
26.933333	1	0.198250
26.950000	1	0.199250
26.966667	1	0.200500
26.983333	1	0.202750
27.000000	1	0.205125
27.016667	1	0.208250
27.033333	1	0.212250
27.050000	1	0.216125
27.066667	1	0.221125
27.083333	1	0.227000
27.100000	1	0.232375
27.116667	1	0.239000
27.133333	1	0.247125
27.150000	1	0.255125
27.166667	1	0.264750
27.183333	1	0.276250
27.200000	1	0.289875
27.216667	1	0.305375
27.233333	1	0.322750
27.250000	1	0.342750
27.266667	1	0.366500
27.283333	1	0.393250
27.300000	1	0.424000
27.316667	1	0.459125
27.333333	1	0.500500
27.350000	1	0.548000
27.366667	1	0.602125
27.383333	1	0.663625
27.400000	1	0.733500
27.416667	1	0.812250
27.433333	1	0.901250
27.450000	1	1.001875
27.466667	1	1.113375
27.483333	1	1.237250
27.500000	1	1.372750
27.516667	1	1.521375
27.533333	1	1.682500
27.550000	1	1.855500
27.566667	1	2.039375
27.583333	1	2.235000
27.600000	1	2.439125
27.616667	1	2.651625
27.633333	1	2.869625
27.650000	1	3.091250
27.666667	1	3.313375
27.683333	1	3.534500
27.700000	1	3.750875
27.716667	1	3.958000
27.733333	1	4.153625
27.750000	1	4.334125
27.766667	1	4.495750
27.783333	1	4.636625
27.800000	1	4.753500
27.816667	1	4.844500
27.833333	1	4.907625
27.850000	1	4.941250
27.866667	1	4.944750
27.883333	1	4.918500
27.900000	1	4.862125
27.916667	1	4.778000
27.933333	1	4.665875
27.950000	1	4.529500
27.966667	1	4.371125
27.983333	1	4.193750
28.000000	1	4.002000
28.016667	1	3.798125
28.033333	1	3.586000
28.050000	1	3.367750
28.066667	1	3.147875
28.083333	1	2.928000
28.100000	1	2.711875
28.116667	1	2.501500
28.133333	1	2.299000
28.150000	1	2.105875
28.166667	1	1.923375
28.183333	1	1.752875
28.200000	1	1.595000
28.216667	1	1.449000
28.233333	1	1.314750
28.250000	1	1.192625
28.266667	1	1.082125
28.283333	1	0.982875
28.300000	1	0.893625
28.316667	1	0.815375
28.333333	1	0.745500
28.350000	1	0.685000
28.366667	1	0.632625
28.383333	1	0.587375
28.400000	1	0.549625
28.416667	1	0.518125
28.433333	1	0.491625
28.450000	1	0.471000
28.466667	1	0.455250
28.483333	1	0.444000
28.500000	1	0.436250
28.516667	1	0.431250
28.533333	1	0.429250
28.550000	1	0.430500
28.566667	1	0.433875
28.583333	1	0.438875
28.600000	1	0.446250
28.616667	1	0.454500
28.633333	1	0.463875
28.650000	1	0.474125
28.666667	1	0.485500
28.683333	1	0.496750
28.700000	1	0.508500
28.716667	1	0.520125
28.733333	1	0.531500
28.750000	1	0.542250
28.766667	1	0.552375
28.783333	1	0.561875
28.800000	1	0.570750
28.816667	1	0.578250
28.833333	1	0.584875
28.850000	1	0.590375
28.866667	1	0.593875
28.883333	1	0.597750
28.900000	1	0.599500
28.916667	1	0.600375
28.933333	1	0.599375
28.950000	1	0.596875
28.966667	1	0.594000
28.983333	1	0.588125
29.000000	1	0.581750
29.016667	1	0.574500
29.033333	1	0.565750
29.050000	1	0.556500
29.066667	1	0.545375
29.083333	1	0.534500
29.100000	1	0.522000
29.116667	1	0.508125
29.133333	1	0.493375
29.150000	1	0.479000
29.166667	1	0.463875
29.183333	1	0.448125
29.200000	1	0.432875
29.216667	1	0.416125
29.233333	1	0.399875
29.250000	1	0.383875
29.266667	1	0.367000
29.283333	1	0.351250
29.300000	1	0.335750
29.316667	1	0.319625
29.333333	1	0.304250
29.350000	1	0.289250
29.366667	1	0.274750
29.383333	1	0.260250
29.400000	1	0.247875
29.416667	1	0.235250
29.433333	1	0.223875
29.450000	1	0.212750
29.466667	1	0.202250
29.483333	1	0.192125
29.500000	1	0.183500
29.516667	1	0.174750
29.533333	1	0.167625
29.550000	1	0.160625
29.566667	1	0.154125
29.583333	1	0.148250
29.600000	1	0.142875
29.616667	1	0.138000
29.633333	1	0.133875
29.650000	1	0.130125
29.666667	1	0.126750
29.683333	1	0.123875
29.700000	1	0.121125
29.716667	1	0.118625
29.733333	1	0.116375
29.750000	1	0.114125
29.766667	1	0.112750
29.783333	1	0.111375
29.800000	1	0.110250
29.816667	1	0.109625
29.833333	1	0.108375
29.850000	1	0.107500
29.866667	1	0.107125
29.883333	1	0.105750
29.900000	1	0.105000
29.916667	1	0.105125
29.933333	1	0.104500
29.950000	1	0.103500
29.966667	1	0.102750
29.983333	1	0.102500
30.000000	1	0.102250
30.016667	1	0.102125
30.033333	1	0.102250
30.050000	1	0.102375
30.066667	1	0.102125
30.083333	1	0.102500
30.100000	1	0.102875
30.116667	1	0.103125
30.133333	1	0.103375
30.150000	1	0.104125
30.166667	1	0.104750
30.183333	1	0.105500
30.200000	1	0.106125
30.216667	1	0.106750
30.233333	1	0.107375
30.250000	1	0.109125
30.266667	1	0.111000
30.283333	1	0.112125
30.300000	1	0.113250
30.316667	1	0.115500
30.333333	1	0.117375
30.350000	1	0.119500
30.366667	1	0.122000
30.383333	1	0.124625
30.400000	1	0.126875
30.416667	1	0.129625
30.433333	1	0.132500
30.450000	1	0.135625
30.466667	1	0.139250
30.483333	1	0.143375
30.500000	1	0.147375
30.516667	1	0.150875
30.533333	1	0.155250
30.550000	1	0.160250
30.566667	1	0.165375
30.583333	1	0.171125
30.600000	1	0.176875
30.616667	1	0.182625
30.633333	1	0.189125
30.650000	1	0.195750
30.666667	1	0.202625
30.683333	1	0.210625
30.700000	1	0.218500
30.716667	1	0.227000
30.733333	1	0.235625
30.750000	1	0.244625
30.766667	1	0.253125
30.783333	1	0.262875
30.800000	1	0.272250
30.816667	1	0.283000
30.833333	1	0.294250
30.850000	1	0.306250
30.866667	1	0.318250
30.883333	1	0.330250
30.900000	1	0.343500
30.916667	1	0.357375
30.933333	1	0.372750
30.950000	1	0.388500
30.966667	1	0.405500
30.983333	1	0.424125
31.000000	1	0.445000
31.016667	1	0.467875
31.033333	1	0.492875
31.050000	1	0.520125
31.066667	1	0.550875
31.083333	1	0.584250
31.100000	1	0.621000
31.116667	1	0.661750
31.133333	1	0.706500
31.150000	1	0.755875
31.166667	1	0.809750
31.183333	1	0.867625
31.200000	1	0.930625
31.216667	1	0.998000
31.233333	1	1.069625
31.250000	1	1.145000
31.266667	1	1.224625
31.283333	1	1.307500
31.300000	1	1.393500
31.316667	1	1.482500
31.333333	1	1.571500
31.350000	1	1.662500
31.366667	1	1.752125
31.383333	1	1.840750
31.400000	1	1.927500
31.416667	1	2.009375
31.433333	1	2.087875
31.450000	1	2.160250
31.466667	1	2.225375
31.483333	1	2.283625
31.500000	1	2.333500
31.516667	1	2.373875
31.533333	1	2.404500
31.550000	1	2.424750
31.566667	1	2.434750
31.583333	1	2.434375
31.600000	1	2.423000
31.616667	1	2.401750
31.633333	1	2.370500
31.650000	1	2.330375
31.666667	1	2.280750
31.683333	1	2.222500
31.700000	1	2.158625
31.716667	1	2.088250
31.733333	1	2.012875
31.750000	1	1.933375
31.766667	1	1.850625
31.783333	1	1.765875
31.800000	1	1.679125
31.816667	1	1.591750
31.833333	1	1.504375
31.850000	1	1.419000
31.866667	1	1.334875
31.883333	1	1.252875
31.900000	1	1.173750
31.916667	1	1.097875
31.933333	1	1.025125
31.950000	1	0.956625
31.966667	1	0.891375
31.983333	1	0.829375
32.000000	1	0.771875
32.016667	1	0.718000
32.033333	1	0.667500
32.050000	1	0.620125
32.066667	1	0.576625
32.083333	1	0.535625
32.100000	1	0.497625
32.116667	1	0.462750
32.133333	1	0.430000
32.150000	1	0.399625
32.166667	1	0.371500
32.183333	1	0.345625
32.200000	1	0.321375
32.216667	1	0.298875
32.233333	1	0.277375
32.250000	1	0.257750
32.266667	1	0.239500
32.283333	1	0.222125
32.300000	1	0.205750
32.316667	1	0.190500
32.333333	1	0.176625
32.350000	1	0.163125
32.366667	1	0.151125
32.383333	1	0.138500
32.400000	1	0.127375
32.416667	1	0.117125
32.433333	1	0.107500
32.450000	1	0.098375
32.466667	1	0.090125
32.483333	1	0.081625
32.500000	1	0.074750
32.516667	1	0.067750
32.533333	1	0.061375
32.550000	1	0.055875
32.566667	1	0.050250
32.583333	1	0.044875
32.600000	1	0.039875
32.616667	1	0.035625
32.633333	1	0.031125
32.650000	1	0.026875
32.666667	1	0.022875
32.683333	1	0.018750
32.700000	1	0.015625
32.716667	1	0.012250
32.733333	1	0.009750
32.750000	1	0.006625
32.766667	1	0.003875
32.783333	1	0.001375
32.800000	1	-0.001000
32.816667	1	-0.003875
32.833333	1	-0.005250
32.850000	1	-0.007500
32.866667	1	-0.009875
32.883333	1	-0.012000
32.900000	1	-0.014125
32.916667	1	-0.016250
32.933333	1	-0.018125
32.950000	1	-0.020625
32.966667	1	-0.023125
32.983333	1	-0.025000
33.000000	1	-0.026500
33.016667	1	-0.028250
33.033333	1	-0.029875
33.050000	1	-0.031375
33.066667	1	-0.032000
33.083333	1	-0.033625
33.100000	1	-0.034625
33.116667	1	-0.035875
33.133333	1	-0.036875
33.150000	1	-0.037625
33.166667	1	-0.038500
33.183333	1	-0.039500
33.200000	1	-0.040875
33.216667	1	-0.041750
33.233333	1	-0.042625
33.250000	1	-0.043125
33.266667	1	-0.044375
33.283333	1	-0.044000
33.300000	1	-0.044000
33.316667	1	-0.044000
33.333333	1	-0.043125
33.350000	1	-0.042625
33.366667	1	-0.041500
33.383333	1	-0.041125
33.400000	1	-0.040500
33.416667	1	-0.039250
33.433333	1	-0.037500
33.450000	1	-0.035250
33.466667	1	-0.032500
33.483333	1	-0.030250
33.500000	1	-0.027500
33.516667	1	-0.024500
33.533333	1	-0.021375
33.550000	1	-0.018125
33.566667	1	-0.014250
33.583333	1	-0.010750
33.600000	1	-0.006625
33.616667	1	-0.002625
33.633333	1	0.001000
33.650000	1	0.004875
33.666667	1	0.009500
33.683333	1	0.013500
33.700000	1	0.017625
33.716667	1	0.022000
33.733333	1	0.027125
33.750000	1	0.031500
33.766667	1	0.036750
33.783333	1	0.041125
33.800000	1	0.045125
33.816667	1	0.048625
33.833333	1	0.052375
33.850000	1	0.056250
33.866667	1	0.060875
33.883333	1	0.065000
33.900000	1	0.068250
33.916667	1	0.072000
33.933333	1	0.075875
33.950000	1	0.079250
33.966667	1	0.082000
33.983333	1	0.084625
34.000000	1	0.086875
34.016667	1	0.089000
34.033333	1	0.090750
34.050000	1	0.093500
34.066667	1	0.095250
34.083333	1	0.097125
34.100000	1	0.099000
34.116667	1	0.100625
34.133333	1	0.101875
34.150000	1	0.103625
34.166667	1	0.104750
34.183333	1	0.105875
34.200000	1	0.107250
34.216667	1	0.107500
34.233333	1	0.108500
34.250000	1	0.110125
34.266667	1	0.110500
34.283333	1	0.111000
34.300000	1	0.112000
34.316667	1	0.113375
34.333333	1	0.115250
34.350000	1	0.116625
34.366667	1	0.117875
34.383333	1	0.118875
34.400000	1	0.120625
34.416667	1	0.122250
34.433333	1	0.124125
34.450000	1	0.125750
34.466667	1	0.127125
34.483333	1	0.128875
34.500000	1	0.131250
34.516667	1	0.133500
34.533333	1	0.135125
34.550000	1	0.137500
34.566667	1	0.139125
34.583333	1	0.141125
34.600000	1	0.143500
34.616667	1	0.145125
34.633333	1	0.146000
34.650000	1	0.147250
34.666667	1	0.148750
34.683333	1	0.150625
34.700000	1	0.151500
34.716667	1	0.152500
34.733333	1	0.152875
34.750000	1	0.153500
34.766667	1	0.153250
34.783333	1	0.153750
34.800000	1	0.154000
34.816667	1	0.153375
34.833333	1	0.153625
34.850000	1	0.152500
34.866667	1	0.151500
34.883333	1	0.150375
34.900000	1	0.149750
34.916667	1	0.149000
34.933333	1	0.147375
34.950000	1	0.145750
34.966667	1	0.143500
34.983333	1	0.141375
35.000000	1	0.138875
35.016667	1	0.136125
35.033333	1	0.133875
35.050000	1	0.131500
35.066667	1	0.128625
35.083333	1	0.125875
35.100000	1	0.122500
35.116667	1	0.119375
35.133333	1	0.116375
35.150000	1	0.112875
35.166667	1	0.109250
35.183333	1	0.105750
35.200000	1	0.102375
35.216667	1	0.099125
35.233333	1	0.095500
35.250000	1	0.091750
35.266667	1	0.087875
35.283333	1	0.085125
35.300000	1	0.081500
35.316667	1	0.078875
35.333333	1	0.075500
35.350000	1	0.073000
35.366667	1	0.070125
35.383333	1	0.067875
35.400000	1	0.065375
35.416667	1	0.062750
35.433333	1	0.060375
35.450000	1	0.059000
35.466667	1	0.057250
35.483333	1	0.056625
35.500000	1	0.056000
35.516667	1	0.056250
35.533333	1	0.056250
35.550000	1	0.056250
35.566667	1	0.056875
35.583333	1	0.057750
35.600000	1	0.059500
35.616667	1	0.061000
35.633333	1	0.063125
35.650000	1	0.065000
35.666667	1	0.066875
35.683333	1	0.068500
35.700000	1	0.071750
35.716667	1	0.074000
35.733333	1	0.077000
35.750000	1	0.080625
35.766667	1	0.083500
35.783333	1	0.087000
35.800000	1	0.090375
35.816667	1	0.093500
35.833333	1	0.096625
35.850000	1	0.099875
35.866667	1	0.103000
35.883333	1	0.106875
35.900000	1	0.109500
35.916667	1	0.112250
35.933333	1	0.115375
35.950000	1	0.117875
35.966667	1	0.120625
35.983333	1	0.123250
36.000000	1	0.125375
36.016667	1	0.127125
36.033333	1	0.129250
36.050000	1	0.131875
36.066667	1	0.133875
36.083333	1	0.135375
36.100000	1	0.137125
36.116667	1	0.139000
36.133333	1	0.140625
36.150000	1	0.142375
36.166667	1	0.144000
36.183333	1	0.145000
36.200000	1	0.145375
36.216667	1	0.145750
36.233333	1	0.146500
36.250000	1	0.147250
36.266667	1	0.147125
36.283333	1	0.147500
36.300000	1	0.147875
36.316667	1	0.148375
36.333333	1	0.148375
36.350000	1	0.147750
36.366667	1	0.147375
36.383333	1	0.147000
36.400000	1	0.146625
36.416667	1	0.146125
36.433333	1	0.145250
36.450000	1	0.144750
36.466667	1	0.143375
36.483333	1	0.142250
36.500000	1	0.140750
36.516667	1	0.139000
36.533333	1	0.137125
36.550000	1	0.135375
36.566667	1	0.133750
36.583333	1	0.131000
36.600000	1	0.128500
36.616667	1	0.125625
36.633333	1	0.122125
36.650000	1	0.119250
36.666667	1	0.116750
36.683333	1	0.113375
36.700000	1	0.109750
36.716667	1	0.106375
36.733333	1	0.103250
36.750000	1	0.099875
36.766667	1	0.096625
36.783333	1	0.093750
36.800000	1	0.090125
36.816667	1	0.086375
36.833333	1	0.082875
36.850000	1	0.079125
36.866667	1	0.075250
36.883333	1	0.071750
36.900000	1	0.069125
36.916667	1	0.066125
36.933333	1	0.063000
36.950000	1	0.060625
36.966667	1	0.058750
36.983333	1	0.056875
37.000000	1	0.054500
37.016667	1	0.052250
37.033333	1	0.050375
37.050000	1	0.048750
37.066667	1	0.047000
37.083333	1	0.045750
37.100000	1	0.044750
37.116667	1	0.043250
37.133333	1	0.042375
37.150000	1	0.041375
37.166667	1	0.040375
37.183333	1	0.039250
37.200000	1	0.039375
37.216667	1	0.039000
37.233333	1	0.038625
37.250000	1	0.038250
37.266667	1	0.038375
37.283333	1	0.037875
37.300000	1	0.037625
37.316667	1	0.037625
37.333333	1	0.037000
37.350000	1	0.037000
37.366667	1	0.037000
37.383333	1	0.036500
37.400000	1	0.036625
37.416667	1	0.036875
37.433333	1	0.036750
37.450000	1	0.035875
37.466667	1	0.035375
37.483333	1	0.034875
37.500000	1	0.034875
37.516667	1	0.034625
37.533333	1	0.034500
37.550000	1	0.034000
37.566667	1	0.034125
37.583333	1	0.033750
37.600000	1	0.033000
37.616667	1	0.032750
37.633333	1	0.032375
37.650000	1	0.032000
37.666667	1	0.031875
37.683333	1	0.031875
37.700000	1	0.031125
37.716667	1	0.030875
37.733333	1	0.030250
37.750000	1	0.029625
37.766667	1	0.029250
37.783333	1	0.028125
37.800000	1	0.027500
37.816667	1	0.027250
37.833333	1	0.026000
37.850000	1	0.025125
37.866667	1	0.025125
37.883333	1	0.024250
37.900000	1	0.023000
37.916667	1	0.021000
37.933333	1	0.019375
37.950000	1	0.018250
37.966667	1	0.017500
37.983333	1	0.016625
38.000000	1	0.015250
38.016667	1	0.014125
38.033333	1	0.012625
38.050000	1	0.012000
38.066667	1	0.011875
38.083333	1	0.010500
38.100000	1	0.010000
38.116667	1	0.009500
38.133333	1	0.008250
38.150000	1	0.007250
38.166667	1	0.006750
38.183333	1	0.005125
38.200000	1	0.004250
38.216667	1	0.003125
38.233333	1	0.001875
38.250000	1	0.000250
38.266667	1	-0.000625
38.283333	1	-0.001625
38.300000	1	-0.002375
38.316667	1	-0.003625
38.333333	1	-0.004375
38.350000	1	-0.004750
38.366667	1	-0.005250
38.383333	1	-0.005875
38.400000	1	-0.006500
38.416667	1	-0.007125
38.433333	1	-0.007875
38.450000	1	-0.008000
38.466667	1	-0.008250
38.483333	1	-0.008000
38.500000	1	-0.007625
38.516667	1	-0.007125
38.533333	1	-0.006500
38.550000	1	-0.005750
38.566667	1	-0.004750
38.583333	1	-0.004250
38.600000	1	-0.003375
38.616667	1	-0.002250
38.633333	1	-0.001250
38.650000	1	-0.000250
38.666667	1	0.000875
38.683333	1	0.002750
38.700000	1	0.005000
38.716667	1	0.006250
38.733333	1	0.007625
38.750000	1	0.009125
38.766667	1	0.010125
38.783333	1	0.011500
38.800000	1	0.012625
38.816667	1	0.013625
38.833333	1	0.014750
38.850000	1	0.016250
38.866667	1	0.016625
38.883333	1	0.016750
38.900000	1	0.016750
38.916667	1	0.017000
38.933333	1	0.016875
38.950000	1	0.017125
38.966667	1	0.017000
38.983333	1	0.016375
39.000000	1	0.015875
39.016667	1	0.015125
39.033333	1	0.014625
39.050000	1	0.013875
39.066667	1	0.013000
39.083333	1	0.012000
39.100000	1	0.011125
39.116667	1	0.009000
39.133333	1	0.007250
39.150000	1	0.006000
39.166667	1	0.004875
39.183333	1	0.003250
39.200000	1	0.002125
39.216667	1	0.000125
39.233333	1	-0.001375
39.250000	1	-0.003375
39.266667	1	-0.005000
39.283333	1	-0.006375
39.300000	1	-0.008500
39.316667	1	-0.010375
39.333333	1	-0.012500
39.350000	1	-0.015000
39.366667	1	-0.017250
39.383333	1	-0.019625
39.400000	1	-0.022000
39.416667	1	-0.024250
39.433333	1	-0.026125
39.450000	1	-0.027875
39.466667	1	-0.029000
39.483333	1	-0.030750
39.500000	1	-0.033000
39.516667	1	-0.034875
39.533333	1	-0.036375
39.550000	1	-0.038250
39.566667	1	-0.038250
39.583333	1	-0.038625
39.600000	1	-0.039750
39.616667	1	-0.040750
39.633333	1	-0.041875
39.650000	1	-0.042125
39.666667	1	-0.042250
39.683333	1	-0.041750
39.700000	1	-0.041250
39.716667	1	-0.040000
39.733333	1	-0.039625
39.750000	1	-0.038625
39.766667	1	-0.038125
39.783333	1	-0.036625
39.800000	1	-0.035625
39.816667	1	-0.034625
39.833333	1	-0.033500
39.850000	1	-0.032250
39.866667	1	-0.030500
39.883333	1	-0.029125
39.900000	1	-0.027375
39.916667	1	-0.026750
39.933333	1	-0.025500
39.950000	1	-0.024500
39.966667	1	-0.022875
39.983333	1	-0.021875
40.000000	1	-0.020625
