URL	chrom://bioreactor/micro_cm7/HPLC_Ultimate_3000/Users/markusar/20240708_MA_pHrange1.seq/814.smp/RI_1.channel/RI_1.chm
Channel	RI_1

Injection Information:
Data Vault	micro_cm7
Sequence	20240708_MA_pHrange1
Name	Pv3_6.5_4
Number	15
Position	BB3
Comment	
Processing Method	
Instrument Method	run_25B_method
Type	Unknown
Status	Finished
Inject Time	09.07.2024 01:08:04 +02:00
Volume (µl)	20.0000
Dilution Factor	1.0000
Weight	1.0000

Chromatogram Data Information:
Time Min. (min)	0.000000
Time Max. (min)	40.000000
Data Points	2401
Detector	RI
Generating Data System	Chromeleon 7.3.2.11814
Exporting Data System	Chromeleon 7.3.2.0
Operator	Instrument Controller
Signal Quantity	Refractive 
Signal Unit	µRIU
Signal Min.	-0.026375
Signal Max.	81.880750
Channel	RI_1
Driver Name	RID520Driver.dll
Channel Type	Evaluation
Min. Step (s)	1
Max. Step (s)	1
Average Step (s)	1

Signal Parameter Information:
Signal Info	

Chromatogram Data:
Time (min)	Step (s)	Value (µRIU)
0.000000	n.a.	0.045375
0.016667	1	0.045375
0.033333	1	0.046000
0.050000	1	0.046500
0.066667	1	0.046875
0.083333	1	0.047750
0.100000	1	0.048250
0.116667	1	0.048500
0.133333	1	0.048375
0.150000	1	0.048375
0.166667	1	0.048875
0.183333	1	0.048500
0.200000	1	0.048625
0.216667	1	0.049250
0.233333	1	0.049125
0.250000	1	0.049125
0.266667	1	0.048750
0.283333	1	0.049250
0.300000	1	0.050375
0.316667	1	0.049875
0.333333	1	0.049500
0.350000	1	0.048750
0.366667	1	0.047125
0.383333	1	0.045375
0.400000	1	0.044625
0.416667	1	0.044250
0.433333	1	0.045250
0.450000	1	0.046375
0.466667	1	0.047625
0.483333	1	0.048500
0.500000	1	0.049000
0.516667	1	0.049250
0.533333	1	0.049000
0.550000	1	0.048250
0.566667	1	0.046000
0.583333	1	0.043375
0.600000	1	0.040625
0.616667	1	0.037500
0.633333	1	0.035250
0.650000	1	0.033250
0.666667	1	0.031500
0.683333	1	0.030375
0.700000	1	0.029625
0.716667	1	0.029250
0.733333	1	0.028750
0.750000	1	0.028500
0.766667	1	0.027500
0.783333	1	0.027500
0.800000	1	0.026750
0.816667	1	0.026125
0.833333	1	0.025250
0.850000	1	0.025000
0.866667	1	0.024875
0.883333	1	0.024750
0.900000	1	0.025000
0.916667	1	0.024500
0.933333	1	0.024375
0.950000	1	0.024375
0.966667	1	0.024000
0.983333	1	0.024000
1.000000	1	0.023875
1.016667	1	0.023000
1.033333	1	0.023000
1.050000	1	0.022625
1.066667	1	0.022625
1.083333	1	0.022500
1.100000	1	0.022250
1.116667	1	0.021500
1.133333	1	0.020875
1.150000	1	0.020375
1.166667	1	0.020125
1.183333	1	0.020000
1.200000	1	0.020375
1.216667	1	0.020250
1.233333	1	0.019625
1.250000	1	0.019500
1.266667	1	0.019125
1.283333	1	0.018375
1.300000	1	0.019000
1.316667	1	0.018625
1.333333	1	0.018375
1.350000	1	0.018125
1.366667	1	0.017750
1.383333	1	0.017000
1.400000	1	0.016500
1.416667	1	0.016375
1.433333	1	0.016125
1.450000	1	0.015500
1.466667	1	0.015000
1.483333	1	0.015250
1.500000	1	0.014500
1.516667	1	0.014125
1.533333	1	0.014125
1.550000	1	0.013500
1.566667	1	0.013000
1.583333	1	0.012500
1.600000	1	0.012375
1.616667	1	0.012000
1.633333	1	0.012250
1.650000	1	0.012000
1.666667	1	0.011625
1.683333	1	0.011000
1.700000	1	0.011000
1.716667	1	0.011125
1.733333	1	0.011250
1.750000	1	0.011250
1.766667	1	0.010500
1.783333	1	0.010125
1.800000	1	0.010500
1.816667	1	0.011000
1.833333	1	0.011250
1.850000	1	0.011125
1.866667	1	0.010500
1.883333	1	0.010125
1.900000	1	0.010000
1.916667	1	0.009125
1.933333	1	0.008750
1.950000	1	0.008875
1.966667	1	0.008375
1.983333	1	0.008500
2.000000	1	0.008125
2.016667	1	0.007250
2.033333	1	0.006750
2.050000	1	0.005500
2.066667	1	0.005000
2.083333	1	0.004250
2.100000	1	0.003625
2.116667	1	0.002875
2.133333	1	0.002000
2.150000	1	0.000500
2.166667	1	0.000000
2.183333	1	-0.001125
2.200000	1	-0.001625
2.216667	1	-0.003000
2.233333	1	-0.004000
2.250000	1	-0.005500
2.266667	1	-0.006375
2.283333	1	-0.007625
2.300000	1	-0.008875
2.316667	1	-0.010125
2.333333	1	-0.011500
2.350000	1	-0.012500
2.366667	1	-0.014000
2.383333	1	-0.014625
2.400000	1	-0.015125
2.416667	1	-0.016750
2.433333	1	-0.017875
2.450000	1	-0.018875
2.466667	1	-0.019500
2.483333	1	-0.020375
2.500000	1	-0.021000
2.516667	1	-0.020875
2.533333	1	-0.021250
2.550000	1	-0.021625
2.566667	1	-0.021250
2.583333	1	-0.020500
2.600000	1	-0.019875
2.616667	1	-0.019750
2.633333	1	-0.019125
2.650000	1	-0.018500
2.666667	1	-0.017625
2.683333	1	-0.016750
2.700000	1	-0.015750
2.716667	1	-0.014875
2.733333	1	-0.012875
2.750000	1	-0.012000
2.766667	1	-0.010750
2.783333	1	-0.009375
2.800000	1	-0.007625
2.816667	1	-0.006125
2.833333	1	-0.004750
2.850000	1	-0.002625
2.866667	1	-0.001000
2.883333	1	0.000250
2.900000	1	0.002125
2.916667	1	0.004625
2.933333	1	0.006375
2.950000	1	0.008000
2.966667	1	0.010000
2.983333	1	0.012250
3.000000	1	0.013750
3.016667	1	0.016125
3.033333	1	0.018500
3.050000	1	0.020500
3.066667	1	0.022750
3.083333	1	0.024875
3.100000	1	0.026125
3.116667	1	0.027625
3.133333	1	0.029375
3.150000	1	0.031625
3.166667	1	0.034000
3.183333	1	0.035750
3.200000	1	0.037125
3.216667	1	0.038375
3.233333	1	0.039750
3.250000	1	0.041000
3.266667	1	0.042750
3.283333	1	0.043875
3.300000	1	0.045625
3.316667	1	0.047000
3.333333	1	0.048000
3.350000	1	0.048500
3.366667	1	0.049750
3.383333	1	0.051000
3.400000	1	0.052125
3.416667	1	0.052875
3.433333	1	0.053625
3.450000	1	0.054000
3.466667	1	0.054500
3.483333	1	0.054750
3.500000	1	0.055375
3.516667	1	0.055500
3.533333	1	0.055625
3.550000	1	0.056000
3.566667	1	0.056625
3.583333	1	0.056625
3.600000	1	0.056375
3.616667	1	0.057000
3.633333	1	0.057750
3.650000	1	0.059000
3.666667	1	0.059125
3.683333	1	0.059250
3.700000	1	0.058750
3.716667	1	0.059000
3.733333	1	0.058875
3.750000	1	0.058125
3.766667	1	0.057625
3.783333	1	0.057125
3.800000	1	0.056375
3.816667	1	0.056250
3.833333	1	0.055875
3.850000	1	0.055625
3.866667	1	0.055625
3.883333	1	0.054375
3.900000	1	0.054250
3.916667	1	0.053125
3.933333	1	0.052750
3.950000	1	0.051750
3.966667	1	0.052125
3.983333	1	0.051625
4.000000	1	0.051375
4.016667	1	0.050875
4.033333	1	0.050500
4.050000	1	0.049750
4.066667	1	0.049500
4.083333	1	0.049250
4.100000	1	0.048125
4.116667	1	0.047625
4.133333	1	0.047375
4.150000	1	0.047000
4.166667	1	0.046625
4.183333	1	0.046625
4.200000	1	0.046875
4.216667	1	0.046750
4.233333	1	0.047250
4.250000	1	0.046875
4.266667	1	0.046500
4.283333	1	0.046750
4.300000	1	0.047125
4.316667	1	0.047625
4.333333	1	0.047625
4.350000	1	0.047375
4.366667	1	0.047875
4.383333	1	0.047875
4.400000	1	0.047375
4.416667	1	0.047500
4.433333	1	0.048000
4.450000	1	0.048000
4.466667	1	0.048250
4.483333	1	0.048375
4.500000	1	0.047875
4.516667	1	0.048000
4.533333	1	0.048375
4.550000	1	0.048250
4.566667	1	0.048250
4.583333	1	0.049375
4.600000	1	0.050250
4.616667	1	0.051125
4.633333	1	0.052125
4.650000	1	0.053000
4.666667	1	0.053375
4.683333	1	0.054875
4.700000	1	0.056375
4.716667	1	0.057375
4.733333	1	0.058750
4.750000	1	0.061125
4.766667	1	0.063250
4.783333	1	0.064750
4.800000	1	0.066500
4.816667	1	0.068750
4.833333	1	0.070750
4.850000	1	0.073125
4.866667	1	0.075875
4.883333	1	0.079375
4.900000	1	0.082625
4.916667	1	0.085375
4.933333	1	0.088250
4.950000	1	0.091375
4.966667	1	0.094750
4.983333	1	0.098375
5.000000	1	0.101375
5.016667	1	0.105250
5.033333	1	0.108875
5.050000	1	0.112750
5.066667	1	0.115750
5.083333	1	0.119500
5.100000	1	0.123500
5.116667	1	0.127250
5.133333	1	0.131375
5.150000	1	0.135375
5.166667	1	0.139625
5.183333	1	0.143875
5.200000	1	0.149250
5.216667	1	0.153625
5.233333	1	0.158250
5.250000	1	0.163250
5.266667	1	0.168125
5.283333	1	0.172375
5.300000	1	0.177875
5.316667	1	0.182375
5.333333	1	0.187250
5.350000	1	0.192375
5.366667	1	0.196375
5.383333	1	0.201625
5.400000	1	0.206375
5.416667	1	0.211500
5.433333	1	0.216750
5.450000	1	0.220875
5.466667	1	0.225250
5.483333	1	0.229250
5.500000	1	0.233750
5.516667	1	0.238000
5.533333	1	0.241625
5.550000	1	0.245125
5.566667	1	0.248375
5.583333	1	0.251500
5.600000	1	0.254000
5.616667	1	0.256375
5.633333	1	0.258375
5.650000	1	0.260250
5.666667	1	0.262250
5.683333	1	0.263125
5.700000	1	0.264000
5.716667	1	0.264750
5.733333	1	0.264750
5.750000	1	0.264750
5.766667	1	0.265000
5.783333	1	0.265000
5.800000	1	0.264750
5.816667	1	0.263875
5.833333	1	0.262875
5.850000	1	0.260750
5.866667	1	0.259125
5.883333	1	0.257000
5.900000	1	0.255375
5.916667	1	0.253125
5.933333	1	0.251375
5.950000	1	0.249375
5.966667	1	0.246875
5.983333	1	0.244250
6.000000	1	0.241625
6.016667	1	0.238625
6.033333	1	0.235125
6.050000	1	0.231625
6.066667	1	0.228125
6.083333	1	0.224375
6.100000	1	0.221125
6.116667	1	0.217625
6.133333	1	0.213750
6.150000	1	0.210250
6.166667	1	0.206500
6.183333	1	0.202875
6.200000	1	0.199250
6.216667	1	0.195500
6.233333	1	0.191125
6.250000	1	0.187500
6.266667	1	0.183250
6.283333	1	0.178875
6.300000	1	0.175625
6.316667	1	0.171625
6.333333	1	0.168250
6.350000	1	0.164875
6.366667	1	0.160125
6.383333	1	0.156750
6.400000	1	0.153125
6.416667	1	0.149750
6.433333	1	0.146500
6.450000	1	0.142875
6.466667	1	0.139750
6.483333	1	0.136375
6.500000	1	0.132875
6.516667	1	0.129750
6.533333	1	0.126375
6.550000	1	0.123250
6.566667	1	0.120250
6.583333	1	0.117625
6.600000	1	0.114500
6.616667	1	0.112000
6.633333	1	0.109250
6.650000	1	0.106625
6.666667	1	0.104375
6.683333	1	0.102625
6.700000	1	0.100875
6.716667	1	0.098500
6.733333	1	0.096250
6.750000	1	0.094500
6.766667	1	0.093250
6.783333	1	0.090875
6.800000	1	0.089750
6.816667	1	0.088500
6.833333	1	0.086500
6.850000	1	0.085375
6.866667	1	0.084125
6.883333	1	0.082375
6.900000	1	0.081500
6.916667	1	0.080875
6.933333	1	0.080375
6.950000	1	0.079750
6.966667	1	0.079875
6.983333	1	0.079875
7.000000	1	0.080000
7.016667	1	0.080125
7.033333	1	0.080500
7.050000	1	0.081500
7.066667	1	0.082750
7.083333	1	0.083875
7.100000	1	0.084875
7.116667	1	0.086375
7.133333	1	0.087750
7.150000	1	0.089625
7.166667	1	0.091625
7.183333	1	0.093625
7.200000	1	0.095625
7.216667	1	0.097250
7.233333	1	0.099750
7.250000	1	0.102250
7.266667	1	0.104125
7.283333	1	0.105875
7.300000	1	0.107750
7.316667	1	0.109625
7.333333	1	0.111625
7.350000	1	0.113500
7.366667	1	0.114750
7.383333	1	0.116875
7.400000	1	0.118750
7.416667	1	0.120000
7.433333	1	0.120750
7.450000	1	0.121750
7.466667	1	0.122375
7.483333	1	0.123250
7.500000	1	0.123625
7.516667	1	0.123750
7.533333	1	0.123125
7.550000	1	0.122500
7.566667	1	0.121875
7.583333	1	0.121375
7.600000	1	0.120125
7.616667	1	0.118125
7.633333	1	0.116125
7.650000	1	0.115125
7.666667	1	0.113125
7.683333	1	0.110375
7.700000	1	0.107625
7.716667	1	0.104250
7.733333	1	0.101625
7.750000	1	0.098125
7.766667	1	0.094875
7.783333	1	0.091875
7.800000	1	0.088000
7.816667	1	0.085000
7.833333	1	0.081500
7.850000	1	0.078625
7.866667	1	0.075250
7.883333	1	0.072125
7.900000	1	0.068375
7.916667	1	0.065125
7.933333	1	0.061625
7.950000	1	0.058625
7.966667	1	0.055625
7.983333	1	0.053000
8.000000	1	0.050500
8.016667	1	0.047500
8.033333	1	0.044875
8.050000	1	0.042125
8.066667	1	0.039375
8.083333	1	0.037250
8.100000	1	0.034625
8.116667	1	0.032625
8.133333	1	0.030125
8.150000	1	0.029250
8.166667	1	0.027125
8.183333	1	0.025625
8.200000	1	0.023625
8.216667	1	0.022000
8.233333	1	0.020500
8.250000	1	0.018375
8.266667	1	0.016625
8.283333	1	0.014375
8.300000	1	0.012625
8.316667	1	0.010500
8.333333	1	0.009125
8.350000	1	0.007375
8.366667	1	0.005750
8.383333	1	0.004000
8.400000	1	0.002000
8.416667	1	-0.000625
8.433333	1	-0.002625
8.450000	1	-0.004375
8.466667	1	-0.006125
8.483333	1	-0.007875
8.500000	1	-0.008750
8.516667	1	-0.010500
8.533333	1	-0.012125
8.550000	1	-0.014500
8.566667	1	-0.015625
8.583333	1	-0.016875
8.600000	1	-0.017625
8.616667	1	-0.018500
8.633333	1	-0.019750
8.650000	1	-0.021125
8.666667	1	-0.022750
8.683333	1	-0.023250
8.700000	1	-0.024250
8.716667	1	-0.024500
8.733333	1	-0.025250
8.750000	1	-0.026000
8.766667	1	-0.026125
8.783333	1	-0.026250
8.800000	1	-0.026125
8.816667	1	-0.025750
8.833333	1	-0.026375
8.850000	1	-0.025750
8.866667	1	-0.025500
8.883333	1	-0.025125
8.900000	1	-0.025000
8.916667	1	-0.024000
8.933333	1	-0.023125
8.950000	1	-0.021500
8.966667	1	-0.020125
8.983333	1	-0.018875
9.000000	1	-0.017875
9.016667	1	-0.016875
9.033333	1	-0.015375
9.050000	1	-0.014375
9.066667	1	-0.012625
9.083333	1	-0.010750
9.100000	1	-0.009500
9.116667	1	-0.007875
9.133333	1	-0.005875
9.150000	1	-0.004000
9.166667	1	-0.002625
9.183333	1	-0.000875
9.200000	1	0.000500
9.216667	1	0.002125
9.233333	1	0.003750
9.250000	1	0.005250
9.266667	1	0.006500
9.283333	1	0.007375
9.300000	1	0.008625
9.316667	1	0.009500
9.333333	1	0.010625
9.350000	1	0.011625
9.366667	1	0.012625
9.383333	1	0.013875
9.400000	1	0.014625
9.416667	1	0.015625
9.433333	1	0.016125
9.450000	1	0.016875
9.466667	1	0.017875
9.483333	1	0.018250
9.500000	1	0.019000
9.516667	1	0.019875
9.533333	1	0.020500
9.550000	1	0.021500
9.566667	1	0.022125
9.583333	1	0.022375
9.600000	1	0.022375
9.616667	1	0.022625
9.633333	1	0.023125
9.650000	1	0.023625
9.666667	1	0.024500
9.683333	1	0.024375
9.700000	1	0.024625
9.716667	1	0.025000
9.733333	1	0.025000
9.750000	1	0.025375
9.766667	1	0.026125
9.783333	1	0.027250
9.800000	1	0.027500
9.816667	1	0.027500
9.833333	1	0.027375
9.850000	1	0.027500
9.866667	1	0.028125
9.883333	1	0.028125
9.900000	1	0.028750
9.916667	1	0.029000
9.933333	1	0.029125
9.950000	1	0.029000
9.966667	1	0.028750
9.983333	1	0.028875
10.000000	1	0.028250
10.016667	1	0.028625
10.033333	1	0.028625
10.050000	1	0.029250
10.066667	1	0.030500
10.083333	1	0.031750
10.100000	1	0.033375
10.116667	1	0.035250
10.133333	1	0.038250
10.150000	1	0.042000
10.166667	1	0.047000
10.183333	1	0.053375
10.200000	1	0.060875
10.216667	1	0.070125
10.233333	1	0.080750
10.250000	1	0.092375
10.266667	1	0.106750
10.283333	1	0.123000
10.300000	1	0.142875
10.316667	1	0.165375
10.333333	1	0.189875
10.350000	1	0.216500
10.366667	1	0.244125
10.383333	1	0.270625
10.400000	1	0.294625
10.416667	1	0.311375
10.433333	1	0.318625
10.450000	1	0.310750
10.466667	1	0.286500
10.483333	1	0.246500
10.500000	1	0.198750
10.516667	1	0.162250
10.533333	1	0.168500
10.550000	1	0.266750
10.566667	1	0.522500
10.583333	1	1.010250
10.600000	1	1.807000
10.616667	1	2.983875
10.633333	1	4.600875
10.650000	1	6.695000
10.666667	1	9.291000
10.683333	1	12.394750
10.700000	1	15.992750
10.716667	1	20.048500
10.733333	1	24.498625
10.750000	1	29.243375
10.766667	1	34.126750
10.783333	1	38.926625
10.800000	1	43.343000
10.816667	1	46.991875
10.833333	1	49.451500
10.850000	1	50.352500
10.866667	1	49.485875
10.883333	1	46.892250
10.900000	1	42.877125
10.916667	1	37.931250
10.933333	1	32.596875
10.950000	1	27.339500
10.966667	1	22.485625
10.983333	1	18.218500
11.000000	1	14.603750
11.016667	1	11.627250
11.033333	1	9.234875
11.050000	1	7.347125
11.066667	1	5.878250
11.083333	1	4.746875
11.100000	1	3.881375
11.116667	1	3.221625
11.133333	1	2.718625
11.150000	1	2.334625
11.166667	1	2.038750
11.183333	1	1.809875
11.200000	1	1.630875
11.216667	1	1.488750
11.233333	1	1.375500
11.250000	1	1.283125
11.266667	1	1.206750
11.283333	1	1.143875
11.300000	1	1.091125
11.316667	1	1.046500
11.333333	1	1.008250
11.350000	1	0.975625
11.366667	1	0.948375
11.383333	1	0.923875
11.400000	1	0.903000
11.416667	1	0.884875
11.433333	1	0.868625
11.450000	1	0.854875
11.466667	1	0.844000
11.483333	1	0.833750
11.500000	1	0.824750
11.516667	1	0.816750
11.533333	1	0.810000
11.550000	1	0.804625
11.566667	1	0.800750
11.583333	1	0.797500
11.600000	1	0.796125
11.616667	1	0.794750
11.633333	1	0.794125
11.650000	1	0.795625
11.666667	1	0.798250
11.683333	1	0.802250
11.700000	1	0.807250
11.716667	1	0.813125
11.733333	1	0.819500
11.750000	1	0.826750
11.766667	1	0.835500
11.783333	1	0.844000
11.800000	1	0.852750
11.816667	1	0.861750
11.833333	1	0.869750
11.850000	1	0.877875
11.866667	1	0.885000
11.883333	1	0.890625
11.900000	1	0.896375
11.916667	1	0.900625
11.933333	1	0.904250
11.950000	1	0.907125
11.966667	1	0.909375
11.983333	1	0.912125
12.000000	1	0.914625
12.016667	1	0.917125
12.033333	1	0.919125
12.050000	1	0.922125
12.066667	1	0.925625
12.083333	1	0.929625
12.100000	1	0.934625
12.116667	1	0.940375
12.133333	1	0.946625
12.150000	1	0.953250
12.166667	1	0.961125
12.183333	1	0.970250
12.200000	1	0.981500
12.216667	1	0.994000
12.233333	1	1.008750
12.250000	1	1.027625
12.266667	1	1.051125
12.283333	1	1.079875
12.300000	1	1.116125
12.316667	1	1.161750
12.333333	1	1.219625
12.350000	1	1.293000
12.366667	1	1.386125
12.383333	1	1.502500
12.400000	1	1.646250
12.416667	1	1.822125
12.433333	1	2.034250
12.450000	1	2.288250
12.466667	1	2.590250
12.483333	1	2.942625
12.500000	1	3.350000
12.516667	1	3.815125
12.533333	1	4.338250
12.550000	1	4.919500
12.566667	1	5.552500
12.583333	1	6.231000
12.600000	1	6.945500
12.616667	1	7.681625
12.633333	1	8.425250
12.650000	1	9.161875
12.666667	1	9.877625
12.683333	1	10.562375
12.700000	1	11.207625
12.716667	1	11.811125
12.733333	1	12.373625
12.750000	1	12.900375
12.766667	1	13.401250
12.783333	1	13.886500
12.800000	1	14.367000
12.816667	1	14.852625
12.833333	1	15.354000
12.850000	1	15.876125
12.866667	1	16.425750
12.883333	1	17.005250
12.900000	1	17.619625
12.916667	1	18.267250
12.933333	1	18.947000
12.950000	1	19.656750
12.966667	1	20.395500
12.983333	1	21.160625
13.000000	1	21.951875
13.016667	1	22.765000
13.033333	1	23.601375
13.050000	1	24.459375
13.066667	1	25.339750
13.083333	1	26.240375
13.100000	1	27.162625
13.116667	1	28.104500
13.133333	1	29.064750
13.150000	1	30.044750
13.166667	1	31.044000
13.183333	1	32.062125
13.200000	1	33.099000
13.216667	1	34.154000
13.233333	1	35.228625
13.250000	1	36.323625
13.266667	1	37.439375
13.283333	1	38.576875
13.300000	1	39.736000
13.316667	1	40.918500
13.333333	1	42.124125
13.350000	1	43.352500
13.366667	1	44.603500
13.383333	1	45.879625
13.400000	1	47.178250
13.416667	1	48.501875
13.433333	1	49.851000
13.450000	1	51.228750
13.466667	1	52.634750
13.483333	1	54.071125
13.500000	1	55.538375
13.516667	1	57.036500
13.533333	1	58.564750
13.550000	1	60.123875
13.566667	1	61.713500
13.583333	1	63.334875
13.600000	1	64.987500
13.616667	1	66.673250
13.633333	1	68.393500
13.650000	1	70.150375
13.666667	1	71.946000
13.683333	1	73.780500
13.700000	1	75.647375
13.716667	1	77.513875
13.733333	1	79.292750
13.750000	1	80.799875
13.766667	1	81.767000
13.783333	1	81.880750
13.800000	1	80.840250
13.816667	1	78.363875
13.833333	1	74.214500
13.850000	1	68.304375
13.866667	1	60.844000
13.883333	1	52.406375
13.900000	1	43.783125
13.916667	1	35.716625
13.933333	1	28.687500
13.950000	1	22.867250
13.966667	1	18.209125
13.983333	1	14.560875
14.000000	1	11.746250
14.016667	1	9.599750
14.033333	1	7.982125
14.050000	1	6.775250
14.066667	1	5.883000
14.083333	1	5.223250
14.100000	1	4.734000
14.116667	1	4.367125
14.133333	1	4.087375
14.150000	1	3.869875
14.166667	1	3.696500
14.183333	1	3.556250
14.200000	1	3.439375
14.216667	1	3.340250
14.233333	1	3.253250
14.250000	1	3.177625
14.266667	1	3.111125
14.283333	1	3.049500
14.300000	1	2.994750
14.316667	1	2.945750
14.333333	1	2.900750
14.350000	1	2.861250
14.366667	1	2.824875
14.383333	1	2.795625
14.400000	1	2.773625
14.416667	1	2.760500
14.433333	1	2.757250
14.450000	1	2.767500
14.466667	1	2.795750
14.483333	1	2.849750
14.500000	1	2.938750
14.516667	1	3.074375
14.533333	1	3.277125
14.550000	1	3.572875
14.566667	1	3.995625
14.583333	1	4.587500
14.600000	1	5.402125
14.616667	1	6.503875
14.633333	1	7.965375
14.650000	1	9.863625
14.666667	1	12.271000
14.683333	1	15.250875
14.700000	1	18.841625
14.716667	1	23.046625
14.733333	1	27.832125
14.750000	1	33.116625
14.766667	1	38.758875
14.783333	1	44.564875
14.800000	1	50.305500
14.816667	1	55.728500
14.833333	1	60.571750
14.850000	1	64.586625
14.866667	1	67.561125
14.883333	1	69.341000
14.900000	1	69.845125
14.916667	1	69.074375
14.933333	1	67.107500
14.950000	1	64.090125
14.966667	1	60.220375
14.983333	1	55.725625
15.000000	1	50.838000
15.016667	1	45.773750
15.033333	1	40.723375
15.050000	1	35.847125
15.066667	1	31.263625
15.083333	1	27.055375
15.100000	1	23.270625
15.116667	1	19.925000
15.133333	1	17.011125
15.150000	1	14.503375
15.166667	1	12.367125
15.183333	1	10.563375
15.200000	1	9.051125
15.216667	1	7.789250
15.233333	1	6.741750
15.250000	1	5.876875
15.266667	1	5.164750
15.283333	1	4.582000
15.300000	1	4.107875
15.316667	1	3.724375
15.333333	1	3.417250
15.350000	1	3.173750
15.366667	1	2.983250
15.383333	1	2.836250
15.400000	1	2.725500
15.416667	1	2.643625
15.433333	1	2.585125
15.450000	1	2.544500
15.466667	1	2.515500
15.483333	1	2.493125
15.500000	1	2.473625
15.516667	1	2.454625
15.533333	1	2.433375
15.550000	1	2.409375
15.566667	1	2.380250
15.583333	1	2.347500
15.600000	1	2.310750
15.616667	1	2.271625
15.633333	1	2.232000
15.650000	1	2.193125
15.666667	1	2.155125
15.683333	1	2.119375
15.700000	1	2.085125
15.716667	1	2.053000
15.733333	1	2.022625
15.750000	1	1.994000
15.766667	1	1.966000
15.783333	1	1.938125
15.800000	1	1.911000
15.816667	1	1.882625
15.833333	1	1.853375
15.850000	1	1.824375
15.866667	1	1.795375
15.883333	1	1.767875
15.900000	1	1.741500
15.916667	1	1.717625
15.933333	1	1.697000
15.950000	1	1.680125
15.966667	1	1.666750
15.983333	1	1.656375
16.000000	1	1.649000
16.016667	1	1.644500
16.033333	1	1.641125
16.050000	1	1.638875
16.066667	1	1.637375
16.083333	1	1.634625
16.100000	1	1.631000
16.116667	1	1.625000
16.133333	1	1.616750
16.150000	1	1.606000
16.166667	1	1.592875
16.183333	1	1.577000
16.200000	1	1.560375
16.216667	1	1.542375
16.233333	1	1.523750
16.250000	1	1.503625
16.266667	1	1.483125
16.283333	1	1.462625
16.300000	1	1.441875
16.316667	1	1.420875
16.333333	1	1.400250
16.350000	1	1.380875
16.366667	1	1.362125
16.383333	1	1.345000
16.400000	1	1.330750
16.416667	1	1.316875
16.433333	1	1.306875
16.450000	1	1.299625
16.466667	1	1.294875
16.483333	1	1.291875
16.500000	1	1.291500
16.516667	1	1.292875
16.533333	1	1.295375
16.550000	1	1.299500
16.566667	1	1.304625
16.583333	1	1.310000
16.600000	1	1.314625
16.616667	1	1.317875
16.633333	1	1.319500
16.650000	1	1.320500
16.666667	1	1.319375
16.683333	1	1.317375
16.700000	1	1.314000
16.716667	1	1.309500
16.733333	1	1.305750
16.750000	1	1.302250
16.766667	1	1.299750
16.783333	1	1.298250
16.800000	1	1.298000
16.816667	1	1.299125
16.833333	1	1.301750
16.850000	1	1.304625
16.866667	1	1.306750
16.883333	1	1.310250
16.900000	1	1.313375
16.916667	1	1.315625
16.933333	1	1.316625
16.950000	1	1.316000
16.966667	1	1.314125
16.983333	1	1.310125
17.000000	1	1.305625
17.016667	1	1.300000
17.033333	1	1.293500
17.050000	1	1.287375
17.066667	1	1.281000
17.083333	1	1.274375
17.100000	1	1.268125
17.116667	1	1.262625
17.133333	1	1.258500
17.150000	1	1.255000
17.166667	1	1.252250
17.183333	1	1.250250
17.200000	1	1.249250
17.216667	1	1.249875
17.233333	1	1.250625
17.250000	1	1.253000
17.266667	1	1.255250
17.283333	1	1.258375
17.300000	1	1.262500
17.316667	1	1.266750
17.333333	1	1.271375
17.350000	1	1.277125
17.366667	1	1.282125
17.383333	1	1.287875
17.400000	1	1.292500
17.416667	1	1.297375
17.433333	1	1.300875
17.450000	1	1.304250
17.466667	1	1.306625
17.483333	1	1.307250
17.500000	1	1.306375
17.516667	1	1.304000
17.533333	1	1.299625
17.550000	1	1.293875
17.566667	1	1.286125
17.583333	1	1.277375
17.600000	1	1.266875
17.616667	1	1.255000
17.633333	1	1.242000
17.650000	1	1.228375
17.666667	1	1.213375
17.683333	1	1.198875
17.700000	1	1.184250
17.716667	1	1.168875
17.733333	1	1.154125
17.750000	1	1.139250
17.766667	1	1.124250
17.783333	1	1.110250
17.800000	1	1.096500
17.816667	1	1.082375
17.833333	1	1.069000
17.850000	1	1.056375
17.866667	1	1.043875
17.883333	1	1.032375
17.900000	1	1.020750
17.916667	1	1.009500
17.933333	1	0.998625
17.950000	1	0.989250
17.966667	1	0.978625
17.983333	1	0.968250
18.000000	1	0.958125
18.016667	1	0.948500
18.033333	1	0.938750
18.050000	1	0.928750
18.066667	1	0.919000
18.083333	1	0.909125
18.100000	1	0.899375
18.116667	1	0.890875
18.133333	1	0.882375
18.150000	1	0.875500
18.166667	1	0.868500
18.183333	1	0.863500
18.200000	1	0.858875
18.216667	1	0.854875
18.233333	1	0.851500
18.250000	1	0.849000
18.266667	1	0.847250
18.283333	1	0.846125
18.300000	1	0.846125
18.316667	1	0.845875
18.333333	1	0.845875
18.350000	1	0.846625
18.366667	1	0.847625
18.383333	1	0.849375
18.400000	1	0.851375
18.416667	1	0.854500
18.433333	1	0.858375
18.450000	1	0.863625
18.466667	1	0.869500
18.483333	1	0.877625
18.500000	1	0.887375
18.516667	1	0.898500
18.533333	1	0.911250
18.550000	1	0.927000
18.566667	1	0.944875
18.583333	1	0.963625
18.600000	1	0.984375
18.616667	1	1.007250
18.633333	1	1.031375
18.650000	1	1.058000
18.666667	1	1.085875
18.683333	1	1.116250
18.700000	1	1.148000
18.716667	1	1.180750
18.733333	1	1.214250
18.750000	1	1.250250
18.766667	1	1.285250
18.783333	1	1.320500
18.800000	1	1.356125
18.816667	1	1.390125
18.833333	1	1.422250
18.850000	1	1.452500
18.866667	1	1.478125
18.883333	1	1.500750
18.900000	1	1.518125
18.916667	1	1.530500
18.933333	1	1.536375
18.950000	1	1.535250
18.966667	1	1.527500
18.983333	1	1.512625
19.000000	1	1.491375
19.016667	1	1.463625
19.033333	1	1.430250
19.050000	1	1.391625
19.066667	1	1.350750
19.083333	1	1.307625
19.100000	1	1.264500
19.116667	1	1.222750
19.133333	1	1.184375
19.150000	1	1.151125
19.166667	1	1.125500
19.183333	1	1.108250
19.200000	1	1.102625
19.216667	1	1.110875
19.233333	1	1.136000
19.250000	1	1.179375
19.266667	1	1.242500
19.283333	1	1.328000
19.300000	1	1.438375
19.316667	1	1.573125
19.333333	1	1.732875
19.350000	1	1.915875
19.366667	1	2.120250
19.383333	1	2.344625
19.400000	1	2.583625
19.416667	1	2.832125
19.433333	1	3.083125
19.450000	1	3.328625
19.466667	1	3.560500
19.483333	1	3.772125
19.500000	1	3.956125
19.516667	1	4.105875
19.533333	1	4.216375
19.550000	1	4.283875
19.566667	1	4.306625
19.583333	1	4.285000
19.600000	1	4.220000
19.616667	1	4.115875
19.633333	1	3.976625
19.650000	1	3.808000
19.666667	1	3.616750
19.683333	1	3.409750
19.700000	1	3.192750
19.716667	1	2.971750
19.733333	1	2.752625
19.750000	1	2.538375
19.766667	1	2.333625
19.783333	1	2.139250
19.800000	1	1.958375
19.816667	1	1.791625
19.833333	1	1.638750
19.850000	1	1.500375
19.866667	1	1.376625
19.883333	1	1.265375
19.900000	1	1.166125
19.916667	1	1.079750
19.933333	1	1.003875
19.950000	1	0.937000
19.966667	1	0.879000
19.983333	1	0.829125
20.000000	1	0.786500
20.016667	1	0.751125
20.033333	1	0.720875
20.050000	1	0.697125
20.066667	1	0.678625
20.083333	1	0.664500
20.100000	1	0.655875
20.116667	1	0.652125
20.133333	1	0.651375
20.150000	1	0.654250
20.166667	1	0.660000
20.183333	1	0.668750
20.200000	1	0.678750
20.216667	1	0.690250
20.233333	1	0.701750
20.250000	1	0.712625
20.266667	1	0.722750
20.283333	1	0.732375
20.300000	1	0.738875
20.316667	1	0.743375
20.333333	1	0.745000
20.350000	1	0.743875
20.366667	1	0.738250
20.383333	1	0.730500
20.400000	1	0.719500
20.416667	1	0.706250
20.433333	1	0.691625
20.450000	1	0.676000
20.466667	1	0.660000
20.483333	1	0.645125
20.500000	1	0.631500
20.516667	1	0.619625
20.533333	1	0.611875
20.550000	1	0.607875
20.566667	1	0.608625
20.583333	1	0.615625
20.600000	1	0.630125
20.616667	1	0.651625
20.633333	1	0.681000
20.650000	1	0.717875
20.666667	1	0.764875
20.683333	1	0.820250
20.700000	1	0.883625
20.716667	1	0.955750
20.733333	1	1.034000
20.750000	1	1.117375
20.766667	1	1.203750
20.783333	1	1.291375
20.800000	1	1.377500
20.816667	1	1.458875
20.833333	1	1.533000
20.850000	1	1.598000
20.866667	1	1.651375
20.883333	1	1.690500
20.900000	1	1.716500
20.916667	1	1.725750
20.933333	1	1.720375
20.950000	1	1.699125
20.966667	1	1.663750
20.983333	1	1.617375
21.000000	1	1.560000
21.016667	1	1.494250
21.033333	1	1.422750
21.050000	1	1.348125
21.066667	1	1.271750
21.083333	1	1.195000
21.100000	1	1.120750
21.116667	1	1.049750
21.133333	1	0.982000
21.150000	1	0.919000
21.166667	1	0.861875
21.183333	1	0.809250
21.200000	1	0.761500
21.216667	1	0.718375
21.233333	1	0.681125
21.250000	1	0.647625
21.266667	1	0.619000
21.283333	1	0.594375
21.300000	1	0.572750
21.316667	1	0.554250
21.333333	1	0.538125
21.350000	1	0.523875
21.366667	1	0.512000
21.383333	1	0.502125
21.400000	1	0.492750
21.416667	1	0.484625
21.433333	1	0.477750
21.450000	1	0.471250
21.466667	1	0.465250
21.483333	1	0.460500
21.500000	1	0.456125
21.516667	1	0.452375
21.533333	1	0.450375
21.550000	1	0.449000
21.566667	1	0.448500
21.583333	1	0.448500
21.600000	1	0.449250
21.616667	1	0.451500
21.633333	1	0.455250
21.650000	1	0.460375
21.666667	1	0.467375
21.683333	1	0.475750
21.700000	1	0.485375
21.716667	1	0.497750
21.733333	1	0.511875
21.750000	1	0.527125
21.766667	1	0.544250
21.783333	1	0.562625
21.800000	1	0.582750
21.816667	1	0.603375
21.833333	1	0.625125
21.850000	1	0.647000
21.866667	1	0.668250
21.883333	1	0.688750
21.900000	1	0.709000
21.916667	1	0.727250
21.933333	1	0.744000
21.950000	1	0.758375
21.966667	1	0.771375
21.983333	1	0.781500
22.000000	1	0.789125
22.016667	1	0.794250
22.033333	1	0.796375
22.050000	1	0.796125
22.066667	1	0.793375
22.083333	1	0.788250
22.100000	1	0.781625
22.116667	1	0.773500
22.133333	1	0.764500
22.150000	1	0.753875
22.166667	1	0.741750
22.183333	1	0.728875
22.200000	1	0.714625
22.216667	1	0.700000
22.233333	1	0.685000
22.250000	1	0.669375
22.266667	1	0.653250
22.283333	1	0.637875
22.300000	1	0.620875
22.316667	1	0.604250
22.333333	1	0.588250
22.350000	1	0.572875
22.366667	1	0.556375
22.383333	1	0.540875
22.400000	1	0.525625
22.416667	1	0.511000
22.433333	1	0.497625
22.450000	1	0.483750
22.466667	1	0.471000
22.483333	1	0.460125
22.500000	1	0.449625
22.516667	1	0.440000
22.533333	1	0.431250
22.550000	1	0.422750
22.566667	1	0.414875
22.583333	1	0.408375
22.600000	1	0.401750
22.616667	1	0.395875
22.633333	1	0.390625
22.650000	1	0.385125
22.666667	1	0.380875
22.683333	1	0.377000
22.700000	1	0.373750
22.716667	1	0.370375
22.733333	1	0.367625
22.750000	1	0.364375
22.766667	1	0.361375
22.783333	1	0.359000
22.800000	1	0.357000
22.816667	1	0.354500
22.833333	1	0.352625
22.850000	1	0.351250
22.866667	1	0.349250
22.883333	1	0.348375
22.900000	1	0.347125
22.916667	1	0.346500
22.933333	1	0.346250
22.950000	1	0.346625
22.966667	1	0.346750
22.983333	1	0.347750
23.000000	1	0.348750
23.016667	1	0.350500
23.033333	1	0.352250
23.050000	1	0.354500
23.066667	1	0.356625
23.083333	1	0.359500
23.100000	1	0.362625
23.116667	1	0.366000
23.133333	1	0.368875
23.150000	1	0.372250
23.166667	1	0.375875
23.183333	1	0.379125
23.200000	1	0.382625
23.216667	1	0.385875
23.233333	1	0.389250
23.250000	1	0.393750
23.266667	1	0.399125
23.283333	1	0.405125
23.300000	1	0.412500
23.316667	1	0.421625
23.333333	1	0.433750
23.350000	1	0.448250
23.366667	1	0.468250
23.383333	1	0.492250
23.400000	1	0.522375
23.416667	1	0.560125
23.433333	1	0.606750
23.450000	1	0.664000
23.466667	1	0.733250
23.483333	1	0.817750
23.500000	1	0.918375
23.516667	1	1.037625
23.533333	1	1.177625
23.550000	1	1.339750
23.566667	1	1.524875
23.583333	1	1.734000
23.600000	1	1.967500
23.616667	1	2.225375
23.633333	1	2.505000
23.650000	1	2.804750
23.666667	1	3.121000
23.683333	1	3.449750
23.700000	1	3.786000
23.716667	1	4.123250
23.733333	1	4.454500
23.750000	1	4.774375
23.766667	1	5.074000
23.783333	1	5.346125
23.800000	1	5.584500
23.816667	1	5.783500
23.833333	1	5.938375
23.850000	1	6.046125
23.866667	1	6.103750
23.883333	1	6.112000
23.900000	1	6.070750
23.916667	1	5.981875
23.933333	1	5.850125
23.950000	1	5.678250
23.966667	1	5.471375
23.983333	1	5.236250
24.000000	1	4.978625
24.016667	1	4.704125
24.033333	1	4.419750
24.050000	1	4.130750
24.066667	1	3.842000
24.083333	1	3.557875
24.100000	1	3.281750
24.116667	1	3.016250
24.133333	1	2.763250
24.150000	1	2.524500
24.166667	1	2.302000
24.183333	1	2.094875
24.200000	1	1.904375
24.216667	1	1.729875
24.233333	1	1.571625
24.250000	1	1.428625
24.266667	1	1.299375
24.283333	1	1.184000
24.300000	1	1.080125
24.316667	1	0.988375
24.333333	1	0.907000
24.350000	1	0.835375
24.366667	1	0.772750
24.383333	1	0.718750
24.400000	1	0.671625
24.416667	1	0.632000
24.433333	1	0.598375
24.450000	1	0.569625
24.466667	1	0.546125
24.483333	1	0.526250
24.500000	1	0.509625
24.516667	1	0.496000
24.533333	1	0.484750
24.550000	1	0.476375
24.566667	1	0.469000
24.583333	1	0.461875
24.600000	1	0.456875
24.616667	1	0.452000
24.633333	1	0.447750
24.650000	1	0.443750
24.666667	1	0.440250
24.683333	1	0.436375
24.700000	1	0.432250
24.716667	1	0.428375
24.733333	1	0.423375
24.750000	1	0.418250
24.766667	1	0.413375
24.783333	1	0.407875
24.800000	1	0.403250
24.816667	1	0.398875
24.833333	1	0.393375
24.850000	1	0.388000
24.866667	1	0.383000
24.883333	1	0.378125
24.900000	1	0.373750
24.916667	1	0.368875
24.933333	1	0.364375
24.950000	1	0.360875
24.966667	1	0.356625
24.983333	1	0.352750
25.000000	1	0.348750
25.016667	1	0.344250
25.033333	1	0.341125
25.050000	1	0.338125
25.066667	1	0.334625
25.083333	1	0.331500
25.100000	1	0.328500
25.116667	1	0.325375
25.133333	1	0.321500
25.150000	1	0.317500
25.166667	1	0.314750
25.183333	1	0.311125
25.200000	1	0.307500
25.216667	1	0.303000
25.233333	1	0.298875
25.250000	1	0.295625
25.266667	1	0.291625
25.283333	1	0.287750
25.300000	1	0.283875
25.316667	1	0.280250
25.333333	1	0.277000
25.350000	1	0.273625
25.366667	1	0.270500
25.383333	1	0.267000
25.400000	1	0.264375
25.416667	1	0.261625
25.433333	1	0.259875
25.450000	1	0.258625
25.466667	1	0.257375
25.483333	1	0.256250
25.500000	1	0.255875
25.516667	1	0.255375
25.533333	1	0.255875
25.550000	1	0.256500
25.566667	1	0.256625
25.583333	1	0.257250
25.600000	1	0.257125
25.616667	1	0.257750
25.633333	1	0.258500
25.650000	1	0.258875
25.666667	1	0.259500
25.683333	1	0.260250
25.700000	1	0.261375
25.716667	1	0.262125
25.733333	1	0.263000
25.750000	1	0.264000
25.766667	1	0.264625
25.783333	1	0.264750
25.800000	1	0.265250
25.816667	1	0.265750
25.833333	1	0.266500
25.850000	1	0.267375
25.866667	1	0.268875
25.883333	1	0.270250
25.900000	1	0.272500
25.916667	1	0.274625
25.933333	1	0.276875
25.950000	1	0.279500
25.966667	1	0.283250
25.983333	1	0.286375
26.000000	1	0.291000
26.016667	1	0.296125
26.033333	1	0.301625
26.050000	1	0.307375
26.066667	1	0.312625
26.083333	1	0.318875
26.100000	1	0.325875
26.116667	1	0.332000
26.133333	1	0.339000
26.150000	1	0.346125
26.166667	1	0.353125
26.183333	1	0.359375
26.200000	1	0.365500
26.216667	1	0.371750
26.233333	1	0.377625
26.250000	1	0.383250
26.266667	1	0.388250
26.283333	1	0.392625
26.300000	1	0.396625
26.316667	1	0.399375
26.333333	1	0.401375
26.350000	1	0.402375
26.366667	1	0.402125
26.383333	1	0.402000
26.400000	1	0.400875
26.416667	1	0.398875
26.433333	1	0.396125
26.450000	1	0.393125
26.466667	1	0.388625
26.483333	1	0.383375
26.500000	1	0.378375
26.516667	1	0.372750
26.533333	1	0.366000
26.550000	1	0.359625
26.566667	1	0.353375
26.583333	1	0.345875
26.600000	1	0.339125
26.616667	1	0.332000
26.633333	1	0.325625
26.650000	1	0.319250
26.666667	1	0.313250
26.683333	1	0.306750
26.700000	1	0.300375
26.716667	1	0.294250
26.733333	1	0.289125
26.750000	1	0.284500
26.766667	1	0.280250
26.783333	1	0.275750
26.800000	1	0.271250
26.816667	1	0.267500
26.833333	1	0.264375
26.850000	1	0.261250
26.866667	1	0.258500
26.883333	1	0.256750
26.900000	1	0.255125
26.916667	1	0.253875
26.933333	1	0.253000
26.950000	1	0.251875
26.966667	1	0.252250
26.983333	1	0.252500
27.000000	1	0.252750
27.016667	1	0.253500
27.033333	1	0.255375
27.050000	1	0.257875
27.066667	1	0.261000
27.083333	1	0.264250
27.100000	1	0.268500
27.116667	1	0.273250
27.133333	1	0.279250
27.150000	1	0.286625
27.166667	1	0.294875
27.183333	1	0.305250
27.200000	1	0.316625
27.216667	1	0.330000
27.233333	1	0.345875
27.250000	1	0.365125
27.266667	1	0.387625
27.283333	1	0.414125
27.300000	1	0.444250
27.316667	1	0.479000
27.333333	1	0.519750
27.350000	1	0.566375
27.366667	1	0.621250
27.383333	1	0.683125
27.400000	1	0.754125
27.416667	1	0.835250
27.433333	1	0.927000
27.450000	1	1.030125
27.466667	1	1.145250
27.483333	1	1.273000
27.500000	1	1.413625
27.516667	1	1.567375
27.533333	1	1.733000
27.550000	1	1.911375
27.566667	1	2.101000
27.583333	1	2.301125
27.600000	1	2.509500
27.616667	1	2.724875
27.633333	1	2.945500
27.650000	1	3.168875
27.666667	1	3.391500
27.683333	1	3.611125
27.700000	1	3.823875
27.716667	1	4.025750
27.733333	1	4.213750
27.750000	1	4.384500
27.766667	1	4.535500
27.783333	1	4.662875
27.800000	1	4.764375
27.816667	1	4.839125
27.833333	1	4.884375
27.850000	1	4.900125
27.866667	1	4.885875
27.883333	1	4.841125
27.900000	1	4.767250
27.916667	1	4.665750
27.933333	1	4.539250
27.950000	1	4.389750
27.966667	1	4.220750
27.983333	1	4.035750
28.000000	1	3.837875
28.016667	1	3.630625
28.033333	1	3.417375
28.050000	1	3.200500
28.066667	1	2.984000
28.083333	1	2.770000
28.100000	1	2.561500
28.116667	1	2.360250
28.133333	1	2.167250
28.150000	1	1.985375
28.166667	1	1.814000
28.183333	1	1.654500
28.200000	1	1.507000
28.216667	1	1.371250
28.233333	1	1.247500
28.250000	1	1.135250
28.266667	1	1.033500
28.283333	1	0.942500
28.300000	1	0.861500
28.316667	1	0.789875
28.333333	1	0.725875
28.350000	1	0.671125
28.366667	1	0.623125
28.383333	1	0.583000
28.400000	1	0.549500
28.416667	1	0.521125
28.433333	1	0.497125
28.450000	1	0.478750
28.466667	1	0.465000
28.483333	1	0.454750
28.500000	1	0.448000
28.516667	1	0.444500
28.533333	1	0.443875
28.550000	1	0.445000
28.566667	1	0.448375
28.583333	1	0.454500
28.600000	1	0.461875
28.616667	1	0.470375
28.633333	1	0.479875
28.650000	1	0.489750
28.666667	1	0.500750
28.683333	1	0.511375
28.700000	1	0.522750
28.716667	1	0.533500
28.733333	1	0.544125
28.750000	1	0.554375
28.766667	1	0.564500
28.783333	1	0.573375
28.800000	1	0.581375
28.816667	1	0.589000
28.833333	1	0.595875
28.850000	1	0.601125
28.866667	1	0.605500
28.883333	1	0.609000
28.900000	1	0.610375
28.916667	1	0.610875
28.933333	1	0.610125
28.950000	1	0.608500
28.966667	1	0.605375
28.983333	1	0.601250
29.000000	1	0.596250
29.016667	1	0.590125
29.033333	1	0.582250
29.050000	1	0.573500
29.066667	1	0.564250
29.083333	1	0.554250
29.100000	1	0.543375
29.116667	1	0.532000
29.133333	1	0.519375
29.150000	1	0.507000
29.166667	1	0.493500
29.183333	1	0.480000
29.200000	1	0.466500
29.216667	1	0.452250
29.233333	1	0.437500
29.250000	1	0.423625
29.266667	1	0.410125
29.283333	1	0.395375
29.300000	1	0.381000
29.316667	1	0.367250
29.333333	1	0.354000
29.350000	1	0.340500
29.366667	1	0.326750
29.383333	1	0.314000
29.400000	1	0.301625
29.416667	1	0.289500
29.433333	1	0.278875
29.450000	1	0.268000
29.466667	1	0.258125
29.483333	1	0.247750
29.500000	1	0.238875
29.516667	1	0.229625
29.533333	1	0.221250
29.550000	1	0.213500
29.566667	1	0.206625
29.583333	1	0.200250
29.600000	1	0.194750
29.616667	1	0.189500
29.633333	1	0.184125
29.650000	1	0.179625
29.666667	1	0.176250
29.683333	1	0.172375
29.700000	1	0.168625
29.716667	1	0.166250
29.733333	1	0.163875
29.750000	1	0.161750
29.766667	1	0.159750
29.783333	1	0.157875
29.800000	1	0.156625
29.816667	1	0.155750
29.833333	1	0.155125
29.850000	1	0.154250
29.866667	1	0.153750
29.883333	1	0.152875
29.900000	1	0.152375
29.916667	1	0.151625
29.933333	1	0.151625
29.950000	1	0.151250
29.966667	1	0.150500
29.983333	1	0.150000
30.000000	1	0.149875
30.016667	1	0.149375
30.033333	1	0.149000
30.050000	1	0.148750
30.066667	1	0.148500
30.083333	1	0.148250
30.100000	1	0.147125
30.116667	1	0.145625
30.133333	1	0.144500
30.150000	1	0.143375
30.166667	1	0.142875
30.183333	1	0.141375
30.200000	1	0.140250
30.216667	1	0.139000
30.233333	1	0.138000
30.250000	1	0.137250
30.266667	1	0.136750
30.283333	1	0.135500
30.300000	1	0.134500
30.316667	1	0.133625
30.333333	1	0.132250
30.350000	1	0.131875
30.366667	1	0.131750
30.383333	1	0.131750
30.400000	1	0.131500
30.416667	1	0.131875
30.433333	1	0.132125
30.450000	1	0.134250
30.466667	1	0.136000
30.483333	1	0.138500
30.500000	1	0.140875
30.516667	1	0.144000
30.533333	1	0.147250
30.550000	1	0.150875
30.566667	1	0.155500
30.583333	1	0.160625
30.600000	1	0.166375
30.616667	1	0.172750
30.633333	1	0.179250
30.650000	1	0.186625
30.666667	1	0.194000
30.683333	1	0.202625
30.700000	1	0.211375
30.716667	1	0.221500
30.733333	1	0.231250
30.750000	1	0.241875
30.766667	1	0.253250
30.783333	1	0.265125
30.800000	1	0.277625
30.816667	1	0.291000
30.833333	1	0.304875
30.850000	1	0.320625
30.866667	1	0.337125
30.883333	1	0.355250
30.900000	1	0.375250
30.916667	1	0.396625
30.933333	1	0.420125
30.950000	1	0.446250
30.966667	1	0.475750
30.983333	1	0.508750
31.000000	1	0.545625
31.016667	1	0.587625
31.033333	1	0.635000
31.050000	1	0.688250
31.066667	1	0.748000
31.083333	1	0.815875
31.100000	1	0.892125
31.116667	1	0.977375
31.133333	1	1.071625
31.150000	1	1.176750
31.166667	1	1.293000
31.183333	1	1.420000
31.200000	1	1.559250
31.216667	1	1.710875
31.233333	1	1.873875
31.250000	1	2.049250
31.266667	1	2.235250
31.283333	1	2.431375
31.300000	1	2.636375
31.316667	1	2.849625
31.333333	1	3.068750
31.350000	1	3.291125
31.366667	1	3.516875
31.383333	1	3.741375
31.400000	1	3.964250
31.416667	1	4.181375
31.433333	1	4.390375
31.450000	1	4.589000
31.466667	1	4.773625
31.483333	1	4.942125
31.500000	1	5.091125
31.516667	1	5.219875
31.533333	1	5.326875
31.550000	1	5.410500
31.566667	1	5.469250
31.583333	1	5.502750
31.600000	1	5.511000
31.616667	1	5.493125
31.633333	1	5.451750
31.650000	1	5.385875
31.666667	1	5.297500
31.683333	1	5.188000
31.700000	1	5.059500
31.716667	1	4.914500
31.733333	1	4.754875
31.750000	1	4.582875
31.766667	1	4.401000
31.783333	1	4.210750
31.800000	1	4.015125
31.816667	1	3.815375
31.833333	1	3.613750
31.850000	1	3.413000
31.866667	1	3.214125
31.883333	1	3.019500
31.900000	1	2.829000
31.916667	1	2.644875
31.933333	1	2.467875
31.950000	1	2.298375
31.966667	1	2.136750
31.983333	1	1.984750
32.000000	1	1.839750
32.016667	1	1.703500
32.033333	1	1.575375
32.050000	1	1.455500
32.066667	1	1.344000
32.083333	1	1.240625
32.100000	1	1.144875
32.116667	1	1.056125
32.133333	1	0.973875
32.150000	1	0.897625
32.166667	1	0.827750
32.183333	1	0.763000
32.200000	1	0.703375
32.216667	1	0.649000
32.233333	1	0.598625
32.250000	1	0.552250
32.266667	1	0.509625
32.283333	1	0.470250
32.300000	1	0.434125
32.316667	1	0.400750
32.333333	1	0.370375
32.350000	1	0.343750
32.366667	1	0.319250
32.383333	1	0.296500
32.400000	1	0.275750
32.416667	1	0.256250
32.433333	1	0.238875
32.450000	1	0.223625
32.466667	1	0.209500
32.483333	1	0.196500
32.500000	1	0.184875
32.516667	1	0.174875
32.533333	1	0.165750
32.550000	1	0.157250
32.566667	1	0.149500
32.583333	1	0.142750
32.600000	1	0.136625
32.616667	1	0.130875
32.633333	1	0.126375
32.650000	1	0.121625
32.666667	1	0.116875
32.683333	1	0.112875
32.700000	1	0.108750
32.716667	1	0.105250
32.733333	1	0.102250
32.750000	1	0.099625
32.766667	1	0.097000
32.783333	1	0.094750
32.800000	1	0.092750
32.816667	1	0.090000
32.833333	1	0.087875
32.850000	1	0.085000
32.866667	1	0.083625
32.883333	1	0.082250
32.900000	1	0.080500
32.916667	1	0.079625
32.933333	1	0.078000
32.950000	1	0.077125
32.966667	1	0.076000
32.983333	1	0.074500
33.000000	1	0.073875
33.016667	1	0.073125
33.033333	1	0.072375
33.050000	1	0.071750
33.066667	1	0.071500
33.083333	1	0.070750
33.100000	1	0.070625
33.116667	1	0.069875
33.133333	1	0.070000
33.150000	1	0.069625
33.166667	1	0.070000
33.183333	1	0.070125
33.200000	1	0.070000
33.216667	1	0.069875
33.233333	1	0.069000
33.250000	1	0.068625
33.266667	1	0.068375
33.283333	1	0.069000
33.300000	1	0.068875
33.316667	1	0.068375
33.333333	1	0.068000
33.350000	1	0.067875
33.366667	1	0.067875
33.383333	1	0.068000
33.400000	1	0.068625
33.416667	1	0.069250
33.433333	1	0.069625
33.450000	1	0.070125
33.466667	1	0.070125
33.483333	1	0.070625
33.500000	1	0.071000
33.516667	1	0.072000
33.533333	1	0.072625
33.550000	1	0.073250
33.566667	1	0.074000
33.583333	1	0.074875
33.600000	1	0.076250
33.616667	1	0.077375
33.633333	1	0.078500
33.650000	1	0.079750
33.666667	1	0.080375
33.683333	1	0.081750
33.700000	1	0.082750
33.716667	1	0.084750
33.733333	1	0.087250
33.750000	1	0.089125
33.766667	1	0.091250
33.783333	1	0.092000
33.800000	1	0.094250
33.816667	1	0.096375
33.833333	1	0.098250
33.850000	1	0.099875
33.866667	1	0.101250
33.883333	1	0.102875
33.900000	1	0.104750
33.916667	1	0.107125
33.933333	1	0.109625
33.950000	1	0.111375
33.966667	1	0.112625
33.983333	1	0.114000
34.000000	1	0.116375
34.016667	1	0.117875
34.033333	1	0.120000
34.050000	1	0.122375
34.066667	1	0.124125
34.083333	1	0.125875
34.100000	1	0.127375
34.116667	1	0.128625
34.133333	1	0.130250
34.150000	1	0.131625
34.166667	1	0.132750
34.183333	1	0.134375
34.200000	1	0.135500
34.216667	1	0.137375
34.233333	1	0.138375
34.250000	1	0.139750
34.266667	1	0.141625
34.283333	1	0.143625
34.300000	1	0.145125
34.316667	1	0.146375
34.333333	1	0.147500
34.350000	1	0.149500
34.366667	1	0.151000
34.383333	1	0.152125
34.400000	1	0.153500
34.416667	1	0.154625
34.433333	1	0.154875
34.450000	1	0.155625
34.466667	1	0.157125
34.483333	1	0.158125
34.500000	1	0.159500
34.516667	1	0.159375
34.533333	1	0.160500
34.550000	1	0.161250
34.566667	1	0.162125
34.583333	1	0.162750
34.600000	1	0.163250
34.616667	1	0.163375
34.633333	1	0.164125
34.650000	1	0.164125
34.666667	1	0.163875
34.683333	1	0.163375
34.700000	1	0.162625
34.716667	1	0.162625
34.733333	1	0.162500
34.750000	1	0.161250
34.766667	1	0.160625
34.783333	1	0.160125
34.800000	1	0.159125
34.816667	1	0.159000
34.833333	1	0.158000
34.850000	1	0.156875
34.866667	1	0.155875
34.883333	1	0.154750
34.900000	1	0.153625
34.916667	1	0.152375
34.933333	1	0.151875
34.950000	1	0.150625
34.966667	1	0.149625
34.983333	1	0.148500
35.000000	1	0.147500
35.016667	1	0.146375
35.033333	1	0.145625
35.050000	1	0.144625
35.066667	1	0.143125
35.083333	1	0.142375
35.100000	1	0.141625
35.116667	1	0.141000
35.133333	1	0.140375
35.150000	1	0.139625
35.166667	1	0.139250
35.183333	1	0.137875
35.200000	1	0.137250
35.216667	1	0.136125
35.233333	1	0.135750
35.250000	1	0.134750
35.266667	1	0.133750
35.283333	1	0.132875
35.300000	1	0.132000
35.316667	1	0.131000
35.333333	1	0.130375
35.350000	1	0.130250
35.366667	1	0.129625
35.383333	1	0.129375
35.400000	1	0.128375
35.416667	1	0.128125
35.433333	1	0.128000
35.450000	1	0.128500
35.466667	1	0.128250
35.483333	1	0.128250
35.500000	1	0.128625
35.516667	1	0.128375
35.533333	1	0.129000
35.550000	1	0.129125
35.566667	1	0.129625
35.583333	1	0.130250
35.600000	1	0.130625
35.616667	1	0.130625
35.633333	1	0.131875
35.650000	1	0.132875
35.666667	1	0.133125
35.683333	1	0.133750
35.700000	1	0.134750
35.716667	1	0.136500
35.733333	1	0.138125
35.750000	1	0.139625
35.766667	1	0.140500
35.783333	1	0.141625
35.800000	1	0.142875
35.816667	1	0.143500
35.833333	1	0.144250
35.850000	1	0.145750
35.866667	1	0.147125
35.883333	1	0.147750
35.900000	1	0.149125
35.916667	1	0.150250
35.933333	1	0.151000
35.950000	1	0.152125
35.966667	1	0.153500
35.983333	1	0.154250
36.000000	1	0.154750
36.016667	1	0.155625
36.033333	1	0.155875
36.050000	1	0.155875
36.066667	1	0.156000
36.083333	1	0.156375
36.100000	1	0.157250
36.116667	1	0.158000
36.133333	1	0.157875
36.150000	1	0.158000
36.166667	1	0.158750
36.183333	1	0.160000
36.200000	1	0.161125
36.216667	1	0.161750
36.233333	1	0.162250
36.250000	1	0.162750
36.266667	1	0.162750
36.283333	1	0.163250
36.300000	1	0.164375
36.316667	1	0.165125
36.333333	1	0.166000
36.350000	1	0.166625
36.366667	1	0.167250
36.383333	1	0.167750
36.400000	1	0.168125
36.416667	1	0.168500
36.433333	1	0.169125
36.450000	1	0.169875
36.466667	1	0.170250
36.483333	1	0.170125
36.500000	1	0.170375
36.516667	1	0.170375
36.533333	1	0.170750
36.550000	1	0.170750
36.566667	1	0.170375
36.583333	1	0.170000
36.600000	1	0.169125
36.616667	1	0.167625
36.633333	1	0.166625
36.650000	1	0.165500
36.666667	1	0.164250
36.683333	1	0.162625
36.700000	1	0.160625
36.716667	1	0.159625
36.733333	1	0.157625
36.750000	1	0.155500
36.766667	1	0.154125
36.783333	1	0.152250
36.800000	1	0.150375
36.816667	1	0.148625
36.833333	1	0.146250
36.850000	1	0.143500
36.866667	1	0.141625
36.883333	1	0.139375
36.900000	1	0.137125
36.916667	1	0.135000
36.933333	1	0.132875
36.950000	1	0.131125
36.966667	1	0.129625
36.983333	1	0.128000
37.000000	1	0.125375
37.016667	1	0.123625
37.033333	1	0.121875
37.050000	1	0.120500
37.066667	1	0.119125
37.083333	1	0.118625
37.100000	1	0.117750
37.116667	1	0.117625
37.133333	1	0.117125
37.150000	1	0.116125
37.166667	1	0.115875
37.183333	1	0.115125
37.200000	1	0.114500
37.216667	1	0.113750
37.233333	1	0.113250
37.250000	1	0.112500
37.266667	1	0.112000
37.283333	1	0.111625
37.300000	1	0.111250
37.316667	1	0.110750
37.333333	1	0.111125
37.350000	1	0.111250
37.366667	1	0.111250
37.383333	1	0.110375
37.400000	1	0.109750
37.416667	1	0.109375
37.433333	1	0.108625
37.450000	1	0.107625
37.466667	1	0.106500
37.483333	1	0.105750
37.500000	1	0.104875
37.516667	1	0.104625
37.533333	1	0.103375
37.550000	1	0.102500
37.566667	1	0.100875
37.583333	1	0.099875
37.600000	1	0.098750
37.616667	1	0.098250
37.633333	1	0.096125
37.650000	1	0.094625
37.666667	1	0.093250
37.683333	1	0.092125
37.700000	1	0.091375
37.716667	1	0.090375
37.733333	1	0.089500
37.750000	1	0.087625
37.766667	1	0.085750
37.783333	1	0.084000
37.800000	1	0.082375
37.816667	1	0.081000
37.833333	1	0.079875
37.850000	1	0.078875
37.866667	1	0.077625
37.883333	1	0.076875
37.900000	1	0.075250
37.916667	1	0.074750
37.933333	1	0.073625
37.950000	1	0.072875
37.966667	1	0.072250
37.983333	1	0.071500
38.000000	1	0.071250
38.016667	1	0.070625
38.033333	1	0.070500
38.050000	1	0.069875
38.066667	1	0.069500
38.083333	1	0.069125
38.100000	1	0.068375
38.116667	1	0.068625
38.133333	1	0.067625
38.150000	1	0.067625
38.166667	1	0.067875
38.183333	1	0.067875
38.200000	1	0.067250
38.216667	1	0.066875
38.233333	1	0.067000
38.250000	1	0.067125
38.266667	1	0.066625
38.283333	1	0.067625
38.300000	1	0.068125
38.316667	1	0.068375
38.333333	1	0.067875
38.350000	1	0.067375
38.366667	1	0.067625
38.383333	1	0.068625
38.400000	1	0.068625
38.416667	1	0.069375
38.433333	1	0.069875
38.450000	1	0.070750
38.466667	1	0.072250
38.483333	1	0.073625
38.500000	1	0.074875
38.516667	1	0.076000
38.533333	1	0.078250
38.550000	1	0.079250
38.566667	1	0.080375
38.583333	1	0.081625
38.600000	1	0.083000
38.616667	1	0.084500
38.633333	1	0.086250
38.650000	1	0.088125
38.666667	1	0.090250
38.683333	1	0.091625
38.700000	1	0.093625
38.716667	1	0.095250
38.733333	1	0.097500
38.750000	1	0.099250
38.766667	1	0.101000
38.783333	1	0.103375
38.800000	1	0.105250
38.816667	1	0.107000
38.833333	1	0.109250
38.850000	1	0.110750
38.866667	1	0.113500
38.883333	1	0.115250
38.900000	1	0.116500
38.916667	1	0.117750
38.933333	1	0.118750
38.950000	1	0.120500
38.966667	1	0.121375
38.983333	1	0.122375
39.000000	1	0.122750
39.016667	1	0.123750
39.033333	1	0.123500
39.050000	1	0.124125
39.066667	1	0.124625
39.083333	1	0.124250
39.100000	1	0.123750
39.116667	1	0.123125
39.133333	1	0.122500
39.150000	1	0.121250
39.166667	1	0.120000
39.183333	1	0.119000
39.200000	1	0.117625
39.216667	1	0.115375
39.233333	1	0.113375
39.250000	1	0.111375
39.266667	1	0.109375
39.283333	1	0.106625
39.300000	1	0.104500
39.316667	1	0.101750
39.333333	1	0.098875
39.350000	1	0.095750
39.366667	1	0.093000
39.383333	1	0.089375
39.400000	1	0.086000
39.416667	1	0.083000
39.433333	1	0.080250
39.450000	1	0.077375
39.466667	1	0.074125
39.483333	1	0.071250
39.500000	1	0.068625
39.516667	1	0.066000
39.533333	1	0.063250
39.550000	1	0.059750
39.566667	1	0.057250
39.583333	1	0.054625
39.600000	1	0.051750
39.616667	1	0.049125
39.633333	1	0.046750
39.650000	1	0.044750
39.666667	1	0.042500
39.683333	1	0.041500
39.700000	1	0.039625
39.716667	1	0.038250
39.733333	1	0.036750
39.750000	1	0.035500
39.766667	1	0.034500
39.783333	1	0.033125
39.800000	1	0.031500
39.816667	1	0.030250
39.833333	1	0.029500
39.850000	1	0.029000
39.866667	1	0.028500
39.883333	1	0.027625
39.900000	1	0.027125
39.916667	1	0.026500
39.933333	1	0.026250
39.950000	1	0.025875
39.966667	1	0.025750
39.983333	1	0.025250
40.000000	1	0.025125
