URL	chrom://bioreactor/micro_cm7/HPLC_Ultimate_3000/Users/markusar/20240708_MA_pHrange1.seq/304.smp/RI_1.channel/RI_1.chm
Channel	RI_1

Injection Information:
Data Vault	micro_cm7
Sequence	20240708_MA_pHrange1
Name	Pv3_20H_5
Number	46
Position	BD10
Comment	
Processing Method	
Instrument Method	run_25B_method
Type	Unknown
Status	Finished
Inject Time	09.07.2024 22:18:16 +02:00
Volume (µl)	20.0000
Dilution Factor	1.0000
Weight	1.0000

Chromatogram Data Information:
Time Min. (min)	0.000000
Time Max. (min)	40.000000
Data Points	2401
Detector	RI
Generating Data System	Chromeleon 7.3.2.11814
Exporting Data System	Chromeleon 7.3.2.0
Operator	Instrument Controller
Signal Quantity	Refractive 
Signal Unit	µRIU
Signal Min.	-0.081125
Signal Max.	83.458125
Channel	RI_1
Driver Name	RID520Driver.dll
Channel Type	Evaluation
Min. Step (s)	1
Max. Step (s)	1
Average Step (s)	1

Signal Parameter Information:
Signal Info	

Chromatogram Data:
Time (min)	Step (s)	Value (µRIU)
0.000000	n.a.	0.040500
0.016667	1	0.042750
0.033333	1	0.044250
0.050000	1	0.046750
0.066667	1	0.048750
0.083333	1	0.051750
0.100000	1	0.054125
0.116667	1	0.056125
0.133333	1	0.059000
0.150000	1	0.060500
0.166667	1	0.062125
0.183333	1	0.063875
0.200000	1	0.065250
0.216667	1	0.067625
0.233333	1	0.069125
0.250000	1	0.070625
0.266667	1	0.071875
0.283333	1	0.073125
0.300000	1	0.074000
0.316667	1	0.074750
0.333333	1	0.075000
0.350000	1	0.075125
0.366667	1	0.074875
0.383333	1	0.075000
0.400000	1	0.074125
0.416667	1	0.074000
0.433333	1	0.074125
0.450000	1	0.075000
0.466667	1	0.076125
0.483333	1	0.076500
0.500000	1	0.075875
0.516667	1	0.075250
0.533333	1	0.073875
0.550000	1	0.072625
0.566667	1	0.069875
0.583333	1	0.066500
0.600000	1	0.063125
0.616667	1	0.059875
0.633333	1	0.057000
0.650000	1	0.054625
0.666667	1	0.052000
0.683333	1	0.049750
0.700000	1	0.048000
0.716667	1	0.046125
0.733333	1	0.045000
0.750000	1	0.043750
0.766667	1	0.042625
0.783333	1	0.042125
0.800000	1	0.041000
0.816667	1	0.040250
0.833333	1	0.039250
0.850000	1	0.039000
0.866667	1	0.039125
0.883333	1	0.038000
0.900000	1	0.037750
0.916667	1	0.037125
0.933333	1	0.037125
0.950000	1	0.037500
0.966667	1	0.037375
0.983333	1	0.037500
1.000000	1	0.037625
1.016667	1	0.038375
1.033333	1	0.039750
1.050000	1	0.040750
1.066667	1	0.041500
1.083333	1	0.042375
1.100000	1	0.043125
1.116667	1	0.044125
1.133333	1	0.044500
1.150000	1	0.045000
1.166667	1	0.045750
1.183333	1	0.046625
1.200000	1	0.047250
1.216667	1	0.047875
1.233333	1	0.049125
1.250000	1	0.050000
1.266667	1	0.050500
1.283333	1	0.051875
1.300000	1	0.052500
1.316667	1	0.052750
1.333333	1	0.052375
1.350000	1	0.052875
1.366667	1	0.053000
1.383333	1	0.053250
1.400000	1	0.053875
1.416667	1	0.053875
1.433333	1	0.054250
1.450000	1	0.054375
1.466667	1	0.054250
1.483333	1	0.054000
1.500000	1	0.053875
1.516667	1	0.054000
1.533333	1	0.054000
1.550000	1	0.053750
1.566667	1	0.053250
1.583333	1	0.053000
1.600000	1	0.052375
1.616667	1	0.051875
1.633333	1	0.052625
1.650000	1	0.052875
1.666667	1	0.053250
1.683333	1	0.053625
1.700000	1	0.054000
1.716667	1	0.054250
1.733333	1	0.054375
1.750000	1	0.054125
1.766667	1	0.053750
1.783333	1	0.053375
1.800000	1	0.053375
1.816667	1	0.052875
1.833333	1	0.052375
1.850000	1	0.052500
1.866667	1	0.052250
1.883333	1	0.052750
1.900000	1	0.052125
1.916667	1	0.051625
1.933333	1	0.050250
1.950000	1	0.049375
1.966667	1	0.049375
1.983333	1	0.047875
2.000000	1	0.045750
2.016667	1	0.044625
2.033333	1	0.043750
2.050000	1	0.042375
2.066667	1	0.041125
2.083333	1	0.039875
2.100000	1	0.038250
2.116667	1	0.036000
2.133333	1	0.034000
2.150000	1	0.031625
2.166667	1	0.029500
2.183333	1	0.028000
2.200000	1	0.026375
2.216667	1	0.024750
2.233333	1	0.023375
2.250000	1	0.022375
2.266667	1	0.021000
2.283333	1	0.020000
2.300000	1	0.019000
2.316667	1	0.018000
2.333333	1	0.017250
2.350000	1	0.016625
2.366667	1	0.016000
2.383333	1	0.016125
2.400000	1	0.016625
2.416667	1	0.016750
2.433333	1	0.016750
2.450000	1	0.016875
2.466667	1	0.017375
2.483333	1	0.017500
2.500000	1	0.017500
2.516667	1	0.018000
2.533333	1	0.017875
2.550000	1	0.018000
2.566667	1	0.018250
2.583333	1	0.018375
2.600000	1	0.018125
2.616667	1	0.017625
2.633333	1	0.018250
2.650000	1	0.018500
2.666667	1	0.019250
2.683333	1	0.019500
2.700000	1	0.019875
2.716667	1	0.020000
2.733333	1	0.019625
2.750000	1	0.019625
2.766667	1	0.019125
2.783333	1	0.018375
2.800000	1	0.017625
2.816667	1	0.018375
2.833333	1	0.018625
2.850000	1	0.018500
2.866667	1	0.018625
2.883333	1	0.019000
2.900000	1	0.018750
2.916667	1	0.018625
2.933333	1	0.019375
2.950000	1	0.019375
2.966667	1	0.019875
2.983333	1	0.020750
3.000000	1	0.021625
3.016667	1	0.022375
3.033333	1	0.022625
3.050000	1	0.023625
3.066667	1	0.024250
3.083333	1	0.025625
3.100000	1	0.027125
3.116667	1	0.028375
3.133333	1	0.029000
3.150000	1	0.030500
3.166667	1	0.031875
3.183333	1	0.033500
3.200000	1	0.035375
3.216667	1	0.037125
3.233333	1	0.038750
3.250000	1	0.040625
3.266667	1	0.042625
3.283333	1	0.043875
3.300000	1	0.045375
3.316667	1	0.047000
3.333333	1	0.048750
3.350000	1	0.050625
3.366667	1	0.052375
3.383333	1	0.054375
3.400000	1	0.055625
3.416667	1	0.057875
3.433333	1	0.060000
3.450000	1	0.061375
3.466667	1	0.063375
3.483333	1	0.065500
3.500000	1	0.066750
3.516667	1	0.068750
3.533333	1	0.069750
3.550000	1	0.071000
3.566667	1	0.072375
3.583333	1	0.074000
3.600000	1	0.075625
3.616667	1	0.076375
3.633333	1	0.076875
3.650000	1	0.078125
3.666667	1	0.078625
3.683333	1	0.079375
3.700000	1	0.079250
3.716667	1	0.078625
3.733333	1	0.079375
3.750000	1	0.080000
3.766667	1	0.079750
3.783333	1	0.079875
3.800000	1	0.080125
3.816667	1	0.080375
3.833333	1	0.081000
3.850000	1	0.081250
3.866667	1	0.081250
3.883333	1	0.081250
3.900000	1	0.081500
3.916667	1	0.081375
3.933333	1	0.081125
3.950000	1	0.080875
3.966667	1	0.080500
3.983333	1	0.080375
4.000000	1	0.080500
4.016667	1	0.081000
4.033333	1	0.081125
4.050000	1	0.081250
4.066667	1	0.081500
4.083333	1	0.081875
4.100000	1	0.082125
4.116667	1	0.082250
4.133333	1	0.081375
4.150000	1	0.081375
4.166667	1	0.081750
4.183333	1	0.081250
4.200000	1	0.081250
4.216667	1	0.081750
4.233333	1	0.082125
4.250000	1	0.081875
4.266667	1	0.082500
4.283333	1	0.082875
4.300000	1	0.083625
4.316667	1	0.084125
4.333333	1	0.085250
4.350000	1	0.085875
4.366667	1	0.086625
4.383333	1	0.087750
4.400000	1	0.089000
4.416667	1	0.091000
4.433333	1	0.092125
4.450000	1	0.093250
4.466667	1	0.095125
4.483333	1	0.097000
4.500000	1	0.098625
4.516667	1	0.100500
4.533333	1	0.102500
4.550000	1	0.104875
4.566667	1	0.107125
4.583333	1	0.109500
4.600000	1	0.111750
4.616667	1	0.114250
4.633333	1	0.117375
4.650000	1	0.120125
4.666667	1	0.122625
4.683333	1	0.125875
4.700000	1	0.129000
4.716667	1	0.132250
4.733333	1	0.135250
4.750000	1	0.138125
4.766667	1	0.141500
4.783333	1	0.145000
4.800000	1	0.148250
4.816667	1	0.150750
4.833333	1	0.154000
4.850000	1	0.157875
4.866667	1	0.160875
4.883333	1	0.163625
4.900000	1	0.166500
4.916667	1	0.169750
4.933333	1	0.173000
4.950000	1	0.176625
4.966667	1	0.180000
4.983333	1	0.183125
5.000000	1	0.186250
5.016667	1	0.189750
5.033333	1	0.192750
5.050000	1	0.196500
5.066667	1	0.200875
5.083333	1	0.204250
5.100000	1	0.208500
5.116667	1	0.212625
5.133333	1	0.216750
5.150000	1	0.221250
5.166667	1	0.226000
5.183333	1	0.230375
5.200000	1	0.235125
5.216667	1	0.239625
5.233333	1	0.243750
5.250000	1	0.247875
5.266667	1	0.252125
5.283333	1	0.256250
5.300000	1	0.260125
5.316667	1	0.264375
5.333333	1	0.268625
5.350000	1	0.273250
5.366667	1	0.277500
5.383333	1	0.281375
5.400000	1	0.285375
5.416667	1	0.288625
5.433333	1	0.291875
5.450000	1	0.294125
5.466667	1	0.297125
5.483333	1	0.297875
5.500000	1	0.300000
5.516667	1	0.301750
5.533333	1	0.302750
5.550000	1	0.303875
5.566667	1	0.304625
5.583333	1	0.305000
5.600000	1	0.305125
5.616667	1	0.305375
5.633333	1	0.304750
5.650000	1	0.303375
5.666667	1	0.301875
5.683333	1	0.300375
5.700000	1	0.299375
5.716667	1	0.297750
5.733333	1	0.295750
5.750000	1	0.293250
5.766667	1	0.290625
5.783333	1	0.288375
5.800000	1	0.285750
5.816667	1	0.283375
5.833333	1	0.280625
5.850000	1	0.277500
5.866667	1	0.274875
5.883333	1	0.271875
5.900000	1	0.268000
5.916667	1	0.264000
5.933333	1	0.260500
5.950000	1	0.256375
5.966667	1	0.252750
5.983333	1	0.248750
6.000000	1	0.244375
6.016667	1	0.240500
6.033333	1	0.236750
6.050000	1	0.232000
6.066667	1	0.227750
6.083333	1	0.223000
6.100000	1	0.217875
6.116667	1	0.212625
6.133333	1	0.207875
6.150000	1	0.203375
6.166667	1	0.198875
6.183333	1	0.193750
6.200000	1	0.189500
6.216667	1	0.184875
6.233333	1	0.180250
6.250000	1	0.175625
6.266667	1	0.170625
6.283333	1	0.165875
6.300000	1	0.161875
6.316667	1	0.158000
6.333333	1	0.153625
6.350000	1	0.149750
6.366667	1	0.146250
6.383333	1	0.142375
6.400000	1	0.139500
6.416667	1	0.136500
6.433333	1	0.133000
6.450000	1	0.130250
6.466667	1	0.126875
6.483333	1	0.123500
6.500000	1	0.121625
6.516667	1	0.119875
6.533333	1	0.117250
6.550000	1	0.115750
6.566667	1	0.114750
6.583333	1	0.112250
6.600000	1	0.110625
6.616667	1	0.109375
6.633333	1	0.108625
6.650000	1	0.107500
6.666667	1	0.107000
6.683333	1	0.106375
6.700000	1	0.106125
6.716667	1	0.105500
6.733333	1	0.105375
6.750000	1	0.104250
6.766667	1	0.104375
6.783333	1	0.103875
6.800000	1	0.104000
6.816667	1	0.103750
6.833333	1	0.104000
6.850000	1	0.104375
6.866667	1	0.105750
6.883333	1	0.105500
6.900000	1	0.105875
6.916667	1	0.106750
6.933333	1	0.106875
6.950000	1	0.107875
6.966667	1	0.108375
6.983333	1	0.109375
7.000000	1	0.110250
7.016667	1	0.111500
7.033333	1	0.113000
7.050000	1	0.114500
7.066667	1	0.115500
7.083333	1	0.117000
7.100000	1	0.117875
7.116667	1	0.119750
7.133333	1	0.122375
7.150000	1	0.124125
7.166667	1	0.126375
7.183333	1	0.129125
7.200000	1	0.131000
7.216667	1	0.132750
7.233333	1	0.135500
7.250000	1	0.137500
7.266667	1	0.139500
7.283333	1	0.141750
7.300000	1	0.144250
7.316667	1	0.145875
7.333333	1	0.148000
7.350000	1	0.149750
7.366667	1	0.151625
7.383333	1	0.152500
7.400000	1	0.153875
7.416667	1	0.155625
7.433333	1	0.157125
7.450000	1	0.157625
7.466667	1	0.158125
7.483333	1	0.158500
7.500000	1	0.159000
7.516667	1	0.158375
7.533333	1	0.157875
7.550000	1	0.157000
7.566667	1	0.155750
7.583333	1	0.154375
7.600000	1	0.152500
7.616667	1	0.150625
7.633333	1	0.148250
7.650000	1	0.145875
7.666667	1	0.143000
7.683333	1	0.140500
7.700000	1	0.137000
7.716667	1	0.134250
7.733333	1	0.131250
7.750000	1	0.127875
7.766667	1	0.124125
7.783333	1	0.120125
7.800000	1	0.116500
7.816667	1	0.111875
7.833333	1	0.107625
7.850000	1	0.103500
7.866667	1	0.099500
7.883333	1	0.095250
7.900000	1	0.091000
7.916667	1	0.087000
7.933333	1	0.083500
7.950000	1	0.079500
7.966667	1	0.075375
7.983333	1	0.071750
8.000000	1	0.068125
8.016667	1	0.064625
8.033333	1	0.061625
8.050000	1	0.058625
8.066667	1	0.055000
8.083333	1	0.051500
8.100000	1	0.049250
8.116667	1	0.046250
8.133333	1	0.043375
8.150000	1	0.041000
8.166667	1	0.039000
8.183333	1	0.037000
8.200000	1	0.035625
8.216667	1	0.033875
8.233333	1	0.032250
8.250000	1	0.030250
8.266667	1	0.028250
8.283333	1	0.026875
8.300000	1	0.026125
8.316667	1	0.026250
8.333333	1	0.025375
8.350000	1	0.024875
8.366667	1	0.024625
8.383333	1	0.024250
8.400000	1	0.023875
8.416667	1	0.023750
8.433333	1	0.023750
8.450000	1	0.023875
8.466667	1	0.022375
8.483333	1	0.022500
8.500000	1	0.022750
8.516667	1	0.022750
8.533333	1	0.023500
8.550000	1	0.023875
8.566667	1	0.024125
8.583333	1	0.024500
8.600000	1	0.025250
8.616667	1	0.026250
8.633333	1	0.026250
8.650000	1	0.027000
8.666667	1	0.027250
8.683333	1	0.027375
8.700000	1	0.028000
8.716667	1	0.029000
8.733333	1	0.030375
8.750000	1	0.031250
8.766667	1	0.031750
8.783333	1	0.032250
8.800000	1	0.033125
8.816667	1	0.033625
8.833333	1	0.034250
8.850000	1	0.035625
8.866667	1	0.036375
8.883333	1	0.037500
8.900000	1	0.038125
8.916667	1	0.039125
8.933333	1	0.040625
8.950000	1	0.041375
8.966667	1	0.042750
8.983333	1	0.043875
9.000000	1	0.045000
9.016667	1	0.046000
9.033333	1	0.046500
9.050000	1	0.047375
9.066667	1	0.048375
9.083333	1	0.049125
9.100000	1	0.049625
9.116667	1	0.050625
9.133333	1	0.051375
9.150000	1	0.050500
9.166667	1	0.050250
9.183333	1	0.050000
9.200000	1	0.049000
9.216667	1	0.048375
9.233333	1	0.047375
9.250000	1	0.046000
9.266667	1	0.045000
9.283333	1	0.044125
9.300000	1	0.043000
9.316667	1	0.042000
9.333333	1	0.040500
9.350000	1	0.038875
9.366667	1	0.037375
9.383333	1	0.036125
9.400000	1	0.034625
9.416667	1	0.032250
9.433333	1	0.030750
9.450000	1	0.029375
9.466667	1	0.027375
9.483333	1	0.025125
9.500000	1	0.023125
9.516667	1	0.021500
9.533333	1	0.019500
9.550000	1	0.017375
9.566667	1	0.015125
9.583333	1	0.013250
9.600000	1	0.011625
9.616667	1	0.009750
9.633333	1	0.007625
9.650000	1	0.005625
9.666667	1	0.003625
9.683333	1	0.002000
9.700000	1	0.000375
9.716667	1	-0.000625
9.733333	1	-0.002625
9.750000	1	-0.003875
9.766667	1	-0.005250
9.783333	1	-0.006000
9.800000	1	-0.007000
9.816667	1	-0.007500
9.833333	1	-0.008250
9.850000	1	-0.009375
9.866667	1	-0.009625
9.883333	1	-0.010000
9.900000	1	-0.010250
9.916667	1	-0.010250
9.933333	1	-0.010375
9.950000	1	-0.009875
9.966667	1	-0.009125
9.983333	1	-0.007625
10.000000	1	-0.005875
10.016667	1	-0.003625
10.033333	1	-0.000875
10.050000	1	0.001750
10.066667	1	0.005750
10.083333	1	0.009875
10.100000	1	0.014750
10.116667	1	0.019875
10.133333	1	0.025625
10.150000	1	0.032625
10.166667	1	0.040500
10.183333	1	0.048375
10.200000	1	0.057250
10.216667	1	0.067750
10.233333	1	0.079000
10.250000	1	0.091750
10.266667	1	0.105875
10.283333	1	0.121750
10.300000	1	0.139000
10.316667	1	0.158375
10.333333	1	0.179250
10.350000	1	0.199250
10.366667	1	0.219375
10.383333	1	0.234750
10.400000	1	0.242625
10.416667	1	0.237000
10.433333	1	0.214375
10.450000	1	0.171375
10.466667	1	0.108125
10.483333	1	0.031000
10.500000	1	-0.041750
10.516667	1	-0.081125
10.533333	1	-0.040875
10.550000	1	0.139625
10.566667	1	0.532375
10.583333	1	1.216250
10.600000	1	2.267750
10.616667	1	3.756250
10.633333	1	5.736250
10.650000	1	8.245625
10.666667	1	11.313500
10.683333	1	14.952375
10.700000	1	19.165500
10.716667	1	23.941500
10.733333	1	29.256750
10.750000	1	35.073000
10.766667	1	41.335250
10.783333	1	47.960000
10.800000	1	54.816125
10.816667	1	61.709125
10.833333	1	68.335250
10.850000	1	74.258750
10.866667	1	78.896875
10.883333	1	81.567625
10.900000	1	81.642125
10.916667	1	78.783875
10.933333	1	73.139250
10.950000	1	65.352875
10.966667	1	56.380375
10.983333	1	47.192375
11.000000	1	38.545250
11.016667	1	30.898875
11.033333	1	24.446125
11.050000	1	19.180875
11.066667	1	14.992625
11.083333	1	11.727000
11.100000	1	9.220750
11.116667	1	7.317375
11.133333	1	5.882125
11.150000	1	4.803625
11.166667	1	3.992750
11.183333	1	3.379625
11.200000	1	2.912125
11.216667	1	2.552500
11.233333	1	2.272000
11.250000	1	2.051375
11.266667	1	1.873500
11.283333	1	1.728750
11.300000	1	1.609375
11.316667	1	1.508625
11.333333	1	1.423375
11.350000	1	1.351625
11.366667	1	1.289250
11.383333	1	1.235000
11.400000	1	1.188625
11.416667	1	1.148875
11.433333	1	1.114750
11.450000	1	1.085375
11.466667	1	1.060500
11.483333	1	1.039250
11.500000	1	1.021375
11.516667	1	1.006250
11.533333	1	0.993500
11.550000	1	0.983500
11.566667	1	0.976250
11.583333	1	0.969875
11.600000	1	0.965500
11.616667	1	0.963000
11.633333	1	0.961750
11.650000	1	0.962625
11.666667	1	0.965000
11.683333	1	0.968750
11.700000	1	0.974125
11.716667	1	0.980375
11.733333	1	0.988125
11.750000	1	0.997125
11.766667	1	1.007250
11.783333	1	1.018250
11.800000	1	1.029250
11.816667	1	1.040625
11.833333	1	1.052125
11.850000	1	1.063625
11.866667	1	1.074625
11.883333	1	1.084375
11.900000	1	1.092250
11.916667	1	1.099625
11.933333	1	1.106750
11.950000	1	1.112750
11.966667	1	1.117375
11.983333	1	1.120375
12.000000	1	1.123125
12.016667	1	1.125625
12.033333	1	1.128125
12.050000	1	1.130500
12.066667	1	1.133000
12.083333	1	1.135500
12.100000	1	1.139000
12.116667	1	1.142750
12.133333	1	1.146250
12.150000	1	1.151000
12.166667	1	1.155375
12.183333	1	1.161625
12.200000	1	1.168125
12.216667	1	1.175625
12.233333	1	1.184625
12.250000	1	1.195125
12.266667	1	1.208625
12.283333	1	1.226000
12.300000	1	1.247375
12.316667	1	1.274250
12.333333	1	1.309500
12.350000	1	1.355000
12.366667	1	1.413875
12.383333	1	1.489750
12.400000	1	1.586375
12.416667	1	1.709000
12.433333	1	1.862125
12.450000	1	2.052125
12.466667	1	2.285125
12.483333	1	2.566000
12.500000	1	2.899625
12.516667	1	3.290000
12.533333	1	3.739875
12.550000	1	4.249000
12.566667	1	4.815750
12.583333	1	5.435500
12.600000	1	6.100125
12.616667	1	6.798500
12.633333	1	7.517000
12.650000	1	8.242375
12.666667	1	8.959875
12.683333	1	9.657125
12.700000	1	10.322750
12.716667	1	10.949875
12.733333	1	11.535125
12.750000	1	12.081125
12.766667	1	12.594250
12.783333	1	13.082875
12.800000	1	13.557625
12.816667	1	14.028750
12.833333	1	14.506625
12.850000	1	15.002000
12.866667	1	15.521375
12.883333	1	16.070500
12.900000	1	16.652000
12.916667	1	17.267500
12.933333	1	17.916125
12.950000	1	18.597250
12.966667	1	19.309125
12.983333	1	20.049500
13.000000	1	20.817750
13.016667	1	21.611000
13.033333	1	22.428875
13.050000	1	23.270000
13.066667	1	24.133750
13.083333	1	25.019750
13.100000	1	25.927375
13.116667	1	26.854375
13.133333	1	27.801250
13.150000	1	28.766000
13.166667	1	29.750500
13.183333	1	30.754250
13.200000	1	31.776125
13.216667	1	32.816375
13.233333	1	33.875750
13.250000	1	34.956125
13.266667	1	36.057375
13.283333	1	37.179750
13.300000	1	38.323875
13.316667	1	39.489500
13.333333	1	40.676375
13.350000	1	41.885375
13.366667	1	43.117625
13.383333	1	44.373000
13.400000	1	45.651375
13.416667	1	46.954125
13.433333	1	48.281875
13.450000	1	49.638000
13.466667	1	51.022250
13.483333	1	52.436250
13.500000	1	53.879000
13.516667	1	55.351125
13.533333	1	56.851250
13.550000	1	58.381875
13.566667	1	59.944375
13.583333	1	61.537125
13.600000	1	63.161125
13.616667	1	64.817750
13.633333	1	66.508250
13.650000	1	68.235125
13.666667	1	70.000625
13.683333	1	71.804500
13.700000	1	73.646375
13.716667	1	75.523625
13.733333	1	77.426750
13.750000	1	79.318375
13.766667	1	81.094375
13.783333	1	82.561500
13.800000	1	83.449625
13.816667	1	83.458125
13.833333	1	82.296000
13.850000	1	79.705125
13.866667	1	75.483250
13.883333	1	69.560000
13.900000	1	62.123500
13.916667	1	53.693875
13.933333	1	45.019500
13.950000	1	36.835000
13.966667	1	29.646125
13.983333	1	23.662250
14.000000	1	18.861000
14.016667	1	15.096125
14.033333	1	12.189625
14.050000	1	9.973250
14.066667	1	8.304250
14.083333	1	7.061375
14.100000	1	6.142625
14.116667	1	5.465625
14.133333	1	4.963750
14.150000	1	4.588000
14.166667	1	4.301500
14.183333	1	4.078875
14.200000	1	3.901500
14.216667	1	3.757250
14.233333	1	3.637000
14.250000	1	3.534250
14.266667	1	3.445000
14.283333	1	3.366500
14.300000	1	3.296000
14.316667	1	3.232250
14.333333	1	3.174875
14.350000	1	3.123375
14.366667	1	3.077875
14.383333	1	3.037875
14.400000	1	3.004500
14.416667	1	2.978375
14.433333	1	2.961125
14.450000	1	2.956125
14.466667	1	2.966375
14.483333	1	2.997750
14.500000	1	3.056125
14.516667	1	3.152750
14.533333	1	3.302000
14.550000	1	3.522125
14.566667	1	3.838000
14.583333	1	4.283625
14.600000	1	4.898125
14.616667	1	5.732375
14.633333	1	6.844625
14.650000	1	8.298375
14.666667	1	10.159125
14.683333	1	12.487375
14.700000	1	15.332625
14.716667	1	18.719875
14.733333	1	22.651500
14.750000	1	27.093000
14.766667	1	31.964875
14.783333	1	37.136875
14.800000	1	42.444250
14.816667	1	47.688250
14.833333	1	52.643875
14.850000	1	57.074625
14.866667	1	60.755000
14.883333	1	63.491875
14.900000	1	65.144750
14.916667	1	65.634750
14.933333	1	64.955250
14.950000	1	63.168000
14.966667	1	60.397875
14.983333	1	56.823125
15.000000	1	52.641375
15.016667	1	48.059625
15.033333	1	43.283000
15.050000	1	38.494750
15.066667	1	33.852875
15.083333	1	29.478125
15.100000	1	25.458625
15.116667	1	21.841625
15.133333	1	18.643875
15.150000	1	15.862000
15.166667	1	13.474125
15.183333	1	11.449750
15.200000	1	9.749125
15.216667	1	8.331875
15.233333	1	7.158000
15.250000	1	6.192625
15.266667	1	5.403500
15.283333	1	4.762500
15.300000	1	4.244125
15.316667	1	3.827250
15.333333	1	3.494875
15.350000	1	3.232250
15.366667	1	3.027500
15.383333	1	2.869375
15.400000	1	2.750500
15.416667	1	2.663500
15.433333	1	2.601125
15.450000	1	2.558625
15.466667	1	2.530625
15.483333	1	2.512500
15.500000	1	2.500625
15.516667	1	2.491250
15.533333	1	2.480625
15.550000	1	2.466375
15.566667	1	2.447875
15.583333	1	2.424375
15.600000	1	2.395375
15.616667	1	2.361625
15.633333	1	2.324125
15.650000	1	2.283625
15.666667	1	2.243000
15.683333	1	2.202625
15.700000	1	2.162875
15.716667	1	2.124375
15.733333	1	2.087750
15.750000	1	2.053000
15.766667	1	2.020625
15.783333	1	1.988375
15.800000	1	1.957625
15.816667	1	1.926875
15.833333	1	1.896250
15.850000	1	1.865500
15.866667	1	1.835250
15.883333	1	1.805750
15.900000	1	1.776875
15.916667	1	1.750000
15.933333	1	1.725375
15.950000	1	1.704000
15.966667	1	1.685500
15.983333	1	1.671375
16.000000	1	1.660375
16.016667	1	1.652625
16.033333	1	1.646875
16.050000	1	1.643250
16.066667	1	1.640875
16.083333	1	1.639375
16.100000	1	1.638000
16.116667	1	1.635250
16.133333	1	1.631000
16.150000	1	1.624125
16.166667	1	1.615375
16.183333	1	1.604500
16.200000	1	1.591000
16.216667	1	1.574750
16.233333	1	1.556875
16.250000	1	1.538250
16.266667	1	1.518250
16.283333	1	1.497375
16.300000	1	1.476250
16.316667	1	1.455000
16.333333	1	1.433750
16.350000	1	1.412875
16.366667	1	1.393000
16.383333	1	1.374250
16.400000	1	1.356625
16.416667	1	1.341000
16.433333	1	1.327750
16.450000	1	1.316875
16.466667	1	1.307875
16.483333	1	1.302000
16.500000	1	1.298250
16.516667	1	1.297375
16.533333	1	1.299250
16.550000	1	1.302750
16.566667	1	1.308250
16.583333	1	1.315000
16.600000	1	1.321375
16.616667	1	1.328250
16.633333	1	1.333750
16.650000	1	1.338500
16.666667	1	1.342250
16.683333	1	1.344500
16.700000	1	1.345375
16.716667	1	1.344875
16.733333	1	1.343875
16.750000	1	1.343375
16.766667	1	1.343125
16.783333	1	1.342875
16.800000	1	1.343875
16.816667	1	1.345125
16.833333	1	1.347000
16.850000	1	1.349875
16.866667	1	1.352750
16.883333	1	1.356375
16.900000	1	1.360500
16.916667	1	1.363250
16.933333	1	1.365875
16.950000	1	1.367375
16.966667	1	1.367625
16.983333	1	1.367250
17.000000	1	1.365375
17.016667	1	1.362125
17.033333	1	1.357625
17.050000	1	1.352625
17.066667	1	1.347125
17.083333	1	1.342500
17.100000	1	1.337750
17.116667	1	1.333000
17.133333	1	1.328875
17.150000	1	1.326250
17.166667	1	1.324625
17.183333	1	1.323625
17.200000	1	1.323375
17.216667	1	1.323750
17.233333	1	1.326000
17.250000	1	1.329000
17.266667	1	1.332500
17.283333	1	1.336000
17.300000	1	1.340875
17.316667	1	1.346750
17.333333	1	1.352125
17.350000	1	1.358375
17.366667	1	1.364125
17.383333	1	1.369500
17.400000	1	1.375375
17.416667	1	1.380750
17.433333	1	1.384750
17.450000	1	1.387500
17.466667	1	1.389000
17.483333	1	1.390000
17.500000	1	1.389375
17.516667	1	1.387000
17.533333	1	1.382250
17.550000	1	1.375625
17.566667	1	1.367375
17.583333	1	1.357750
17.600000	1	1.346750
17.616667	1	1.333750
17.633333	1	1.319000
17.650000	1	1.303375
17.666667	1	1.286250
17.683333	1	1.269625
17.700000	1	1.252000
17.716667	1	1.234375
17.733333	1	1.216750
17.750000	1	1.200125
17.766667	1	1.183250
17.783333	1	1.166625
17.800000	1	1.149625
17.816667	1	1.134625
17.833333	1	1.119500
17.850000	1	1.104875
17.866667	1	1.090500
17.883333	1	1.077000
17.900000	1	1.064000
17.916667	1	1.051500
17.933333	1	1.040375
17.950000	1	1.029000
17.966667	1	1.018500
17.983333	1	1.007500
18.000000	1	0.998000
18.016667	1	0.988750
18.033333	1	0.979625
18.050000	1	0.970625
18.066667	1	0.961875
18.083333	1	0.953000
18.100000	1	0.944500
18.116667	1	0.937000
18.133333	1	0.929875
18.150000	1	0.923125
18.166667	1	0.917500
18.183333	1	0.912750
18.200000	1	0.908625
18.216667	1	0.906250
18.233333	1	0.904250
18.250000	1	0.903375
18.266667	1	0.903125
18.283333	1	0.903500
18.300000	1	0.904875
18.316667	1	0.906000
18.333333	1	0.907625
18.350000	1	0.909875
18.366667	1	0.912875
18.383333	1	0.916000
18.400000	1	0.919625
18.416667	1	0.923875
18.433333	1	0.928625
18.450000	1	0.934250
18.466667	1	0.940875
18.483333	1	0.949500
18.500000	1	0.958875
18.516667	1	0.969625
18.533333	1	0.982500
18.550000	1	0.996500
18.566667	1	1.013000
18.583333	1	1.031125
18.600000	1	1.051500
18.616667	1	1.072875
18.633333	1	1.096875
18.650000	1	1.122750
18.666667	1	1.150750
18.683333	1	1.181250
18.700000	1	1.213250
18.716667	1	1.246250
18.733333	1	1.280750
18.750000	1	1.316250
18.766667	1	1.353000
18.783333	1	1.390500
18.800000	1	1.427125
18.816667	1	1.463625
18.833333	1	1.498500
18.850000	1	1.531750
18.866667	1	1.561875
18.883333	1	1.588375
18.900000	1	1.610625
18.916667	1	1.627875
18.933333	1	1.638375
18.950000	1	1.643500
18.966667	1	1.641375
18.983333	1	1.631875
19.000000	1	1.616000
19.016667	1	1.592375
19.033333	1	1.563750
19.050000	1	1.529250
19.066667	1	1.491000
19.083333	1	1.449375
19.100000	1	1.406375
19.116667	1	1.364875
19.133333	1	1.325125
19.150000	1	1.289875
19.166667	1	1.261750
19.183333	1	1.241125
19.200000	1	1.231625
19.216667	1	1.235250
19.233333	1	1.254875
19.250000	1	1.293625
19.266667	1	1.353750
19.283333	1	1.438375
19.300000	1	1.549500
19.316667	1	1.689250
19.333333	1	1.859125
19.350000	1	2.060500
19.366667	1	2.294125
19.383333	1	2.558875
19.400000	1	2.851375
19.416667	1	3.168125
19.433333	1	3.501750
19.450000	1	3.845875
19.466667	1	4.191375
19.483333	1	4.529000
19.500000	1	4.848625
19.516667	1	5.140250
19.533333	1	5.392875
19.550000	1	5.598750
19.566667	1	5.751375
19.583333	1	5.844625
19.600000	1	5.875000
19.616667	1	5.843250
19.633333	1	5.750875
19.650000	1	5.602625
19.666667	1	5.404875
19.683333	1	5.165375
19.700000	1	4.893375
19.716667	1	4.598375
19.733333	1	4.288000
19.750000	1	3.970625
19.766667	1	3.654750
19.783333	1	3.345750
19.800000	1	3.049250
19.816667	1	2.769000
19.833333	1	2.508750
19.850000	1	2.270250
19.866667	1	2.052750
19.883333	1	1.857125
19.900000	1	1.683000
19.916667	1	1.529000
19.933333	1	1.393125
19.950000	1	1.274625
19.966667	1	1.171375
19.983333	1	1.082625
20.000000	1	1.007125
20.016667	1	0.942375
20.033333	1	0.888125
20.050000	1	0.843625
20.066667	1	0.807500
20.083333	1	0.779000
20.100000	1	0.757375
20.116667	1	0.741875
20.133333	1	0.731875
20.150000	1	0.727125
20.166667	1	0.726375
20.183333	1	0.729375
20.200000	1	0.735375
20.216667	1	0.744250
20.233333	1	0.754375
20.250000	1	0.765875
20.266667	1	0.777375
20.283333	1	0.788125
20.300000	1	0.798125
20.316667	1	0.806375
20.333333	1	0.812500
20.350000	1	0.814875
20.366667	1	0.814000
20.383333	1	0.810125
20.400000	1	0.802500
20.416667	1	0.792375
20.433333	1	0.779625
20.450000	1	0.765250
20.466667	1	0.749500
20.483333	1	0.733375
20.500000	1	0.718000
20.516667	1	0.704625
20.533333	1	0.693375
20.550000	1	0.685375
20.566667	1	0.682875
20.583333	1	0.685125
20.600000	1	0.694625
20.616667	1	0.711250
20.633333	1	0.735875
20.650000	1	0.768625
20.666667	1	0.810000
20.683333	1	0.859875
20.700000	1	0.918375
20.716667	1	0.985375
20.733333	1	1.058875
20.750000	1	1.137625
20.766667	1	1.219375
20.783333	1	1.303000
20.800000	1	1.386375
20.816667	1	1.465625
20.833333	1	1.538500
20.850000	1	1.602500
20.866667	1	1.656250
20.883333	1	1.696875
20.900000	1	1.723750
20.916667	1	1.736125
20.933333	1	1.733875
20.950000	1	1.715750
20.966667	1	1.683875
20.983333	1	1.639500
21.000000	1	1.584750
21.016667	1	1.520500
21.033333	1	1.450125
21.050000	1	1.375250
21.066667	1	1.298500
21.083333	1	1.221375
21.100000	1	1.146000
21.116667	1	1.072125
21.133333	1	1.002250
21.150000	1	0.937250
21.166667	1	0.877125
21.183333	1	0.822000
21.200000	1	0.772750
21.216667	1	0.728250
21.233333	1	0.688625
21.250000	1	0.654375
21.266667	1	0.624625
21.283333	1	0.597500
21.300000	1	0.575125
21.316667	1	0.555625
21.333333	1	0.538250
21.350000	1	0.523625
21.366667	1	0.511125
21.383333	1	0.500375
21.400000	1	0.491250
21.416667	1	0.483375
21.433333	1	0.477125
21.450000	1	0.472250
21.466667	1	0.467250
21.483333	1	0.463500
21.500000	1	0.460500
21.516667	1	0.458000
21.533333	1	0.456625
21.550000	1	0.455500
21.566667	1	0.456250
21.583333	1	0.456875
21.600000	1	0.458750
21.616667	1	0.461500
21.633333	1	0.465375
21.650000	1	0.470375
21.666667	1	0.476875
21.683333	1	0.485000
21.700000	1	0.494500
21.716667	1	0.505750
21.733333	1	0.518375
21.750000	1	0.532750
21.766667	1	0.548625
21.783333	1	0.565750
21.800000	1	0.584875
21.816667	1	0.604375
21.833333	1	0.625125
21.850000	1	0.646375
21.866667	1	0.668000
21.883333	1	0.690125
21.900000	1	0.712250
21.916667	1	0.734125
21.933333	1	0.754125
21.950000	1	0.772625
21.966667	1	0.789875
21.983333	1	0.804875
22.000000	1	0.818750
22.016667	1	0.829625
22.033333	1	0.838250
22.050000	1	0.845250
22.066667	1	0.848750
22.083333	1	0.850500
22.100000	1	0.849625
22.116667	1	0.846875
22.133333	1	0.841875
22.150000	1	0.835125
22.166667	1	0.827125
22.183333	1	0.817625
22.200000	1	0.806125
22.216667	1	0.794375
22.233333	1	0.780500
22.250000	1	0.766500
22.266667	1	0.751750
22.283333	1	0.736000
22.300000	1	0.719875
22.316667	1	0.702750
22.333333	1	0.686375
22.350000	1	0.670125
22.366667	1	0.653250
22.383333	1	0.636875
22.400000	1	0.621000
22.416667	1	0.605750
22.433333	1	0.590500
22.450000	1	0.576125
22.466667	1	0.562125
22.483333	1	0.548875
22.500000	1	0.537125
22.516667	1	0.526000
22.533333	1	0.515625
22.550000	1	0.506250
22.566667	1	0.497500
22.583333	1	0.488875
22.600000	1	0.482125
22.616667	1	0.474875
22.633333	1	0.468875
22.650000	1	0.463125
22.666667	1	0.457000
22.683333	1	0.451625
22.700000	1	0.446625
22.716667	1	0.441875
22.733333	1	0.437375
22.750000	1	0.433625
22.766667	1	0.429500
22.783333	1	0.425250
22.800000	1	0.421500
22.816667	1	0.418000
22.833333	1	0.413750
22.850000	1	0.410000
22.866667	1	0.406500
22.883333	1	0.403250
22.900000	1	0.400875
22.916667	1	0.397375
22.933333	1	0.395125
22.950000	1	0.392875
22.966667	1	0.391000
22.983333	1	0.389750
23.000000	1	0.388875
23.016667	1	0.388125
23.033333	1	0.386625
23.050000	1	0.386000
23.066667	1	0.385750
23.083333	1	0.385375
23.100000	1	0.386125
23.116667	1	0.386250
23.133333	1	0.387000
23.150000	1	0.387750
23.166667	1	0.388750
23.183333	1	0.389875
23.200000	1	0.390750
23.216667	1	0.392000
23.233333	1	0.393375
23.250000	1	0.396000
23.266667	1	0.398625
23.283333	1	0.401750
23.300000	1	0.407125
23.316667	1	0.413625
23.333333	1	0.422500
23.350000	1	0.433875
23.366667	1	0.449250
23.383333	1	0.468375
23.400000	1	0.494500
23.416667	1	0.526000
23.433333	1	0.565625
23.450000	1	0.614375
23.466667	1	0.673875
23.483333	1	0.745375
23.500000	1	0.831500
23.516667	1	0.932875
23.533333	1	1.052250
23.550000	1	1.191250
23.566667	1	1.350875
23.583333	1	1.531875
23.600000	1	1.735375
23.616667	1	1.961500
23.633333	1	2.209125
23.650000	1	2.478000
23.666667	1	2.764750
23.683333	1	3.066500
23.700000	1	3.379500
23.716667	1	3.700000
23.733333	1	4.022125
23.750000	1	4.338500
23.766667	1	4.643875
23.783333	1	4.930500
23.800000	1	5.193250
23.816667	1	5.424875
23.833333	1	5.620125
23.850000	1	5.775500
23.866667	1	5.886875
23.883333	1	5.950625
23.900000	1	5.968000
23.916667	1	5.937625
23.933333	1	5.862000
23.950000	1	5.743625
23.966667	1	5.586875
23.983333	1	5.396250
24.000000	1	5.176375
24.016667	1	4.934250
24.033333	1	4.674875
24.050000	1	4.403625
24.066667	1	4.126375
24.083333	1	3.848125
24.100000	1	3.572250
24.116667	1	3.302000
24.133333	1	3.041750
24.150000	1	2.793500
24.166667	1	2.559250
24.183333	1	2.339375
24.200000	1	2.135125
24.216667	1	1.947125
24.233333	1	1.775250
24.250000	1	1.619875
24.266667	1	1.478500
24.283333	1	1.352000
24.300000	1	1.238125
24.316667	1	1.136875
24.333333	1	1.046875
24.350000	1	0.967125
24.366667	1	0.897500
24.383333	1	0.837375
24.400000	1	0.785625
24.416667	1	0.740125
24.433333	1	0.701500
24.450000	1	0.667750
24.466667	1	0.639875
24.483333	1	0.615625
24.500000	1	0.595250
24.516667	1	0.577750
24.533333	1	0.563375
24.550000	1	0.551625
24.566667	1	0.540875
24.583333	1	0.531500
24.600000	1	0.523250
24.616667	1	0.515000
24.633333	1	0.508000
24.650000	1	0.500750
24.666667	1	0.493750
24.683333	1	0.486500
24.700000	1	0.479625
24.716667	1	0.473250
24.733333	1	0.465875
24.750000	1	0.459250
24.766667	1	0.451875
24.783333	1	0.445500
24.800000	1	0.438375
24.816667	1	0.431375
24.833333	1	0.424875
24.850000	1	0.418625
24.866667	1	0.412250
24.883333	1	0.406625
24.900000	1	0.401125
24.916667	1	0.395875
24.933333	1	0.391625
24.950000	1	0.386750
24.966667	1	0.383125
24.983333	1	0.379750
25.000000	1	0.376500
25.016667	1	0.373625
25.033333	1	0.371625
25.050000	1	0.369125
25.066667	1	0.367250
25.083333	1	0.366500
25.100000	1	0.364125
25.116667	1	0.362125
25.133333	1	0.360500
25.150000	1	0.359000
25.166667	1	0.358250
25.183333	1	0.357250
25.200000	1	0.356375
25.216667	1	0.355250
25.233333	1	0.354750
25.250000	1	0.353125
25.266667	1	0.352000
25.283333	1	0.350250
25.300000	1	0.349500
25.316667	1	0.348000
25.333333	1	0.346125
25.350000	1	0.345250
25.366667	1	0.344000
25.383333	1	0.342250
25.400000	1	0.341125
25.416667	1	0.339625
25.433333	1	0.338375
25.450000	1	0.337500
25.466667	1	0.335875
25.483333	1	0.335125
25.500000	1	0.334875
25.516667	1	0.333500
25.533333	1	0.333250
25.550000	1	0.332375
25.566667	1	0.330875
25.583333	1	0.330500
25.600000	1	0.330250
25.616667	1	0.329875
25.633333	1	0.329875
25.650000	1	0.329500
25.666667	1	0.329250
25.683333	1	0.329000
25.700000	1	0.329250
25.716667	1	0.328625
25.733333	1	0.329000
25.750000	1	0.329000
25.766667	1	0.328750
25.783333	1	0.329375
25.800000	1	0.329750
25.816667	1	0.330750
25.833333	1	0.331500
25.850000	1	0.333125
25.866667	1	0.335125
25.883333	1	0.336750
25.900000	1	0.340000
25.916667	1	0.343000
25.933333	1	0.346500
25.950000	1	0.349500
25.966667	1	0.353125
25.983333	1	0.357375
26.000000	1	0.362125
26.016667	1	0.367000
26.033333	1	0.372500
26.050000	1	0.378500
26.066667	1	0.384500
26.083333	1	0.389375
26.100000	1	0.396000
26.116667	1	0.403125
26.133333	1	0.409000
26.150000	1	0.415500
26.166667	1	0.422125
26.183333	1	0.428500
26.200000	1	0.434125
26.216667	1	0.438750
26.233333	1	0.443875
26.250000	1	0.448375
26.266667	1	0.451500
26.283333	1	0.454375
26.300000	1	0.457250
26.316667	1	0.459125
26.333333	1	0.460000
26.350000	1	0.459875
26.366667	1	0.459375
26.383333	1	0.458250
26.400000	1	0.456250
26.416667	1	0.453625
26.433333	1	0.450000
26.450000	1	0.445750
26.466667	1	0.440750
26.483333	1	0.435625
26.500000	1	0.430125
26.516667	1	0.424250
26.533333	1	0.417500
26.550000	1	0.410250
26.566667	1	0.403500
26.583333	1	0.396375
26.600000	1	0.389250
26.616667	1	0.381750
26.633333	1	0.374375
26.650000	1	0.366750
26.666667	1	0.359250
26.683333	1	0.352875
26.700000	1	0.346750
26.716667	1	0.339625
26.733333	1	0.332875
26.750000	1	0.327250
26.766667	1	0.321625
26.783333	1	0.316125
26.800000	1	0.310875
26.816667	1	0.306500
26.833333	1	0.302500
26.850000	1	0.299125
26.866667	1	0.296875
26.883333	1	0.294125
26.900000	1	0.291125
26.916667	1	0.289000
26.933333	1	0.287500
26.950000	1	0.285625
26.966667	1	0.285375
26.983333	1	0.284875
27.000000	1	0.285250
27.016667	1	0.286375
27.033333	1	0.287875
27.050000	1	0.290250
27.066667	1	0.293250
27.083333	1	0.297250
27.100000	1	0.301750
27.116667	1	0.307750
27.133333	1	0.314500
27.150000	1	0.321125
27.166667	1	0.329625
27.183333	1	0.340000
27.200000	1	0.352625
27.216667	1	0.367125
27.233333	1	0.383875
27.250000	1	0.403375
27.266667	1	0.425500
27.283333	1	0.452500
27.300000	1	0.483125
27.316667	1	0.518500
27.333333	1	0.559625
27.350000	1	0.607000
27.366667	1	0.661000
27.383333	1	0.722250
27.400000	1	0.792125
27.416667	1	0.871750
27.433333	1	0.961750
27.450000	1	1.062375
27.466667	1	1.174375
27.483333	1	1.298125
27.500000	1	1.434625
27.516667	1	1.583750
27.533333	1	1.746500
27.550000	1	1.920750
27.566667	1	2.106625
27.583333	1	2.302750
27.600000	1	2.508625
27.616667	1	2.721750
27.633333	1	2.940750
27.650000	1	3.164750
27.666667	1	3.389250
27.683333	1	3.613000
27.700000	1	3.830875
27.716667	1	4.040125
27.733333	1	4.238000
27.750000	1	4.421000
27.766667	1	4.584250
27.783333	1	4.727125
27.800000	1	4.845625
27.816667	1	4.938500
27.833333	1	5.003000
27.850000	1	5.037250
27.866667	1	5.041000
27.883333	1	5.014625
27.900000	1	4.958000
27.916667	1	4.872000
27.933333	1	4.758625
27.950000	1	4.620375
27.966667	1	4.460250
27.983333	1	4.280875
28.000000	1	4.086625
28.016667	1	3.880125
28.033333	1	3.664750
28.050000	1	3.443625
28.066667	1	3.219750
28.083333	1	2.995875
28.100000	1	2.776000
28.116667	1	2.561875
28.133333	1	2.356125
28.150000	1	2.159500
28.166667	1	1.974375
28.183333	1	1.800250
28.200000	1	1.638375
28.216667	1	1.488750
28.233333	1	1.351875
28.250000	1	1.227750
28.266667	1	1.115250
28.283333	1	1.013625
28.300000	1	0.922250
28.316667	1	0.842750
28.333333	1	0.773125
28.350000	1	0.712500
28.366667	1	0.660500
28.383333	1	0.615875
28.400000	1	0.578125
28.416667	1	0.546875
28.433333	1	0.521500
28.450000	1	0.501875
28.466667	1	0.486500
28.483333	1	0.475875
28.500000	1	0.468750
28.516667	1	0.464125
28.533333	1	0.463750
28.550000	1	0.465750
28.566667	1	0.469750
28.583333	1	0.475500
28.600000	1	0.483500
28.616667	1	0.492125
28.633333	1	0.501875
28.650000	1	0.512625
28.666667	1	0.523750
28.683333	1	0.534875
28.700000	1	0.546750
28.716667	1	0.558375
28.733333	1	0.569375
28.750000	1	0.580250
28.766667	1	0.590250
28.783333	1	0.600625
28.800000	1	0.610000
28.816667	1	0.618000
28.833333	1	0.626000
28.850000	1	0.632250
28.866667	1	0.637125
28.883333	1	0.641000
28.900000	1	0.643625
28.916667	1	0.645250
28.933333	1	0.645500
28.950000	1	0.644875
28.966667	1	0.642125
28.983333	1	0.638875
29.000000	1	0.634125
29.016667	1	0.629125
29.033333	1	0.622625
29.050000	1	0.616000
29.066667	1	0.608125
29.083333	1	0.598500
29.100000	1	0.588125
29.116667	1	0.577250
29.133333	1	0.565750
29.150000	1	0.553875
29.166667	1	0.540750
29.183333	1	0.528625
29.200000	1	0.515875
29.216667	1	0.502625
29.233333	1	0.489750
29.250000	1	0.476000
29.266667	1	0.463000
29.283333	1	0.449375
29.300000	1	0.435500
29.316667	1	0.422625
29.333333	1	0.409750
29.350000	1	0.398250
29.366667	1	0.386000
29.383333	1	0.374375
29.400000	1	0.363750
29.416667	1	0.353125
29.433333	1	0.341750
29.450000	1	0.331375
29.466667	1	0.321625
29.483333	1	0.312375
29.500000	1	0.303750
29.516667	1	0.295250
29.533333	1	0.287875
29.550000	1	0.281125
29.566667	1	0.273875
29.583333	1	0.267250
29.600000	1	0.260875
29.616667	1	0.254250
29.633333	1	0.248125
29.650000	1	0.242875
29.666667	1	0.237125
29.683333	1	0.232375
29.700000	1	0.227875
29.716667	1	0.223375
29.733333	1	0.218875
29.750000	1	0.215125
29.766667	1	0.211000
29.783333	1	0.207375
29.800000	1	0.203875
29.816667	1	0.200625
29.833333	1	0.197250
29.850000	1	0.194250
29.866667	1	0.191625
29.883333	1	0.188875
29.900000	1	0.186125
29.916667	1	0.184000
29.933333	1	0.181250
29.950000	1	0.179125
29.966667	1	0.177250
29.983333	1	0.175500
30.000000	1	0.174000
30.016667	1	0.172375
30.033333	1	0.170625
30.050000	1	0.169125
30.066667	1	0.167000
30.083333	1	0.165125
30.100000	1	0.164250
30.116667	1	0.162375
30.133333	1	0.161000
30.150000	1	0.160375
30.166667	1	0.159250
30.183333	1	0.157875
30.200000	1	0.157500
30.216667	1	0.156375
30.233333	1	0.155750
30.250000	1	0.155000
30.266667	1	0.155000
30.283333	1	0.154750
30.300000	1	0.154625
30.316667	1	0.154375
30.333333	1	0.154750
30.350000	1	0.155375
30.366667	1	0.156125
30.383333	1	0.157125
30.400000	1	0.158750
30.416667	1	0.160375
30.433333	1	0.163000
30.450000	1	0.165500
30.466667	1	0.168000
30.483333	1	0.171125
30.500000	1	0.174375
30.516667	1	0.178750
30.533333	1	0.183250
30.550000	1	0.188250
30.566667	1	0.194125
30.583333	1	0.200625
30.600000	1	0.207250
30.616667	1	0.213875
30.633333	1	0.221250
30.650000	1	0.229125
30.666667	1	0.237000
30.683333	1	0.245250
30.700000	1	0.253125
30.716667	1	0.262000
30.733333	1	0.272125
30.750000	1	0.282625
30.766667	1	0.295000
30.783333	1	0.305875
30.800000	1	0.317500
30.816667	1	0.329500
30.833333	1	0.342625
30.850000	1	0.355875
30.866667	1	0.370125
30.883333	1	0.385875
30.900000	1	0.401750
30.916667	1	0.419000
30.933333	1	0.437500
30.950000	1	0.457625
30.966667	1	0.480125
30.983333	1	0.505000
31.000000	1	0.532250
31.016667	1	0.562250
31.033333	1	0.595125
31.050000	1	0.632375
31.066667	1	0.673500
31.083333	1	0.719625
31.100000	1	0.769250
31.116667	1	0.825000
31.133333	1	0.885500
31.150000	1	0.952625
31.166667	1	1.025875
31.183333	1	1.105875
31.200000	1	1.192000
31.216667	1	1.284125
31.233333	1	1.382125
31.250000	1	1.485250
31.266667	1	1.594375
31.283333	1	1.707000
31.300000	1	1.823000
31.316667	1	1.942250
31.333333	1	2.062875
31.350000	1	2.184250
31.366667	1	2.304375
31.383333	1	2.423125
31.400000	1	2.538000
31.416667	1	2.647250
31.433333	1	2.750250
31.450000	1	2.845250
31.466667	1	2.930750
31.483333	1	3.005500
31.500000	1	3.069125
31.516667	1	3.120125
31.533333	1	3.157750
31.550000	1	3.181875
31.566667	1	3.192000
31.583333	1	3.187250
31.600000	1	3.169000
31.616667	1	3.137000
31.633333	1	3.092250
31.650000	1	3.035250
31.666667	1	2.966875
31.683333	1	2.888375
31.700000	1	2.800875
31.716667	1	2.706625
31.733333	1	2.604750
31.750000	1	2.498500
31.766667	1	2.387875
31.783333	1	2.275125
31.800000	1	2.160125
31.816667	1	2.044875
31.833333	1	1.930500
31.850000	1	1.818375
31.866667	1	1.708500
31.883333	1	1.602000
31.900000	1	1.500000
31.916667	1	1.403125
31.933333	1	1.310750
31.950000	1	1.222250
31.966667	1	1.140000
31.983333	1	1.062250
32.000000	1	0.989625
32.016667	1	0.922375
32.033333	1	0.860000
32.050000	1	0.802000
32.066667	1	0.749125
32.083333	1	0.699875
32.100000	1	0.654375
32.116667	1	0.612875
32.133333	1	0.574875
32.150000	1	0.540625
32.166667	1	0.508375
32.183333	1	0.478875
32.200000	1	0.452000
32.216667	1	0.427250
32.233333	1	0.403375
32.250000	1	0.381500
32.266667	1	0.361625
32.283333	1	0.343125
32.300000	1	0.325875
32.316667	1	0.310000
32.333333	1	0.294875
32.350000	1	0.280500
32.366667	1	0.267250
32.383333	1	0.255500
32.400000	1	0.243625
32.416667	1	0.232375
32.433333	1	0.221250
32.450000	1	0.212000
32.466667	1	0.203125
32.483333	1	0.194125
32.500000	1	0.185750
32.516667	1	0.177875
32.533333	1	0.170500
32.550000	1	0.164000
32.566667	1	0.157500
32.583333	1	0.151875
32.600000	1	0.145750
32.616667	1	0.140250
32.633333	1	0.135250
32.650000	1	0.130000
32.666667	1	0.125625
32.683333	1	0.121500
32.700000	1	0.117000
32.716667	1	0.113125
32.733333	1	0.108875
32.750000	1	0.105125
32.766667	1	0.101375
32.783333	1	0.098125
32.800000	1	0.094875
32.816667	1	0.091500
32.833333	1	0.088750
32.850000	1	0.086000
32.866667	1	0.083000
32.883333	1	0.080250
32.900000	1	0.078250
32.916667	1	0.076125
32.933333	1	0.073750
32.950000	1	0.072375
32.966667	1	0.070750
32.983333	1	0.068875
33.000000	1	0.066500
33.016667	1	0.064625
33.033333	1	0.063375
33.050000	1	0.062625
33.066667	1	0.061375
33.083333	1	0.061250
33.100000	1	0.061500
33.116667	1	0.061375
33.133333	1	0.060500
33.150000	1	0.061125
33.166667	1	0.061625
33.183333	1	0.062250
33.200000	1	0.062500
33.216667	1	0.063375
33.233333	1	0.064125
33.250000	1	0.065750
33.266667	1	0.067000
33.283333	1	0.068875
33.300000	1	0.070625
33.316667	1	0.072000
33.333333	1	0.074250
33.350000	1	0.076000
33.366667	1	0.077625
33.383333	1	0.079250
33.400000	1	0.081625
33.416667	1	0.083625
33.433333	1	0.086000
33.450000	1	0.088125
33.466667	1	0.090250
33.483333	1	0.092875
33.500000	1	0.095375
33.516667	1	0.098000
33.533333	1	0.100875
33.550000	1	0.103500
33.566667	1	0.106250
33.583333	1	0.109000
33.600000	1	0.111625
33.616667	1	0.114375
33.633333	1	0.117500
33.650000	1	0.120000
33.666667	1	0.121625
33.683333	1	0.124250
33.700000	1	0.126125
33.716667	1	0.127625
33.733333	1	0.129125
33.750000	1	0.131125
33.766667	1	0.133500
33.783333	1	0.135875
33.800000	1	0.137500
33.816667	1	0.138625
33.833333	1	0.140500
33.850000	1	0.141750
33.866667	1	0.142625
33.883333	1	0.143875
33.900000	1	0.144625
33.916667	1	0.146000
33.933333	1	0.146875
33.950000	1	0.148125
33.966667	1	0.149000
33.983333	1	0.149125
34.000000	1	0.150000
34.016667	1	0.150250
34.033333	1	0.150500
34.050000	1	0.150625
34.066667	1	0.151375
34.083333	1	0.151875
34.100000	1	0.153125
34.116667	1	0.154125
34.133333	1	0.154625
34.150000	1	0.155625
34.166667	1	0.156500
34.183333	1	0.158125
34.200000	1	0.159500
34.216667	1	0.160750
34.233333	1	0.162500
34.250000	1	0.163625
34.266667	1	0.164625
34.283333	1	0.166375
34.300000	1	0.169125
34.316667	1	0.171000
34.333333	1	0.173375
34.350000	1	0.176625
34.366667	1	0.178875
34.383333	1	0.181375
34.400000	1	0.183750
34.416667	1	0.187000
34.433333	1	0.189125
34.450000	1	0.191875
34.466667	1	0.194125
34.483333	1	0.196125
34.500000	1	0.198625
34.516667	1	0.200375
34.533333	1	0.202625
34.550000	1	0.204500
34.566667	1	0.207000
34.583333	1	0.208375
34.600000	1	0.209750
34.616667	1	0.211250
34.633333	1	0.211750
34.650000	1	0.212625
34.666667	1	0.213375
34.683333	1	0.213875
34.700000	1	0.214125
34.716667	1	0.214625
34.733333	1	0.214000
34.750000	1	0.213250
34.766667	1	0.212750
34.783333	1	0.212000
34.800000	1	0.211000
34.816667	1	0.209500
34.833333	1	0.207750
34.850000	1	0.205625
34.866667	1	0.203750
34.883333	1	0.201875
34.900000	1	0.199875
34.916667	1	0.197750
34.933333	1	0.194750
34.950000	1	0.192000
34.966667	1	0.188750
34.983333	1	0.184125
35.000000	1	0.180500
35.016667	1	0.176500
35.033333	1	0.172125
35.050000	1	0.168375
35.066667	1	0.164375
35.083333	1	0.160375
35.100000	1	0.156875
35.116667	1	0.153000
35.133333	1	0.148375
35.150000	1	0.144500
35.166667	1	0.140625
35.183333	1	0.137500
35.200000	1	0.134375
35.216667	1	0.130500
35.233333	1	0.126750
35.250000	1	0.123625
35.266667	1	0.121250
35.283333	1	0.118500
35.300000	1	0.116625
35.316667	1	0.114250
35.333333	1	0.112375
35.350000	1	0.110625
35.366667	1	0.109500
35.383333	1	0.108750
35.400000	1	0.108375
35.416667	1	0.107750
35.433333	1	0.107875
35.450000	1	0.108125
35.466667	1	0.108125
35.483333	1	0.107875
35.500000	1	0.109000
35.516667	1	0.110875
35.533333	1	0.111625
35.550000	1	0.112750
35.566667	1	0.114500
35.583333	1	0.115875
35.600000	1	0.117750
35.616667	1	0.119125
35.633333	1	0.121750
35.650000	1	0.123625
35.666667	1	0.125500
35.683333	1	0.127875
35.700000	1	0.129875
35.716667	1	0.132000
35.733333	1	0.134750
35.750000	1	0.137125
35.766667	1	0.139375
35.783333	1	0.141750
35.800000	1	0.143875
35.816667	1	0.145375
35.833333	1	0.147625
35.850000	1	0.150000
35.866667	1	0.152375
35.883333	1	0.154500
35.900000	1	0.156750
35.916667	1	0.158625
35.933333	1	0.161000
35.950000	1	0.163625
35.966667	1	0.165375
35.983333	1	0.167750
36.000000	1	0.169500
36.016667	1	0.170875
36.033333	1	0.172500
36.050000	1	0.174500
36.066667	1	0.175250
36.083333	1	0.177000
36.100000	1	0.178875
36.116667	1	0.180500
36.133333	1	0.182125
36.150000	1	0.184000
36.166667	1	0.185625
36.183333	1	0.187250
36.200000	1	0.188875
36.216667	1	0.190125
36.233333	1	0.192000
36.250000	1	0.193875
36.266667	1	0.195000
36.283333	1	0.197375
36.300000	1	0.199125
36.316667	1	0.200125
36.333333	1	0.201375
36.350000	1	0.203250
36.366667	1	0.204500
36.383333	1	0.206000
36.400000	1	0.207375
36.416667	1	0.208750
36.433333	1	0.209625
36.450000	1	0.210375
36.466667	1	0.210875
36.483333	1	0.211250
36.500000	1	0.211625
36.516667	1	0.212250
36.533333	1	0.212375
36.550000	1	0.212875
36.566667	1	0.213250
36.583333	1	0.212750
36.600000	1	0.211500
36.616667	1	0.210000
36.633333	1	0.209125
36.650000	1	0.207750
36.666667	1	0.207000
36.683333	1	0.205625
36.700000	1	0.203750
36.716667	1	0.201750
36.733333	1	0.198750
36.750000	1	0.196000
36.766667	1	0.193750
36.783333	1	0.191375
36.800000	1	0.188000
36.816667	1	0.185500
36.833333	1	0.182000
36.850000	1	0.178375
36.866667	1	0.175375
36.883333	1	0.172625
36.900000	1	0.169375
36.916667	1	0.165875
36.933333	1	0.162625
36.950000	1	0.160750
36.966667	1	0.157750
36.983333	1	0.155000
37.000000	1	0.151875
37.016667	1	0.148125
37.033333	1	0.145125
37.050000	1	0.142625
37.066667	1	0.140000
37.083333	1	0.138000
37.100000	1	0.135125
37.116667	1	0.132750
37.133333	1	0.131375
37.150000	1	0.128625
37.166667	1	0.126875
37.183333	1	0.124375
37.200000	1	0.122500
37.216667	1	0.120625
37.233333	1	0.118250
37.250000	1	0.116500
37.266667	1	0.115125
37.283333	1	0.112875
37.300000	1	0.111000
37.316667	1	0.109250
37.333333	1	0.107000
37.350000	1	0.105125
37.366667	1	0.103375
37.383333	1	0.101375
37.400000	1	0.099250
37.416667	1	0.097250
37.433333	1	0.095750
37.450000	1	0.093625
37.466667	1	0.092000
37.483333	1	0.090625
37.500000	1	0.088625
37.516667	1	0.086750
37.533333	1	0.085000
37.550000	1	0.084125
37.566667	1	0.083125
37.583333	1	0.081625
37.600000	1	0.080000
37.616667	1	0.078875
37.633333	1	0.077250
37.650000	1	0.076375
37.666667	1	0.075500
37.683333	1	0.074750
37.700000	1	0.073750
37.716667	1	0.073875
37.733333	1	0.073250
37.750000	1	0.072500
37.766667	1	0.072250
37.783333	1	0.072250
37.800000	1	0.071750
37.816667	1	0.070875
37.833333	1	0.071375
37.850000	1	0.071250
37.866667	1	0.070750
37.883333	1	0.070375
37.900000	1	0.069875
37.916667	1	0.069375
37.933333	1	0.069250
37.950000	1	0.069000
37.966667	1	0.069500
37.983333	1	0.069625
38.000000	1	0.069500
38.016667	1	0.069750
38.033333	1	0.069875
38.050000	1	0.070500
38.066667	1	0.070750
38.083333	1	0.071375
38.100000	1	0.071750
38.116667	1	0.072625
38.133333	1	0.072625
38.150000	1	0.072625
38.166667	1	0.072750
38.183333	1	0.072625
38.200000	1	0.072375
38.216667	1	0.072375
38.233333	1	0.071875
38.250000	1	0.071750
38.266667	1	0.072125
38.283333	1	0.071875
38.300000	1	0.071000
38.316667	1	0.070750
38.333333	1	0.070000
38.350000	1	0.069000
38.366667	1	0.067625
38.383333	1	0.066875
38.400000	1	0.065500
38.416667	1	0.064375
38.433333	1	0.063750
38.450000	1	0.062125
38.466667	1	0.060625
38.483333	1	0.059500
38.500000	1	0.058250
38.516667	1	0.057250
38.533333	1	0.056250
38.550000	1	0.055000
38.566667	1	0.054125
38.583333	1	0.053000
38.600000	1	0.051375
38.616667	1	0.050250
38.633333	1	0.049625
38.650000	1	0.048875
38.666667	1	0.049500
38.683333	1	0.049750
38.700000	1	0.050625
38.716667	1	0.052000
38.733333	1	0.053125
38.750000	1	0.054000
38.766667	1	0.054750
38.783333	1	0.056375
38.800000	1	0.058125
38.816667	1	0.060000
38.833333	1	0.061875
38.850000	1	0.064875
38.866667	1	0.067875
38.883333	1	0.071125
38.900000	1	0.073875
38.916667	1	0.076875
38.933333	1	0.079750
38.950000	1	0.083375
38.966667	1	0.087125
38.983333	1	0.090625
39.000000	1	0.094250
39.016667	1	0.097625
39.033333	1	0.100375
39.050000	1	0.104000
39.066667	1	0.106875
39.083333	1	0.109000
39.100000	1	0.111875
39.116667	1	0.114500
39.133333	1	0.116000
39.150000	1	0.117750
39.166667	1	0.119625
39.183333	1	0.120375
39.200000	1	0.122125
39.216667	1	0.123250
39.233333	1	0.123750
39.250000	1	0.124000
39.266667	1	0.124625
39.283333	1	0.124500
39.300000	1	0.123875
39.316667	1	0.123500
39.333333	1	0.122375
39.350000	1	0.121250
39.366667	1	0.119500
39.383333	1	0.117375
39.400000	1	0.115750
39.416667	1	0.113875
39.433333	1	0.112750
39.450000	1	0.110500
39.466667	1	0.107500
39.483333	1	0.104750
39.500000	1	0.103000
39.516667	1	0.100125
39.533333	1	0.096750
39.550000	1	0.094125
39.566667	1	0.091625
39.583333	1	0.088500
39.600000	1	0.084625
39.616667	1	0.081375
39.633333	1	0.077875
39.650000	1	0.074750
39.666667	1	0.070875
39.683333	1	0.067250
39.700000	1	0.063625
39.716667	1	0.059375
39.733333	1	0.055875
39.750000	1	0.051875
39.766667	1	0.048000
39.783333	1	0.044875
39.800000	1	0.040625
39.816667	1	0.037125
39.833333	1	0.033750
39.850000	1	0.030625
39.866667	1	0.027750
39.883333	1	0.025375
39.900000	1	0.022750
39.916667	1	0.019500
39.933333	1	0.016625
39.950000	1	0.014750
39.966667	1	0.013625
39.983333	1	0.011875
40.000000	1	0.009750
