URL	chrom://bioreactor/micro_cm7/HPLC_Ultimate_3000/Users/markusar/20240708_MA_pHrange1.seq/494.smp/RI_1.channel/RI_1.chm
Channel	RI_1

Injection Information:
Data Vault	micro_cm7
Sequence	20240708_MA_pHrange1
Name	Pv3_5.7_5
Number	31
Position	BC7
Comment	
Processing Method	
Instrument Method	run_25B_method
Type	Unknown
Status	Finished
Inject Time	09.07.2024 12:03:40 +02:00
Volume (µl)	20.0000
Dilution Factor	1.0000
Weight	1.0000

Chromatogram Data Information:
Time Min. (min)	0.000000
Time Max. (min)	40.000000
Data Points	2401
Detector	RI
Generating Data System	Chromeleon 7.3.2.11814
Exporting Data System	Chromeleon 7.3.2.0
Operator	Instrument Controller
Signal Quantity	Refractive 
Signal Unit	µRIU
Signal Min.	-0.033625
Signal Max.	83.389875
Channel	RI_1
Driver Name	RID520Driver.dll
Channel Type	Evaluation
Min. Step (s)	1
Max. Step (s)	1
Average Step (s)	1

Signal Parameter Information:
Signal Info	

Chromatogram Data:
Time (min)	Step (s)	Value (µRIU)
0.000000	n.a.	-0.014875
0.016667	1	-0.016125
0.033333	1	-0.016125
0.050000	1	-0.016500
0.066667	1	-0.016125
0.083333	1	-0.016125
0.100000	1	-0.016500
0.116667	1	-0.016500
0.133333	1	-0.016125
0.150000	1	-0.015875
0.166667	1	-0.015625
0.183333	1	-0.015375
0.200000	1	-0.014875
0.216667	1	-0.014250
0.233333	1	-0.013375
0.250000	1	-0.012750
0.266667	1	-0.011625
0.283333	1	-0.010500
0.300000	1	-0.008875
0.316667	1	-0.007500
0.333333	1	-0.006500
0.350000	1	-0.005250
0.366667	1	-0.003875
0.383333	1	-0.002750
0.400000	1	-0.001500
0.416667	1	0.000375
0.433333	1	0.003250
0.450000	1	0.006875
0.466667	1	0.010750
0.483333	1	0.013625
0.500000	1	0.016750
0.516667	1	0.019250
0.533333	1	0.021250
0.550000	1	0.022500
0.566667	1	0.023500
0.583333	1	0.023000
0.600000	1	0.022000
0.616667	1	0.021750
0.633333	1	0.022250
0.650000	1	0.022125
0.666667	1	0.023250
0.683333	1	0.023625
0.700000	1	0.023875
0.716667	1	0.024500
0.733333	1	0.025375
0.750000	1	0.025375
0.766667	1	0.025000
0.783333	1	0.024625
0.800000	1	0.023750
0.816667	1	0.022500
0.833333	1	0.022375
0.850000	1	0.021875
0.866667	1	0.020625
0.883333	1	0.020500
0.900000	1	0.020125
0.916667	1	0.018750
0.933333	1	0.018000
0.950000	1	0.016875
0.966667	1	0.015500
0.983333	1	0.014250
1.000000	1	0.012500
1.016667	1	0.011250
1.033333	1	0.009875
1.050000	1	0.008125
1.066667	1	0.006500
1.083333	1	0.005625
1.100000	1	0.004250
1.116667	1	0.002500
1.133333	1	0.001000
1.150000	1	0.000000
1.166667	1	-0.000875
1.183333	1	-0.002375
1.200000	1	-0.003250
1.216667	1	-0.004375
1.233333	1	-0.005875
1.250000	1	-0.006500
1.266667	1	-0.007750
1.283333	1	-0.008125
1.300000	1	-0.008750
1.316667	1	-0.010250
1.333333	1	-0.011750
1.350000	1	-0.013000
1.366667	1	-0.014125
1.383333	1	-0.015375
1.400000	1	-0.016250
1.416667	1	-0.017375
1.433333	1	-0.018125
1.450000	1	-0.019000
1.466667	1	-0.019875
1.483333	1	-0.021375
1.500000	1	-0.022625
1.516667	1	-0.023250
1.533333	1	-0.024000
1.550000	1	-0.024625
1.566667	1	-0.025000
1.583333	1	-0.025375
1.600000	1	-0.025875
1.616667	1	-0.025875
1.633333	1	-0.025875
1.650000	1	-0.025875
1.666667	1	-0.025875
1.683333	1	-0.026375
1.700000	1	-0.026875
1.716667	1	-0.027625
1.733333	1	-0.027000
1.750000	1	-0.026875
1.766667	1	-0.027250
1.783333	1	-0.027750
1.800000	1	-0.028125
1.816667	1	-0.028250
1.833333	1	-0.028125
1.850000	1	-0.028000
1.866667	1	-0.028000
1.883333	1	-0.027500
1.900000	1	-0.027375
1.916667	1	-0.027125
1.933333	1	-0.026875
1.950000	1	-0.027500
1.966667	1	-0.027125
1.983333	1	-0.027125
2.000000	1	-0.027375
2.016667	1	-0.027125
2.033333	1	-0.027375
2.050000	1	-0.027875
2.066667	1	-0.027375
2.083333	1	-0.027125
2.100000	1	-0.027750
2.116667	1	-0.027750
2.133333	1	-0.028625
2.150000	1	-0.028625
2.166667	1	-0.028750
2.183333	1	-0.029000
2.200000	1	-0.029500
2.216667	1	-0.029875
2.233333	1	-0.029500
2.250000	1	-0.030250
2.266667	1	-0.030000
2.283333	1	-0.030125
2.300000	1	-0.030500
2.316667	1	-0.031000
2.333333	1	-0.032125
2.350000	1	-0.032750
2.366667	1	-0.032750
2.383333	1	-0.032875
2.400000	1	-0.033500
2.416667	1	-0.033125
2.433333	1	-0.033625
2.450000	1	-0.033375
2.466667	1	-0.033125
2.483333	1	-0.033000
2.500000	1	-0.033125
2.516667	1	-0.033000
2.533333	1	-0.032375
2.550000	1	-0.032000
2.566667	1	-0.031875
2.583333	1	-0.031250
2.600000	1	-0.030625
2.616667	1	-0.030375
2.633333	1	-0.029500
2.650000	1	-0.028250
2.666667	1	-0.028000
2.683333	1	-0.027750
2.700000	1	-0.027125
2.716667	1	-0.026625
2.733333	1	-0.026125
2.750000	1	-0.025500
2.766667	1	-0.024625
2.783333	1	-0.024375
2.800000	1	-0.023875
2.816667	1	-0.023125
2.833333	1	-0.022375
2.850000	1	-0.022250
2.866667	1	-0.021625
2.883333	1	-0.021750
2.900000	1	-0.021125
2.916667	1	-0.020375
2.933333	1	-0.019500
2.950000	1	-0.018875
2.966667	1	-0.018500
2.983333	1	-0.017750
3.000000	1	-0.016875
3.016667	1	-0.016125
3.033333	1	-0.015375
3.050000	1	-0.014125
3.066667	1	-0.013750
3.083333	1	-0.012875
3.100000	1	-0.011625
3.116667	1	-0.010250
3.133333	1	-0.008750
3.150000	1	-0.007625
3.166667	1	-0.006375
3.183333	1	-0.005375
3.200000	1	-0.004250
3.216667	1	-0.003125
3.233333	1	-0.001625
3.250000	1	0.000125
3.266667	1	0.002250
3.283333	1	0.003625
3.300000	1	0.004250
3.316667	1	0.005500
3.333333	1	0.007250
3.350000	1	0.009250
3.366667	1	0.010500
3.383333	1	0.012250
3.400000	1	0.013625
3.416667	1	0.015875
3.433333	1	0.017500
3.450000	1	0.019000
3.466667	1	0.019750
3.483333	1	0.021250
3.500000	1	0.022625
3.516667	1	0.024125
3.533333	1	0.025625
3.550000	1	0.027250
3.566667	1	0.028875
3.583333	1	0.029875
3.600000	1	0.030875
3.616667	1	0.032250
3.633333	1	0.033500
3.650000	1	0.035000
3.666667	1	0.036625
3.683333	1	0.037500
3.700000	1	0.038375
3.716667	1	0.039375
3.733333	1	0.041125
3.750000	1	0.042500
3.766667	1	0.043500
3.783333	1	0.044750
3.800000	1	0.046375
3.816667	1	0.048000
3.833333	1	0.049250
3.850000	1	0.050625
3.866667	1	0.051375
3.883333	1	0.051875
3.900000	1	0.053000
3.916667	1	0.054250
3.933333	1	0.055625
3.950000	1	0.057125
3.966667	1	0.058625
3.983333	1	0.059625
4.000000	1	0.060750
4.016667	1	0.061875
4.033333	1	0.063500
4.050000	1	0.064625
4.066667	1	0.066250
4.083333	1	0.067625
4.100000	1	0.069125
4.116667	1	0.069750
4.133333	1	0.070750
4.150000	1	0.072625
4.166667	1	0.073750
4.183333	1	0.075000
4.200000	1	0.076625
4.216667	1	0.078000
4.233333	1	0.078875
4.250000	1	0.080125
4.266667	1	0.081250
4.283333	1	0.082250
4.300000	1	0.083625
4.316667	1	0.085000
4.333333	1	0.085625
4.350000	1	0.085875
4.366667	1	0.087125
4.383333	1	0.088125
4.400000	1	0.089125
4.416667	1	0.089750
4.433333	1	0.090750
4.450000	1	0.091375
4.466667	1	0.092500
4.483333	1	0.093500
4.500000	1	0.093250
4.516667	1	0.093250
4.533333	1	0.093750
4.550000	1	0.094500
4.566667	1	0.095375
4.583333	1	0.095125
4.600000	1	0.095875
4.616667	1	0.096750
4.633333	1	0.097875
4.650000	1	0.098750
4.666667	1	0.099250
4.683333	1	0.100250
4.700000	1	0.101625
4.716667	1	0.102500
4.733333	1	0.104000
4.750000	1	0.105500
4.766667	1	0.106500
4.783333	1	0.108125
4.800000	1	0.109500
4.816667	1	0.111125
4.833333	1	0.113000
4.850000	1	0.114750
4.866667	1	0.116750
4.883333	1	0.118375
4.900000	1	0.120625
4.916667	1	0.123000
4.933333	1	0.126000
4.950000	1	0.128125
4.966667	1	0.131500
4.983333	1	0.133875
5.000000	1	0.136375
5.016667	1	0.139250
5.033333	1	0.142375
5.050000	1	0.145250
5.066667	1	0.148000
5.083333	1	0.151375
5.100000	1	0.153750
5.116667	1	0.157125
5.133333	1	0.160375
5.150000	1	0.163500
5.166667	1	0.166750
5.183333	1	0.170375
5.200000	1	0.174750
5.216667	1	0.178000
5.233333	1	0.181500
5.250000	1	0.184875
5.266667	1	0.188750
5.283333	1	0.192125
5.300000	1	0.195625
5.316667	1	0.198875
5.333333	1	0.201750
5.350000	1	0.204250
5.366667	1	0.206875
5.383333	1	0.209750
5.400000	1	0.212625
5.416667	1	0.215375
5.433333	1	0.218250
5.450000	1	0.220125
5.466667	1	0.221750
5.483333	1	0.223000
5.500000	1	0.224250
5.516667	1	0.226375
5.533333	1	0.227375
5.550000	1	0.228750
5.566667	1	0.229000
5.583333	1	0.229750
5.600000	1	0.230000
5.616667	1	0.229875
5.633333	1	0.229750
5.650000	1	0.228750
5.666667	1	0.227375
5.683333	1	0.226500
5.700000	1	0.225375
5.716667	1	0.223750
5.733333	1	0.222500
5.750000	1	0.221250
5.766667	1	0.219125
5.783333	1	0.216625
5.800000	1	0.214500
5.816667	1	0.211875
5.833333	1	0.208375
5.850000	1	0.204875
5.866667	1	0.202125
5.883333	1	0.198375
5.900000	1	0.194875
5.916667	1	0.191750
5.933333	1	0.188375
5.950000	1	0.184750
5.966667	1	0.180625
5.983333	1	0.177375
6.000000	1	0.172750
6.016667	1	0.168500
6.033333	1	0.164250
6.050000	1	0.159750
6.066667	1	0.155125
6.083333	1	0.150750
6.100000	1	0.146250
6.116667	1	0.141375
6.133333	1	0.136875
6.150000	1	0.132375
6.166667	1	0.127250
6.183333	1	0.122875
6.200000	1	0.118250
6.216667	1	0.114125
6.233333	1	0.109750
6.250000	1	0.105250
6.266667	1	0.100500
6.283333	1	0.096500
6.300000	1	0.092000
6.316667	1	0.087375
6.333333	1	0.083750
6.350000	1	0.079625
6.366667	1	0.075375
6.383333	1	0.071625
6.400000	1	0.067750
6.416667	1	0.064250
6.433333	1	0.060500
6.450000	1	0.057750
6.466667	1	0.054875
6.483333	1	0.051375
6.500000	1	0.049000
6.516667	1	0.045875
6.533333	1	0.042875
6.550000	1	0.040500
6.566667	1	0.038250
6.583333	1	0.036000
6.600000	1	0.034375
6.616667	1	0.032750
6.633333	1	0.031500
6.650000	1	0.030250
6.666667	1	0.029250
6.683333	1	0.028375
6.700000	1	0.027625
6.716667	1	0.026500
6.733333	1	0.026250
6.750000	1	0.026250
6.766667	1	0.027000
6.783333	1	0.027250
6.800000	1	0.027375
6.816667	1	0.028125
6.833333	1	0.029125
6.850000	1	0.029750
6.866667	1	0.031625
6.883333	1	0.033000
6.900000	1	0.034375
6.916667	1	0.036375
6.933333	1	0.039125
6.950000	1	0.041625
6.966667	1	0.043125
6.983333	1	0.045625
7.000000	1	0.047875
7.016667	1	0.050375
7.033333	1	0.053250
7.050000	1	0.055125
7.066667	1	0.058000
7.083333	1	0.061500
7.100000	1	0.064250
7.116667	1	0.067500
7.133333	1	0.070375
7.150000	1	0.073875
7.166667	1	0.077000
7.183333	1	0.080000
7.200000	1	0.083250
7.216667	1	0.086375
7.233333	1	0.090000
7.250000	1	0.092875
7.266667	1	0.095625
7.283333	1	0.098375
7.300000	1	0.101750
7.316667	1	0.104125
7.333333	1	0.107125
7.350000	1	0.109625
7.366667	1	0.111625
7.383333	1	0.113750
7.400000	1	0.115625
7.416667	1	0.117000
7.433333	1	0.118000
7.450000	1	0.119125
7.466667	1	0.120000
7.483333	1	0.120625
7.500000	1	0.120625
7.516667	1	0.119875
7.533333	1	0.119625
7.550000	1	0.119250
7.566667	1	0.117875
7.583333	1	0.116625
7.600000	1	0.115500
7.616667	1	0.114125
7.633333	1	0.111875
7.650000	1	0.109500
7.666667	1	0.107750
7.683333	1	0.104500
7.700000	1	0.101625
7.716667	1	0.098375
7.733333	1	0.095125
7.750000	1	0.091625
7.766667	1	0.087750
7.783333	1	0.084000
7.800000	1	0.079625
7.816667	1	0.075500
7.833333	1	0.071250
7.850000	1	0.067500
7.866667	1	0.063875
7.883333	1	0.059625
7.900000	1	0.055000
7.916667	1	0.051125
7.933333	1	0.047125
7.950000	1	0.043125
7.966667	1	0.039625
7.983333	1	0.036000
8.000000	1	0.032500
8.016667	1	0.029125
8.033333	1	0.026125
8.050000	1	0.023250
8.066667	1	0.019875
8.083333	1	0.017625
8.100000	1	0.015500
8.116667	1	0.014000
8.133333	1	0.012750
8.150000	1	0.011125
8.166667	1	0.010125
8.183333	1	0.008750
8.200000	1	0.008500
8.216667	1	0.007625
8.233333	1	0.007250
8.250000	1	0.006750
8.266667	1	0.006125
8.283333	1	0.005875
8.300000	1	0.005875
8.316667	1	0.006750
8.333333	1	0.008375
8.350000	1	0.008500
8.366667	1	0.009000
8.383333	1	0.010125
8.400000	1	0.011000
8.416667	1	0.011750
8.433333	1	0.012125
8.450000	1	0.013125
8.466667	1	0.014500
8.483333	1	0.015375
8.500000	1	0.017000
8.516667	1	0.018125
8.533333	1	0.019250
8.550000	1	0.020000
8.566667	1	0.021000
8.583333	1	0.021625
8.600000	1	0.022750
8.616667	1	0.023625
8.633333	1	0.024500
8.650000	1	0.025125
8.666667	1	0.026125
8.683333	1	0.027125
8.700000	1	0.028000
8.716667	1	0.029125
8.733333	1	0.029375
8.750000	1	0.031000
8.766667	1	0.031625
8.783333	1	0.032750
8.800000	1	0.033250
8.816667	1	0.034000
8.833333	1	0.034375
8.850000	1	0.034625
8.866667	1	0.035125
8.883333	1	0.035875
8.900000	1	0.036250
8.916667	1	0.037875
8.933333	1	0.038375
8.950000	1	0.039125
8.966667	1	0.040000
8.983333	1	0.040500
9.000000	1	0.040000
9.016667	1	0.039875
9.033333	1	0.039750
9.050000	1	0.039375
9.066667	1	0.039875
9.083333	1	0.039875
9.100000	1	0.039625
9.116667	1	0.039000
9.133333	1	0.038375
9.150000	1	0.038500
9.166667	1	0.038000
9.183333	1	0.036500
9.200000	1	0.036250
9.216667	1	0.035000
9.233333	1	0.034000
9.250000	1	0.033125
9.266667	1	0.031625
9.283333	1	0.030750
9.300000	1	0.030125
9.316667	1	0.028625
9.333333	1	0.027375
9.350000	1	0.026875
9.366667	1	0.026125
9.383333	1	0.024875
9.400000	1	0.023375
9.416667	1	0.021750
9.433333	1	0.019625
9.450000	1	0.018000
9.466667	1	0.016000
9.483333	1	0.014375
9.500000	1	0.013125
9.516667	1	0.010875
9.533333	1	0.009750
9.550000	1	0.008125
9.566667	1	0.006625
9.583333	1	0.005500
9.600000	1	0.004250
9.616667	1	0.002500
9.633333	1	0.001875
9.650000	1	0.000875
9.666667	1	0.000000
9.683333	1	-0.001250
9.700000	1	-0.002125
9.716667	1	-0.002375
9.733333	1	-0.003250
9.750000	1	-0.004875
9.766667	1	-0.005500
9.783333	1	-0.005875
9.800000	1	-0.005750
9.816667	1	-0.005375
9.833333	1	-0.005875
9.850000	1	-0.006250
9.866667	1	-0.006125
9.883333	1	-0.006250
9.900000	1	-0.005625
9.916667	1	-0.005875
9.933333	1	-0.005250
9.950000	1	-0.004625
9.966667	1	-0.004000
9.983333	1	-0.003375
10.000000	1	-0.002875
10.016667	1	-0.002125
10.033333	1	-0.001000
10.050000	1	0.000875
10.066667	1	0.003625
10.083333	1	0.006500
10.100000	1	0.010000
10.116667	1	0.014500
10.133333	1	0.019500
10.150000	1	0.025125
10.166667	1	0.032625
10.183333	1	0.040000
10.200000	1	0.049250
10.216667	1	0.059625
10.233333	1	0.072375
10.250000	1	0.086875
10.266667	1	0.102875
10.283333	1	0.120000
10.300000	1	0.140625
10.316667	1	0.163750
10.333333	1	0.189125
10.350000	1	0.216125
10.366667	1	0.243750
10.383333	1	0.270250
10.400000	1	0.293500
10.416667	1	0.309500
10.433333	1	0.315375
10.450000	1	0.306750
10.466667	1	0.282750
10.483333	1	0.245500
10.500000	1	0.203500
10.516667	1	0.175250
10.533333	1	0.196250
10.550000	1	0.312500
10.566667	1	0.587375
10.583333	1	1.092375
10.600000	1	1.900000
10.616667	1	3.078750
10.633333	1	4.683125
10.650000	1	6.751375
10.666667	1	9.307250
10.683333	1	12.354625
10.700000	1	15.881875
10.716667	1	19.853375
10.733333	1	24.209625
10.750000	1	28.854500
10.766667	1	33.643500
10.783333	1	38.373375
10.800000	1	42.764750
10.816667	1	46.458250
10.833333	1	49.048875
10.850000	1	50.165750
10.866667	1	49.572500
10.883333	1	47.262000
10.900000	1	43.487625
10.916667	1	38.704875
10.933333	1	33.444125
10.950000	1	28.181750
10.966667	1	23.267750
10.983333	1	18.908250
11.000000	1	15.188250
11.016667	1	12.108375
11.033333	1	9.620875
11.050000	1	7.652500
11.066667	1	6.115875
11.083333	1	4.931000
11.100000	1	4.023750
11.116667	1	3.332125
11.133333	1	2.803500
11.150000	1	2.399375
11.166667	1	2.089000
11.183333	1	1.848250
11.200000	1	1.659875
11.216667	1	1.510750
11.233333	1	1.391375
11.250000	1	1.293875
11.266667	1	1.213875
11.283333	1	1.147000
11.300000	1	1.090875
11.316667	1	1.043000
11.333333	1	1.001750
11.350000	1	0.967125
11.366667	1	0.936625
11.383333	1	0.910500
11.400000	1	0.888000
11.416667	1	0.868000
11.433333	1	0.851500
11.450000	1	0.837250
11.466667	1	0.825125
11.483333	1	0.814625
11.500000	1	0.805875
11.516667	1	0.798750
11.533333	1	0.793375
11.550000	1	0.789375
11.566667	1	0.786500
11.583333	1	0.784750
11.600000	1	0.784625
11.616667	1	0.785375
11.633333	1	0.787500
11.650000	1	0.790750
11.666667	1	0.794875
11.683333	1	0.800750
11.700000	1	0.807250
11.716667	1	0.815375
11.733333	1	0.824375
11.750000	1	0.833250
11.766667	1	0.843875
11.783333	1	0.855375
11.800000	1	0.866500
11.816667	1	0.876750
11.833333	1	0.888000
11.850000	1	0.898750
11.866667	1	0.907750
11.883333	1	0.916125
11.900000	1	0.923875
11.916667	1	0.930125
11.933333	1	0.936000
11.950000	1	0.941375
11.966667	1	0.946125
11.983333	1	0.950250
12.000000	1	0.953625
12.016667	1	0.956875
12.033333	1	0.960875
12.050000	1	0.965375
12.066667	1	0.969875
12.083333	1	0.974375
12.100000	1	0.979875
12.116667	1	0.985375
12.133333	1	0.991500
12.150000	1	0.998375
12.166667	1	1.005750
12.183333	1	1.014250
12.200000	1	1.024000
12.216667	1	1.036000
12.233333	1	1.050250
12.250000	1	1.067000
12.266667	1	1.088375
12.283333	1	1.114750
12.300000	1	1.148750
12.316667	1	1.192625
12.333333	1	1.248250
12.350000	1	1.319375
12.366667	1	1.408750
12.383333	1	1.521625
12.400000	1	1.661375
12.416667	1	1.833625
12.433333	1	2.041625
12.450000	1	2.290625
12.466667	1	2.585750
12.483333	1	2.931750
12.500000	1	3.332500
12.516667	1	3.790125
12.533333	1	4.304625
12.550000	1	4.876000
12.566667	1	5.501125
12.583333	1	6.171625
12.600000	1	6.879250
12.616667	1	7.609375
12.633333	1	8.349000
12.650000	1	9.083625
12.666667	1	9.800875
12.683333	1	10.488625
12.700000	1	11.138250
12.716667	1	11.746625
12.733333	1	12.313875
12.750000	1	12.844625
12.766667	1	13.347125
12.783333	1	13.832375
12.800000	1	14.311250
12.816667	1	14.794000
12.833333	1	15.290250
12.850000	1	15.806875
12.866667	1	16.351875
12.883333	1	16.928625
12.900000	1	17.537500
12.916667	1	18.179000
12.933333	1	18.854500
12.950000	1	19.560625
12.966667	1	20.296125
12.983333	1	21.059500
13.000000	1	21.848750
13.016667	1	22.661750
13.033333	1	23.497375
13.050000	1	24.356000
13.066667	1	25.236000
13.083333	1	26.137875
13.100000	1	27.059375
13.116667	1	28.001875
13.133333	1	28.963125
13.150000	1	29.943750
13.166667	1	30.942750
13.183333	1	31.961250
13.200000	1	32.998375
13.216667	1	34.052625
13.233333	1	35.127250
13.250000	1	36.222250
13.266667	1	37.338875
13.283333	1	38.476750
13.300000	1	39.636625
13.316667	1	40.819000
13.333333	1	42.023625
13.350000	1	43.250625
13.366667	1	44.501375
13.383333	1	45.776125
13.400000	1	47.074750
13.416667	1	48.396750
13.433333	1	49.745625
13.450000	1	51.122000
13.466667	1	52.526750
13.483333	1	53.961125
13.500000	1	55.425000
13.516667	1	56.918625
13.533333	1	58.442000
13.550000	1	59.996500
13.566667	1	61.582250
13.583333	1	63.201250
13.600000	1	64.850125
13.616667	1	66.531125
13.633333	1	68.246750
13.650000	1	69.999125
13.666667	1	71.789500
13.683333	1	73.619625
13.700000	1	75.487125
13.716667	1	77.381875
13.733333	1	79.265625
13.750000	1	81.041500
13.766667	1	82.510250
13.783333	1	83.389875
13.800000	1	83.358500
13.816667	1	82.105250
13.833333	1	79.353625
13.850000	1	74.893250
13.866667	1	68.684750
13.883333	1	60.992500
13.900000	1	52.414875
13.916667	1	43.738875
13.933333	1	35.669875
13.950000	1	28.651500
13.966667	1	22.842625
13.983333	1	18.191875
14.000000	1	14.548500
14.016667	1	11.733625
14.033333	1	9.586625
14.050000	1	7.968875
14.066667	1	6.764250
14.083333	1	5.873375
14.100000	1	5.216125
14.116667	1	4.729000
14.133333	1	4.364500
14.150000	1	4.087375
14.166667	1	3.871625
14.183333	1	3.700625
14.200000	1	3.561625
14.216667	1	3.446875
14.233333	1	3.349000
14.250000	1	3.264625
14.266667	1	3.190000
14.283333	1	3.123875
14.300000	1	3.064500
14.316667	1	3.010750
14.333333	1	2.962875
14.350000	1	2.920500
14.366667	1	2.884125
14.383333	1	2.853625
14.400000	1	2.829500
14.416667	1	2.813125
14.433333	1	2.806375
14.450000	1	2.812875
14.466667	1	2.837000
14.483333	1	2.884375
14.500000	1	2.963500
14.516667	1	3.086875
14.533333	1	3.271250
14.550000	1	3.540250
14.566667	1	3.924250
14.583333	1	4.461625
14.600000	1	5.200125
14.616667	1	6.195875
14.633333	1	7.516125
14.650000	1	9.228125
14.666667	1	11.402375
14.683333	1	14.095875
14.700000	1	17.347375
14.716667	1	21.164875
14.733333	1	25.526000
14.750000	1	30.362625
14.766667	1	35.557125
14.783333	1	40.939375
14.800000	1	46.306875
14.816667	1	51.432625
14.833333	1	56.074875
14.850000	1	59.999875
14.866667	1	63.000000
14.883333	1	64.918125
14.900000	1	65.659875
14.916667	1	65.207875
14.933333	1	63.614000
14.950000	1	60.999125
14.966667	1	57.535875
14.983333	1	53.434125
15.000000	1	48.905375
15.016667	1	44.156375
15.033333	1	39.374000
15.050000	1	34.719125
15.066667	1	30.315125
15.083333	1	26.251875
15.100000	1	22.581750
15.116667	1	19.326500
15.133333	1	16.483875
15.150000	1	14.035000
15.166667	1	11.947750
15.183333	1	10.187000
15.200000	1	8.712625
15.216667	1	7.485375
15.233333	1	6.468750
15.250000	1	5.631250
15.266667	1	4.945250
15.283333	1	4.385250
15.300000	1	3.932000
15.316667	1	3.567000
15.333333	1	3.276000
15.350000	1	3.045500
15.366667	1	2.866125
15.383333	1	2.728750
15.400000	1	2.627125
15.416667	1	2.553000
15.433333	1	2.501125
15.450000	1	2.465375
15.466667	1	2.441500
15.483333	1	2.424625
15.500000	1	2.411500
15.516667	1	2.398375
15.533333	1	2.381500
15.550000	1	2.361625
15.566667	1	2.336625
15.583333	1	2.307125
15.600000	1	2.273125
15.616667	1	2.235000
15.633333	1	2.194875
15.650000	1	2.154000
15.666667	1	2.113500
15.683333	1	2.075375
15.700000	1	2.039250
15.716667	1	2.004375
15.733333	1	1.971750
15.750000	1	1.940625
15.766667	1	1.910375
15.783333	1	1.881000
15.800000	1	1.851625
15.816667	1	1.822375
15.833333	1	1.793625
15.850000	1	1.765000
15.866667	1	1.737375
15.883333	1	1.711375
15.900000	1	1.686250
15.916667	1	1.663750
15.933333	1	1.644375
15.950000	1	1.629000
15.966667	1	1.617125
15.983333	1	1.608625
16.000000	1	1.603625
16.016667	1	1.601250
16.033333	1	1.600625
16.050000	1	1.601000
16.066667	1	1.601125
16.083333	1	1.600875
16.100000	1	1.598750
16.116667	1	1.593750
16.133333	1	1.587875
16.150000	1	1.578750
16.166667	1	1.566500
16.183333	1	1.552625
16.200000	1	1.536375
16.216667	1	1.518875
16.233333	1	1.499500
16.250000	1	1.479500
16.266667	1	1.458750
16.283333	1	1.437625
16.300000	1	1.416500
16.316667	1	1.396250
16.333333	1	1.376125
16.350000	1	1.357250
16.366667	1	1.339750
16.383333	1	1.323625
16.400000	1	1.309750
16.416667	1	1.297750
16.433333	1	1.287500
16.450000	1	1.279875
16.466667	1	1.274125
16.483333	1	1.271875
16.500000	1	1.272125
16.516667	1	1.274250
16.533333	1	1.279000
16.550000	1	1.285000
16.566667	1	1.291250
16.583333	1	1.298000
16.600000	1	1.303875
16.616667	1	1.309000
16.633333	1	1.313000
16.650000	1	1.315625
16.666667	1	1.316750
16.683333	1	1.316000
16.700000	1	1.314125
16.716667	1	1.313000
16.733333	1	1.311125
16.750000	1	1.309250
16.766667	1	1.307500
16.783333	1	1.307250
16.800000	1	1.307625
16.816667	1	1.308375
16.833333	1	1.310750
16.850000	1	1.313500
16.866667	1	1.316875
16.883333	1	1.320125
16.900000	1	1.323000
16.916667	1	1.325500
16.933333	1	1.326500
16.950000	1	1.325875
16.966667	1	1.323750
16.983333	1	1.321250
17.000000	1	1.317125
17.016667	1	1.311500
17.033333	1	1.305875
17.050000	1	1.298875
17.066667	1	1.292000
17.083333	1	1.285250
17.100000	1	1.278875
17.116667	1	1.273375
17.133333	1	1.269000
17.150000	1	1.265500
17.166667	1	1.263000
17.183333	1	1.260875
17.200000	1	1.260000
17.216667	1	1.260000
17.233333	1	1.261625
17.250000	1	1.264000
17.266667	1	1.266625
17.283333	1	1.270000
17.300000	1	1.273625
17.316667	1	1.278125
17.333333	1	1.283375
17.350000	1	1.287875
17.366667	1	1.293000
17.383333	1	1.298750
17.400000	1	1.303750
17.416667	1	1.308000
17.433333	1	1.311250
17.450000	1	1.313875
17.466667	1	1.316125
17.483333	1	1.315375
17.500000	1	1.313625
17.516667	1	1.310250
17.533333	1	1.305375
17.550000	1	1.298750
17.566667	1	1.290750
17.583333	1	1.281000
17.600000	1	1.269750
17.616667	1	1.257125
17.633333	1	1.243625
17.650000	1	1.228750
17.666667	1	1.214125
17.683333	1	1.199375
17.700000	1	1.183500
17.716667	1	1.167125
17.733333	1	1.150875
17.750000	1	1.135500
17.766667	1	1.119625
17.783333	1	1.104625
17.800000	1	1.090250
17.816667	1	1.075250
17.833333	1	1.060250
17.850000	1	1.046250
17.866667	1	1.033875
17.883333	1	1.021000
17.900000	1	1.008750
17.916667	1	0.997000
17.933333	1	0.985750
17.950000	1	0.974750
17.966667	1	0.963625
17.983333	1	0.952750
18.000000	1	0.943000
18.016667	1	0.932500
18.033333	1	0.922250
18.050000	1	0.912000
18.066667	1	0.901875
18.083333	1	0.892375
18.100000	1	0.882875
18.116667	1	0.874375
18.133333	1	0.866125
18.150000	1	0.858625
18.166667	1	0.852625
18.183333	1	0.847375
18.200000	1	0.843250
18.216667	1	0.840375
18.233333	1	0.839125
18.250000	1	0.838250
18.266667	1	0.837500
18.283333	1	0.837250
18.300000	1	0.837875
18.316667	1	0.839625
18.333333	1	0.841750
18.350000	1	0.843625
18.366667	1	0.846125
18.383333	1	0.850125
18.400000	1	0.854750
18.416667	1	0.859750
18.433333	1	0.865625
18.450000	1	0.871875
18.466667	1	0.880125
18.483333	1	0.889625
18.500000	1	0.901125
18.516667	1	0.914750
18.533333	1	0.929625
18.550000	1	0.946375
18.566667	1	0.965125
18.583333	1	0.986000
18.600000	1	1.008875
18.616667	1	1.033250
18.633333	1	1.059375
18.650000	1	1.087500
18.666667	1	1.117625
18.683333	1	1.149750
18.700000	1	1.182375
18.716667	1	1.216500
18.733333	1	1.251500
18.750000	1	1.287500
18.766667	1	1.324000
18.783333	1	1.361250
18.800000	1	1.397625
18.816667	1	1.433000
18.833333	1	1.466375
18.850000	1	1.497875
18.866667	1	1.525125
18.883333	1	1.548500
18.900000	1	1.566750
18.916667	1	1.579750
18.933333	1	1.586500
18.950000	1	1.586500
18.966667	1	1.579625
18.983333	1	1.565625
19.000000	1	1.544375
19.016667	1	1.517250
19.033333	1	1.486125
19.050000	1	1.449875
19.066667	1	1.410375
19.083333	1	1.369875
19.100000	1	1.328875
19.116667	1	1.291250
19.133333	1	1.257250
19.150000	1	1.230500
19.166667	1	1.213125
19.183333	1	1.207500
19.200000	1	1.216000
19.216667	1	1.242125
19.233333	1	1.289875
19.250000	1	1.360875
19.266667	1	1.460500
19.283333	1	1.590500
19.300000	1	1.752750
19.316667	1	1.949125
19.333333	1	2.181000
19.350000	1	2.448500
19.366667	1	2.749375
19.383333	1	3.080875
19.400000	1	3.438125
19.416667	1	3.813375
19.433333	1	4.197000
19.450000	1	4.579375
19.466667	1	4.949500
19.483333	1	5.294500
19.500000	1	5.602750
19.516667	1	5.863500
19.533333	1	6.068500
19.550000	1	6.210250
19.566667	1	6.284500
19.583333	1	6.289250
19.600000	1	6.225000
19.616667	1	6.095250
19.633333	1	5.907250
19.650000	1	5.667750
19.666667	1	5.387000
19.683333	1	5.075750
19.700000	1	4.742750
19.716667	1	4.399000
19.733333	1	4.052500
19.750000	1	3.710875
19.766667	1	3.380625
19.783333	1	3.066875
19.800000	1	2.772875
19.816667	1	2.500500
19.833333	1	2.252250
19.850000	1	2.028000
19.866667	1	1.827500
19.883333	1	1.648375
19.900000	1	1.490750
19.916667	1	1.352625
19.933333	1	1.232125
19.950000	1	1.127625
19.966667	1	1.037750
19.983333	1	0.960375
20.000000	1	0.894500
20.016667	1	0.839125
20.033333	1	0.794125
20.050000	1	0.756875
20.066667	1	0.727875
20.083333	1	0.705375
20.100000	1	0.689375
20.116667	1	0.679500
20.133333	1	0.674750
20.150000	1	0.674875
20.166667	1	0.678375
20.183333	1	0.685375
20.200000	1	0.694875
20.216667	1	0.706125
20.233333	1	0.718875
20.250000	1	0.731875
20.266667	1	0.744250
20.283333	1	0.755250
20.300000	1	0.764625
20.316667	1	0.771625
20.333333	1	0.776250
20.350000	1	0.776625
20.366667	1	0.773375
20.383333	1	0.767750
20.400000	1	0.759000
20.416667	1	0.748375
20.433333	1	0.735250
20.450000	1	0.720750
20.466667	1	0.705250
20.483333	1	0.691375
20.500000	1	0.678625
20.516667	1	0.668500
20.533333	1	0.660875
20.550000	1	0.658000
20.566667	1	0.659875
20.583333	1	0.667500
20.600000	1	0.682000
20.616667	1	0.704250
20.633333	1	0.733875
20.650000	1	0.772000
20.666667	1	0.819125
20.683333	1	0.874375
20.700000	1	0.937875
20.716667	1	1.007875
20.733333	1	1.084750
20.750000	1	1.165875
20.766667	1	1.249625
20.783333	1	1.333750
20.800000	1	1.415250
20.816667	1	1.492000
20.833333	1	1.561250
20.850000	1	1.620375
20.866667	1	1.667625
20.883333	1	1.701125
20.900000	1	1.720250
20.916667	1	1.724500
20.933333	1	1.713500
20.950000	1	1.688375
20.966667	1	1.650250
20.983333	1	1.600625
21.000000	1	1.542000
21.016667	1	1.475875
21.033333	1	1.404125
21.050000	1	1.329000
21.066667	1	1.253000
21.083333	1	1.178000
21.100000	1	1.105250
21.116667	1	1.035250
21.133333	1	0.969250
21.150000	1	0.908000
21.166667	1	0.852625
21.183333	1	0.801750
21.200000	1	0.756625
21.216667	1	0.715500
21.233333	1	0.679375
21.250000	1	0.649125
21.266667	1	0.621750
21.283333	1	0.598500
21.300000	1	0.578000
21.316667	1	0.560750
21.333333	1	0.546000
21.350000	1	0.533250
21.366667	1	0.521375
21.383333	1	0.512250
21.400000	1	0.504750
21.416667	1	0.499000
21.433333	1	0.493875
21.450000	1	0.489375
21.466667	1	0.485375
21.483333	1	0.482875
21.500000	1	0.480875
21.516667	1	0.479375
21.533333	1	0.479625
21.550000	1	0.480375
21.566667	1	0.481500
21.583333	1	0.484125
21.600000	1	0.487125
21.616667	1	0.492125
21.633333	1	0.497750
21.650000	1	0.505625
21.666667	1	0.514500
21.683333	1	0.526500
21.700000	1	0.539750
21.716667	1	0.555375
21.733333	1	0.573500
21.750000	1	0.593125
21.766667	1	0.614750
21.783333	1	0.638125
21.800000	1	0.662250
21.816667	1	0.687875
21.833333	1	0.715625
21.850000	1	0.742375
21.866667	1	0.769875
21.883333	1	0.796625
21.900000	1	0.821375
21.916667	1	0.845625
21.933333	1	0.867000
21.950000	1	0.886500
21.966667	1	0.902125
21.983333	1	0.915000
22.000000	1	0.924375
22.016667	1	0.930125
22.033333	1	0.931750
22.050000	1	0.929250
22.066667	1	0.923750
22.083333	1	0.916250
22.100000	1	0.906375
22.116667	1	0.894125
22.133333	1	0.880000
22.150000	1	0.863875
22.166667	1	0.846125
22.183333	1	0.826875
22.200000	1	0.806875
22.216667	1	0.786750
22.233333	1	0.766125
22.250000	1	0.744750
22.266667	1	0.723250
22.283333	1	0.702125
22.300000	1	0.681250
22.316667	1	0.660000
22.333333	1	0.639375
22.350000	1	0.619375
22.366667	1	0.600000
22.383333	1	0.580750
22.400000	1	0.561875
22.416667	1	0.544250
22.433333	1	0.527500
22.450000	1	0.511875
22.466667	1	0.496625
22.483333	1	0.482000
22.500000	1	0.469000
22.516667	1	0.456875
22.533333	1	0.445750
22.550000	1	0.434250
22.566667	1	0.423875
22.583333	1	0.414625
22.600000	1	0.405750
22.616667	1	0.397250
22.633333	1	0.388500
22.650000	1	0.381000
22.666667	1	0.373625
22.683333	1	0.366125
22.700000	1	0.359500
22.716667	1	0.353000
22.733333	1	0.347625
22.750000	1	0.341875
22.766667	1	0.336625
22.783333	1	0.330750
22.800000	1	0.325625
22.816667	1	0.321125
22.833333	1	0.316500
22.850000	1	0.312000
22.866667	1	0.307000
22.883333	1	0.304125
22.900000	1	0.301500
22.916667	1	0.299125
22.933333	1	0.298000
22.950000	1	0.296375
22.966667	1	0.295000
22.983333	1	0.294500
23.000000	1	0.295500
23.016667	1	0.296750
23.033333	1	0.298000
23.050000	1	0.300125
23.066667	1	0.302500
23.083333	1	0.304750
23.100000	1	0.307625
23.116667	1	0.311375
23.133333	1	0.314875
23.150000	1	0.319000
23.166667	1	0.322500
23.183333	1	0.326125
23.200000	1	0.330125
23.216667	1	0.335125
23.233333	1	0.339375
23.250000	1	0.345000
23.266667	1	0.350625
23.283333	1	0.358625
23.300000	1	0.368250
23.316667	1	0.379125
23.333333	1	0.393500
23.350000	1	0.411625
23.366667	1	0.434500
23.383333	1	0.462500
23.400000	1	0.498125
23.416667	1	0.542125
23.433333	1	0.596125
23.450000	1	0.661375
23.466667	1	0.741375
23.483333	1	0.837125
23.500000	1	0.952375
23.516667	1	1.086875
23.533333	1	1.244375
23.550000	1	1.425875
23.566667	1	1.634375
23.583333	1	1.868375
23.600000	1	2.130500
23.616667	1	2.418625
23.633333	1	2.732250
23.650000	1	3.067625
23.666667	1	3.421500
23.683333	1	3.789625
23.700000	1	4.166875
23.716667	1	4.546500
23.733333	1	4.921500
23.750000	1	5.283375
23.766667	1	5.623125
23.783333	1	5.933750
23.800000	1	6.208375
23.816667	1	6.440000
23.833333	1	6.622750
23.850000	1	6.753125
23.866667	1	6.828000
23.883333	1	6.847125
23.900000	1	6.809875
23.916667	1	6.719250
23.933333	1	6.578500
23.950000	1	6.392875
23.966667	1	6.167250
23.983333	1	5.908375
24.000000	1	5.623000
24.016667	1	5.318125
24.033333	1	4.999500
24.050000	1	4.674375
24.066667	1	4.349000
24.083333	1	4.026875
24.100000	1	3.712500
24.116667	1	3.409500
24.133333	1	3.120750
24.150000	1	2.848000
24.166667	1	2.593750
24.183333	1	2.357125
24.200000	1	2.138750
24.216667	1	1.939250
24.233333	1	1.757250
24.250000	1	1.593625
24.266667	1	1.445875
24.283333	1	1.313875
24.300000	1	1.196625
24.316667	1	1.092375
24.333333	1	1.000375
24.350000	1	0.919375
24.366667	1	0.849250
24.383333	1	0.787375
24.400000	1	0.734750
24.416667	1	0.689500
24.433333	1	0.651000
24.450000	1	0.618375
24.466667	1	0.590625
24.483333	1	0.568000
24.500000	1	0.549875
24.516667	1	0.533750
24.533333	1	0.521125
24.550000	1	0.510750
24.566667	1	0.501625
24.583333	1	0.493875
24.600000	1	0.487250
24.616667	1	0.481750
24.633333	1	0.476750
24.650000	1	0.471625
24.666667	1	0.467125
24.683333	1	0.462875
24.700000	1	0.458000
24.716667	1	0.453250
24.733333	1	0.448375
24.750000	1	0.443875
24.766667	1	0.439250
24.783333	1	0.434625
24.800000	1	0.430750
24.816667	1	0.425750
24.833333	1	0.421500
24.850000	1	0.416875
24.866667	1	0.413625
24.883333	1	0.409875
24.900000	1	0.406500
24.916667	1	0.403375
24.933333	1	0.400625
24.950000	1	0.397625
24.966667	1	0.395625
24.983333	1	0.393125
25.000000	1	0.390875
25.016667	1	0.389500
25.033333	1	0.388375
25.050000	1	0.386625
25.066667	1	0.384875
25.083333	1	0.383125
25.100000	1	0.382375
25.116667	1	0.380625
25.133333	1	0.379125
25.150000	1	0.378125
25.166667	1	0.376750
25.183333	1	0.375375
25.200000	1	0.374000
25.216667	1	0.372250
25.233333	1	0.370625
25.250000	1	0.369125
25.266667	1	0.368250
25.283333	1	0.367250
25.300000	1	0.366250
25.316667	1	0.365000
25.333333	1	0.362750
25.350000	1	0.361250
25.366667	1	0.360500
25.383333	1	0.359500
25.400000	1	0.358500
25.416667	1	0.359000
25.433333	1	0.358625
25.450000	1	0.358875
25.466667	1	0.358750
25.483333	1	0.359000
25.500000	1	0.359125
25.516667	1	0.360000
25.533333	1	0.360250
25.550000	1	0.360625
25.566667	1	0.361750
25.583333	1	0.361000
25.600000	1	0.360750
25.616667	1	0.361125
25.633333	1	0.361000
25.650000	1	0.360500
25.666667	1	0.359625
25.683333	1	0.359500
25.700000	1	0.359000
25.716667	1	0.358125
25.733333	1	0.357125
25.750000	1	0.356375
25.766667	1	0.356125
25.783333	1	0.354750
25.800000	1	0.353125
25.816667	1	0.352125
25.833333	1	0.351500
25.850000	1	0.350500
25.866667	1	0.349500
25.883333	1	0.349000
25.900000	1	0.348500
25.916667	1	0.349000
25.933333	1	0.349500
25.950000	1	0.350125
25.966667	1	0.351625
25.983333	1	0.353125
26.000000	1	0.354875
26.016667	1	0.357250
26.033333	1	0.360375
26.050000	1	0.363625
26.066667	1	0.366375
26.083333	1	0.370125
26.100000	1	0.374000
26.116667	1	0.378125
26.133333	1	0.382000
26.150000	1	0.386750
26.166667	1	0.390750
26.183333	1	0.395125
26.200000	1	0.399250
26.216667	1	0.403250
26.233333	1	0.406500
26.250000	1	0.408750
26.266667	1	0.412000
26.283333	1	0.413875
26.300000	1	0.414750
26.316667	1	0.415375
26.333333	1	0.415125
26.350000	1	0.414625
26.366667	1	0.414000
26.383333	1	0.412125
26.400000	1	0.409250
26.416667	1	0.405250
26.433333	1	0.401125
26.450000	1	0.397000
26.466667	1	0.391875
26.483333	1	0.386375
26.500000	1	0.380625
26.516667	1	0.374500
26.533333	1	0.368000
26.550000	1	0.360875
26.566667	1	0.353375
26.583333	1	0.346250
26.600000	1	0.339500
26.616667	1	0.333000
26.633333	1	0.326250
26.650000	1	0.319500
26.666667	1	0.313125
26.683333	1	0.306750
26.700000	1	0.301375
26.716667	1	0.295875
26.733333	1	0.290625
26.750000	1	0.285500
26.766667	1	0.281750
26.783333	1	0.278250
26.800000	1	0.274625
26.816667	1	0.271625
26.833333	1	0.269250
26.850000	1	0.267875
26.866667	1	0.266500
26.883333	1	0.265625
26.900000	1	0.265875
26.916667	1	0.266625
26.933333	1	0.267375
26.950000	1	0.268125
26.966667	1	0.269000
26.983333	1	0.271000
27.000000	1	0.273875
27.016667	1	0.276875
27.033333	1	0.280375
27.050000	1	0.284500
27.066667	1	0.289500
27.083333	1	0.295000
27.100000	1	0.301625
27.116667	1	0.308375
27.133333	1	0.316375
27.150000	1	0.325000
27.166667	1	0.335375
27.183333	1	0.346500
27.200000	1	0.360375
27.216667	1	0.376125
27.233333	1	0.394125
27.250000	1	0.415125
27.266667	1	0.439250
27.283333	1	0.467875
27.300000	1	0.499625
27.316667	1	0.537125
27.333333	1	0.579750
27.350000	1	0.629125
27.366667	1	0.686000
27.383333	1	0.751250
27.400000	1	0.825625
27.416667	1	0.909000
27.433333	1	1.003250
27.450000	1	1.108625
27.466667	1	1.226250
27.483333	1	1.356250
27.500000	1	1.499375
27.516667	1	1.654750
27.533333	1	1.823125
27.550000	1	2.002750
27.566667	1	2.194125
27.583333	1	2.394500
27.600000	1	2.603625
27.616667	1	2.818875
27.633333	1	3.039500
27.650000	1	3.262500
27.666667	1	3.484250
27.683333	1	3.701750
27.700000	1	3.912250
27.716667	1	4.111500
27.733333	1	4.296625
27.750000	1	4.464000
27.766667	1	4.610750
27.783333	1	4.734875
27.800000	1	4.832750
27.816667	1	4.902875
27.833333	1	4.944125
27.850000	1	4.955375
27.866667	1	4.936000
27.883333	1	4.887250
27.900000	1	4.809000
27.916667	1	4.703500
27.933333	1	4.571750
27.950000	1	4.417750
27.966667	1	4.245125
27.983333	1	4.056500
28.000000	1	3.855125
28.016667	1	3.644250
28.033333	1	3.427625
28.050000	1	3.207250
28.066667	1	2.987125
28.083333	1	2.770375
28.100000	1	2.558875
28.116667	1	2.354750
28.133333	1	2.159500
28.150000	1	1.974250
28.166667	1	1.801000
28.183333	1	1.640875
28.200000	1	1.492625
28.216667	1	1.356875
28.233333	1	1.231375
28.250000	1	1.117750
28.266667	1	1.015500
28.283333	1	0.923750
28.300000	1	0.842250
28.316667	1	0.770125
28.333333	1	0.706875
28.350000	1	0.653000
28.366667	1	0.605125
28.383333	1	0.565375
28.400000	1	0.531500
28.416667	1	0.504250
28.433333	1	0.481625
28.450000	1	0.464000
28.466667	1	0.451250
28.483333	1	0.442250
28.500000	1	0.436500
28.516667	1	0.434125
28.533333	1	0.435500
28.550000	1	0.438375
28.566667	1	0.443125
28.583333	1	0.450000
28.600000	1	0.458375
28.616667	1	0.467500
28.633333	1	0.477750
28.650000	1	0.488750
28.666667	1	0.499750
28.683333	1	0.512125
28.700000	1	0.523875
28.716667	1	0.535125
28.733333	1	0.546250
28.750000	1	0.556875
28.766667	1	0.566250
28.783333	1	0.574750
28.800000	1	0.583500
28.816667	1	0.590375
28.833333	1	0.596250
28.850000	1	0.601250
28.866667	1	0.604625
28.883333	1	0.606625
28.900000	1	0.607750
28.916667	1	0.607375
28.933333	1	0.605125
28.950000	1	0.602250
28.966667	1	0.598250
28.983333	1	0.593125
29.000000	1	0.586625
29.016667	1	0.579250
29.033333	1	0.571500
29.050000	1	0.562125
29.066667	1	0.551750
29.083333	1	0.540625
29.100000	1	0.528875
29.116667	1	0.515875
29.133333	1	0.503500
29.150000	1	0.490375
29.166667	1	0.478125
29.183333	1	0.464500
29.200000	1	0.450750
29.216667	1	0.437250
29.233333	1	0.423375
29.250000	1	0.410500
29.266667	1	0.396625
29.283333	1	0.383375
29.300000	1	0.371375
29.316667	1	0.358750
29.333333	1	0.346750
29.350000	1	0.334625
29.366667	1	0.323250
29.383333	1	0.312000
29.400000	1	0.302125
29.416667	1	0.292125
29.433333	1	0.282375
29.450000	1	0.272875
29.466667	1	0.264125
29.483333	1	0.255750
29.500000	1	0.247625
29.516667	1	0.239875
29.533333	1	0.231875
29.550000	1	0.225250
29.566667	1	0.218000
29.583333	1	0.211625
29.600000	1	0.205875
29.616667	1	0.200125
29.633333	1	0.195125
29.650000	1	0.190250
29.666667	1	0.184625
29.683333	1	0.179750
29.700000	1	0.175000
29.716667	1	0.170625
29.733333	1	0.167375
29.750000	1	0.163625
29.766667	1	0.160125
29.783333	1	0.157375
29.800000	1	0.154500
29.816667	1	0.152000
29.833333	1	0.149875
29.850000	1	0.148125
29.866667	1	0.146500
29.883333	1	0.144750
29.900000	1	0.143000
29.916667	1	0.141750
29.933333	1	0.141375
29.950000	1	0.140000
29.966667	1	0.139250
29.983333	1	0.138750
30.000000	1	0.138875
30.016667	1	0.138625
30.033333	1	0.139250
30.050000	1	0.139125
30.066667	1	0.139625
30.083333	1	0.140000
30.100000	1	0.140750
30.116667	1	0.141500
30.133333	1	0.142500
30.150000	1	0.144000
30.166667	1	0.145250
30.183333	1	0.146625
30.200000	1	0.148375
30.216667	1	0.150250
30.233333	1	0.152250
30.250000	1	0.154250
30.266667	1	0.156125
30.283333	1	0.158625
30.300000	1	0.160125
30.316667	1	0.162250
30.333333	1	0.165000
30.350000	1	0.167125
30.366667	1	0.169250
30.383333	1	0.172250
30.400000	1	0.174625
30.416667	1	0.177375
30.433333	1	0.180625
30.450000	1	0.183250
30.466667	1	0.186750
30.483333	1	0.190000
30.500000	1	0.193375
30.516667	1	0.197250
30.533333	1	0.201875
30.550000	1	0.206625
30.566667	1	0.210625
30.583333	1	0.215125
30.600000	1	0.220500
30.616667	1	0.226250
30.633333	1	0.232250
30.650000	1	0.237875
30.666667	1	0.244625
30.683333	1	0.251250
30.700000	1	0.258625
30.716667	1	0.265625
30.733333	1	0.273000
30.750000	1	0.280875
30.766667	1	0.288750
30.783333	1	0.298000
30.800000	1	0.307750
30.816667	1	0.318125
30.833333	1	0.328625
30.850000	1	0.339125
30.866667	1	0.349875
30.883333	1	0.363000
30.900000	1	0.376125
30.916667	1	0.391000
30.933333	1	0.407000
30.950000	1	0.424500
30.966667	1	0.443625
30.983333	1	0.465625
31.000000	1	0.490125
31.016667	1	0.516500
31.033333	1	0.547000
31.050000	1	0.581125
31.066667	1	0.620000
31.083333	1	0.663000
31.100000	1	0.710250
31.116667	1	0.763500
31.133333	1	0.821625
31.150000	1	0.885375
31.166667	1	0.955250
31.183333	1	1.032000
31.200000	1	1.114625
31.216667	1	1.203375
31.233333	1	1.297625
31.250000	1	1.398375
31.266667	1	1.504625
31.283333	1	1.614625
31.300000	1	1.729375
31.316667	1	1.846625
31.333333	1	1.965750
31.350000	1	2.085500
31.366667	1	2.204750
31.383333	1	2.321875
31.400000	1	2.435750
31.416667	1	2.546250
31.433333	1	2.650125
31.450000	1	2.746500
31.466667	1	2.833375
31.483333	1	2.910375
31.500000	1	2.976250
31.516667	1	3.029750
31.533333	1	3.070625
31.550000	1	3.097875
31.566667	1	3.111875
31.583333	1	3.111750
31.600000	1	3.097625
31.616667	1	3.071250
31.633333	1	3.031000
31.650000	1	2.979000
31.666667	1	2.915500
31.683333	1	2.842625
31.700000	1	2.760500
31.716667	1	2.670750
31.733333	1	2.574875
31.750000	1	2.473250
31.766667	1	2.368500
31.783333	1	2.260625
31.800000	1	2.150375
31.816667	1	2.039750
31.833333	1	1.930125
31.850000	1	1.821500
31.866667	1	1.714750
31.883333	1	1.611750
31.900000	1	1.512125
31.916667	1	1.416375
31.933333	1	1.325250
31.950000	1	1.238500
31.966667	1	1.157125
31.983333	1	1.080000
32.000000	1	1.007625
32.016667	1	0.939500
32.033333	1	0.875500
32.050000	1	0.815875
32.066667	1	0.760625
32.083333	1	0.709625
32.100000	1	0.661000
32.116667	1	0.616750
32.133333	1	0.575750
32.150000	1	0.538000
32.166667	1	0.501625
32.183333	1	0.469250
32.200000	1	0.438125
32.216667	1	0.409500
32.233333	1	0.382500
32.250000	1	0.358125
32.266667	1	0.334875
32.283333	1	0.312375
32.300000	1	0.291375
32.316667	1	0.272000
32.333333	1	0.254500
32.350000	1	0.238500
32.366667	1	0.222875
32.383333	1	0.208750
32.400000	1	0.196250
32.416667	1	0.183625
32.433333	1	0.172125
32.450000	1	0.161500
32.466667	1	0.152250
32.483333	1	0.144000
32.500000	1	0.136125
32.516667	1	0.128375
32.533333	1	0.122125
32.550000	1	0.116375
32.566667	1	0.110750
32.583333	1	0.105625
32.600000	1	0.100875
32.616667	1	0.097125
32.633333	1	0.093750
32.650000	1	0.090375
32.666667	1	0.087000
32.683333	1	0.084375
32.700000	1	0.082000
32.716667	1	0.079125
32.733333	1	0.076625
32.750000	1	0.075125
32.766667	1	0.073000
32.783333	1	0.070625
32.800000	1	0.068125
32.816667	1	0.066750
32.833333	1	0.065000
32.850000	1	0.063250
32.866667	1	0.061375
32.883333	1	0.060000
32.900000	1	0.058000
32.916667	1	0.055750
32.933333	1	0.053125
32.950000	1	0.052125
32.966667	1	0.051625
32.983333	1	0.050750
33.000000	1	0.049250
33.016667	1	0.048000
33.033333	1	0.046875
33.050000	1	0.046000
33.066667	1	0.044750
33.083333	1	0.044375
33.100000	1	0.043625
33.116667	1	0.042875
33.133333	1	0.042875
33.150000	1	0.042250
33.166667	1	0.042500
33.183333	1	0.042625
33.200000	1	0.042875
33.216667	1	0.043750
33.233333	1	0.043500
33.250000	1	0.044125
33.266667	1	0.044750
33.283333	1	0.045750
33.300000	1	0.046625
33.316667	1	0.047750
33.333333	1	0.049375
33.350000	1	0.050500
33.366667	1	0.052500
33.383333	1	0.053500
33.400000	1	0.055500
33.416667	1	0.057000
33.433333	1	0.059125
33.450000	1	0.060750
33.466667	1	0.062125
33.483333	1	0.064500
33.500000	1	0.065875
33.516667	1	0.067875
33.533333	1	0.070250
33.550000	1	0.072375
33.566667	1	0.074875
33.583333	1	0.077500
33.600000	1	0.079750
33.616667	1	0.082500
33.633333	1	0.084000
33.650000	1	0.086875
33.666667	1	0.089500
33.683333	1	0.091500
33.700000	1	0.093875
33.716667	1	0.097000
33.733333	1	0.099875
33.750000	1	0.103000
33.766667	1	0.105500
33.783333	1	0.108375
33.800000	1	0.111125
33.816667	1	0.113625
33.833333	1	0.115625
33.850000	1	0.118500
33.866667	1	0.120500
33.883333	1	0.122625
33.900000	1	0.124250
33.916667	1	0.126000
33.933333	1	0.127375
33.950000	1	0.129375
33.966667	1	0.130500
33.983333	1	0.131750
34.000000	1	0.133375
34.016667	1	0.133625
34.033333	1	0.134625
34.050000	1	0.134875
34.066667	1	0.135000
34.083333	1	0.135250
34.100000	1	0.134875
34.116667	1	0.134875
34.133333	1	0.134500
34.150000	1	0.135625
34.166667	1	0.135250
34.183333	1	0.134750
34.200000	1	0.134375
34.216667	1	0.134375
34.233333	1	0.133750
34.250000	1	0.134375
34.266667	1	0.134250
34.283333	1	0.134625
34.300000	1	0.133875
34.316667	1	0.134000
34.333333	1	0.134250
34.350000	1	0.135000
34.366667	1	0.135375
34.383333	1	0.136250
34.400000	1	0.136875
34.416667	1	0.138250
34.433333	1	0.139250
34.450000	1	0.139875
34.466667	1	0.140625
34.483333	1	0.141750
34.500000	1	0.142375
34.516667	1	0.143125
34.533333	1	0.144000
34.550000	1	0.145000
34.566667	1	0.145625
34.583333	1	0.146625
34.600000	1	0.146625
34.616667	1	0.146750
34.633333	1	0.147500
34.650000	1	0.147500
34.666667	1	0.147625
34.683333	1	0.147250
34.700000	1	0.147375
34.716667	1	0.147125
34.733333	1	0.146875
34.750000	1	0.146750
34.766667	1	0.145875
34.783333	1	0.144500
34.800000	1	0.142875
34.816667	1	0.140875
34.833333	1	0.139500
34.850000	1	0.137875
34.866667	1	0.136000
34.883333	1	0.134125
34.900000	1	0.132125
34.916667	1	0.130125
34.933333	1	0.128000
34.950000	1	0.125875
34.966667	1	0.123625
34.983333	1	0.121625
35.000000	1	0.119250
35.016667	1	0.117000
35.033333	1	0.115250
35.050000	1	0.112750
35.066667	1	0.110250
35.083333	1	0.108250
35.100000	1	0.106500
35.116667	1	0.104625
35.133333	1	0.103250
35.150000	1	0.101250
35.166667	1	0.099625
35.183333	1	0.098375
35.200000	1	0.096875
35.216667	1	0.096125
35.233333	1	0.095250
35.250000	1	0.093625
35.266667	1	0.092750
35.283333	1	0.092250
35.300000	1	0.092000
35.316667	1	0.091625
35.333333	1	0.091875
35.350000	1	0.091375
35.366667	1	0.092000
35.383333	1	0.092500
35.400000	1	0.094000
35.416667	1	0.095375
35.433333	1	0.096375
35.450000	1	0.097000
35.466667	1	0.098000
35.483333	1	0.100250
35.500000	1	0.102250
35.516667	1	0.104625
35.533333	1	0.106625
35.550000	1	0.107875
35.566667	1	0.110625
35.583333	1	0.113000
35.600000	1	0.115875
35.616667	1	0.118625
35.633333	1	0.121625
35.650000	1	0.123750
35.666667	1	0.126125
35.683333	1	0.128875
35.700000	1	0.130500
35.716667	1	0.133125
35.733333	1	0.134875
35.750000	1	0.136625
35.766667	1	0.138125
35.783333	1	0.139750
35.800000	1	0.141375
35.816667	1	0.141750
35.833333	1	0.142125
35.850000	1	0.142500
35.866667	1	0.142375
35.883333	1	0.141875
35.900000	1	0.141875
35.916667	1	0.141125
35.933333	1	0.139875
35.950000	1	0.139375
35.966667	1	0.138875
35.983333	1	0.137625
36.000000	1	0.136000
36.016667	1	0.133750
36.033333	1	0.131875
36.050000	1	0.129500
36.066667	1	0.127375
36.083333	1	0.125125
36.100000	1	0.123375
36.116667	1	0.121625
36.133333	1	0.119875
36.150000	1	0.117625
36.166667	1	0.115875
36.183333	1	0.113875
36.200000	1	0.112625
36.216667	1	0.110375
36.233333	1	0.107875
36.250000	1	0.105875
36.266667	1	0.104125
36.283333	1	0.102875
36.300000	1	0.101875
36.316667	1	0.101375
36.333333	1	0.100625
36.350000	1	0.100125
36.366667	1	0.099750
36.383333	1	0.099000
36.400000	1	0.098375
36.416667	1	0.098000
36.433333	1	0.097125
36.450000	1	0.097000
36.466667	1	0.097125
36.483333	1	0.096875
36.500000	1	0.097625
36.516667	1	0.097375
36.533333	1	0.097500
36.550000	1	0.097250
36.566667	1	0.096875
36.583333	1	0.096750
36.600000	1	0.096250
36.616667	1	0.094875
36.633333	1	0.094375
36.650000	1	0.094000
36.666667	1	0.092750
36.683333	1	0.092125
36.700000	1	0.091500
36.716667	1	0.089875
36.733333	1	0.088500
36.750000	1	0.087375
36.766667	1	0.086250
36.783333	1	0.084500
36.800000	1	0.083125
36.816667	1	0.081000
36.833333	1	0.079125
36.850000	1	0.077125
36.866667	1	0.075000
36.883333	1	0.072750
36.900000	1	0.070750
36.916667	1	0.068750
36.933333	1	0.067250
36.950000	1	0.066000
36.966667	1	0.064625
36.983333	1	0.062750
37.000000	1	0.061375
37.016667	1	0.060125
37.033333	1	0.059125
37.050000	1	0.057250
37.066667	1	0.056750
37.083333	1	0.056500
37.100000	1	0.056125
37.116667	1	0.056625
37.133333	1	0.056375
37.150000	1	0.056750
37.166667	1	0.056250
37.183333	1	0.057125
37.200000	1	0.057750
37.216667	1	0.058500
37.233333	1	0.059625
37.250000	1	0.060750
37.266667	1	0.061750
37.283333	1	0.063250
37.300000	1	0.064875
37.316667	1	0.066625
37.333333	1	0.067875
37.350000	1	0.068750
37.366667	1	0.070125
37.383333	1	0.071500
37.400000	1	0.072000
37.416667	1	0.072750
37.433333	1	0.073625
37.450000	1	0.074250
37.466667	1	0.075000
37.483333	1	0.075250
37.500000	1	0.076125
37.516667	1	0.076875
37.533333	1	0.076750
37.550000	1	0.076875
37.566667	1	0.076125
37.583333	1	0.075000
37.600000	1	0.074625
37.616667	1	0.073625
37.633333	1	0.073125
37.650000	1	0.072625
37.666667	1	0.071875
37.683333	1	0.070625
37.700000	1	0.069500
37.716667	1	0.068375
37.733333	1	0.067500
37.750000	1	0.065875
37.766667	1	0.064750
37.783333	1	0.063375
37.800000	1	0.061625
37.816667	1	0.060500
37.833333	1	0.058500
37.850000	1	0.056750
37.866667	1	0.054750
37.883333	1	0.053500
37.900000	1	0.053000
37.916667	1	0.051375
37.933333	1	0.050375
37.950000	1	0.049625
37.966667	1	0.048625
37.983333	1	0.048000
38.000000	1	0.047125
38.016667	1	0.045625
38.033333	1	0.045375
38.050000	1	0.044875
38.066667	1	0.043875
38.083333	1	0.043375
38.100000	1	0.043250
38.116667	1	0.043625
38.133333	1	0.043625
38.150000	1	0.043375
38.166667	1	0.043625
38.183333	1	0.043250
38.200000	1	0.043875
38.216667	1	0.043500
38.233333	1	0.043125
38.250000	1	0.041750
38.266667	1	0.041750
38.283333	1	0.042125
38.300000	1	0.042375
38.316667	1	0.042500
38.333333	1	0.042500
38.350000	1	0.042125
38.366667	1	0.042125
38.383333	1	0.041750
38.400000	1	0.041750
38.416667	1	0.042250
38.433333	1	0.042000
38.450000	1	0.042125
38.466667	1	0.042000
38.483333	1	0.042375
38.500000	1	0.041750
38.516667	1	0.041875
38.533333	1	0.041875
38.550000	1	0.042500
38.566667	1	0.043125
38.583333	1	0.043250
38.600000	1	0.042875
38.616667	1	0.043250
38.633333	1	0.043625
38.650000	1	0.044750
38.666667	1	0.045500
38.683333	1	0.045250
38.700000	1	0.045875
38.716667	1	0.046625
38.733333	1	0.047375
38.750000	1	0.047625
38.766667	1	0.048500
38.783333	1	0.048625
38.800000	1	0.049000
38.816667	1	0.049500
38.833333	1	0.049875
38.850000	1	0.050000
38.866667	1	0.050875
38.883333	1	0.051000
38.900000	1	0.051500
38.916667	1	0.051375
38.933333	1	0.051625
38.950000	1	0.051750
38.966667	1	0.052125
38.983333	1	0.052500
39.000000	1	0.052125
39.016667	1	0.052250
39.033333	1	0.051875
39.050000	1	0.051625
39.066667	1	0.051000
39.083333	1	0.051250
39.100000	1	0.050375
39.116667	1	0.049625
39.133333	1	0.048875
39.150000	1	0.047375
39.166667	1	0.046625
39.183333	1	0.046000
39.200000	1	0.044750
39.216667	1	0.043375
39.233333	1	0.041500
39.250000	1	0.040375
39.266667	1	0.039250
39.283333	1	0.037750
39.300000	1	0.036125
39.316667	1	0.034375
39.333333	1	0.032500
39.350000	1	0.030500
39.366667	1	0.029000
39.383333	1	0.027500
39.400000	1	0.025625
39.416667	1	0.023875
39.433333	1	0.021750
39.450000	1	0.019875
39.466667	1	0.017875
39.483333	1	0.016375
39.500000	1	0.014125
39.516667	1	0.013375
39.533333	1	0.011875
39.550000	1	0.009875
39.566667	1	0.008375
39.583333	1	0.006750
39.600000	1	0.005375
39.616667	1	0.003875
39.633333	1	0.002500
39.650000	1	0.001375
39.666667	1	0.000000
39.683333	1	-0.001000
39.700000	1	-0.001625
39.716667	1	-0.002125
39.733333	1	-0.003375
39.750000	1	-0.004375
39.766667	1	-0.005500
39.783333	1	-0.006750
39.800000	1	-0.007625
39.816667	1	-0.009000
39.833333	1	-0.010250
39.850000	1	-0.011250
39.866667	1	-0.012625
39.883333	1	-0.013125
39.900000	1	-0.014125
39.916667	1	-0.015250
39.933333	1	-0.015875
39.950000	1	-0.016750
39.966667	1	-0.017375
39.983333	1	-0.018125
40.000000	1	-0.019625
