URL	chrom://bioreactor/micro_cm7/HPLC_Ultimate_3000/Users/markusar/20240708_MA_pHrange1.seq/613.smp/RI_1.channel/RI_1.chm
Channel	RI_1

Injection Information:
Data Vault	micro_cm7
Sequence	20240708_MA_pHrange1
Name	Pv3_20H_4
Number	45
Position	BD9
Comment	
Processing Method	
Instrument Method	run_25B_method
Type	Unknown
Status	Finished
Inject Time	09.07.2024 21:37:18 +02:00
Volume (µl)	20.0000
Dilution Factor	1.0000
Weight	1.0000

Chromatogram Data Information:
Time Min. (min)	0.000000
Time Max. (min)	40.000000
Data Points	2401
Detector	RI
Generating Data System	Chromeleon 7.3.2.11814
Exporting Data System	Chromeleon 7.3.2.0
Operator	Instrument Controller
Signal Quantity	Refractive 
Signal Unit	µRIU
Signal Min.	-0.074375
Signal Max.	83.499250
Channel	RI_1
Driver Name	RID520Driver.dll
Channel Type	Evaluation
Min. Step (s)	1
Max. Step (s)	1
Average Step (s)	1

Signal Parameter Information:
Signal Info	

Chromatogram Data:
Time (min)	Step (s)	Value (µRIU)
0.000000	n.a.	0.023000
0.016667	1	0.022000
0.033333	1	0.021625
0.050000	1	0.021875
0.066667	1	0.022125
0.083333	1	0.022125
0.100000	1	0.022000
0.116667	1	0.022000
0.133333	1	0.022250
0.150000	1	0.022750
0.166667	1	0.022625
0.183333	1	0.023000
0.200000	1	0.022750
0.216667	1	0.022500
0.233333	1	0.022250
0.250000	1	0.022750
0.266667	1	0.022625
0.283333	1	0.022875
0.300000	1	0.022750
0.316667	1	0.022875
0.333333	1	0.022250
0.350000	1	0.021500
0.366667	1	0.020875
0.383333	1	0.018250
0.400000	1	0.016375
0.416667	1	0.015250
0.433333	1	0.014875
0.450000	1	0.015375
0.466667	1	0.015500
0.483333	1	0.014375
0.500000	1	0.014250
0.516667	1	0.013500
0.533333	1	0.012875
0.550000	1	0.011125
0.566667	1	0.008625
0.583333	1	0.005750
0.600000	1	0.002875
0.616667	1	-0.000500
0.633333	1	-0.003250
0.650000	1	-0.005500
0.666667	1	-0.007125
0.683333	1	-0.009375
0.700000	1	-0.010125
0.716667	1	-0.010750
0.733333	1	-0.011500
0.750000	1	-0.012000
0.766667	1	-0.012375
0.783333	1	-0.012625
0.800000	1	-0.012500
0.816667	1	-0.012375
0.833333	1	-0.012250
0.850000	1	-0.011875
0.866667	1	-0.011375
0.883333	1	-0.010625
0.900000	1	-0.010250
0.916667	1	-0.009500
0.933333	1	-0.008000
0.950000	1	-0.006750
0.966667	1	-0.005750
0.983333	1	-0.004375
1.000000	1	-0.002875
1.016667	1	-0.001500
1.033333	1	0.000375
1.050000	1	0.002375
1.066667	1	0.004125
1.083333	1	0.006375
1.100000	1	0.008500
1.116667	1	0.010125
1.133333	1	0.012000
1.150000	1	0.013375
1.166667	1	0.014875
1.183333	1	0.016750
1.200000	1	0.018250
1.216667	1	0.019750
1.233333	1	0.021125
1.250000	1	0.022500
1.266667	1	0.023625
1.283333	1	0.023750
1.300000	1	0.024375
1.316667	1	0.025125
1.333333	1	0.025625
1.350000	1	0.025875
1.366667	1	0.026000
1.383333	1	0.025250
1.400000	1	0.025250
1.416667	1	0.024875
1.433333	1	0.024375
1.450000	1	0.023875
1.466667	1	0.022750
1.483333	1	0.021875
1.500000	1	0.020875
1.516667	1	0.019375
1.533333	1	0.017750
1.550000	1	0.016625
1.566667	1	0.014750
1.583333	1	0.013500
1.600000	1	0.012500
1.616667	1	0.010875
1.633333	1	0.008625
1.650000	1	0.006625
1.666667	1	0.004875
1.683333	1	0.004125
1.700000	1	0.002625
1.716667	1	0.000875
1.733333	1	-0.000875
1.750000	1	-0.002625
1.766667	1	-0.004375
1.783333	1	-0.006000
1.800000	1	-0.007125
1.816667	1	-0.008000
1.833333	1	-0.008750
1.850000	1	-0.009125
1.866667	1	-0.009625
1.883333	1	-0.010500
1.900000	1	-0.010375
1.916667	1	-0.011125
1.933333	1	-0.011125
1.950000	1	-0.011625
1.966667	1	-0.011625
1.983333	1	-0.011500
2.000000	1	-0.011125
2.016667	1	-0.011125
2.033333	1	-0.010750
2.050000	1	-0.010250
2.066667	1	-0.008875
2.083333	1	-0.008500
2.100000	1	-0.007625
2.116667	1	-0.006375
2.133333	1	-0.005500
2.150000	1	-0.004250
2.166667	1	-0.003375
2.183333	1	-0.002125
2.200000	1	-0.001125
2.216667	1	-0.000375
2.233333	1	0.001250
2.250000	1	0.002250
2.266667	1	0.003375
2.283333	1	0.004500
2.300000	1	0.005750
2.316667	1	0.006625
2.333333	1	0.007375
2.350000	1	0.008000
2.366667	1	0.008500
2.383333	1	0.009500
2.400000	1	0.010500
2.416667	1	0.011750
2.433333	1	0.012750
2.450000	1	0.013375
2.466667	1	0.013625
2.483333	1	0.014375
2.500000	1	0.014375
2.516667	1	0.015250
2.533333	1	0.015375
2.550000	1	0.015750
2.566667	1	0.016875
2.583333	1	0.018125
2.600000	1	0.018750
2.616667	1	0.019250
2.633333	1	0.019375
2.650000	1	0.019750
2.666667	1	0.020125
2.683333	1	0.020125
2.700000	1	0.021000
2.716667	1	0.022000
2.733333	1	0.021625
2.750000	1	0.021375
2.766667	1	0.021125
2.783333	1	0.021375
2.800000	1	0.021250
2.816667	1	0.021625
2.833333	1	0.021875
2.850000	1	0.021250
2.866667	1	0.021000
2.883333	1	0.020750
2.900000	1	0.020625
2.916667	1	0.020125
2.933333	1	0.019250
2.950000	1	0.019000
2.966667	1	0.018875
2.983333	1	0.019000
3.000000	1	0.019500
3.016667	1	0.019500
3.033333	1	0.020000
3.050000	1	0.020375
3.066667	1	0.020625
3.083333	1	0.020875
3.100000	1	0.021125
3.116667	1	0.021750
3.133333	1	0.022125
3.150000	1	0.022125
3.166667	1	0.022000
3.183333	1	0.022500
3.200000	1	0.022750
3.216667	1	0.023250
3.233333	1	0.023875
3.250000	1	0.024500
3.266667	1	0.024500
3.283333	1	0.025625
3.300000	1	0.025875
3.316667	1	0.026250
3.333333	1	0.026750
3.350000	1	0.027250
3.366667	1	0.027000
3.383333	1	0.026625
3.400000	1	0.027250
3.416667	1	0.027500
3.433333	1	0.028250
3.450000	1	0.029375
3.466667	1	0.029500
3.483333	1	0.029875
3.500000	1	0.030375
3.516667	1	0.030750
3.533333	1	0.030500
3.550000	1	0.031000
3.566667	1	0.031875
3.583333	1	0.032500
3.600000	1	0.033375
3.616667	1	0.033875
3.633333	1	0.034625
3.650000	1	0.035875
3.666667	1	0.036000
3.683333	1	0.037000
3.700000	1	0.038125
3.716667	1	0.038375
3.733333	1	0.040250
3.750000	1	0.041125
3.766667	1	0.042250
3.783333	1	0.043375
3.800000	1	0.045125
3.816667	1	0.046875
3.833333	1	0.048750
3.850000	1	0.049875
3.866667	1	0.050875
3.883333	1	0.051625
3.900000	1	0.052500
3.916667	1	0.053875
3.933333	1	0.054875
3.950000	1	0.056000
3.966667	1	0.057625
3.983333	1	0.058750
4.000000	1	0.060250
4.016667	1	0.061125
4.033333	1	0.061875
4.050000	1	0.062875
4.066667	1	0.064250
4.083333	1	0.065125
4.100000	1	0.065625
4.116667	1	0.066125
4.133333	1	0.067750
4.150000	1	0.067750
4.166667	1	0.068375
4.183333	1	0.068875
4.200000	1	0.068875
4.216667	1	0.070000
4.233333	1	0.070375
4.250000	1	0.071750
4.266667	1	0.073375
4.283333	1	0.074250
4.300000	1	0.074500
4.316667	1	0.075500
4.333333	1	0.076000
4.350000	1	0.077375
4.366667	1	0.078625
4.383333	1	0.079875
4.400000	1	0.081250
4.416667	1	0.082875
4.433333	1	0.084625
4.450000	1	0.086250
4.466667	1	0.088500
4.483333	1	0.090375
4.500000	1	0.092125
4.516667	1	0.094250
4.533333	1	0.096000
4.550000	1	0.097625
4.566667	1	0.099875
4.583333	1	0.102625
4.600000	1	0.105375
4.616667	1	0.107500
4.633333	1	0.110000
4.650000	1	0.112625
4.666667	1	0.115875
4.683333	1	0.118625
4.700000	1	0.121500
4.716667	1	0.123875
4.733333	1	0.126250
4.750000	1	0.128875
4.766667	1	0.132000
4.783333	1	0.134500
4.800000	1	0.136875
4.816667	1	0.139250
4.833333	1	0.142500
4.850000	1	0.145375
4.866667	1	0.147625
4.883333	1	0.149625
4.900000	1	0.151375
4.916667	1	0.154000
4.933333	1	0.156500
4.950000	1	0.158625
4.966667	1	0.160750
4.983333	1	0.162625
5.000000	1	0.165375
5.016667	1	0.168000
5.033333	1	0.170500
5.050000	1	0.173125
5.066667	1	0.175500
5.083333	1	0.178000
5.100000	1	0.180000
5.116667	1	0.183000
5.133333	1	0.185875
5.150000	1	0.188875
5.166667	1	0.192250
5.183333	1	0.195375
5.200000	1	0.198625
5.216667	1	0.201875
5.233333	1	0.205375
5.250000	1	0.209000
5.266667	1	0.212750
5.283333	1	0.216000
5.300000	1	0.219500
5.316667	1	0.223375
5.333333	1	0.227125
5.350000	1	0.230875
5.366667	1	0.234750
5.383333	1	0.237625
5.400000	1	0.241000
5.416667	1	0.244625
5.433333	1	0.248375
5.450000	1	0.251500
5.466667	1	0.254500
5.483333	1	0.257000
5.500000	1	0.259750
5.516667	1	0.262000
5.533333	1	0.263875
5.550000	1	0.266000
5.566667	1	0.268000
5.583333	1	0.269250
5.600000	1	0.270125
5.616667	1	0.270875
5.633333	1	0.270625
5.650000	1	0.270875
5.666667	1	0.270125
5.683333	1	0.268875
5.700000	1	0.268125
5.716667	1	0.266500
5.733333	1	0.265125
5.750000	1	0.262500
5.766667	1	0.260125
5.783333	1	0.256625
5.800000	1	0.254000
5.816667	1	0.250875
5.833333	1	0.247375
5.850000	1	0.243000
5.866667	1	0.238875
5.883333	1	0.234000
5.900000	1	0.228875
5.916667	1	0.223500
5.933333	1	0.218000
5.950000	1	0.212375
5.966667	1	0.206750
5.983333	1	0.201000
6.000000	1	0.195500
6.016667	1	0.190000
6.033333	1	0.184750
6.050000	1	0.179125
6.066667	1	0.173500
6.083333	1	0.167500
6.100000	1	0.162000
6.116667	1	0.156375
6.133333	1	0.149875
6.150000	1	0.144750
6.166667	1	0.138000
6.183333	1	0.132375
6.200000	1	0.127000
6.216667	1	0.121625
6.233333	1	0.116250
6.250000	1	0.110500
6.266667	1	0.105500
6.283333	1	0.100875
6.300000	1	0.096250
6.316667	1	0.091625
6.333333	1	0.087125
6.350000	1	0.082375
6.366667	1	0.078375
6.383333	1	0.074250
6.400000	1	0.070625
6.416667	1	0.067000
6.433333	1	0.064125
6.450000	1	0.060750
6.466667	1	0.058625
6.483333	1	0.055125
6.500000	1	0.052250
6.516667	1	0.049875
6.533333	1	0.047875
6.550000	1	0.046000
6.566667	1	0.044875
6.583333	1	0.044375
6.600000	1	0.042750
6.616667	1	0.042125
6.633333	1	0.041375
6.650000	1	0.040875
6.666667	1	0.039875
6.683333	1	0.039250
6.700000	1	0.039125
6.716667	1	0.039375
6.733333	1	0.039625
6.750000	1	0.040625
6.766667	1	0.041000
6.783333	1	0.042375
6.800000	1	0.042875
6.816667	1	0.043500
6.833333	1	0.044250
6.850000	1	0.045375
6.866667	1	0.046750
6.883333	1	0.047750
6.900000	1	0.049250
6.916667	1	0.050375
6.933333	1	0.053000
6.950000	1	0.055625
6.966667	1	0.058250
6.983333	1	0.060750
7.000000	1	0.064000
7.016667	1	0.067000
7.033333	1	0.069500
7.050000	1	0.072125
7.066667	1	0.075500
7.083333	1	0.078750
7.100000	1	0.082375
7.116667	1	0.086250
7.133333	1	0.089500
7.150000	1	0.093625
7.166667	1	0.098000
7.183333	1	0.101750
7.200000	1	0.105250
7.216667	1	0.109750
7.233333	1	0.113625
7.250000	1	0.118250
7.266667	1	0.122375
7.283333	1	0.126000
7.300000	1	0.129125
7.316667	1	0.132750
7.333333	1	0.135500
7.350000	1	0.139000
7.366667	1	0.141750
7.383333	1	0.144875
7.400000	1	0.146875
7.416667	1	0.149750
7.433333	1	0.152500
7.450000	1	0.154625
7.466667	1	0.156000
7.483333	1	0.157500
7.500000	1	0.158375
7.516667	1	0.158750
7.533333	1	0.159125
7.550000	1	0.159250
7.566667	1	0.159000
7.583333	1	0.157875
7.600000	1	0.157375
7.616667	1	0.155875
7.633333	1	0.154500
7.650000	1	0.152000
7.666667	1	0.150000
7.683333	1	0.147750
7.700000	1	0.146000
7.716667	1	0.143375
7.733333	1	0.140500
7.750000	1	0.137125
7.766667	1	0.133125
7.783333	1	0.129375
7.800000	1	0.125250
7.816667	1	0.121375
7.833333	1	0.116750
7.850000	1	0.112625
7.866667	1	0.107750
7.883333	1	0.103375
7.900000	1	0.098875
7.916667	1	0.095125
7.933333	1	0.091000
7.950000	1	0.086250
7.966667	1	0.081250
7.983333	1	0.076875
8.000000	1	0.072000
8.016667	1	0.066750
8.033333	1	0.061625
8.050000	1	0.056250
8.066667	1	0.052125
8.083333	1	0.047375
8.100000	1	0.042375
8.116667	1	0.038125
8.133333	1	0.033750
8.150000	1	0.029250
8.166667	1	0.024750
8.183333	1	0.021375
8.200000	1	0.018375
8.216667	1	0.014875
8.233333	1	0.011125
8.250000	1	0.007875
8.266667	1	0.004375
8.283333	1	0.001250
8.300000	1	-0.001250
8.316667	1	-0.003625
8.333333	1	-0.005500
8.350000	1	-0.007375
8.366667	1	-0.008875
8.383333	1	-0.010250
8.400000	1	-0.011625
8.416667	1	-0.012375
8.433333	1	-0.013000
8.450000	1	-0.013375
8.466667	1	-0.013500
8.483333	1	-0.013250
8.500000	1	-0.013375
8.516667	1	-0.012875
8.533333	1	-0.011750
8.550000	1	-0.010625
8.566667	1	-0.009625
8.583333	1	-0.008625
8.600000	1	-0.007875
8.616667	1	-0.006250
8.633333	1	-0.004875
8.650000	1	-0.003375
8.666667	1	-0.002250
8.683333	1	-0.000625
8.700000	1	0.000750
8.716667	1	0.002250
8.733333	1	0.003500
8.750000	1	0.005000
8.766667	1	0.006250
8.783333	1	0.006750
8.800000	1	0.007500
8.816667	1	0.008625
8.833333	1	0.009375
8.850000	1	0.010875
8.866667	1	0.011875
8.883333	1	0.012625
8.900000	1	0.013625
8.916667	1	0.014500
8.933333	1	0.015375
8.950000	1	0.016875
8.966667	1	0.017750
8.983333	1	0.019250
9.000000	1	0.019750
9.016667	1	0.020125
9.033333	1	0.021000
9.050000	1	0.021625
9.066667	1	0.022000
9.083333	1	0.023000
9.100000	1	0.023875
9.116667	1	0.024375
9.133333	1	0.025875
9.150000	1	0.027250
9.166667	1	0.027875
9.183333	1	0.028750
9.200000	1	0.029750
9.216667	1	0.030375
9.233333	1	0.031500
9.250000	1	0.032500
9.266667	1	0.033375
9.283333	1	0.035000
9.300000	1	0.036250
9.316667	1	0.037500
9.333333	1	0.038625
9.350000	1	0.039250
9.366667	1	0.040750
9.383333	1	0.041375
9.400000	1	0.041500
9.416667	1	0.042625
9.433333	1	0.043750
9.450000	1	0.045000
9.466667	1	0.045500
9.483333	1	0.046625
9.500000	1	0.047625
9.516667	1	0.048625
9.533333	1	0.049500
9.550000	1	0.050500
9.566667	1	0.050875
9.583333	1	0.052000
9.600000	1	0.052250
9.616667	1	0.051875
9.633333	1	0.052625
9.650000	1	0.053000
9.666667	1	0.053250
9.683333	1	0.053125
9.700000	1	0.052875
9.716667	1	0.052750
9.733333	1	0.052125
9.750000	1	0.051375
9.766667	1	0.051125
9.783333	1	0.050500
9.800000	1	0.049000
9.816667	1	0.047875
9.833333	1	0.046500
9.850000	1	0.045625
9.866667	1	0.044000
9.883333	1	0.042250
9.900000	1	0.040625
9.916667	1	0.038750
9.933333	1	0.036875
9.950000	1	0.035125
9.966667	1	0.033000
9.983333	1	0.031500
10.000000	1	0.029875
10.016667	1	0.028625
10.033333	1	0.027375
10.050000	1	0.026750
10.066667	1	0.026375
10.083333	1	0.026750
10.100000	1	0.028000
10.116667	1	0.030000
10.133333	1	0.032500
10.150000	1	0.036000
10.166667	1	0.040625
10.183333	1	0.046000
10.200000	1	0.053125
10.216667	1	0.060875
10.233333	1	0.070000
10.250000	1	0.080625
10.266667	1	0.093625
10.283333	1	0.108500
10.300000	1	0.125500
10.316667	1	0.143875
10.333333	1	0.164750
10.350000	1	0.186250
10.366667	1	0.207000
10.383333	1	0.225125
10.400000	1	0.237125
10.416667	1	0.237750
10.433333	1	0.222625
10.450000	1	0.188250
10.466667	1	0.133625
10.483333	1	0.061125
10.500000	1	-0.015875
10.516667	1	-0.074375
10.533333	1	-0.073125
10.550000	1	0.041875
10.566667	1	0.340000
10.583333	1	0.898500
10.600000	1	1.797250
10.616667	1	3.109125
10.633333	1	4.894875
10.650000	1	7.198750
10.666667	1	10.053750
10.683333	1	13.478625
10.700000	1	17.481250
10.716667	1	22.055875
10.733333	1	27.183250
10.750000	1	32.833000
10.766667	1	38.950500
10.783333	1	45.461875
10.800000	1	52.263125
10.816667	1	59.189750
10.833333	1	65.981875
10.850000	1	72.250500
10.866667	1	77.463875
10.883333	1	80.955875
10.900000	1	82.046250
10.916667	1	80.258125
10.933333	1	75.550875
10.950000	1	68.407250
10.966667	1	59.712625
10.983333	1	50.469875
11.000000	1	41.534625
11.016667	1	33.478125
11.033333	1	26.580250
11.050000	1	20.896500
11.066667	1	16.341875
11.083333	1	12.771500
11.100000	1	10.017750
11.116667	1	7.921625
11.133333	1	6.338125
11.150000	1	5.147625
11.166667	1	4.253500
11.183333	1	3.579125
11.200000	1	3.066875
11.216667	1	2.674750
11.233333	1	2.371625
11.250000	1	2.133625
11.266667	1	1.943500
11.283333	1	1.789125
11.300000	1	1.662250
11.316667	1	1.555625
11.333333	1	1.466750
11.350000	1	1.390500
11.366667	1	1.325625
11.383333	1	1.269500
11.400000	1	1.220250
11.416667	1	1.177375
11.433333	1	1.141000
11.450000	1	1.109375
11.466667	1	1.081875
11.483333	1	1.058375
11.500000	1	1.038000
11.516667	1	1.020000
11.533333	1	1.005000
11.550000	1	0.992125
11.566667	1	0.981375
11.583333	1	0.971625
11.600000	1	0.963125
11.616667	1	0.956875
11.633333	1	0.952250
11.650000	1	0.949000
11.666667	1	0.947875
11.683333	1	0.947375
11.700000	1	0.948250
11.716667	1	0.950625
11.733333	1	0.954750
11.750000	1	0.960500
11.766667	1	0.966750
11.783333	1	0.973875
11.800000	1	0.981875
11.816667	1	0.990750
11.833333	1	0.999250
11.850000	1	1.008000
11.866667	1	1.015875
11.883333	1	1.023750
11.900000	1	1.031000
11.916667	1	1.037000
11.933333	1	1.042250
11.950000	1	1.046875
11.966667	1	1.050125
11.983333	1	1.052875
12.000000	1	1.055125
12.016667	1	1.057000
12.033333	1	1.058875
12.050000	1	1.061625
12.066667	1	1.063875
12.083333	1	1.066375
12.100000	1	1.069125
12.116667	1	1.073000
12.133333	1	1.077500
12.150000	1	1.082250
12.166667	1	1.088000
12.183333	1	1.094375
12.200000	1	1.101000
12.216667	1	1.108500
12.233333	1	1.118000
12.250000	1	1.129750
12.266667	1	1.143125
12.283333	1	1.159500
12.300000	1	1.180250
12.316667	1	1.206125
12.333333	1	1.239375
12.350000	1	1.281125
12.366667	1	1.334750
12.383333	1	1.403500
12.400000	1	1.491500
12.416667	1	1.604125
12.433333	1	1.746500
12.450000	1	1.922875
12.466667	1	2.139625
12.483333	1	2.402375
12.500000	1	2.717000
12.516667	1	3.088125
12.533333	1	3.516625
12.550000	1	4.004375
12.566667	1	4.552625
12.583333	1	5.155125
12.600000	1	5.805750
12.616667	1	6.494750
12.633333	1	7.208375
12.650000	1	7.933375
12.666667	1	8.655250
12.683333	1	9.359750
12.700000	1	10.035875
12.716667	1	10.674500
12.733333	1	11.272125
12.750000	1	11.827875
12.766667	1	12.349125
12.783333	1	12.841875
12.800000	1	13.317500
12.816667	1	13.787125
12.833333	1	14.260375
12.850000	1	14.748250
12.866667	1	15.258750
12.883333	1	15.796750
12.900000	1	16.367500
12.916667	1	16.971875
12.933333	1	17.609875
12.950000	1	18.281250
12.966667	1	18.983625
12.983333	1	19.715750
13.000000	1	20.475875
13.016667	1	21.262000
13.033333	1	22.072875
13.050000	1	22.907250
13.066667	1	23.764250
13.083333	1	24.643625
13.100000	1	25.544125
13.116667	1	26.465375
13.133333	1	27.407000
13.150000	1	28.368250
13.166667	1	29.348250
13.183333	1	30.348000
13.200000	1	31.365125
13.216667	1	32.399500
13.233333	1	33.453250
13.250000	1	34.526250
13.266667	1	35.620625
13.283333	1	36.735125
13.300000	1	37.871250
13.316667	1	39.028750
13.333333	1	40.207500
13.350000	1	41.409500
13.366667	1	42.633625
13.383333	1	43.880375
13.400000	1	45.150625
13.416667	1	46.443750
13.433333	1	47.763250
13.450000	1	49.109375
13.466667	1	50.483375
13.483333	1	51.887125
13.500000	1	53.319125
13.516667	1	54.781875
13.533333	1	56.272125
13.550000	1	57.793000
13.566667	1	59.343250
13.583333	1	60.925000
13.600000	1	62.537250
13.616667	1	64.181125
13.633333	1	65.859000
13.650000	1	67.572250
13.666667	1	69.323125
13.683333	1	71.112375
13.700000	1	72.940250
13.716667	1	74.805875
13.733333	1	76.702625
13.750000	1	78.605000
13.766667	1	80.438000
13.783333	1	82.039500
13.800000	1	83.159750
13.816667	1	83.499250
13.833333	1	82.756500
13.850000	1	80.655500
13.866667	1	76.971000
13.883333	1	71.582000
13.900000	1	64.595625
13.916667	1	56.440125
13.933333	1	47.813625
13.950000	1	39.460500
13.966667	1	31.954875
13.983333	1	25.594000
14.000000	1	20.422000
14.016667	1	16.324875
14.033333	1	13.134500
14.050000	1	10.683750
14.066667	1	8.824500
14.083333	1	7.432500
14.100000	1	6.399125
14.116667	1	5.637250
14.133333	1	5.073125
14.150000	1	4.653375
14.166667	1	4.335500
14.183333	1	4.091000
14.200000	1	3.898250
14.216667	1	3.742875
14.233333	1	3.614875
14.250000	1	3.506000
14.266667	1	3.411250
14.283333	1	3.329125
14.300000	1	3.255750
14.316667	1	3.189750
14.333333	1	3.129500
14.350000	1	3.075625
14.366667	1	3.027250
14.383333	1	2.984250
14.400000	1	2.947750
14.416667	1	2.919125
14.433333	1	2.899125
14.450000	1	2.890750
14.466667	1	2.896000
14.483333	1	2.921000
14.500000	1	2.973250
14.516667	1	3.059750
14.533333	1	3.195875
14.550000	1	3.400375
14.566667	1	3.698375
14.583333	1	4.120625
14.600000	1	4.707500
14.616667	1	5.510250
14.633333	1	6.588375
14.650000	1	8.009750
14.666667	1	9.844375
14.683333	1	12.160750
14.700000	1	15.019500
14.716667	1	18.458500
14.733333	1	22.491875
14.750000	1	27.093875
14.766667	1	32.192625
14.783333	1	37.665500
14.800000	1	43.345000
14.816667	1	49.028000
14.833333	1	54.479000
14.850000	1	59.445750
14.866667	1	63.679875
14.883333	1	66.962750
14.900000	1	69.120750
14.916667	1	70.048250
14.933333	1	69.712000
14.950000	1	68.158750
14.966667	1	65.504125
14.983333	1	61.922500
15.000000	1	57.620500
15.016667	1	52.820625
15.033333	1	47.744500
15.050000	1	42.598875
15.066667	1	37.563375
15.083333	1	32.780625
15.100000	1	28.352250
15.116667	1	24.342000
15.133333	1	20.781625
15.150000	1	17.672750
15.166667	1	14.996250
15.183333	1	12.721375
15.200000	1	10.805875
15.216667	1	9.206375
15.233333	1	7.880625
15.250000	1	6.788750
15.266667	1	5.893250
15.283333	1	5.165000
15.300000	1	4.574625
15.316667	1	4.099000
15.333333	1	3.718250
15.350000	1	3.415875
15.366667	1	3.178375
15.383333	1	2.994375
15.400000	1	2.854125
15.416667	1	2.749375
15.433333	1	2.672750
15.450000	1	2.619250
15.466667	1	2.582750
15.483333	1	2.557875
15.500000	1	2.540750
15.516667	1	2.528000
15.533333	1	2.514750
15.550000	1	2.499250
15.566667	1	2.479625
15.583333	1	2.455000
15.600000	1	2.424750
15.616667	1	2.390250
15.633333	1	2.351750
15.650000	1	2.310750
15.666667	1	2.268000
15.683333	1	2.225125
15.700000	1	2.183875
15.716667	1	2.143750
15.733333	1	2.105500
15.750000	1	2.069125
15.766667	1	2.034500
15.783333	1	2.001125
15.800000	1	1.968125
15.816667	1	1.935125
15.833333	1	1.902625
15.850000	1	1.870375
15.866667	1	1.837375
15.883333	1	1.805000
15.900000	1	1.774000
15.916667	1	1.744250
15.933333	1	1.716375
15.950000	1	1.691250
15.966667	1	1.669500
15.983333	1	1.651375
16.000000	1	1.636000
16.016667	1	1.625750
16.033333	1	1.616625
16.050000	1	1.611000
16.066667	1	1.607000
16.083333	1	1.603625
16.100000	1	1.600875
16.116667	1	1.597875
16.133333	1	1.593750
16.150000	1	1.587875
16.166667	1	1.579875
16.183333	1	1.570125
16.200000	1	1.558000
16.216667	1	1.545250
16.233333	1	1.529875
16.250000	1	1.513250
16.266667	1	1.496250
16.283333	1	1.478000
16.300000	1	1.460000
16.316667	1	1.440750
16.333333	1	1.421500
16.350000	1	1.402250
16.366667	1	1.384625
16.383333	1	1.367500
16.400000	1	1.351750
16.416667	1	1.337000
16.433333	1	1.325125
16.450000	1	1.314750
16.466667	1	1.307500
16.483333	1	1.303000
16.500000	1	1.301000
16.516667	1	1.301000
16.533333	1	1.304125
16.550000	1	1.308375
16.566667	1	1.315000
16.583333	1	1.321750
16.600000	1	1.329125
16.616667	1	1.336625
16.633333	1	1.344000
16.650000	1	1.349000
16.666667	1	1.353375
16.683333	1	1.356500
16.700000	1	1.358000
16.716667	1	1.357875
16.733333	1	1.356625
16.750000	1	1.355625
16.766667	1	1.353875
16.783333	1	1.352875
16.800000	1	1.352125
16.816667	1	1.352500
16.833333	1	1.352875
16.850000	1	1.354125
16.866667	1	1.356125
16.883333	1	1.358250
16.900000	1	1.360000
16.916667	1	1.361375
16.933333	1	1.362375
16.950000	1	1.362625
16.966667	1	1.362125
16.983333	1	1.359500
17.000000	1	1.355375
17.016667	1	1.350625
17.033333	1	1.344375
17.050000	1	1.337125
17.066667	1	1.329750
17.083333	1	1.322375
17.100000	1	1.315000
17.116667	1	1.308375
17.133333	1	1.301500
17.150000	1	1.296000
17.166667	1	1.291125
17.183333	1	1.288000
17.200000	1	1.285750
17.216667	1	1.284375
17.233333	1	1.283250
17.250000	1	1.283125
17.266667	1	1.284250
17.283333	1	1.286375
17.300000	1	1.288625
17.316667	1	1.290625
17.333333	1	1.293500
17.350000	1	1.296750
17.366667	1	1.301125
17.383333	1	1.304125
17.400000	1	1.307500
17.416667	1	1.310875
17.433333	1	1.313875
17.450000	1	1.316125
17.466667	1	1.316750
17.483333	1	1.316625
17.500000	1	1.314375
17.516667	1	1.310875
17.533333	1	1.306125
17.550000	1	1.299125
17.566667	1	1.290875
17.583333	1	1.280750
17.600000	1	1.269125
17.616667	1	1.256375
17.633333	1	1.242000
17.650000	1	1.227500
17.666667	1	1.211625
17.683333	1	1.195000
17.700000	1	1.178625
17.716667	1	1.161625
17.733333	1	1.145250
17.750000	1	1.129375
17.766667	1	1.113625
17.783333	1	1.099250
17.800000	1	1.085125
17.816667	1	1.071750
17.833333	1	1.059125
17.850000	1	1.046250
17.866667	1	1.034250
17.883333	1	1.023125
17.900000	1	1.012875
17.916667	1	1.002625
17.933333	1	0.993625
17.950000	1	0.984500
17.966667	1	0.975750
17.983333	1	0.967875
18.000000	1	0.960375
18.016667	1	0.953625
18.033333	1	0.946625
18.050000	1	0.938875
18.066667	1	0.932125
18.083333	1	0.925375
18.100000	1	0.918750
18.116667	1	0.913000
18.133333	1	0.907125
18.150000	1	0.901375
18.166667	1	0.895875
18.183333	1	0.892125
18.200000	1	0.889000
18.216667	1	0.886500
18.233333	1	0.884000
18.250000	1	0.883000
18.266667	1	0.882000
18.283333	1	0.882000
18.300000	1	0.881875
18.316667	1	0.882750
18.333333	1	0.883250
18.350000	1	0.884500
18.366667	1	0.886125
18.383333	1	0.887625
18.400000	1	0.890000
18.416667	1	0.892375
18.433333	1	0.895000
18.450000	1	0.897875
18.466667	1	0.901500
18.483333	1	0.906625
18.500000	1	0.913000
18.516667	1	0.920875
18.533333	1	0.930500
18.550000	1	0.942125
18.566667	1	0.956000
18.583333	1	0.971500
18.600000	1	0.989125
18.616667	1	1.008375
18.633333	1	1.030000
18.650000	1	1.053250
18.666667	1	1.079125
18.683333	1	1.107125
18.700000	1	1.137500
18.716667	1	1.169625
18.733333	1	1.202250
18.750000	1	1.236250
18.766667	1	1.271875
18.783333	1	1.308250
18.800000	1	1.344750
18.816667	1	1.380875
18.833333	1	1.416500
18.850000	1	1.450125
18.866667	1	1.480750
18.883333	1	1.508125
18.900000	1	1.532000
18.916667	1	1.550875
18.933333	1	1.564250
18.950000	1	1.570875
18.966667	1	1.570875
18.983333	1	1.563375
19.000000	1	1.549375
19.016667	1	1.527750
19.033333	1	1.500000
19.050000	1	1.466625
19.066667	1	1.428000
19.083333	1	1.385875
19.100000	1	1.341750
19.116667	1	1.297125
19.133333	1	1.253375
19.150000	1	1.212875
19.166667	1	1.176000
19.183333	1	1.145875
19.200000	1	1.123875
19.216667	1	1.112125
19.233333	1	1.112750
19.250000	1	1.128000
19.266667	1	1.160500
19.283333	1	1.211125
19.300000	1	1.282500
19.316667	1	1.376000
19.333333	1	1.493500
19.350000	1	1.635500
19.366667	1	1.802125
19.383333	1	1.993875
19.400000	1	2.208500
19.416667	1	2.443000
19.433333	1	2.693375
19.450000	1	2.953000
19.466667	1	3.217250
19.483333	1	3.478375
19.500000	1	3.728125
19.516667	1	3.958500
19.533333	1	4.162250
19.550000	1	4.332500
19.566667	1	4.464500
19.583333	1	4.552125
19.600000	1	4.593125
19.616667	1	4.586750
19.633333	1	4.533875
19.650000	1	4.437375
19.666667	1	4.301125
19.683333	1	4.132375
19.700000	1	3.935875
19.716667	1	3.718625
19.733333	1	3.487750
19.750000	1	3.249375
19.766667	1	3.009125
19.783333	1	2.772250
19.800000	1	2.542750
19.816667	1	2.324500
19.833333	1	2.120125
19.850000	1	1.930500
19.866667	1	1.756500
19.883333	1	1.598375
19.900000	1	1.456000
19.916667	1	1.329500
19.933333	1	1.217750
19.950000	1	1.119750
19.966667	1	1.033625
19.983333	1	0.959125
20.000000	1	0.894500
20.016667	1	0.839625
20.033333	1	0.793250
20.050000	1	0.754750
20.066667	1	0.723375
20.083333	1	0.699375
20.100000	1	0.681000
20.116667	1	0.668500
20.133333	1	0.661125
20.150000	1	0.658375
20.166667	1	0.660250
20.183333	1	0.665000
20.200000	1	0.673375
20.216667	1	0.684000
20.233333	1	0.696750
20.250000	1	0.710500
20.266667	1	0.724375
20.283333	1	0.738125
20.300000	1	0.750375
20.316667	1	0.760250
20.333333	1	0.767875
20.350000	1	0.773500
20.366667	1	0.775625
20.383333	1	0.774000
20.400000	1	0.769000
20.416667	1	0.761000
20.433333	1	0.750500
20.450000	1	0.737875
20.466667	1	0.723500
20.483333	1	0.708875
20.500000	1	0.694500
20.516667	1	0.682375
20.533333	1	0.672875
20.550000	1	0.666375
20.566667	1	0.664375
20.583333	1	0.667750
20.600000	1	0.677500
20.616667	1	0.693875
20.633333	1	0.717750
20.650000	1	0.750250
20.666667	1	0.791625
20.683333	1	0.842125
20.700000	1	0.901625
20.716667	1	0.968000
20.733333	1	1.041875
20.750000	1	1.121125
20.766667	1	1.205500
20.783333	1	1.291625
20.800000	1	1.377500
20.816667	1	1.460625
20.833333	1	1.538500
20.850000	1	1.606875
20.866667	1	1.666000
20.883333	1	1.713125
20.900000	1	1.745750
20.916667	1	1.763250
20.933333	1	1.766375
20.950000	1	1.753875
20.966667	1	1.727000
20.983333	1	1.686500
21.000000	1	1.633875
21.016667	1	1.572750
21.033333	1	1.503375
21.050000	1	1.429000
21.066667	1	1.351875
21.083333	1	1.274000
21.100000	1	1.197125
21.116667	1	1.122375
21.133333	1	1.050500
21.150000	1	0.983250
21.166667	1	0.921375
21.183333	1	0.864125
21.200000	1	0.812000
21.216667	1	0.764875
21.233333	1	0.722750
21.250000	1	0.685250
21.266667	1	0.653250
21.283333	1	0.624875
21.300000	1	0.599250
21.316667	1	0.577500
21.333333	1	0.558750
21.350000	1	0.543000
21.366667	1	0.528750
21.383333	1	0.516375
21.400000	1	0.505750
21.416667	1	0.496000
21.433333	1	0.486875
21.450000	1	0.479875
21.466667	1	0.473125
21.483333	1	0.467375
21.500000	1	0.462375
21.516667	1	0.458500
21.533333	1	0.454875
21.550000	1	0.452625
21.566667	1	0.451500
21.583333	1	0.451125
21.600000	1	0.450750
21.616667	1	0.451500
21.633333	1	0.453375
21.650000	1	0.456750
21.666667	1	0.460500
21.683333	1	0.466000
21.700000	1	0.473000
21.716667	1	0.481875
21.733333	1	0.491750
21.750000	1	0.504250
21.766667	1	0.517000
21.783333	1	0.531500
21.800000	1	0.546625
21.816667	1	0.563375
21.833333	1	0.581000
21.850000	1	0.598875
21.866667	1	0.616875
21.883333	1	0.635500
21.900000	1	0.653625
21.916667	1	0.671250
21.933333	1	0.688375
21.950000	1	0.704250
21.966667	1	0.719000
21.983333	1	0.732250
22.000000	1	0.744750
22.016667	1	0.755250
22.033333	1	0.763000
22.050000	1	0.769625
22.066667	1	0.773625
22.083333	1	0.776125
22.100000	1	0.776500
22.116667	1	0.775500
22.133333	1	0.771875
22.150000	1	0.767500
22.166667	1	0.761125
22.183333	1	0.752750
22.200000	1	0.742875
22.216667	1	0.733000
22.233333	1	0.721375
22.250000	1	0.709750
22.266667	1	0.695750
22.283333	1	0.681500
22.300000	1	0.666625
22.316667	1	0.650000
22.333333	1	0.633750
22.350000	1	0.617875
22.366667	1	0.600625
22.383333	1	0.584000
22.400000	1	0.567000
22.416667	1	0.551000
22.433333	1	0.535375
22.450000	1	0.520375
22.466667	1	0.505875
22.483333	1	0.491125
22.500000	1	0.477375
22.516667	1	0.464375
22.533333	1	0.452500
22.550000	1	0.441625
22.566667	1	0.431000
22.583333	1	0.420875
22.600000	1	0.411625
22.616667	1	0.403875
22.633333	1	0.395250
22.650000	1	0.386875
22.666667	1	0.379875
22.683333	1	0.373250
22.700000	1	0.366625
22.716667	1	0.360125
22.733333	1	0.354125
22.750000	1	0.348500
22.766667	1	0.343125
22.783333	1	0.337625
22.800000	1	0.332375
22.816667	1	0.327375
22.833333	1	0.322875
22.850000	1	0.318625
22.866667	1	0.314500
22.883333	1	0.310875
22.900000	1	0.307750
22.916667	1	0.305250
22.933333	1	0.303250
22.950000	1	0.301875
22.966667	1	0.300625
22.983333	1	0.300250
23.000000	1	0.300500
23.016667	1	0.300625
23.033333	1	0.301375
23.050000	1	0.303500
23.066667	1	0.305250
23.083333	1	0.308250
23.100000	1	0.311375
23.116667	1	0.315000
23.133333	1	0.318125
23.150000	1	0.322625
23.166667	1	0.327000
23.183333	1	0.331000
23.200000	1	0.334625
23.216667	1	0.338750
23.233333	1	0.342875
23.250000	1	0.347500
23.266667	1	0.353125
23.283333	1	0.358875
23.300000	1	0.365125
23.316667	1	0.373000
23.333333	1	0.382375
23.350000	1	0.393875
23.366667	1	0.407000
23.383333	1	0.424250
23.400000	1	0.446875
23.416667	1	0.474250
23.433333	1	0.508500
23.450000	1	0.550500
23.466667	1	0.602000
23.483333	1	0.663500
23.500000	1	0.737625
23.516667	1	0.825875
23.533333	1	0.930250
23.550000	1	1.051125
23.566667	1	1.191500
23.583333	1	1.351000
23.600000	1	1.530625
23.616667	1	1.731625
23.633333	1	1.953375
23.650000	1	2.194125
23.666667	1	2.452250
23.683333	1	2.726250
23.700000	1	3.012750
23.716667	1	3.307625
23.733333	1	3.604625
23.750000	1	3.900000
23.766667	1	4.186625
23.783333	1	4.458500
23.800000	1	4.708875
23.816667	1	4.932500
23.833333	1	5.125500
23.850000	1	5.281125
23.866667	1	5.396625
23.883333	1	5.470375
23.900000	1	5.500000
23.916667	1	5.487250
23.933333	1	5.430375
23.950000	1	5.333250
23.966667	1	5.199000
23.983333	1	5.031000
24.000000	1	4.835250
24.016667	1	4.617000
24.033333	1	4.381125
24.050000	1	4.133125
24.066667	1	3.877625
24.083333	1	3.619875
24.100000	1	3.362750
24.116667	1	3.110500
24.133333	1	2.866250
24.150000	1	2.631875
24.166667	1	2.410375
24.183333	1	2.202375
24.200000	1	2.009000
24.216667	1	1.830750
24.233333	1	1.667500
24.250000	1	1.519375
24.266667	1	1.385125
24.283333	1	1.264125
24.300000	1	1.155375
24.316667	1	1.057500
24.333333	1	0.971125
24.350000	1	0.896125
24.366667	1	0.830125
24.383333	1	0.772250
24.400000	1	0.722125
24.416667	1	0.679375
24.433333	1	0.642125
24.450000	1	0.611500
24.466667	1	0.585000
24.483333	1	0.563125
24.500000	1	0.544750
24.516667	1	0.529500
24.533333	1	0.516375
24.550000	1	0.505500
24.566667	1	0.496000
24.583333	1	0.488000
24.600000	1	0.480500
24.616667	1	0.474375
24.633333	1	0.468125
24.650000	1	0.462875
24.666667	1	0.458250
24.683333	1	0.453750
24.700000	1	0.448625
24.716667	1	0.443750
24.733333	1	0.439125
24.750000	1	0.433875
24.766667	1	0.428500
24.783333	1	0.422375
24.800000	1	0.417250
24.816667	1	0.411625
24.833333	1	0.406375
24.850000	1	0.401000
24.866667	1	0.396125
24.883333	1	0.391250
24.900000	1	0.386750
24.916667	1	0.382625
24.933333	1	0.377750
24.950000	1	0.373500
24.966667	1	0.370375
24.983333	1	0.367125
25.000000	1	0.363875
25.016667	1	0.360125
25.033333	1	0.357500
25.050000	1	0.354000
25.066667	1	0.351500
25.083333	1	0.348875
25.100000	1	0.346125
25.116667	1	0.343500
25.133333	1	0.340375
25.150000	1	0.337375
25.166667	1	0.334125
25.183333	1	0.331000
25.200000	1	0.327750
25.216667	1	0.325125
25.233333	1	0.322125
25.250000	1	0.319250
25.266667	1	0.316000
25.283333	1	0.312750
25.300000	1	0.310000
25.316667	1	0.307250
25.333333	1	0.303500
25.350000	1	0.300625
25.366667	1	0.297750
25.383333	1	0.294875
25.400000	1	0.292750
25.416667	1	0.289875
25.433333	1	0.287500
25.450000	1	0.285625
25.466667	1	0.284125
25.483333	1	0.283750
25.500000	1	0.283125
25.516667	1	0.282750
25.533333	1	0.282000
25.550000	1	0.281750
25.566667	1	0.281250
25.583333	1	0.280625
25.600000	1	0.280750
25.616667	1	0.281125
25.633333	1	0.281500
25.650000	1	0.281750
25.666667	1	0.281875
25.683333	1	0.282500
25.700000	1	0.281625
25.716667	1	0.282250
25.733333	1	0.283000
25.750000	1	0.283625
25.766667	1	0.283875
25.783333	1	0.284125
25.800000	1	0.284875
25.816667	1	0.286000
25.833333	1	0.287375
25.850000	1	0.288250
25.866667	1	0.289625
25.883333	1	0.291375
25.900000	1	0.292625
25.916667	1	0.294375
25.933333	1	0.296875
25.950000	1	0.299125
25.966667	1	0.302500
25.983333	1	0.306000
26.000000	1	0.308625
26.016667	1	0.312000
26.033333	1	0.316125
26.050000	1	0.320500
26.066667	1	0.324250
26.083333	1	0.328375
26.100000	1	0.332250
26.116667	1	0.336875
26.133333	1	0.342000
26.150000	1	0.345625
26.166667	1	0.350000
26.183333	1	0.353875
26.200000	1	0.357375
26.216667	1	0.360875
26.233333	1	0.364000
26.250000	1	0.366875
26.266667	1	0.369375
26.283333	1	0.371750
26.300000	1	0.373125
26.316667	1	0.373750
26.333333	1	0.373375
26.350000	1	0.373375
26.366667	1	0.372250
26.383333	1	0.370000
26.400000	1	0.368125
26.416667	1	0.365750
26.433333	1	0.362750
26.450000	1	0.359125
26.466667	1	0.354875
26.483333	1	0.351250
26.500000	1	0.346875
26.516667	1	0.341750
26.533333	1	0.335750
26.550000	1	0.330000
26.566667	1	0.324000
26.583333	1	0.318125
26.600000	1	0.311625
26.616667	1	0.306750
26.633333	1	0.301250
26.650000	1	0.296125
26.666667	1	0.290750
26.683333	1	0.285125
26.700000	1	0.280000
26.716667	1	0.275125
26.733333	1	0.270250
26.750000	1	0.266125
26.766667	1	0.261000
26.783333	1	0.256750
26.800000	1	0.253500
26.816667	1	0.250125
26.833333	1	0.246625
26.850000	1	0.244125
26.866667	1	0.241500
26.883333	1	0.238875
26.900000	1	0.237500
26.916667	1	0.235375
26.933333	1	0.233750
26.950000	1	0.232875
26.966667	1	0.232500
26.983333	1	0.232375
27.000000	1	0.233625
27.016667	1	0.234250
27.033333	1	0.235500
27.050000	1	0.238250
27.066667	1	0.241250
27.083333	1	0.245125
27.100000	1	0.248875
27.116667	1	0.254000
27.133333	1	0.260625
27.150000	1	0.267875
27.166667	1	0.276625
27.183333	1	0.287500
27.200000	1	0.299625
27.216667	1	0.313750
27.233333	1	0.330375
27.250000	1	0.349750
27.266667	1	0.371375
27.283333	1	0.397000
27.300000	1	0.427250
27.316667	1	0.461000
27.333333	1	0.500625
27.350000	1	0.546125
27.366667	1	0.598750
27.383333	1	0.658750
27.400000	1	0.726000
27.416667	1	0.803500
27.433333	1	0.890000
27.450000	1	0.987125
27.466667	1	1.095375
27.483333	1	1.216500
27.500000	1	1.349500
27.516667	1	1.494875
27.533333	1	1.652625
27.550000	1	1.821875
27.566667	1	2.003500
27.583333	1	2.196250
27.600000	1	2.398125
27.616667	1	2.608250
27.633333	1	2.824500
27.650000	1	3.045000
27.666667	1	3.267500
27.683333	1	3.488875
27.700000	1	3.706375
27.716667	1	3.916375
27.733333	1	4.115750
27.750000	1	4.301000
27.766667	1	4.469500
27.783333	1	4.616250
27.800000	1	4.740125
27.816667	1	4.838500
27.833333	1	4.909875
27.850000	1	4.951625
27.866667	1	4.964125
27.883333	1	4.946625
27.900000	1	4.898875
27.916667	1	4.821625
27.933333	1	4.717250
27.950000	1	4.588000
27.966667	1	4.435625
27.983333	1	4.264250
28.000000	1	4.076500
28.016667	1	3.875500
28.033333	1	3.665125
28.050000	1	3.448125
28.066667	1	3.227625
28.083333	1	3.007250
28.100000	1	2.790250
28.116667	1	2.578250
28.133333	1	2.373375
28.150000	1	2.177125
28.166667	1	1.992000
28.183333	1	1.818875
28.200000	1	1.657375
28.216667	1	1.507625
28.233333	1	1.370750
28.250000	1	1.245500
28.266667	1	1.132000
28.283333	1	1.030250
28.300000	1	0.939000
28.316667	1	0.857875
28.333333	1	0.786625
28.350000	1	0.723875
28.366667	1	0.670000
28.383333	1	0.623500
28.400000	1	0.583875
28.416667	1	0.550500
28.433333	1	0.523625
28.450000	1	0.502000
28.466667	1	0.484250
28.483333	1	0.470750
28.500000	1	0.460875
28.516667	1	0.454625
28.533333	1	0.452125
28.550000	1	0.451375
28.566667	1	0.452875
28.583333	1	0.456750
28.600000	1	0.462625
28.616667	1	0.469000
28.633333	1	0.476750
28.650000	1	0.485500
28.666667	1	0.494625
28.683333	1	0.503375
28.700000	1	0.512750
28.716667	1	0.521625
28.733333	1	0.530125
28.750000	1	0.539375
28.766667	1	0.547375
28.783333	1	0.555125
28.800000	1	0.562000
28.816667	1	0.567250
28.833333	1	0.571375
28.850000	1	0.576125
28.866667	1	0.578500
28.883333	1	0.579250
28.900000	1	0.579500
28.916667	1	0.578625
28.933333	1	0.576500
28.950000	1	0.572875
28.966667	1	0.568125
28.983333	1	0.562125
29.000000	1	0.555625
29.016667	1	0.546875
29.033333	1	0.537625
29.050000	1	0.527250
29.066667	1	0.516000
29.083333	1	0.505000
29.100000	1	0.492000
29.116667	1	0.479000
29.133333	1	0.465500
29.150000	1	0.451500
29.166667	1	0.437875
29.183333	1	0.424125
29.200000	1	0.409625
29.216667	1	0.394500
29.233333	1	0.379875
29.250000	1	0.364875
29.266667	1	0.350750
29.283333	1	0.337125
29.300000	1	0.323625
29.316667	1	0.310625
29.333333	1	0.297750
29.350000	1	0.285500
29.366667	1	0.273625
29.383333	1	0.262500
29.400000	1	0.252375
29.416667	1	0.242750
29.433333	1	0.233500
29.450000	1	0.224500
29.466667	1	0.216375
29.483333	1	0.208375
29.500000	1	0.201250
29.516667	1	0.194250
29.533333	1	0.187125
29.550000	1	0.181750
29.566667	1	0.175750
29.583333	1	0.171000
29.600000	1	0.165750
29.616667	1	0.161500
29.633333	1	0.157500
29.650000	1	0.153500
29.666667	1	0.150250
29.683333	1	0.146375
29.700000	1	0.143500
29.716667	1	0.140875
29.733333	1	0.138500
29.750000	1	0.135875
29.766667	1	0.133625
29.783333	1	0.131750
29.800000	1	0.129625
29.816667	1	0.127750
29.833333	1	0.126250
29.850000	1	0.124375
29.866667	1	0.123500
29.883333	1	0.121875
29.900000	1	0.120375
29.916667	1	0.119375
29.933333	1	0.118500
29.950000	1	0.117750
29.966667	1	0.117000
29.983333	1	0.116750
30.000000	1	0.116500
30.016667	1	0.116750
30.033333	1	0.116500
30.050000	1	0.117375
30.066667	1	0.118750
30.083333	1	0.119500
30.100000	1	0.120875
30.116667	1	0.122375
30.133333	1	0.123750
30.150000	1	0.125500
30.166667	1	0.127000
30.183333	1	0.128875
30.200000	1	0.131250
30.216667	1	0.133375
30.233333	1	0.135250
30.250000	1	0.137625
30.266667	1	0.139750
30.283333	1	0.142250
30.300000	1	0.145000
30.316667	1	0.147500
30.333333	1	0.151125
30.350000	1	0.154125
30.366667	1	0.157375
30.383333	1	0.160250
30.400000	1	0.163625
30.416667	1	0.167375
30.433333	1	0.170750
30.450000	1	0.174500
30.466667	1	0.177625
30.483333	1	0.181250
30.500000	1	0.185375
30.516667	1	0.188500
30.533333	1	0.192875
30.550000	1	0.197250
30.566667	1	0.201750
30.583333	1	0.207250
30.600000	1	0.213000
30.616667	1	0.218500
30.633333	1	0.223625
30.650000	1	0.229500
30.666667	1	0.236250
30.683333	1	0.243250
30.700000	1	0.250750
30.716667	1	0.258625
30.733333	1	0.266750
30.750000	1	0.275125
30.766667	1	0.284250
30.783333	1	0.293625
30.800000	1	0.303500
30.816667	1	0.314375
30.833333	1	0.325500
30.850000	1	0.337500
30.866667	1	0.349250
30.883333	1	0.363375
30.900000	1	0.377625
30.916667	1	0.393250
30.933333	1	0.410000
30.950000	1	0.428750
30.966667	1	0.449500
30.983333	1	0.472625
31.000000	1	0.498375
31.016667	1	0.527125
31.033333	1	0.559000
31.050000	1	0.593875
31.066667	1	0.633625
31.083333	1	0.677375
31.100000	1	0.726375
31.116667	1	0.779625
31.133333	1	0.838625
31.150000	1	0.903250
31.166667	1	0.973625
31.183333	1	1.050875
31.200000	1	1.134250
31.216667	1	1.223750
31.233333	1	1.319750
31.250000	1	1.420375
31.266667	1	1.526500
31.283333	1	1.637625
31.300000	1	1.753000
31.316667	1	1.871125
31.333333	1	1.991125
31.350000	1	2.112125
31.366667	1	2.232250
31.383333	1	2.351375
31.400000	1	2.467000
31.416667	1	2.579875
31.433333	1	2.685375
31.450000	1	2.783875
31.466667	1	2.873500
31.483333	1	2.953500
31.500000	1	3.022625
31.516667	1	3.077875
31.533333	1	3.120750
31.550000	1	3.150375
31.566667	1	3.166250
31.583333	1	3.168500
31.600000	1	3.156750
31.616667	1	3.131500
31.633333	1	3.092750
31.650000	1	3.041000
31.666667	1	2.977875
31.683333	1	2.904125
31.700000	1	2.821000
31.716667	1	2.729875
31.733333	1	2.632000
31.750000	1	2.528750
31.766667	1	2.420500
31.783333	1	2.308875
31.800000	1	2.195500
31.816667	1	2.081125
31.833333	1	1.967000
31.850000	1	1.853500
31.866667	1	1.742625
31.883333	1	1.634875
31.900000	1	1.530125
31.916667	1	1.430125
31.933333	1	1.334625
31.950000	1	1.243500
31.966667	1	1.157125
31.983333	1	1.076250
32.000000	1	1.000625
32.016667	1	0.929000
32.033333	1	0.863000
32.050000	1	0.801625
32.066667	1	0.744875
32.083333	1	0.692375
32.100000	1	0.643750
32.116667	1	0.598875
32.133333	1	0.558375
32.150000	1	0.520500
32.166667	1	0.485750
32.183333	1	0.453875
32.200000	1	0.424625
32.216667	1	0.397500
32.233333	1	0.372750
32.250000	1	0.349500
32.266667	1	0.328500
32.283333	1	0.308250
32.300000	1	0.289750
32.316667	1	0.272625
32.333333	1	0.257000
32.350000	1	0.242625
32.366667	1	0.229125
32.383333	1	0.216875
32.400000	1	0.204875
32.416667	1	0.193875
32.433333	1	0.183625
32.450000	1	0.173250
32.466667	1	0.163750
32.483333	1	0.155500
32.500000	1	0.147125
32.516667	1	0.139000
32.533333	1	0.132125
32.550000	1	0.125625
32.566667	1	0.119500
32.583333	1	0.113375
32.600000	1	0.107875
32.616667	1	0.102875
32.633333	1	0.098375
32.650000	1	0.093125
32.666667	1	0.088625
32.683333	1	0.084875
32.700000	1	0.081125
32.716667	1	0.078250
32.733333	1	0.075250
32.750000	1	0.072000
32.766667	1	0.068875
32.783333	1	0.065625
32.800000	1	0.062750
32.816667	1	0.060875
32.833333	1	0.059375
32.850000	1	0.057250
32.866667	1	0.056125
32.883333	1	0.054625
32.900000	1	0.053250
32.916667	1	0.052500
32.933333	1	0.051625
32.950000	1	0.050500
32.966667	1	0.050750
32.983333	1	0.050625
33.000000	1	0.050000
33.016667	1	0.049750
33.033333	1	0.050000
33.050000	1	0.049875
33.066667	1	0.049875
33.083333	1	0.050375
33.100000	1	0.050625
33.116667	1	0.050500
33.133333	1	0.050750
33.150000	1	0.051375
33.166667	1	0.051750
33.183333	1	0.052500
33.200000	1	0.053250
33.216667	1	0.053000
33.233333	1	0.053375
33.250000	1	0.054250
33.266667	1	0.054875
33.283333	1	0.055625
33.300000	1	0.055500
33.316667	1	0.056375
33.333333	1	0.057250
33.350000	1	0.058250
33.366667	1	0.058875
33.383333	1	0.060000
33.400000	1	0.060875
33.416667	1	0.062125
33.433333	1	0.063500
33.450000	1	0.064750
33.466667	1	0.066125
33.483333	1	0.067750
33.500000	1	0.068875
33.516667	1	0.070500
33.533333	1	0.072000
33.550000	1	0.073875
33.566667	1	0.075375
33.583333	1	0.077500
33.600000	1	0.079250
33.616667	1	0.081500
33.633333	1	0.083000
33.650000	1	0.085125
33.666667	1	0.086875
33.683333	1	0.089875
33.700000	1	0.092375
33.716667	1	0.094125
33.733333	1	0.096125
33.750000	1	0.099000
33.766667	1	0.101250
33.783333	1	0.103500
33.800000	1	0.104125
33.816667	1	0.105625
33.833333	1	0.107750
33.850000	1	0.110125
33.866667	1	0.112375
33.883333	1	0.113125
33.900000	1	0.115000
33.916667	1	0.116375
33.933333	1	0.117250
33.950000	1	0.119250
33.966667	1	0.120250
33.983333	1	0.120625
34.000000	1	0.121250
34.016667	1	0.122125
34.033333	1	0.122250
34.050000	1	0.122375
34.066667	1	0.122000
34.083333	1	0.122000
34.100000	1	0.122125
34.116667	1	0.122375
34.133333	1	0.121750
34.150000	1	0.121000
34.166667	1	0.120875
34.183333	1	0.119875
34.200000	1	0.119625
34.216667	1	0.120250
34.233333	1	0.120000
34.250000	1	0.119625
34.266667	1	0.119750
34.283333	1	0.120625
34.300000	1	0.120875
34.316667	1	0.121875
34.333333	1	0.121500
34.350000	1	0.122250
34.366667	1	0.123250
34.383333	1	0.124125
34.400000	1	0.125500
34.416667	1	0.126750
34.433333	1	0.128375
34.450000	1	0.130000
34.466667	1	0.131500
34.483333	1	0.133250
34.500000	1	0.135125
34.516667	1	0.136875
34.533333	1	0.138125
34.550000	1	0.140500
34.566667	1	0.142875
34.583333	1	0.144625
34.600000	1	0.146375
34.616667	1	0.147750
34.633333	1	0.148875
34.650000	1	0.150625
34.666667	1	0.151875
34.683333	1	0.153125
34.700000	1	0.153625
34.716667	1	0.153875
34.733333	1	0.154000
34.750000	1	0.153750
34.766667	1	0.154500
34.783333	1	0.154000
34.800000	1	0.153500
34.816667	1	0.152125
34.833333	1	0.150625
34.850000	1	0.149000
34.866667	1	0.147750
34.883333	1	0.146500
34.900000	1	0.144500
34.916667	1	0.142875
34.933333	1	0.140500
34.950000	1	0.138500
34.966667	1	0.136625
34.983333	1	0.133625
35.000000	1	0.130250
35.016667	1	0.127625
35.033333	1	0.125500
35.050000	1	0.122625
35.066667	1	0.120000
35.083333	1	0.117750
35.100000	1	0.116000
35.116667	1	0.113875
35.133333	1	0.112000
35.150000	1	0.110750
35.166667	1	0.109375
35.183333	1	0.108000
35.200000	1	0.106875
35.216667	1	0.106250
35.233333	1	0.105500
35.250000	1	0.104125
35.266667	1	0.103000
35.283333	1	0.103000
35.300000	1	0.103125
35.316667	1	0.103375
35.333333	1	0.103375
35.350000	1	0.104000
35.366667	1	0.104375
35.383333	1	0.105250
35.400000	1	0.106250
35.416667	1	0.106875
35.433333	1	0.107625
35.450000	1	0.108625
35.466667	1	0.109000
35.483333	1	0.110250
35.500000	1	0.111250
35.516667	1	0.112500
35.533333	1	0.113625
35.550000	1	0.114500
35.566667	1	0.115625
35.583333	1	0.116500
35.600000	1	0.117000
35.616667	1	0.117625
35.633333	1	0.118500
35.650000	1	0.119375
35.666667	1	0.120375
35.683333	1	0.121375
35.700000	1	0.121875
35.716667	1	0.122250
35.733333	1	0.123250
35.750000	1	0.123125
35.766667	1	0.124000
35.783333	1	0.124625
35.800000	1	0.125375
35.816667	1	0.125375
35.833333	1	0.124875
35.850000	1	0.125250
35.866667	1	0.125375
35.883333	1	0.125375
35.900000	1	0.125750
35.916667	1	0.125500
35.933333	1	0.125500
35.950000	1	0.125375
35.966667	1	0.125000
35.983333	1	0.123500
36.000000	1	0.123750
36.016667	1	0.122750
36.033333	1	0.122500
36.050000	1	0.121750
36.066667	1	0.121625
36.083333	1	0.121125
36.100000	1	0.120250
36.116667	1	0.119375
36.133333	1	0.119125
36.150000	1	0.118750
36.166667	1	0.118500
36.183333	1	0.118625
36.200000	1	0.118500
36.216667	1	0.118625
36.233333	1	0.118750
36.250000	1	0.118250
36.266667	1	0.118250
36.283333	1	0.118375
36.300000	1	0.118500
36.316667	1	0.117875
36.333333	1	0.118125
36.350000	1	0.119000
36.366667	1	0.119750
36.383333	1	0.119375
36.400000	1	0.119375
36.416667	1	0.118500
36.433333	1	0.119000
36.450000	1	0.118750
36.466667	1	0.118875
36.483333	1	0.118500
36.500000	1	0.119000
36.516667	1	0.118625
36.533333	1	0.118500
36.550000	1	0.117500
36.566667	1	0.116500
36.583333	1	0.115750
36.600000	1	0.114375
36.616667	1	0.113375
36.633333	1	0.112125
36.650000	1	0.110375
36.666667	1	0.108875
36.683333	1	0.107125
36.700000	1	0.104875
36.716667	1	0.102250
36.733333	1	0.099500
36.750000	1	0.097500
36.766667	1	0.094625
36.783333	1	0.092250
36.800000	1	0.089625
36.816667	1	0.086625
36.833333	1	0.084625
36.850000	1	0.081750
36.866667	1	0.078875
36.883333	1	0.076875
36.900000	1	0.074375
36.916667	1	0.072000
36.933333	1	0.069750
36.950000	1	0.068125
36.966667	1	0.066125
36.983333	1	0.064250
37.000000	1	0.062500
37.016667	1	0.061125
37.033333	1	0.059625
37.050000	1	0.058000
37.066667	1	0.056375
37.083333	1	0.055250
37.100000	1	0.054750
37.116667	1	0.054375
37.133333	1	0.053375
37.150000	1	0.053125
37.166667	1	0.052875
37.183333	1	0.052750
37.200000	1	0.052500
37.216667	1	0.052125
37.233333	1	0.052125
37.250000	1	0.053125
37.266667	1	0.053625
37.283333	1	0.054125
37.300000	1	0.054125
37.316667	1	0.054125
37.333333	1	0.054500
37.350000	1	0.055125
37.366667	1	0.055875
37.383333	1	0.056625
37.400000	1	0.056625
37.416667	1	0.056875
37.433333	1	0.057375
37.450000	1	0.057250
37.466667	1	0.057750
37.483333	1	0.058000
37.500000	1	0.058875
37.516667	1	0.060125
37.533333	1	0.060250
37.550000	1	0.061000
37.566667	1	0.062125
37.583333	1	0.062500
37.600000	1	0.062000
37.616667	1	0.062500
37.633333	1	0.062375
37.650000	1	0.062875
37.666667	1	0.063750
37.683333	1	0.064500
37.700000	1	0.064750
37.716667	1	0.064625
37.733333	1	0.064375
37.750000	1	0.064750
37.766667	1	0.064875
37.783333	1	0.064750
37.800000	1	0.064625
37.816667	1	0.064000
37.833333	1	0.063500
37.850000	1	0.063250
37.866667	1	0.062875
37.883333	1	0.062375
37.900000	1	0.061625
37.916667	1	0.061500
37.933333	1	0.060625
37.950000	1	0.060000
37.966667	1	0.059625
37.983333	1	0.059375
38.000000	1	0.058875
38.016667	1	0.057875
38.033333	1	0.057625
38.050000	1	0.057375
38.066667	1	0.056750
38.083333	1	0.056875
38.100000	1	0.057125
38.116667	1	0.056625
38.133333	1	0.056250
38.150000	1	0.056250
38.166667	1	0.055875
38.183333	1	0.055250
38.200000	1	0.055375
38.216667	1	0.055625
38.233333	1	0.055500
38.250000	1	0.055000
38.266667	1	0.055125
38.283333	1	0.055375
38.300000	1	0.055750
38.316667	1	0.055875
38.333333	1	0.056125
38.350000	1	0.056500
38.366667	1	0.056250
38.383333	1	0.057000
38.400000	1	0.057125
38.416667	1	0.057125
38.433333	1	0.057625
38.450000	1	0.058125
38.466667	1	0.059000
38.483333	1	0.059375
38.500000	1	0.059875
38.516667	1	0.060375
38.533333	1	0.060250
38.550000	1	0.061125
38.566667	1	0.061750
38.583333	1	0.061375
38.600000	1	0.061625
38.616667	1	0.062250
38.633333	1	0.063375
38.650000	1	0.063875
38.666667	1	0.064250
38.683333	1	0.064500
38.700000	1	0.064625
38.716667	1	0.065375
38.733333	1	0.065625
38.750000	1	0.066500
38.766667	1	0.067125
38.783333	1	0.066875
38.800000	1	0.067500
38.816667	1	0.067750
38.833333	1	0.068375
38.850000	1	0.068625
38.866667	1	0.069000
38.883333	1	0.069375
38.900000	1	0.069375
38.916667	1	0.069500
38.933333	1	0.068750
38.950000	1	0.069000
38.966667	1	0.068750
38.983333	1	0.068125
39.000000	1	0.067875
39.016667	1	0.066625
39.033333	1	0.066000
39.050000	1	0.064875
39.066667	1	0.063500
39.083333	1	0.062125
39.100000	1	0.060625
39.116667	1	0.058875
39.133333	1	0.057625
39.150000	1	0.055625
39.166667	1	0.053750
39.183333	1	0.051375
39.200000	1	0.048750
39.216667	1	0.045875
39.233333	1	0.043625
39.250000	1	0.041750
39.266667	1	0.039375
39.283333	1	0.036625
39.300000	1	0.034125
39.316667	1	0.031750
39.333333	1	0.029500
39.350000	1	0.027250
39.366667	1	0.024375
39.383333	1	0.022375
39.400000	1	0.020125
39.416667	1	0.017375
39.433333	1	0.014875
39.450000	1	0.012125
39.466667	1	0.008875
39.483333	1	0.007250
39.500000	1	0.005375
39.516667	1	0.003000
39.533333	1	0.001125
39.550000	1	-0.000625
39.566667	1	-0.002500
39.583333	1	-0.004375
39.600000	1	-0.006375
39.616667	1	-0.008500
39.633333	1	-0.010000
39.650000	1	-0.011500
39.666667	1	-0.012375
39.683333	1	-0.013875
39.700000	1	-0.014875
39.716667	1	-0.016750
39.733333	1	-0.018000
39.750000	1	-0.018250
39.766667	1	-0.019500
39.783333	1	-0.020875
39.800000	1	-0.021375
39.816667	1	-0.022250
39.833333	1	-0.022875
39.850000	1	-0.023500
39.866667	1	-0.023750
39.883333	1	-0.024125
39.900000	1	-0.024500
39.916667	1	-0.024750
39.933333	1	-0.025250
39.950000	1	-0.025250
39.966667	1	-0.025125
39.983333	1	-0.024625
40.000000	1	-0.024875
