URL	chrom://bioreactor/micro_cm7/HPLC_Ultimate_3000/Users/markusar/20240708_MA_pHrange1.seq/329.smp/RI_1.channel/RI_1.chm
Channel	RI_1

Injection Information:
Data Vault	micro_cm7
Sequence	20240708_MA_pHrange1
Name	Pv3_5.7_2
Number	28
Position	BC4
Comment	
Processing Method	
Instrument Method	run_25B_method
Type	Unknown
Status	Finished
Inject Time	09.07.2024 10:00:44 +02:00
Volume (µl)	20.0000
Dilution Factor	1.0000
Weight	1.0000

Chromatogram Data Information:
Time Min. (min)	0.000000
Time Max. (min)	40.000000
Data Points	2401
Detector	RI
Generating Data System	Chromeleon 7.3.2.11814
Exporting Data System	Chromeleon 7.3.2.0
Operator	Instrument Controller
Signal Quantity	Refractive 
Signal Unit	µRIU
Signal Min.	-0.117250
Signal Max.	83.214750
Channel	RI_1
Driver Name	RID520Driver.dll
Channel Type	Evaluation
Min. Step (s)	1
Max. Step (s)	1
Average Step (s)	1

Signal Parameter Information:
Signal Info	

Chromatogram Data:
Time (min)	Step (s)	Value (µRIU)
0.000000	n.a.	0.007500
0.016667	1	0.006500
0.033333	1	0.005000
0.050000	1	0.004000
0.066667	1	0.003000
0.083333	1	0.002375
0.100000	1	0.000625
0.116667	1	-0.000625
0.133333	1	-0.001625
0.150000	1	-0.003000
0.166667	1	-0.003875
0.183333	1	-0.005625
0.200000	1	-0.006750
0.216667	1	-0.008000
0.233333	1	-0.009875
0.250000	1	-0.011125
0.266667	1	-0.012375
0.283333	1	-0.013000
0.300000	1	-0.014250
0.316667	1	-0.016000
0.333333	1	-0.017375
0.350000	1	-0.019125
0.366667	1	-0.021000
0.383333	1	-0.022750
0.400000	1	-0.025125
0.416667	1	-0.026500
0.433333	1	-0.026250
0.450000	1	-0.025375
0.466667	1	-0.024875
0.483333	1	-0.024875
0.500000	1	-0.025625
0.516667	1	-0.025750
0.533333	1	-0.026125
0.550000	1	-0.027125
0.566667	1	-0.029250
0.583333	1	-0.032250
0.600000	1	-0.035125
0.616667	1	-0.037875
0.633333	1	-0.040625
0.650000	1	-0.041750
0.666667	1	-0.042750
0.683333	1	-0.043375
0.700000	1	-0.043500
0.716667	1	-0.044125
0.733333	1	-0.044250
0.750000	1	-0.044625
0.766667	1	-0.044750
0.783333	1	-0.044375
0.800000	1	-0.044875
0.816667	1	-0.044375
0.833333	1	-0.043625
0.850000	1	-0.043125
0.866667	1	-0.042000
0.883333	1	-0.040375
0.900000	1	-0.039375
0.916667	1	-0.039125
0.933333	1	-0.038250
0.950000	1	-0.036500
0.966667	1	-0.034625
0.983333	1	-0.033375
1.000000	1	-0.031625
1.016667	1	-0.030250
1.033333	1	-0.028250
1.050000	1	-0.026875
1.066667	1	-0.025500
1.083333	1	-0.023625
1.100000	1	-0.021375
1.116667	1	-0.019250
1.133333	1	-0.017000
1.150000	1	-0.014125
1.166667	1	-0.012375
1.183333	1	-0.010875
1.200000	1	-0.008750
1.216667	1	-0.006625
1.233333	1	-0.004500
1.250000	1	-0.002625
1.266667	1	-0.001125
1.283333	1	0.000750
1.300000	1	0.001375
1.316667	1	0.003000
1.333333	1	0.004500
1.350000	1	0.006125
1.366667	1	0.007500
1.383333	1	0.008500
1.400000	1	0.008875
1.416667	1	0.009875
1.433333	1	0.010875
1.450000	1	0.011750
1.466667	1	0.012000
1.483333	1	0.013125
1.500000	1	0.013500
1.516667	1	0.014000
1.533333	1	0.014750
1.550000	1	0.015500
1.566667	1	0.015250
1.583333	1	0.015375
1.600000	1	0.015500
1.616667	1	0.015625
1.633333	1	0.016500
1.650000	1	0.016625
1.666667	1	0.016875
1.683333	1	0.016750
1.700000	1	0.016250
1.716667	1	0.016125
1.733333	1	0.016375
1.750000	1	0.016125
1.766667	1	0.016500
1.783333	1	0.016625
1.800000	1	0.016875
1.816667	1	0.017000
1.833333	1	0.017750
1.850000	1	0.017250
1.866667	1	0.017625
1.883333	1	0.017250
1.900000	1	0.017375
1.916667	1	0.017250
1.933333	1	0.017250
1.950000	1	0.017375
1.966667	1	0.017125
1.983333	1	0.017125
2.000000	1	0.016625
2.016667	1	0.016750
2.033333	1	0.016500
2.050000	1	0.015625
2.066667	1	0.015000
2.083333	1	0.014375
2.100000	1	0.014250
2.116667	1	0.012625
2.133333	1	0.011375
2.150000	1	0.010375
2.166667	1	0.009500
2.183333	1	0.008375
2.200000	1	0.006875
2.216667	1	0.006000
2.233333	1	0.004500
2.250000	1	0.003250
2.266667	1	0.001500
2.283333	1	0.000000
2.300000	1	-0.001625
2.316667	1	-0.003125
2.333333	1	-0.004875
2.350000	1	-0.006625
2.366667	1	-0.007625
2.383333	1	-0.009375
2.400000	1	-0.010875
2.416667	1	-0.012375
2.433333	1	-0.013625
2.450000	1	-0.015875
2.466667	1	-0.016875
2.483333	1	-0.018125
2.500000	1	-0.018625
2.516667	1	-0.018875
2.533333	1	-0.019625
2.550000	1	-0.019375
2.566667	1	-0.020375
2.583333	1	-0.021250
2.600000	1	-0.021750
2.616667	1	-0.021625
2.633333	1	-0.021875
2.650000	1	-0.022125
2.666667	1	-0.022250
2.683333	1	-0.022125
2.700000	1	-0.022375
2.716667	1	-0.021625
2.733333	1	-0.021250
2.750000	1	-0.020375
2.766667	1	-0.019500
2.783333	1	-0.019375
2.800000	1	-0.018625
2.816667	1	-0.017750
2.833333	1	-0.017875
2.850000	1	-0.017000
2.866667	1	-0.016250
2.883333	1	-0.015750
2.900000	1	-0.015125
2.916667	1	-0.013625
2.933333	1	-0.013500
2.950000	1	-0.013125
2.966667	1	-0.013125
2.983333	1	-0.012250
3.000000	1	-0.012750
3.016667	1	-0.012375
3.033333	1	-0.011875
3.050000	1	-0.010625
3.066667	1	-0.010875
3.083333	1	-0.011375
3.100000	1	-0.011250
3.116667	1	-0.010500
3.133333	1	-0.009750
3.150000	1	-0.009250
3.166667	1	-0.009625
3.183333	1	-0.009375
3.200000	1	-0.009000
3.216667	1	-0.008625
3.233333	1	-0.007875
3.250000	1	-0.007000
3.266667	1	-0.006500
3.283333	1	-0.006250
3.300000	1	-0.006500
3.316667	1	-0.006000
3.333333	1	-0.006125
3.350000	1	-0.005750
3.366667	1	-0.005625
3.383333	1	-0.005500
3.400000	1	-0.004375
3.416667	1	-0.003625
3.433333	1	-0.003625
3.450000	1	-0.003125
3.466667	1	-0.003000
3.483333	1	-0.003000
3.500000	1	-0.002750
3.516667	1	-0.002125
3.533333	1	-0.001375
3.550000	1	-0.001125
3.566667	1	-0.000875
3.583333	1	0.000000
3.600000	1	0.000125
3.616667	1	0.000500
3.633333	1	0.001500
3.650000	1	0.001750
3.666667	1	0.002000
3.683333	1	0.002500
3.700000	1	0.003125
3.716667	1	0.003750
3.733333	1	0.004250
3.750000	1	0.005125
3.766667	1	0.005375
3.783333	1	0.006375
3.800000	1	0.006625
3.816667	1	0.007625
3.833333	1	0.008750
3.850000	1	0.010375
3.866667	1	0.011250
3.883333	1	0.012125
3.900000	1	0.013125
3.916667	1	0.014500
3.933333	1	0.016000
3.950000	1	0.017500
3.966667	1	0.018000
3.983333	1	0.019250
4.000000	1	0.021000
4.016667	1	0.021750
4.033333	1	0.022875
4.050000	1	0.024000
4.066667	1	0.025500
4.083333	1	0.026500
4.100000	1	0.026750
4.116667	1	0.028000
4.133333	1	0.028625
4.150000	1	0.029750
4.166667	1	0.031500
4.183333	1	0.033000
4.200000	1	0.034625
4.216667	1	0.036375
4.233333	1	0.037875
4.250000	1	0.039625
4.266667	1	0.041125
4.283333	1	0.042875
4.300000	1	0.044250
4.316667	1	0.046375
4.333333	1	0.048500
4.350000	1	0.050125
4.366667	1	0.051375
4.383333	1	0.053500
4.400000	1	0.055125
4.416667	1	0.056875
4.433333	1	0.058750
4.450000	1	0.060500
4.466667	1	0.062125
4.483333	1	0.064375
4.500000	1	0.066250
4.516667	1	0.068000
4.533333	1	0.068875
4.550000	1	0.070375
4.566667	1	0.072500
4.583333	1	0.073750
4.600000	1	0.075625
4.616667	1	0.077375
4.633333	1	0.079375
4.650000	1	0.080375
4.666667	1	0.081500
4.683333	1	0.083000
4.700000	1	0.083750
4.716667	1	0.084375
4.733333	1	0.085250
4.750000	1	0.085875
4.766667	1	0.086625
4.783333	1	0.087750
4.800000	1	0.088875
4.816667	1	0.089250
4.833333	1	0.089875
4.850000	1	0.090250
4.866667	1	0.090625
4.883333	1	0.091750
4.900000	1	0.092250
4.916667	1	0.093625
4.933333	1	0.095125
4.950000	1	0.096750
4.966667	1	0.098750
4.983333	1	0.100750
5.000000	1	0.103000
5.016667	1	0.105000
5.033333	1	0.107250
5.050000	1	0.109250
5.066667	1	0.111875
5.083333	1	0.115125
5.100000	1	0.118125
5.116667	1	0.120625
5.133333	1	0.123875
5.150000	1	0.127625
5.166667	1	0.131250
5.183333	1	0.135000
5.200000	1	0.139125
5.216667	1	0.143125
5.233333	1	0.146750
5.250000	1	0.150500
5.266667	1	0.153750
5.283333	1	0.157125
5.300000	1	0.160375
5.316667	1	0.163750
5.333333	1	0.167000
5.350000	1	0.171125
5.366667	1	0.174625
5.383333	1	0.177750
5.400000	1	0.180375
5.416667	1	0.183625
5.433333	1	0.186000
5.450000	1	0.188500
5.466667	1	0.191250
5.483333	1	0.193000
5.500000	1	0.194125
5.516667	1	0.195375
5.533333	1	0.196625
5.550000	1	0.197250
5.566667	1	0.198500
5.583333	1	0.199000
5.600000	1	0.199000
5.616667	1	0.198875
5.633333	1	0.199000
5.650000	1	0.199250
5.666667	1	0.198500
5.683333	1	0.196875
5.700000	1	0.195500
5.716667	1	0.194125
5.733333	1	0.193125
5.750000	1	0.191750
5.766667	1	0.190125
5.783333	1	0.188750
5.800000	1	0.186875
5.816667	1	0.185000
5.833333	1	0.182875
5.850000	1	0.179750
5.866667	1	0.177250
5.883333	1	0.175000
5.900000	1	0.172250
5.916667	1	0.169125
5.933333	1	0.166625
5.950000	1	0.164000
5.966667	1	0.161125
5.983333	1	0.158500
6.000000	1	0.156000
6.016667	1	0.153625
6.033333	1	0.150625
6.050000	1	0.147875
6.066667	1	0.144250
6.083333	1	0.141125
6.100000	1	0.138250
6.116667	1	0.135250
6.133333	1	0.132000
6.150000	1	0.130000
6.166667	1	0.127250
6.183333	1	0.124625
6.200000	1	0.122125
6.216667	1	0.119375
6.233333	1	0.117000
6.250000	1	0.114250
6.266667	1	0.111625
6.283333	1	0.109000
6.300000	1	0.106875
6.316667	1	0.104125
6.333333	1	0.102250
6.350000	1	0.099000
6.366667	1	0.097625
6.383333	1	0.095500
6.400000	1	0.094250
6.416667	1	0.092750
6.433333	1	0.091250
6.450000	1	0.089750
6.466667	1	0.087875
6.483333	1	0.086000
6.500000	1	0.083375
6.516667	1	0.081875
6.533333	1	0.079625
6.550000	1	0.077625
6.566667	1	0.076000
6.583333	1	0.074875
6.600000	1	0.072875
6.616667	1	0.071250
6.633333	1	0.069375
6.650000	1	0.068375
6.666667	1	0.066625
6.683333	1	0.064500
6.700000	1	0.062750
6.716667	1	0.060750
6.733333	1	0.058875
6.750000	1	0.057000
6.766667	1	0.055750
6.783333	1	0.054125
6.800000	1	0.051625
6.816667	1	0.050250
6.833333	1	0.048500
6.850000	1	0.047000
6.866667	1	0.045625
6.883333	1	0.043625
6.900000	1	0.041750
6.916667	1	0.041000
6.933333	1	0.040000
6.950000	1	0.038750
6.966667	1	0.037375
6.983333	1	0.037125
7.000000	1	0.037000
7.016667	1	0.036750
7.033333	1	0.036625
7.050000	1	0.036375
7.066667	1	0.036250
7.083333	1	0.037125
7.100000	1	0.036875
7.116667	1	0.037500
7.133333	1	0.038875
7.150000	1	0.040500
7.166667	1	0.041625
7.183333	1	0.042750
7.200000	1	0.044500
7.216667	1	0.046000
7.233333	1	0.047375
7.250000	1	0.049875
7.266667	1	0.052875
7.283333	1	0.054000
7.300000	1	0.056250
7.316667	1	0.058000
7.333333	1	0.059625
7.350000	1	0.061875
7.366667	1	0.064875
7.383333	1	0.066750
7.400000	1	0.069125
7.416667	1	0.071125
7.433333	1	0.072375
7.450000	1	0.073125
7.466667	1	0.073750
7.483333	1	0.074875
7.500000	1	0.074625
7.516667	1	0.074750
7.533333	1	0.074625
7.550000	1	0.074000
7.566667	1	0.073500
7.583333	1	0.072250
7.600000	1	0.070750
7.616667	1	0.068875
7.633333	1	0.066625
7.650000	1	0.064625
7.666667	1	0.061625
7.683333	1	0.058625
7.700000	1	0.055375
7.716667	1	0.052250
7.733333	1	0.048500
7.750000	1	0.045000
7.766667	1	0.041375
7.783333	1	0.037500
7.800000	1	0.033000
7.816667	1	0.029125
7.833333	1	0.024750
7.850000	1	0.020125
7.866667	1	0.015625
7.883333	1	0.010625
7.900000	1	0.006000
7.916667	1	0.001250
7.933333	1	-0.003125
7.950000	1	-0.008250
7.966667	1	-0.012125
7.983333	1	-0.016000
8.000000	1	-0.019875
8.016667	1	-0.024000
8.033333	1	-0.027500
8.050000	1	-0.030625
8.066667	1	-0.035000
8.083333	1	-0.038500
8.100000	1	-0.041000
8.116667	1	-0.043875
8.133333	1	-0.047250
8.150000	1	-0.049875
8.166667	1	-0.051750
8.183333	1	-0.053875
8.200000	1	-0.056375
8.216667	1	-0.058750
8.233333	1	-0.060875
8.250000	1	-0.062625
8.266667	1	-0.064375
8.283333	1	-0.066000
8.300000	1	-0.067875
8.316667	1	-0.069250
8.333333	1	-0.071000
8.350000	1	-0.072875
8.366667	1	-0.073875
8.383333	1	-0.074750
8.400000	1	-0.076125
8.416667	1	-0.077375
8.433333	1	-0.078375
8.450000	1	-0.078750
8.466667	1	-0.080500
8.483333	1	-0.081250
8.500000	1	-0.081875
8.516667	1	-0.082375
8.533333	1	-0.083125
8.550000	1	-0.084000
8.566667	1	-0.084625
8.583333	1	-0.084875
8.600000	1	-0.085500
8.616667	1	-0.086125
8.633333	1	-0.085750
8.650000	1	-0.085625
8.666667	1	-0.084875
8.683333	1	-0.084375
8.700000	1	-0.083375
8.716667	1	-0.081875
8.733333	1	-0.079875
8.750000	1	-0.077750
8.766667	1	-0.076000
8.783333	1	-0.073250
8.800000	1	-0.071375
8.816667	1	-0.069125
8.833333	1	-0.066500
8.850000	1	-0.063375
8.866667	1	-0.061125
8.883333	1	-0.058875
8.900000	1	-0.055750
8.916667	1	-0.053125
8.933333	1	-0.050375
8.950000	1	-0.047875
8.966667	1	-0.044875
8.983333	1	-0.042250
9.000000	1	-0.040000
9.016667	1	-0.038250
9.033333	1	-0.036625
9.050000	1	-0.034500
9.066667	1	-0.031250
9.083333	1	-0.029750
9.100000	1	-0.029125
9.116667	1	-0.027625
9.133333	1	-0.026125
9.150000	1	-0.024625
9.166667	1	-0.023000
9.183333	1	-0.021375
9.200000	1	-0.020250
9.216667	1	-0.018500
9.233333	1	-0.018000
9.250000	1	-0.017500
9.266667	1	-0.016375
9.283333	1	-0.015250
9.300000	1	-0.014625
9.316667	1	-0.014375
9.333333	1	-0.013875
9.350000	1	-0.013125
9.366667	1	-0.012375
9.383333	1	-0.011000
9.400000	1	-0.010750
9.416667	1	-0.010125
9.433333	1	-0.008625
9.450000	1	-0.008125
9.466667	1	-0.007625
9.483333	1	-0.006875
9.500000	1	-0.006125
9.516667	1	-0.004750
9.533333	1	-0.004250
9.550000	1	-0.003375
9.566667	1	-0.002500
9.583333	1	-0.002000
9.600000	1	-0.001000
9.616667	1	-0.000875
9.633333	1	-0.000125
9.650000	1	-0.000250
9.666667	1	-0.000125
9.683333	1	0.000000
9.700000	1	0.000625
9.716667	1	0.001125
9.733333	1	0.000375
9.750000	1	0.000000
9.766667	1	0.000000
9.783333	1	-0.000750
9.800000	1	-0.001250
9.816667	1	-0.002250
9.833333	1	-0.003125
9.850000	1	-0.004625
9.866667	1	-0.006125
9.883333	1	-0.007125
9.900000	1	-0.008750
9.916667	1	-0.009625
9.933333	1	-0.010875
9.950000	1	-0.012000
9.966667	1	-0.013625
9.983333	1	-0.016000
10.000000	1	-0.018000
10.016667	1	-0.018250
10.033333	1	-0.019000
10.050000	1	-0.019000
10.066667	1	-0.018250
10.083333	1	-0.017625
10.100000	1	-0.015125
10.116667	1	-0.011625
10.133333	1	-0.007250
10.150000	1	-0.002000
10.166667	1	0.004125
10.183333	1	0.011125
10.200000	1	0.019625
10.216667	1	0.029625
10.233333	1	0.041500
10.250000	1	0.054875
10.266667	1	0.070375
10.283333	1	0.087750
10.300000	1	0.108000
10.316667	1	0.131125
10.333333	1	0.156500
10.350000	1	0.183125
10.366667	1	0.211625
10.383333	1	0.238375
10.400000	1	0.261500
10.416667	1	0.278250
10.433333	1	0.284125
10.450000	1	0.277750
10.466667	1	0.257000
10.483333	1	0.224375
10.500000	1	0.190125
10.516667	1	0.173875
10.533333	1	0.209750
10.550000	1	0.348250
10.566667	1	0.653125
10.583333	1	1.196250
10.600000	1	2.052875
10.616667	1	3.289000
10.633333	1	4.958375
10.650000	1	7.095250
10.666667	1	9.720875
10.683333	1	12.836250
10.700000	1	16.425500
10.716667	1	20.450625
10.733333	1	24.845500
10.750000	1	29.508500
10.766667	1	34.286125
10.783333	1	38.964000
10.800000	1	43.248375
10.816667	1	46.769375
10.833333	1	49.119125
10.850000	1	49.944625
10.866667	1	49.044875
10.883333	1	46.456875
10.900000	1	42.473625
10.916667	1	37.575125
10.933333	1	32.290875
10.950000	1	27.081625
10.966667	1	22.272500
10.983333	1	18.046250
11.000000	1	14.468125
11.016667	1	11.525500
11.033333	1	9.161625
11.050000	1	7.296625
11.066667	1	5.845750
11.083333	1	4.727625
11.100000	1	3.871875
11.116667	1	3.218625
11.133333	1	2.719625
11.150000	1	2.337625
11.166667	1	2.042625
11.183333	1	1.814500
11.200000	1	1.635500
11.216667	1	1.492750
11.233333	1	1.378875
11.250000	1	1.285250
11.266667	1	1.207750
11.283333	1	1.142875
11.300000	1	1.087750
11.316667	1	1.041625
11.333333	1	1.002250
11.350000	1	0.967375
11.366667	1	0.937250
11.383333	1	0.911250
11.400000	1	0.888750
11.416667	1	0.870250
11.433333	1	0.853625
11.450000	1	0.839625
11.466667	1	0.827500
11.483333	1	0.817000
11.500000	1	0.807500
11.516667	1	0.800500
11.533333	1	0.794625
11.550000	1	0.789000
11.566667	1	0.784750
11.583333	1	0.782000
11.600000	1	0.780625
11.616667	1	0.779750
11.633333	1	0.780125
11.650000	1	0.782125
11.666667	1	0.785000
11.683333	1	0.788125
11.700000	1	0.792625
11.716667	1	0.798875
11.733333	1	0.805750
11.750000	1	0.813500
11.766667	1	0.822875
11.783333	1	0.831750
11.800000	1	0.841000
11.816667	1	0.850250
11.833333	1	0.858750
11.850000	1	0.867000
11.866667	1	0.874500
11.883333	1	0.881125
11.900000	1	0.886875
11.916667	1	0.890875
11.933333	1	0.895625
11.950000	1	0.899250
11.966667	1	0.901500
11.983333	1	0.904125
12.000000	1	0.906750
12.016667	1	0.909625
12.033333	1	0.911875
12.050000	1	0.914375
12.066667	1	0.916875
12.083333	1	0.919750
12.100000	1	0.923500
12.116667	1	0.928375
12.133333	1	0.933625
12.150000	1	0.938625
12.166667	1	0.944875
12.183333	1	0.952375
12.200000	1	0.961375
12.216667	1	0.970500
12.233333	1	0.983125
12.250000	1	0.999125
12.266667	1	1.018000
12.283333	1	1.043125
12.300000	1	1.076375
12.316667	1	1.119000
12.333333	1	1.174000
12.350000	1	1.244250
12.366667	1	1.334500
12.383333	1	1.448875
12.400000	1	1.591250
12.416667	1	1.765875
12.433333	1	1.978125
12.450000	1	2.233125
12.466667	1	2.534875
12.483333	1	2.887500
12.500000	1	3.295250
12.516667	1	3.760750
12.533333	1	4.284625
12.550000	1	4.863625
12.566667	1	5.495625
12.583333	1	6.172375
12.600000	1	6.883750
12.616667	1	7.615875
12.633333	1	8.355750
12.650000	1	9.089250
12.666667	1	9.803125
12.683333	1	10.486375
12.700000	1	11.131375
12.716667	1	11.735000
12.733333	1	12.298750
12.750000	1	12.827750
12.766667	1	13.330875
12.783333	1	13.819250
12.800000	1	14.301000
12.816667	1	14.788750
12.833333	1	15.291250
12.850000	1	15.816250
12.866667	1	16.368375
12.883333	1	16.951625
12.900000	1	17.567875
12.916667	1	18.217875
12.933333	1	18.899500
12.950000	1	19.611250
12.966667	1	20.352375
12.983333	1	21.120750
13.000000	1	21.914500
13.016667	1	22.731625
13.033333	1	23.571375
13.050000	1	24.433250
13.066667	1	25.317500
13.083333	1	26.222375
13.100000	1	27.147375
13.116667	1	28.092125
13.133333	1	29.055875
13.150000	1	30.038375
13.166667	1	31.041250
13.183333	1	32.062000
13.200000	1	33.100625
13.216667	1	34.158125
13.233333	1	35.235750
13.250000	1	36.332500
13.266667	1	37.450875
13.283333	1	38.591125
13.300000	1	39.753500
13.316667	1	40.939000
13.333333	1	42.146375
13.350000	1	43.377250
13.366667	1	44.631000
13.383333	1	45.908125
13.400000	1	47.209000
13.416667	1	48.533750
13.433333	1	49.884875
13.450000	1	51.264125
13.466667	1	52.672625
13.483333	1	54.110625
13.500000	1	55.577500
13.516667	1	57.075750
13.533333	1	58.602875
13.550000	1	60.160875
13.566667	1	61.749875
13.583333	1	63.371125
13.600000	1	65.023625
13.616667	1	66.707750
13.633333	1	68.428000
13.650000	1	70.184875
13.666667	1	71.979875
13.683333	1	73.813750
13.700000	1	75.684875
13.716667	1	77.581375
13.733333	1	79.454250
13.750000	1	81.178500
13.766667	1	82.533500
13.783333	1	83.214750
13.800000	1	82.897125
13.816667	1	81.268875
13.833333	1	78.061250
13.850000	1	73.099250
13.866667	1	66.422875
13.883333	1	58.405875
13.900000	1	49.728375
13.916667	1	41.182625
13.933333	1	33.406500
13.950000	1	26.752375
13.966667	1	21.303625
13.983333	1	16.970375
14.000000	1	13.590375
14.016667	1	10.987375
14.033333	1	9.007375
14.050000	1	7.520125
14.066667	1	6.414000
14.083333	1	5.597000
14.100000	1	4.994000
14.116667	1	4.546250
14.133333	1	4.209125
14.150000	1	3.951500
14.166667	1	3.750125
14.183333	1	3.589250
14.200000	1	3.457250
14.216667	1	3.346875
14.233333	1	3.252250
14.250000	1	3.170375
14.266667	1	3.097125
14.283333	1	3.032500
14.300000	1	2.974250
14.316667	1	2.921250
14.333333	1	2.873500
14.350000	1	2.831875
14.366667	1	2.795375
14.383333	1	2.764750
14.400000	1	2.741250
14.416667	1	2.726875
14.433333	1	2.724500
14.450000	1	2.737125
14.466667	1	2.769875
14.483333	1	2.830125
14.500000	1	2.928875
14.516667	1	3.081625
14.533333	1	3.308625
14.550000	1	3.638000
14.566667	1	4.107000
14.583333	1	4.761125
14.600000	1	5.658125
14.616667	1	6.865750
14.633333	1	8.463375
14.650000	1	10.532750
14.666667	1	13.152250
14.683333	1	16.388250
14.700000	1	20.281250
14.716667	1	24.837250
14.733333	1	30.022125
14.750000	1	35.750375
14.766667	1	41.876750
14.783333	1	48.195500
14.800000	1	54.464875
14.816667	1	60.414875
14.833333	1	65.763000
14.850000	1	70.238125
14.866667	1	73.603625
14.883333	1	75.683000
14.900000	1	76.378500
14.916667	1	75.678750
14.933333	1	73.659375
14.950000	1	70.466875
14.966667	1	66.312000
14.983333	1	61.440500
15.000000	1	56.103000
15.016667	1	50.539125
15.033333	1	44.965500
15.050000	1	39.563125
15.066667	1	34.470875
15.083333	1	29.784250
15.100000	1	25.561125
15.116667	1	21.824000
15.133333	1	18.565375
15.150000	1	15.761000
15.166667	1	13.373500
15.183333	1	11.360500
15.200000	1	9.674250
15.216667	1	8.270750
15.233333	1	7.108375
15.250000	1	6.149875
15.266667	1	5.363500
15.283333	1	4.721750
15.300000	1	4.199625
15.316667	1	3.779125
15.333333	1	3.442625
15.350000	1	3.176250
15.366667	1	2.966750
15.383333	1	2.805125
15.400000	1	2.681875
15.416667	1	2.590625
15.433333	1	2.524375
15.450000	1	2.476500
15.466667	1	2.441750
15.483333	1	2.415500
15.500000	1	2.394250
15.516667	1	2.373625
15.533333	1	2.350875
15.550000	1	2.325125
15.566667	1	2.294625
15.583333	1	2.260625
15.600000	1	2.222750
15.616667	1	2.183125
15.633333	1	2.141875
15.650000	1	2.101125
15.666667	1	2.060000
15.683333	1	2.020875
15.700000	1	1.984500
15.716667	1	1.948875
15.733333	1	1.915875
15.750000	1	1.883625
15.766667	1	1.852875
15.783333	1	1.822250
15.800000	1	1.791000
15.816667	1	1.759500
15.833333	1	1.727375
15.850000	1	1.696000
15.866667	1	1.665000
15.883333	1	1.635250
15.900000	1	1.605250
15.916667	1	1.578500
15.933333	1	1.555000
15.950000	1	1.534125
15.966667	1	1.516125
15.983333	1	1.502750
16.000000	1	1.492250
16.016667	1	1.484375
16.033333	1	1.478500
16.050000	1	1.474375
16.066667	1	1.471500
16.083333	1	1.469250
16.100000	1	1.466875
16.116667	1	1.463500
16.133333	1	1.457875
16.150000	1	1.451375
16.166667	1	1.443250
16.183333	1	1.433250
16.200000	1	1.422250
16.216667	1	1.409750
16.233333	1	1.396250
16.250000	1	1.381375
16.266667	1	1.365875
16.283333	1	1.349375
16.300000	1	1.332375
16.316667	1	1.316625
16.333333	1	1.299875
16.350000	1	1.283750
16.366667	1	1.268250
16.383333	1	1.253750
16.400000	1	1.240125
16.416667	1	1.228250
16.433333	1	1.219875
16.450000	1	1.213000
16.466667	1	1.208625
16.483333	1	1.206625
16.500000	1	1.206625
16.516667	1	1.209250
16.533333	1	1.213500
16.550000	1	1.218375
16.566667	1	1.223625
16.583333	1	1.229750
16.600000	1	1.234750
16.616667	1	1.238375
16.633333	1	1.241000
16.650000	1	1.241250
16.666667	1	1.240125
16.683333	1	1.237625
16.700000	1	1.234500
16.716667	1	1.230625
16.733333	1	1.226875
16.750000	1	1.223125
16.766667	1	1.220375
16.783333	1	1.217625
16.800000	1	1.216125
16.816667	1	1.216000
16.833333	1	1.216000
16.850000	1	1.217125
16.866667	1	1.218125
16.883333	1	1.218875
16.900000	1	1.220000
16.916667	1	1.220250
16.933333	1	1.219000
16.950000	1	1.216625
16.966667	1	1.212375
16.983333	1	1.207125
17.000000	1	1.201125
17.016667	1	1.193875
17.033333	1	1.185750
17.050000	1	1.177500
17.066667	1	1.169875
17.083333	1	1.162375
17.100000	1	1.155375
17.116667	1	1.148500
17.133333	1	1.142875
17.150000	1	1.138750
17.166667	1	1.135625
17.183333	1	1.132875
17.200000	1	1.131875
17.216667	1	1.132250
17.233333	1	1.133125
17.250000	1	1.134250
17.266667	1	1.136625
17.283333	1	1.139000
17.300000	1	1.142000
17.316667	1	1.146125
17.333333	1	1.149875
17.350000	1	1.154375
17.366667	1	1.159250
17.383333	1	1.164125
17.400000	1	1.168750
17.416667	1	1.173000
17.433333	1	1.176375
17.450000	1	1.179250
17.466667	1	1.180250
17.483333	1	1.180250
17.500000	1	1.179375
17.516667	1	1.176250
17.533333	1	1.170875
17.550000	1	1.163875
17.566667	1	1.156125
17.583333	1	1.146500
17.600000	1	1.135250
17.616667	1	1.123125
17.633333	1	1.109500
17.650000	1	1.094750
17.666667	1	1.080250
17.683333	1	1.065375
17.700000	1	1.050125
17.716667	1	1.035000
17.733333	1	1.020125
17.750000	1	1.005875
17.766667	1	0.992375
17.783333	1	0.979250
17.800000	1	0.966750
17.816667	1	0.955500
17.833333	1	0.945250
17.850000	1	0.934250
17.866667	1	0.923625
17.883333	1	0.914625
17.900000	1	0.906000
17.916667	1	0.897250
17.933333	1	0.889500
17.950000	1	0.882250
17.966667	1	0.874875
17.983333	1	0.867000
18.000000	1	0.860250
18.016667	1	0.852750
18.033333	1	0.844750
18.050000	1	0.836625
18.066667	1	0.829250
18.083333	1	0.820750
18.100000	1	0.812875
18.116667	1	0.805250
18.133333	1	0.797875
18.150000	1	0.790250
18.166667	1	0.784000
18.183333	1	0.779000
18.200000	1	0.774000
18.216667	1	0.770000
18.233333	1	0.766500
18.250000	1	0.763875
18.266667	1	0.761625
18.283333	1	0.760250
18.300000	1	0.759375
18.316667	1	0.759500
18.333333	1	0.760125
18.350000	1	0.760625
18.366667	1	0.761125
18.383333	1	0.763000
18.400000	1	0.765500
18.416667	1	0.769125
18.433333	1	0.773500
18.450000	1	0.779125
18.466667	1	0.787000
18.483333	1	0.796000
18.500000	1	0.807000
18.516667	1	0.819500
18.533333	1	0.834500
18.550000	1	0.851625
18.566667	1	0.870625
18.583333	1	0.890875
18.600000	1	0.913500
18.616667	1	0.939000
18.633333	1	0.964875
18.650000	1	0.993625
18.666667	1	1.025375
18.683333	1	1.057750
18.700000	1	1.091250
18.716667	1	1.125875
18.733333	1	1.161500
18.750000	1	1.198375
18.766667	1	1.235625
18.783333	1	1.272750
18.800000	1	1.309125
18.816667	1	1.344000
18.833333	1	1.377000
18.850000	1	1.407125
18.866667	1	1.433875
18.883333	1	1.456375
18.900000	1	1.473125
18.916667	1	1.483750
18.933333	1	1.488250
18.950000	1	1.486375
18.966667	1	1.476875
18.983333	1	1.461000
19.000000	1	1.438125
19.016667	1	1.408125
19.033333	1	1.372625
19.050000	1	1.332375
19.066667	1	1.288500
19.083333	1	1.241875
19.100000	1	1.195250
19.116667	1	1.149000
19.133333	1	1.104500
19.150000	1	1.063375
19.166667	1	1.028000
19.183333	1	0.998625
19.200000	1	0.978125
19.216667	1	0.967375
19.233333	1	0.967750
19.250000	1	0.981125
19.266667	1	1.009125
19.283333	1	1.053375
19.300000	1	1.114000
19.316667	1	1.191750
19.333333	1	1.287375
19.350000	1	1.401125
19.366667	1	1.531125
19.383333	1	1.675750
19.400000	1	1.832875
19.416667	1	1.999875
19.433333	1	2.171000
19.450000	1	2.342750
19.466667	1	2.509375
19.483333	1	2.666000
19.500000	1	2.806375
19.516667	1	2.926875
19.533333	1	3.023125
19.550000	1	3.092375
19.566667	1	3.132375
19.583333	1	3.142625
19.600000	1	3.121750
19.616667	1	3.073500
19.633333	1	2.998625
19.650000	1	2.900750
19.666667	1	2.785625
19.683333	1	2.655125
19.700000	1	2.515000
19.716667	1	2.368625
19.733333	1	2.219875
19.750000	1	2.072000
19.766667	1	1.926625
19.783333	1	1.787125
19.800000	1	1.654625
19.816667	1	1.530250
19.833333	1	1.414500
19.850000	1	1.308125
19.866667	1	1.210875
19.883333	1	1.123250
19.900000	1	1.044000
19.916667	1	0.972625
19.933333	1	0.909625
19.950000	1	0.853500
19.966667	1	0.804625
19.983333	1	0.762250
20.000000	1	0.725500
20.016667	1	0.694250
20.033333	1	0.668500
20.050000	1	0.647750
20.066667	1	0.632125
20.083333	1	0.621500
20.100000	1	0.614000
20.116667	1	0.611375
20.133333	1	0.612875
20.150000	1	0.617625
20.166667	1	0.625625
20.183333	1	0.635875
20.200000	1	0.647500
20.216667	1	0.659875
20.233333	1	0.673125
20.250000	1	0.685500
20.266667	1	0.697250
20.283333	1	0.707625
20.300000	1	0.715500
20.316667	1	0.720875
20.333333	1	0.723375
20.350000	1	0.721125
20.366667	1	0.716000
20.383333	1	0.708375
20.400000	1	0.697625
20.416667	1	0.683750
20.433333	1	0.668125
20.450000	1	0.651500
20.466667	1	0.634875
20.483333	1	0.617875
20.500000	1	0.602875
20.516667	1	0.590500
20.533333	1	0.581375
20.550000	1	0.576500
20.566667	1	0.577250
20.583333	1	0.584750
20.600000	1	0.597500
20.616667	1	0.618250
20.633333	1	0.647375
20.650000	1	0.685500
20.666667	1	0.731625
20.683333	1	0.786375
20.700000	1	0.849750
20.716667	1	0.919375
20.733333	1	0.994750
20.750000	1	1.075500
20.766667	1	1.158500
20.783333	1	1.241625
20.800000	1	1.322125
20.816667	1	1.397250
20.833333	1	1.464750
20.850000	1	1.522000
20.866667	1	1.567875
20.883333	1	1.600000
20.900000	1	1.617500
20.916667	1	1.620500
20.933333	1	1.608875
20.950000	1	1.583000
20.966667	1	1.543875
20.983333	1	1.494500
21.000000	1	1.435125
21.016667	1	1.368500
21.033333	1	1.297750
21.050000	1	1.223875
21.066667	1	1.148500
21.083333	1	1.073875
21.100000	1	1.001625
21.116667	1	0.932375
21.133333	1	0.867625
21.150000	1	0.807250
21.166667	1	0.752375
21.183333	1	0.702250
21.200000	1	0.657000
21.216667	1	0.616750
21.233333	1	0.580750
21.250000	1	0.549125
21.266667	1	0.521750
21.283333	1	0.498000
21.300000	1	0.477500
21.316667	1	0.459375
21.333333	1	0.443875
21.350000	1	0.431250
21.366667	1	0.420875
21.383333	1	0.411000
21.400000	1	0.402500
21.416667	1	0.394750
21.433333	1	0.388750
21.450000	1	0.383250
21.466667	1	0.379125
21.483333	1	0.375625
21.500000	1	0.372375
21.516667	1	0.370125
21.533333	1	0.368750
21.550000	1	0.367750
21.566667	1	0.367000
21.583333	1	0.367875
21.600000	1	0.369250
21.616667	1	0.371000
21.633333	1	0.373875
21.650000	1	0.377500
21.666667	1	0.382000
21.683333	1	0.387875
21.700000	1	0.395250
21.716667	1	0.403625
21.733333	1	0.412500
21.750000	1	0.423250
21.766667	1	0.435000
21.783333	1	0.446500
21.800000	1	0.458750
21.816667	1	0.470875
21.833333	1	0.484750
21.850000	1	0.497875
21.866667	1	0.511750
21.883333	1	0.524625
21.900000	1	0.538000
21.916667	1	0.549875
21.933333	1	0.561000
21.950000	1	0.572125
21.966667	1	0.581875
21.983333	1	0.589625
22.000000	1	0.596250
22.016667	1	0.600625
22.033333	1	0.604000
22.050000	1	0.607125
22.066667	1	0.608125
22.083333	1	0.607625
22.100000	1	0.606750
22.116667	1	0.603625
22.133333	1	0.599375
22.150000	1	0.593750
22.166667	1	0.588125
22.183333	1	0.580250
22.200000	1	0.570875
22.216667	1	0.561250
22.233333	1	0.550750
22.250000	1	0.540000
22.266667	1	0.527625
22.283333	1	0.514875
22.300000	1	0.500750
22.316667	1	0.486500
22.333333	1	0.472125
22.350000	1	0.457375
22.366667	1	0.442375
22.383333	1	0.426625
22.400000	1	0.411875
22.416667	1	0.397750
22.433333	1	0.383375
22.450000	1	0.369625
22.466667	1	0.356375
22.483333	1	0.344750
22.500000	1	0.333000
22.516667	1	0.322875
22.533333	1	0.313000
22.550000	1	0.303875
22.566667	1	0.295375
22.583333	1	0.288250
22.600000	1	0.281125
22.616667	1	0.274500
22.633333	1	0.268500
22.650000	1	0.263000
22.666667	1	0.257625
22.683333	1	0.252500
22.700000	1	0.248250
22.716667	1	0.244125
22.733333	1	0.239250
22.750000	1	0.235125
22.766667	1	0.231875
22.783333	1	0.228125
22.800000	1	0.224625
22.816667	1	0.221125
22.833333	1	0.218250
22.850000	1	0.216000
22.866667	1	0.213250
22.883333	1	0.212125
22.900000	1	0.210250
22.916667	1	0.208750
22.933333	1	0.207750
22.950000	1	0.207375
22.966667	1	0.207000
22.983333	1	0.207625
23.000000	1	0.207875
23.016667	1	0.208375
23.033333	1	0.209750
23.050000	1	0.211375
23.066667	1	0.213125
23.083333	1	0.215000
23.100000	1	0.217125
23.116667	1	0.220000
23.133333	1	0.222625
23.150000	1	0.225875
23.166667	1	0.229375
23.183333	1	0.232750
23.200000	1	0.235875
23.216667	1	0.239500
23.233333	1	0.244000
23.250000	1	0.248375
23.266667	1	0.253125
23.283333	1	0.259625
23.300000	1	0.266375
23.316667	1	0.275375
23.333333	1	0.286000
23.350000	1	0.300375
23.366667	1	0.319000
23.383333	1	0.341625
23.400000	1	0.370500
23.416667	1	0.406750
23.433333	1	0.450750
23.450000	1	0.505250
23.466667	1	0.571750
23.483333	1	0.651750
23.500000	1	0.747375
23.516667	1	0.860000
23.533333	1	0.991625
23.550000	1	1.144000
23.566667	1	1.318875
23.583333	1	1.516375
23.600000	1	1.735625
23.616667	1	1.977875
23.633333	1	2.241250
23.650000	1	2.521750
23.666667	1	2.817625
23.683333	1	3.125750
23.700000	1	3.440375
23.716667	1	3.757125
23.733333	1	4.068750
23.750000	1	4.369250
23.766667	1	4.650875
23.783333	1	4.907125
23.800000	1	5.133125
23.816667	1	5.322500
23.833333	1	5.471000
23.850000	1	5.575375
23.866667	1	5.633500
23.883333	1	5.645625
23.900000	1	5.612250
23.916667	1	5.533375
23.933333	1	5.413750
23.950000	1	5.256500
23.966667	1	5.067125
23.983333	1	4.850375
24.000000	1	4.612500
24.016667	1	4.358750
24.033333	1	4.095250
24.050000	1	3.826750
24.066667	1	3.557750
24.083333	1	3.292250
24.100000	1	3.033375
24.116667	1	2.784750
24.133333	1	2.547750
24.150000	1	2.324250
24.166667	1	2.115625
24.183333	1	1.921375
24.200000	1	1.742625
24.216667	1	1.578500
24.233333	1	1.429625
24.250000	1	1.294750
24.266667	1	1.173125
24.283333	1	1.064375
24.300000	1	0.967500
24.316667	1	0.881000
24.333333	1	0.804250
24.350000	1	0.737000
24.366667	1	0.678625
24.383333	1	0.627375
24.400000	1	0.583625
24.416667	1	0.546375
24.433333	1	0.514250
24.450000	1	0.487375
24.466667	1	0.464750
24.483333	1	0.446250
24.500000	1	0.430375
24.516667	1	0.418125
24.533333	1	0.407125
24.550000	1	0.398500
24.566667	1	0.391000
24.583333	1	0.384750
24.600000	1	0.378875
24.616667	1	0.373875
24.633333	1	0.370000
24.650000	1	0.365250
24.666667	1	0.360875
24.683333	1	0.356500
24.700000	1	0.352125
24.716667	1	0.347875
24.733333	1	0.343125
24.750000	1	0.337500
24.766667	1	0.332500
24.783333	1	0.327750
24.800000	1	0.321875
24.816667	1	0.316625
24.833333	1	0.311125
24.850000	1	0.306375
24.866667	1	0.301750
24.883333	1	0.297125
24.900000	1	0.292875
24.916667	1	0.288625
24.933333	1	0.285000
24.950000	1	0.281000
24.966667	1	0.277625
24.983333	1	0.274375
25.000000	1	0.271375
25.016667	1	0.269250
25.033333	1	0.266250
25.050000	1	0.264625
25.066667	1	0.262000
25.083333	1	0.260125
25.100000	1	0.257875
25.116667	1	0.255875
25.133333	1	0.253750
25.150000	1	0.250500
25.166667	1	0.248375
25.183333	1	0.245625
25.200000	1	0.242750
25.216667	1	0.239375
25.233333	1	0.236000
25.250000	1	0.232375
25.266667	1	0.228875
25.283333	1	0.224875
25.300000	1	0.221625
25.316667	1	0.217125
25.333333	1	0.212750
25.350000	1	0.208750
25.366667	1	0.204750
25.383333	1	0.200375
25.400000	1	0.196875
25.416667	1	0.193500
25.433333	1	0.189500
25.450000	1	0.186625
25.466667	1	0.184625
25.483333	1	0.182125
25.500000	1	0.179875
25.516667	1	0.178000
25.533333	1	0.176750
25.550000	1	0.175625
25.566667	1	0.174875
25.583333	1	0.173875
25.600000	1	0.173875
25.616667	1	0.173750
25.633333	1	0.174125
25.650000	1	0.175125
25.666667	1	0.175750
25.683333	1	0.176500
25.700000	1	0.177000
25.716667	1	0.178250
25.733333	1	0.179000
25.750000	1	0.179375
25.766667	1	0.179750
25.783333	1	0.180375
25.800000	1	0.181750
25.816667	1	0.183000
25.833333	1	0.184250
25.850000	1	0.185250
25.866667	1	0.186375
25.883333	1	0.188375
25.900000	1	0.190500
25.916667	1	0.193250
25.933333	1	0.196000
25.950000	1	0.198375
25.966667	1	0.200750
25.983333	1	0.204250
26.000000	1	0.207875
26.016667	1	0.211625
26.033333	1	0.216000
26.050000	1	0.221375
26.066667	1	0.227000
26.083333	1	0.231875
26.100000	1	0.237875
26.116667	1	0.243125
26.133333	1	0.248250
26.150000	1	0.253750
26.166667	1	0.258750
26.183333	1	0.263750
26.200000	1	0.268500
26.216667	1	0.273125
26.233333	1	0.276500
26.250000	1	0.280000
26.266667	1	0.283250
26.283333	1	0.285375
26.300000	1	0.286750
26.316667	1	0.287500
26.333333	1	0.287875
26.350000	1	0.287125
26.366667	1	0.285625
26.383333	1	0.283500
26.400000	1	0.280750
26.416667	1	0.277625
26.433333	1	0.273625
26.450000	1	0.268750
26.466667	1	0.263125
26.483333	1	0.257500
26.500000	1	0.251125
26.516667	1	0.244750
26.533333	1	0.236750
26.550000	1	0.229375
26.566667	1	0.222250
26.583333	1	0.214125
26.600000	1	0.207000
26.616667	1	0.199500
26.633333	1	0.192875
26.650000	1	0.186000
26.666667	1	0.179875
26.683333	1	0.173375
26.700000	1	0.167250
26.716667	1	0.161000
26.733333	1	0.155125
26.750000	1	0.149500
26.766667	1	0.144125
26.783333	1	0.139625
26.800000	1	0.135500
26.816667	1	0.131500
26.833333	1	0.127875
26.850000	1	0.125500
26.866667	1	0.122750
26.883333	1	0.120250
26.900000	1	0.118250
26.916667	1	0.117375
26.933333	1	0.116625
26.950000	1	0.116125
26.966667	1	0.115875
26.983333	1	0.116375
27.000000	1	0.116500
27.016667	1	0.117625
27.033333	1	0.119875
27.050000	1	0.122625
27.066667	1	0.125875
27.083333	1	0.129500
27.100000	1	0.134500
27.116667	1	0.139750
27.133333	1	0.146625
27.150000	1	0.154875
27.166667	1	0.164625
27.183333	1	0.175875
27.200000	1	0.188625
27.216667	1	0.203375
27.233333	1	0.220625
27.250000	1	0.240125
27.266667	1	0.264250
27.283333	1	0.291875
27.300000	1	0.324375
27.316667	1	0.361000
27.333333	1	0.404125
27.350000	1	0.453875
27.366667	1	0.510875
27.383333	1	0.575875
27.400000	1	0.649000
27.416667	1	0.732000
27.433333	1	0.825375
27.450000	1	0.930375
27.466667	1	1.046000
27.483333	1	1.173750
27.500000	1	1.314875
27.516667	1	1.468375
27.533333	1	1.633625
27.550000	1	1.809875
27.566667	1	1.996125
27.583333	1	2.192000
27.600000	1	2.396375
27.616667	1	2.606000
27.633333	1	2.819500
27.650000	1	3.034750
27.666667	1	3.248750
27.683333	1	3.458500
27.700000	1	3.660500
27.716667	1	3.851125
27.733333	1	4.027875
27.750000	1	4.186625
27.766667	1	4.325250
27.783333	1	4.440625
27.800000	1	4.530875
27.816667	1	4.594125
27.833333	1	4.629625
27.850000	1	4.636250
27.866667	1	4.612875
27.883333	1	4.561000
27.900000	1	4.481125
27.916667	1	4.375625
27.933333	1	4.246125
27.950000	1	4.096000
27.966667	1	3.928250
27.983333	1	3.744500
28.000000	1	3.549875
28.016667	1	3.346750
28.033333	1	3.139500
28.050000	1	2.929625
28.066667	1	2.720125
28.083333	1	2.513750
28.100000	1	2.313125
28.116667	1	2.120750
28.133333	1	1.937125
28.150000	1	1.764000
28.166667	1	1.600750
28.183333	1	1.448750
28.200000	1	1.309375
28.216667	1	1.180750
28.233333	1	1.063625
28.250000	1	0.956625
28.266667	1	0.860625
28.283333	1	0.775500
28.300000	1	0.700000
28.316667	1	0.632750
28.333333	1	0.573000
28.350000	1	0.521250
28.366667	1	0.476750
28.383333	1	0.438250
28.400000	1	0.406875
28.416667	1	0.380625
28.433333	1	0.359500
28.450000	1	0.342750
28.466667	1	0.329625
28.483333	1	0.320250
28.500000	1	0.314125
28.516667	1	0.310625
28.533333	1	0.309625
28.550000	1	0.311500
28.566667	1	0.315125
28.583333	1	0.320000
28.600000	1	0.327375
28.616667	1	0.335500
28.633333	1	0.344000
28.650000	1	0.353125
28.666667	1	0.362875
28.683333	1	0.373500
28.700000	1	0.383750
28.716667	1	0.393500
28.733333	1	0.403500
28.750000	1	0.413375
28.766667	1	0.422500
28.783333	1	0.430500
28.800000	1	0.437750
28.816667	1	0.444625
28.833333	1	0.449875
28.850000	1	0.455500
28.866667	1	0.459625
28.883333	1	0.462875
28.900000	1	0.464500
28.916667	1	0.464875
28.933333	1	0.463875
28.950000	1	0.461375
28.966667	1	0.457875
28.983333	1	0.453875
29.000000	1	0.448500
29.016667	1	0.442625
29.033333	1	0.434875
29.050000	1	0.426625
29.066667	1	0.417375
29.083333	1	0.407250
29.100000	1	0.396500
29.116667	1	0.385000
29.133333	1	0.372500
29.150000	1	0.360125
29.166667	1	0.347125
29.183333	1	0.334125
29.200000	1	0.320625
29.216667	1	0.307125
29.233333	1	0.293375
29.250000	1	0.279125
29.266667	1	0.265625
29.283333	1	0.252125
29.300000	1	0.238375
29.316667	1	0.224375
29.333333	1	0.211375
29.350000	1	0.198750
29.366667	1	0.186250
29.383333	1	0.174250
29.400000	1	0.163375
29.416667	1	0.152875
29.433333	1	0.142500
29.450000	1	0.133000
29.466667	1	0.124125
29.483333	1	0.115125
29.500000	1	0.107125
29.516667	1	0.098875
29.533333	1	0.091500
29.550000	1	0.084875
29.566667	1	0.078500
29.583333	1	0.072250
29.600000	1	0.067000
29.616667	1	0.062125
29.633333	1	0.057750
29.650000	1	0.054000
29.666667	1	0.050125
29.683333	1	0.046875
29.700000	1	0.043625
29.716667	1	0.041125
29.733333	1	0.038500
29.750000	1	0.036000
29.766667	1	0.034000
29.783333	1	0.031875
29.800000	1	0.030875
29.816667	1	0.028625
29.833333	1	0.027625
29.850000	1	0.026375
29.866667	1	0.024875
29.883333	1	0.023875
29.900000	1	0.022625
29.916667	1	0.021500
29.933333	1	0.020750
29.950000	1	0.019750
29.966667	1	0.018750
29.983333	1	0.017625
30.000000	1	0.016500
30.016667	1	0.014875
30.033333	1	0.014125
30.050000	1	0.012875
30.066667	1	0.011250
30.083333	1	0.009875
30.100000	1	0.008625
30.116667	1	0.007375
30.133333	1	0.005875
30.150000	1	0.005125
30.166667	1	0.004500
30.183333	1	0.004000
30.200000	1	0.002875
30.216667	1	0.002125
30.233333	1	0.001125
30.250000	1	0.001375
30.266667	1	0.001375
30.283333	1	0.001375
30.300000	1	0.001625
30.316667	1	0.002125
30.333333	1	0.003000
30.350000	1	0.004250
30.366667	1	0.006000
30.383333	1	0.008125
30.400000	1	0.009500
30.416667	1	0.012250
30.433333	1	0.015250
30.450000	1	0.018000
30.466667	1	0.021625
30.483333	1	0.025625
30.500000	1	0.029750
30.516667	1	0.034000
30.533333	1	0.039125
30.550000	1	0.044750
30.566667	1	0.051000
30.583333	1	0.057750
30.600000	1	0.064750
30.616667	1	0.072125
30.633333	1	0.079375
30.650000	1	0.087625
30.666667	1	0.096250
30.683333	1	0.105375
30.700000	1	0.115375
30.716667	1	0.124625
30.733333	1	0.134625
30.750000	1	0.145375
30.766667	1	0.156500
30.783333	1	0.168500
30.800000	1	0.180250
30.816667	1	0.193125
30.833333	1	0.207125
30.850000	1	0.221125
30.866667	1	0.236750
30.883333	1	0.253500
30.900000	1	0.271250
30.916667	1	0.291000
30.933333	1	0.313250
30.950000	1	0.337375
30.966667	1	0.363875
30.983333	1	0.393375
31.000000	1	0.426500
31.016667	1	0.463375
31.033333	1	0.504875
31.050000	1	0.551250
31.066667	1	0.603375
31.083333	1	0.661500
31.100000	1	0.726500
31.116667	1	0.797875
31.133333	1	0.877000
31.150000	1	0.964250
31.166667	1	1.060375
31.183333	1	1.165500
31.200000	1	1.278750
31.216667	1	1.400875
31.233333	1	1.531625
31.250000	1	1.670375
31.266667	1	1.816000
31.283333	1	1.967875
31.300000	1	2.125125
31.316667	1	2.286375
31.333333	1	2.450000
31.350000	1	2.615250
31.366667	1	2.780000
31.383333	1	2.942250
31.400000	1	3.099875
31.416667	1	3.250500
31.433333	1	3.393875
31.450000	1	3.526500
31.466667	1	3.646750
31.483333	1	3.753125
31.500000	1	3.843625
31.516667	1	3.917750
31.533333	1	3.974000
31.550000	1	4.011500
31.566667	1	4.030625
31.583333	1	4.030375
31.600000	1	4.012125
31.616667	1	3.974750
31.633333	1	3.920000
31.650000	1	3.849125
31.666667	1	3.762000
31.683333	1	3.660875
31.700000	1	3.548000
31.716667	1	3.424125
31.733333	1	3.291375
31.750000	1	3.151375
31.766667	1	3.005125
31.783333	1	2.855750
31.800000	1	2.703250
31.816667	1	2.549750
31.833333	1	2.396750
31.850000	1	2.245625
31.866667	1	2.097250
31.883333	1	1.952750
31.900000	1	1.813250
31.916667	1	1.679625
31.933333	1	1.551250
31.950000	1	1.428750
31.966667	1	1.314000
31.983333	1	1.205625
32.000000	1	1.103875
32.016667	1	1.007500
32.033333	1	0.917875
32.050000	1	0.834750
32.066667	1	0.757500
32.083333	1	0.685500
32.100000	1	0.619000
32.116667	1	0.558500
32.133333	1	0.502750
32.150000	1	0.450875
32.166667	1	0.403250
32.183333	1	0.360125
32.200000	1	0.320250
32.216667	1	0.282750
32.233333	1	0.248875
32.250000	1	0.217625
32.266667	1	0.189250
32.283333	1	0.163250
32.300000	1	0.139375
32.316667	1	0.118125
32.333333	1	0.098250
32.350000	1	0.080500
32.366667	1	0.064625
32.383333	1	0.050250
32.400000	1	0.037125
32.416667	1	0.025250
32.433333	1	0.014500
32.450000	1	0.005250
32.466667	1	-0.003250
32.483333	1	-0.011125
32.500000	1	-0.018125
32.516667	1	-0.023750
32.533333	1	-0.029000
32.550000	1	-0.033750
32.566667	1	-0.037875
32.583333	1	-0.041000
32.600000	1	-0.043875
32.616667	1	-0.045875
32.633333	1	-0.048375
32.650000	1	-0.050125
32.666667	1	-0.051250
32.683333	1	-0.052125
32.700000	1	-0.052250
32.716667	1	-0.052750
32.733333	1	-0.053500
32.750000	1	-0.054000
32.766667	1	-0.053750
32.783333	1	-0.053375
32.800000	1	-0.053250
32.816667	1	-0.053000
32.833333	1	-0.053000
32.850000	1	-0.052500
32.866667	1	-0.052250
32.883333	1	-0.052375
32.900000	1	-0.051625
32.916667	1	-0.051250
32.933333	1	-0.051125
32.950000	1	-0.050625
32.966667	1	-0.049750
32.983333	1	-0.049500
33.000000	1	-0.049125
33.016667	1	-0.048750
33.033333	1	-0.048375
33.050000	1	-0.048750
33.066667	1	-0.048750
33.083333	1	-0.048500
33.100000	1	-0.048250
33.116667	1	-0.048000
33.133333	1	-0.048125
33.150000	1	-0.047750
33.166667	1	-0.047750
33.183333	1	-0.047250
33.200000	1	-0.047250
33.216667	1	-0.047000
33.233333	1	-0.046625
33.250000	1	-0.046500
33.266667	1	-0.046000
33.283333	1	-0.045625
33.300000	1	-0.045500
33.316667	1	-0.045250
33.333333	1	-0.044125
33.350000	1	-0.043250
33.366667	1	-0.042500
33.383333	1	-0.042500
33.400000	1	-0.042125
33.416667	1	-0.041000
33.433333	1	-0.039875
33.450000	1	-0.038500
33.466667	1	-0.037875
33.483333	1	-0.036875
33.500000	1	-0.036750
33.516667	1	-0.036000
33.533333	1	-0.036000
33.550000	1	-0.035125
33.566667	1	-0.034125
33.583333	1	-0.033500
33.600000	1	-0.032750
33.616667	1	-0.031000
33.633333	1	-0.029375
33.650000	1	-0.027750
33.666667	1	-0.026625
33.683333	1	-0.025375
33.700000	1	-0.024250
33.716667	1	-0.022625
33.733333	1	-0.021625
33.750000	1	-0.019750
33.766667	1	-0.017875
33.783333	1	-0.016625
33.800000	1	-0.015750
33.816667	1	-0.014250
33.833333	1	-0.013375
33.850000	1	-0.012250
33.866667	1	-0.011250
33.883333	1	-0.009500
33.900000	1	-0.008375
33.916667	1	-0.007625
33.933333	1	-0.006875
33.950000	1	-0.005500
33.966667	1	-0.004875
33.983333	1	-0.003750
34.000000	1	-0.003750
34.016667	1	-0.003375
34.033333	1	-0.003250
34.050000	1	-0.002500
34.066667	1	-0.001750
34.083333	1	-0.001625
34.100000	1	-0.001250
34.116667	1	-0.001000
34.133333	1	-0.000750
34.150000	1	-0.000500
34.166667	1	0.000000
34.183333	1	0.000625
34.200000	1	0.000875
34.216667	1	0.001125
34.233333	1	0.001750
34.250000	1	0.002125
34.266667	1	0.002875
34.283333	1	0.003500
34.300000	1	0.004250
34.316667	1	0.005500
34.333333	1	0.006625
34.350000	1	0.007125
34.366667	1	0.008125
34.383333	1	0.009000
34.400000	1	0.009875
34.416667	1	0.011000
34.433333	1	0.012250
34.450000	1	0.013875
34.466667	1	0.015000
34.483333	1	0.016000
34.500000	1	0.017750
34.516667	1	0.019375
34.533333	1	0.021375
34.550000	1	0.022750
34.566667	1	0.024375
34.583333	1	0.026250
34.600000	1	0.027500
34.616667	1	0.028375
34.633333	1	0.029250
34.650000	1	0.029875
34.666667	1	0.030500
34.683333	1	0.031250
34.700000	1	0.031500
34.716667	1	0.032250
34.733333	1	0.033000
34.750000	1	0.033875
34.766667	1	0.033750
34.783333	1	0.033625
34.800000	1	0.033375
34.816667	1	0.033375
34.833333	1	0.033000
34.850000	1	0.033375
34.866667	1	0.032875
34.883333	1	0.031500
34.900000	1	0.030625
34.916667	1	0.030250
34.933333	1	0.029625
34.950000	1	0.028125
34.966667	1	0.026875
34.983333	1	0.025625
35.000000	1	0.024625
35.016667	1	0.024000
35.033333	1	0.022875
35.050000	1	0.021750
35.066667	1	0.020375
35.083333	1	0.018625
35.100000	1	0.017625
35.116667	1	0.016125
35.133333	1	0.015125
35.150000	1	0.013750
35.166667	1	0.012375
35.183333	1	0.010625
35.200000	1	0.009250
35.216667	1	0.008125
35.233333	1	0.007125
35.250000	1	0.006000
35.266667	1	0.004875
35.283333	1	0.004125
35.300000	1	0.003375
35.316667	1	0.002250
35.333333	1	0.001375
35.350000	1	0.000625
35.366667	1	0.000625
35.383333	1	0.000250
35.400000	1	-0.000625
35.416667	1	-0.000625
35.433333	1	-0.001250
35.450000	1	-0.001125
35.466667	1	-0.001375
35.483333	1	-0.001500
35.500000	1	-0.002375
35.516667	1	-0.002625
35.533333	1	-0.003250
35.550000	1	-0.004000
35.566667	1	-0.003750
35.583333	1	-0.004125
35.600000	1	-0.004625
35.616667	1	-0.004625
35.633333	1	-0.004750
35.650000	1	-0.004500
35.666667	1	-0.004750
35.683333	1	-0.004875
35.700000	1	-0.004875
35.716667	1	-0.005000
35.733333	1	-0.005875
35.750000	1	-0.005625
35.766667	1	-0.005625
35.783333	1	-0.005875
35.800000	1	-0.005625
35.816667	1	-0.005625
35.833333	1	-0.006125
35.850000	1	-0.005625
35.866667	1	-0.005375
35.883333	1	-0.005000
35.900000	1	-0.004750
35.916667	1	-0.004375
35.933333	1	-0.004250
35.950000	1	-0.003000
35.966667	1	-0.002500
35.983333	1	-0.002625
36.000000	1	-0.002000
36.016667	1	-0.001500
36.033333	1	-0.001125
36.050000	1	-0.000750
36.066667	1	-0.000625
36.083333	1	-0.000375
36.100000	1	-0.000250
36.116667	1	0.000750
36.133333	1	0.001125
36.150000	1	0.001125
36.166667	1	0.002000
36.183333	1	0.002250
36.200000	1	0.002625
36.216667	1	0.002750
36.233333	1	0.002875
36.250000	1	0.003375
36.266667	1	0.003000
36.283333	1	0.002875
36.300000	1	0.003000
36.316667	1	0.003375
36.333333	1	0.003500
36.350000	1	0.003375
36.366667	1	0.003625
36.383333	1	0.002875
36.400000	1	0.002375
36.416667	1	0.001875
36.433333	1	0.001250
36.450000	1	0.000125
36.466667	1	0.000000
36.483333	1	-0.000750
36.500000	1	-0.001375
36.516667	1	-0.002375
36.533333	1	-0.003375
36.550000	1	-0.004750
36.566667	1	-0.005250
36.583333	1	-0.006375
36.600000	1	-0.007250
36.616667	1	-0.008750
36.633333	1	-0.010625
36.650000	1	-0.011000
36.666667	1	-0.011750
36.683333	1	-0.012375
36.700000	1	-0.013500
36.716667	1	-0.014750
36.733333	1	-0.015500
36.750000	1	-0.016625
36.766667	1	-0.017750
36.783333	1	-0.018375
36.800000	1	-0.018750
36.816667	1	-0.019750
36.833333	1	-0.020875
36.850000	1	-0.021625
36.866667	1	-0.022000
36.883333	1	-0.022000
36.900000	1	-0.022750
36.916667	1	-0.022625
36.933333	1	-0.022625
36.950000	1	-0.022750
36.966667	1	-0.023000
36.983333	1	-0.024250
37.000000	1	-0.025125
37.016667	1	-0.025000
37.033333	1	-0.024750
37.050000	1	-0.025125
37.066667	1	-0.025375
37.083333	1	-0.025875
37.100000	1	-0.026250
37.116667	1	-0.026250
37.133333	1	-0.027375
37.150000	1	-0.027750
37.166667	1	-0.028000
37.183333	1	-0.028750
37.200000	1	-0.029000
37.216667	1	-0.029875
37.233333	1	-0.031250
37.250000	1	-0.032125
37.266667	1	-0.032875
37.283333	1	-0.033000
37.300000	1	-0.033500
37.316667	1	-0.034375
37.333333	1	-0.034750
37.350000	1	-0.035250
37.366667	1	-0.035375
37.383333	1	-0.036250
37.400000	1	-0.036000
37.416667	1	-0.036500
37.433333	1	-0.037250
37.450000	1	-0.038250
37.466667	1	-0.038625
37.483333	1	-0.038750
37.500000	1	-0.039250
37.516667	1	-0.040000
37.533333	1	-0.041125
37.550000	1	-0.041875
37.566667	1	-0.042250
37.583333	1	-0.042875
37.600000	1	-0.045250
37.616667	1	-0.046125
37.633333	1	-0.046750
37.650000	1	-0.047750
37.666667	1	-0.049000
37.683333	1	-0.049625
37.700000	1	-0.050375
37.716667	1	-0.051125
37.733333	1	-0.052250
37.750000	1	-0.053500
37.766667	1	-0.054125
37.783333	1	-0.055500
37.800000	1	-0.057500
37.816667	1	-0.058625
37.833333	1	-0.059750
37.850000	1	-0.060500
37.866667	1	-0.061750
37.883333	1	-0.063125
37.900000	1	-0.063875
37.916667	1	-0.065000
37.933333	1	-0.065500
37.950000	1	-0.066875
37.966667	1	-0.067750
37.983333	1	-0.069125
38.000000	1	-0.069500
38.016667	1	-0.069875
38.033333	1	-0.070625
38.050000	1	-0.071625
38.066667	1	-0.072750
38.083333	1	-0.073750
38.100000	1	-0.074250
38.116667	1	-0.074500
38.133333	1	-0.074750
38.150000	1	-0.075250
38.166667	1	-0.075875
38.183333	1	-0.076750
38.200000	1	-0.077875
38.216667	1	-0.079250
38.233333	1	-0.080250
38.250000	1	-0.081000
38.266667	1	-0.081500
38.283333	1	-0.082250
38.300000	1	-0.083375
38.316667	1	-0.084000
38.333333	1	-0.084625
38.350000	1	-0.085125
38.366667	1	-0.085750
38.383333	1	-0.086625
38.400000	1	-0.087125
38.416667	1	-0.087250
38.433333	1	-0.087500
38.450000	1	-0.087625
38.466667	1	-0.086500
38.483333	1	-0.085625
38.500000	1	-0.084750
38.516667	1	-0.083750
38.533333	1	-0.082375
38.550000	1	-0.081250
38.566667	1	-0.080125
38.583333	1	-0.078500
38.600000	1	-0.076875
38.616667	1	-0.074875
38.633333	1	-0.072625
38.650000	1	-0.070250
38.666667	1	-0.067875
38.683333	1	-0.066000
38.700000	1	-0.064125
38.716667	1	-0.061500
38.733333	1	-0.058250
38.750000	1	-0.055750
38.766667	1	-0.052750
38.783333	1	-0.050625
38.800000	1	-0.048125
38.816667	1	-0.045750
38.833333	1	-0.043750
38.850000	1	-0.041000
38.866667	1	-0.039250
38.883333	1	-0.036750
38.900000	1	-0.034625
38.916667	1	-0.032250
38.933333	1	-0.030625
38.950000	1	-0.029375
38.966667	1	-0.028625
38.983333	1	-0.027500
39.000000	1	-0.026625
39.016667	1	-0.026250
39.033333	1	-0.025625
39.050000	1	-0.026000
39.066667	1	-0.025875
39.083333	1	-0.025750
39.100000	1	-0.025375
39.116667	1	-0.026125
39.133333	1	-0.027125
39.150000	1	-0.028750
39.166667	1	-0.029250
39.183333	1	-0.031000
39.200000	1	-0.032750
39.216667	1	-0.033875
39.233333	1	-0.036375
39.250000	1	-0.038250
39.266667	1	-0.040250
39.283333	1	-0.042250
39.300000	1	-0.044250
39.316667	1	-0.046625
39.333333	1	-0.048625
39.350000	1	-0.051250
39.366667	1	-0.053250
39.383333	1	-0.056000
39.400000	1	-0.058500
39.416667	1	-0.061500
39.433333	1	-0.064125
39.450000	1	-0.066375
39.466667	1	-0.068500
39.483333	1	-0.070750
39.500000	1	-0.072875
39.516667	1	-0.075500
39.533333	1	-0.078250
39.550000	1	-0.079875
39.566667	1	-0.082000
39.583333	1	-0.084125
39.600000	1	-0.086625
39.616667	1	-0.089000
39.633333	1	-0.090750
39.650000	1	-0.092500
39.666667	1	-0.094000
39.683333	1	-0.095500
39.700000	1	-0.098625
39.716667	1	-0.100500
39.733333	1	-0.102000
39.750000	1	-0.103250
39.766667	1	-0.104875
39.783333	1	-0.106625
39.800000	1	-0.107625
39.816667	1	-0.108375
39.833333	1	-0.109875
39.850000	1	-0.110750
39.866667	1	-0.111250
39.883333	1	-0.111750
39.900000	1	-0.112750
39.916667	1	-0.114500
39.933333	1	-0.115375
39.950000	1	-0.116125
39.966667	1	-0.116500
39.983333	1	-0.116750
40.000000	1	-0.117250
