URL	chrom://bioreactor/micro_cm7/HPLC_Ultimate_3000/Users/markusar/20240708_MA_pHrange1.seq/647.smp/RI_1.channel/RI_1.chm
Channel	RI_1

Injection Information:
Data Vault	micro_cm7
Sequence	20240708_MA_pHrange1
Name	Pv3_6.5_1
Number	12
Position	BA12
Comment	
Processing Method	
Instrument Method	run_25B_method
Type	Unknown
Status	Finished
Inject Time	08.07.2024 23:05:09 +02:00
Volume (µl)	20.0000
Dilution Factor	1.0000
Weight	1.0000

Chromatogram Data Information:
Time Min. (min)	0.000000
Time Max. (min)	40.000000
Data Points	2401
Detector	RI
Generating Data System	Chromeleon 7.3.2.11814
Exporting Data System	Chromeleon 7.3.2.0
Operator	Instrument Controller
Signal Quantity	Refractive 
Signal Unit	µRIU
Signal Min.	-0.088375
Signal Max.	82.110500
Channel	RI_1
Driver Name	RID520Driver.dll
Channel Type	Evaluation
Min. Step (s)	1
Max. Step (s)	1
Average Step (s)	1

Signal Parameter Information:
Signal Info	

Chromatogram Data:
Time (min)	Step (s)	Value (µRIU)
0.000000	n.a.	-0.010625
0.016667	1	-0.010125
0.033333	1	-0.010000
0.050000	1	-0.009625
0.066667	1	-0.009500
0.083333	1	-0.009250
0.100000	1	-0.009250
0.116667	1	-0.008875
0.133333	1	-0.008375
0.150000	1	-0.008500
0.166667	1	-0.007500
0.183333	1	-0.007000
0.200000	1	-0.006125
0.216667	1	-0.005750
0.233333	1	-0.004625
0.250000	1	-0.004500
0.266667	1	-0.004500
0.283333	1	-0.003750
0.300000	1	-0.003125
0.316667	1	-0.003125
0.333333	1	-0.003125
0.350000	1	-0.003750
0.366667	1	-0.004500
0.383333	1	-0.005250
0.400000	1	-0.006000
0.416667	1	-0.005500
0.433333	1	-0.004000
0.450000	1	-0.003125
0.466667	1	-0.001500
0.483333	1	-0.001250
0.500000	1	-0.000500
0.516667	1	-0.000875
0.533333	1	-0.001125
0.550000	1	-0.002500
0.566667	1	-0.004875
0.583333	1	-0.007750
0.600000	1	-0.011250
0.616667	1	-0.015000
0.633333	1	-0.017625
0.650000	1	-0.020500
0.666667	1	-0.022500
0.683333	1	-0.024625
0.700000	1	-0.027500
0.716667	1	-0.030000
0.733333	1	-0.032250
0.750000	1	-0.034000
0.766667	1	-0.036125
0.783333	1	-0.038375
0.800000	1	-0.040000
0.816667	1	-0.042250
0.833333	1	-0.044250
0.850000	1	-0.046625
0.866667	1	-0.048375
0.883333	1	-0.050000
0.900000	1	-0.052000
0.916667	1	-0.053125
0.933333	1	-0.055625
0.950000	1	-0.057125
0.966667	1	-0.058750
0.983333	1	-0.060500
1.000000	1	-0.061750
1.016667	1	-0.062500
1.033333	1	-0.063125
1.050000	1	-0.063875
1.066667	1	-0.064375
1.083333	1	-0.064750
1.100000	1	-0.065750
1.116667	1	-0.066625
1.133333	1	-0.068000
1.150000	1	-0.068625
1.166667	1	-0.069375
1.183333	1	-0.069875
1.200000	1	-0.070625
1.216667	1	-0.071250
1.233333	1	-0.072625
1.250000	1	-0.072250
1.266667	1	-0.073125
1.283333	1	-0.074250
1.300000	1	-0.074875
1.316667	1	-0.076375
1.333333	1	-0.077875
1.350000	1	-0.078875
1.366667	1	-0.079375
1.383333	1	-0.080875
1.400000	1	-0.082000
1.416667	1	-0.082500
1.433333	1	-0.083625
1.450000	1	-0.084375
1.466667	1	-0.085875
1.483333	1	-0.086750
1.500000	1	-0.087750
1.516667	1	-0.088125
1.533333	1	-0.088375
1.550000	1	-0.088375
1.566667	1	-0.088000
1.583333	1	-0.088000
1.600000	1	-0.087375
1.616667	1	-0.086875
1.633333	1	-0.086250
1.650000	1	-0.085375
1.666667	1	-0.084125
1.683333	1	-0.082500
1.700000	1	-0.081000
1.716667	1	-0.078750
1.733333	1	-0.076500
1.750000	1	-0.075000
1.766667	1	-0.072625
1.783333	1	-0.069875
1.800000	1	-0.066750
1.816667	1	-0.063750
1.833333	1	-0.060625
1.850000	1	-0.057750
1.866667	1	-0.054250
1.883333	1	-0.050625
1.900000	1	-0.048000
1.916667	1	-0.044625
1.933333	1	-0.041625
1.950000	1	-0.038250
1.966667	1	-0.035250
1.983333	1	-0.032000
2.000000	1	-0.029375
2.016667	1	-0.027125
2.033333	1	-0.024125
2.050000	1	-0.021000
2.066667	1	-0.018500
2.083333	1	-0.016500
2.100000	1	-0.015125
2.116667	1	-0.013375
2.133333	1	-0.012000
2.150000	1	-0.011000
2.166667	1	-0.010125
2.183333	1	-0.009000
2.200000	1	-0.007750
2.216667	1	-0.007375
2.233333	1	-0.007250
2.250000	1	-0.007000
2.266667	1	-0.006875
2.283333	1	-0.006750
2.300000	1	-0.007125
2.316667	1	-0.007500
2.333333	1	-0.007500
2.350000	1	-0.007875
2.366667	1	-0.008750
2.383333	1	-0.009625
2.400000	1	-0.010625
2.416667	1	-0.010625
2.433333	1	-0.010875
2.450000	1	-0.011750
2.466667	1	-0.012625
2.483333	1	-0.013750
2.500000	1	-0.014500
2.516667	1	-0.015000
2.533333	1	-0.015625
2.550000	1	-0.017000
2.566667	1	-0.017750
2.583333	1	-0.018000
2.600000	1	-0.018250
2.616667	1	-0.019375
2.633333	1	-0.019625
2.650000	1	-0.020500
2.666667	1	-0.020375
2.683333	1	-0.021375
2.700000	1	-0.021500
2.716667	1	-0.022125
2.733333	1	-0.022375
2.750000	1	-0.022125
2.766667	1	-0.022375
2.783333	1	-0.022500
2.800000	1	-0.023125
2.816667	1	-0.023875
2.833333	1	-0.025250
2.850000	1	-0.025000
2.866667	1	-0.026250
2.883333	1	-0.026750
2.900000	1	-0.027250
2.916667	1	-0.028000
2.933333	1	-0.028000
2.950000	1	-0.028750
2.966667	1	-0.029000
2.983333	1	-0.029125
3.000000	1	-0.029500
3.016667	1	-0.030750
3.033333	1	-0.031375
3.050000	1	-0.031500
3.066667	1	-0.032250
3.083333	1	-0.032625
3.100000	1	-0.032625
3.116667	1	-0.033625
3.133333	1	-0.034125
3.150000	1	-0.035625
3.166667	1	-0.035750
3.183333	1	-0.035750
3.200000	1	-0.036125
3.216667	1	-0.036125
3.233333	1	-0.035500
3.250000	1	-0.035625
3.266667	1	-0.035750
3.283333	1	-0.036375
3.300000	1	-0.036500
3.316667	1	-0.036000
3.333333	1	-0.035750
3.350000	1	-0.035500
3.366667	1	-0.034625
3.383333	1	-0.034125
3.400000	1	-0.034500
3.416667	1	-0.033375
3.433333	1	-0.032500
3.450000	1	-0.032500
3.466667	1	-0.031250
3.483333	1	-0.030125
3.500000	1	-0.029750
3.516667	1	-0.028875
3.533333	1	-0.028125
3.550000	1	-0.026625
3.566667	1	-0.025375
3.583333	1	-0.023750
3.600000	1	-0.022000
3.616667	1	-0.020000
3.633333	1	-0.018500
3.650000	1	-0.016750
3.666667	1	-0.014875
3.683333	1	-0.012125
3.700000	1	-0.010500
3.716667	1	-0.009125
3.733333	1	-0.007500
3.750000	1	-0.005125
3.766667	1	-0.003750
3.783333	1	-0.002125
3.800000	1	-0.000500
3.816667	1	0.001000
3.833333	1	0.002500
3.850000	1	0.003750
3.866667	1	0.005375
3.883333	1	0.007250
3.900000	1	0.008375
3.916667	1	0.009500
3.933333	1	0.011000
3.950000	1	0.012125
3.966667	1	0.013125
3.983333	1	0.014250
4.000000	1	0.015000
4.016667	1	0.015875
4.033333	1	0.017000
4.050000	1	0.017875
4.066667	1	0.018625
4.083333	1	0.019500
4.100000	1	0.019625
4.116667	1	0.020125
4.133333	1	0.021500
4.150000	1	0.023250
4.166667	1	0.024125
4.183333	1	0.024875
4.200000	1	0.025750
4.216667	1	0.026625
4.233333	1	0.027625
4.250000	1	0.028750
4.266667	1	0.029875
4.283333	1	0.031000
4.300000	1	0.032375
4.316667	1	0.033125
4.333333	1	0.034000
4.350000	1	0.035375
4.366667	1	0.037125
4.383333	1	0.039250
4.400000	1	0.040875
4.416667	1	0.042125
4.433333	1	0.043125
4.450000	1	0.044125
4.466667	1	0.045125
4.483333	1	0.046750
4.500000	1	0.048375
4.516667	1	0.049500
4.533333	1	0.051250
4.550000	1	0.052250
4.566667	1	0.052625
4.583333	1	0.054125
4.600000	1	0.055250
4.616667	1	0.056125
4.633333	1	0.057750
4.650000	1	0.058500
4.666667	1	0.059250
4.683333	1	0.059875
4.700000	1	0.060500
4.716667	1	0.061375
4.733333	1	0.062250
4.750000	1	0.062625
4.766667	1	0.063125
4.783333	1	0.063250
4.800000	1	0.064250
4.816667	1	0.065875
4.833333	1	0.066375
4.850000	1	0.067625
4.866667	1	0.068375
4.883333	1	0.069625
4.900000	1	0.071375
4.916667	1	0.073375
4.933333	1	0.075875
4.950000	1	0.077875
4.966667	1	0.080250
4.983333	1	0.083625
5.000000	1	0.087375
5.016667	1	0.091375
5.033333	1	0.094500
5.050000	1	0.098750
5.066667	1	0.103625
5.083333	1	0.107375
5.100000	1	0.112250
5.116667	1	0.117875
5.133333	1	0.123000
5.150000	1	0.128375
5.166667	1	0.134375
5.183333	1	0.140625
5.200000	1	0.146875
5.216667	1	0.152875
5.233333	1	0.159000
5.250000	1	0.165125
5.266667	1	0.170625
5.283333	1	0.176500
5.300000	1	0.182375
5.316667	1	0.188000
5.333333	1	0.193000
5.350000	1	0.198250
5.366667	1	0.203000
5.383333	1	0.208125
5.400000	1	0.212250
5.416667	1	0.217000
5.433333	1	0.221375
5.450000	1	0.225000
5.466667	1	0.229250
5.483333	1	0.232625
5.500000	1	0.235125
5.516667	1	0.237625
5.533333	1	0.239375
5.550000	1	0.240375
5.566667	1	0.241375
5.583333	1	0.243375
5.600000	1	0.244000
5.616667	1	0.244375
5.633333	1	0.245125
5.650000	1	0.244125
5.666667	1	0.243375
5.683333	1	0.242750
5.700000	1	0.241250
5.716667	1	0.239375
5.733333	1	0.237625
5.750000	1	0.235250
5.766667	1	0.233375
5.783333	1	0.230875
5.800000	1	0.228125
5.816667	1	0.225250
5.833333	1	0.222000
5.850000	1	0.218750
5.866667	1	0.215000
5.883333	1	0.211250
5.900000	1	0.207250
5.916667	1	0.203625
5.933333	1	0.200125
5.950000	1	0.196000
5.966667	1	0.191500
5.983333	1	0.188000
6.000000	1	0.183375
6.016667	1	0.179500
6.033333	1	0.175125
6.050000	1	0.170625
6.066667	1	0.165875
6.083333	1	0.161500
6.100000	1	0.157375
6.116667	1	0.152500
6.133333	1	0.148000
6.150000	1	0.143750
6.166667	1	0.138500
6.183333	1	0.133625
6.200000	1	0.130125
6.216667	1	0.126000
6.233333	1	0.121250
6.250000	1	0.116625
6.266667	1	0.112125
6.283333	1	0.107875
6.300000	1	0.101875
6.316667	1	0.096875
6.333333	1	0.092250
6.350000	1	0.088000
6.366667	1	0.083875
6.383333	1	0.078875
6.400000	1	0.074250
6.416667	1	0.070000
6.433333	1	0.065875
6.450000	1	0.061250
6.466667	1	0.057125
6.483333	1	0.052125
6.500000	1	0.047125
6.516667	1	0.042750
6.533333	1	0.039125
6.550000	1	0.035375
6.566667	1	0.030875
6.583333	1	0.026500
6.600000	1	0.023000
6.616667	1	0.020125
6.633333	1	0.017500
6.650000	1	0.013875
6.666667	1	0.011250
6.683333	1	0.008125
6.700000	1	0.006625
6.716667	1	0.004250
6.733333	1	0.002750
6.750000	1	0.001000
6.766667	1	-0.000250
6.783333	1	-0.001500
6.800000	1	-0.002500
6.816667	1	-0.002750
6.833333	1	-0.002875
6.850000	1	-0.002875
6.866667	1	-0.002750
6.883333	1	-0.002750
6.900000	1	-0.002500
6.916667	1	-0.001875
6.933333	1	-0.000125
6.950000	1	0.002250
6.966667	1	0.003625
6.983333	1	0.005750
7.000000	1	0.008125
7.016667	1	0.010625
7.033333	1	0.013125
7.050000	1	0.015875
7.066667	1	0.019250
7.083333	1	0.023500
7.100000	1	0.027375
7.116667	1	0.030625
7.133333	1	0.034375
7.150000	1	0.039750
7.166667	1	0.044000
7.183333	1	0.048625
7.200000	1	0.052875
7.216667	1	0.056625
7.233333	1	0.061125
7.250000	1	0.065625
7.266667	1	0.070500
7.283333	1	0.074625
7.300000	1	0.078875
7.316667	1	0.082875
7.333333	1	0.086250
7.350000	1	0.090250
7.366667	1	0.094500
7.383333	1	0.097375
7.400000	1	0.100375
7.416667	1	0.102500
7.433333	1	0.104875
7.450000	1	0.107375
7.466667	1	0.108500
7.483333	1	0.109250
7.500000	1	0.109875
7.516667	1	0.109625
7.533333	1	0.109250
7.550000	1	0.108625
7.566667	1	0.107750
7.583333	1	0.106125
7.600000	1	0.105125
7.616667	1	0.102875
7.633333	1	0.100125
7.650000	1	0.097875
7.666667	1	0.094500
7.683333	1	0.091125
7.700000	1	0.087250
7.716667	1	0.083625
7.733333	1	0.080000
7.750000	1	0.076250
7.766667	1	0.072250
7.783333	1	0.068000
7.800000	1	0.063500
7.816667	1	0.059250
7.833333	1	0.055125
7.850000	1	0.050375
7.866667	1	0.046125
7.883333	1	0.042625
7.900000	1	0.038875
7.916667	1	0.034375
7.933333	1	0.031125
7.950000	1	0.027375
7.966667	1	0.024125
7.983333	1	0.021375
8.000000	1	0.017625
8.016667	1	0.014750
8.033333	1	0.012500
8.050000	1	0.010500
8.066667	1	0.008250
8.083333	1	0.005750
8.100000	1	0.003500
8.116667	1	0.002750
8.133333	1	0.001250
8.150000	1	-0.000875
8.166667	1	-0.002125
8.183333	1	-0.003625
8.200000	1	-0.005625
8.216667	1	-0.007250
8.233333	1	-0.008375
8.250000	1	-0.009125
8.266667	1	-0.010375
8.283333	1	-0.012375
8.300000	1	-0.014125
8.316667	1	-0.015500
8.333333	1	-0.017000
8.350000	1	-0.017500
8.366667	1	-0.018250
8.383333	1	-0.019000
8.400000	1	-0.019875
8.416667	1	-0.021375
8.433333	1	-0.021875
8.450000	1	-0.022750
8.466667	1	-0.023125
8.483333	1	-0.023750
8.500000	1	-0.024250
8.516667	1	-0.024125
8.533333	1	-0.024000
8.550000	1	-0.023750
8.566667	1	-0.023875
8.583333	1	-0.023750
8.600000	1	-0.023375
8.616667	1	-0.023250
8.633333	1	-0.023500
8.650000	1	-0.023125
8.666667	1	-0.022875
8.683333	1	-0.022000
8.700000	1	-0.021250
8.716667	1	-0.021000
8.733333	1	-0.019625
8.750000	1	-0.019125
8.766667	1	-0.019000
8.783333	1	-0.017625
8.800000	1	-0.017250
8.816667	1	-0.016500
8.833333	1	-0.015875
8.850000	1	-0.015500
8.866667	1	-0.014375
8.883333	1	-0.013500
8.900000	1	-0.013000
8.916667	1	-0.011875
8.933333	1	-0.011625
8.950000	1	-0.010875
8.966667	1	-0.010125
8.983333	1	-0.010500
9.000000	1	-0.010250
9.016667	1	-0.009500
9.033333	1	-0.009625
9.050000	1	-0.009250
9.066667	1	-0.009250
9.083333	1	-0.008875
9.100000	1	-0.008625
9.116667	1	-0.008625
9.133333	1	-0.009000
9.150000	1	-0.009000
9.166667	1	-0.009375
9.183333	1	-0.009875
9.200000	1	-0.010500
9.216667	1	-0.011375
9.233333	1	-0.011500
9.250000	1	-0.012500
9.266667	1	-0.013500
9.283333	1	-0.014125
9.300000	1	-0.014375
9.316667	1	-0.015250
9.333333	1	-0.016000
9.350000	1	-0.016000
9.366667	1	-0.017125
9.383333	1	-0.017750
9.400000	1	-0.018250
9.416667	1	-0.019875
9.433333	1	-0.020750
9.450000	1	-0.021625
9.466667	1	-0.022375
9.483333	1	-0.023125
9.500000	1	-0.023500
9.516667	1	-0.023750
9.533333	1	-0.023875
9.550000	1	-0.024375
9.566667	1	-0.025500
9.583333	1	-0.026500
9.600000	1	-0.026875
9.616667	1	-0.027750
9.633333	1	-0.028125
9.650000	1	-0.028125
9.666667	1	-0.028750
9.683333	1	-0.028250
9.700000	1	-0.028625
9.716667	1	-0.029125
9.733333	1	-0.029125
9.750000	1	-0.029250
9.766667	1	-0.030000
9.783333	1	-0.030250
9.800000	1	-0.029500
9.816667	1	-0.030000
9.833333	1	-0.029875
9.850000	1	-0.030000
9.866667	1	-0.030000
9.883333	1	-0.030000
9.900000	1	-0.030125
9.916667	1	-0.030375
9.933333	1	-0.030875
9.950000	1	-0.031000
9.966667	1	-0.031500
9.983333	1	-0.032375
10.000000	1	-0.033250
10.016667	1	-0.033875
10.033333	1	-0.034625
10.050000	1	-0.035625
10.066667	1	-0.035875
10.083333	1	-0.035625
10.100000	1	-0.033750
10.116667	1	-0.031250
10.133333	1	-0.027125
10.150000	1	-0.022000
10.166667	1	-0.015750
10.183333	1	-0.007750
10.200000	1	0.001500
10.216667	1	0.012375
10.233333	1	0.025625
10.250000	1	0.040250
10.266667	1	0.058750
10.283333	1	0.078500
10.300000	1	0.101375
10.316667	1	0.127125
10.333333	1	0.155500
10.350000	1	0.185500
10.366667	1	0.216750
10.383333	1	0.246875
10.400000	1	0.273000
10.416667	1	0.291625
10.433333	1	0.299500
10.450000	1	0.292125
10.466667	1	0.268500
10.483333	1	0.232125
10.500000	1	0.193625
10.516667	1	0.175375
10.533333	1	0.217250
10.550000	1	0.375125
10.566667	1	0.719250
10.583333	1	1.327500
10.600000	1	2.276875
10.616667	1	3.635000
10.633333	1	5.452875
10.650000	1	7.764750
10.666667	1	10.586250
10.683333	1	13.916250
10.700000	1	17.734375
10.716667	1	21.992375
10.733333	1	26.611750
10.750000	1	31.470500
10.766667	1	36.383250
10.783333	1	41.093750
10.800000	1	45.259000
10.816667	1	48.466875
10.833333	1	50.298500
10.850000	1	50.436625
10.866667	1	48.773500
10.883333	1	45.472375
10.900000	1	40.941625
10.916667	1	35.719750
10.933333	1	30.334625
10.950000	1	25.198125
10.966667	1	20.574500
10.983333	1	16.586875
11.000000	1	13.260000
11.016667	1	10.554500
11.033333	1	8.400250
11.050000	1	6.711875
11.066667	1	5.404625
11.083333	1	4.400250
11.100000	1	3.632500
11.116667	1	3.046375
11.133333	1	2.598250
11.150000	1	2.253125
11.166667	1	1.986750
11.183333	1	1.778000
11.200000	1	1.613125
11.216667	1	1.480750
11.233333	1	1.372500
11.250000	1	1.284250
11.266667	1	1.210000
11.283333	1	1.147500
11.300000	1	1.095125
11.316667	1	1.049750
11.333333	1	1.011375
11.350000	1	0.977875
11.366667	1	0.948500
11.383333	1	0.922125
11.400000	1	0.899875
11.416667	1	0.880500
11.433333	1	0.863625
11.450000	1	0.848875
11.466667	1	0.836250
11.483333	1	0.825000
11.500000	1	0.815500
11.516667	1	0.807375
11.533333	1	0.800250
11.550000	1	0.794625
11.566667	1	0.790500
11.583333	1	0.787125
11.600000	1	0.784625
11.616667	1	0.783375
11.633333	1	0.784250
11.650000	1	0.786125
11.666667	1	0.788500
11.683333	1	0.792250
11.700000	1	0.798000
11.716667	1	0.804500
11.733333	1	0.811375
11.750000	1	0.819750
11.766667	1	0.829250
11.783333	1	0.838875
11.800000	1	0.848750
11.816667	1	0.858250
11.833333	1	0.868625
11.850000	1	0.876875
11.866667	1	0.885875
11.883333	1	0.893125
11.900000	1	0.898875
11.916667	1	0.905000
11.933333	1	0.909875
11.950000	1	0.914625
11.966667	1	0.919000
11.983333	1	0.922750
12.000000	1	0.926625
12.016667	1	0.930625
12.033333	1	0.934000
12.050000	1	0.938250
12.066667	1	0.943250
12.083333	1	0.948625
12.100000	1	0.954750
12.116667	1	0.961000
12.133333	1	0.967750
12.150000	1	0.975000
12.166667	1	0.983250
12.183333	1	0.992500
12.200000	1	1.003375
12.216667	1	1.016000
12.233333	1	1.030625
12.250000	1	1.049000
12.266667	1	1.072250
12.283333	1	1.101375
12.300000	1	1.138750
12.316667	1	1.186750
12.333333	1	1.247625
12.350000	1	1.325750
12.366667	1	1.423125
12.383333	1	1.546500
12.400000	1	1.700000
12.416667	1	1.887625
12.433333	1	2.113625
12.450000	1	2.383375
12.466667	1	2.702000
12.483333	1	3.074750
12.500000	1	3.503625
12.516667	1	3.990500
12.533333	1	4.536750
12.550000	1	5.139000
12.566667	1	5.791125
12.583333	1	6.484625
12.600000	1	7.208000
12.616667	1	7.947500
12.633333	1	8.687250
12.650000	1	9.414125
12.666667	1	10.115625
12.683333	1	10.781750
12.700000	1	11.407750
12.716667	1	11.991625
12.733333	1	12.536875
12.750000	1	13.051000
12.766667	1	13.542250
12.783333	1	14.024125
12.800000	1	14.506500
12.816667	1	14.997000
12.833333	1	15.506250
12.850000	1	16.040125
12.866667	1	16.603625
12.883333	1	17.199250
12.900000	1	17.827250
12.916667	1	18.488250
12.933333	1	19.180250
12.950000	1	19.901500
12.966667	1	20.650375
12.983333	1	21.425875
13.000000	1	22.225375
13.016667	1	23.047500
13.033333	1	23.892750
13.050000	1	24.760000
13.066667	1	25.648375
13.083333	1	26.558875
13.100000	1	27.489500
13.116667	1	28.440125
13.133333	1	29.409375
13.150000	1	30.398500
13.166667	1	31.406125
13.183333	1	32.433625
13.200000	1	33.478750
13.216667	1	34.542875
13.233333	1	35.626500
13.250000	1	36.730250
13.266667	1	37.854625
13.283333	1	39.001500
13.300000	1	40.170375
13.316667	1	41.362375
13.333333	1	42.577500
13.350000	1	43.815750
13.366667	1	45.077875
13.383333	1	46.364625
13.400000	1	47.675000
13.416667	1	49.010000
13.433333	1	50.371375
13.450000	1	51.761000
13.466667	1	53.180250
13.483333	1	54.629750
13.500000	1	56.109750
13.516667	1	57.619500
13.533333	1	59.160250
13.550000	1	60.731750
13.566667	1	62.335000
13.583333	1	63.971125
13.600000	1	65.637500
13.616667	1	67.338125
13.633333	1	69.075000
13.650000	1	70.849500
13.666667	1	72.662500
13.683333	1	74.512625
13.700000	1	76.390250
13.716667	1	78.252875
13.733333	1	79.984375
13.750000	1	81.370625
13.766667	1	82.110500
13.783333	1	81.877500
13.800000	1	80.361875
13.816667	1	77.289250
13.833333	1	72.472250
13.850000	1	65.932250
13.866667	1	58.029000
13.883333	1	49.441625
13.900000	1	40.962875
13.916667	1	33.245125
13.933333	1	26.641250
13.950000	1	21.232250
13.966667	1	16.927000
13.983333	1	13.563625
14.000000	1	10.971375
14.016667	1	8.997000
14.033333	1	7.511000
14.050000	1	6.404750
14.066667	1	5.586250
14.083333	1	4.981500
14.100000	1	4.531625
14.116667	1	4.193000
14.133333	1	3.934125
14.150000	1	3.731750
14.166667	1	3.569875
14.183333	1	3.436875
14.200000	1	3.326000
14.216667	1	3.232375
14.233333	1	3.150000
14.250000	1	3.077375
14.266667	1	3.012375
14.283333	1	2.954375
14.300000	1	2.901375
14.316667	1	2.853625
14.333333	1	2.811000
14.350000	1	2.773875
14.366667	1	2.742250
14.383333	1	2.717000
14.400000	1	2.698625
14.416667	1	2.690750
14.433333	1	2.694750
14.450000	1	2.715000
14.466667	1	2.757000
14.483333	1	2.829625
14.500000	1	2.944625
14.516667	1	3.120500
14.533333	1	3.379875
14.550000	1	3.755000
14.566667	1	4.287500
14.583333	1	5.029625
14.600000	1	6.044250
14.616667	1	7.407000
14.633333	1	9.200750
14.650000	1	11.509875
14.666667	1	14.409625
14.683333	1	17.962875
14.700000	1	22.196500
14.716667	1	27.096750
14.733333	1	32.603750
14.750000	1	38.600125
14.766667	1	44.908500
14.783333	1	51.292625
14.800000	1	57.491750
14.816667	1	63.219000
14.833333	1	68.190875
14.850000	1	72.143750
14.866667	1	74.869750
14.883333	1	76.232375
14.900000	1	76.182500
14.916667	1	74.757375
14.933333	1	72.079750
14.950000	1	68.337625
14.966667	1	63.766125
14.983333	1	58.623500
15.000000	1	53.157875
15.016667	1	47.595875
15.033333	1	42.131875
15.050000	1	36.921750
15.066667	1	32.076875
15.083333	1	27.670000
15.100000	1	23.737750
15.116667	1	20.283125
15.133333	1	17.287750
15.150000	1	14.719625
15.166667	1	12.538000
15.183333	1	10.699000
15.200000	1	9.157750
15.216667	1	7.872875
15.233333	1	6.805375
15.250000	1	5.923875
15.266667	1	5.198375
15.283333	1	4.604250
15.300000	1	4.121000
15.316667	1	3.730500
15.333333	1	3.418750
15.350000	1	3.171375
15.366667	1	2.978125
15.383333	1	2.828875
15.400000	1	2.716000
15.416667	1	2.632875
15.433333	1	2.572500
15.450000	1	2.528875
15.466667	1	2.496000
15.483333	1	2.470500
15.500000	1	2.447750
15.516667	1	2.423875
15.533333	1	2.398875
15.550000	1	2.369875
15.566667	1	2.336375
15.583333	1	2.299625
15.600000	1	2.261000
15.616667	1	2.220750
15.633333	1	2.179875
15.650000	1	2.139750
15.666667	1	2.101250
15.683333	1	2.064750
15.700000	1	2.030750
15.716667	1	1.998250
15.733333	1	1.966500
15.750000	1	1.936000
15.766667	1	1.904500
15.783333	1	1.873500
15.800000	1	1.841375
15.816667	1	1.808375
15.833333	1	1.775625
15.850000	1	1.742500
15.866667	1	1.709000
15.883333	1	1.677000
15.900000	1	1.646750
15.916667	1	1.619875
15.933333	1	1.595750
15.950000	1	1.575875
15.966667	1	1.558500
15.983333	1	1.546000
16.000000	1	1.536000
16.016667	1	1.528625
16.033333	1	1.522750
16.050000	1	1.518250
16.066667	1	1.514125
16.083333	1	1.510625
16.100000	1	1.505625
16.116667	1	1.499125
16.133333	1	1.491875
16.150000	1	1.483125
16.166667	1	1.473125
16.183333	1	1.461125
16.200000	1	1.447875
16.216667	1	1.433250
16.233333	1	1.418125
16.250000	1	1.401750
16.266667	1	1.385000
16.283333	1	1.367500
16.300000	1	1.350250
16.316667	1	1.332375
16.333333	1	1.315500
16.350000	1	1.299250
16.366667	1	1.283875
16.383333	1	1.270375
16.400000	1	1.259125
16.416667	1	1.249125
16.433333	1	1.241625
16.450000	1	1.236875
16.466667	1	1.234250
16.483333	1	1.234125
16.500000	1	1.236125
16.516667	1	1.240000
16.533333	1	1.245375
16.550000	1	1.251625
16.566667	1	1.257250
16.583333	1	1.263000
16.600000	1	1.267500
16.616667	1	1.270500
16.633333	1	1.272125
16.650000	1	1.271875
16.666667	1	1.269625
16.683333	1	1.267000
16.700000	1	1.263375
16.716667	1	1.258875
16.733333	1	1.254750
16.750000	1	1.251375
16.766667	1	1.249375
16.783333	1	1.248500
16.800000	1	1.248875
16.816667	1	1.250250
16.833333	1	1.252250
16.850000	1	1.254375
16.866667	1	1.257750
16.883333	1	1.260250
16.900000	1	1.262250
16.916667	1	1.262250
16.933333	1	1.260750
16.950000	1	1.258750
16.966667	1	1.255000
16.983333	1	1.250125
17.000000	1	1.244500
17.016667	1	1.237000
17.033333	1	1.228500
17.050000	1	1.220875
17.066667	1	1.212875
17.083333	1	1.205750
17.100000	1	1.199500
17.116667	1	1.193250
17.133333	1	1.187375
17.150000	1	1.184000
17.166667	1	1.180250
17.183333	1	1.177750
17.200000	1	1.177375
17.216667	1	1.177625
17.233333	1	1.177750
17.250000	1	1.179500
17.266667	1	1.181750
17.283333	1	1.183875
17.300000	1	1.187000
17.316667	1	1.190250
17.333333	1	1.194375
17.350000	1	1.198625
17.366667	1	1.203125
17.383333	1	1.207250
17.400000	1	1.211250
17.416667	1	1.214500
17.433333	1	1.216375
17.450000	1	1.217500
17.466667	1	1.218125
17.483333	1	1.216375
17.500000	1	1.213625
17.516667	1	1.208750
17.533333	1	1.202500
17.550000	1	1.194250
17.566667	1	1.184750
17.583333	1	1.173500
17.600000	1	1.161375
17.616667	1	1.147750
17.633333	1	1.133875
17.650000	1	1.118875
17.666667	1	1.103125
17.683333	1	1.087125
17.700000	1	1.071625
17.716667	1	1.055750
17.733333	1	1.040250
17.750000	1	1.025250
17.766667	1	1.010625
17.783333	1	0.997000
17.800000	1	0.983125
17.816667	1	0.970500
17.833333	1	0.958625
17.850000	1	0.948625
17.866667	1	0.938750
17.883333	1	0.929625
17.900000	1	0.921500
17.916667	1	0.913250
17.933333	1	0.905875
17.950000	1	0.898250
17.966667	1	0.890250
17.983333	1	0.883500
18.000000	1	0.877250
18.016667	1	0.870125
18.033333	1	0.862875
18.050000	1	0.856875
18.066667	1	0.850625
18.083333	1	0.844375
18.100000	1	0.838125
18.116667	1	0.831875
18.133333	1	0.826875
18.150000	1	0.822000
18.166667	1	0.818875
18.183333	1	0.816750
18.200000	1	0.814875
18.216667	1	0.814125
18.233333	1	0.813625
18.250000	1	0.814125
18.266667	1	0.814500
18.283333	1	0.815500
18.300000	1	0.817000
18.316667	1	0.818125
18.333333	1	0.819750
18.350000	1	0.822125
18.366667	1	0.825375
18.383333	1	0.828625
18.400000	1	0.832625
18.416667	1	0.837500
18.433333	1	0.843250
18.450000	1	0.850250
18.466667	1	0.858625
18.483333	1	0.868750
18.500000	1	0.880250
18.516667	1	0.893375
18.533333	1	0.909125
18.550000	1	0.925750
18.566667	1	0.944000
18.583333	1	0.964375
18.600000	1	0.986875
18.616667	1	1.011500
18.633333	1	1.037500
18.650000	1	1.065000
18.666667	1	1.094250
18.683333	1	1.123875
18.700000	1	1.156250
18.716667	1	1.189250
18.733333	1	1.222500
18.750000	1	1.256000
18.766667	1	1.290625
18.783333	1	1.324625
18.800000	1	1.357625
18.816667	1	1.389875
18.833333	1	1.420625
18.850000	1	1.448375
18.866667	1	1.472500
18.883333	1	1.491875
18.900000	1	1.505125
18.916667	1	1.513500
18.933333	1	1.515125
18.950000	1	1.510500
18.966667	1	1.498625
18.983333	1	1.479250
19.000000	1	1.453375
19.016667	1	1.421875
19.033333	1	1.384375
19.050000	1	1.342500
19.066667	1	1.297250
19.083333	1	1.249500
19.100000	1	1.201250
19.116667	1	1.154625
19.133333	1	1.109875
19.150000	1	1.069375
19.166667	1	1.033375
19.183333	1	1.005500
19.200000	1	0.985625
19.216667	1	0.973750
19.233333	1	0.973250
19.250000	1	0.985625
19.266667	1	1.010000
19.283333	1	1.051000
19.300000	1	1.105625
19.316667	1	1.175000
19.333333	1	1.259375
19.350000	1	1.357750
19.366667	1	1.467875
19.383333	1	1.588500
19.400000	1	1.717875
19.416667	1	1.851375
19.433333	1	1.985250
19.450000	1	2.115125
19.466667	1	2.236750
19.483333	1	2.345625
19.500000	1	2.438125
19.516667	1	2.512250
19.533333	1	2.564125
19.550000	1	2.592625
19.566667	1	2.597125
19.583333	1	2.578000
19.600000	1	2.536125
19.616667	1	2.474250
19.633333	1	2.394625
19.650000	1	2.300625
19.666667	1	2.195500
19.683333	1	2.082000
19.700000	1	1.963000
19.716667	1	1.843875
19.733333	1	1.725000
19.750000	1	1.609250
19.766667	1	1.497750
19.783333	1	1.391125
19.800000	1	1.290500
19.816667	1	1.197875
19.833333	1	1.111875
19.850000	1	1.033750
19.866667	1	0.962375
19.883333	1	0.897500
19.900000	1	0.839250
19.916667	1	0.787625
19.933333	1	0.742375
19.950000	1	0.702500
19.966667	1	0.668000
19.983333	1	0.638125
20.000000	1	0.613750
20.016667	1	0.593750
20.033333	1	0.577875
20.050000	1	0.566125
20.066667	1	0.559250
20.083333	1	0.556000
20.100000	1	0.556500
20.116667	1	0.560750
20.133333	1	0.568000
20.150000	1	0.578125
20.166667	1	0.590000
20.183333	1	0.604750
20.200000	1	0.620625
20.216667	1	0.636250
20.233333	1	0.652125
20.250000	1	0.667500
20.266667	1	0.680625
20.283333	1	0.691625
20.300000	1	0.700000
20.316667	1	0.705750
20.333333	1	0.707875
20.350000	1	0.706250
20.366667	1	0.701000
20.383333	1	0.692875
20.400000	1	0.681750
20.416667	1	0.669000
20.433333	1	0.655000
20.450000	1	0.639375
20.466667	1	0.623625
20.483333	1	0.608500
20.500000	1	0.595875
20.516667	1	0.584875
20.533333	1	0.578250
20.550000	1	0.576375
20.566667	1	0.580125
20.583333	1	0.589125
20.600000	1	0.605500
20.616667	1	0.628250
20.633333	1	0.660375
20.650000	1	0.701500
20.666667	1	0.751125
20.683333	1	0.808875
20.700000	1	0.875125
20.716667	1	0.948875
20.733333	1	1.028375
20.750000	1	1.113250
20.766667	1	1.200000
20.783333	1	1.286250
20.800000	1	1.369625
20.816667	1	1.448250
20.833333	1	1.519250
20.850000	1	1.580500
20.866667	1	1.628625
20.883333	1	1.663000
20.900000	1	1.682625
20.916667	1	1.687125
20.933333	1	1.676250
20.950000	1	1.651250
20.966667	1	1.612625
20.983333	1	1.562375
21.000000	1	1.503000
21.016667	1	1.435875
21.033333	1	1.364000
21.050000	1	1.288875
21.066667	1	1.212750
21.083333	1	1.137250
21.100000	1	1.064375
21.116667	1	0.994375
21.133333	1	0.928000
21.150000	1	0.866750
21.166667	1	0.811250
21.183333	1	0.760625
21.200000	1	0.714375
21.216667	1	0.673500
21.233333	1	0.637875
21.250000	1	0.605625
21.266667	1	0.578500
21.283333	1	0.554375
21.300000	1	0.533125
21.316667	1	0.515125
21.333333	1	0.499125
21.350000	1	0.485750
21.366667	1	0.474375
21.383333	1	0.464375
21.400000	1	0.456125
21.416667	1	0.449375
21.433333	1	0.443000
21.450000	1	0.437000
21.466667	1	0.431500
21.483333	1	0.427000
21.500000	1	0.423375
21.516667	1	0.420125
21.533333	1	0.418500
21.550000	1	0.416625
21.566667	1	0.415375
21.583333	1	0.414750
21.600000	1	0.414625
21.616667	1	0.415875
21.633333	1	0.418125
21.650000	1	0.420000
21.666667	1	0.423125
21.683333	1	0.427375
21.700000	1	0.432375
21.716667	1	0.438375
21.733333	1	0.444625
21.750000	1	0.452000
21.766667	1	0.460750
21.783333	1	0.469875
21.800000	1	0.479500
21.816667	1	0.490000
21.833333	1	0.501125
21.850000	1	0.512375
21.866667	1	0.522875
21.883333	1	0.533250
21.900000	1	0.544375
21.916667	1	0.554875
21.933333	1	0.564750
21.950000	1	0.573375
21.966667	1	0.581750
21.983333	1	0.589500
22.000000	1	0.595625
22.016667	1	0.601750
22.033333	1	0.606625
22.050000	1	0.611250
22.066667	1	0.614250
22.083333	1	0.616500
22.100000	1	0.618125
22.116667	1	0.619125
22.133333	1	0.618625
22.150000	1	0.617000
22.166667	1	0.614625
22.183333	1	0.611125
22.200000	1	0.607000
22.216667	1	0.601125
22.233333	1	0.594625
22.250000	1	0.586875
22.266667	1	0.578000
22.283333	1	0.568000
22.300000	1	0.557000
22.316667	1	0.546000
22.333333	1	0.534000
22.350000	1	0.521375
22.366667	1	0.508125
22.383333	1	0.494625
22.400000	1	0.481375
22.416667	1	0.468125
22.433333	1	0.455500
22.450000	1	0.443000
22.466667	1	0.430875
22.483333	1	0.419375
22.500000	1	0.409375
22.516667	1	0.399250
22.533333	1	0.389750
22.550000	1	0.380875
22.566667	1	0.372125
22.583333	1	0.364125
22.600000	1	0.356375
22.616667	1	0.349250
22.633333	1	0.342000
22.650000	1	0.336250
22.666667	1	0.330875
22.683333	1	0.325125
22.700000	1	0.320000
22.716667	1	0.314625
22.733333	1	0.309250
22.750000	1	0.305125
22.766667	1	0.300500
22.783333	1	0.296250
22.800000	1	0.292125
22.816667	1	0.288375
22.833333	1	0.285250
22.850000	1	0.281875
22.866667	1	0.279125
22.883333	1	0.276625
22.900000	1	0.274375
22.916667	1	0.272500
22.933333	1	0.272125
22.950000	1	0.271250
22.966667	1	0.270375
22.983333	1	0.269750
23.000000	1	0.269750
23.016667	1	0.271125
23.033333	1	0.272125
23.050000	1	0.273375
23.066667	1	0.274625
23.083333	1	0.276625
23.100000	1	0.279125
23.116667	1	0.281750
23.133333	1	0.284000
23.150000	1	0.286875
23.166667	1	0.289500
23.183333	1	0.292375
23.200000	1	0.295625
23.216667	1	0.299125
23.233333	1	0.302125
23.250000	1	0.306375
23.266667	1	0.311625
23.283333	1	0.317000
23.300000	1	0.324250
23.316667	1	0.333625
23.333333	1	0.345250
23.350000	1	0.359125
23.366667	1	0.377625
23.383333	1	0.401625
23.400000	1	0.430000
23.416667	1	0.466500
23.433333	1	0.511750
23.450000	1	0.565875
23.466667	1	0.632750
23.483333	1	0.713500
23.500000	1	0.809625
23.516667	1	0.922750
23.533333	1	1.055250
23.550000	1	1.208250
23.566667	1	1.381750
23.583333	1	1.578125
23.600000	1	1.796375
23.616667	1	2.035500
23.633333	1	2.294125
23.650000	1	2.568250
23.666667	1	2.856625
23.683333	1	3.155375
23.700000	1	3.458750
23.716667	1	3.760250
23.733333	1	4.054375
23.750000	1	4.334125
23.766667	1	4.594625
23.783333	1	4.827875
23.800000	1	5.029375
23.816667	1	5.193375
23.833333	1	5.316000
23.850000	1	5.396000
23.866667	1	5.431250
23.883333	1	5.421125
23.900000	1	5.368500
23.916667	1	5.275375
23.933333	1	5.143500
23.950000	1	4.977750
23.966667	1	4.783625
23.983333	1	4.566125
24.000000	1	4.331000
24.016667	1	4.083125
24.033333	1	3.828750
24.050000	1	3.572375
24.066667	1	3.318000
24.083333	1	3.068250
24.100000	1	2.826500
24.116667	1	2.594875
24.133333	1	2.374875
24.150000	1	2.167500
24.166667	1	1.975500
24.183333	1	1.797625
24.200000	1	1.634375
24.216667	1	1.484875
24.233333	1	1.348750
24.250000	1	1.225625
24.266667	1	1.114750
24.283333	1	1.014750
24.300000	1	0.925875
24.316667	1	0.846250
24.333333	1	0.776375
24.350000	1	0.715125
24.366667	1	0.661750
24.383333	1	0.615625
24.400000	1	0.576500
24.416667	1	0.541875
24.433333	1	0.513625
24.450000	1	0.488875
24.466667	1	0.470125
24.483333	1	0.454250
24.500000	1	0.441750
24.516667	1	0.431250
24.533333	1	0.422375
24.550000	1	0.416000
24.566667	1	0.410500
24.583333	1	0.406250
24.600000	1	0.402500
24.616667	1	0.398375
24.633333	1	0.395125
24.650000	1	0.392250
24.666667	1	0.388625
24.683333	1	0.384875
24.700000	1	0.381125
24.716667	1	0.376875
24.733333	1	0.372750
24.750000	1	0.367500
24.766667	1	0.362000
24.783333	1	0.355875
24.800000	1	0.350500
24.816667	1	0.344750
24.833333	1	0.338625
24.850000	1	0.332500
24.866667	1	0.326500
24.883333	1	0.320750
24.900000	1	0.314875
24.916667	1	0.308500
24.933333	1	0.303125
24.950000	1	0.298250
24.966667	1	0.293250
24.983333	1	0.288500
25.000000	1	0.283750
25.016667	1	0.279875
25.033333	1	0.276875
25.050000	1	0.274250
25.066667	1	0.271250
25.083333	1	0.268250
25.100000	1	0.265750
25.116667	1	0.263750
25.133333	1	0.262125
25.150000	1	0.260625
25.166667	1	0.259125
25.183333	1	0.257500
25.200000	1	0.256000
25.216667	1	0.254375
25.233333	1	0.252750
25.250000	1	0.252000
25.266667	1	0.251750
25.283333	1	0.250875
25.300000	1	0.249875
25.316667	1	0.250125
25.333333	1	0.250000
25.350000	1	0.250000
25.366667	1	0.250625
25.383333	1	0.250875
25.400000	1	0.251375
25.416667	1	0.252375
25.433333	1	0.253250
25.450000	1	0.254250
25.466667	1	0.255750
25.483333	1	0.257750
25.500000	1	0.259375
25.516667	1	0.260250
25.533333	1	0.262250
25.550000	1	0.264500
25.566667	1	0.265750
25.583333	1	0.267625
25.600000	1	0.268875
25.616667	1	0.270750
25.633333	1	0.272000
25.650000	1	0.273250
25.666667	1	0.274500
25.683333	1	0.275375
25.700000	1	0.276500
25.716667	1	0.276750
25.733333	1	0.276875
25.750000	1	0.277250
25.766667	1	0.277375
25.783333	1	0.276875
25.800000	1	0.276125
25.816667	1	0.276125
25.833333	1	0.276000
25.850000	1	0.275125
25.866667	1	0.274500
25.883333	1	0.274375
25.900000	1	0.274250
25.916667	1	0.273875
25.933333	1	0.274500
25.950000	1	0.274375
25.966667	1	0.274375
25.983333	1	0.275125
26.000000	1	0.276750
26.016667	1	0.278250
26.033333	1	0.279625
26.050000	1	0.282000
26.066667	1	0.285000
26.083333	1	0.288375
26.100000	1	0.291000
26.116667	1	0.294500
26.133333	1	0.298125
26.150000	1	0.302250
26.166667	1	0.305875
26.183333	1	0.309750
26.200000	1	0.312750
26.216667	1	0.314625
26.233333	1	0.317375
26.250000	1	0.320000
26.266667	1	0.321875
26.283333	1	0.324000
26.300000	1	0.325000
26.316667	1	0.325500
26.333333	1	0.326000
26.350000	1	0.325125
26.366667	1	0.324125
26.383333	1	0.322250
26.400000	1	0.319625
26.416667	1	0.316500
26.433333	1	0.313000
26.450000	1	0.309375
26.466667	1	0.304625
26.483333	1	0.299750
26.500000	1	0.293875
26.516667	1	0.287750
26.533333	1	0.281625
26.550000	1	0.275500
26.566667	1	0.269750
26.583333	1	0.263500
26.600000	1	0.257000
26.616667	1	0.251375
26.633333	1	0.245500
26.650000	1	0.240875
26.666667	1	0.235375
26.683333	1	0.230375
26.700000	1	0.225500
26.716667	1	0.221125
26.733333	1	0.218125
26.750000	1	0.215000
26.766667	1	0.212000
26.783333	1	0.209500
26.800000	1	0.206875
26.816667	1	0.204625
26.833333	1	0.202750
26.850000	1	0.201625
26.866667	1	0.201250
26.883333	1	0.200875
26.900000	1	0.200750
26.916667	1	0.201000
26.933333	1	0.202250
26.950000	1	0.202875
26.966667	1	0.204125
26.983333	1	0.205250
27.000000	1	0.207500
27.016667	1	0.210000
27.033333	1	0.213250
27.050000	1	0.217000
27.066667	1	0.220750
27.083333	1	0.225500
27.100000	1	0.231625
27.116667	1	0.237625
27.133333	1	0.244625
27.150000	1	0.253500
27.166667	1	0.263000
27.183333	1	0.274125
27.200000	1	0.287500
27.216667	1	0.302750
27.233333	1	0.320875
27.250000	1	0.340500
27.266667	1	0.364875
27.283333	1	0.393000
27.300000	1	0.424750
27.316667	1	0.462000
27.333333	1	0.504750
27.350000	1	0.553875
27.366667	1	0.610250
27.383333	1	0.675250
27.400000	1	0.748500
27.416667	1	0.831625
27.433333	1	0.925375
27.450000	1	1.030875
27.466667	1	1.147000
27.483333	1	1.276375
27.500000	1	1.418000
27.516667	1	1.571625
27.533333	1	1.737250
27.550000	1	1.914750
27.566667	1	2.102125
27.583333	1	2.298625
27.600000	1	2.502625
27.616667	1	2.712500
27.633333	1	2.925875
27.650000	1	3.140750
27.666667	1	3.353875
27.683333	1	3.561875
27.700000	1	3.761625
27.716667	1	3.948875
27.733333	1	4.121125
27.750000	1	4.275250
27.766667	1	4.408500
27.783333	1	4.518375
27.800000	1	4.602125
27.816667	1	4.658250
27.833333	1	4.685875
27.850000	1	4.684625
27.866667	1	4.653000
27.883333	1	4.593500
27.900000	1	4.506625
27.916667	1	4.394000
27.933333	1	4.257500
27.950000	1	4.101125
27.966667	1	3.928000
27.983333	1	3.741375
28.000000	1	3.543500
28.016667	1	3.338500
28.033333	1	3.129625
28.050000	1	2.918625
28.066667	1	2.709500
28.083333	1	2.504500
28.100000	1	2.305875
28.116667	1	2.114875
28.133333	1	1.933375
28.150000	1	1.762500
28.166667	1	1.602125
28.183333	1	1.453750
28.200000	1	1.316625
28.216667	1	1.191500
28.233333	1	1.077375
28.250000	1	0.974250
28.266667	1	0.881625
28.283333	1	0.798000
28.300000	1	0.724250
28.316667	1	0.659625
28.333333	1	0.602375
28.350000	1	0.552625
28.366667	1	0.509875
28.383333	1	0.473500
28.400000	1	0.443000
28.416667	1	0.418625
28.433333	1	0.398375
28.450000	1	0.383500
28.466667	1	0.373000
28.483333	1	0.365125
28.500000	1	0.360875
28.516667	1	0.359625
28.533333	1	0.360750
28.550000	1	0.363625
28.566667	1	0.369125
28.583333	1	0.377000
28.600000	1	0.386125
28.616667	1	0.396750
28.633333	1	0.408750
28.650000	1	0.421875
28.666667	1	0.435250
28.683333	1	0.448625
28.700000	1	0.462375
28.716667	1	0.476250
28.733333	1	0.490000
28.750000	1	0.503000
28.766667	1	0.515750
28.783333	1	0.527500
28.800000	1	0.538375
28.816667	1	0.548125
28.833333	1	0.558000
28.850000	1	0.567000
28.866667	1	0.574375
28.883333	1	0.580000
28.900000	1	0.584375
28.916667	1	0.587875
28.933333	1	0.589500
28.950000	1	0.589375
28.966667	1	0.588250
28.983333	1	0.585500
29.000000	1	0.581250
29.016667	1	0.576125
29.033333	1	0.569875
29.050000	1	0.561875
29.066667	1	0.553125
29.083333	1	0.543250
29.100000	1	0.531750
29.116667	1	0.519875
29.133333	1	0.506375
29.150000	1	0.492500
29.166667	1	0.478250
29.183333	1	0.463125
29.200000	1	0.447875
29.216667	1	0.432250
29.233333	1	0.416125
29.250000	1	0.400375
29.266667	1	0.384500
29.283333	1	0.369125
29.300000	1	0.352750
29.316667	1	0.337375
29.333333	1	0.322625
29.350000	1	0.308250
29.366667	1	0.294875
29.383333	1	0.281875
29.400000	1	0.269750
29.416667	1	0.257500
29.433333	1	0.246250
29.450000	1	0.235375
29.466667	1	0.225125
29.483333	1	0.216250
29.500000	1	0.207125
29.516667	1	0.198500
29.533333	1	0.190000
29.550000	1	0.183250
29.566667	1	0.176750
29.583333	1	0.171125
29.600000	1	0.165750
29.616667	1	0.161250
29.633333	1	0.156875
29.650000	1	0.152750
29.666667	1	0.148500
29.683333	1	0.144000
29.700000	1	0.140125
29.716667	1	0.137125
29.733333	1	0.135125
29.750000	1	0.132625
29.766667	1	0.130125
29.783333	1	0.128000
29.800000	1	0.126250
29.816667	1	0.124750
29.833333	1	0.123500
29.850000	1	0.122250
29.866667	1	0.121500
29.883333	1	0.120250
29.900000	1	0.119375
29.916667	1	0.118250
29.933333	1	0.117125
29.950000	1	0.116250
29.966667	1	0.116250
29.983333	1	0.115875
30.000000	1	0.115750
30.016667	1	0.115625
30.033333	1	0.115250
30.050000	1	0.115125
30.066667	1	0.115500
30.083333	1	0.115500
30.100000	1	0.116125
30.116667	1	0.115875
30.133333	1	0.116500
30.150000	1	0.116875
30.166667	1	0.117375
30.183333	1	0.118125
30.200000	1	0.118750
30.216667	1	0.119375
30.233333	1	0.119375
30.250000	1	0.120375
30.266667	1	0.120125
30.283333	1	0.120375
30.300000	1	0.120375
30.316667	1	0.120875
30.333333	1	0.121250
30.350000	1	0.122125
30.366667	1	0.122375
30.383333	1	0.122375
30.400000	1	0.122250
30.416667	1	0.123000
30.433333	1	0.123875
30.450000	1	0.125625
30.466667	1	0.126125
30.483333	1	0.127250
30.500000	1	0.129625
30.516667	1	0.131125
30.533333	1	0.133625
30.550000	1	0.136375
30.566667	1	0.139500
30.583333	1	0.143375
30.600000	1	0.147125
30.616667	1	0.151875
30.633333	1	0.157625
30.650000	1	0.163375
30.666667	1	0.170375
30.683333	1	0.177125
30.700000	1	0.183625
30.716667	1	0.191125
30.733333	1	0.200000
30.750000	1	0.209500
30.766667	1	0.219000
30.783333	1	0.229750
30.800000	1	0.242250
30.816667	1	0.255250
30.833333	1	0.269000
30.850000	1	0.284000
30.866667	1	0.300750
30.883333	1	0.318625
30.900000	1	0.338875
30.916667	1	0.361625
30.933333	1	0.386875
30.950000	1	0.415750
30.966667	1	0.447625
30.983333	1	0.484000
31.000000	1	0.525250
31.016667	1	0.572625
31.033333	1	0.625500
31.050000	1	0.686625
31.066667	1	0.756750
31.083333	1	0.835375
31.100000	1	0.923250
31.116667	1	1.022375
31.133333	1	1.132750
31.150000	1	1.255250
31.166667	1	1.390125
31.183333	1	1.539625
31.200000	1	1.703250
31.216667	1	1.880500
31.233333	1	2.072625
31.250000	1	2.277750
31.266667	1	2.495125
31.283333	1	2.724875
31.300000	1	2.965750
31.316667	1	3.214625
31.333333	1	3.470000
31.350000	1	3.730250
31.366667	1	3.992500
31.383333	1	4.253875
31.400000	1	4.511750
31.416667	1	4.763125
31.433333	1	5.004625
31.450000	1	5.232875
31.466667	1	5.444875
31.483333	1	5.637000
31.500000	1	5.807375
31.516667	1	5.953750
31.533333	1	6.073750
31.550000	1	6.166000
31.566667	1	6.229625
31.583333	1	6.264000
31.600000	1	6.268875
31.616667	1	6.245000
31.633333	1	6.191750
31.650000	1	6.111250
31.666667	1	6.005375
31.683333	1	5.875375
31.700000	1	5.724375
31.716667	1	5.554250
31.733333	1	5.367875
31.750000	1	5.167750
31.766667	1	4.956000
31.783333	1	4.736125
31.800000	1	4.509500
31.816667	1	4.278750
31.833333	1	4.046375
31.850000	1	3.814750
31.866667	1	3.585375
31.883333	1	3.361000
31.900000	1	3.142875
31.916667	1	2.931500
31.933333	1	2.728250
31.950000	1	2.534875
31.966667	1	2.350000
31.983333	1	2.174625
32.000000	1	2.008375
32.016667	1	1.852500
32.033333	1	1.705875
32.050000	1	1.568125
32.066667	1	1.440375
32.083333	1	1.321875
32.100000	1	1.212500
32.116667	1	1.110625
32.133333	1	1.017375
32.150000	1	0.931875
32.166667	1	0.852375
32.183333	1	0.779250
32.200000	1	0.712250
32.216667	1	0.650500
32.233333	1	0.594125
32.250000	1	0.541875
32.266667	1	0.495125
32.283333	1	0.452375
32.300000	1	0.412875
32.316667	1	0.377375
32.333333	1	0.344750
32.350000	1	0.315000
32.366667	1	0.287875
32.383333	1	0.263750
32.400000	1	0.241250
32.416667	1	0.221000
32.433333	1	0.202500
32.450000	1	0.186125
32.466667	1	0.171250
32.483333	1	0.157750
32.500000	1	0.145250
32.516667	1	0.133750
32.533333	1	0.123625
32.550000	1	0.115000
32.566667	1	0.106500
32.583333	1	0.099000
32.600000	1	0.091750
32.616667	1	0.084750
32.633333	1	0.078125
32.650000	1	0.072000
32.666667	1	0.066500
32.683333	1	0.061125
32.700000	1	0.055875
32.716667	1	0.050500
32.733333	1	0.045250
32.750000	1	0.040125
32.766667	1	0.035000
32.783333	1	0.030500
32.800000	1	0.026250
32.816667	1	0.021875
32.833333	1	0.018125
32.850000	1	0.013500
32.866667	1	0.009125
32.883333	1	0.005375
32.900000	1	0.001625
32.916667	1	-0.001750
32.933333	1	-0.005375
32.950000	1	-0.008000
32.966667	1	-0.011000
32.983333	1	-0.014000
33.000000	1	-0.016125
33.016667	1	-0.019000
33.033333	1	-0.021250
33.050000	1	-0.023250
33.066667	1	-0.025000
33.083333	1	-0.026125
33.100000	1	-0.027500
33.116667	1	-0.028500
33.133333	1	-0.029125
33.150000	1	-0.028750
33.166667	1	-0.028875
33.183333	1	-0.028375
33.200000	1	-0.028125
33.216667	1	-0.027250
33.233333	1	-0.026375
33.250000	1	-0.025375
33.266667	1	-0.023875
33.283333	1	-0.022375
33.300000	1	-0.020750
33.316667	1	-0.018750
33.333333	1	-0.016625
33.350000	1	-0.015125
33.366667	1	-0.013250
33.383333	1	-0.010500
33.400000	1	-0.007375
33.416667	1	-0.004750
33.433333	1	-0.002125
33.450000	1	0.000750
33.466667	1	0.003500
33.483333	1	0.005875
33.500000	1	0.009375
33.516667	1	0.012250
33.533333	1	0.015375
33.550000	1	0.018750
33.566667	1	0.022500
33.583333	1	0.026625
33.600000	1	0.030750
33.616667	1	0.034375
33.633333	1	0.038250
33.650000	1	0.042125
33.666667	1	0.045125
33.683333	1	0.048500
33.700000	1	0.052375
33.716667	1	0.056375
33.733333	1	0.060500
33.750000	1	0.064125
33.766667	1	0.067625
33.783333	1	0.072000
33.800000	1	0.075125
33.816667	1	0.078375
33.833333	1	0.082000
33.850000	1	0.085000
33.866667	1	0.087625
33.883333	1	0.090625
33.900000	1	0.093125
33.916667	1	0.096000
33.933333	1	0.099125
33.950000	1	0.101375
33.966667	1	0.103750
33.983333	1	0.105625
34.000000	1	0.107125
34.016667	1	0.108500
34.033333	1	0.110000
34.050000	1	0.110875
34.066667	1	0.112250
34.083333	1	0.113125
34.100000	1	0.113125
34.116667	1	0.113375
34.133333	1	0.114000
34.150000	1	0.113750
34.166667	1	0.114375
34.183333	1	0.113375
34.200000	1	0.112875
34.216667	1	0.112250
34.233333	1	0.111750
34.250000	1	0.111375
34.266667	1	0.111000
34.283333	1	0.110500
34.300000	1	0.110500
34.316667	1	0.110125
34.333333	1	0.109375
34.350000	1	0.109000
34.366667	1	0.108250
34.383333	1	0.108500
34.400000	1	0.108750
34.416667	1	0.108375
34.433333	1	0.108500
34.450000	1	0.108625
34.466667	1	0.108750
34.483333	1	0.108625
34.500000	1	0.109875
34.516667	1	0.110875
34.533333	1	0.111750
34.550000	1	0.112625
34.566667	1	0.113500
34.583333	1	0.114875
34.600000	1	0.116750
34.616667	1	0.117250
34.633333	1	0.118125
34.650000	1	0.118875
34.666667	1	0.120125
34.683333	1	0.120625
34.700000	1	0.121750
34.716667	1	0.122500
34.733333	1	0.122625
34.750000	1	0.122875
34.766667	1	0.123000
34.783333	1	0.123000
34.800000	1	0.123125
34.816667	1	0.122375
34.833333	1	0.121875
34.850000	1	0.121000
34.866667	1	0.120000
34.883333	1	0.118500
34.900000	1	0.117875
34.916667	1	0.116000
34.933333	1	0.113750
34.950000	1	0.111250
34.966667	1	0.109250
34.983333	1	0.107000
35.000000	1	0.104750
35.016667	1	0.102500
35.033333	1	0.099625
35.050000	1	0.096875
35.066667	1	0.094000
35.083333	1	0.091250
35.100000	1	0.088875
35.116667	1	0.086500
35.133333	1	0.084500
35.150000	1	0.082125
35.166667	1	0.079750
35.183333	1	0.077875
35.200000	1	0.076000
35.216667	1	0.075125
35.233333	1	0.074125
35.250000	1	0.072875
35.266667	1	0.071875
35.283333	1	0.071500
35.300000	1	0.071375
35.316667	1	0.071875
35.333333	1	0.072375
35.350000	1	0.074375
35.366667	1	0.075500
35.383333	1	0.077375
35.400000	1	0.078750
35.416667	1	0.080125
35.433333	1	0.081750
35.450000	1	0.084250
35.466667	1	0.086625
35.483333	1	0.089375
35.500000	1	0.091875
35.516667	1	0.094500
35.533333	1	0.097625
35.550000	1	0.100125
35.566667	1	0.103375
35.583333	1	0.106375
35.600000	1	0.109375
35.616667	1	0.111625
35.633333	1	0.114500
35.650000	1	0.117000
35.666667	1	0.119500
35.683333	1	0.121625
35.700000	1	0.123625
35.716667	1	0.126250
35.733333	1	0.129125
35.750000	1	0.131875
35.766667	1	0.133875
35.783333	1	0.135250
35.800000	1	0.137250
35.816667	1	0.138750
35.833333	1	0.139875
35.850000	1	0.140625
35.866667	1	0.141500
35.883333	1	0.142125
35.900000	1	0.143500
35.916667	1	0.144250
35.933333	1	0.145000
35.950000	1	0.145500
35.966667	1	0.146125
35.983333	1	0.146250
36.000000	1	0.146500
36.016667	1	0.146875
36.033333	1	0.147125
36.050000	1	0.147500
36.066667	1	0.147125
36.083333	1	0.147500
36.100000	1	0.147500
36.116667	1	0.147125
36.133333	1	0.147250
36.150000	1	0.147000
36.166667	1	0.146375
36.183333	1	0.146375
36.200000	1	0.145625
36.216667	1	0.145500
36.233333	1	0.145500
36.250000	1	0.145375
36.266667	1	0.145000
36.283333	1	0.144625
36.300000	1	0.144500
36.316667	1	0.143625
36.333333	1	0.142875
36.350000	1	0.142000
36.366667	1	0.141250
36.383333	1	0.140000
36.400000	1	0.139000
36.416667	1	0.137750
36.433333	1	0.136625
36.450000	1	0.135625
36.466667	1	0.134125
36.483333	1	0.132500
36.500000	1	0.131250
36.516667	1	0.129500
36.533333	1	0.127750
36.550000	1	0.126250
36.566667	1	0.124000
36.583333	1	0.121625
36.600000	1	0.119125
36.616667	1	0.117000
36.633333	1	0.114500
36.650000	1	0.112000
36.666667	1	0.109250
36.683333	1	0.107125
36.700000	1	0.104250
36.716667	1	0.101625
36.733333	1	0.099000
36.750000	1	0.096750
36.766667	1	0.093250
36.783333	1	0.090500
36.800000	1	0.087125
36.816667	1	0.084500
36.833333	1	0.081250
36.850000	1	0.078375
36.866667	1	0.075625
36.883333	1	0.072750
36.900000	1	0.069750
36.916667	1	0.067375
36.933333	1	0.065250
36.950000	1	0.062375
36.966667	1	0.060000
36.983333	1	0.058000
37.000000	1	0.055625
37.016667	1	0.053500
37.033333	1	0.051125
37.050000	1	0.049500
37.066667	1	0.048250
37.083333	1	0.047625
37.100000	1	0.046375
37.116667	1	0.045375
37.133333	1	0.044750
37.150000	1	0.044500
37.166667	1	0.044250
37.183333	1	0.043625
37.200000	1	0.043125
37.216667	1	0.043625
37.233333	1	0.044000
37.250000	1	0.043375
37.266667	1	0.043500
37.283333	1	0.043375
37.300000	1	0.043500
37.316667	1	0.044500
37.333333	1	0.044500
37.350000	1	0.044250
37.366667	1	0.044250
37.383333	1	0.044250
37.400000	1	0.044250
37.416667	1	0.044125
37.433333	1	0.044125
37.450000	1	0.044125
37.466667	1	0.044500
37.483333	1	0.044375
37.500000	1	0.044000
37.516667	1	0.043750
37.533333	1	0.043000
37.550000	1	0.041500
37.566667	1	0.040750
37.583333	1	0.039125
37.600000	1	0.038125
37.616667	1	0.037000
37.633333	1	0.035875
37.650000	1	0.034500
37.666667	1	0.033000
37.683333	1	0.032000
37.700000	1	0.031500
37.716667	1	0.030000
37.733333	1	0.028750
37.750000	1	0.027125
37.766667	1	0.026250
37.783333	1	0.025125
37.800000	1	0.024000
37.816667	1	0.022625
37.833333	1	0.021000
37.850000	1	0.020000
37.866667	1	0.018750
37.883333	1	0.017750
37.900000	1	0.016875
37.916667	1	0.015500
37.933333	1	0.015000
37.950000	1	0.014500
37.966667	1	0.013250
37.983333	1	0.012625
38.000000	1	0.011500
38.016667	1	0.011250
38.033333	1	0.011000
38.050000	1	0.010625
38.066667	1	0.010500
38.083333	1	0.010500
38.100000	1	0.010000
38.116667	1	0.010250
38.133333	1	0.010000
38.150000	1	0.009875
38.166667	1	0.009875
38.183333	1	0.010875
38.200000	1	0.012000
38.216667	1	0.012625
38.233333	1	0.012750
38.250000	1	0.013625
38.266667	1	0.014625
38.283333	1	0.015750
38.300000	1	0.017000
38.316667	1	0.018875
38.333333	1	0.019500
38.350000	1	0.021125
38.366667	1	0.022625
38.383333	1	0.024250
38.400000	1	0.026500
38.416667	1	0.028125
38.433333	1	0.029625
38.450000	1	0.031500
38.466667	1	0.033250
38.483333	1	0.034625
38.500000	1	0.036625
38.516667	1	0.038625
38.533333	1	0.041125
38.550000	1	0.043250
38.566667	1	0.044625
38.583333	1	0.046125
38.600000	1	0.047625
38.616667	1	0.049375
38.633333	1	0.050625
38.650000	1	0.052375
38.666667	1	0.053625
38.683333	1	0.054500
38.700000	1	0.055750
38.716667	1	0.057250
38.733333	1	0.058875
38.750000	1	0.059750
38.766667	1	0.061125
38.783333	1	0.062250
38.800000	1	0.063375
38.816667	1	0.064000
38.833333	1	0.064250
38.850000	1	0.065125
38.866667	1	0.066000
38.883333	1	0.065500
38.900000	1	0.067125
38.916667	1	0.067875
38.933333	1	0.067625
38.950000	1	0.066625
38.966667	1	0.066250
38.983333	1	0.065875
39.000000	1	0.065500
39.016667	1	0.064000
39.033333	1	0.063000
39.050000	1	0.061750
39.066667	1	0.060125
39.083333	1	0.058750
39.100000	1	0.057375
39.116667	1	0.055500
39.133333	1	0.053375
39.150000	1	0.051125
39.166667	1	0.049000
39.183333	1	0.047500
39.200000	1	0.044500
39.216667	1	0.041000
39.233333	1	0.039125
39.250000	1	0.036125
39.266667	1	0.032750
39.283333	1	0.030000
39.300000	1	0.026875
39.316667	1	0.023625
39.333333	1	0.020500
39.350000	1	0.017500
39.366667	1	0.014500
39.383333	1	0.011875
39.400000	1	0.009250
39.416667	1	0.007500
39.433333	1	0.005125
39.450000	1	0.002750
39.466667	1	0.000875
39.483333	1	-0.000125
39.500000	1	-0.001750
39.516667	1	-0.002875
39.533333	1	-0.004625
39.550000	1	-0.006125
39.566667	1	-0.007625
39.583333	1	-0.008125
39.600000	1	-0.008875
39.616667	1	-0.008500
39.633333	1	-0.008750
39.650000	1	-0.009625
39.666667	1	-0.009750
39.683333	1	-0.009375
39.700000	1	-0.009125
39.716667	1	-0.009000
39.733333	1	-0.009250
39.750000	1	-0.009000
39.766667	1	-0.008750
39.783333	1	-0.009000
39.800000	1	-0.008625
39.816667	1	-0.008625
39.833333	1	-0.008750
39.850000	1	-0.009625
39.866667	1	-0.009625
39.883333	1	-0.010625
39.900000	1	-0.011000
39.916667	1	-0.012000
39.933333	1	-0.013375
39.950000	1	-0.014250
39.966667	1	-0.016000
39.983333	1	-0.017625
40.000000	1	-0.018875
