URL	chrom://bioreactor/micro_cm7/HPLC_Ultimate_3000/Users/markusar/20240708_MA_pHrange1.seq/403.smp/RI_1.channel/RI_1.chm
Channel	RI_1

Injection Information:
Data Vault	micro_cm7
Sequence	20240708_MA_pHrange1
Name	Pv3_6.5_2
Number	13
Position	BB1
Comment	
Processing Method	
Instrument Method	run_25B_method
Type	Unknown
Status	Finished
Inject Time	08.07.2024 23:46:07 +02:00
Volume (µl)	20.0000
Dilution Factor	1.0000
Weight	1.0000

Chromatogram Data Information:
Time Min. (min)	0.000000
Time Max. (min)	40.000000
Data Points	2401
Detector	RI
Generating Data System	Chromeleon 7.3.2.11814
Exporting Data System	Chromeleon 7.3.2.0
Operator	Instrument Controller
Signal Quantity	Refractive 
Signal Unit	µRIU
Signal Min.	-0.023000
Signal Max.	82.568750
Channel	RI_1
Driver Name	RID520Driver.dll
Channel Type	Evaluation
Min. Step (s)	1
Max. Step (s)	1
Average Step (s)	1

Signal Parameter Information:
Signal Info	

Chromatogram Data:
Time (min)	Step (s)	Value (µRIU)
0.000000	n.a.	-0.002250
0.016667	1	-0.003250
0.033333	1	-0.003750
0.050000	1	-0.003875
0.066667	1	-0.004000
0.083333	1	-0.004125
0.100000	1	-0.004000
0.116667	1	-0.003750
0.133333	1	-0.003500
0.150000	1	-0.004000
0.166667	1	-0.003000
0.183333	1	-0.002750
0.200000	1	-0.001500
0.216667	1	-0.000500
0.233333	1	0.000625
0.250000	1	0.002250
0.266667	1	0.003250
0.283333	1	0.004625
0.300000	1	0.005500
0.316667	1	0.006250
0.333333	1	0.007625
0.350000	1	0.007875
0.366667	1	0.008000
0.383333	1	0.008875
0.400000	1	0.009875
0.416667	1	0.011000
0.433333	1	0.013625
0.450000	1	0.016250
0.466667	1	0.019000
0.483333	1	0.021375
0.500000	1	0.023625
0.516667	1	0.024000
0.533333	1	0.025000
0.550000	1	0.026000
0.566667	1	0.025625
0.583333	1	0.025125
0.600000	1	0.023875
0.616667	1	0.022375
0.633333	1	0.021250
0.650000	1	0.021000
0.666667	1	0.020750
0.683333	1	0.020875
0.700000	1	0.020750
0.716667	1	0.021000
0.733333	1	0.021125
0.750000	1	0.021625
0.766667	1	0.022000
0.783333	1	0.022250
0.800000	1	0.022875
0.816667	1	0.023375
0.833333	1	0.023750
0.850000	1	0.023125
0.866667	1	0.024125
0.883333	1	0.024500
0.900000	1	0.025125
0.916667	1	0.026500
0.933333	1	0.026250
0.950000	1	0.026500
0.966667	1	0.026625
0.983333	1	0.027375
1.000000	1	0.027500
1.016667	1	0.027375
1.033333	1	0.028625
1.050000	1	0.029375
1.066667	1	0.030000
1.083333	1	0.030500
1.100000	1	0.030875
1.116667	1	0.030875
1.133333	1	0.031625
1.150000	1	0.032250
1.166667	1	0.032500
1.183333	1	0.032125
1.200000	1	0.032500
1.216667	1	0.033125
1.233333	1	0.034000
1.250000	1	0.034500
1.266667	1	0.034500
1.283333	1	0.034750
1.300000	1	0.034500
1.316667	1	0.034625
1.333333	1	0.034750
1.350000	1	0.034875
1.366667	1	0.034500
1.383333	1	0.033625
1.400000	1	0.033625
1.416667	1	0.033500
1.433333	1	0.033250
1.450000	1	0.032750
1.466667	1	0.032250
1.483333	1	0.031750
1.500000	1	0.031000
1.516667	1	0.029750
1.533333	1	0.029500
1.550000	1	0.028625
1.566667	1	0.028250
1.583333	1	0.027375
1.600000	1	0.026250
1.616667	1	0.024625
1.633333	1	0.024125
1.650000	1	0.023500
1.666667	1	0.022500
1.683333	1	0.021000
1.700000	1	0.020500
1.716667	1	0.019750
1.733333	1	0.018500
1.750000	1	0.017625
1.766667	1	0.017250
1.783333	1	0.016625
1.800000	1	0.016250
1.816667	1	0.015500
1.833333	1	0.015250
1.850000	1	0.014250
1.866667	1	0.013375
1.883333	1	0.012750
1.900000	1	0.011625
1.916667	1	0.011250
1.933333	1	0.010750
1.950000	1	0.010000
1.966667	1	0.008250
1.983333	1	0.006625
2.000000	1	0.005750
2.016667	1	0.004750
2.033333	1	0.004000
2.050000	1	0.003250
2.066667	1	0.001875
2.083333	1	0.000875
2.100000	1	0.000250
2.116667	1	-0.000375
2.133333	1	-0.001875
2.150000	1	-0.002500
2.166667	1	-0.004250
2.183333	1	-0.005250
2.200000	1	-0.005625
2.216667	1	-0.006875
2.233333	1	-0.008375
2.250000	1	-0.009250
2.266667	1	-0.010250
2.283333	1	-0.011125
2.300000	1	-0.012375
2.316667	1	-0.013375
2.333333	1	-0.014750
2.350000	1	-0.015750
2.366667	1	-0.016375
2.383333	1	-0.017250
2.400000	1	-0.017875
2.416667	1	-0.018875
2.433333	1	-0.019875
2.450000	1	-0.019750
2.466667	1	-0.020125
2.483333	1	-0.020500
2.500000	1	-0.021125
2.516667	1	-0.022375
2.533333	1	-0.022875
2.550000	1	-0.023000
2.566667	1	-0.022375
2.583333	1	-0.022500
2.600000	1	-0.022250
2.616667	1	-0.022625
2.633333	1	-0.022500
2.650000	1	-0.021625
2.666667	1	-0.020875
2.683333	1	-0.019625
2.700000	1	-0.019500
2.716667	1	-0.018375
2.733333	1	-0.018250
2.750000	1	-0.017250
2.766667	1	-0.016375
2.783333	1	-0.015375
2.800000	1	-0.014750
2.816667	1	-0.013375
2.833333	1	-0.012125
2.850000	1	-0.011125
2.866667	1	-0.009750
2.883333	1	-0.008875
2.900000	1	-0.007500
2.916667	1	-0.006625
2.933333	1	-0.005625
2.950000	1	-0.004500
2.966667	1	-0.003500
2.983333	1	-0.002500
3.000000	1	-0.001750
3.016667	1	-0.000375
3.033333	1	0.000125
3.050000	1	0.000375
3.066667	1	0.001750
3.083333	1	0.002750
3.100000	1	0.003625
3.116667	1	0.004375
3.133333	1	0.005000
3.150000	1	0.005625
3.166667	1	0.006625
3.183333	1	0.007000
3.200000	1	0.007875
3.216667	1	0.007750
3.233333	1	0.007750
3.250000	1	0.008500
3.266667	1	0.008750
3.283333	1	0.009000
3.300000	1	0.009125
3.316667	1	0.009250
3.333333	1	0.008500
3.350000	1	0.008375
3.366667	1	0.008000
3.383333	1	0.007875
3.400000	1	0.007375
3.416667	1	0.007000
3.433333	1	0.007875
3.450000	1	0.007625
3.466667	1	0.007375
3.483333	1	0.006875
3.500000	1	0.006375
3.516667	1	0.006250
3.533333	1	0.006375
3.550000	1	0.007000
3.566667	1	0.007875
3.583333	1	0.008500
3.600000	1	0.009625
3.616667	1	0.011125
3.633333	1	0.012375
3.650000	1	0.013500
3.666667	1	0.015000
3.683333	1	0.016375
3.700000	1	0.017875
3.716667	1	0.019625
3.733333	1	0.021375
3.750000	1	0.023250
3.766667	1	0.026000
3.783333	1	0.028000
3.800000	1	0.029625
3.816667	1	0.031875
3.833333	1	0.034125
3.850000	1	0.036000
3.866667	1	0.037125
3.883333	1	0.038750
3.900000	1	0.040000
3.916667	1	0.041625
3.933333	1	0.042375
3.950000	1	0.044000
3.966667	1	0.045250
3.983333	1	0.046125
4.000000	1	0.047375
4.016667	1	0.048125
4.033333	1	0.048000
4.050000	1	0.048125
4.066667	1	0.048875
4.083333	1	0.047875
4.100000	1	0.047625
4.116667	1	0.047375
4.133333	1	0.047250
4.150000	1	0.046500
4.166667	1	0.046375
4.183333	1	0.046500
4.200000	1	0.046250
4.216667	1	0.045750
4.233333	1	0.045125
4.250000	1	0.044500
4.266667	1	0.043500
4.283333	1	0.042875
4.300000	1	0.042125
4.316667	1	0.042125
4.333333	1	0.042250
4.350000	1	0.041375
4.366667	1	0.041375
4.383333	1	0.041250
4.400000	1	0.040000
4.416667	1	0.040500
4.433333	1	0.041000
4.450000	1	0.042000
4.466667	1	0.042625
4.483333	1	0.043750
4.500000	1	0.044625
4.516667	1	0.045875
4.533333	1	0.047000
4.550000	1	0.048750
4.566667	1	0.050625
4.583333	1	0.053125
4.600000	1	0.054125
4.616667	1	0.056625
4.633333	1	0.058750
4.650000	1	0.061250
4.666667	1	0.064000
4.683333	1	0.066375
4.700000	1	0.068875
4.716667	1	0.072125
4.733333	1	0.074750
4.750000	1	0.077875
4.766667	1	0.081750
4.783333	1	0.084750
4.800000	1	0.088125
4.816667	1	0.092000
4.833333	1	0.096250
4.850000	1	0.100000
4.866667	1	0.103500
4.883333	1	0.107375
4.900000	1	0.112000
4.916667	1	0.116500
4.933333	1	0.120125
4.950000	1	0.124500
4.966667	1	0.129375
4.983333	1	0.134125
5.000000	1	0.138375
5.016667	1	0.143125
5.033333	1	0.148000
5.050000	1	0.152750
5.066667	1	0.156750
5.083333	1	0.160750
5.100000	1	0.165750
5.116667	1	0.170875
5.133333	1	0.175000
5.150000	1	0.179750
5.166667	1	0.184375
5.183333	1	0.188875
5.200000	1	0.193250
5.216667	1	0.197750
5.233333	1	0.202125
5.250000	1	0.207000
5.266667	1	0.211500
5.283333	1	0.215875
5.300000	1	0.219625
5.316667	1	0.222750
5.333333	1	0.226250
5.350000	1	0.229875
5.366667	1	0.233125
5.383333	1	0.236750
5.400000	1	0.240500
5.416667	1	0.243000
5.433333	1	0.245375
5.450000	1	0.247625
5.466667	1	0.249375
5.483333	1	0.251000
5.500000	1	0.252250
5.516667	1	0.253375
5.533333	1	0.253875
5.550000	1	0.255375
5.566667	1	0.255750
5.583333	1	0.255750
5.600000	1	0.255625
5.616667	1	0.255375
5.633333	1	0.254875
5.650000	1	0.253875
5.666667	1	0.252000
5.683333	1	0.250250
5.700000	1	0.248000
5.716667	1	0.246375
5.733333	1	0.244250
5.750000	1	0.243000
5.766667	1	0.240875
5.783333	1	0.237750
5.800000	1	0.234000
5.816667	1	0.231750
5.833333	1	0.228625
5.850000	1	0.225500
5.866667	1	0.222000
5.883333	1	0.218875
5.900000	1	0.215375
5.916667	1	0.212125
5.933333	1	0.209125
5.950000	1	0.205625
5.966667	1	0.202000
5.983333	1	0.198500
6.000000	1	0.195375
6.016667	1	0.191500
6.033333	1	0.188000
6.050000	1	0.184375
6.066667	1	0.181125
6.083333	1	0.177250
6.100000	1	0.173500
6.116667	1	0.169250
6.133333	1	0.165750
6.150000	1	0.161375
6.166667	1	0.157500
6.183333	1	0.153875
6.200000	1	0.149875
6.216667	1	0.145375
6.233333	1	0.141500
6.250000	1	0.137750
6.266667	1	0.133125
6.283333	1	0.129250
6.300000	1	0.125750
6.316667	1	0.122000
6.333333	1	0.118375
6.350000	1	0.114625
6.366667	1	0.110875
6.383333	1	0.107250
6.400000	1	0.103625
6.416667	1	0.100250
6.433333	1	0.096375
6.450000	1	0.092500
6.466667	1	0.088875
6.483333	1	0.085250
6.500000	1	0.082500
6.516667	1	0.080125
6.533333	1	0.076875
6.550000	1	0.074250
6.566667	1	0.071125
6.583333	1	0.069000
6.600000	1	0.066500
6.616667	1	0.064250
6.633333	1	0.061125
6.650000	1	0.059250
6.666667	1	0.057500
6.683333	1	0.055125
6.700000	1	0.053250
6.716667	1	0.051875
6.733333	1	0.050750
6.750000	1	0.049875
6.766667	1	0.048625
6.783333	1	0.047500
6.800000	1	0.046625
6.816667	1	0.046250
6.833333	1	0.045500
6.850000	1	0.045125
6.866667	1	0.045250
6.883333	1	0.045125
6.900000	1	0.045125
6.916667	1	0.045000
6.933333	1	0.046250
6.950000	1	0.046750
6.966667	1	0.047625
6.983333	1	0.048125
7.000000	1	0.048750
7.016667	1	0.049500
7.033333	1	0.050375
7.050000	1	0.051500
7.066667	1	0.053000
7.083333	1	0.053500
7.100000	1	0.055250
7.116667	1	0.057000
7.133333	1	0.059375
7.150000	1	0.060875
7.166667	1	0.063125
7.183333	1	0.064750
7.200000	1	0.066375
7.216667	1	0.068375
7.233333	1	0.070250
7.250000	1	0.073000
7.266667	1	0.074875
7.283333	1	0.076750
7.300000	1	0.078750
7.316667	1	0.080625
7.333333	1	0.082125
7.350000	1	0.084000
7.366667	1	0.085500
7.383333	1	0.087125
7.400000	1	0.088000
7.416667	1	0.088500
7.433333	1	0.088875
7.450000	1	0.089500
7.466667	1	0.089500
7.483333	1	0.090000
7.500000	1	0.090125
7.516667	1	0.090125
7.533333	1	0.089750
7.550000	1	0.089000
7.566667	1	0.088375
7.583333	1	0.087875
7.600000	1	0.087625
7.616667	1	0.085375
7.633333	1	0.083625
7.650000	1	0.082000
7.666667	1	0.080375
7.683333	1	0.078875
7.700000	1	0.077000
7.716667	1	0.075375
7.733333	1	0.073750
7.750000	1	0.071500
7.766667	1	0.070125
7.783333	1	0.068125
7.800000	1	0.065625
7.816667	1	0.063000
7.833333	1	0.059875
7.850000	1	0.057125
7.866667	1	0.054750
7.883333	1	0.052500
7.900000	1	0.049625
7.916667	1	0.047125
7.933333	1	0.044875
7.950000	1	0.042875
7.966667	1	0.040000
7.983333	1	0.038000
8.000000	1	0.035875
8.016667	1	0.033625
8.033333	1	0.031750
8.050000	1	0.029500
8.066667	1	0.027125
8.083333	1	0.025500
8.100000	1	0.023500
8.116667	1	0.022375
8.133333	1	0.021375
8.150000	1	0.020375
8.166667	1	0.018625
8.183333	1	0.018125
8.200000	1	0.017000
8.216667	1	0.016000
8.233333	1	0.015000
8.250000	1	0.014750
8.266667	1	0.014000
8.283333	1	0.013625
8.300000	1	0.013000
8.316667	1	0.013000
8.333333	1	0.012750
8.350000	1	0.013125
8.366667	1	0.012250
8.383333	1	0.012250
8.400000	1	0.011500
8.416667	1	0.011250
8.433333	1	0.010125
8.450000	1	0.010500
8.466667	1	0.010625
8.483333	1	0.010750
8.500000	1	0.010625
8.516667	1	0.010250
8.533333	1	0.010250
8.550000	1	0.010375
8.566667	1	0.010250
8.583333	1	0.010000
8.600000	1	0.009625
8.616667	1	0.009375
8.633333	1	0.009000
8.650000	1	0.008000
8.666667	1	0.007625
8.683333	1	0.006625
8.700000	1	0.006250
8.716667	1	0.006875
8.733333	1	0.007000
8.750000	1	0.007250
8.766667	1	0.007875
8.783333	1	0.008000
8.800000	1	0.007625
8.816667	1	0.007875
8.833333	1	0.008250
8.850000	1	0.008625
8.866667	1	0.008625
8.883333	1	0.009750
8.900000	1	0.010500
8.916667	1	0.011375
8.933333	1	0.011875
8.950000	1	0.012750
8.966667	1	0.014125
8.983333	1	0.014625
9.000000	1	0.016000
9.016667	1	0.017000
9.033333	1	0.017125
9.050000	1	0.018375
9.066667	1	0.019250
9.083333	1	0.019875
9.100000	1	0.020750
9.116667	1	0.021875
9.133333	1	0.023375
9.150000	1	0.024500
9.166667	1	0.024875
9.183333	1	0.025500
9.200000	1	0.026000
9.216667	1	0.026875
9.233333	1	0.027500
9.250000	1	0.027750
9.266667	1	0.028500
9.283333	1	0.029125
9.300000	1	0.029625
9.316667	1	0.029875
9.333333	1	0.030000
9.350000	1	0.030000
9.366667	1	0.030000
9.383333	1	0.029625
9.400000	1	0.029250
9.416667	1	0.029000
9.433333	1	0.028500
9.450000	1	0.028125
9.466667	1	0.027375
9.483333	1	0.026500
9.500000	1	0.025625
9.516667	1	0.024750
9.533333	1	0.024250
9.550000	1	0.024000
9.566667	1	0.023000
9.583333	1	0.022750
9.600000	1	0.021375
9.616667	1	0.020125
9.633333	1	0.019375
9.650000	1	0.018500
9.666667	1	0.017500
9.683333	1	0.015750
9.700000	1	0.015000
9.716667	1	0.013500
9.733333	1	0.012250
9.750000	1	0.010750
9.766667	1	0.010125
9.783333	1	0.009250
9.800000	1	0.007625
9.816667	1	0.006625
9.833333	1	0.005500
9.850000	1	0.004625
9.866667	1	0.003375
9.883333	1	0.002375
9.900000	1	0.000875
9.916667	1	-0.000500
9.933333	1	-0.001500
9.950000	1	-0.002625
9.966667	1	-0.003000
9.983333	1	-0.003375
10.000000	1	-0.003750
10.016667	1	-0.003875
10.033333	1	-0.004375
10.050000	1	-0.004500
10.066667	1	-0.003750
10.083333	1	-0.002000
10.100000	1	0.000500
10.116667	1	0.003500
10.133333	1	0.007250
10.150000	1	0.012125
10.166667	1	0.018000
10.183333	1	0.026125
10.200000	1	0.035000
10.216667	1	0.045250
10.233333	1	0.057500
10.250000	1	0.072000
10.266667	1	0.088750
10.283333	1	0.107375
10.300000	1	0.129000
10.316667	1	0.153625
10.333333	1	0.181375
10.350000	1	0.210625
10.366667	1	0.240500
10.383333	1	0.269250
10.400000	1	0.294125
10.416667	1	0.312000
10.433333	1	0.319250
10.450000	1	0.312375
10.466667	1	0.288375
10.483333	1	0.250875
10.500000	1	0.209125
10.516667	1	0.184750
10.533333	1	0.214250
10.550000	1	0.352000
10.566667	1	0.666125
10.583333	1	1.232625
10.600000	1	2.129875
10.616667	1	3.427250
10.633333	1	5.178875
10.650000	1	7.418000
10.666667	1	10.166875
10.683333	1	13.426875
10.700000	1	17.181250
10.716667	1	21.387625
10.733333	1	25.973750
10.750000	1	30.827500
10.766667	1	35.777250
10.783333	1	40.583125
10.800000	1	44.919125
10.816667	1	48.381375
10.833333	1	50.540250
10.850000	1	51.046750
10.866667	1	49.738500
10.883333	1	46.723125
10.900000	1	42.365875
10.916667	1	37.194375
10.933333	1	31.752500
10.950000	1	26.487250
10.966667	1	21.693125
10.983333	1	17.525125
11.000000	1	14.024625
11.016667	1	11.162875
11.033333	1	8.874625
11.050000	1	7.076500
11.066667	1	5.680375
11.083333	1	4.606250
11.100000	1	3.784125
11.116667	1	3.156625
11.133333	1	2.677000
11.150000	1	2.307500
11.166667	1	2.022875
11.183333	1	1.801000
11.200000	1	1.625375
11.216667	1	1.484750
11.233333	1	1.370875
11.250000	1	1.277250
11.266667	1	1.200000
11.283333	1	1.134625
11.300000	1	1.079625
11.316667	1	1.033500
11.333333	1	0.993000
11.350000	1	0.957625
11.366667	1	0.927625
11.383333	1	0.902125
11.400000	1	0.880125
11.416667	1	0.861375
11.433333	1	0.844750
11.450000	1	0.831250
11.466667	1	0.819000
11.483333	1	0.809375
11.500000	1	0.800750
11.516667	1	0.794125
11.533333	1	0.788875
11.550000	1	0.784875
11.566667	1	0.782375
11.583333	1	0.780875
11.600000	1	0.780125
11.616667	1	0.781875
11.633333	1	0.784000
11.650000	1	0.787125
11.666667	1	0.791875
11.683333	1	0.798250
11.700000	1	0.805375
11.716667	1	0.814375
11.733333	1	0.823875
11.750000	1	0.834375
11.766667	1	0.845375
11.783333	1	0.856750
11.800000	1	0.868750
11.816667	1	0.880000
11.833333	1	0.890750
11.850000	1	0.900875
11.866667	1	0.910750
11.883333	1	0.919250
11.900000	1	0.927250
11.916667	1	0.933625
11.933333	1	0.940000
11.950000	1	0.945500
11.966667	1	0.950250
11.983333	1	0.954625
12.000000	1	0.959625
12.016667	1	0.964125
12.033333	1	0.967500
12.050000	1	0.972250
12.066667	1	0.977000
12.083333	1	0.982875
12.100000	1	0.988875
12.116667	1	0.995250
12.133333	1	1.001750
12.150000	1	1.009500
12.166667	1	1.018000
12.183333	1	1.027500
12.200000	1	1.038250
12.216667	1	1.051125
12.233333	1	1.066125
12.250000	1	1.084375
12.266667	1	1.107625
12.283333	1	1.137375
12.300000	1	1.174375
12.316667	1	1.220750
12.333333	1	1.281000
12.350000	1	1.357125
12.366667	1	1.454250
12.383333	1	1.575125
12.400000	1	1.725750
12.416667	1	1.909000
12.433333	1	2.131000
12.450000	1	2.396000
12.466667	1	2.709250
12.483333	1	3.075250
12.500000	1	3.497875
12.516667	1	3.978375
12.533333	1	4.517625
12.550000	1	5.112375
12.566667	1	5.758875
12.583333	1	6.449125
12.600000	1	7.171625
12.616667	1	7.911750
12.633333	1	8.656375
12.650000	1	9.389625
12.666667	1	10.098625
12.683333	1	10.773625
12.700000	1	11.407250
12.716667	1	11.997875
12.733333	1	12.549000
12.750000	1	13.066625
12.766667	1	13.560750
12.783333	1	14.041250
12.800000	1	14.519375
12.816667	1	15.005750
12.833333	1	15.509125
12.850000	1	16.036625
12.866667	1	16.593125
12.883333	1	17.181250
12.900000	1	17.802375
12.916667	1	18.456625
12.933333	1	19.143125
12.950000	1	19.860125
12.966667	1	20.604250
12.983333	1	21.375375
13.000000	1	22.171500
13.016667	1	22.989625
13.033333	1	23.831125
13.050000	1	24.693750
13.066667	1	25.577625
13.083333	1	26.483750
13.100000	1	27.410250
13.116667	1	28.356375
13.133333	1	29.321875
13.150000	1	30.305875
13.166667	1	31.309125
13.183333	1	32.330625
13.200000	1	33.370375
13.216667	1	34.428500
13.233333	1	35.507750
13.250000	1	36.607500
13.266667	1	37.728000
13.283333	1	38.870375
13.300000	1	40.035500
13.316667	1	41.223625
13.333333	1	42.434625
13.350000	1	43.669125
13.366667	1	44.927250
13.383333	1	46.209375
13.400000	1	47.514125
13.416667	1	48.844625
13.433333	1	50.201875
13.450000	1	51.588250
13.466667	1	53.001625
13.483333	1	54.446500
13.500000	1	55.921500
13.516667	1	57.427875
13.533333	1	58.963750
13.550000	1	60.530500
13.566667	1	62.128750
13.583333	1	63.759375
13.600000	1	65.421250
13.616667	1	67.115875
13.633333	1	68.846125
13.650000	1	70.614625
13.666667	1	72.422000
13.683333	1	74.268250
13.700000	1	76.146625
13.716667	1	78.029375
13.733333	1	79.830625
13.750000	1	81.370500
13.766667	1	82.386500
13.783333	1	82.568750
13.800000	1	81.623625
13.816667	1	79.277000
13.833333	1	75.296125
13.850000	1	69.567250
13.866667	1	62.256500
13.883333	1	53.885125
13.900000	1	45.222500
13.916667	1	37.026500
13.933333	1	29.814875
13.950000	1	23.797750
13.966667	1	18.955125
13.983333	1	15.147125
14.000000	1	12.200375
14.016667	1	9.946750
14.033333	1	8.244375
14.050000	1	6.973250
14.066667	1	6.031125
14.083333	1	5.335500
14.100000	1	4.820875
14.116667	1	4.436125
14.133333	1	4.143750
14.150000	1	3.917250
14.166667	1	3.737250
14.183333	1	3.591875
14.200000	1	3.471625
14.216667	1	3.370000
14.233333	1	3.281750
14.250000	1	3.204375
14.266667	1	3.136000
14.283333	1	3.073625
14.300000	1	3.018125
14.316667	1	2.967500
14.333333	1	2.922125
14.350000	1	2.882500
14.366667	1	2.848500
14.383333	1	2.820500
14.400000	1	2.800375
14.416667	1	2.789000
14.433333	1	2.790250
14.450000	1	2.806750
14.466667	1	2.844250
14.483333	1	2.910250
14.500000	1	3.017000
14.516667	1	3.180875
14.533333	1	3.423375
14.550000	1	3.775750
14.566667	1	4.277375
14.583333	1	4.978000
14.600000	1	5.937625
14.616667	1	7.230500
14.633333	1	8.936500
14.650000	1	11.139125
14.666667	1	13.916500
14.683333	1	17.329875
14.700000	1	21.413125
14.716667	1	26.159500
14.733333	1	31.518250
14.750000	1	37.385625
14.766667	1	43.591375
14.783333	1	49.914750
14.800000	1	56.098500
14.816667	1	61.864000
14.833333	1	66.929750
14.850000	1	71.031875
14.866667	1	73.949875
14.883333	1	75.537625
14.900000	1	75.728000
14.916667	1	74.543000
14.933333	1	72.089375
14.950000	1	68.541625
14.966667	1	64.126250
14.983333	1	59.099375
15.000000	1	53.709250
15.016667	1	48.186125
15.033333	1	42.729375
15.050000	1	37.501750
15.066667	1	32.622250
15.083333	1	28.169250
15.100000	1	24.183625
15.116667	1	20.674875
15.133333	1	17.627750
15.150000	1	15.010250
15.166667	1	12.784625
15.183333	1	10.908125
15.200000	1	9.335750
15.216667	1	8.025375
15.233333	1	6.936875
15.250000	1	6.037875
15.266667	1	5.298250
15.283333	1	4.692625
15.300000	1	4.200125
15.316667	1	3.802625
15.333333	1	3.483875
15.350000	1	3.231500
15.366667	1	3.033375
15.383333	1	2.881000
15.400000	1	2.766000
15.416667	1	2.680625
15.433333	1	2.617875
15.450000	1	2.573500
15.466667	1	2.541125
15.483333	1	2.515500
15.500000	1	2.493375
15.516667	1	2.471750
15.533333	1	2.447625
15.550000	1	2.420625
15.566667	1	2.388875
15.583333	1	2.353875
15.600000	1	2.315875
15.616667	1	2.276500
15.633333	1	2.236375
15.650000	1	2.196250
15.666667	1	2.158500
15.683333	1	2.122500
15.700000	1	2.088250
15.716667	1	2.056125
15.733333	1	2.025625
15.750000	1	1.995250
15.766667	1	1.966125
15.783333	1	1.937125
15.800000	1	1.907000
15.816667	1	1.875500
15.833333	1	1.843500
15.850000	1	1.810625
15.866667	1	1.779000
15.883333	1	1.747375
15.900000	1	1.718250
15.916667	1	1.691000
15.933333	1	1.667250
15.950000	1	1.646375
15.966667	1	1.629375
15.983333	1	1.616000
16.000000	1	1.605125
16.016667	1	1.597625
16.033333	1	1.591375
16.050000	1	1.586250
16.066667	1	1.580625
16.083333	1	1.575125
16.100000	1	1.569125
16.116667	1	1.561875
16.133333	1	1.553125
16.150000	1	1.542875
16.166667	1	1.530500
16.183333	1	1.516250
16.200000	1	1.500250
16.216667	1	1.484250
16.233333	1	1.466875
16.250000	1	1.448625
16.266667	1	1.429250
16.283333	1	1.409625
16.300000	1	1.390250
16.316667	1	1.371250
16.333333	1	1.352250
16.350000	1	1.334375
16.366667	1	1.316875
16.383333	1	1.300875
16.400000	1	1.286375
16.416667	1	1.275500
16.433333	1	1.266000
16.450000	1	1.258500
16.466667	1	1.254500
16.483333	1	1.253000
16.500000	1	1.253875
16.516667	1	1.256375
16.533333	1	1.260000
16.550000	1	1.264500
16.566667	1	1.270375
16.583333	1	1.275375
16.600000	1	1.279250
16.616667	1	1.282250
16.633333	1	1.284250
16.650000	1	1.283500
16.666667	1	1.281250
16.683333	1	1.277875
16.700000	1	1.273625
16.716667	1	1.269000
16.733333	1	1.263875
16.750000	1	1.260000
16.766667	1	1.257000
16.783333	1	1.254875
16.800000	1	1.254375
16.816667	1	1.254750
16.833333	1	1.256000
16.850000	1	1.258500
16.866667	1	1.261750
16.883333	1	1.264375
16.900000	1	1.265625
16.916667	1	1.266875
16.933333	1	1.266750
16.950000	1	1.264875
16.966667	1	1.262250
16.983333	1	1.258375
17.000000	1	1.252875
17.016667	1	1.247000
17.033333	1	1.240250
17.050000	1	1.233125
17.066667	1	1.225625
17.083333	1	1.218750
17.100000	1	1.212375
17.116667	1	1.206250
17.133333	1	1.202250
17.150000	1	1.199000
17.166667	1	1.196875
17.183333	1	1.195625
17.200000	1	1.195500
17.216667	1	1.196625
17.233333	1	1.198000
17.250000	1	1.201125
17.266667	1	1.204125
17.283333	1	1.208250
17.300000	1	1.212125
17.316667	1	1.216750
17.333333	1	1.221500
17.350000	1	1.227000
17.366667	1	1.232625
17.383333	1	1.238500
17.400000	1	1.243875
17.416667	1	1.248625
17.433333	1	1.252250
17.450000	1	1.254750
17.466667	1	1.255875
17.483333	1	1.256000
17.500000	1	1.254625
17.516667	1	1.251250
17.533333	1	1.246250
17.550000	1	1.239125
17.566667	1	1.230500
17.583333	1	1.220750
17.600000	1	1.208625
17.616667	1	1.195750
17.633333	1	1.181625
17.650000	1	1.167750
17.666667	1	1.153000
17.683333	1	1.138125
17.700000	1	1.123125
17.716667	1	1.107500
17.733333	1	1.091875
17.750000	1	1.077000
17.766667	1	1.062625
17.783333	1	1.048375
17.800000	1	1.035000
17.816667	1	1.022500
17.833333	1	1.010375
17.850000	1	0.999000
17.866667	1	0.988250
17.883333	1	0.977750
17.900000	1	0.968000
17.916667	1	0.959500
17.933333	1	0.949875
17.950000	1	0.941125
17.966667	1	0.932625
17.983333	1	0.924125
18.000000	1	0.915500
18.016667	1	0.907625
18.033333	1	0.899500
18.050000	1	0.891000
18.066667	1	0.882625
18.083333	1	0.873375
18.100000	1	0.865625
18.116667	1	0.858500
18.133333	1	0.851500
18.150000	1	0.845125
18.166667	1	0.840125
18.183333	1	0.835875
18.200000	1	0.833000
18.216667	1	0.830375
18.233333	1	0.828375
18.250000	1	0.827375
18.266667	1	0.826625
18.283333	1	0.827125
18.300000	1	0.827875
18.316667	1	0.828875
18.333333	1	0.830000
18.350000	1	0.832500
18.366667	1	0.835125
18.383333	1	0.838125
18.400000	1	0.842000
18.416667	1	0.846125
18.433333	1	0.852250
18.450000	1	0.859125
18.466667	1	0.867875
18.483333	1	0.878500
18.500000	1	0.891000
18.516667	1	0.904750
18.533333	1	0.921000
18.550000	1	0.939125
18.566667	1	0.958500
18.583333	1	0.979625
18.600000	1	1.004000
18.616667	1	1.030000
18.633333	1	1.057250
18.650000	1	1.085875
18.666667	1	1.116125
18.683333	1	1.148000
18.700000	1	1.181750
18.716667	1	1.216500
18.733333	1	1.251625
18.750000	1	1.287875
18.766667	1	1.323750
18.783333	1	1.359625
18.800000	1	1.395625
18.816667	1	1.429625
18.833333	1	1.461625
18.850000	1	1.491125
18.866667	1	1.517125
18.883333	1	1.538750
18.900000	1	1.554875
18.916667	1	1.565500
18.933333	1	1.570000
18.950000	1	1.567000
18.966667	1	1.556625
18.983333	1	1.539375
19.000000	1	1.515875
19.016667	1	1.485250
19.033333	1	1.448875
19.050000	1	1.408125
19.066667	1	1.363750
19.083333	1	1.317625
19.100000	1	1.270125
19.116667	1	1.224125
19.133333	1	1.179875
19.150000	1	1.139125
19.166667	1	1.103750
19.183333	1	1.075625
19.200000	1	1.056375
19.216667	1	1.047750
19.233333	1	1.050500
19.250000	1	1.066375
19.266667	1	1.097750
19.283333	1	1.144625
19.300000	1	1.209375
19.316667	1	1.290750
19.333333	1	1.388125
19.350000	1	1.501875
19.366667	1	1.631625
19.383333	1	1.772875
19.400000	1	1.923125
19.416667	1	2.079250
19.433333	1	2.235500
19.450000	1	2.388500
19.466667	1	2.533125
19.483333	1	2.664000
19.500000	1	2.776375
19.516667	1	2.866375
19.533333	1	2.931125
19.550000	1	2.968875
19.566667	1	2.977750
19.583333	1	2.958500
19.600000	1	2.912875
19.616667	1	2.843000
19.633333	1	2.751500
19.650000	1	2.642125
19.666667	1	2.519000
19.683333	1	2.386250
19.700000	1	2.247750
19.716667	1	2.107500
19.733333	1	1.968000
19.750000	1	1.831000
19.766667	1	1.700125
19.783333	1	1.576125
19.800000	1	1.460250
19.816667	1	1.352250
19.833333	1	1.253625
19.850000	1	1.163125
19.866667	1	1.081500
19.883333	1	1.007625
19.900000	1	0.941625
19.916667	1	0.883250
19.933333	1	0.832250
19.950000	1	0.786750
19.966667	1	0.747750
19.983333	1	0.714250
20.000000	1	0.686000
20.016667	1	0.662875
20.033333	1	0.644000
20.050000	1	0.629750
20.066667	1	0.619500
20.083333	1	0.613250
20.100000	1	0.610750
20.116667	1	0.612500
20.133333	1	0.617875
20.150000	1	0.625500
20.166667	1	0.635750
20.183333	1	0.648625
20.200000	1	0.663375
20.216667	1	0.677500
20.233333	1	0.692750
20.250000	1	0.708000
20.266667	1	0.720625
20.283333	1	0.731625
20.300000	1	0.740000
20.316667	1	0.745000
20.333333	1	0.747250
20.350000	1	0.746125
20.366667	1	0.741500
20.383333	1	0.733750
20.400000	1	0.722875
20.416667	1	0.710000
20.433333	1	0.695750
20.450000	1	0.679875
20.466667	1	0.663875
20.483333	1	0.649000
20.500000	1	0.635750
20.516667	1	0.625875
20.533333	1	0.619000
20.550000	1	0.616125
20.566667	1	0.618250
20.583333	1	0.626875
20.600000	1	0.642250
20.616667	1	0.664875
20.633333	1	0.696250
20.650000	1	0.735500
20.666667	1	0.783125
20.683333	1	0.840125
20.700000	1	0.904750
20.716667	1	0.975875
20.733333	1	1.054500
20.750000	1	1.137625
20.766667	1	1.223250
20.783333	1	1.308750
20.800000	1	1.392750
20.816667	1	1.472125
20.833333	1	1.543750
20.850000	1	1.606000
20.866667	1	1.655625
20.883333	1	1.691375
20.900000	1	1.713125
20.916667	1	1.719250
20.933333	1	1.710125
20.950000	1	1.686875
20.966667	1	1.649500
20.983333	1	1.600625
21.000000	1	1.542500
21.016667	1	1.476625
21.033333	1	1.404750
21.050000	1	1.329500
21.066667	1	1.253000
21.083333	1	1.176750
21.100000	1	1.103250
21.116667	1	1.033625
21.133333	1	0.966875
21.150000	1	0.905125
21.166667	1	0.848625
21.183333	1	0.796875
21.200000	1	0.750375
21.216667	1	0.708375
21.233333	1	0.670875
21.250000	1	0.638125
21.266667	1	0.609500
21.283333	1	0.585250
21.300000	1	0.564625
21.316667	1	0.546375
21.333333	1	0.530625
21.350000	1	0.516875
21.366667	1	0.504875
21.383333	1	0.494625
21.400000	1	0.485750
21.416667	1	0.477875
21.433333	1	0.471875
21.450000	1	0.466250
21.466667	1	0.461250
21.483333	1	0.456875
21.500000	1	0.453625
21.516667	1	0.451250
21.533333	1	0.448625
21.550000	1	0.446625
21.566667	1	0.446125
21.583333	1	0.445500
21.600000	1	0.446750
21.616667	1	0.448375
21.633333	1	0.451125
21.650000	1	0.454500
21.666667	1	0.458875
21.683333	1	0.464875
21.700000	1	0.471750
21.716667	1	0.480000
21.733333	1	0.488125
21.750000	1	0.497500
21.766667	1	0.508750
21.783333	1	0.520750
21.800000	1	0.532375
21.816667	1	0.545125
21.833333	1	0.558500
21.850000	1	0.571375
21.866667	1	0.584500
21.883333	1	0.596875
21.900000	1	0.609250
21.916667	1	0.620500
21.933333	1	0.631125
21.950000	1	0.641000
21.966667	1	0.649250
21.983333	1	0.656125
22.000000	1	0.662000
22.016667	1	0.666375
22.033333	1	0.669500
22.050000	1	0.671750
22.066667	1	0.672250
22.083333	1	0.671500
22.100000	1	0.670500
22.116667	1	0.667875
22.133333	1	0.663875
22.150000	1	0.659125
22.166667	1	0.653375
22.183333	1	0.647000
22.200000	1	0.638625
22.216667	1	0.629125
22.233333	1	0.619875
22.250000	1	0.608875
22.266667	1	0.596875
22.283333	1	0.584375
22.300000	1	0.571000
22.316667	1	0.556875
22.333333	1	0.542000
22.350000	1	0.526875
22.366667	1	0.512250
22.383333	1	0.497375
22.400000	1	0.482875
22.416667	1	0.468250
22.433333	1	0.453875
22.450000	1	0.440000
22.466667	1	0.426375
22.483333	1	0.413375
22.500000	1	0.401750
22.516667	1	0.390750
22.533333	1	0.380125
22.550000	1	0.370750
22.566667	1	0.361750
22.583333	1	0.353500
22.600000	1	0.345375
22.616667	1	0.338250
22.633333	1	0.330625
22.650000	1	0.324250
22.666667	1	0.318000
22.683333	1	0.312000
22.700000	1	0.306750
22.716667	1	0.301875
22.733333	1	0.297375
22.750000	1	0.292875
22.766667	1	0.288250
22.783333	1	0.284625
22.800000	1	0.280625
22.816667	1	0.276250
22.833333	1	0.272625
22.850000	1	0.269750
22.866667	1	0.267750
22.883333	1	0.266000
22.900000	1	0.264500
22.916667	1	0.263625
22.933333	1	0.263500
22.950000	1	0.263375
22.966667	1	0.263500
22.983333	1	0.263750
23.000000	1	0.264125
23.016667	1	0.265375
23.033333	1	0.267250
23.050000	1	0.269625
23.066667	1	0.272250
23.083333	1	0.275750
23.100000	1	0.279125
23.116667	1	0.282375
23.133333	1	0.285875
23.150000	1	0.289500
23.166667	1	0.292625
23.183333	1	0.297125
23.200000	1	0.301750
23.216667	1	0.305750
23.233333	1	0.310125
23.250000	1	0.315500
23.266667	1	0.321125
23.283333	1	0.327375
23.300000	1	0.335625
23.316667	1	0.346250
23.333333	1	0.358750
23.350000	1	0.374250
23.366667	1	0.393625
23.383333	1	0.417875
23.400000	1	0.448875
23.416667	1	0.486500
23.433333	1	0.532375
23.450000	1	0.588125
23.466667	1	0.656375
23.483333	1	0.738000
23.500000	1	0.835500
23.516667	1	0.951750
23.533333	1	1.086500
23.550000	1	1.242125
23.566667	1	1.419625
23.583333	1	1.619250
23.600000	1	1.842500
23.616667	1	2.086625
23.633333	1	2.352125
23.650000	1	2.635000
23.666667	1	2.932125
23.683333	1	3.239375
23.700000	1	3.552375
23.716667	1	3.865000
23.733333	1	4.172375
23.750000	1	4.466000
23.766667	1	4.739500
23.783333	1	4.985875
23.800000	1	5.200000
23.816667	1	5.375750
23.833333	1	5.510125
23.850000	1	5.600625
23.866667	1	5.644500
23.883333	1	5.642000
23.900000	1	5.594500
23.916667	1	5.504250
23.933333	1	5.373375
23.950000	1	5.207625
23.966667	1	5.011000
23.983333	1	4.789875
24.000000	1	4.549000
24.016667	1	4.294500
24.033333	1	4.032125
24.050000	1	3.766250
24.066667	1	3.502000
24.083333	1	3.242375
24.100000	1	2.990500
24.116667	1	2.749375
24.133333	1	2.519500
24.150000	1	2.303250
24.166667	1	2.101500
24.183333	1	1.914625
24.200000	1	1.743000
24.216667	1	1.586500
24.233333	1	1.443250
24.250000	1	1.314000
24.266667	1	1.198000
24.283333	1	1.094125
24.300000	1	1.000625
24.316667	1	0.917500
24.333333	1	0.844750
24.350000	1	0.781375
24.366667	1	0.724875
24.383333	1	0.677250
24.400000	1	0.636000
24.416667	1	0.600500
24.433333	1	0.570125
24.450000	1	0.545375
24.466667	1	0.525250
24.483333	1	0.508875
24.500000	1	0.495250
24.516667	1	0.484875
24.533333	1	0.476625
24.550000	1	0.469750
24.566667	1	0.464500
24.583333	1	0.459750
24.600000	1	0.456750
24.616667	1	0.453500
24.633333	1	0.450250
24.650000	1	0.446875
24.666667	1	0.444125
24.683333	1	0.441000
24.700000	1	0.438500
24.716667	1	0.435125
24.733333	1	0.430500
24.750000	1	0.425875
24.766667	1	0.420750
24.783333	1	0.415250
24.800000	1	0.410625
24.816667	1	0.405625
24.833333	1	0.400500
24.850000	1	0.394875
24.866667	1	0.388875
24.883333	1	0.383000
24.900000	1	0.377875
24.916667	1	0.372750
24.933333	1	0.367750
24.950000	1	0.361750
24.966667	1	0.356750
24.983333	1	0.351875
25.000000	1	0.346875
25.016667	1	0.341875
25.033333	1	0.338250
25.050000	1	0.333750
25.066667	1	0.329500
25.083333	1	0.325750
25.100000	1	0.322125
25.116667	1	0.318750
25.133333	1	0.315125
25.150000	1	0.311875
25.166667	1	0.308625
25.183333	1	0.305375
25.200000	1	0.302250
25.216667	1	0.298875
25.233333	1	0.295250
25.250000	1	0.292000
25.266667	1	0.289375
25.283333	1	0.287000
25.300000	1	0.285500
25.316667	1	0.283500
25.333333	1	0.281875
25.350000	1	0.280000
25.366667	1	0.278750
25.383333	1	0.277625
25.400000	1	0.277250
25.416667	1	0.276625
25.433333	1	0.277125
25.450000	1	0.278000
25.466667	1	0.278500
25.483333	1	0.279500
25.500000	1	0.281125
25.516667	1	0.281625
25.533333	1	0.283375
25.550000	1	0.284125
25.566667	1	0.286250
25.583333	1	0.287000
25.600000	1	0.289000
25.616667	1	0.290625
25.633333	1	0.292250
25.650000	1	0.293125
25.666667	1	0.294375
25.683333	1	0.295125
25.700000	1	0.296625
25.716667	1	0.297250
25.733333	1	0.298250
25.750000	1	0.298750
25.766667	1	0.298625
25.783333	1	0.299000
25.800000	1	0.299500
25.816667	1	0.299250
25.833333	1	0.299250
25.850000	1	0.299750
25.866667	1	0.300875
25.883333	1	0.301750
25.900000	1	0.303375
25.916667	1	0.304750
25.933333	1	0.306375
25.950000	1	0.308625
25.966667	1	0.311250
25.983333	1	0.314375
26.000000	1	0.317375
26.016667	1	0.320500
26.033333	1	0.324375
26.050000	1	0.328500
26.066667	1	0.333625
26.083333	1	0.338500
26.100000	1	0.343875
26.116667	1	0.349125
26.133333	1	0.355000
26.150000	1	0.360500
26.166667	1	0.366000
26.183333	1	0.372250
26.200000	1	0.377875
26.216667	1	0.382875
26.233333	1	0.388000
26.250000	1	0.391875
26.266667	1	0.396000
26.283333	1	0.399875
26.300000	1	0.402000
26.316667	1	0.404250
26.333333	1	0.405250
26.350000	1	0.405500
26.366667	1	0.404500
26.383333	1	0.403500
26.400000	1	0.401875
26.416667	1	0.399500
26.433333	1	0.395750
26.450000	1	0.391750
26.466667	1	0.387250
26.483333	1	0.382875
26.500000	1	0.377000
26.516667	1	0.371250
26.533333	1	0.364125
26.550000	1	0.356625
26.566667	1	0.349750
26.583333	1	0.343000
26.600000	1	0.335625
26.616667	1	0.328500
26.633333	1	0.321125
26.650000	1	0.313750
26.666667	1	0.306000
26.683333	1	0.299250
26.700000	1	0.292125
26.716667	1	0.285875
26.733333	1	0.279125
26.750000	1	0.273625
26.766667	1	0.267250
26.783333	1	0.262375
26.800000	1	0.258000
26.816667	1	0.252750
26.833333	1	0.248750
26.850000	1	0.245750
26.866667	1	0.242500
26.883333	1	0.239625
26.900000	1	0.237000
26.916667	1	0.234625
26.933333	1	0.233250
26.950000	1	0.232250
26.966667	1	0.231625
26.983333	1	0.231125
27.000000	1	0.231500
27.016667	1	0.232375
27.033333	1	0.234000
27.050000	1	0.235750
27.066667	1	0.239125
27.083333	1	0.242250
27.100000	1	0.246250
27.116667	1	0.251500
27.133333	1	0.257625
27.150000	1	0.264375
27.166667	1	0.273500
27.183333	1	0.283875
27.200000	1	0.296125
27.216667	1	0.310750
27.233333	1	0.328375
27.250000	1	0.348375
27.266667	1	0.371250
27.283333	1	0.398250
27.300000	1	0.429500
27.316667	1	0.466875
27.333333	1	0.510625
27.350000	1	0.560250
27.366667	1	0.616625
27.383333	1	0.680375
27.400000	1	0.754375
27.416667	1	0.837750
27.433333	1	0.931375
27.450000	1	1.036750
27.466667	1	1.153750
27.483333	1	1.282875
27.500000	1	1.425250
27.516667	1	1.579750
27.533333	1	1.746875
27.550000	1	1.926000
27.566667	1	2.116125
27.583333	1	2.315375
27.600000	1	2.522875
27.616667	1	2.736500
27.633333	1	2.954250
27.650000	1	3.173750
27.666667	1	3.392125
27.683333	1	3.605750
27.700000	1	3.811375
27.716667	1	4.006500
27.733333	1	4.186250
27.750000	1	4.348375
27.766667	1	4.489625
27.783333	1	4.606875
27.800000	1	4.699000
27.816667	1	4.763875
27.833333	1	4.799500
27.850000	1	4.805625
27.866667	1	4.781500
27.883333	1	4.728125
27.900000	1	4.646625
27.916667	1	4.538500
27.933333	1	4.406125
27.950000	1	4.252375
27.966667	1	4.080250
27.983333	1	3.893125
28.000000	1	3.694875
28.016667	1	3.489000
28.033333	1	3.277000
28.050000	1	3.061875
28.066667	1	2.848375
28.083333	1	2.638875
28.100000	1	2.435000
28.116667	1	2.238250
28.133333	1	2.050750
28.150000	1	1.873875
28.166667	1	1.708125
28.183333	1	1.553875
28.200000	1	1.411625
28.216667	1	1.281250
28.233333	1	1.162250
28.250000	1	1.054750
28.266667	1	0.957750
28.283333	1	0.870625
28.300000	1	0.793500
28.316667	1	0.726125
28.333333	1	0.666500
28.350000	1	0.615000
28.366667	1	0.570625
28.383333	1	0.533375
28.400000	1	0.502250
28.416667	1	0.476625
28.433333	1	0.456125
28.450000	1	0.440000
28.466667	1	0.427875
28.483333	1	0.420625
28.500000	1	0.416500
28.516667	1	0.414625
28.533333	1	0.416375
28.550000	1	0.420375
28.566667	1	0.425500
28.583333	1	0.432875
28.600000	1	0.441500
28.616667	1	0.451625
28.633333	1	0.462375
28.650000	1	0.474625
28.666667	1	0.487125
28.683333	1	0.499250
28.700000	1	0.511875
28.716667	1	0.524625
28.733333	1	0.537125
28.750000	1	0.548500
28.766667	1	0.558750
28.783333	1	0.568875
28.800000	1	0.578875
28.816667	1	0.587750
28.833333	1	0.594875
28.850000	1	0.600875
28.866667	1	0.606500
28.883333	1	0.609500
28.900000	1	0.611750
28.916667	1	0.613125
28.933333	1	0.613000
28.950000	1	0.611000
28.966667	1	0.607875
28.983333	1	0.603625
29.000000	1	0.598750
29.016667	1	0.593250
29.033333	1	0.585500
29.050000	1	0.576250
29.066667	1	0.566375
29.083333	1	0.556375
29.100000	1	0.545500
29.116667	1	0.534000
29.133333	1	0.521250
29.150000	1	0.508250
29.166667	1	0.494875
29.183333	1	0.480875
29.200000	1	0.466250
29.216667	1	0.451375
29.233333	1	0.437000
29.250000	1	0.422375
29.266667	1	0.407375
29.283333	1	0.393250
29.300000	1	0.378375
29.316667	1	0.364125
29.333333	1	0.349625
29.350000	1	0.336125
29.366667	1	0.322250
29.383333	1	0.309375
29.400000	1	0.296500
29.416667	1	0.284875
29.433333	1	0.273875
29.450000	1	0.262875
29.466667	1	0.252500
29.483333	1	0.242375
29.500000	1	0.232250
29.516667	1	0.223250
29.533333	1	0.214625
29.550000	1	0.207250
29.566667	1	0.200125
29.583333	1	0.193000
29.600000	1	0.186625
29.616667	1	0.180875
29.633333	1	0.175625
29.650000	1	0.170125
29.666667	1	0.165500
29.683333	1	0.161250
29.700000	1	0.157500
29.716667	1	0.153875
29.733333	1	0.150625
29.750000	1	0.147500
29.766667	1	0.145375
29.783333	1	0.142750
29.800000	1	0.140625
29.816667	1	0.139625
29.833333	1	0.137875
29.850000	1	0.135875
29.866667	1	0.135000
29.883333	1	0.133250
29.900000	1	0.132625
29.916667	1	0.131625
29.933333	1	0.130500
29.950000	1	0.130125
29.966667	1	0.129125
29.983333	1	0.128500
30.000000	1	0.128000
30.016667	1	0.127750
30.033333	1	0.127375
30.050000	1	0.126750
30.066667	1	0.126000
30.083333	1	0.125625
30.100000	1	0.124375
30.116667	1	0.123875
30.133333	1	0.123500
30.150000	1	0.123250
30.166667	1	0.123000
30.183333	1	0.123000
30.200000	1	0.122500
30.216667	1	0.122250
30.233333	1	0.122000
30.250000	1	0.122500
30.266667	1	0.123125
30.283333	1	0.123625
30.300000	1	0.123375
30.316667	1	0.123750
30.333333	1	0.123875
30.350000	1	0.124625
30.366667	1	0.125000
30.383333	1	0.125875
30.400000	1	0.127250
30.416667	1	0.128500
30.433333	1	0.130500
30.450000	1	0.132875
30.466667	1	0.134625
30.483333	1	0.136375
30.500000	1	0.139375
30.516667	1	0.143250
30.533333	1	0.146750
30.550000	1	0.150500
30.566667	1	0.155000
30.583333	1	0.159875
30.600000	1	0.165375
30.616667	1	0.171750
30.633333	1	0.178375
30.650000	1	0.185125
30.666667	1	0.192625
30.683333	1	0.200250
30.700000	1	0.208500
30.716667	1	0.217500
30.733333	1	0.227000
30.750000	1	0.236625
30.766667	1	0.247500
30.783333	1	0.259000
30.800000	1	0.270750
30.816667	1	0.283375
30.833333	1	0.297125
30.850000	1	0.312250
30.866667	1	0.327500
30.883333	1	0.344250
30.900000	1	0.362000
30.916667	1	0.380625
30.933333	1	0.401000
30.950000	1	0.425000
30.966667	1	0.450875
30.983333	1	0.479125
31.000000	1	0.510875
31.016667	1	0.546625
31.033333	1	0.586625
31.050000	1	0.630875
31.066667	1	0.680750
31.083333	1	0.736875
31.100000	1	0.799375
31.116667	1	0.869375
31.133333	1	0.947625
31.150000	1	1.033875
31.166667	1	1.128875
31.183333	1	1.233750
31.200000	1	1.348000
31.216667	1	1.472500
31.233333	1	1.607250
31.250000	1	1.750625
31.266667	1	1.903375
31.283333	1	2.064625
31.300000	1	2.232750
31.316667	1	2.408000
31.333333	1	2.588125
31.350000	1	2.772000
31.366667	1	2.958000
31.383333	1	3.143750
31.400000	1	3.327375
31.416667	1	3.506500
31.433333	1	3.679375
31.450000	1	3.843250
31.466667	1	3.996375
31.483333	1	4.135500
31.500000	1	4.259625
31.516667	1	4.367375
31.533333	1	4.456875
31.550000	1	4.526625
31.566667	1	4.576125
31.583333	1	4.605750
31.600000	1	4.613625
31.616667	1	4.601375
31.633333	1	4.568375
31.650000	1	4.515375
31.666667	1	4.443625
31.683333	1	4.354625
31.700000	1	4.249875
31.716667	1	4.130625
31.733333	1	3.999625
31.750000	1	3.858625
31.766667	1	3.709125
31.783333	1	3.553000
31.800000	1	3.391875
31.816667	1	3.227625
31.833333	1	3.062375
31.850000	1	2.896125
31.866667	1	2.732500
31.883333	1	2.571500
31.900000	1	2.414375
31.916667	1	2.263000
31.933333	1	2.116625
31.950000	1	1.976750
31.966667	1	1.843000
31.983333	1	1.715875
32.000000	1	1.595625
32.016667	1	1.482250
32.033333	1	1.375375
32.050000	1	1.276125
32.066667	1	1.183250
32.083333	1	1.096625
32.100000	1	1.016125
32.116667	1	0.941625
32.133333	1	0.872375
32.150000	1	0.808375
32.166667	1	0.749375
32.183333	1	0.696125
32.200000	1	0.646250
32.216667	1	0.599625
32.233333	1	0.556375
32.250000	1	0.516750
32.266667	1	0.481125
32.283333	1	0.447875
32.300000	1	0.417125
32.316667	1	0.389375
32.333333	1	0.364500
32.350000	1	0.341125
32.366667	1	0.320250
32.383333	1	0.300625
32.400000	1	0.283750
32.416667	1	0.268750
32.433333	1	0.254375
32.450000	1	0.241500
32.466667	1	0.230375
32.483333	1	0.220250
32.500000	1	0.211375
32.516667	1	0.202875
32.533333	1	0.195875
32.550000	1	0.189875
32.566667	1	0.184000
32.583333	1	0.178750
32.600000	1	0.174125
32.616667	1	0.170875
32.633333	1	0.167500
32.650000	1	0.164250
32.666667	1	0.160750
32.683333	1	0.158000
32.700000	1	0.155000
32.716667	1	0.152875
32.733333	1	0.150250
32.750000	1	0.148375
32.766667	1	0.146125
32.783333	1	0.145250
32.800000	1	0.143875
32.816667	1	0.142000
32.833333	1	0.140375
32.850000	1	0.139375
32.866667	1	0.137500
32.883333	1	0.136500
32.900000	1	0.135000
32.916667	1	0.133375
32.933333	1	0.132000
32.950000	1	0.131375
32.966667	1	0.131625
32.983333	1	0.130250
33.000000	1	0.128750
33.016667	1	0.128250
33.033333	1	0.127375
33.050000	1	0.126125
33.066667	1	0.124750
33.083333	1	0.123375
33.100000	1	0.122125
33.116667	1	0.120375
33.133333	1	0.119500
33.150000	1	0.119375
33.166667	1	0.119250
33.183333	1	0.118500
33.200000	1	0.118500
33.216667	1	0.118250
33.233333	1	0.117875
33.250000	1	0.117750
33.266667	1	0.117500
33.283333	1	0.118000
33.300000	1	0.118875
33.316667	1	0.119375
33.333333	1	0.119750
33.350000	1	0.120250
33.366667	1	0.120875
33.383333	1	0.122000
33.400000	1	0.123500
33.416667	1	0.125250
33.433333	1	0.127375
33.450000	1	0.129500
33.466667	1	0.131250
33.483333	1	0.133125
33.500000	1	0.135875
33.516667	1	0.138500
33.533333	1	0.140625
33.550000	1	0.143500
33.566667	1	0.146875
33.583333	1	0.149875
33.600000	1	0.152750
33.616667	1	0.156125
33.633333	1	0.159625
33.650000	1	0.162500
33.666667	1	0.165500
33.683333	1	0.168500
33.700000	1	0.171750
33.716667	1	0.174250
33.733333	1	0.177125
33.750000	1	0.180000
33.766667	1	0.182750
33.783333	1	0.185125
33.800000	1	0.187000
33.816667	1	0.188625
33.833333	1	0.190125
33.850000	1	0.191875
33.866667	1	0.193375
33.883333	1	0.194375
33.900000	1	0.195250
33.916667	1	0.196375
33.933333	1	0.196875
33.950000	1	0.197375
33.966667	1	0.197500
33.983333	1	0.197500
34.000000	1	0.197000
34.016667	1	0.196500
34.033333	1	0.196375
34.050000	1	0.195750
34.066667	1	0.194625
34.083333	1	0.194125
34.100000	1	0.192875
34.116667	1	0.191250
34.133333	1	0.189500
34.150000	1	0.188750
34.166667	1	0.188000
34.183333	1	0.186875
34.200000	1	0.186000
34.216667	1	0.185375
34.233333	1	0.184875
34.250000	1	0.184625
34.266667	1	0.184500
34.283333	1	0.184625
34.300000	1	0.185250
34.316667	1	0.186250
34.333333	1	0.187125
34.350000	1	0.188250
34.366667	1	0.189875
34.383333	1	0.191125
34.400000	1	0.193500
34.416667	1	0.195250
34.433333	1	0.197500
34.450000	1	0.200125
34.466667	1	0.203125
34.483333	1	0.205750
34.500000	1	0.208625
34.516667	1	0.211500
34.533333	1	0.214625
34.550000	1	0.217500
34.566667	1	0.221125
34.583333	1	0.224500
34.600000	1	0.227250
34.616667	1	0.229875
34.633333	1	0.232375
34.650000	1	0.234375
34.666667	1	0.237125
34.683333	1	0.239250
34.700000	1	0.241250
34.716667	1	0.241500
34.733333	1	0.243375
34.750000	1	0.245000
34.766667	1	0.246500
34.783333	1	0.246875
34.800000	1	0.247375
34.816667	1	0.247500
34.833333	1	0.247875
34.850000	1	0.247375
34.866667	1	0.246875
34.883333	1	0.246625
34.900000	1	0.245750
34.916667	1	0.245000
34.933333	1	0.243625
34.950000	1	0.242125
34.966667	1	0.240000
34.983333	1	0.238500
35.000000	1	0.236750
35.016667	1	0.235250
35.033333	1	0.233000
35.050000	1	0.229750
35.066667	1	0.227750
35.083333	1	0.225750
35.100000	1	0.223000
35.116667	1	0.220250
35.133333	1	0.218000
35.150000	1	0.215375
35.166667	1	0.213000
35.183333	1	0.209625
35.200000	1	0.207625
35.216667	1	0.205500
35.233333	1	0.203125
35.250000	1	0.201875
35.266667	1	0.199750
35.283333	1	0.197500
35.300000	1	0.195375
35.316667	1	0.193750
35.333333	1	0.192250
35.350000	1	0.190500
35.366667	1	0.189375
35.383333	1	0.187750
35.400000	1	0.187625
35.416667	1	0.187125
35.433333	1	0.186750
35.450000	1	0.187625
35.466667	1	0.187125
35.483333	1	0.187125
35.500000	1	0.187500
35.516667	1	0.188000
35.533333	1	0.188250
35.550000	1	0.189000
35.566667	1	0.189875
35.583333	1	0.191250
35.600000	1	0.192125
35.616667	1	0.193250
35.633333	1	0.194125
35.650000	1	0.195375
35.666667	1	0.196750
35.683333	1	0.198500
35.700000	1	0.200125
35.716667	1	0.201875
35.733333	1	0.202625
35.750000	1	0.203125
35.766667	1	0.204125
35.783333	1	0.205625
35.800000	1	0.206625
35.816667	1	0.207375
35.833333	1	0.208000
35.850000	1	0.208125
35.866667	1	0.208625
35.883333	1	0.209250
35.900000	1	0.209625
35.916667	1	0.209625
35.933333	1	0.209750
35.950000	1	0.209125
35.966667	1	0.208750
35.983333	1	0.208125
36.000000	1	0.207125
36.016667	1	0.205750
36.033333	1	0.204500
36.050000	1	0.203500
36.066667	1	0.203000
36.083333	1	0.201750
36.100000	1	0.200875
36.116667	1	0.200125
36.133333	1	0.199125
36.150000	1	0.199250
36.166667	1	0.199375
36.183333	1	0.198250
36.200000	1	0.197750
36.216667	1	0.197000
36.233333	1	0.197000
36.250000	1	0.197125
36.266667	1	0.196750
36.283333	1	0.196500
36.300000	1	0.196875
36.316667	1	0.197125
36.333333	1	0.197625
36.350000	1	0.198250
36.366667	1	0.198750
36.383333	1	0.199750
36.400000	1	0.200500
36.416667	1	0.200875
36.433333	1	0.201500
36.450000	1	0.202875
36.466667	1	0.203250
36.483333	1	0.204000
36.500000	1	0.205125
36.516667	1	0.206000
36.533333	1	0.206000
36.550000	1	0.207125
36.566667	1	0.207125
36.583333	1	0.206875
36.600000	1	0.206500
36.616667	1	0.205625
36.633333	1	0.205625
36.650000	1	0.204875
36.666667	1	0.203125
36.683333	1	0.201000
36.700000	1	0.199875
36.716667	1	0.198500
36.733333	1	0.196750
36.750000	1	0.194125
36.766667	1	0.191625
36.783333	1	0.189000
36.800000	1	0.186250
36.816667	1	0.184000
36.833333	1	0.181500
36.850000	1	0.178375
36.866667	1	0.174375
36.883333	1	0.170875
36.900000	1	0.167750
36.916667	1	0.163750
36.933333	1	0.160625
36.950000	1	0.156875
36.966667	1	0.153000
36.983333	1	0.150250
37.000000	1	0.147500
37.016667	1	0.144250
37.033333	1	0.141000
37.050000	1	0.137625
37.066667	1	0.135125
37.083333	1	0.132375
37.100000	1	0.129375
37.116667	1	0.126250
37.133333	1	0.123750
37.150000	1	0.121750
37.166667	1	0.119125
37.183333	1	0.117250
37.200000	1	0.115500
37.216667	1	0.113375
37.233333	1	0.111375
37.250000	1	0.110125
37.266667	1	0.109875
37.283333	1	0.109125
37.300000	1	0.108500
37.316667	1	0.107750
37.333333	1	0.106500
37.350000	1	0.105750
37.366667	1	0.106250
37.383333	1	0.105625
37.400000	1	0.105875
37.416667	1	0.105750
37.433333	1	0.106250
37.450000	1	0.106625
37.466667	1	0.106750
37.483333	1	0.107375
37.500000	1	0.107750
37.516667	1	0.109250
37.533333	1	0.109500
37.550000	1	0.110250
37.566667	1	0.110500
37.583333	1	0.111250
37.600000	1	0.112375
37.616667	1	0.113125
37.633333	1	0.113750
37.650000	1	0.114000
37.666667	1	0.114500
37.683333	1	0.115000
37.700000	1	0.115500
37.716667	1	0.115375
37.733333	1	0.115125
37.750000	1	0.115125
37.766667	1	0.115125
37.783333	1	0.115375
37.800000	1	0.114500
37.816667	1	0.114750
37.833333	1	0.115250
37.850000	1	0.115000
37.866667	1	0.114750
37.883333	1	0.114750
37.900000	1	0.115000
37.916667	1	0.114875
37.933333	1	0.114625
37.950000	1	0.114000
37.966667	1	0.113750
37.983333	1	0.113625
38.000000	1	0.113750
38.016667	1	0.113125
38.033333	1	0.113125
38.050000	1	0.111875
38.066667	1	0.112125
38.083333	1	0.112000
38.100000	1	0.112125
38.116667	1	0.112000
38.133333	1	0.112125
38.150000	1	0.112625
38.166667	1	0.112500
38.183333	1	0.112750
38.200000	1	0.113125
38.216667	1	0.114000
38.233333	1	0.114875
38.250000	1	0.115625
38.266667	1	0.116875
38.283333	1	0.118125
38.300000	1	0.119750
38.316667	1	0.121375
38.333333	1	0.123250
38.350000	1	0.124750
38.366667	1	0.126625
38.383333	1	0.128500
38.400000	1	0.131000
38.416667	1	0.132625
38.433333	1	0.134000
38.450000	1	0.136250
38.466667	1	0.138125
38.483333	1	0.140375
38.500000	1	0.142250
38.516667	1	0.144125
38.533333	1	0.145375
38.550000	1	0.146500
38.566667	1	0.147625
38.583333	1	0.149125
38.600000	1	0.150625
38.616667	1	0.151750
38.633333	1	0.152250
38.650000	1	0.152750
38.666667	1	0.154500
38.683333	1	0.154625
38.700000	1	0.155125
38.716667	1	0.156125
38.733333	1	0.157125
38.750000	1	0.156750
38.766667	1	0.156375
38.783333	1	0.156250
38.800000	1	0.156375
38.816667	1	0.156375
38.833333	1	0.156000
38.850000	1	0.156250
38.866667	1	0.156125
38.883333	1	0.156500
38.900000	1	0.156125
38.916667	1	0.155500
38.933333	1	0.154500
38.950000	1	0.154125
38.966667	1	0.153875
38.983333	1	0.153750
39.000000	1	0.152875
39.016667	1	0.152000
39.033333	1	0.150875
39.050000	1	0.149375
39.066667	1	0.148375
39.083333	1	0.147000
39.100000	1	0.145125
39.116667	1	0.143625
39.133333	1	0.142125
39.150000	1	0.140500
39.166667	1	0.138125
39.183333	1	0.135875
39.200000	1	0.133625
39.216667	1	0.130750
39.233333	1	0.128000
39.250000	1	0.126375
39.266667	1	0.123875
39.283333	1	0.121250
39.300000	1	0.117875
39.316667	1	0.114875
39.333333	1	0.111875
39.350000	1	0.108750
39.366667	1	0.105875
39.383333	1	0.102625
39.400000	1	0.100000
39.416667	1	0.096000
39.433333	1	0.092125
39.450000	1	0.089250
39.466667	1	0.086125
39.483333	1	0.082500
39.500000	1	0.079250
39.516667	1	0.077125
39.533333	1	0.074125
39.550000	1	0.070750
39.566667	1	0.067750
39.583333	1	0.064250
39.600000	1	0.061125
39.616667	1	0.058750
39.633333	1	0.056125
39.650000	1	0.053625
39.666667	1	0.051250
39.683333	1	0.048375
39.700000	1	0.046000
39.716667	1	0.043875
39.733333	1	0.041750
39.750000	1	0.040125
39.766667	1	0.038375
39.783333	1	0.036875
39.800000	1	0.035000
39.816667	1	0.034250
39.833333	1	0.033000
39.850000	1	0.032250
39.866667	1	0.031750
39.883333	1	0.031875
39.900000	1	0.031875
39.916667	1	0.031375
39.933333	1	0.031125
39.950000	1	0.031500
39.966667	1	0.032125
39.983333	1	0.031875
40.000000	1	0.032500
