URL	chrom://bioreactor/micro_cm7/HPLC_Ultimate_3000/Users/markusar/20240716_MA_pHrange2.seq/217.smp/RI_1.channel/RI_1.chm
Channel	RI_1

Injection Information:
Data Vault	micro_cm7
Sequence	20240716_MA_pHrange2
Name	Pv3_25H_1
Number	10
Position	BA10
Comment	
Processing Method	
Instrument Method	run_25B_method
Type	Unknown
Status	Finished
Inject Time	17.07.2024 00:15:12 +02:00
Volume (µl)	20.0000
Dilution Factor	1.0000
Weight	1.0000

Chromatogram Data Information:
Time Min. (min)	0.000000
Time Max. (min)	40.000000
Data Points	2401
Detector	RI
Generating Data System	Chromeleon 7.3.2.11814
Exporting Data System	Chromeleon 7.3.2.0
Operator	Instrument Controller
Signal Quantity	Refractive 
Signal Unit	µRIU
Signal Min.	-0.109625
Signal Max.	85.482250
Channel	RI_1
Driver Name	RID520Driver.dll
Channel Type	Evaluation
Min. Step (s)	1
Max. Step (s)	1
Average Step (s)	1

Signal Parameter Information:
Signal Info	

Chromatogram Data:
Time (min)	Step (s)	Value (µRIU)
0.000000	n.a.	-0.018500
0.016667	1	-0.019375
0.033333	1	-0.020000
0.050000	1	-0.021125
0.066667	1	-0.022000
0.083333	1	-0.023375
0.100000	1	-0.023875
0.116667	1	-0.024250
0.133333	1	-0.025000
0.150000	1	-0.026000
0.166667	1	-0.027000
0.183333	1	-0.027875
0.200000	1	-0.027875
0.216667	1	-0.028375
0.233333	1	-0.029250
0.250000	1	-0.029250
0.266667	1	-0.030125
0.283333	1	-0.030250
0.300000	1	-0.030750
0.316667	1	-0.031125
0.333333	1	-0.031250
0.350000	1	-0.032250
0.366667	1	-0.032750
0.383333	1	-0.033250
0.400000	1	-0.034250
0.416667	1	-0.034500
0.433333	1	-0.033375
0.450000	1	-0.031500
0.466667	1	-0.029500
0.483333	1	-0.027125
0.500000	1	-0.025000
0.516667	1	-0.023875
0.533333	1	-0.023375
0.550000	1	-0.023375
0.566667	1	-0.024500
0.583333	1	-0.026000
0.600000	1	-0.026375
0.616667	1	-0.026625
0.633333	1	-0.027125
0.650000	1	-0.026375
0.666667	1	-0.025000
0.683333	1	-0.024125
0.700000	1	-0.023625
0.716667	1	-0.022625
0.733333	1	-0.021750
0.750000	1	-0.021250
0.766667	1	-0.020000
0.783333	1	-0.019125
0.800000	1	-0.017750
0.816667	1	-0.017625
0.833333	1	-0.016375
0.850000	1	-0.014875
0.866667	1	-0.014125
0.883333	1	-0.013625
0.900000	1	-0.012375
0.916667	1	-0.010875
0.933333	1	-0.010125
0.950000	1	-0.009000
0.966667	1	-0.008375
0.983333	1	-0.008000
1.000000	1	-0.006875
1.016667	1	-0.006500
1.033333	1	-0.005875
1.050000	1	-0.004750
1.066667	1	-0.003625
1.083333	1	-0.002750
1.100000	1	-0.001875
1.116667	1	-0.000750
1.133333	1	-0.000250
1.150000	1	0.000625
1.166667	1	0.001750
1.183333	1	0.003125
1.200000	1	0.003750
1.216667	1	0.004750
1.233333	1	0.006250
1.250000	1	0.007500
1.266667	1	0.008875
1.283333	1	0.010000
1.300000	1	0.011500
1.316667	1	0.012500
1.333333	1	0.013250
1.350000	1	0.014500
1.366667	1	0.016000
1.383333	1	0.017000
1.400000	1	0.017625
1.416667	1	0.017875
1.433333	1	0.019125
1.450000	1	0.020125
1.466667	1	0.020375
1.483333	1	0.020875
1.500000	1	0.021750
1.516667	1	0.021625
1.533333	1	0.021625
1.550000	1	0.022000
1.566667	1	0.021750
1.583333	1	0.021125
1.600000	1	0.020500
1.616667	1	0.020500
1.633333	1	0.019750
1.650000	1	0.018750
1.666667	1	0.017875
1.683333	1	0.017750
1.700000	1	0.017375
1.716667	1	0.016250
1.733333	1	0.014750
1.750000	1	0.013750
1.766667	1	0.012625
1.783333	1	0.012125
1.800000	1	0.010875
1.816667	1	0.009500
1.833333	1	0.008000
1.850000	1	0.007000
1.866667	1	0.005750
1.883333	1	0.004750
1.900000	1	0.003875
1.916667	1	0.003125
1.933333	1	0.001625
1.950000	1	0.000125
1.966667	1	-0.000750
1.983333	1	-0.001250
2.000000	1	-0.001875
2.016667	1	-0.002750
2.033333	1	-0.003500
2.050000	1	-0.004500
2.066667	1	-0.005250
2.083333	1	-0.004875
2.100000	1	-0.005625
2.116667	1	-0.006000
2.133333	1	-0.006375
2.150000	1	-0.007250
2.166667	1	-0.007750
2.183333	1	-0.007625
2.200000	1	-0.007625
2.216667	1	-0.007625
2.233333	1	-0.007750
2.250000	1	-0.007625
2.266667	1	-0.008000
2.283333	1	-0.008250
2.300000	1	-0.008000
2.316667	1	-0.008750
2.333333	1	-0.009250
2.350000	1	-0.010375
2.366667	1	-0.011625
2.383333	1	-0.012375
2.400000	1	-0.013375
2.416667	1	-0.014125
2.433333	1	-0.015000
2.450000	1	-0.015875
2.466667	1	-0.017250
2.483333	1	-0.018625
2.500000	1	-0.020250
2.516667	1	-0.022250
2.533333	1	-0.024000
2.550000	1	-0.025750
2.566667	1	-0.027250
2.583333	1	-0.028500
2.600000	1	-0.030250
2.616667	1	-0.031375
2.633333	1	-0.033375
2.650000	1	-0.034375
2.666667	1	-0.035875
2.683333	1	-0.037000
2.700000	1	-0.038125
2.716667	1	-0.038875
2.733333	1	-0.039750
2.750000	1	-0.040375
2.766667	1	-0.040750
2.783333	1	-0.041000
2.800000	1	-0.041625
2.816667	1	-0.042000
2.833333	1	-0.042000
2.850000	1	-0.041875
2.866667	1	-0.040875
2.883333	1	-0.039625
2.900000	1	-0.038500
2.916667	1	-0.038000
2.933333	1	-0.037000
2.950000	1	-0.035375
2.966667	1	-0.033875
2.983333	1	-0.032750
3.000000	1	-0.030875
3.016667	1	-0.029500
3.033333	1	-0.027625
3.050000	1	-0.025625
3.066667	1	-0.023250
3.083333	1	-0.021375
3.100000	1	-0.019875
3.116667	1	-0.017875
3.133333	1	-0.015250
3.150000	1	-0.013875
3.166667	1	-0.012000
3.183333	1	-0.010375
3.200000	1	-0.008625
3.216667	1	-0.006375
3.233333	1	-0.004000
3.250000	1	-0.002000
3.266667	1	-0.000500
3.283333	1	0.001250
3.300000	1	0.002875
3.316667	1	0.004500
3.333333	1	0.006125
3.350000	1	0.008250
3.366667	1	0.010125
3.383333	1	0.012250
3.400000	1	0.014000
3.416667	1	0.015875
3.433333	1	0.017000
3.450000	1	0.019125
3.466667	1	0.020500
3.483333	1	0.021875
3.500000	1	0.023625
3.516667	1	0.025500
3.533333	1	0.026625
3.550000	1	0.027375
3.566667	1	0.029375
3.583333	1	0.030000
3.600000	1	0.031500
3.616667	1	0.033000
3.633333	1	0.034000
3.650000	1	0.035250
3.666667	1	0.036375
3.683333	1	0.037250
3.700000	1	0.037750
3.716667	1	0.038500
3.733333	1	0.038750
3.750000	1	0.039125
3.766667	1	0.039875
3.783333	1	0.040250
3.800000	1	0.040625
3.816667	1	0.041750
3.833333	1	0.042000
3.850000	1	0.042750
3.866667	1	0.042625
3.883333	1	0.043375
3.900000	1	0.043500
3.916667	1	0.043375
3.933333	1	0.042625
3.950000	1	0.042125
3.966667	1	0.041500
3.983333	1	0.041375
4.000000	1	0.040875
4.016667	1	0.040500
4.033333	1	0.040500
4.050000	1	0.040500
4.066667	1	0.040125
4.083333	1	0.039750
4.100000	1	0.039000
4.116667	1	0.038125
4.133333	1	0.037875
4.150000	1	0.037625
4.166667	1	0.037375
4.183333	1	0.036875
4.200000	1	0.037000
4.216667	1	0.036750
4.233333	1	0.037125
4.250000	1	0.037250
4.266667	1	0.038125
4.283333	1	0.038875
4.300000	1	0.039875
4.316667	1	0.040125
4.333333	1	0.041500
4.350000	1	0.043000
4.366667	1	0.044250
4.383333	1	0.045250
4.400000	1	0.047125
4.416667	1	0.049000
4.433333	1	0.050875
4.450000	1	0.052625
4.466667	1	0.054875
4.483333	1	0.056625
4.500000	1	0.058625
4.516667	1	0.061125
4.533333	1	0.063125
4.550000	1	0.065625
4.566667	1	0.068625
4.583333	1	0.071625
4.600000	1	0.073625
4.616667	1	0.076250
4.633333	1	0.079000
4.650000	1	0.081750
4.666667	1	0.083750
4.683333	1	0.086500
4.700000	1	0.089000
4.716667	1	0.091750
4.733333	1	0.094250
4.750000	1	0.097125
4.766667	1	0.100125
4.783333	1	0.103125
4.800000	1	0.106125
4.816667	1	0.108125
4.833333	1	0.110875
4.850000	1	0.114000
4.866667	1	0.117250
4.883333	1	0.120500
4.900000	1	0.123500
4.916667	1	0.126500
4.933333	1	0.130500
4.950000	1	0.133500
4.966667	1	0.137250
4.983333	1	0.140875
5.000000	1	0.144625
5.016667	1	0.148125
5.033333	1	0.151625
5.050000	1	0.155250
5.066667	1	0.158875
5.083333	1	0.162750
5.100000	1	0.166750
5.116667	1	0.170625
5.133333	1	0.174750
5.150000	1	0.178750
5.166667	1	0.183500
5.183333	1	0.188125
5.200000	1	0.191125
5.216667	1	0.196000
5.233333	1	0.200125
5.250000	1	0.204500
5.266667	1	0.208625
5.283333	1	0.212750
5.300000	1	0.215750
5.316667	1	0.219500
5.333333	1	0.221875
5.350000	1	0.225250
5.366667	1	0.228375
5.383333	1	0.231000
5.400000	1	0.232875
5.416667	1	0.234375
5.433333	1	0.236500
5.450000	1	0.238250
5.466667	1	0.239125
5.483333	1	0.239125
5.500000	1	0.239625
5.516667	1	0.239750
5.533333	1	0.239375
5.550000	1	0.238750
5.566667	1	0.238000
5.583333	1	0.236750
5.600000	1	0.235375
5.616667	1	0.233625
5.633333	1	0.231125
5.650000	1	0.228125
5.666667	1	0.225875
5.683333	1	0.222375
5.700000	1	0.218875
5.716667	1	0.215500
5.733333	1	0.212000
5.750000	1	0.208875
5.766667	1	0.204375
5.783333	1	0.199625
5.800000	1	0.195875
5.816667	1	0.191375
5.833333	1	0.187375
5.850000	1	0.183000
5.866667	1	0.178500
5.883333	1	0.174250
5.900000	1	0.169625
5.916667	1	0.164500
5.933333	1	0.160500
5.950000	1	0.157000
5.966667	1	0.153000
5.983333	1	0.149375
6.000000	1	0.146125
6.016667	1	0.142500
6.033333	1	0.139125
6.050000	1	0.135625
6.066667	1	0.132875
6.083333	1	0.129875
6.100000	1	0.126875
6.116667	1	0.124125
6.133333	1	0.120875
6.150000	1	0.118625
6.166667	1	0.116375
6.183333	1	0.114125
6.200000	1	0.111750
6.216667	1	0.109375
6.233333	1	0.106875
6.250000	1	0.105375
6.266667	1	0.103500
6.283333	1	0.101500
6.300000	1	0.099875
6.316667	1	0.097125
6.333333	1	0.094625
6.350000	1	0.092875
6.366667	1	0.090875
6.383333	1	0.088125
6.400000	1	0.085625
6.416667	1	0.083625
6.433333	1	0.081125
6.450000	1	0.079500
6.466667	1	0.077500
6.483333	1	0.075000
6.500000	1	0.072750
6.516667	1	0.070250
6.533333	1	0.069375
6.550000	1	0.067750
6.566667	1	0.066250
6.583333	1	0.065000
6.600000	1	0.063750
6.616667	1	0.062625
6.633333	1	0.061625
6.650000	1	0.061125
6.666667	1	0.060125
6.683333	1	0.059750
6.700000	1	0.059750
6.716667	1	0.059875
6.733333	1	0.059500
6.750000	1	0.060000
6.766667	1	0.060250
6.783333	1	0.061000
6.800000	1	0.062000
6.816667	1	0.062500
6.833333	1	0.063500
6.850000	1	0.064875
6.866667	1	0.066625
6.883333	1	0.067625
6.900000	1	0.069250
6.916667	1	0.071250
6.933333	1	0.073125
6.950000	1	0.074625
6.966667	1	0.076250
6.983333	1	0.078000
7.000000	1	0.079625
7.016667	1	0.081250
7.033333	1	0.082750
7.050000	1	0.084250
7.066667	1	0.086000
7.083333	1	0.088250
7.100000	1	0.090250
7.116667	1	0.091375
7.133333	1	0.093000
7.150000	1	0.095250
7.166667	1	0.097875
7.183333	1	0.100000
7.200000	1	0.102875
7.216667	1	0.104625
7.233333	1	0.106750
7.250000	1	0.108875
7.266667	1	0.111000
7.283333	1	0.112250
7.300000	1	0.114375
7.316667	1	0.116250
7.333333	1	0.117875
7.350000	1	0.119625
7.366667	1	0.121125
7.383333	1	0.122375
7.400000	1	0.122500
7.416667	1	0.123250
7.433333	1	0.123375
7.450000	1	0.123000
7.466667	1	0.122500
7.483333	1	0.121625
7.500000	1	0.121000
7.516667	1	0.119375
7.533333	1	0.117375
7.550000	1	0.115750
7.566667	1	0.113375
7.583333	1	0.110500
7.600000	1	0.107750
7.616667	1	0.103875
7.633333	1	0.099750
7.650000	1	0.095750
7.666667	1	0.091250
7.683333	1	0.086750
7.700000	1	0.082125
7.716667	1	0.077375
7.733333	1	0.072375
7.750000	1	0.068125
7.766667	1	0.062750
7.783333	1	0.058125
7.800000	1	0.053375
7.816667	1	0.048500
7.833333	1	0.044000
7.850000	1	0.039125
7.866667	1	0.034000
7.883333	1	0.029375
7.900000	1	0.025250
7.916667	1	0.021000
7.933333	1	0.017250
7.950000	1	0.014125
7.966667	1	0.010625
7.983333	1	0.007250
8.000000	1	0.004125
8.016667	1	0.000875
8.033333	1	-0.001750
8.050000	1	-0.004750
8.066667	1	-0.007750
8.083333	1	-0.010250
8.100000	1	-0.012250
8.116667	1	-0.014125
8.133333	1	-0.016125
8.150000	1	-0.018375
8.166667	1	-0.019875
8.183333	1	-0.021625
8.200000	1	-0.023000
8.216667	1	-0.024375
8.233333	1	-0.025375
8.250000	1	-0.025375
8.266667	1	-0.025875
8.283333	1	-0.026125
8.300000	1	-0.027000
8.316667	1	-0.027375
8.333333	1	-0.027375
8.350000	1	-0.026875
8.366667	1	-0.026125
8.383333	1	-0.025500
8.400000	1	-0.024500
8.416667	1	-0.023250
8.433333	1	-0.022125
8.450000	1	-0.021375
8.466667	1	-0.020500
8.483333	1	-0.019000
8.500000	1	-0.017500
8.516667	1	-0.015875
8.533333	1	-0.014375
8.550000	1	-0.013000
8.566667	1	-0.011125
8.583333	1	-0.009500
8.600000	1	-0.008000
8.616667	1	-0.006500
8.633333	1	-0.005000
8.650000	1	-0.003500
8.666667	1	-0.001750
8.683333	1	-0.000250
8.700000	1	0.001250
8.716667	1	0.003500
8.733333	1	0.004625
8.750000	1	0.005875
8.766667	1	0.006750
8.783333	1	0.007500
8.800000	1	0.008375
8.816667	1	0.009250
8.833333	1	0.009375
8.850000	1	0.010625
8.866667	1	0.011375
8.883333	1	0.012500
8.900000	1	0.013500
8.916667	1	0.014000
8.933333	1	0.014875
8.950000	1	0.015125
8.966667	1	0.015125
8.983333	1	0.015125
9.000000	1	0.014500
9.016667	1	0.015000
9.033333	1	0.014875
9.050000	1	0.014500
9.066667	1	0.013875
9.083333	1	0.013375
9.100000	1	0.013750
9.116667	1	0.013875
9.133333	1	0.014250
9.150000	1	0.013625
9.166667	1	0.013500
9.183333	1	0.013250
9.200000	1	0.012125
9.216667	1	0.011375
9.233333	1	0.011125
9.250000	1	0.010375
9.266667	1	0.010125
9.283333	1	0.009000
9.300000	1	0.008750
9.316667	1	0.008375
9.333333	1	0.008125
9.350000	1	0.007500
9.366667	1	0.006250
9.383333	1	0.005875
9.400000	1	0.005125
9.416667	1	0.004375
9.433333	1	0.003625
9.450000	1	0.002875
9.466667	1	0.002125
9.483333	1	0.002000
9.500000	1	0.001125
9.516667	1	0.001000
9.533333	1	0.000000
9.550000	1	-0.000250
9.566667	1	-0.000750
9.583333	1	-0.000125
9.600000	1	-0.000750
9.616667	1	-0.001000
9.633333	1	-0.001250
9.650000	1	-0.001500
9.666667	1	-0.001625
9.683333	1	-0.001625
9.700000	1	-0.001875
9.716667	1	-0.001625
9.733333	1	-0.000750
9.750000	1	-0.000625
9.766667	1	-0.000375
9.783333	1	0.000125
9.800000	1	0.000500
9.816667	1	0.000875
9.833333	1	0.002125
9.850000	1	0.002125
9.866667	1	0.002500
9.883333	1	0.003250
9.900000	1	0.004125
9.916667	1	0.004875
9.933333	1	0.006125
9.950000	1	0.006750
9.966667	1	0.007125
9.983333	1	0.007750
10.000000	1	0.008250
10.016667	1	0.007875
10.033333	1	0.008750
10.050000	1	0.008500
10.066667	1	0.009500
10.083333	1	0.010500
10.100000	1	0.012125
10.116667	1	0.013500
10.133333	1	0.015000
10.150000	1	0.017875
10.166667	1	0.021250
10.183333	1	0.026000
10.200000	1	0.030625
10.216667	1	0.036500
10.233333	1	0.045125
10.250000	1	0.054250
10.266667	1	0.065000
10.283333	1	0.077500
10.300000	1	0.092250
10.316667	1	0.108625
10.333333	1	0.125875
10.350000	1	0.143375
10.366667	1	0.158250
10.383333	1	0.169250
10.400000	1	0.171375
10.416667	1	0.158500
10.433333	1	0.128250
10.450000	1	0.078625
10.466667	1	0.012875
10.483333	1	-0.057750
10.500000	1	-0.109625
10.516667	1	-0.109500
10.533333	1	-0.008750
10.550000	1	0.250875
10.566667	1	0.733375
10.583333	1	1.507250
10.600000	1	2.636375
10.616667	1	4.177625
10.633333	1	6.175875
10.650000	1	8.661875
10.666667	1	11.660125
10.683333	1	15.181000
10.700000	1	19.226625
10.716667	1	23.785750
10.733333	1	28.838125
10.750000	1	34.349750
10.766667	1	40.280750
10.783333	1	46.567500
10.800000	1	53.129375
10.816667	1	59.845750
10.833333	1	66.534750
10.850000	1	72.917250
10.866667	1	78.595750
10.883333	1	83.010000
10.900000	1	85.482250
10.916667	1	85.364125
10.933333	1	82.272750
10.950000	1	76.309250
10.966667	1	68.112125
10.983333	1	58.656000
11.000000	1	48.965125
11.016667	1	39.861500
11.033333	1	31.848250
11.050000	1	25.118375
11.066667	1	19.652875
11.083333	1	15.324875
11.100000	1	11.962875
11.116667	1	9.390125
11.133333	1	7.440500
11.150000	1	5.972375
11.166667	1	4.869375
11.183333	1	4.040375
11.200000	1	3.414375
11.216667	1	2.937875
11.233333	1	2.571625
11.250000	1	2.287000
11.266667	1	2.062875
11.283333	1	1.883375
11.300000	1	1.737000
11.316667	1	1.616250
11.333333	1	1.515875
11.350000	1	1.430625
11.366667	1	1.358625
11.383333	1	1.297250
11.400000	1	1.244625
11.416667	1	1.199250
11.433333	1	1.160750
11.450000	1	1.128000
11.466667	1	1.098875
11.483333	1	1.074375
11.500000	1	1.053750
11.516667	1	1.035625
11.533333	1	1.019875
11.550000	1	1.006000
11.566667	1	0.994875
11.583333	1	0.985250
11.600000	1	0.977625
11.616667	1	0.970500
11.633333	1	0.965875
11.650000	1	0.962375
11.666667	1	0.960250
11.683333	1	0.958625
11.700000	1	0.959625
11.716667	1	0.961375
11.733333	1	0.963500
11.750000	1	0.967375
11.766667	1	0.972250
11.783333	1	0.977625
11.800000	1	0.984125
11.816667	1	0.990875
11.833333	1	0.998625
11.850000	1	1.004875
11.866667	1	1.012250
11.883333	1	1.019375
11.900000	1	1.025500
11.916667	1	1.030375
11.933333	1	1.034125
11.950000	1	1.037250
11.966667	1	1.039375
11.983333	1	1.040625
12.000000	1	1.041250
12.016667	1	1.041000
12.033333	1	1.040375
12.050000	1	1.039875
12.066667	1	1.039875
12.083333	1	1.039375
12.100000	1	1.039000
12.116667	1	1.038625
12.133333	1	1.038875
12.150000	1	1.039250
12.166667	1	1.040875
12.183333	1	1.043000
12.200000	1	1.046375
12.216667	1	1.050625
12.233333	1	1.056000
12.250000	1	1.063250
12.266667	1	1.072500
12.283333	1	1.084000
12.300000	1	1.100875
12.316667	1	1.122750
12.333333	1	1.152000
12.350000	1	1.190250
12.366667	1	1.240500
12.383333	1	1.306125
12.400000	1	1.391125
12.416667	1	1.499625
12.433333	1	1.636000
12.450000	1	1.805500
12.466667	1	2.012750
12.483333	1	2.263625
12.500000	1	2.562000
12.516667	1	2.911875
12.533333	1	3.315875
12.550000	1	3.775375
12.566667	1	4.290625
12.583333	1	4.859125
12.600000	1	5.475125
12.616667	1	6.131625
12.633333	1	6.818375
12.650000	1	7.524000
12.666667	1	8.236000
12.683333	1	8.940625
12.700000	1	9.626750
12.716667	1	10.283500
12.733333	1	10.904250
12.750000	1	11.488000
12.766667	1	12.036125
12.783333	1	12.554500
12.800000	1	13.051000
12.816667	1	13.534875
12.833333	1	14.017250
12.850000	1	14.508875
12.866667	1	15.018625
12.883333	1	15.552875
12.900000	1	16.116000
12.916667	1	16.711125
12.933333	1	17.339250
12.950000	1	18.000875
12.966667	1	18.694625
12.983333	1	19.418000
13.000000	1	20.169250
13.016667	1	20.946625
13.033333	1	21.749125
13.050000	1	22.576250
13.066667	1	23.427000
13.083333	1	24.299750
13.100000	1	25.193875
13.116667	1	26.108875
13.133333	1	27.042125
13.150000	1	27.994250
13.166667	1	28.965875
13.183333	1	29.956875
13.200000	1	30.965625
13.216667	1	31.993000
13.233333	1	33.040500
13.250000	1	34.107625
13.266667	1	35.195250
13.283333	1	36.304375
13.300000	1	37.435375
13.316667	1	38.587125
13.333333	1	39.759625
13.350000	1	40.954125
13.366667	1	42.172625
13.383333	1	43.414000
13.400000	1	44.677125
13.416667	1	45.964250
13.433333	1	47.276875
13.450000	1	48.616375
13.466667	1	49.983500
13.483333	1	51.377750
13.500000	1	52.801250
13.516667	1	54.253625
13.533333	1	55.735750
13.550000	1	57.247875
13.566667	1	58.790125
13.583333	1	60.363000
13.600000	1	61.964625
13.616667	1	63.597750
13.633333	1	65.263500
13.650000	1	66.964750
13.666667	1	68.701250
13.683333	1	70.474625
13.700000	1	72.285375
13.716667	1	74.134125
13.733333	1	76.017625
13.750000	1	77.930750
13.766667	1	79.839250
13.783333	1	81.647875
13.800000	1	83.172000
13.816667	1	84.160125
13.833333	1	84.342125
13.850000	1	83.461750
13.866667	1	81.269625
13.883333	1	77.504375
13.900000	1	71.959375
13.916667	1	64.645500
13.933333	1	55.970375
13.950000	1	46.725750
13.966667	1	37.832500
13.983333	1	30.005250
14.000000	1	23.572500
14.016667	1	18.515625
14.033333	1	14.642250
14.050000	1	11.718000
14.066667	1	9.531125
14.083333	1	7.909375
14.100000	1	6.714500
14.116667	1	5.838250
14.133333	1	5.194375
14.150000	1	4.717750
14.166667	1	4.358875
14.183333	1	4.084625
14.200000	1	3.870875
14.216667	1	3.700250
14.233333	1	3.560250
14.250000	1	3.443500
14.266667	1	3.342750
14.283333	1	3.254625
14.300000	1	3.177500
14.316667	1	3.108125
14.333333	1	3.045500
14.350000	1	2.989500
14.366667	1	2.939500
14.383333	1	2.896125
14.400000	1	2.859125
14.416667	1	2.830000
14.433333	1	2.811625
14.450000	1	2.805500
14.466667	1	2.817875
14.483333	1	2.852500
14.500000	1	2.919125
14.516667	1	3.027875
14.533333	1	3.193125
14.550000	1	3.435375
14.566667	1	3.781250
14.583333	1	4.262125
14.600000	1	4.918125
14.616667	1	5.799500
14.633333	1	6.965000
14.650000	1	8.481500
14.666667	1	10.418750
14.683333	1	12.845375
14.700000	1	15.821125
14.716667	1	19.390750
14.733333	1	23.583500
14.750000	1	28.395250
14.766667	1	33.777375
14.783333	1	39.630750
14.800000	1	45.820750
14.816667	1	52.163125
14.833333	1	58.434250
14.850000	1	64.378000
14.866667	1	69.724875
14.883333	1	74.213500
14.900000	1	77.611875
14.916667	1	79.741875
14.933333	1	80.494625
14.950000	1	79.840000
14.966667	1	77.830500
14.983333	1	74.599125
15.000000	1	70.331625
15.016667	1	65.258625
15.033333	1	59.629875
15.050000	1	53.701875
15.066667	1	47.714125
15.083333	1	41.872500
15.100000	1	36.343000
15.116667	1	31.243750
15.133333	1	26.646375
15.150000	1	22.584875
15.166667	1	19.059375
15.183333	1	16.045375
15.200000	1	13.498375
15.216667	1	11.369625
15.233333	1	9.605875
15.250000	1	8.155250
15.266667	1	6.970000
15.283333	1	6.006250
15.300000	1	5.227250
15.316667	1	4.599500
15.333333	1	4.096500
15.350000	1	3.694875
15.366667	1	3.376375
15.383333	1	3.125000
15.400000	1	2.928125
15.416667	1	2.776000
15.433333	1	2.659625
15.450000	1	2.573125
15.466667	1	2.509625
15.483333	1	2.462875
15.500000	1	2.429125
15.516667	1	2.403750
15.533333	1	2.382250
15.550000	1	2.362875
15.566667	1	2.341875
15.583333	1	2.317625
15.600000	1	2.288625
15.616667	1	2.255625
15.633333	1	2.218125
15.650000	1	2.177000
15.666667	1	2.133000
15.683333	1	2.087250
15.700000	1	2.041125
15.716667	1	1.995500
15.733333	1	1.951500
15.750000	1	1.910250
15.766667	1	1.870375
15.783333	1	1.833000
15.800000	1	1.797125
15.816667	1	1.762500
15.833333	1	1.730250
15.850000	1	1.698125
15.866667	1	1.666375
15.883333	1	1.635750
15.900000	1	1.605375
15.916667	1	1.576625
15.933333	1	1.550750
15.950000	1	1.525625
15.966667	1	1.503750
15.983333	1	1.484000
16.000000	1	1.467625
16.016667	1	1.453750
16.033333	1	1.443375
16.050000	1	1.434750
16.066667	1	1.429125
16.083333	1	1.425875
16.100000	1	1.424000
16.116667	1	1.421875
16.133333	1	1.420750
16.150000	1	1.419000
16.166667	1	1.416875
16.183333	1	1.412375
16.200000	1	1.407375
16.216667	1	1.400750
16.233333	1	1.391875
16.250000	1	1.382250
16.266667	1	1.371500
16.283333	1	1.358625
16.300000	1	1.344000
16.316667	1	1.329625
16.333333	1	1.315000
16.350000	1	1.299875
16.366667	1	1.284125
16.383333	1	1.269250
16.400000	1	1.254875
16.416667	1	1.241625
16.433333	1	1.228625
16.450000	1	1.217750
16.466667	1	1.207875
16.483333	1	1.199875
16.500000	1	1.193750
16.516667	1	1.189750
16.533333	1	1.188250
16.550000	1	1.188625
16.566667	1	1.190625
16.583333	1	1.193750
16.600000	1	1.198250
16.616667	1	1.203625
16.633333	1	1.209000
16.650000	1	1.213000
16.666667	1	1.217375
16.683333	1	1.220125
16.700000	1	1.222625
16.716667	1	1.223000
16.733333	1	1.222875
16.750000	1	1.222000
16.766667	1	1.220750
16.783333	1	1.219375
16.800000	1	1.218625
16.816667	1	1.217500
16.833333	1	1.216250
16.850000	1	1.215875
16.866667	1	1.215875
16.883333	1	1.216250
16.900000	1	1.217000
16.916667	1	1.217500
16.933333	1	1.217500
16.950000	1	1.217250
16.966667	1	1.215500
16.983333	1	1.213125
17.000000	1	1.209875
17.016667	1	1.205625
17.033333	1	1.200500
17.050000	1	1.194250
17.066667	1	1.188500
17.083333	1	1.182375
17.100000	1	1.175250
17.116667	1	1.168750
17.133333	1	1.163500
17.150000	1	1.158250
17.166667	1	1.154500
17.183333	1	1.151375
17.200000	1	1.148875
17.216667	1	1.147000
17.233333	1	1.146500
17.250000	1	1.145875
17.266667	1	1.146375
17.283333	1	1.147500
17.300000	1	1.149125
17.316667	1	1.150500
17.333333	1	1.152250
17.350000	1	1.155000
17.366667	1	1.158125
17.383333	1	1.161125
17.400000	1	1.163750
17.416667	1	1.166250
17.433333	1	1.168000
17.450000	1	1.169375
17.466667	1	1.169250
17.483333	1	1.168250
17.500000	1	1.166250
17.516667	1	1.162500
17.533333	1	1.158250
17.550000	1	1.152125
17.566667	1	1.144500
17.583333	1	1.135250
17.600000	1	1.125125
17.616667	1	1.112500
17.633333	1	1.098375
17.650000	1	1.084500
17.666667	1	1.069750
17.683333	1	1.053875
17.700000	1	1.037875
17.716667	1	1.022250
17.733333	1	1.006375
17.750000	1	0.991125
17.766667	1	0.976500
17.783333	1	0.961875
17.800000	1	0.948250
17.816667	1	0.936000
17.833333	1	0.924125
17.850000	1	0.913125
17.866667	1	0.903000
17.883333	1	0.893500
17.900000	1	0.885125
17.916667	1	0.877875
17.933333	1	0.871000
17.950000	1	0.864500
17.966667	1	0.859125
17.983333	1	0.855125
18.000000	1	0.850250
18.016667	1	0.845625
18.033333	1	0.841500
18.050000	1	0.837000
18.066667	1	0.833000
18.083333	1	0.829500
18.100000	1	0.825375
18.116667	1	0.821000
18.133333	1	0.816500
18.150000	1	0.812750
18.166667	1	0.808750
18.183333	1	0.805500
18.200000	1	0.801750
18.216667	1	0.799250
18.233333	1	0.797125
18.250000	1	0.795000
18.266667	1	0.793625
18.283333	1	0.793125
18.300000	1	0.792875
18.316667	1	0.793250
18.333333	1	0.793625
18.350000	1	0.793875
18.366667	1	0.794875
18.383333	1	0.796500
18.400000	1	0.798000
18.416667	1	0.800000
18.433333	1	0.802375
18.450000	1	0.805500
18.466667	1	0.810000
18.483333	1	0.814750
18.500000	1	0.821125
18.516667	1	0.829250
18.533333	1	0.838375
18.550000	1	0.849625
18.566667	1	0.862125
18.583333	1	0.877875
18.600000	1	0.895000
18.616667	1	0.914500
18.633333	1	0.936500
18.650000	1	0.960375
18.666667	1	0.986000
18.683333	1	1.013625
18.700000	1	1.043375
18.716667	1	1.075000
18.733333	1	1.108375
18.750000	1	1.141750
18.766667	1	1.177000
18.783333	1	1.211750
18.800000	1	1.247875
18.816667	1	1.283250
18.833333	1	1.317625
18.850000	1	1.350375
18.866667	1	1.380125
18.883333	1	1.406250
18.900000	1	1.428750
18.916667	1	1.446750
18.933333	1	1.458750
18.950000	1	1.465250
18.966667	1	1.465125
18.983333	1	1.459125
19.000000	1	1.445500
19.016667	1	1.425125
19.033333	1	1.398125
19.050000	1	1.365750
19.066667	1	1.327500
19.083333	1	1.284875
19.100000	1	1.238000
19.116667	1	1.189375
19.133333	1	1.139250
19.150000	1	1.090125
19.166667	1	1.041625
19.183333	1	0.995125
19.200000	1	0.951375
19.216667	1	0.912750
19.233333	1	0.879750
19.250000	1	0.852375
19.266667	1	0.831625
19.283333	1	0.818000
19.300000	1	0.812375
19.316667	1	0.814750
19.333333	1	0.825375
19.350000	1	0.845375
19.366667	1	0.874000
19.383333	1	0.912125
19.400000	1	0.958875
19.416667	1	1.014000
19.433333	1	1.076625
19.450000	1	1.146250
19.466667	1	1.221625
19.483333	1	1.301125
19.500000	1	1.383125
19.516667	1	1.465875
19.533333	1	1.546625
19.550000	1	1.623250
19.566667	1	1.694000
19.583333	1	1.756625
19.600000	1	1.809250
19.616667	1	1.849875
19.633333	1	1.877875
19.650000	1	1.891750
19.666667	1	1.891875
19.683333	1	1.879375
19.700000	1	1.853250
19.716667	1	1.816375
19.733333	1	1.768625
19.750000	1	1.713000
19.766667	1	1.651000
19.783333	1	1.583375
19.800000	1	1.512625
19.816667	1	1.439375
19.833333	1	1.366000
19.850000	1	1.294500
19.866667	1	1.224000
19.883333	1	1.156125
19.900000	1	1.091750
19.916667	1	1.031500
19.933333	1	0.974750
19.950000	1	0.922500
19.966667	1	0.874625
19.983333	1	0.831750
20.000000	1	0.792500
20.016667	1	0.758125
20.033333	1	0.726500
20.050000	1	0.700375
20.066667	1	0.678250
20.083333	1	0.660500
20.100000	1	0.646625
20.116667	1	0.637125
20.133333	1	0.631125
20.150000	1	0.628125
20.166667	1	0.629000
20.183333	1	0.632875
20.200000	1	0.639000
20.216667	1	0.646750
20.233333	1	0.656875
20.250000	1	0.668375
20.266667	1	0.680875
20.283333	1	0.693250
20.300000	1	0.705500
20.316667	1	0.716750
20.333333	1	0.726250
20.350000	1	0.733750
20.366667	1	0.739500
20.383333	1	0.742375
20.400000	1	0.742000
20.416667	1	0.740125
20.433333	1	0.735000
20.450000	1	0.728250
20.466667	1	0.719000
20.483333	1	0.709375
20.500000	1	0.700250
20.516667	1	0.691750
20.533333	1	0.686000
20.550000	1	0.681625
20.566667	1	0.681750
20.583333	1	0.686375
20.600000	1	0.696375
20.616667	1	0.712875
20.633333	1	0.736500
20.650000	1	0.768250
20.666667	1	0.806750
20.683333	1	0.853250
20.700000	1	0.906250
20.716667	1	0.966250
20.733333	1	1.032500
20.750000	1	1.103250
20.766667	1	1.177875
20.783333	1	1.253625
20.800000	1	1.328875
20.816667	1	1.400125
20.833333	1	1.466750
20.850000	1	1.524875
20.866667	1	1.573250
20.883333	1	1.609750
20.900000	1	1.635000
20.916667	1	1.645250
20.933333	1	1.642875
20.950000	1	1.626375
20.966667	1	1.596875
20.983333	1	1.554375
21.000000	1	1.501500
21.016667	1	1.440375
21.033333	1	1.372375
21.050000	1	1.299750
21.066667	1	1.224875
21.083333	1	1.149750
21.100000	1	1.076500
21.116667	1	1.004625
21.133333	1	0.937000
21.150000	1	0.873750
21.166667	1	0.815000
21.183333	1	0.762375
21.200000	1	0.714125
21.216667	1	0.671375
21.233333	1	0.634125
21.250000	1	0.601625
21.266667	1	0.573125
21.283333	1	0.547875
21.300000	1	0.526750
21.316667	1	0.508625
21.333333	1	0.493500
21.350000	1	0.480625
21.366667	1	0.469625
21.383333	1	0.460500
21.400000	1	0.452250
21.416667	1	0.444750
21.433333	1	0.438375
21.450000	1	0.433125
21.466667	1	0.429250
21.483333	1	0.425125
21.500000	1	0.422000
21.516667	1	0.418250
21.533333	1	0.415375
21.550000	1	0.413250
21.566667	1	0.411875
21.583333	1	0.411125
21.600000	1	0.409625
21.616667	1	0.408750
21.633333	1	0.408750
21.650000	1	0.409125
21.666667	1	0.410750
21.683333	1	0.412375
21.700000	1	0.415250
21.716667	1	0.418375
21.733333	1	0.422500
21.750000	1	0.425625
21.766667	1	0.430625
21.783333	1	0.435875
21.800000	1	0.441375
21.816667	1	0.447750
21.833333	1	0.454125
21.850000	1	0.460750
21.866667	1	0.468125
21.883333	1	0.475625
21.900000	1	0.482875
21.916667	1	0.490625
21.933333	1	0.498875
21.950000	1	0.507250
21.966667	1	0.514500
21.983333	1	0.523250
22.000000	1	0.531250
22.016667	1	0.538750
22.033333	1	0.546000
22.050000	1	0.552875
22.066667	1	0.559750
22.083333	1	0.566250
22.100000	1	0.572250
22.116667	1	0.577250
22.133333	1	0.581375
22.150000	1	0.585250
22.166667	1	0.587375
22.183333	1	0.588250
22.200000	1	0.588250
22.216667	1	0.586750
22.233333	1	0.584500
22.250000	1	0.581250
22.266667	1	0.576625
22.283333	1	0.569625
22.300000	1	0.562125
22.316667	1	0.553625
22.333333	1	0.544000
22.350000	1	0.532625
22.366667	1	0.521375
22.383333	1	0.509000
22.400000	1	0.496500
22.416667	1	0.483875
22.433333	1	0.471625
22.450000	1	0.459250
22.466667	1	0.447625
22.483333	1	0.435250
22.500000	1	0.423750
22.516667	1	0.412375
22.533333	1	0.402375
22.550000	1	0.392875
22.566667	1	0.384000
22.583333	1	0.375500
22.600000	1	0.368125
22.616667	1	0.361000
22.633333	1	0.354625
22.650000	1	0.348375
22.666667	1	0.342500
22.683333	1	0.338125
22.700000	1	0.333750
22.716667	1	0.330125
22.733333	1	0.325875
22.750000	1	0.322500
22.766667	1	0.319250
22.783333	1	0.316125
22.800000	1	0.313250
22.816667	1	0.310250
22.833333	1	0.307375
22.850000	1	0.305375
22.866667	1	0.304000
22.883333	1	0.302875
22.900000	1	0.301750
22.916667	1	0.301125
22.933333	1	0.300750
22.950000	1	0.300875
22.966667	1	0.301375
22.983333	1	0.302000
23.000000	1	0.302375
23.016667	1	0.303750
23.033333	1	0.304375
23.050000	1	0.306500
23.066667	1	0.308375
23.083333	1	0.310125
23.100000	1	0.312875
23.116667	1	0.315250
23.133333	1	0.317250
23.150000	1	0.319875
23.166667	1	0.323000
23.183333	1	0.325250
23.200000	1	0.327875
23.216667	1	0.331000
23.233333	1	0.334500
23.250000	1	0.337875
23.266667	1	0.341750
23.283333	1	0.346375
23.300000	1	0.352125
23.316667	1	0.359125
23.333333	1	0.368250
23.350000	1	0.379625
23.366667	1	0.394375
23.383333	1	0.413250
23.400000	1	0.436000
23.416667	1	0.463625
23.433333	1	0.498750
23.450000	1	0.541625
23.466667	1	0.591750
23.483333	1	0.652375
23.500000	1	0.723750
23.516667	1	0.808000
23.533333	1	0.905625
23.550000	1	1.018000
23.566667	1	1.146875
23.583333	1	1.291250
23.600000	1	1.453750
23.616667	1	1.634125
23.633333	1	1.831250
23.650000	1	2.045000
23.666667	1	2.275250
23.683333	1	2.519125
23.700000	1	2.774625
23.716667	1	3.038875
23.733333	1	3.307250
23.750000	1	3.576000
23.766667	1	3.840625
23.783333	1	4.095625
23.800000	1	4.335375
23.816667	1	4.555125
23.833333	1	4.749500
23.850000	1	4.914125
23.866667	1	5.045000
23.883333	1	5.139000
23.900000	1	5.194250
23.916667	1	5.209625
23.933333	1	5.185625
23.950000	1	5.121875
23.966667	1	5.021875
23.983333	1	4.888500
24.000000	1	4.724250
24.016667	1	4.535875
24.033333	1	4.326125
24.050000	1	4.100375
24.066667	1	3.863875
24.083333	1	3.620750
24.100000	1	3.375125
24.116667	1	3.131125
24.133333	1	2.891500
24.150000	1	2.659875
24.166667	1	2.438750
24.183333	1	2.230500
24.200000	1	2.035125
24.216667	1	1.854375
24.233333	1	1.688625
24.250000	1	1.537250
24.266667	1	1.399375
24.283333	1	1.275375
24.300000	1	1.163750
24.316667	1	1.064625
24.333333	1	0.977000
24.350000	1	0.899750
24.366667	1	0.832125
24.383333	1	0.772625
24.400000	1	0.721500
24.416667	1	0.677000
24.433333	1	0.639250
24.450000	1	0.607250
24.466667	1	0.580250
24.483333	1	0.556875
24.500000	1	0.537375
24.516667	1	0.520625
24.533333	1	0.507375
24.550000	1	0.495375
24.566667	1	0.485000
24.583333	1	0.476500
24.600000	1	0.468375
24.616667	1	0.461500
24.633333	1	0.455375
24.650000	1	0.449750
24.666667	1	0.443500
24.683333	1	0.437875
24.700000	1	0.432875
24.716667	1	0.427250
24.733333	1	0.421000
24.750000	1	0.415125
24.766667	1	0.409625
24.783333	1	0.404250
24.800000	1	0.398500
24.816667	1	0.393000
24.833333	1	0.387375
24.850000	1	0.381625
24.866667	1	0.376125
24.883333	1	0.371500
24.900000	1	0.366250
24.916667	1	0.362000
24.933333	1	0.357750
24.950000	1	0.353250
24.966667	1	0.350000
24.983333	1	0.346750
25.000000	1	0.343125
25.016667	1	0.339875
25.033333	1	0.336500
25.050000	1	0.332750
25.066667	1	0.330125
25.083333	1	0.327250
25.100000	1	0.323875
25.116667	1	0.321000
25.133333	1	0.317500
25.150000	1	0.314250
25.166667	1	0.311125
25.183333	1	0.308125
25.200000	1	0.305125
25.216667	1	0.301625
25.233333	1	0.297500
25.250000	1	0.293250
25.266667	1	0.289750
25.283333	1	0.286000
25.300000	1	0.282500
25.316667	1	0.279000
25.333333	1	0.275250
25.350000	1	0.271875
25.366667	1	0.268750
25.383333	1	0.265250
25.400000	1	0.262750
25.416667	1	0.259750
25.433333	1	0.256875
25.450000	1	0.254875
25.466667	1	0.253500
25.483333	1	0.252875
25.500000	1	0.252500
25.516667	1	0.252250
25.533333	1	0.252000
25.550000	1	0.252750
25.566667	1	0.253375
25.583333	1	0.254500
25.600000	1	0.255875
25.616667	1	0.257375
25.633333	1	0.258375
25.650000	1	0.260375
25.666667	1	0.262625
25.683333	1	0.264875
25.700000	1	0.266875
25.716667	1	0.270125
25.733333	1	0.273250
25.750000	1	0.275625
25.766667	1	0.278000
25.783333	1	0.280250
25.800000	1	0.282875
25.816667	1	0.285250
25.833333	1	0.288500
25.850000	1	0.291250
25.866667	1	0.294250
25.883333	1	0.297125
25.900000	1	0.300875
25.916667	1	0.304125
25.933333	1	0.307125
25.950000	1	0.310125
25.966667	1	0.313875
25.983333	1	0.317625
26.000000	1	0.321375
26.016667	1	0.325750
26.033333	1	0.329250
26.050000	1	0.332875
26.066667	1	0.336750
26.083333	1	0.340125
26.100000	1	0.343875
26.116667	1	0.347625
26.133333	1	0.350875
26.150000	1	0.353625
26.166667	1	0.356000
26.183333	1	0.358750
26.200000	1	0.360375
26.216667	1	0.362375
26.233333	1	0.364000
26.250000	1	0.364625
26.266667	1	0.364750
26.283333	1	0.364500
26.300000	1	0.363750
26.316667	1	0.362375
26.333333	1	0.360000
26.350000	1	0.357625
26.366667	1	0.354750
26.383333	1	0.351500
26.400000	1	0.347875
26.416667	1	0.343375
26.433333	1	0.337875
26.450000	1	0.332750
26.466667	1	0.327625
26.483333	1	0.321250
26.500000	1	0.316250
26.516667	1	0.310000
26.533333	1	0.303875
26.550000	1	0.297250
26.566667	1	0.292250
26.583333	1	0.286375
26.600000	1	0.280250
26.616667	1	0.273500
26.633333	1	0.268750
26.650000	1	0.263500
26.666667	1	0.259125
26.683333	1	0.254000
26.700000	1	0.248750
26.716667	1	0.244125
26.733333	1	0.240125
26.750000	1	0.236875
26.766667	1	0.233500
26.783333	1	0.229875
26.800000	1	0.226875
26.816667	1	0.224000
26.833333	1	0.222125
26.850000	1	0.220000
26.866667	1	0.218375
26.883333	1	0.217250
26.900000	1	0.215500
26.916667	1	0.214875
26.933333	1	0.214750
26.950000	1	0.214500
26.966667	1	0.215125
26.983333	1	0.216250
27.000000	1	0.217375
27.016667	1	0.219375
27.033333	1	0.221875
27.050000	1	0.224875
27.066667	1	0.228250
27.083333	1	0.232500
27.100000	1	0.238000
27.116667	1	0.244125
27.133333	1	0.251625
27.150000	1	0.260500
27.166667	1	0.270750
27.183333	1	0.282250
27.200000	1	0.295875
27.216667	1	0.311625
27.233333	1	0.329875
27.250000	1	0.351125
27.266667	1	0.375375
27.283333	1	0.402875
27.300000	1	0.435250
27.316667	1	0.471000
27.333333	1	0.512000
27.350000	1	0.558625
27.366667	1	0.610750
27.383333	1	0.670000
27.400000	1	0.735375
27.416667	1	0.808500
27.433333	1	0.889500
27.450000	1	0.980000
27.466667	1	1.079250
27.483333	1	1.187500
27.500000	1	1.305000
27.516667	1	1.432500
27.533333	1	1.569250
27.550000	1	1.715375
27.566667	1	1.870125
27.583333	1	2.032500
27.600000	1	2.201375
27.616667	1	2.376375
27.633333	1	2.556000
27.650000	1	2.737500
27.666667	1	2.919125
27.683333	1	3.099875
27.700000	1	3.277125
27.716667	1	3.447750
27.733333	1	3.608000
27.750000	1	3.757625
27.766667	1	3.893000
27.783333	1	4.011750
27.800000	1	4.111500
27.816667	1	4.190250
27.833333	1	4.247500
27.850000	1	4.280250
27.866667	1	4.288500
27.883333	1	4.271625
27.900000	1	4.230125
27.916667	1	4.163875
27.933333	1	4.075125
27.950000	1	3.964500
27.966667	1	3.834375
27.983333	1	3.687750
28.000000	1	3.527000
28.016667	1	3.354250
28.033333	1	3.172750
28.050000	1	2.984875
28.066667	1	2.794750
28.083333	1	2.603875
28.100000	1	2.415250
28.116667	1	2.231750
28.133333	1	2.053375
28.150000	1	1.882750
28.166667	1	1.722250
28.183333	1	1.571125
28.200000	1	1.431500
28.216667	1	1.302250
28.233333	1	1.184000
28.250000	1	1.076875
28.266667	1	0.980375
28.283333	1	0.893875
28.300000	1	0.817750
28.316667	1	0.751000
28.333333	1	0.692500
28.350000	1	0.642375
28.366667	1	0.598875
28.383333	1	0.562750
28.400000	1	0.533000
28.416667	1	0.508750
28.433333	1	0.489875
28.450000	1	0.475000
28.466667	1	0.464375
28.483333	1	0.457000
28.500000	1	0.452750
28.516667	1	0.452500
28.533333	1	0.453500
28.550000	1	0.457500
28.566667	1	0.462375
28.583333	1	0.469250
28.600000	1	0.477250
28.616667	1	0.486750
28.633333	1	0.496250
28.650000	1	0.506750
28.666667	1	0.517500
28.683333	1	0.528375
28.700000	1	0.539000
28.716667	1	0.549750
28.733333	1	0.560125
28.750000	1	0.569875
28.766667	1	0.578500
28.783333	1	0.586500
28.800000	1	0.594250
28.816667	1	0.601000
28.833333	1	0.606750
28.850000	1	0.611875
28.866667	1	0.615500
28.883333	1	0.617625
28.900000	1	0.618500
28.916667	1	0.618125
28.933333	1	0.616500
28.950000	1	0.614375
28.966667	1	0.611250
28.983333	1	0.606875
29.000000	1	0.601125
29.016667	1	0.594500
29.033333	1	0.586250
29.050000	1	0.577625
29.066667	1	0.568000
29.083333	1	0.557750
29.100000	1	0.546875
29.116667	1	0.534875
29.133333	1	0.522625
29.150000	1	0.509875
29.166667	1	0.496750
29.183333	1	0.483375
29.200000	1	0.470375
29.216667	1	0.456875
29.233333	1	0.443000
29.250000	1	0.429625
29.266667	1	0.415875
29.283333	1	0.402375
29.300000	1	0.389000
29.316667	1	0.376250
29.333333	1	0.363375
29.350000	1	0.350500
29.366667	1	0.338375
29.383333	1	0.326875
29.400000	1	0.315750
29.416667	1	0.305375
29.433333	1	0.295500
29.450000	1	0.286000
29.466667	1	0.276750
29.483333	1	0.267750
29.500000	1	0.259625
29.516667	1	0.251250
29.533333	1	0.243250
29.550000	1	0.236625
29.566667	1	0.229875
29.583333	1	0.223875
29.600000	1	0.218000
29.616667	1	0.212750
29.633333	1	0.207625
29.650000	1	0.202625
29.666667	1	0.197750
29.683333	1	0.193625
29.700000	1	0.190125
29.716667	1	0.186750
29.733333	1	0.183250
29.750000	1	0.180375
29.766667	1	0.177500
29.783333	1	0.175125
29.800000	1	0.172750
29.816667	1	0.170625
29.833333	1	0.167875
29.850000	1	0.166125
29.866667	1	0.164375
29.883333	1	0.162500
29.900000	1	0.160500
29.916667	1	0.158375
29.933333	1	0.156500
29.950000	1	0.155750
29.966667	1	0.154375
29.983333	1	0.152375
30.000000	1	0.151125
30.016667	1	0.149375
30.033333	1	0.148000
30.050000	1	0.146125
30.066667	1	0.144500
30.083333	1	0.143000
30.100000	1	0.141125
30.116667	1	0.140375
30.133333	1	0.138625
30.150000	1	0.137250
30.166667	1	0.136375
30.183333	1	0.134875
30.200000	1	0.134625
30.216667	1	0.134125
30.233333	1	0.132875
30.250000	1	0.132000
30.266667	1	0.131250
30.283333	1	0.130625
30.300000	1	0.130125
30.316667	1	0.130125
30.333333	1	0.130500
30.350000	1	0.130750
30.366667	1	0.131000
30.383333	1	0.131875
30.400000	1	0.133375
30.416667	1	0.134625
30.433333	1	0.136125
30.450000	1	0.138125
30.466667	1	0.140000
30.483333	1	0.142250
30.500000	1	0.145000
30.516667	1	0.148000
30.533333	1	0.152125
30.550000	1	0.156250
30.566667	1	0.160750
30.583333	1	0.164875
30.600000	1	0.171250
30.616667	1	0.178125
30.633333	1	0.184875
30.650000	1	0.192125
30.666667	1	0.200375
30.683333	1	0.209500
30.700000	1	0.220000
30.716667	1	0.230500
30.733333	1	0.242750
30.750000	1	0.256500
30.766667	1	0.270500
30.783333	1	0.286000
30.800000	1	0.304000
30.816667	1	0.324125
30.833333	1	0.346375
30.850000	1	0.370750
30.866667	1	0.398750
30.883333	1	0.430375
30.900000	1	0.464250
30.916667	1	0.503250
30.933333	1	0.546875
30.950000	1	0.595500
30.966667	1	0.649250
30.983333	1	0.710375
31.000000	1	0.778750
31.016667	1	0.854250
31.033333	1	0.938250
31.050000	1	1.031375
31.066667	1	1.133125
31.083333	1	1.245375
31.100000	1	1.368375
31.116667	1	1.502375
31.133333	1	1.646375
31.150000	1	1.801500
31.166667	1	1.967250
31.183333	1	2.143500
31.200000	1	2.330375
31.216667	1	2.526375
31.233333	1	2.730250
31.250000	1	2.941375
31.266667	1	3.157000
31.283333	1	3.377125
31.300000	1	3.598500
31.316667	1	3.819375
31.333333	1	4.036625
31.350000	1	4.247750
31.366667	1	4.451625
31.383333	1	4.645125
31.400000	1	4.825500
31.416667	1	4.990875
31.433333	1	5.138500
31.450000	1	5.265875
31.466667	1	5.372500
31.483333	1	5.455500
31.500000	1	5.514375
31.516667	1	5.548750
31.533333	1	5.557750
31.550000	1	5.542750
31.566667	1	5.502000
31.583333	1	5.437125
31.600000	1	5.348750
31.616667	1	5.239500
31.633333	1	5.110125
31.650000	1	4.962750
31.666667	1	4.799500
31.683333	1	4.622250
31.700000	1	4.434125
31.716667	1	4.237375
31.733333	1	4.034375
31.750000	1	3.826375
31.766667	1	3.616250
31.783333	1	3.405500
31.800000	1	3.196500
31.816667	1	2.990125
31.833333	1	2.789125
31.850000	1	2.594375
31.866667	1	2.406375
31.883333	1	2.226000
31.900000	1	2.055000
31.916667	1	1.892500
31.933333	1	1.739750
31.950000	1	1.596500
31.966667	1	1.463125
31.983333	1	1.338625
32.000000	1	1.222625
32.016667	1	1.115500
32.033333	1	1.017125
32.050000	1	0.927625
32.066667	1	0.845875
32.083333	1	0.770625
32.100000	1	0.702250
32.116667	1	0.640750
32.133333	1	0.584500
32.150000	1	0.534000
32.166667	1	0.488875
32.183333	1	0.447250
32.200000	1	0.410125
32.216667	1	0.377125
32.233333	1	0.346125
32.250000	1	0.318375
32.266667	1	0.293750
32.283333	1	0.271750
32.300000	1	0.251500
32.316667	1	0.233500
32.333333	1	0.216875
32.350000	1	0.201750
32.366667	1	0.188500
32.383333	1	0.176375
32.400000	1	0.165000
32.416667	1	0.154500
32.433333	1	0.144625
32.450000	1	0.135875
32.466667	1	0.127750
32.483333	1	0.120250
32.500000	1	0.114000
32.516667	1	0.107500
32.533333	1	0.102125
32.550000	1	0.097250
32.566667	1	0.092875
32.583333	1	0.088500
32.600000	1	0.085000
32.616667	1	0.081750
32.633333	1	0.079125
32.650000	1	0.077250
32.666667	1	0.074500
32.683333	1	0.072375
32.700000	1	0.070500
32.716667	1	0.069000
32.733333	1	0.068125
32.750000	1	0.067125
32.766667	1	0.066500
32.783333	1	0.065750
32.800000	1	0.065250
32.816667	1	0.065125
32.833333	1	0.065500
32.850000	1	0.065500
32.866667	1	0.064875
32.883333	1	0.064875
32.900000	1	0.065625
32.916667	1	0.065500
32.933333	1	0.066125
32.950000	1	0.067250
32.966667	1	0.067500
32.983333	1	0.067625
33.000000	1	0.067750
33.016667	1	0.068625
33.033333	1	0.069375
33.050000	1	0.069000
33.066667	1	0.069500
33.083333	1	0.070125
33.100000	1	0.070250
33.116667	1	0.070250
33.133333	1	0.070875
33.150000	1	0.071500
33.166667	1	0.072250
33.183333	1	0.072750
33.200000	1	0.073000
33.216667	1	0.073250
33.233333	1	0.073250
33.250000	1	0.073500
33.266667	1	0.073500
33.283333	1	0.073500
33.300000	1	0.073375
33.316667	1	0.073375
33.333333	1	0.073750
33.350000	1	0.074375
33.366667	1	0.074375
33.383333	1	0.074250
33.400000	1	0.074875
33.416667	1	0.074750
33.433333	1	0.075125
33.450000	1	0.075250
33.466667	1	0.076250
33.483333	1	0.077125
33.500000	1	0.077750
33.516667	1	0.079000
33.533333	1	0.079625
33.550000	1	0.081000
33.566667	1	0.082250
33.583333	1	0.084125
33.600000	1	0.086125
33.616667	1	0.088250
33.633333	1	0.090375
33.650000	1	0.093125
33.666667	1	0.095250
33.683333	1	0.098375
33.700000	1	0.101250
33.716667	1	0.103875
33.733333	1	0.106500
33.750000	1	0.109875
33.766667	1	0.113000
33.783333	1	0.116125
33.800000	1	0.118875
33.816667	1	0.121625
33.833333	1	0.124625
33.850000	1	0.126625
33.866667	1	0.128750
33.883333	1	0.130625
33.900000	1	0.132750
33.916667	1	0.134625
33.933333	1	0.136500
33.950000	1	0.137625
33.966667	1	0.138750
33.983333	1	0.139750
34.000000	1	0.140375
34.016667	1	0.140750
34.033333	1	0.141000
34.050000	1	0.141000
34.066667	1	0.141125
34.083333	1	0.140750
34.100000	1	0.141000
34.116667	1	0.140500
34.133333	1	0.140250
34.150000	1	0.139875
34.166667	1	0.139250
34.183333	1	0.139125
34.200000	1	0.139375
34.216667	1	0.138750
34.233333	1	0.138125
34.250000	1	0.138625
34.266667	1	0.138875
34.283333	1	0.139250
34.300000	1	0.138375
34.316667	1	0.139375
34.333333	1	0.140625
34.350000	1	0.141125
34.366667	1	0.142375
34.383333	1	0.143500
34.400000	1	0.145125
34.416667	1	0.145875
34.433333	1	0.147375
34.450000	1	0.149375
34.466667	1	0.150500
34.483333	1	0.152500
34.500000	1	0.154375
34.516667	1	0.156250
34.533333	1	0.158250
34.550000	1	0.160125
34.566667	1	0.162625
34.583333	1	0.164500
34.600000	1	0.166250
34.616667	1	0.168000
34.633333	1	0.169750
34.650000	1	0.171625
34.666667	1	0.173500
34.683333	1	0.176125
34.700000	1	0.177750
34.716667	1	0.178625
34.733333	1	0.179750
34.750000	1	0.180875
34.766667	1	0.182000
34.783333	1	0.182500
34.800000	1	0.183750
34.816667	1	0.185375
34.833333	1	0.186250
34.850000	1	0.186625
34.866667	1	0.186875
34.883333	1	0.187000
34.900000	1	0.187750
34.916667	1	0.187375
34.933333	1	0.187250
34.950000	1	0.187375
34.966667	1	0.187125
34.983333	1	0.187125
35.000000	1	0.187375
35.016667	1	0.187250
35.033333	1	0.187000
35.050000	1	0.186375
35.066667	1	0.185875
35.083333	1	0.185500
35.100000	1	0.185625
35.116667	1	0.185750
35.133333	1	0.185875
35.150000	1	0.186000
35.166667	1	0.185875
35.183333	1	0.185750
35.200000	1	0.185875
35.216667	1	0.186125
35.233333	1	0.186750
35.250000	1	0.186875
35.266667	1	0.187625
35.283333	1	0.188125
35.300000	1	0.188750
35.316667	1	0.189625
35.333333	1	0.190125
35.350000	1	0.190625
35.366667	1	0.191250
35.383333	1	0.191750
35.400000	1	0.192750
35.416667	1	0.192750
35.433333	1	0.193500
35.450000	1	0.193500
35.466667	1	0.194250
35.483333	1	0.195000
35.500000	1	0.195000
35.516667	1	0.194750
35.533333	1	0.195250
35.550000	1	0.195750
35.566667	1	0.195875
35.583333	1	0.195375
35.600000	1	0.194625
35.616667	1	0.194000
35.633333	1	0.193625
35.650000	1	0.193000
35.666667	1	0.191625
35.683333	1	0.190125
35.700000	1	0.188125
35.716667	1	0.187625
35.733333	1	0.186250
35.750000	1	0.185250
35.766667	1	0.184000
35.783333	1	0.182250
35.800000	1	0.179875
35.816667	1	0.177500
35.833333	1	0.175750
35.850000	1	0.174500
35.866667	1	0.172625
35.883333	1	0.170625
35.900000	1	0.168625
35.916667	1	0.167250
35.933333	1	0.165875
35.950000	1	0.165000
35.966667	1	0.163500
35.983333	1	0.162000
36.000000	1	0.161125
36.016667	1	0.160250
36.033333	1	0.159125
36.050000	1	0.157500
36.066667	1	0.156875
36.083333	1	0.156875
36.100000	1	0.156375
36.116667	1	0.156000
36.133333	1	0.156250
36.150000	1	0.155875
36.166667	1	0.155750
36.183333	1	0.154750
36.200000	1	0.154875
36.216667	1	0.154375
36.233333	1	0.154375
36.250000	1	0.153625
36.266667	1	0.152625
36.283333	1	0.151875
36.300000	1	0.151875
36.316667	1	0.151250
36.333333	1	0.150750
36.350000	1	0.150000
36.366667	1	0.149625
36.383333	1	0.148000
36.400000	1	0.146500
36.416667	1	0.144875
36.433333	1	0.144000
36.450000	1	0.142250
36.466667	1	0.140500
36.483333	1	0.138000
36.500000	1	0.136125
36.516667	1	0.133875
36.533333	1	0.131125
36.550000	1	0.127875
36.566667	1	0.124875
36.583333	1	0.122375
36.600000	1	0.120000
36.616667	1	0.117375
36.633333	1	0.114125
36.650000	1	0.110750
36.666667	1	0.107625
36.683333	1	0.104750
36.700000	1	0.102000
36.716667	1	0.098500
36.733333	1	0.095750
36.750000	1	0.092875
36.766667	1	0.090875
36.783333	1	0.088125
36.800000	1	0.085625
36.816667	1	0.083250
36.833333	1	0.081000
36.850000	1	0.078125
36.866667	1	0.076625
36.883333	1	0.074500
36.900000	1	0.073125
36.916667	1	0.071500
36.933333	1	0.071000
36.950000	1	0.070000
36.966667	1	0.069375
36.983333	1	0.068125
37.000000	1	0.067000
37.016667	1	0.066875
37.033333	1	0.066500
37.050000	1	0.066250
37.066667	1	0.065625
37.083333	1	0.065500
37.100000	1	0.065250
37.116667	1	0.065375
37.133333	1	0.065500
37.150000	1	0.065625
37.166667	1	0.065625
37.183333	1	0.065875
37.200000	1	0.066500
37.216667	1	0.066500
37.233333	1	0.067250
37.250000	1	0.067250
37.266667	1	0.067500
37.283333	1	0.068250
37.300000	1	0.067625
37.316667	1	0.067500
37.333333	1	0.067625
37.350000	1	0.067375
37.366667	1	0.067750
37.383333	1	0.068125
37.400000	1	0.067875
37.416667	1	0.067625
37.433333	1	0.067375
37.450000	1	0.066625
37.466667	1	0.066875
37.483333	1	0.066750
37.500000	1	0.066625
37.516667	1	0.066750
37.533333	1	0.066750
37.550000	1	0.066250
37.566667	1	0.066000
37.583333	1	0.065875
37.600000	1	0.065375
37.616667	1	0.065250
37.633333	1	0.064125
37.650000	1	0.063375
37.666667	1	0.063750
37.683333	1	0.063750
37.700000	1	0.063500
37.716667	1	0.062500
37.733333	1	0.061250
37.750000	1	0.061000
37.766667	1	0.060625
37.783333	1	0.060625
37.800000	1	0.060250
37.816667	1	0.059500
37.833333	1	0.058875
37.850000	1	0.058375
37.866667	1	0.057875
37.883333	1	0.057250
37.900000	1	0.057125
37.916667	1	0.056875
37.933333	1	0.056875
37.950000	1	0.057250
37.966667	1	0.057875
37.983333	1	0.057625
38.000000	1	0.057750
38.016667	1	0.058375
38.033333	1	0.059125
38.050000	1	0.059375
38.066667	1	0.060500
38.083333	1	0.061625
38.100000	1	0.062500
38.116667	1	0.063250
38.133333	1	0.064000
38.150000	1	0.065000
38.166667	1	0.066125
38.183333	1	0.066875
38.200000	1	0.067500
38.216667	1	0.068000
38.233333	1	0.069000
38.250000	1	0.071250
38.266667	1	0.072500
38.283333	1	0.073750
38.300000	1	0.075125
38.316667	1	0.076250
38.333333	1	0.077375
38.350000	1	0.078125
38.366667	1	0.079500
38.383333	1	0.081000
38.400000	1	0.081875
38.416667	1	0.083000
38.433333	1	0.084250
38.450000	1	0.084875
38.466667	1	0.086000
38.483333	1	0.086750
38.500000	1	0.088250
38.516667	1	0.089000
38.533333	1	0.089500
38.550000	1	0.089875
38.566667	1	0.090625
38.583333	1	0.091125
38.600000	1	0.091500
38.616667	1	0.092000
38.633333	1	0.092000
38.650000	1	0.092000
38.666667	1	0.092000
38.683333	1	0.091500
38.700000	1	0.091125
38.716667	1	0.090500
38.733333	1	0.090375
38.750000	1	0.089875
38.766667	1	0.088750
38.783333	1	0.087750
38.800000	1	0.086250
38.816667	1	0.085375
38.833333	1	0.083750
38.850000	1	0.082375
38.866667	1	0.081125
38.883333	1	0.079625
38.900000	1	0.078375
38.916667	1	0.076625
38.933333	1	0.075125
38.950000	1	0.073625
38.966667	1	0.072250
38.983333	1	0.070875
39.000000	1	0.069250
39.016667	1	0.067250
39.033333	1	0.065250
39.050000	1	0.064000
39.066667	1	0.061875
39.083333	1	0.060375
39.100000	1	0.058875
39.116667	1	0.057375
39.133333	1	0.056125
39.150000	1	0.054000
39.166667	1	0.052625
39.183333	1	0.051000
39.200000	1	0.049375
39.216667	1	0.047625
39.233333	1	0.045750
39.250000	1	0.044250
39.266667	1	0.043500
39.283333	1	0.042000
39.300000	1	0.040875
39.316667	1	0.039500
39.333333	1	0.038500
39.350000	1	0.036875
39.366667	1	0.035500
39.383333	1	0.034250
39.400000	1	0.033250
39.416667	1	0.031625
39.433333	1	0.030875
39.450000	1	0.030000
39.466667	1	0.028375
39.483333	1	0.026750
39.500000	1	0.025875
39.516667	1	0.025750
39.533333	1	0.024875
39.550000	1	0.023500
39.566667	1	0.022750
39.583333	1	0.022125
39.600000	1	0.022125
39.616667	1	0.021625
39.633333	1	0.021250
39.650000	1	0.020875
39.666667	1	0.021000
39.683333	1	0.020375
39.700000	1	0.020125
39.716667	1	0.020000
39.733333	1	0.020375
39.750000	1	0.021125
39.766667	1	0.022125
39.783333	1	0.022875
39.800000	1	0.023750
39.816667	1	0.024375
39.833333	1	0.025500
39.850000	1	0.026250
39.866667	1	0.027875
39.883333	1	0.029125
39.900000	1	0.030625
39.916667	1	0.031750
39.933333	1	0.032375
39.950000	1	0.033625
39.966667	1	0.035000
39.983333	1	0.036125
40.000000	1	0.037250
