URL	chrom://bioreactor/micro_cm7/HPLC_Ultimate_3000/Users/markusar/20240708_MA_pHrange1.seq/127.smp/RI_1.channel/RI_1.chm
Channel	RI_1

Injection Information:
Data Vault	micro_cm7
Sequence	20240708_MA_pHrange1
Name	Pv3_6.5_3
Number	14
Position	BB2
Comment	
Processing Method	
Instrument Method	run_25B_method
Type	Unknown
Status	Finished
Inject Time	09.07.2024 00:27:06 +02:00
Volume (µl)	20.0000
Dilution Factor	1.0000
Weight	1.0000

Chromatogram Data Information:
Time Min. (min)	0.000000
Time Max. (min)	40.000000
Data Points	2401
Detector	RI
Generating Data System	Chromeleon 7.3.2.11814
Exporting Data System	Chromeleon 7.3.2.0
Operator	Instrument Controller
Signal Quantity	Refractive 
Signal Unit	µRIU
Signal Min.	-0.047250
Signal Max.	82.098750
Channel	RI_1
Driver Name	RID520Driver.dll
Channel Type	Evaluation
Min. Step (s)	1
Max. Step (s)	1
Average Step (s)	1

Signal Parameter Information:
Signal Info	

Chromatogram Data:
Time (min)	Step (s)	Value (µRIU)
0.000000	n.a.	0.014250
0.016667	1	0.014500
0.033333	1	0.014750
0.050000	1	0.014125
0.066667	1	0.013875
0.083333	1	0.014250
0.100000	1	0.014750
0.116667	1	0.015125
0.133333	1	0.015000
0.150000	1	0.014750
0.166667	1	0.014250
0.183333	1	0.014750
0.200000	1	0.015750
0.216667	1	0.016625
0.233333	1	0.017625
0.250000	1	0.018125
0.266667	1	0.019125
0.283333	1	0.019875
0.300000	1	0.021250
0.316667	1	0.023125
0.333333	1	0.024125
0.350000	1	0.025500
0.366667	1	0.026500
0.383333	1	0.026875
0.400000	1	0.028000
0.416667	1	0.030000
0.433333	1	0.033375
0.450000	1	0.036750
0.466667	1	0.040000
0.483333	1	0.042375
0.500000	1	0.044750
0.516667	1	0.045750
0.533333	1	0.046375
0.550000	1	0.046000
0.566667	1	0.045125
0.583333	1	0.044000
0.600000	1	0.042500
0.616667	1	0.040875
0.633333	1	0.039375
0.650000	1	0.038125
0.666667	1	0.036625
0.683333	1	0.036125
0.700000	1	0.035750
0.716667	1	0.035000
0.733333	1	0.034250
0.750000	1	0.033750
0.766667	1	0.032500
0.783333	1	0.031125
0.800000	1	0.030250
0.816667	1	0.029375
0.833333	1	0.027750
0.850000	1	0.026625
0.866667	1	0.025625
0.883333	1	0.024250
0.900000	1	0.022750
0.916667	1	0.021250
0.933333	1	0.020000
0.950000	1	0.019250
0.966667	1	0.017625
0.983333	1	0.015750
1.000000	1	0.013875
1.016667	1	0.012500
1.033333	1	0.011625
1.050000	1	0.010625
1.066667	1	0.009000
1.083333	1	0.008500
1.100000	1	0.007125
1.116667	1	0.006250
1.133333	1	0.004875
1.150000	1	0.003625
1.166667	1	0.002250
1.183333	1	0.000500
1.200000	1	-0.000500
1.216667	1	-0.001000
1.233333	1	-0.002500
1.250000	1	-0.003125
1.266667	1	-0.003875
1.283333	1	-0.003500
1.300000	1	-0.003750
1.316667	1	-0.004500
1.333333	1	-0.004625
1.350000	1	-0.005250
1.366667	1	-0.004625
1.383333	1	-0.004500
1.400000	1	-0.005125
1.416667	1	-0.005375
1.433333	1	-0.005500
1.450000	1	-0.005250
1.466667	1	-0.006000
1.483333	1	-0.006500
1.500000	1	-0.006625
1.516667	1	-0.006250
1.533333	1	-0.006375
1.550000	1	-0.006125
1.566667	1	-0.005250
1.583333	1	-0.004500
1.600000	1	-0.004125
1.616667	1	-0.003250
1.633333	1	-0.002375
1.650000	1	-0.001750
1.666667	1	-0.001250
1.683333	1	-0.000750
1.700000	1	0.000000
1.716667	1	0.001375
1.733333	1	0.003000
1.750000	1	0.003625
1.766667	1	0.004500
1.783333	1	0.005250
1.800000	1	0.006875
1.816667	1	0.007375
1.833333	1	0.008375
1.850000	1	0.009250
1.866667	1	0.009875
1.883333	1	0.010625
1.900000	1	0.011375
1.916667	1	0.011500
1.933333	1	0.011750
1.950000	1	0.011875
1.966667	1	0.012250
1.983333	1	0.012250
2.000000	1	0.012875
2.016667	1	0.012625
2.033333	1	0.012125
2.050000	1	0.011875
2.066667	1	0.010750
2.083333	1	0.009875
2.100000	1	0.008375
2.116667	1	0.007625
2.133333	1	0.007000
2.150000	1	0.005125
2.166667	1	0.003375
2.183333	1	0.001750
2.200000	1	0.000750
2.216667	1	-0.000750
2.233333	1	-0.002125
2.250000	1	-0.002875
2.266667	1	-0.004625
2.283333	1	-0.006625
2.300000	1	-0.008500
2.316667	1	-0.009750
2.333333	1	-0.010875
2.350000	1	-0.012625
2.366667	1	-0.014125
2.383333	1	-0.015000
2.400000	1	-0.016500
2.416667	1	-0.017250
2.433333	1	-0.018500
2.450000	1	-0.019625
2.466667	1	-0.021000
2.483333	1	-0.022500
2.500000	1	-0.023250
2.516667	1	-0.024500
2.533333	1	-0.025625
2.550000	1	-0.026500
2.566667	1	-0.027375
2.583333	1	-0.028250
2.600000	1	-0.029125
2.616667	1	-0.030125
2.633333	1	-0.031000
2.650000	1	-0.032000
2.666667	1	-0.032000
2.683333	1	-0.033125
2.700000	1	-0.033875
2.716667	1	-0.034000
2.733333	1	-0.035250
2.750000	1	-0.036000
2.766667	1	-0.037000
2.783333	1	-0.037500
2.800000	1	-0.037875
2.816667	1	-0.038375
2.833333	1	-0.038250
2.850000	1	-0.039000
2.866667	1	-0.039500
2.883333	1	-0.040125
2.900000	1	-0.040500
2.916667	1	-0.041000
2.933333	1	-0.041750
2.950000	1	-0.041750
2.966667	1	-0.042000
2.983333	1	-0.042125
3.000000	1	-0.042250
3.016667	1	-0.041750
3.033333	1	-0.041750
3.050000	1	-0.041250
3.066667	1	-0.041000
3.083333	1	-0.040500
3.100000	1	-0.040000
3.116667	1	-0.039625
3.133333	1	-0.039500
3.150000	1	-0.038625
3.166667	1	-0.037625
3.183333	1	-0.036500
3.200000	1	-0.035750
3.216667	1	-0.034875
3.233333	1	-0.033875
3.250000	1	-0.032500
3.266667	1	-0.031000
3.283333	1	-0.029375
3.300000	1	-0.027375
3.316667	1	-0.026000
3.333333	1	-0.025375
3.350000	1	-0.023500
3.366667	1	-0.021500
3.383333	1	-0.019625
3.400000	1	-0.017250
3.416667	1	-0.015125
3.433333	1	-0.013000
3.450000	1	-0.011250
3.466667	1	-0.009750
3.483333	1	-0.007875
3.500000	1	-0.005000
3.516667	1	-0.002625
3.533333	1	-0.000625
3.550000	1	0.001250
3.566667	1	0.003250
3.583333	1	0.005375
3.600000	1	0.007500
3.616667	1	0.009375
3.633333	1	0.011750
3.650000	1	0.014000
3.666667	1	0.015625
3.683333	1	0.017375
3.700000	1	0.019125
3.716667	1	0.020500
3.733333	1	0.021000
3.750000	1	0.022375
3.766667	1	0.023625
3.783333	1	0.024750
3.800000	1	0.025250
3.816667	1	0.026125
3.833333	1	0.027250
3.850000	1	0.028625
3.866667	1	0.029625
3.883333	1	0.030500
3.900000	1	0.031125
3.916667	1	0.031625
3.933333	1	0.032500
3.950000	1	0.033500
3.966667	1	0.033750
3.983333	1	0.034750
4.000000	1	0.035125
4.016667	1	0.035750
4.033333	1	0.036500
4.050000	1	0.037000
4.066667	1	0.037750
4.083333	1	0.038750
4.100000	1	0.039375
4.116667	1	0.040250
4.133333	1	0.041125
4.150000	1	0.041875
4.166667	1	0.042625
4.183333	1	0.043500
4.200000	1	0.044500
4.216667	1	0.045875
4.233333	1	0.046750
4.250000	1	0.048000
4.266667	1	0.049125
4.283333	1	0.050250
4.300000	1	0.051625
4.316667	1	0.052250
4.333333	1	0.053250
4.350000	1	0.054750
4.366667	1	0.055000
4.383333	1	0.056250
4.400000	1	0.057250
4.416667	1	0.058000
4.433333	1	0.059250
4.450000	1	0.060125
4.466667	1	0.062000
4.483333	1	0.062875
4.500000	1	0.063250
4.516667	1	0.064375
4.533333	1	0.065250
4.550000	1	0.066875
4.566667	1	0.068000
4.583333	1	0.068750
4.600000	1	0.070250
4.616667	1	0.070875
4.633333	1	0.071625
4.650000	1	0.072750
4.666667	1	0.074250
4.683333	1	0.075375
4.700000	1	0.076750
4.716667	1	0.078250
4.733333	1	0.080625
4.750000	1	0.081625
4.766667	1	0.083250
4.783333	1	0.085375
4.800000	1	0.088125
4.816667	1	0.090125
4.833333	1	0.093000
4.850000	1	0.095625
4.866667	1	0.098125
4.883333	1	0.101125
4.900000	1	0.103875
4.916667	1	0.106875
4.933333	1	0.110000
4.950000	1	0.113125
4.966667	1	0.116875
4.983333	1	0.120250
5.000000	1	0.123500
5.016667	1	0.127250
5.033333	1	0.131250
5.050000	1	0.135375
5.066667	1	0.139000
5.083333	1	0.143250
5.100000	1	0.147250
5.116667	1	0.151625
5.133333	1	0.155125
5.150000	1	0.159000
5.166667	1	0.163250
5.183333	1	0.167375
5.200000	1	0.170875
5.216667	1	0.175000
5.233333	1	0.177750
5.250000	1	0.181125
5.266667	1	0.184000
5.283333	1	0.187375
5.300000	1	0.190625
5.316667	1	0.193250
5.333333	1	0.196375
5.350000	1	0.199500
5.366667	1	0.202500
5.383333	1	0.204250
5.400000	1	0.206375
5.416667	1	0.208625
5.433333	1	0.211000
5.450000	1	0.213875
5.466667	1	0.215500
5.483333	1	0.217000
5.500000	1	0.218500
5.516667	1	0.220500
5.533333	1	0.221625
5.550000	1	0.222000
5.566667	1	0.223750
5.583333	1	0.224750
5.600000	1	0.225250
5.616667	1	0.225750
5.633333	1	0.226250
5.650000	1	0.225875
5.666667	1	0.225750
5.683333	1	0.225875
5.700000	1	0.225625
5.716667	1	0.224625
5.733333	1	0.223625
5.750000	1	0.221875
5.766667	1	0.220375
5.783333	1	0.218125
5.800000	1	0.216625
5.816667	1	0.214375
5.833333	1	0.212000
5.850000	1	0.208625
5.866667	1	0.205250
5.883333	1	0.202000
5.900000	1	0.198875
5.916667	1	0.194875
5.933333	1	0.191250
5.950000	1	0.186375
5.966667	1	0.181875
5.983333	1	0.176625
6.000000	1	0.171000
6.016667	1	0.165625
6.033333	1	0.160500
6.050000	1	0.154125
6.066667	1	0.148125
6.083333	1	0.143125
6.100000	1	0.137125
6.116667	1	0.130750
6.133333	1	0.124625
6.150000	1	0.118625
6.166667	1	0.112750
6.183333	1	0.107000
6.200000	1	0.101625
6.216667	1	0.096000
6.233333	1	0.090125
6.250000	1	0.084875
6.266667	1	0.080625
6.283333	1	0.075625
6.300000	1	0.070625
6.316667	1	0.066250
6.333333	1	0.062500
6.350000	1	0.058250
6.366667	1	0.054750
6.383333	1	0.052375
6.400000	1	0.049875
6.416667	1	0.047500
6.433333	1	0.044875
6.450000	1	0.043125
6.466667	1	0.040750
6.483333	1	0.039500
6.500000	1	0.038125
6.516667	1	0.036750
6.533333	1	0.036375
6.550000	1	0.036250
6.566667	1	0.035625
6.583333	1	0.034875
6.600000	1	0.034625
6.616667	1	0.034500
6.633333	1	0.034750
6.650000	1	0.035000
6.666667	1	0.035750
6.683333	1	0.035875
6.700000	1	0.036125
6.716667	1	0.036625
6.733333	1	0.036750
6.750000	1	0.037750
6.766667	1	0.038375
6.783333	1	0.039250
6.800000	1	0.040375
6.816667	1	0.040500
6.833333	1	0.041500
6.850000	1	0.042375
6.866667	1	0.043375
6.883333	1	0.043625
6.900000	1	0.044500
6.916667	1	0.046125
6.933333	1	0.047125
6.950000	1	0.048250
6.966667	1	0.049375
6.983333	1	0.050875
7.000000	1	0.052250
7.016667	1	0.053875
7.033333	1	0.054500
7.050000	1	0.056125
7.066667	1	0.057125
7.083333	1	0.058125
7.100000	1	0.059875
7.116667	1	0.061750
7.133333	1	0.063875
7.150000	1	0.066250
7.166667	1	0.068750
7.183333	1	0.070750
7.200000	1	0.073125
7.216667	1	0.075750
7.233333	1	0.078500
7.250000	1	0.080875
7.266667	1	0.084000
7.283333	1	0.086000
7.300000	1	0.088750
7.316667	1	0.092000
7.333333	1	0.095250
7.350000	1	0.098875
7.366667	1	0.101625
7.383333	1	0.104375
7.400000	1	0.107000
7.416667	1	0.108875
7.433333	1	0.111125
7.450000	1	0.112375
7.466667	1	0.114375
7.483333	1	0.116125
7.500000	1	0.117750
7.516667	1	0.119250
7.533333	1	0.120375
7.550000	1	0.120750
7.566667	1	0.120250
7.583333	1	0.120500
7.600000	1	0.120375
7.616667	1	0.119750
7.633333	1	0.119125
7.650000	1	0.117625
7.666667	1	0.116500
7.683333	1	0.114375
7.700000	1	0.111875
7.716667	1	0.109875
7.733333	1	0.106500
7.750000	1	0.103750
7.766667	1	0.099750
7.783333	1	0.095750
7.800000	1	0.091500
7.816667	1	0.087625
7.833333	1	0.082750
7.850000	1	0.078250
7.866667	1	0.073000
7.883333	1	0.068750
7.900000	1	0.064125
7.916667	1	0.059250
7.933333	1	0.054625
7.950000	1	0.049375
7.966667	1	0.044375
7.983333	1	0.040500
8.000000	1	0.035875
8.016667	1	0.031500
8.033333	1	0.026750
8.050000	1	0.022250
8.066667	1	0.017875
8.083333	1	0.014125
8.100000	1	0.009500
8.116667	1	0.005250
8.133333	1	0.002000
8.150000	1	-0.001500
8.166667	1	-0.005000
8.183333	1	-0.008250
8.200000	1	-0.011000
8.216667	1	-0.013750
8.233333	1	-0.015875
8.250000	1	-0.018375
8.266667	1	-0.020250
8.283333	1	-0.022625
8.300000	1	-0.024125
8.316667	1	-0.025500
8.333333	1	-0.026875
8.350000	1	-0.028625
8.366667	1	-0.029875
8.383333	1	-0.030500
8.400000	1	-0.031250
8.416667	1	-0.032500
8.433333	1	-0.032625
8.450000	1	-0.033000
8.466667	1	-0.033000
8.483333	1	-0.033625
8.500000	1	-0.033125
8.516667	1	-0.033250
8.533333	1	-0.033250
8.550000	1	-0.032750
8.566667	1	-0.032375
8.583333	1	-0.031875
8.600000	1	-0.031125
8.616667	1	-0.031125
8.633333	1	-0.030625
8.650000	1	-0.030000
8.666667	1	-0.029250
8.683333	1	-0.028250
8.700000	1	-0.027375
8.716667	1	-0.026000
8.733333	1	-0.024625
8.750000	1	-0.023750
8.766667	1	-0.022375
8.783333	1	-0.021500
8.800000	1	-0.020750
8.816667	1	-0.019500
8.833333	1	-0.018000
8.850000	1	-0.016625
8.866667	1	-0.014750
8.883333	1	-0.013250
8.900000	1	-0.012875
8.916667	1	-0.011625
8.933333	1	-0.011250
8.950000	1	-0.010750
8.966667	1	-0.009375
8.983333	1	-0.008500
9.000000	1	-0.007750
9.016667	1	-0.007250
9.033333	1	-0.007250
9.050000	1	-0.007000
9.066667	1	-0.006750
9.083333	1	-0.006750
9.100000	1	-0.006750
9.116667	1	-0.007000
9.133333	1	-0.007875
9.150000	1	-0.008250
9.166667	1	-0.008875
9.183333	1	-0.009625
9.200000	1	-0.010125
9.216667	1	-0.011375
9.233333	1	-0.012250
9.250000	1	-0.013250
9.266667	1	-0.015125
9.283333	1	-0.016500
9.300000	1	-0.019375
9.316667	1	-0.020125
9.333333	1	-0.021500
9.350000	1	-0.023000
9.366667	1	-0.024125
9.383333	1	-0.025375
9.400000	1	-0.027000
9.416667	1	-0.028750
9.433333	1	-0.030250
9.450000	1	-0.031625
9.466667	1	-0.032500
9.483333	1	-0.034250
9.500000	1	-0.035625
9.516667	1	-0.036625
9.533333	1	-0.037500
9.550000	1	-0.038750
9.566667	1	-0.039250
9.583333	1	-0.039875
9.600000	1	-0.040500
9.616667	1	-0.041000
9.633333	1	-0.041875
9.650000	1	-0.042375
9.666667	1	-0.043125
9.683333	1	-0.043250
9.700000	1	-0.044000
9.716667	1	-0.043875
9.733333	1	-0.044125
9.750000	1	-0.044500
9.766667	1	-0.045000
9.783333	1	-0.045500
9.800000	1	-0.045875
9.816667	1	-0.046125
9.833333	1	-0.046875
9.850000	1	-0.046625
9.866667	1	-0.047250
9.883333	1	-0.047000
9.900000	1	-0.046625
9.916667	1	-0.046750
9.933333	1	-0.046625
9.950000	1	-0.046625
9.966667	1	-0.046625
9.983333	1	-0.045750
10.000000	1	-0.044625
10.016667	1	-0.042500
10.033333	1	-0.039625
10.050000	1	-0.036000
10.066667	1	-0.032125
10.083333	1	-0.026250
10.100000	1	-0.019625
10.116667	1	-0.012250
10.133333	1	-0.004500
10.150000	1	0.004500
10.166667	1	0.014625
10.183333	1	0.026375
10.200000	1	0.038625
10.216667	1	0.052125
10.233333	1	0.066875
10.250000	1	0.082750
10.266667	1	0.101750
10.283333	1	0.122375
10.300000	1	0.146500
10.316667	1	0.171875
10.333333	1	0.200250
10.350000	1	0.229375
10.366667	1	0.259250
10.383333	1	0.286750
10.400000	1	0.308875
10.416667	1	0.322625
10.433333	1	0.324000
10.450000	1	0.309500
10.466667	1	0.279250
10.483333	1	0.236000
10.500000	1	0.194625
10.516667	1	0.180000
10.533333	1	0.235125
10.550000	1	0.417625
10.566667	1	0.799750
10.583333	1	1.458625
10.600000	1	2.469250
10.616667	1	3.896875
10.633333	1	5.789000
10.650000	1	8.175875
10.666667	1	11.071875
10.683333	1	14.471250
10.700000	1	18.349375
10.716667	1	22.655125
10.733333	1	27.304125
10.750000	1	32.166250
10.766667	1	37.048375
10.783333	1	41.684500
10.800000	1	45.721750
10.816667	1	48.745375
10.833333	1	50.346000
10.850000	1	50.230875
10.866667	1	48.328250
10.883333	1	44.837250
10.900000	1	40.188000
10.916667	1	34.921750
10.933333	1	29.555625
10.950000	1	24.479500
10.966667	1	19.936750
10.983333	1	16.036250
11.000000	1	12.793375
11.016667	1	10.164375
11.033333	1	8.076875
11.050000	1	6.444750
11.066667	1	5.184000
11.083333	1	4.216500
11.100000	1	3.477500
11.116667	1	2.914375
11.133333	1	2.484625
11.150000	1	2.154500
11.166667	1	1.898375
11.183333	1	1.698625
11.200000	1	1.541125
11.216667	1	1.414625
11.233333	1	1.311750
11.250000	1	1.226875
11.266667	1	1.156750
11.283333	1	1.097625
11.300000	1	1.047875
11.316667	1	1.005125
11.333333	1	0.969125
11.350000	1	0.937750
11.366667	1	0.910625
11.383333	1	0.886625
11.400000	1	0.866875
11.416667	1	0.848125
11.433333	1	0.832875
11.450000	1	0.819375
11.466667	1	0.807875
11.483333	1	0.797625
11.500000	1	0.788875
11.516667	1	0.781875
11.533333	1	0.776000
11.550000	1	0.771500
11.566667	1	0.768125
11.583333	1	0.765875
11.600000	1	0.765125
11.616667	1	0.765250
11.633333	1	0.766250
11.650000	1	0.768625
11.666667	1	0.772875
11.683333	1	0.778000
11.700000	1	0.784000
11.716667	1	0.792000
11.733333	1	0.801125
11.750000	1	0.811250
11.766667	1	0.822000
11.783333	1	0.833625
11.800000	1	0.845500
11.816667	1	0.856000
11.833333	1	0.867250
11.850000	1	0.877625
11.866667	1	0.887000
11.883333	1	0.895250
11.900000	1	0.903000
11.916667	1	0.910500
11.933333	1	0.917000
11.950000	1	0.923250
11.966667	1	0.928875
11.983333	1	0.934125
12.000000	1	0.939375
12.016667	1	0.944125
12.033333	1	0.949375
12.050000	1	0.954875
12.066667	1	0.960750
12.083333	1	0.967000
12.100000	1	0.973625
12.116667	1	0.980625
12.133333	1	0.988000
12.150000	1	0.996375
12.166667	1	1.004750
12.183333	1	1.015250
12.200000	1	1.027250
12.216667	1	1.041000
12.233333	1	1.058375
12.250000	1	1.078500
12.266667	1	1.103375
12.283333	1	1.134125
12.300000	1	1.174250
12.316667	1	1.225500
12.333333	1	1.290250
12.350000	1	1.372000
12.366667	1	1.474625
12.383333	1	1.603625
12.400000	1	1.762625
12.416667	1	1.956125
12.433333	1	2.190125
12.450000	1	2.468500
12.466667	1	2.796000
12.483333	1	3.177625
12.500000	1	3.615625
12.516667	1	4.112125
12.533333	1	4.666125
12.550000	1	5.276875
12.566667	1	5.936750
12.583333	1	6.635125
12.600000	1	7.361625
12.616667	1	8.101625
12.633333	1	8.840250
12.650000	1	9.563875
12.666667	1	10.260875
12.683333	1	10.921000
12.700000	1	11.540250
12.716667	1	12.117375
12.733333	1	12.656000
12.750000	1	13.164375
12.766667	1	13.653250
12.783333	1	14.133250
12.800000	1	14.614000
12.816667	1	15.106375
12.833333	1	15.617625
12.850000	1	16.154375
12.866667	1	16.722250
12.883333	1	17.321500
12.900000	1	17.954125
12.916667	1	18.619000
12.933333	1	19.316375
12.950000	1	20.042250
12.966667	1	20.796000
12.983333	1	21.576500
13.000000	1	22.380750
13.016667	1	23.207250
13.033333	1	24.055750
13.050000	1	24.926750
13.066667	1	25.818500
13.083333	1	26.731375
13.100000	1	27.664125
13.116667	1	28.617375
13.133333	1	29.589000
13.150000	1	30.580375
13.166667	1	31.589875
13.183333	1	32.618750
13.200000	1	33.666125
13.216667	1	34.732125
13.233333	1	35.817000
13.250000	1	36.923625
13.266667	1	38.051875
13.283333	1	39.202875
13.300000	1	40.376000
13.316667	1	41.572000
13.333333	1	42.790750
13.350000	1	44.032125
13.366667	1	45.298000
13.383333	1	46.588000
13.400000	1	47.902750
13.416667	1	49.242750
13.433333	1	50.608500
13.450000	1	52.003500
13.466667	1	53.428500
13.483333	1	54.882875
13.500000	1	56.368000
13.516667	1	57.883125
13.533333	1	59.429625
13.550000	1	61.006875
13.566667	1	62.615625
13.583333	1	64.257000
13.600000	1	65.930250
13.616667	1	67.637250
13.633333	1	69.379750
13.650000	1	71.159875
13.666667	1	72.979500
13.683333	1	74.836250
13.700000	1	76.714625
13.716667	1	78.558125
13.733333	1	80.234000
13.750000	1	81.514250
13.766667	1	82.098750
13.783333	1	81.676000
13.800000	1	79.958875
13.816667	1	76.686125
13.833333	1	71.679500
13.850000	1	64.978125
13.866667	1	56.967750
13.883333	1	48.348875
13.900000	1	39.916750
13.916667	1	32.308000
13.933333	1	25.845375
13.950000	1	20.584375
13.966667	1	16.417750
13.983333	1	13.178000
14.000000	1	10.690250
14.016667	1	8.801875
14.033333	1	7.385000
14.050000	1	6.332375
14.066667	1	5.554000
14.083333	1	4.978125
14.100000	1	4.548750
14.116667	1	4.225125
14.133333	1	3.975750
14.150000	1	3.779250
14.166667	1	3.620875
14.183333	1	3.490125
14.200000	1	3.381125
14.216667	1	3.286000
14.233333	1	3.203500
14.250000	1	3.129250
14.266667	1	3.062875
14.283333	1	3.002250
14.300000	1	2.947125
14.316667	1	2.897875
14.333333	1	2.853000
14.350000	1	2.813500
14.366667	1	2.779875
14.383333	1	2.752125
14.400000	1	2.732375
14.416667	1	2.722750
14.433333	1	2.725875
14.450000	1	2.745500
14.466667	1	2.787875
14.483333	1	2.861500
14.500000	1	2.979375
14.516667	1	3.158750
14.533333	1	3.422750
14.550000	1	3.804250
14.566667	1	4.344375
14.583333	1	5.092750
14.600000	1	6.113500
14.616667	1	7.477625
14.633333	1	9.264875
14.650000	1	11.552875
14.666667	1	14.413000
14.683333	1	17.897875
14.700000	1	22.028750
14.716667	1	26.786125
14.733333	1	32.104750
14.750000	1	37.865250
14.766667	1	43.889000
14.783333	1	49.945375
14.800000	1	55.782750
14.816667	1	61.127500
14.833333	1	65.713125
14.850000	1	69.297250
14.866667	1	71.692375
14.883333	1	72.779125
14.900000	1	72.522500
14.916667	1	70.971000
14.933333	1	68.251875
14.950000	1	64.548250
14.966667	1	60.090125
14.983333	1	55.125250
15.000000	1	49.886000
15.016667	1	44.583375
15.033333	1	39.398250
15.050000	1	34.473125
15.066667	1	29.910250
15.083333	1	25.772375
15.100000	1	22.090375
15.116667	1	18.863875
15.133333	1	16.072875
15.150000	1	13.684250
15.166667	1	11.661625
15.183333	1	9.960500
15.200000	1	8.537375
15.216667	1	7.352875
15.233333	1	6.372250
15.250000	1	5.563750
15.266667	1	4.901125
15.283333	1	4.359875
15.300000	1	3.921250
15.316667	1	3.567875
15.333333	1	3.285875
15.350000	1	3.063750
15.366667	1	2.891000
15.383333	1	2.759375
15.400000	1	2.660750
15.416667	1	2.588375
15.433333	1	2.536875
15.450000	1	2.499750
15.466667	1	2.472625
15.483333	1	2.450625
15.500000	1	2.430875
15.516667	1	2.410000
15.533333	1	2.386125
15.550000	1	2.357875
15.566667	1	2.325625
15.583333	1	2.289750
15.600000	1	2.250625
15.616667	1	2.211250
15.633333	1	2.170625
15.650000	1	2.131250
15.666667	1	2.094500
15.683333	1	2.059125
15.700000	1	2.026250
15.716667	1	1.995250
15.733333	1	1.965625
15.750000	1	1.937375
15.766667	1	1.909250
15.783333	1	1.880750
15.800000	1	1.851875
15.816667	1	1.822250
15.833333	1	1.792000
15.850000	1	1.761625
15.866667	1	1.732000
15.883333	1	1.703625
15.900000	1	1.677875
15.916667	1	1.654750
15.933333	1	1.634625
15.950000	1	1.617750
15.966667	1	1.604500
15.983333	1	1.594375
16.000000	1	1.586500
16.016667	1	1.582000
16.033333	1	1.578875
16.050000	1	1.575750
16.066667	1	1.573000
16.083333	1	1.568875
16.100000	1	1.562750
16.116667	1	1.556625
16.133333	1	1.548875
16.150000	1	1.538375
16.166667	1	1.526625
16.183333	1	1.513000
16.200000	1	1.498125
16.216667	1	1.482000
16.233333	1	1.464625
16.250000	1	1.446500
16.266667	1	1.427625
16.283333	1	1.408875
16.300000	1	1.390500
16.316667	1	1.372000
16.333333	1	1.354125
16.350000	1	1.337375
16.366667	1	1.321375
16.383333	1	1.306625
16.400000	1	1.293500
16.416667	1	1.283875
16.433333	1	1.275250
16.450000	1	1.269375
16.466667	1	1.266875
16.483333	1	1.266875
16.500000	1	1.268125
16.516667	1	1.271875
16.533333	1	1.276375
16.550000	1	1.281375
16.566667	1	1.286500
16.583333	1	1.291750
16.600000	1	1.295625
16.616667	1	1.298375
16.633333	1	1.299000
16.650000	1	1.298125
16.666667	1	1.295500
16.683333	1	1.292250
16.700000	1	1.287750
16.716667	1	1.282500
16.733333	1	1.278125
16.750000	1	1.274625
16.766667	1	1.271625
16.783333	1	1.269625
16.800000	1	1.269625
16.816667	1	1.271125
16.833333	1	1.273375
16.850000	1	1.276125
16.866667	1	1.279375
16.883333	1	1.281625
16.900000	1	1.282875
16.916667	1	1.282625
16.933333	1	1.281875
16.950000	1	1.279250
16.966667	1	1.275625
16.983333	1	1.270500
17.000000	1	1.264000
17.016667	1	1.256875
17.033333	1	1.249625
17.050000	1	1.241750
17.066667	1	1.234250
17.083333	1	1.226625
17.100000	1	1.220375
17.116667	1	1.214125
17.133333	1	1.209125
17.150000	1	1.205250
17.166667	1	1.201750
17.183333	1	1.200375
17.200000	1	1.199625
17.216667	1	1.199125
17.233333	1	1.199875
17.250000	1	1.201375
17.266667	1	1.203000
17.283333	1	1.206000
17.300000	1	1.209500
17.316667	1	1.213125
17.333333	1	1.216625
17.350000	1	1.221125
17.366667	1	1.225875
17.383333	1	1.230500
17.400000	1	1.234625
17.416667	1	1.238625
17.433333	1	1.241125
17.450000	1	1.242375
17.466667	1	1.242500
17.483333	1	1.240750
17.500000	1	1.237750
17.516667	1	1.233125
17.533333	1	1.227000
17.550000	1	1.219000
17.566667	1	1.209875
17.583333	1	1.198625
17.600000	1	1.186625
17.616667	1	1.173000
17.633333	1	1.159125
17.650000	1	1.144375
17.666667	1	1.129500
17.683333	1	1.114125
17.700000	1	1.098625
17.716667	1	1.083250
17.733333	1	1.068000
17.750000	1	1.053625
17.766667	1	1.039000
17.783333	1	1.025375
17.800000	1	1.011875
17.816667	1	0.999750
17.833333	1	0.988500
17.850000	1	0.977500
17.866667	1	0.966625
17.883333	1	0.956875
17.900000	1	0.947500
17.916667	1	0.938500
17.933333	1	0.930125
17.950000	1	0.921875
17.966667	1	0.913500
17.983333	1	0.905375
18.000000	1	0.898250
18.016667	1	0.890250
18.033333	1	0.882125
18.050000	1	0.874625
18.066667	1	0.867000
18.083333	1	0.859375
18.100000	1	0.852500
18.116667	1	0.846625
18.133333	1	0.840750
18.150000	1	0.836375
18.166667	1	0.832375
18.183333	1	0.829000
18.200000	1	0.827625
18.216667	1	0.826000
18.233333	1	0.825500
18.250000	1	0.825750
18.266667	1	0.826625
18.283333	1	0.827875
18.300000	1	0.829500
18.316667	1	0.831125
18.333333	1	0.834000
18.350000	1	0.836250
18.366667	1	0.839625
18.383333	1	0.843875
18.400000	1	0.848500
18.416667	1	0.854375
18.433333	1	0.861125
18.450000	1	0.869375
18.466667	1	0.877375
18.483333	1	0.888000
18.500000	1	0.900000
18.516667	1	0.914500
18.533333	1	0.931250
18.550000	1	0.949625
18.566667	1	0.970750
18.583333	1	0.992875
18.600000	1	1.016500
18.616667	1	1.042875
18.633333	1	1.070125
18.650000	1	1.099375
18.666667	1	1.130000
18.683333	1	1.161875
18.700000	1	1.195375
18.716667	1	1.229250
18.733333	1	1.264875
18.750000	1	1.300500
18.766667	1	1.335875
18.783333	1	1.372000
18.800000	1	1.407000
18.816667	1	1.440000
18.833333	1	1.471250
18.850000	1	1.499250
18.866667	1	1.523250
18.883333	1	1.541625
18.900000	1	1.555875
18.916667	1	1.564000
18.933333	1	1.565250
18.950000	1	1.559000
18.966667	1	1.546125
18.983333	1	1.526125
19.000000	1	1.499125
19.016667	1	1.465750
19.033333	1	1.427625
19.050000	1	1.386125
19.066667	1	1.341000
19.083333	1	1.293875
19.100000	1	1.247875
19.116667	1	1.203000
19.133333	1	1.162250
19.150000	1	1.126625
19.166667	1	1.097500
19.183333	1	1.077875
19.200000	1	1.069375
19.216667	1	1.073250
19.233333	1	1.091625
19.250000	1	1.127000
19.266667	1	1.179500
19.283333	1	1.251750
19.300000	1	1.344000
19.316667	1	1.456625
19.333333	1	1.590500
19.350000	1	1.742625
19.366667	1	1.911375
19.383333	1	2.093750
19.400000	1	2.286625
19.416667	1	2.484000
19.433333	1	2.679875
19.450000	1	2.869625
19.466667	1	3.045125
19.483333	1	3.200750
19.500000	1	3.332000
19.516667	1	3.433000
19.533333	1	3.501125
19.550000	1	3.534500
19.566667	1	3.531125
19.583333	1	3.493000
19.600000	1	3.422750
19.616667	1	3.322875
19.633333	1	3.197375
19.650000	1	3.051750
19.666667	1	2.891250
19.683333	1	2.720375
19.700000	1	2.544125
19.716667	1	2.367375
19.733333	1	2.193125
19.750000	1	2.023750
19.766667	1	1.862750
19.783333	1	1.711125
19.800000	1	1.570125
19.816667	1	1.440375
19.833333	1	1.322250
19.850000	1	1.214750
19.866667	1	1.118000
19.883333	1	1.032375
19.900000	1	0.956625
19.916667	1	0.888750
19.933333	1	0.829500
19.950000	1	0.778000
19.966667	1	0.733125
19.983333	1	0.694625
20.000000	1	0.662875
20.016667	1	0.636625
20.033333	1	0.616250
20.050000	1	0.600250
20.066667	1	0.588625
20.083333	1	0.581875
20.100000	1	0.579875
20.116667	1	0.581500
20.133333	1	0.586750
20.150000	1	0.594250
20.166667	1	0.605250
20.183333	1	0.618375
20.200000	1	0.632875
20.216667	1	0.648000
20.233333	1	0.663000
20.250000	1	0.677000
20.266667	1	0.689250
20.283333	1	0.699375
20.300000	1	0.707375
20.316667	1	0.712625
20.333333	1	0.715125
20.350000	1	0.713375
20.366667	1	0.709125
20.383333	1	0.701500
20.400000	1	0.690750
20.416667	1	0.678625
20.433333	1	0.664750
20.450000	1	0.649875
20.466667	1	0.635875
20.483333	1	0.623625
20.500000	1	0.612500
20.516667	1	0.604500
20.533333	1	0.599375
20.550000	1	0.599125
20.566667	1	0.604875
20.583333	1	0.616125
20.600000	1	0.634375
20.616667	1	0.660875
20.633333	1	0.694875
20.650000	1	0.738000
20.666667	1	0.789125
20.683333	1	0.849125
20.700000	1	0.916250
20.716667	1	0.990250
20.733333	1	1.069625
20.750000	1	1.153125
20.766667	1	1.239000
20.783333	1	1.323875
20.800000	1	1.405375
20.816667	1	1.481375
20.833333	1	1.549000
20.850000	1	1.605750
20.866667	1	1.649875
20.883333	1	1.680250
20.900000	1	1.696125
20.916667	1	1.696500
20.933333	1	1.682500
20.950000	1	1.653875
20.966667	1	1.610875
20.983333	1	1.558250
21.000000	1	1.495875
21.016667	1	1.427125
21.033333	1	1.353625
21.050000	1	1.278125
21.066667	1	1.202875
21.083333	1	1.127250
21.100000	1	1.054875
21.116667	1	0.985875
21.133333	1	0.921250
21.150000	1	0.860875
21.166667	1	0.804750
21.183333	1	0.755125
21.200000	1	0.710000
21.216667	1	0.669250
21.233333	1	0.633375
21.250000	1	0.600750
21.266667	1	0.572875
21.283333	1	0.548250
21.300000	1	0.527000
21.316667	1	0.509000
21.333333	1	0.493125
21.350000	1	0.478750
21.366667	1	0.466250
21.383333	1	0.456375
21.400000	1	0.447500
21.416667	1	0.439375
21.433333	1	0.432125
21.450000	1	0.426375
21.466667	1	0.421625
21.483333	1	0.417500
21.500000	1	0.413750
21.516667	1	0.410875
21.533333	1	0.408750
21.550000	1	0.407125
21.566667	1	0.407500
21.583333	1	0.408125
21.600000	1	0.409500
21.616667	1	0.412750
21.633333	1	0.416625
21.650000	1	0.422625
21.666667	1	0.429875
21.683333	1	0.438000
21.700000	1	0.448125
21.716667	1	0.459750
21.733333	1	0.473000
21.750000	1	0.487375
21.766667	1	0.503125
21.783333	1	0.520875
21.800000	1	0.538375
21.816667	1	0.556875
21.833333	1	0.575125
21.850000	1	0.593500
21.866667	1	0.611625
21.883333	1	0.628875
21.900000	1	0.645875
21.916667	1	0.660625
21.933333	1	0.674250
21.950000	1	0.685875
21.966667	1	0.695750
21.983333	1	0.704625
22.000000	1	0.711000
22.016667	1	0.715750
22.033333	1	0.717250
22.050000	1	0.717125
22.066667	1	0.715750
22.083333	1	0.712625
22.100000	1	0.708000
22.116667	1	0.701625
22.133333	1	0.694250
22.150000	1	0.685875
22.166667	1	0.675875
22.183333	1	0.665000
22.200000	1	0.653625
22.216667	1	0.640875
22.233333	1	0.627875
22.250000	1	0.614125
22.266667	1	0.599500
22.283333	1	0.584625
22.300000	1	0.569125
22.316667	1	0.553375
22.333333	1	0.537375
22.350000	1	0.521250
22.366667	1	0.505500
22.383333	1	0.490125
22.400000	1	0.474750
22.416667	1	0.460125
22.433333	1	0.445875
22.450000	1	0.432125
22.466667	1	0.419000
22.483333	1	0.407000
22.500000	1	0.394875
22.516667	1	0.384000
22.533333	1	0.374250
22.550000	1	0.365625
22.566667	1	0.357125
22.583333	1	0.347875
22.600000	1	0.339500
22.616667	1	0.332000
22.633333	1	0.324875
22.650000	1	0.318000
22.666667	1	0.312750
22.683333	1	0.307250
22.700000	1	0.300875
22.716667	1	0.295375
22.733333	1	0.290375
22.750000	1	0.285500
22.766667	1	0.281250
22.783333	1	0.277625
22.800000	1	0.273250
22.816667	1	0.269375
22.833333	1	0.266000
22.850000	1	0.262625
22.866667	1	0.260000
22.883333	1	0.257500
22.900000	1	0.255375
22.916667	1	0.253875
22.933333	1	0.252500
22.950000	1	0.251500
22.966667	1	0.250500
22.983333	1	0.251000
23.000000	1	0.251375
23.016667	1	0.251625
23.033333	1	0.252375
23.050000	1	0.253500
23.066667	1	0.255625
23.083333	1	0.257750
23.100000	1	0.259625
23.116667	1	0.263000
23.133333	1	0.266625
23.150000	1	0.269000
23.166667	1	0.271625
23.183333	1	0.274625
23.200000	1	0.277500
23.216667	1	0.281125
23.233333	1	0.285000
23.250000	1	0.289250
23.266667	1	0.295875
23.283333	1	0.303000
23.300000	1	0.311375
23.316667	1	0.321750
23.333333	1	0.335375
23.350000	1	0.352000
23.366667	1	0.374000
23.383333	1	0.401250
23.400000	1	0.434875
23.416667	1	0.476625
23.433333	1	0.527500
23.450000	1	0.589125
23.466667	1	0.664125
23.483333	1	0.754375
23.500000	1	0.860875
23.516667	1	0.986875
23.533333	1	1.133125
23.550000	1	1.301500
23.566667	1	1.493000
23.583333	1	1.707500
23.600000	1	1.945125
23.616667	1	2.204500
23.633333	1	2.485125
23.650000	1	2.782500
23.666667	1	3.093750
23.683333	1	3.414625
23.700000	1	3.738500
23.716667	1	4.060875
23.733333	1	4.374125
23.750000	1	4.671250
23.766667	1	4.946000
23.783333	1	5.190500
23.800000	1	5.400000
23.816667	1	5.569000
23.833333	1	5.694375
23.850000	1	5.772875
23.866667	1	5.803000
23.883333	1	5.786125
23.900000	1	5.723250
23.916667	1	5.617000
23.933333	1	5.470625
23.950000	1	5.288875
23.966667	1	5.077125
23.983333	1	4.841750
24.000000	1	4.587750
24.016667	1	4.321875
24.033333	1	4.049250
24.050000	1	3.774250
24.066667	1	3.502125
24.083333	1	3.235625
24.100000	1	2.977875
24.116667	1	2.731750
24.133333	1	2.498625
24.150000	1	2.280250
24.166667	1	2.076375
24.183333	1	1.888375
24.200000	1	1.714875
24.216667	1	1.556500
24.233333	1	1.412875
24.250000	1	1.282500
24.266667	1	1.165625
24.283333	1	1.061250
24.300000	1	0.967750
24.316667	1	0.884750
24.333333	1	0.811250
24.350000	1	0.746750
24.366667	1	0.690875
24.383333	1	0.642000
24.400000	1	0.600000
24.416667	1	0.563750
24.433333	1	0.533375
24.450000	1	0.508375
24.466667	1	0.486500
24.483333	1	0.468625
24.500000	1	0.455125
24.516667	1	0.443625
24.533333	1	0.433750
24.550000	1	0.425750
24.566667	1	0.420625
24.583333	1	0.415250
24.600000	1	0.411000
24.616667	1	0.406750
24.633333	1	0.403250
24.650000	1	0.400000
24.666667	1	0.396750
24.683333	1	0.393375
24.700000	1	0.389625
24.716667	1	0.386125
24.733333	1	0.382250
24.750000	1	0.377625
24.766667	1	0.373000
24.783333	1	0.368125
24.800000	1	0.363375
24.816667	1	0.359375
24.833333	1	0.354750
24.850000	1	0.351500
24.866667	1	0.347875
24.883333	1	0.344250
24.900000	1	0.341125
24.916667	1	0.337500
24.933333	1	0.335125
24.950000	1	0.331250
24.966667	1	0.328500
24.983333	1	0.326000
25.000000	1	0.323625
25.016667	1	0.322000
25.033333	1	0.320875
25.050000	1	0.319250
25.066667	1	0.317500
25.083333	1	0.316125
25.100000	1	0.315000
25.116667	1	0.313875
25.133333	1	0.313250
25.150000	1	0.311375
25.166667	1	0.309750
25.183333	1	0.307750
25.200000	1	0.307000
25.216667	1	0.305375
25.233333	1	0.304000
25.250000	1	0.302500
25.266667	1	0.301500
25.283333	1	0.299500
25.300000	1	0.298250
25.316667	1	0.296750
25.333333	1	0.295625
25.350000	1	0.294000
25.366667	1	0.293000
25.383333	1	0.291125
25.400000	1	0.290000
25.416667	1	0.288875
25.433333	1	0.288125
25.450000	1	0.287375
25.466667	1	0.286625
25.483333	1	0.286250
25.500000	1	0.286375
25.516667	1	0.286125
25.533333	1	0.285750
25.550000	1	0.285125
25.566667	1	0.285875
25.583333	1	0.285625
25.600000	1	0.285500
25.616667	1	0.285125
25.633333	1	0.284875
25.650000	1	0.284625
25.666667	1	0.283875
25.683333	1	0.283500
25.700000	1	0.283125
25.716667	1	0.283125
25.733333	1	0.282625
25.750000	1	0.282000
25.766667	1	0.281375
25.783333	1	0.280875
25.800000	1	0.279500
25.816667	1	0.279500
25.833333	1	0.278875
25.850000	1	0.278875
25.866667	1	0.278375
25.883333	1	0.277875
25.900000	1	0.277500
25.916667	1	0.278000
25.933333	1	0.278625
25.950000	1	0.279750
25.966667	1	0.281125
25.983333	1	0.282375
26.000000	1	0.285000
26.016667	1	0.287500
26.033333	1	0.290500
26.050000	1	0.293375
26.066667	1	0.297000
26.083333	1	0.300875
26.100000	1	0.304875
26.116667	1	0.309000
26.133333	1	0.313000
26.150000	1	0.317250
26.166667	1	0.321375
26.183333	1	0.325750
26.200000	1	0.329875
26.216667	1	0.333750
26.233333	1	0.338000
26.250000	1	0.341750
26.266667	1	0.345375
26.283333	1	0.347500
26.300000	1	0.348625
26.316667	1	0.350250
26.333333	1	0.351250
26.350000	1	0.351375
26.366667	1	0.351500
26.383333	1	0.350375
26.400000	1	0.348125
26.416667	1	0.345500
26.433333	1	0.342750
26.450000	1	0.339750
26.466667	1	0.335500
26.483333	1	0.330625
26.500000	1	0.325750
26.516667	1	0.320625
26.533333	1	0.314500
26.550000	1	0.308000
26.566667	1	0.301750
26.583333	1	0.295000
26.600000	1	0.288250
26.616667	1	0.281375
26.633333	1	0.274750
26.650000	1	0.268500
26.666667	1	0.262125
26.683333	1	0.256000
26.700000	1	0.250125
26.716667	1	0.245250
26.733333	1	0.240250
26.750000	1	0.235750
26.766667	1	0.231250
26.783333	1	0.226875
26.800000	1	0.221875
26.816667	1	0.218250
26.833333	1	0.215125
26.850000	1	0.212750
26.866667	1	0.211375
26.883333	1	0.210125
26.900000	1	0.208625
26.916667	1	0.208250
26.933333	1	0.208250
26.950000	1	0.208875
26.966667	1	0.210000
26.983333	1	0.211000
27.000000	1	0.212750
27.016667	1	0.215000
27.033333	1	0.218000
27.050000	1	0.221625
27.066667	1	0.226125
27.083333	1	0.231250
27.100000	1	0.236625
27.116667	1	0.243625
27.133333	1	0.251375
27.150000	1	0.260125
27.166667	1	0.270750
27.183333	1	0.282625
27.200000	1	0.296375
27.216667	1	0.311625
27.233333	1	0.330500
27.250000	1	0.352500
27.266667	1	0.378000
27.283333	1	0.406500
27.300000	1	0.439875
27.316667	1	0.478875
27.333333	1	0.523500
27.350000	1	0.574625
27.366667	1	0.633125
27.383333	1	0.700000
27.400000	1	0.775875
27.416667	1	0.861750
27.433333	1	0.958625
27.450000	1	1.066625
27.466667	1	1.187000
27.483333	1	1.319375
27.500000	1	1.465125
27.516667	1	1.623125
27.533333	1	1.793500
27.550000	1	1.975750
27.566667	1	2.167875
27.583333	1	2.369875
27.600000	1	2.579875
27.616667	1	2.794625
27.633333	1	3.013250
27.650000	1	3.233125
27.666667	1	3.450250
27.683333	1	3.661875
27.700000	1	3.865500
27.716667	1	4.056750
27.733333	1	4.232500
27.750000	1	4.389375
27.766667	1	4.524625
27.783333	1	4.635875
27.800000	1	4.720125
27.816667	1	4.776250
27.833333	1	4.803875
27.850000	1	4.801500
27.866667	1	4.769125
27.883333	1	4.708125
27.900000	1	4.618250
27.916667	1	4.503250
27.933333	1	4.364500
27.950000	1	4.204750
27.966667	1	4.028250
27.983333	1	3.837125
28.000000	1	3.635625
28.016667	1	3.426750
28.033333	1	3.213375
28.050000	1	2.998875
28.066667	1	2.786250
28.083333	1	2.577375
28.100000	1	2.375000
28.116667	1	2.180875
28.133333	1	1.996000
28.150000	1	1.822000
28.166667	1	1.659125
28.183333	1	1.508750
28.200000	1	1.369625
28.216667	1	1.243000
28.233333	1	1.127000
28.250000	1	1.021750
28.266667	1	0.927375
28.283333	1	0.843375
28.300000	1	0.768500
28.316667	1	0.703000
28.333333	1	0.645250
28.350000	1	0.595625
28.366667	1	0.553000
28.383333	1	0.517500
28.400000	1	0.487625
28.416667	1	0.463000
28.433333	1	0.443750
28.450000	1	0.428875
28.466667	1	0.418125
28.483333	1	0.411375
28.500000	1	0.407875
28.516667	1	0.407125
28.533333	1	0.408625
28.550000	1	0.412625
28.566667	1	0.418625
28.583333	1	0.427125
28.600000	1	0.437000
28.616667	1	0.447875
28.633333	1	0.459125
28.650000	1	0.471500
28.666667	1	0.484000
28.683333	1	0.495875
28.700000	1	0.508500
28.716667	1	0.520500
28.733333	1	0.532250
28.750000	1	0.543375
28.766667	1	0.554250
28.783333	1	0.564750
28.800000	1	0.574250
28.816667	1	0.581750
28.833333	1	0.588125
28.850000	1	0.594375
28.866667	1	0.599250
28.883333	1	0.603125
28.900000	1	0.604625
28.916667	1	0.605375
28.933333	1	0.604875
28.950000	1	0.603250
28.966667	1	0.599625
28.983333	1	0.595375
29.000000	1	0.590375
29.016667	1	0.583625
29.033333	1	0.574875
29.050000	1	0.565625
29.066667	1	0.554750
29.083333	1	0.544000
29.100000	1	0.532375
29.116667	1	0.520750
29.133333	1	0.507750
29.150000	1	0.494000
29.166667	1	0.479750
29.183333	1	0.464875
29.200000	1	0.450375
29.216667	1	0.435875
29.233333	1	0.420875
29.250000	1	0.405875
29.266667	1	0.390500
29.283333	1	0.375500
29.300000	1	0.360750
29.316667	1	0.346625
29.333333	1	0.332750
29.350000	1	0.319000
29.366667	1	0.305750
29.383333	1	0.292625
29.400000	1	0.279750
29.416667	1	0.267375
29.433333	1	0.255875
29.450000	1	0.244750
29.466667	1	0.234750
29.483333	1	0.224750
29.500000	1	0.215125
29.516667	1	0.205250
29.533333	1	0.196000
29.550000	1	0.187500
29.566667	1	0.180250
29.583333	1	0.172000
29.600000	1	0.165250
29.616667	1	0.158875
29.633333	1	0.153250
29.650000	1	0.147500
29.666667	1	0.142500
29.683333	1	0.137875
29.700000	1	0.133375
29.716667	1	0.129000
29.733333	1	0.124750
29.750000	1	0.121625
29.766667	1	0.118375
29.783333	1	0.115500
29.800000	1	0.113500
29.816667	1	0.111875
29.833333	1	0.110125
29.850000	1	0.109000
29.866667	1	0.107750
29.883333	1	0.106250
29.900000	1	0.105500
29.916667	1	0.105125
29.933333	1	0.103875
29.950000	1	0.103375
29.966667	1	0.103125
29.983333	1	0.102625
30.000000	1	0.102750
30.016667	1	0.103125
30.033333	1	0.104000
30.050000	1	0.104000
30.066667	1	0.104875
30.083333	1	0.105500
30.100000	1	0.105875
30.116667	1	0.106375
30.133333	1	0.106750
30.150000	1	0.107375
30.166667	1	0.107875
30.183333	1	0.108875
30.200000	1	0.110000
30.216667	1	0.110625
30.233333	1	0.112125
30.250000	1	0.113250
30.266667	1	0.114250
30.283333	1	0.115000
30.300000	1	0.116375
30.316667	1	0.117250
30.333333	1	0.118500
30.350000	1	0.119875
30.366667	1	0.121875
30.383333	1	0.123750
30.400000	1	0.125625
30.416667	1	0.127875
30.433333	1	0.130250
30.450000	1	0.133125
30.466667	1	0.135875
30.483333	1	0.138750
30.500000	1	0.142750
30.516667	1	0.146250
30.533333	1	0.150625
30.550000	1	0.155125
30.566667	1	0.160375
30.583333	1	0.165625
30.600000	1	0.171000
30.616667	1	0.176875
30.633333	1	0.183125
30.650000	1	0.190500
30.666667	1	0.198250
30.683333	1	0.205750
30.700000	1	0.214500
30.716667	1	0.223250
30.733333	1	0.232375
30.750000	1	0.242250
30.766667	1	0.253750
30.783333	1	0.265125
30.800000	1	0.277000
30.816667	1	0.290125
30.833333	1	0.304375
30.850000	1	0.319375
30.866667	1	0.335250
30.883333	1	0.352250
30.900000	1	0.371750
30.916667	1	0.392500
30.933333	1	0.415375
30.950000	1	0.441500
30.966667	1	0.470500
30.983333	1	0.502625
31.000000	1	0.540625
31.016667	1	0.581375
31.033333	1	0.628750
31.050000	1	0.682000
31.066667	1	0.741375
31.083333	1	0.809000
31.100000	1	0.885125
31.116667	1	0.970125
31.133333	1	1.064375
31.150000	1	1.168250
31.166667	1	1.283875
31.183333	1	1.410750
31.200000	1	1.549375
31.216667	1	1.699250
31.233333	1	1.860750
31.250000	1	2.033250
31.266667	1	2.215625
31.283333	1	2.407750
31.300000	1	2.608125
31.316667	1	2.814625
31.333333	1	3.026125
31.350000	1	3.241125
31.366667	1	3.457750
31.383333	1	3.672375
31.400000	1	3.883875
31.416667	1	4.089125
31.433333	1	4.285500
31.450000	1	4.470000
31.466667	1	4.640125
31.483333	1	4.793500
31.500000	1	4.928375
31.516667	1	5.042875
31.533333	1	5.135375
31.550000	1	5.205000
31.566667	1	5.249875
31.583333	1	5.270500
31.600000	1	5.267000
31.616667	1	5.239250
31.633333	1	5.188375
31.650000	1	5.115250
31.666667	1	5.021125
31.683333	1	4.907125
31.700000	1	4.776000
31.716667	1	4.629750
31.733333	1	4.470625
31.750000	1	4.300500
31.766667	1	4.121500
31.783333	1	3.935250
31.800000	1	3.745125
31.816667	1	3.552750
31.833333	1	3.359250
31.850000	1	3.167000
31.866667	1	2.977125
31.883333	1	2.790375
31.900000	1	2.610125
31.916667	1	2.436500
31.933333	1	2.269625
31.950000	1	2.110125
31.966667	1	1.958625
31.983333	1	1.815250
32.000000	1	1.679500
32.016667	1	1.551625
32.033333	1	1.431625
32.050000	1	1.320125
32.066667	1	1.216000
32.083333	1	1.119750
32.100000	1	1.030625
32.116667	1	0.948250
32.133333	1	0.872500
32.150000	1	0.802125
32.166667	1	0.737250
32.183333	1	0.677375
32.200000	1	0.622250
32.216667	1	0.571500
32.233333	1	0.525250
32.250000	1	0.483125
32.266667	1	0.444625
32.283333	1	0.409125
32.300000	1	0.376375
32.316667	1	0.346375
32.333333	1	0.319500
32.350000	1	0.294750
32.366667	1	0.272250
32.383333	1	0.251375
32.400000	1	0.233000
32.416667	1	0.216000
32.433333	1	0.200125
32.450000	1	0.186125
32.466667	1	0.173875
32.483333	1	0.163375
32.500000	1	0.153000
32.516667	1	0.143875
32.533333	1	0.135250
32.550000	1	0.128125
32.566667	1	0.120875
32.583333	1	0.114000
32.600000	1	0.107875
32.616667	1	0.102625
32.633333	1	0.098000
32.650000	1	0.093500
32.666667	1	0.089125
32.683333	1	0.085250
32.700000	1	0.081250
32.716667	1	0.078000
32.733333	1	0.075000
32.750000	1	0.071125
32.766667	1	0.067250
32.783333	1	0.064625
32.800000	1	0.061875
32.816667	1	0.058875
32.833333	1	0.056000
32.850000	1	0.053875
32.866667	1	0.050875
32.883333	1	0.048750
32.900000	1	0.046375
32.916667	1	0.044500
32.933333	1	0.042125
32.950000	1	0.039875
32.966667	1	0.037625
32.983333	1	0.035875
33.000000	1	0.033250
33.016667	1	0.031375
33.033333	1	0.029250
33.050000	1	0.028125
33.066667	1	0.026500
33.083333	1	0.025125
33.100000	1	0.023625
33.116667	1	0.022500
33.133333	1	0.021625
33.150000	1	0.021125
33.166667	1	0.020250
33.183333	1	0.018875
33.200000	1	0.018000
33.216667	1	0.017250
33.233333	1	0.016000
33.250000	1	0.015875
33.266667	1	0.016000
33.283333	1	0.015500
33.300000	1	0.016125
33.316667	1	0.016000
33.333333	1	0.016125
33.350000	1	0.016125
33.366667	1	0.016875
33.383333	1	0.017625
33.400000	1	0.018250
33.416667	1	0.018750
33.433333	1	0.019375
33.450000	1	0.019625
33.466667	1	0.020625
33.483333	1	0.021000
33.500000	1	0.021500
33.516667	1	0.022750
33.533333	1	0.024000
33.550000	1	0.025000
33.566667	1	0.026375
33.583333	1	0.027750
33.600000	1	0.028625
33.616667	1	0.029875
33.633333	1	0.031500
33.650000	1	0.032750
33.666667	1	0.034125
33.683333	1	0.035000
33.700000	1	0.036500
33.716667	1	0.038000
33.733333	1	0.040375
33.750000	1	0.042625
33.766667	1	0.044375
33.783333	1	0.047000
33.800000	1	0.049375
33.816667	1	0.051750
33.833333	1	0.054125
33.850000	1	0.057500
33.866667	1	0.060250
33.883333	1	0.062375
33.900000	1	0.064875
33.916667	1	0.067250
33.933333	1	0.070375
33.950000	1	0.073125
33.966667	1	0.075125
33.983333	1	0.077250
34.000000	1	0.079375
34.016667	1	0.082125
34.033333	1	0.084750
34.050000	1	0.086875
34.066667	1	0.088625
34.083333	1	0.090875
34.100000	1	0.092125
34.116667	1	0.093125
34.133333	1	0.094250
34.150000	1	0.095875
34.166667	1	0.096750
34.183333	1	0.096875
34.200000	1	0.097125
34.216667	1	0.097500
34.233333	1	0.097250
34.250000	1	0.097500
34.266667	1	0.097125
34.283333	1	0.096875
34.300000	1	0.096500
34.316667	1	0.096000
34.333333	1	0.096375
34.350000	1	0.096500
34.366667	1	0.096250
34.383333	1	0.096625
34.400000	1	0.096125
34.416667	1	0.096000
34.433333	1	0.096750
34.450000	1	0.097250
34.466667	1	0.098125
34.483333	1	0.098750
34.500000	1	0.099125
34.516667	1	0.101000
34.533333	1	0.102500
34.550000	1	0.103500
34.566667	1	0.105375
34.583333	1	0.107375
34.600000	1	0.109500
34.616667	1	0.111125
34.633333	1	0.112375
34.650000	1	0.114500
34.666667	1	0.116250
34.683333	1	0.118000
34.700000	1	0.120500
34.716667	1	0.122250
34.733333	1	0.124125
34.750000	1	0.125375
34.766667	1	0.127000
34.783333	1	0.128625
34.800000	1	0.130375
34.816667	1	0.131125
34.833333	1	0.132125
34.850000	1	0.132750
34.866667	1	0.133000
34.883333	1	0.133000
34.900000	1	0.133000
34.916667	1	0.132875
34.933333	1	0.133125
34.950000	1	0.132750
34.966667	1	0.132250
34.983333	1	0.130625
35.000000	1	0.130125
35.016667	1	0.128875
35.033333	1	0.128250
35.050000	1	0.126875
35.066667	1	0.126125
35.083333	1	0.124625
35.100000	1	0.123375
35.116667	1	0.122250
35.133333	1	0.121375
35.150000	1	0.119750
35.166667	1	0.118750
35.183333	1	0.118250
35.200000	1	0.117625
35.216667	1	0.116750
35.233333	1	0.115875
35.250000	1	0.115000
35.266667	1	0.114875
35.283333	1	0.115625
35.300000	1	0.115625
35.316667	1	0.115500
35.333333	1	0.115750
35.350000	1	0.115500
35.366667	1	0.115500
35.383333	1	0.116125
35.400000	1	0.116250
35.416667	1	0.117000
35.433333	1	0.117750
35.450000	1	0.118250
35.466667	1	0.119375
35.483333	1	0.120375
35.500000	1	0.121000
35.516667	1	0.121875
35.533333	1	0.122625
35.550000	1	0.123500
35.566667	1	0.124250
35.583333	1	0.124750
35.600000	1	0.125500
35.616667	1	0.125625
35.633333	1	0.126500
35.650000	1	0.127250
35.666667	1	0.127375
35.683333	1	0.127250
35.700000	1	0.127250
35.716667	1	0.127500
35.733333	1	0.127250
35.750000	1	0.127000
35.766667	1	0.127000
35.783333	1	0.126375
35.800000	1	0.125125
35.816667	1	0.124500
35.833333	1	0.123875
35.850000	1	0.123750
35.866667	1	0.123250
35.883333	1	0.122000
35.900000	1	0.120375
35.916667	1	0.118500
35.933333	1	0.117500
35.950000	1	0.115875
35.966667	1	0.114625
35.983333	1	0.113250
36.000000	1	0.111750
36.016667	1	0.110250
36.033333	1	0.108875
36.050000	1	0.107125
36.066667	1	0.104625
36.083333	1	0.102500
36.100000	1	0.101125
36.116667	1	0.099625
36.133333	1	0.098375
36.150000	1	0.097125
36.166667	1	0.096875
36.183333	1	0.096500
36.200000	1	0.094875
36.216667	1	0.093875
36.233333	1	0.093250
36.250000	1	0.092500
36.266667	1	0.092375
36.283333	1	0.092125
36.300000	1	0.091375
36.316667	1	0.091625
36.333333	1	0.091625
36.350000	1	0.091500
36.366667	1	0.091125
36.383333	1	0.091375
36.400000	1	0.092000
36.416667	1	0.091750
36.433333	1	0.091375
36.450000	1	0.091375
36.466667	1	0.091750
36.483333	1	0.091750
36.500000	1	0.091875
36.516667	1	0.091250
36.533333	1	0.091000
36.550000	1	0.091000
36.566667	1	0.091125
36.583333	1	0.090000
36.600000	1	0.089250
36.616667	1	0.088375
36.633333	1	0.087250
36.650000	1	0.084500
36.666667	1	0.081375
36.683333	1	0.079625
36.700000	1	0.076750
36.716667	1	0.074875
36.733333	1	0.071500
36.750000	1	0.068500
36.766667	1	0.065750
36.783333	1	0.062375
36.800000	1	0.059250
36.816667	1	0.055500
36.833333	1	0.051375
36.850000	1	0.046875
36.866667	1	0.041875
36.883333	1	0.037875
36.900000	1	0.033125
36.916667	1	0.028875
36.933333	1	0.024250
36.950000	1	0.020000
36.966667	1	0.015250
36.983333	1	0.010875
37.000000	1	0.007125
37.016667	1	0.002500
37.033333	1	-0.001000
37.050000	1	-0.004250
37.066667	1	-0.007250
37.083333	1	-0.010125
37.100000	1	-0.012125
37.116667	1	-0.014625
37.133333	1	-0.016625
37.150000	1	-0.018625
37.166667	1	-0.019500
37.183333	1	-0.020625
37.200000	1	-0.020875
37.216667	1	-0.021500
37.233333	1	-0.021375
37.250000	1	-0.021000
37.266667	1	-0.020375
37.283333	1	-0.019250
37.300000	1	-0.017500
37.316667	1	-0.016375
37.333333	1	-0.014250
37.350000	1	-0.012750
37.366667	1	-0.011000
37.383333	1	-0.008375
37.400000	1	-0.006875
37.416667	1	-0.004500
37.433333	1	-0.002250
37.450000	1	0.000250
37.466667	1	0.001625
37.483333	1	0.003250
37.500000	1	0.004625
37.516667	1	0.006375
37.533333	1	0.008375
37.550000	1	0.010000
37.566667	1	0.011875
37.583333	1	0.012875
37.600000	1	0.013625
37.616667	1	0.014375
37.633333	1	0.015250
37.650000	1	0.015750
37.666667	1	0.017125
37.683333	1	0.018750
37.700000	1	0.020125
37.716667	1	0.020125
37.733333	1	0.020375
37.750000	1	0.021125
37.766667	1	0.021375
37.783333	1	0.021500
37.800000	1	0.021625
37.816667	1	0.021500
37.833333	1	0.021375
37.850000	1	0.021750
37.866667	1	0.022625
37.883333	1	0.023250
37.900000	1	0.023750
37.916667	1	0.023750
37.933333	1	0.024125
37.950000	1	0.024750
37.966667	1	0.025000
37.983333	1	0.025250
38.000000	1	0.025375
38.016667	1	0.026125
38.033333	1	0.026750
38.050000	1	0.027625
38.066667	1	0.028250
38.083333	1	0.029250
38.100000	1	0.029875
38.116667	1	0.031250
38.133333	1	0.032375
38.150000	1	0.034125
38.166667	1	0.035125
38.183333	1	0.036250
38.200000	1	0.038250
38.216667	1	0.038750
38.233333	1	0.039625
38.250000	1	0.040750
38.266667	1	0.042000
38.283333	1	0.043125
38.300000	1	0.044250
38.316667	1	0.045125
38.333333	1	0.046375
38.350000	1	0.047500
38.366667	1	0.048125
38.383333	1	0.049125
38.400000	1	0.049375
38.416667	1	0.050125
38.433333	1	0.051250
38.450000	1	0.052250
38.466667	1	0.053125
38.483333	1	0.054125
38.500000	1	0.055000
38.516667	1	0.055875
38.533333	1	0.056250
38.550000	1	0.056750
38.566667	1	0.057500
38.583333	1	0.058375
38.600000	1	0.059500
38.616667	1	0.059750
38.633333	1	0.060500
38.650000	1	0.059875
38.666667	1	0.061125
38.683333	1	0.062000
38.700000	1	0.062750
38.716667	1	0.063125
38.733333	1	0.064000
38.750000	1	0.064750
38.766667	1	0.065250
38.783333	1	0.066625
38.800000	1	0.067500
38.816667	1	0.067875
38.833333	1	0.068000
38.850000	1	0.068125
38.866667	1	0.069125
38.883333	1	0.069500
38.900000	1	0.069750
38.916667	1	0.070375
38.933333	1	0.070375
38.950000	1	0.070625
38.966667	1	0.071625
38.983333	1	0.071625
39.000000	1	0.070875
39.016667	1	0.070875
39.033333	1	0.070750
39.050000	1	0.070000
39.066667	1	0.070000
39.083333	1	0.069375
39.100000	1	0.068875
39.116667	1	0.068000
39.133333	1	0.066750
39.150000	1	0.065375
39.166667	1	0.063875
39.183333	1	0.061750
39.200000	1	0.060000
39.216667	1	0.057875
39.233333	1	0.055250
39.250000	1	0.053000
39.266667	1	0.051625
39.283333	1	0.048875
39.300000	1	0.045875
39.316667	1	0.043125
39.333333	1	0.040500
39.350000	1	0.036875
39.366667	1	0.034375
39.383333	1	0.030875
39.400000	1	0.028250
39.416667	1	0.024500
39.433333	1	0.022000
39.450000	1	0.018750
39.466667	1	0.016250
39.483333	1	0.012750
39.500000	1	0.010250
39.516667	1	0.006875
39.533333	1	0.003375
39.550000	1	0.001375
39.566667	1	-0.000375
39.583333	1	-0.002875
39.600000	1	-0.006125
39.616667	1	-0.007875
39.633333	1	-0.009875
39.650000	1	-0.011500
39.666667	1	-0.013375
39.683333	1	-0.014875
39.700000	1	-0.016375
39.716667	1	-0.017875
39.733333	1	-0.018375
39.750000	1	-0.019375
39.766667	1	-0.020000
39.783333	1	-0.020375
39.800000	1	-0.021500
39.816667	1	-0.021625
39.833333	1	-0.021500
39.850000	1	-0.021500
39.866667	1	-0.022000
39.883333	1	-0.022125
39.900000	1	-0.022500
39.916667	1	-0.023375
39.933333	1	-0.023250
39.950000	1	-0.023250
39.966667	1	-0.023750
39.983333	1	-0.023625
40.000000	1	-0.023500
