File Path	chrom://marshall/Chromeleon7/HPLC_Ultimate_3000/Users/markusar/20230107.seq/723.smp/RI_1.channel/RI_1.chm
Channel	RI_1

Injection Information:
Data Vault	Chromeleon7
Injection	ri1.4
Injection Number	13
Position	RB5
Comment	
Processing Method	
Instrument Method	std_method
Type	Unknown
Status	Finished
Injection Date	08.01.2023
Injection Time	00:05:43
Injection Volume (µl)	20.000
Dilution Factor	1.0000
Weight	1.0000

Chromatogram Data Information:
Time Min. (min)	0.000000
Time Max. (min)	40.000000
Data Points	2401
Detector	RI
Generating Data System	Chromeleon 7.2.5.9507
Exporting Data System	Chromeleon 7.2.5.0
Operator	Instrument Controller
Signal Quantity	Refractive 
Signal Unit	µRIU
Signal Min.	-0.046750
Signal Max.	110.391375
Channel	RI_1
Driver Name	RID520Driver.dll
Channel Type	Evaluation
Min. Step (s)	1
Max. Step (s)	1
Average Step (s)	1

Signal Parameter Information:
Signal Info	

Chromatogram Data:
Time (min)	Step (s)	Value (µRIU)
0.000000	n.a.	0.156250
0.016667	1	0.158125
0.033333	1	0.160750
0.050000	1	0.163125
0.066667	1	0.165750
0.083333	1	0.168000
0.100000	1	0.170125
0.116667	1	0.172375
0.133333	1	0.173750
0.150000	1	0.175125
0.166667	1	0.176625
0.183333	1	0.177375
0.200000	1	0.178625
0.216667	1	0.179750
0.233333	1	0.180750
0.250000	1	0.181500
0.266667	1	0.181500
0.283333	1	0.182500
0.300000	1	0.183125
0.316667	1	0.183500
0.333333	1	0.183750
0.350000	1	0.184375
0.366667	1	0.184125
0.383333	1	0.184375
0.400000	1	0.184000
0.416667	1	0.183875
0.433333	1	0.183125
0.450000	1	0.183250
0.466667	1	0.182250
0.483333	1	0.181125
0.500000	1	0.180250
0.516667	1	0.178375
0.533333	1	0.177500
0.550000	1	0.176250
0.566667	1	0.175750
0.583333	1	0.174375
0.600000	1	0.174125
0.616667	1	0.173375
0.633333	1	0.173000
0.650000	1	0.171875
0.666667	1	0.170500
0.683333	1	0.169750
0.700000	1	0.168750
0.716667	1	0.167000
0.733333	1	0.165500
0.750000	1	0.163000
0.766667	1	0.160500
0.783333	1	0.157500
0.800000	1	0.154750
0.816667	1	0.152125
0.833333	1	0.149000
0.850000	1	0.145250
0.866667	1	0.142625
0.883333	1	0.140250
0.900000	1	0.137125
0.916667	1	0.134500
0.933333	1	0.131500
0.950000	1	0.129000
0.966667	1	0.126375
0.983333	1	0.123625
1.000000	1	0.122125
1.016667	1	0.119750
1.033333	1	0.117000
1.050000	1	0.114125
1.066667	1	0.112000
1.083333	1	0.110000
1.100000	1	0.107375
1.116667	1	0.105375
1.133333	1	0.103250
1.150000	1	0.100750
1.166667	1	0.098500
1.183333	1	0.096500
1.200000	1	0.094500
1.216667	1	0.091750
1.233333	1	0.089500
1.250000	1	0.086625
1.266667	1	0.084250
1.283333	1	0.081375
1.300000	1	0.080000
1.316667	1	0.077625
1.333333	1	0.075125
1.350000	1	0.072375
1.366667	1	0.069875
1.383333	1	0.067500
1.400000	1	0.064500
1.416667	1	0.061500
1.433333	1	0.058750
1.450000	1	0.056250
1.466667	1	0.053875
1.483333	1	0.050875
1.500000	1	0.048375
1.516667	1	0.046000
1.533333	1	0.043000
1.550000	1	0.040250
1.566667	1	0.037375
1.583333	1	0.034750
1.600000	1	0.032375
1.616667	1	0.029625
1.633333	1	0.027000
1.650000	1	0.024625
1.666667	1	0.022125
1.683333	1	0.019500
1.700000	1	0.017125
1.716667	1	0.014750
1.733333	1	0.011625
1.750000	1	0.009500
1.766667	1	0.006375
1.783333	1	0.004125
1.800000	1	0.002250
1.816667	1	0.000125
1.833333	1	-0.002125
1.850000	1	-0.004125
1.866667	1	-0.005625
1.883333	1	-0.007125
1.900000	1	-0.009500
1.916667	1	-0.011875
1.933333	1	-0.013500
1.950000	1	-0.015875
1.966667	1	-0.017250
1.983333	1	-0.019375
2.000000	1	-0.021250
2.016667	1	-0.022750
2.033333	1	-0.023625
2.050000	1	-0.025125
2.066667	1	-0.026625
2.083333	1	-0.027750
2.100000	1	-0.028750
2.116667	1	-0.030375
2.133333	1	-0.031000
2.150000	1	-0.032375
2.166667	1	-0.034000
2.183333	1	-0.035125
2.200000	1	-0.035500
2.216667	1	-0.036625
2.233333	1	-0.038000
2.250000	1	-0.039000
2.266667	1	-0.040125
2.283333	1	-0.041250
2.300000	1	-0.041500
2.316667	1	-0.041625
2.333333	1	-0.042375
2.350000	1	-0.042625
2.366667	1	-0.044000
2.383333	1	-0.044750
2.400000	1	-0.044875
2.416667	1	-0.045125
2.433333	1	-0.045625
2.450000	1	-0.045750
2.466667	1	-0.045750
2.483333	1	-0.045500
2.500000	1	-0.046125
2.516667	1	-0.046750
2.533333	1	-0.046500
2.550000	1	-0.046625
2.566667	1	-0.046375
2.583333	1	-0.046375
2.600000	1	-0.045875
2.616667	1	-0.046000
2.633333	1	-0.045250
2.650000	1	-0.046125
2.666667	1	-0.045875
2.683333	1	-0.045375
2.700000	1	-0.044625
2.716667	1	-0.044625
2.733333	1	-0.044375
2.750000	1	-0.043875
2.766667	1	-0.043625
2.783333	1	-0.042875
2.800000	1	-0.042375
2.816667	1	-0.042000
2.833333	1	-0.041000
2.850000	1	-0.040500
2.866667	1	-0.039750
2.883333	1	-0.039500
2.900000	1	-0.039250
2.916667	1	-0.038500
2.933333	1	-0.038375
2.950000	1	-0.037750
2.966667	1	-0.037000
2.983333	1	-0.037000
3.000000	1	-0.036500
3.016667	1	-0.035500
3.033333	1	-0.034875
3.050000	1	-0.034000
3.066667	1	-0.032875
3.083333	1	-0.031625
3.100000	1	-0.030750
3.116667	1	-0.030125
3.133333	1	-0.029000
3.150000	1	-0.027750
3.166667	1	-0.026500
3.183333	1	-0.025750
3.200000	1	-0.024625
3.216667	1	-0.023000
3.233333	1	-0.021625
3.250000	1	-0.020125
3.266667	1	-0.018875
3.283333	1	-0.017875
3.300000	1	-0.016250
3.316667	1	-0.014375
3.333333	1	-0.012625
3.350000	1	-0.011125
3.366667	1	-0.009625
3.383333	1	-0.008375
3.400000	1	-0.006750
3.416667	1	-0.005750
3.433333	1	-0.004125
3.450000	1	-0.002500
3.466667	1	-0.001375
3.483333	1	0.000000
3.500000	1	0.002000
3.516667	1	0.003125
3.533333	1	0.004750
3.550000	1	0.005500
3.566667	1	0.007500
3.583333	1	0.009000
3.600000	1	0.010375
3.616667	1	0.011625
3.633333	1	0.013125
3.650000	1	0.014750
3.666667	1	0.016000
3.683333	1	0.017375
3.700000	1	0.018750
3.716667	1	0.019750
3.733333	1	0.021250
3.750000	1	0.022875
3.766667	1	0.024125
3.783333	1	0.025500
3.800000	1	0.028000
3.816667	1	0.029750
3.833333	1	0.030750
3.850000	1	0.032750
3.866667	1	0.033750
3.883333	1	0.034375
3.900000	1	0.035875
3.916667	1	0.037375
3.933333	1	0.038375
3.950000	1	0.039625
3.966667	1	0.040875
3.983333	1	0.041250
4.000000	1	0.042500
4.016667	1	0.042875
4.033333	1	0.044000
4.050000	1	0.044625
4.066667	1	0.045250
4.083333	1	0.046000
4.100000	1	0.046250
4.116667	1	0.046500
4.133333	1	0.046875
4.150000	1	0.047375
4.166667	1	0.047250
4.183333	1	0.048000
4.200000	1	0.047375
4.216667	1	0.047125
4.233333	1	0.047625
4.250000	1	0.047625
4.266667	1	0.047750
4.283333	1	0.047750
4.300000	1	0.048375
4.316667	1	0.048375
4.333333	1	0.048500
4.350000	1	0.047375
4.366667	1	0.047125
4.383333	1	0.047000
4.400000	1	0.046875
4.416667	1	0.046375
4.433333	1	0.045875
4.450000	1	0.045750
4.466667	1	0.046250
4.483333	1	0.045875
4.500000	1	0.045375
4.516667	1	0.045250
4.533333	1	0.044250
4.550000	1	0.043500
4.566667	1	0.042750
4.583333	1	0.042000
4.600000	1	0.041375
4.616667	1	0.041250
4.633333	1	0.040375
4.650000	1	0.040000
4.666667	1	0.039750
4.683333	1	0.039375
4.700000	1	0.039000
4.716667	1	0.038500
4.733333	1	0.037625
4.750000	1	0.036875
4.766667	1	0.036250
4.783333	1	0.035875
4.800000	1	0.034875
4.816667	1	0.034875
4.833333	1	0.034500
4.850000	1	0.034375
4.866667	1	0.034500
4.883333	1	0.033125
4.900000	1	0.033000
4.916667	1	0.032250
4.933333	1	0.031500
4.950000	1	0.030875
4.966667	1	0.031250
4.983333	1	0.030750
5.000000	1	0.029750
5.016667	1	0.028750
5.033333	1	0.028000
5.050000	1	0.027750
5.066667	1	0.028000
5.083333	1	0.027500
5.100000	1	0.027125
5.116667	1	0.027000
5.133333	1	0.026500
5.150000	1	0.026500
5.166667	1	0.026000
5.183333	1	0.026125
5.200000	1	0.026000
5.216667	1	0.026250
5.233333	1	0.026625
5.250000	1	0.026250
5.266667	1	0.026375
5.283333	1	0.026375
5.300000	1	0.027000
5.316667	1	0.027750
5.333333	1	0.028750
5.350000	1	0.029875
5.366667	1	0.031250
5.383333	1	0.032000
5.400000	1	0.032750
5.416667	1	0.033625
5.433333	1	0.035125
5.450000	1	0.036000
5.466667	1	0.037500
5.483333	1	0.038625
5.500000	1	0.040125
5.516667	1	0.041375
5.533333	1	0.042875
5.550000	1	0.044500
5.566667	1	0.045875
5.583333	1	0.047375
5.600000	1	0.049875
5.616667	1	0.051750
5.633333	1	0.053625
5.650000	1	0.055375
5.666667	1	0.057000
5.683333	1	0.058000
5.700000	1	0.059500
5.716667	1	0.061375
5.733333	1	0.063500
5.750000	1	0.065375
5.766667	1	0.067125
5.783333	1	0.069000
5.800000	1	0.071375
5.816667	1	0.073125
5.833333	1	0.075625
5.850000	1	0.077125
5.866667	1	0.079250
5.883333	1	0.082000
5.900000	1	0.084000
5.916667	1	0.086250
5.933333	1	0.087625
5.950000	1	0.089000
5.966667	1	0.091000
5.983333	1	0.092750
6.000000	1	0.095000
6.016667	1	0.097000
6.033333	1	0.099125
6.050000	1	0.101250
6.066667	1	0.103125
6.083333	1	0.105250
6.100000	1	0.107250
6.116667	1	0.108625
6.133333	1	0.110625
6.150000	1	0.112625
6.166667	1	0.114750
6.183333	1	0.116500
6.200000	1	0.118625
6.216667	1	0.120250
6.233333	1	0.122250
6.250000	1	0.124375
6.266667	1	0.126000
6.283333	1	0.127000
6.300000	1	0.128625
6.316667	1	0.131000
6.333333	1	0.132875
6.350000	1	0.134875
6.366667	1	0.136000
6.383333	1	0.137500
6.400000	1	0.139125
6.416667	1	0.141000
6.433333	1	0.143000
6.450000	1	0.144125
6.466667	1	0.145750
6.483333	1	0.146625
6.500000	1	0.147250
6.516667	1	0.148250
6.533333	1	0.149250
6.550000	1	0.149625
6.566667	1	0.150250
6.583333	1	0.151500
6.600000	1	0.152000
6.616667	1	0.152875
6.633333	1	0.153750
6.650000	1	0.154750
6.666667	1	0.155125
6.683333	1	0.155375
6.700000	1	0.156625
6.716667	1	0.157875
6.733333	1	0.158500
6.750000	1	0.159250
6.766667	1	0.159875
6.783333	1	0.160375
6.800000	1	0.160375
6.816667	1	0.160125
6.833333	1	0.161000
6.850000	1	0.161375
6.866667	1	0.161875
6.883333	1	0.162625
6.900000	1	0.163125
6.916667	1	0.163500
6.933333	1	0.164375
6.950000	1	0.164750
6.966667	1	0.165125
6.983333	1	0.165625
7.000000	1	0.166125
7.016667	1	0.167000
7.033333	1	0.168125
7.050000	1	0.168875
7.066667	1	0.170000
7.083333	1	0.171125
7.100000	1	0.172250
7.116667	1	0.173625
7.133333	1	0.175000
7.150000	1	0.175750
7.166667	1	0.177125
7.183333	1	0.178500
7.200000	1	0.180000
7.216667	1	0.181000
7.233333	1	0.182125
7.250000	1	0.183625
7.266667	1	0.184875
7.283333	1	0.186625
7.300000	1	0.187750
7.316667	1	0.189625
7.333333	1	0.190875
7.350000	1	0.192000
7.366667	1	0.193000
7.383333	1	0.194250
7.400000	1	0.195875
7.416667	1	0.196750
7.433333	1	0.197375
7.450000	1	0.199250
7.466667	1	0.199875
7.483333	1	0.200750
7.500000	1	0.201750
7.516667	1	0.202500
7.533333	1	0.203250
7.550000	1	0.204750
7.566667	1	0.205375
7.583333	1	0.205875
7.600000	1	0.206000
7.616667	1	0.207000
7.633333	1	0.207125
7.650000	1	0.207875
7.666667	1	0.207875
7.683333	1	0.207750
7.700000	1	0.208250
7.716667	1	0.208000
7.733333	1	0.208000
7.750000	1	0.207500
7.766667	1	0.207375
7.783333	1	0.207625
7.800000	1	0.207250
7.816667	1	0.207250
7.833333	1	0.207250
7.850000	1	0.205875
7.866667	1	0.205125
7.883333	1	0.204875
7.900000	1	0.204250
7.916667	1	0.203625
7.933333	1	0.202500
7.950000	1	0.202000
7.966667	1	0.201500
7.983333	1	0.200375
8.000000	1	0.199625
8.016667	1	0.198375
8.033333	1	0.197250
8.050000	1	0.195875
8.066667	1	0.194625
8.083333	1	0.193500
8.100000	1	0.192125
8.116667	1	0.190250
8.133333	1	0.189000
8.150000	1	0.187625
8.166667	1	0.185875
8.183333	1	0.184625
8.200000	1	0.182375
8.216667	1	0.180250
8.233333	1	0.178625
8.250000	1	0.176625
8.266667	1	0.174375
8.283333	1	0.171875
8.300000	1	0.170250
8.316667	1	0.168250
8.333333	1	0.166375
8.350000	1	0.164250
8.366667	1	0.162125
8.383333	1	0.160000
8.400000	1	0.158125
8.416667	1	0.155625
8.433333	1	0.153375
8.450000	1	0.150625
8.466667	1	0.149000
8.483333	1	0.146875
8.500000	1	0.144625
8.516667	1	0.142500
8.533333	1	0.140875
8.550000	1	0.139125
8.566667	1	0.137625
8.583333	1	0.135250
8.600000	1	0.133750
8.616667	1	0.132375
8.633333	1	0.130250
8.650000	1	0.128750
8.666667	1	0.127000
8.683333	1	0.126375
8.700000	1	0.125625
8.716667	1	0.124875
8.733333	1	0.123875
8.750000	1	0.123500
8.766667	1	0.123750
8.783333	1	0.124125
8.800000	1	0.123500
8.816667	1	0.122875
8.833333	1	0.123000
8.850000	1	0.123500
8.866667	1	0.123875
8.883333	1	0.124125
8.900000	1	0.124750
8.916667	1	0.124625
8.933333	1	0.125625
8.950000	1	0.125125
8.966667	1	0.125750
8.983333	1	0.126750
9.000000	1	0.127000
9.016667	1	0.128500
9.033333	1	0.129875
9.050000	1	0.131125
9.066667	1	0.131750
9.083333	1	0.133125
9.100000	1	0.135125
9.116667	1	0.136375
9.133333	1	0.137375
9.150000	1	0.138875
9.166667	1	0.140625
9.183333	1	0.141625
9.200000	1	0.143750
9.216667	1	0.145875
9.233333	1	0.147500
9.250000	1	0.149625
9.266667	1	0.151875
9.283333	1	0.153500
9.300000	1	0.156125
9.316667	1	0.158750
9.333333	1	0.161250
9.350000	1	0.163375
9.366667	1	0.165625
9.383333	1	0.168625
9.400000	1	0.171750
9.416667	1	0.174875
9.433333	1	0.178375
9.450000	1	0.181875
9.466667	1	0.185375
9.483333	1	0.189000
9.500000	1	0.193000
9.516667	1	0.197125
9.533333	1	0.201250
9.550000	1	0.206625
9.566667	1	0.211500
9.583333	1	0.216875
9.600000	1	0.222375
9.616667	1	0.227875
9.633333	1	0.234125
9.650000	1	0.241125
9.666667	1	0.248375
9.683333	1	0.256125
9.700000	1	0.265000
9.716667	1	0.274750
9.733333	1	0.286125
9.750000	1	0.298750
9.766667	1	0.314250
9.783333	1	0.331875
9.800000	1	0.351000
9.816667	1	0.374250
9.833333	1	0.399875
9.850000	1	0.430000
9.866667	1	0.464750
9.883333	1	0.503875
9.900000	1	0.548125
9.916667	1	0.596875
9.933333	1	0.650000
9.950000	1	0.708250
9.966667	1	0.771000
9.983333	1	0.838375
10.000000	1	0.910500
10.016667	1	0.987875
10.033333	1	1.066875
10.050000	1	1.143625
10.066667	1	1.209250
10.083333	1	1.256500
10.100000	1	1.277500
10.116667	1	1.271750
10.133333	1	1.242625
10.150000	1	1.201750
10.166667	1	1.169375
10.183333	1	1.169375
10.200000	1	1.232500
10.216667	1	1.396250
10.233333	1	1.698500
10.250000	1	2.181375
10.266667	1	2.888500
10.283333	1	3.866625
10.300000	1	5.161375
10.316667	1	6.816750
10.333333	1	8.876375
10.350000	1	11.378375
10.366667	1	14.356375
10.383333	1	17.839625
10.400000	1	21.855000
10.416667	1	26.420000
10.433333	1	31.538875
10.450000	1	37.200000
10.466667	1	43.388500
10.483333	1	50.055250
10.500000	1	57.124625
10.516667	1	64.476750
10.533333	1	71.951000
10.550000	1	79.349875
10.566667	1	86.445500
10.583333	1	93.002125
10.600000	1	98.787875
10.616667	1	103.585375
10.633333	1	107.207750
10.650000	1	109.511500
10.666667	1	110.391375
10.683333	1	109.781625
10.700000	1	107.662625
10.716667	1	104.081625
10.733333	1	99.163000
10.750000	1	93.113125
10.766667	1	86.199875
10.783333	1	78.719875
10.800000	1	70.974500
10.816667	1	63.249750
10.833333	1	55.796625
10.850000	1	48.807250
10.866667	1	42.418500
10.883333	1	36.717875
10.900000	1	31.742375
10.916667	1	27.485875
10.933333	1	23.907500
10.950000	1	20.943000
10.966667	1	18.516625
10.983333	1	16.546000
11.000000	1	14.952625
11.016667	1	13.664875
11.033333	1	12.620000
11.050000	1	11.763875
11.066667	1	11.053250
11.083333	1	10.452125
11.100000	1	9.933000
11.116667	1	9.473750
11.133333	1	9.058750
11.150000	1	8.675000
11.166667	1	8.315625
11.183333	1	7.972750
11.200000	1	7.643625
11.216667	1	7.326375
11.233333	1	7.019125
11.250000	1	6.722125
11.266667	1	6.436000
11.283333	1	6.160125
11.300000	1	5.897000
11.316667	1	5.645125
11.333333	1	5.407125
11.350000	1	5.182750
11.366667	1	4.972375
11.383333	1	4.778250
11.400000	1	4.599750
11.416667	1	4.437750
11.433333	1	4.291250
11.450000	1	4.160750
11.466667	1	4.044375
11.483333	1	3.941500
11.500000	1	3.849875
11.516667	1	3.767125
11.533333	1	3.692375
11.550000	1	3.624000
11.566667	1	3.561375
11.583333	1	3.502625
11.600000	1	3.447375
11.616667	1	3.395375
11.633333	1	3.346625
11.650000	1	3.302125
11.666667	1	3.260500
11.683333	1	3.222125
11.700000	1	3.186125
11.716667	1	3.152250
11.733333	1	3.119875
11.750000	1	3.089125
11.766667	1	3.058375
11.783333	1	3.027750
11.800000	1	2.996750
11.816667	1	2.965875
11.833333	1	2.934375
11.850000	1	2.902500
11.866667	1	2.871875
11.883333	1	2.841500
11.900000	1	2.811625
11.916667	1	2.783000
11.933333	1	2.754250
11.950000	1	2.726625
11.966667	1	2.699750
11.983333	1	2.673125
12.000000	1	2.647000
12.016667	1	2.621500
12.033333	1	2.596250
12.050000	1	2.570250
12.066667	1	2.544875
12.083333	1	2.519000
12.100000	1	2.492375
12.116667	1	2.466750
12.133333	1	2.441875
12.150000	1	2.416000
12.166667	1	2.390750
12.183333	1	2.366750
12.200000	1	2.343250
12.216667	1	2.321625
12.233333	1	2.300500
12.250000	1	2.280750
12.266667	1	2.262750
12.283333	1	2.247250
12.300000	1	2.234750
12.316667	1	2.225625
12.333333	1	2.221000
12.350000	1	2.221250
12.366667	1	2.227750
12.383333	1	2.241625
12.400000	1	2.265000
12.416667	1	2.298875
12.433333	1	2.345250
12.450000	1	2.406750
12.466667	1	2.486625
12.483333	1	2.587625
12.500000	1	2.713750
12.516667	1	2.869250
12.533333	1	3.057375
12.550000	1	3.282625
12.566667	1	3.547250
12.583333	1	3.852125
12.600000	1	4.197000
12.616667	1	4.580500
12.633333	1	4.998750
12.650000	1	5.448500
12.666667	1	5.923500
12.683333	1	6.418375
12.700000	1	6.928375
12.716667	1	7.448125
12.733333	1	7.972125
12.750000	1	8.500250
12.766667	1	9.029000
12.783333	1	9.557875
12.800000	1	10.086000
12.816667	1	10.613625
12.833333	1	11.140625
12.850000	1	11.666875
12.866667	1	12.192625
12.883333	1	12.716500
12.900000	1	13.237625
12.916667	1	13.752875
12.933333	1	14.257000
12.950000	1	14.746500
12.966667	1	15.214625
12.983333	1	15.655000
13.000000	1	16.061875
13.016667	1	16.429375
13.033333	1	16.752375
13.050000	1	17.027125
13.066667	1	17.249875
13.083333	1	17.417125
13.100000	1	17.527625
13.116667	1	17.581875
13.133333	1	17.582000
13.150000	1	17.528875
13.166667	1	17.426875
13.183333	1	17.279875
13.200000	1	17.092625
13.216667	1	16.870375
13.233333	1	16.617625
13.250000	1	16.339375
13.266667	1	16.040375
13.283333	1	15.723750
13.300000	1	15.394000
13.316667	1	15.054500
13.333333	1	14.708875
13.350000	1	14.358875
13.366667	1	14.006875
13.383333	1	13.654250
13.400000	1	13.301375
13.416667	1	12.951000
13.433333	1	12.601125
13.450000	1	12.251250
13.466667	1	11.901500
13.483333	1	11.549000
13.500000	1	11.192750
13.516667	1	10.830375
13.533333	1	10.458750
13.550000	1	10.077000
13.566667	1	9.683000
13.583333	1	9.277750
13.600000	1	8.862625
13.616667	1	8.439750
13.633333	1	8.014500
13.650000	1	7.592625
13.666667	1	7.181500
13.683333	1	6.787500
13.700000	1	6.416625
13.716667	1	6.074875
13.733333	1	5.766625
13.750000	1	5.491875
13.766667	1	5.252750
13.783333	1	5.047375
13.800000	1	4.872625
13.816667	1	4.724500
13.833333	1	4.599875
13.850000	1	4.493500
13.866667	1	4.402375
13.883333	1	4.323000
13.900000	1	4.252250
13.916667	1	4.190000
13.933333	1	4.133375
13.950000	1	4.082500
13.966667	1	4.035500
13.983333	1	3.992750
14.000000	1	3.952500
14.016667	1	3.914750
14.033333	1	3.877750
14.050000	1	3.840250
14.066667	1	3.800750
14.083333	1	3.758500
14.100000	1	3.712250
14.116667	1	3.660500
14.133333	1	3.601625
14.150000	1	3.535875
14.166667	1	3.463125
14.183333	1	3.384375
14.200000	1	3.301125
14.216667	1	3.214000
14.233333	1	3.125625
14.250000	1	3.037625
14.266667	1	2.952375
14.283333	1	2.872250
14.300000	1	2.799500
14.316667	1	2.736875
14.333333	1	2.685000
14.350000	1	2.646250
14.366667	1	2.622250
14.383333	1	2.614375
14.400000	1	2.624250
14.416667	1	2.652125
14.433333	1	2.699000
14.450000	1	2.765125
14.466667	1	2.851375
14.483333	1	2.957875
14.500000	1	3.083750
14.516667	1	3.230000
14.533333	1	3.396500
14.550000	1	3.582125
14.566667	1	3.786125
14.583333	1	4.008250
14.600000	1	4.246375
14.616667	1	4.499625
14.633333	1	4.766375
14.650000	1	5.043625
14.666667	1	5.329250
14.683333	1	5.618625
14.700000	1	5.908625
14.716667	1	6.193750
14.733333	1	6.472625
14.750000	1	6.744625
14.766667	1	7.008250
14.783333	1	7.266375
14.800000	1	7.522250
14.816667	1	7.783000
14.833333	1	8.057750
14.850000	1	8.356750
14.866667	1	8.692000
14.883333	1	9.075625
14.900000	1	9.518625
14.916667	1	10.028875
14.933333	1	10.611625
14.950000	1	11.265375
14.966667	1	11.986125
14.983333	1	12.763250
15.000000	1	13.583250
15.016667	1	14.430000
15.033333	1	15.286000
15.050000	1	16.132125
15.066667	1	16.951000
15.083333	1	17.727875
15.100000	1	18.450125
15.116667	1	19.109125
15.133333	1	19.698500
15.150000	1	20.214750
15.166667	1	20.655375
15.183333	1	21.019500
15.200000	1	21.306000
15.216667	1	21.513875
15.233333	1	21.640375
15.250000	1	21.681125
15.266667	1	21.634125
15.283333	1	21.494375
15.300000	1	21.259500
15.316667	1	20.929125
15.333333	1	20.503625
15.350000	1	19.987500
15.366667	1	19.387125
15.383333	1	18.713000
15.400000	1	17.974500
15.416667	1	17.182500
15.433333	1	16.349875
15.450000	1	15.489000
15.466667	1	14.611125
15.483333	1	13.728750
15.500000	1	12.852000
15.516667	1	11.991375
15.533333	1	11.154250
15.550000	1	10.349500
15.566667	1	9.582875
15.583333	1	8.859500
15.600000	1	8.182375
15.616667	1	7.553000
15.633333	1	6.973125
15.650000	1	6.442750
15.666667	1	5.962750
15.683333	1	5.530000
15.700000	1	5.143500
15.716667	1	4.801500
15.733333	1	4.500250
15.750000	1	4.237625
15.766667	1	4.009375
15.783333	1	3.811875
15.800000	1	3.643750
15.816667	1	3.501625
15.833333	1	3.383000
15.850000	1	3.288250
15.866667	1	3.213250
15.883333	1	3.159375
15.900000	1	3.123125
15.916667	1	3.104250
15.933333	1	3.101500
15.950000	1	3.113000
15.966667	1	3.137375
15.983333	1	3.173000
16.000000	1	3.218125
16.016667	1	3.270875
16.033333	1	3.330500
16.050000	1	3.395125
16.066667	1	3.464000
16.083333	1	3.537000
16.100000	1	3.614875
16.116667	1	3.699500
16.133333	1	3.791875
16.150000	1	3.894500
16.166667	1	4.011625
16.183333	1	4.144750
16.200000	1	4.295875
16.216667	1	4.467125
16.233333	1	4.659125
16.250000	1	4.870250
16.266667	1	5.097250
16.283333	1	5.336625
16.300000	1	5.583375
16.316667	1	5.831750
16.333333	1	6.076875
16.350000	1	6.311750
16.366667	1	6.532500
16.383333	1	6.735000
16.400000	1	6.916500
16.416667	1	7.075625
16.433333	1	7.212250
16.450000	1	7.325125
16.466667	1	7.415250
16.483333	1	7.483625
16.500000	1	7.531625
16.516667	1	7.559875
16.533333	1	7.567250
16.550000	1	7.556000
16.566667	1	7.524750
16.583333	1	7.474375
16.600000	1	7.403625
16.616667	1	7.311500
16.633333	1	7.198375
16.650000	1	7.064125
16.666667	1	6.908625
16.683333	1	6.735000
16.700000	1	6.542625
16.716667	1	6.335125
16.733333	1	6.113000
16.750000	1	5.880750
16.766667	1	5.640250
16.783333	1	5.395250
16.800000	1	5.147750
16.816667	1	4.901000
16.833333	1	4.657625
16.850000	1	4.419500
16.866667	1	4.188875
16.883333	1	3.967625
16.900000	1	3.756500
16.916667	1	3.557375
16.933333	1	3.370625
16.950000	1	3.196250
16.966667	1	3.035375
16.983333	1	2.887250
17.000000	1	2.752500
17.016667	1	2.630625
17.033333	1	2.519500
17.050000	1	2.419500
17.066667	1	2.331125
17.083333	1	2.251250
17.100000	1	2.181250
17.116667	1	2.119250
17.133333	1	2.064625
17.150000	1	2.015625
17.166667	1	1.972250
17.183333	1	1.934375
17.200000	1	1.900625
17.216667	1	1.870625
17.233333	1	1.843250
17.250000	1	1.818750
17.266667	1	1.795875
17.283333	1	1.774625
17.300000	1	1.755500
17.316667	1	1.736750
17.333333	1	1.719250
17.350000	1	1.702500
17.366667	1	1.686375
17.383333	1	1.670875
17.400000	1	1.656250
17.416667	1	1.642875
17.433333	1	1.629000
17.450000	1	1.616750
17.466667	1	1.604500
17.483333	1	1.592625
17.500000	1	1.581000
17.516667	1	1.570625
17.533333	1	1.560125
17.550000	1	1.550375
17.566667	1	1.541625
17.583333	1	1.533000
17.600000	1	1.525125
17.616667	1	1.517500
17.633333	1	1.511250
17.650000	1	1.505250
17.666667	1	1.500500
17.683333	1	1.495750
17.700000	1	1.492750
17.716667	1	1.491125
17.733333	1	1.490375
17.750000	1	1.491000
17.766667	1	1.493625
17.783333	1	1.497875
17.800000	1	1.503750
17.816667	1	1.510875
17.833333	1	1.520750
17.850000	1	1.531875
17.866667	1	1.544875
17.883333	1	1.559500
17.900000	1	1.576375
17.916667	1	1.595375
17.933333	1	1.615500
17.950000	1	1.638000
17.966667	1	1.661000
17.983333	1	1.684875
18.000000	1	1.709375
18.016667	1	1.734500
18.033333	1	1.759875
18.050000	1	1.784875
18.066667	1	1.810250
18.083333	1	1.835125
18.100000	1	1.858500
18.116667	1	1.881875
18.133333	1	1.904500
18.150000	1	1.925625
18.166667	1	1.944875
18.183333	1	1.963000
18.200000	1	1.980000
18.216667	1	1.995375
18.233333	1	2.008000
18.250000	1	2.019875
18.266667	1	2.029125
18.283333	1	2.036500
18.300000	1	2.041375
18.316667	1	2.043750
18.333333	1	2.044000
18.350000	1	2.041750
18.366667	1	2.036750
18.383333	1	2.030250
18.400000	1	2.021250
18.416667	1	2.010750
18.433333	1	1.998875
18.450000	1	1.984625
18.466667	1	1.969875
18.483333	1	1.953875
18.500000	1	1.937250
18.516667	1	1.920000
18.533333	1	1.901250
18.550000	1	1.882500
18.566667	1	1.862500
18.583333	1	1.842125
18.600000	1	1.821375
18.616667	1	1.800250
18.633333	1	1.779000
18.650000	1	1.757625
18.666667	1	1.736000
18.683333	1	1.714125
18.700000	1	1.691750
18.716667	1	1.669750
18.733333	1	1.647875
18.750000	1	1.626750
18.766667	1	1.605875
18.783333	1	1.584375
18.800000	1	1.563750
18.816667	1	1.543875
18.833333	1	1.524625
18.850000	1	1.505250
18.866667	1	1.487250
18.883333	1	1.469250
18.900000	1	1.452000
18.916667	1	1.434750
18.933333	1	1.418750
18.950000	1	1.402750
18.966667	1	1.387250
18.983333	1	1.372125
19.000000	1	1.357500
19.016667	1	1.343625
19.033333	1	1.330750
19.050000	1	1.318500
19.066667	1	1.306875
19.083333	1	1.296750
19.100000	1	1.287875
19.116667	1	1.280875
19.133333	1	1.275500
19.150000	1	1.273000
19.166667	1	1.273125
19.183333	1	1.275750
19.200000	1	1.281125
19.216667	1	1.290125
19.233333	1	1.302125
19.250000	1	1.317250
19.266667	1	1.335375
19.283333	1	1.356375
19.300000	1	1.380875
19.316667	1	1.407375
19.333333	1	1.436000
19.350000	1	1.466250
19.366667	1	1.497750
19.383333	1	1.531000
19.400000	1	1.564000
19.416667	1	1.597125
19.433333	1	1.630250
19.450000	1	1.662375
19.466667	1	1.693250
19.483333	1	1.722500
19.500000	1	1.750750
19.516667	1	1.776500
19.533333	1	1.800375
19.550000	1	1.822750
19.566667	1	1.842625
19.583333	1	1.859750
19.600000	1	1.875500
19.616667	1	1.887500
19.633333	1	1.897250
19.650000	1	1.903875
19.666667	1	1.907125
19.683333	1	1.907750
19.700000	1	1.905250
19.716667	1	1.900375
19.733333	1	1.892000
19.750000	1	1.880250
19.766667	1	1.865375
19.783333	1	1.847875
19.800000	1	1.829125
19.816667	1	1.806375
19.833333	1	1.781500
19.850000	1	1.755250
19.866667	1	1.727750
19.883333	1	1.699000
19.900000	1	1.670750
19.916667	1	1.642125
19.933333	1	1.613250
19.950000	1	1.585375
19.966667	1	1.559000
19.983333	1	1.534250
20.000000	1	1.511875
20.016667	1	1.491125
20.033333	1	1.472500
20.050000	1	1.456375
20.066667	1	1.442625
20.083333	1	1.431125
20.100000	1	1.421000
20.116667	1	1.413000
20.133333	1	1.407125
20.150000	1	1.403500
20.166667	1	1.400750
20.183333	1	1.400000
20.200000	1	1.400375
20.216667	1	1.402125
20.233333	1	1.405250
20.250000	1	1.409625
20.266667	1	1.415250
20.283333	1	1.421500
20.300000	1	1.429125
20.316667	1	1.437625
20.333333	1	1.447500
20.350000	1	1.459750
20.366667	1	1.473625
20.383333	1	1.489125
20.400000	1	1.506500
20.416667	1	1.525000
20.433333	1	1.545875
20.450000	1	1.569250
20.466667	1	1.594375
20.483333	1	1.622000
20.500000	1	1.651125
20.516667	1	1.681750
20.533333	1	1.713125
20.550000	1	1.745500
20.566667	1	1.778875
20.583333	1	1.812375
20.600000	1	1.844875
20.616667	1	1.875875
20.633333	1	1.905875
20.650000	1	1.934375
20.666667	1	1.960000
20.683333	1	1.984500
20.700000	1	2.006750
20.716667	1	2.026500
20.733333	1	2.044500
20.750000	1	2.060250
20.766667	1	2.074375
20.783333	1	2.087000
20.800000	1	2.097875
20.816667	1	2.107750
20.833333	1	2.116500
20.850000	1	2.124125
20.866667	1	2.130875
20.883333	1	2.137000
20.900000	1	2.141875
20.916667	1	2.145500
20.933333	1	2.148875
20.950000	1	2.150500
20.966667	1	2.150500
20.983333	1	2.149000
21.000000	1	2.146625
21.016667	1	2.141875
21.033333	1	2.134250
21.050000	1	2.124875
21.066667	1	2.112875
21.083333	1	2.098375
21.100000	1	2.082125
21.116667	1	2.063000
21.133333	1	2.042625
21.150000	1	2.019500
21.166667	1	1.995250
21.183333	1	1.970000
21.200000	1	1.944125
21.216667	1	1.917625
21.233333	1	1.891250
21.250000	1	1.864625
21.266667	1	1.839000
21.283333	1	1.813250
21.300000	1	1.789125
21.316667	1	1.765125
21.333333	1	1.742125
21.350000	1	1.719375
21.366667	1	1.697375
21.383333	1	1.675625
21.400000	1	1.653000
21.416667	1	1.629625
21.433333	1	1.605750
21.450000	1	1.580375
21.466667	1	1.553375
21.483333	1	1.524125
21.500000	1	1.493375
21.516667	1	1.461625
21.533333	1	1.428125
21.550000	1	1.393250
21.566667	1	1.355875
21.583333	1	1.317625
21.600000	1	1.278250
21.616667	1	1.238375
21.633333	1	1.198625
21.650000	1	1.158500
21.666667	1	1.118375
21.683333	1	1.079625
21.700000	1	1.042250
21.716667	1	1.006125
21.733333	1	0.971875
21.750000	1	0.938500
21.766667	1	0.907250
21.783333	1	0.878125
21.800000	1	0.850375
21.816667	1	0.825375
21.833333	1	0.802500
21.850000	1	0.781250
21.866667	1	0.761875
21.883333	1	0.745125
21.900000	1	0.730250
21.916667	1	0.717250
21.933333	1	0.706375
21.950000	1	0.697000
21.966667	1	0.689500
21.983333	1	0.683250
22.000000	1	0.679000
22.016667	1	0.676000
22.033333	1	0.674875
22.050000	1	0.675500
22.066667	1	0.676875
22.083333	1	0.679125
22.100000	1	0.682375
22.116667	1	0.686625
22.133333	1	0.692125
22.150000	1	0.697750
22.166667	1	0.703375
22.183333	1	0.710000
22.200000	1	0.716125
22.216667	1	0.722750
22.233333	1	0.727875
22.250000	1	0.733625
22.266667	1	0.739375
22.283333	1	0.744500
22.300000	1	0.749125
22.316667	1	0.754000
22.333333	1	0.757500
22.350000	1	0.761250
22.366667	1	0.764125
22.383333	1	0.766750
22.400000	1	0.768000
22.416667	1	0.769750
22.433333	1	0.770750
22.450000	1	0.770500
22.466667	1	0.770625
22.483333	1	0.769875
22.500000	1	0.768500
22.516667	1	0.767125
22.533333	1	0.764875
22.550000	1	0.761875
22.566667	1	0.759375
22.583333	1	0.755250
22.600000	1	0.751000
22.616667	1	0.746875
22.633333	1	0.742375
22.650000	1	0.738000
22.666667	1	0.733250
22.683333	1	0.728750
22.700000	1	0.725125
22.716667	1	0.721375
22.733333	1	0.717875
22.750000	1	0.715500
22.766667	1	0.714250
22.783333	1	0.712875
22.800000	1	0.712000
22.816667	1	0.711750
22.833333	1	0.712250
22.850000	1	0.713125
22.866667	1	0.714500
22.883333	1	0.717375
22.900000	1	0.720125
22.916667	1	0.723375
22.933333	1	0.727125
22.950000	1	0.731250
22.966667	1	0.735000
22.983333	1	0.738750
23.000000	1	0.742250
23.016667	1	0.746000
23.033333	1	0.749250
23.050000	1	0.752125
23.066667	1	0.753875
23.083333	1	0.756125
23.100000	1	0.757875
23.116667	1	0.758875
23.133333	1	0.759375
23.150000	1	0.759875
23.166667	1	0.759875
23.183333	1	0.758875
23.200000	1	0.757500
23.216667	1	0.755125
23.233333	1	0.753250
23.250000	1	0.750250
23.266667	1	0.746250
23.283333	1	0.741875
23.300000	1	0.737500
23.316667	1	0.731875
23.333333	1	0.726000
23.350000	1	0.720375
23.366667	1	0.713750
23.383333	1	0.706875
23.400000	1	0.699500
23.416667	1	0.691625
23.433333	1	0.683625
23.450000	1	0.675000
23.466667	1	0.666875
23.483333	1	0.658375
23.500000	1	0.649875
23.516667	1	0.641250
23.533333	1	0.632000
23.550000	1	0.622875
23.566667	1	0.614375
23.583333	1	0.606000
23.600000	1	0.598875
23.616667	1	0.591250
23.633333	1	0.583375
23.650000	1	0.576750
23.666667	1	0.570375
23.683333	1	0.565500
23.700000	1	0.561625
23.716667	1	0.558750
23.733333	1	0.557000
23.750000	1	0.557125
23.766667	1	0.559250
23.783333	1	0.563125
23.800000	1	0.569375
23.816667	1	0.578250
23.833333	1	0.590375
23.850000	1	0.605375
23.866667	1	0.623375
23.883333	1	0.645000
23.900000	1	0.670500
23.916667	1	0.699000
23.933333	1	0.731375
23.950000	1	0.767125
23.966667	1	0.806375
23.983333	1	0.847875
24.000000	1	0.891750
24.016667	1	0.937750
24.033333	1	0.985875
24.050000	1	1.035625
24.066667	1	1.085250
24.083333	1	1.135125
24.100000	1	1.185125
24.116667	1	1.234125
24.133333	1	1.282875
24.150000	1	1.329875
24.166667	1	1.375750
24.183333	1	1.419375
24.200000	1	1.461375
24.216667	1	1.500375
24.233333	1	1.536750
24.250000	1	1.571125
24.266667	1	1.602625
24.283333	1	1.631625
24.300000	1	1.657125
24.316667	1	1.680125
24.333333	1	1.699750
24.350000	1	1.716625
24.366667	1	1.728750
24.383333	1	1.738125
24.400000	1	1.743250
24.416667	1	1.744375
24.433333	1	1.741375
24.450000	1	1.733625
24.466667	1	1.722375
24.483333	1	1.706875
24.500000	1	1.687375
24.516667	1	1.664250
24.533333	1	1.637125
24.550000	1	1.607375
24.566667	1	1.574500
24.583333	1	1.539375
24.600000	1	1.501625
24.616667	1	1.462875
24.633333	1	1.423000
24.650000	1	1.382125
24.666667	1	1.341750
24.683333	1	1.301750
24.700000	1	1.263000
24.716667	1	1.224625
24.733333	1	1.188750
24.750000	1	1.153750
24.766667	1	1.121250
24.783333	1	1.090875
24.800000	1	1.062125
24.816667	1	1.035250
24.833333	1	1.011000
24.850000	1	0.988500
24.866667	1	0.968750
24.883333	1	0.950750
24.900000	1	0.935125
24.916667	1	0.921375
24.933333	1	0.909250
24.950000	1	0.898250
24.966667	1	0.888250
24.983333	1	0.878750
25.000000	1	0.870125
25.016667	1	0.862625
25.033333	1	0.855250
25.050000	1	0.848000
25.066667	1	0.841000
25.083333	1	0.834000
25.100000	1	0.827250
25.116667	1	0.820250
25.133333	1	0.811625
25.150000	1	0.802875
25.166667	1	0.793375
25.183333	1	0.783625
25.200000	1	0.772875
25.216667	1	0.761500
25.233333	1	0.749875
25.250000	1	0.736375
25.266667	1	0.722625
25.283333	1	0.708125
25.300000	1	0.693750
25.316667	1	0.678250
25.333333	1	0.662875
25.350000	1	0.646625
25.366667	1	0.630250
25.383333	1	0.613500
25.400000	1	0.597375
25.416667	1	0.581375
25.433333	1	0.566500
25.450000	1	0.550125
25.466667	1	0.535625
25.483333	1	0.521375
25.500000	1	0.506875
25.516667	1	0.494375
25.533333	1	0.482375
25.550000	1	0.471875
25.566667	1	0.461500
25.583333	1	0.451250
25.600000	1	0.442375
25.616667	1	0.434625
25.633333	1	0.427500
25.650000	1	0.421375
25.666667	1	0.416000
25.683333	1	0.410125
25.700000	1	0.405625
25.716667	1	0.402375
25.733333	1	0.399375
25.750000	1	0.397500
25.766667	1	0.395625
25.783333	1	0.394500
25.800000	1	0.393500
25.816667	1	0.393375
25.833333	1	0.393750
25.850000	1	0.394875
25.866667	1	0.396125
25.883333	1	0.397500
25.900000	1	0.398875
25.916667	1	0.400250
25.933333	1	0.402375
25.950000	1	0.404250
25.966667	1	0.406625
25.983333	1	0.409250
26.000000	1	0.411875
26.016667	1	0.414500
26.033333	1	0.417375
26.050000	1	0.419875
26.066667	1	0.423250
26.083333	1	0.425500
26.100000	1	0.428000
26.116667	1	0.430750
26.133333	1	0.432750
26.150000	1	0.435250
26.166667	1	0.437875
26.183333	1	0.440250
26.200000	1	0.442250
26.216667	1	0.444375
26.233333	1	0.446625
26.250000	1	0.448125
26.266667	1	0.450250
26.283333	1	0.452625
26.300000	1	0.454875
26.316667	1	0.457375
26.333333	1	0.459750
26.350000	1	0.462125
26.366667	1	0.464875
26.383333	1	0.467875
26.400000	1	0.470625
26.416667	1	0.473625
26.433333	1	0.476000
26.450000	1	0.479125
26.466667	1	0.482125
26.483333	1	0.485500
26.500000	1	0.489375
26.516667	1	0.493125
26.533333	1	0.497125
26.550000	1	0.501125
26.566667	1	0.505750
26.583333	1	0.509625
26.600000	1	0.513750
26.616667	1	0.517875
26.633333	1	0.522500
26.650000	1	0.526750
26.666667	1	0.530625
26.683333	1	0.535000
26.700000	1	0.538750
26.716667	1	0.541875
26.733333	1	0.545125
26.750000	1	0.547750
26.766667	1	0.550000
26.783333	1	0.552875
26.800000	1	0.554625
26.816667	1	0.556375
26.833333	1	0.557875
26.850000	1	0.558875
26.866667	1	0.559750
26.883333	1	0.561125
26.900000	1	0.561250
26.916667	1	0.561250
26.933333	1	0.560625
26.950000	1	0.560125
26.966667	1	0.558375
26.983333	1	0.556875
27.000000	1	0.555500
27.016667	1	0.553500
27.033333	1	0.551125
27.050000	1	0.548375
27.066667	1	0.546000
27.083333	1	0.543250
27.100000	1	0.540000
27.116667	1	0.536875
27.133333	1	0.533250
27.150000	1	0.528875
27.166667	1	0.524125
27.183333	1	0.519875
27.200000	1	0.514875
27.216667	1	0.509375
27.233333	1	0.503500
27.250000	1	0.498000
27.266667	1	0.492500
27.283333	1	0.486625
27.300000	1	0.479875
27.316667	1	0.473125
27.333333	1	0.466375
27.350000	1	0.459000
27.366667	1	0.451375
27.383333	1	0.443875
27.400000	1	0.436000
27.416667	1	0.428000
27.433333	1	0.420375
27.450000	1	0.412250
27.466667	1	0.404500
27.483333	1	0.396125
27.500000	1	0.388375
27.516667	1	0.380625
27.533333	1	0.373375
27.550000	1	0.365875
27.566667	1	0.359375
27.583333	1	0.352125
27.600000	1	0.346125
27.616667	1	0.340250
27.633333	1	0.334750
27.650000	1	0.330500
27.666667	1	0.327375
27.683333	1	0.325000
27.700000	1	0.323000
27.716667	1	0.322750
27.733333	1	0.324500
27.750000	1	0.328000
27.766667	1	0.333875
27.783333	1	0.342000
27.800000	1	0.353625
27.816667	1	0.369250
27.833333	1	0.388375
27.850000	1	0.411875
27.866667	1	0.439000
27.883333	1	0.472500
27.900000	1	0.510375
27.916667	1	0.554125
27.933333	1	0.603625
27.950000	1	0.659500
27.966667	1	0.721375
27.983333	1	0.789750
28.000000	1	0.863875
28.016667	1	0.944125
28.033333	1	1.029500
28.050000	1	1.120250
28.066667	1	1.215125
28.083333	1	1.313500
28.100000	1	1.415375
28.116667	1	1.520125
28.133333	1	1.626375
28.150000	1	1.733000
28.166667	1	1.839750
28.183333	1	1.945125
28.200000	1	2.048750
28.216667	1	2.149250
28.233333	1	2.247250
28.250000	1	2.341875
28.266667	1	2.431875
28.283333	1	2.516750
28.300000	1	2.597500
28.316667	1	2.673250
28.333333	1	2.744000
28.350000	1	2.809500
28.366667	1	2.869375
28.383333	1	2.924750
28.400000	1	2.974375
28.416667	1	3.019250
28.433333	1	3.059625
28.450000	1	3.095625
28.466667	1	3.126250
28.483333	1	3.152750
28.500000	1	3.174000
28.516667	1	3.189875
28.533333	1	3.200500
28.550000	1	3.205375
28.566667	1	3.203875
28.583333	1	3.197625
28.600000	1	3.183625
28.616667	1	3.162875
28.633333	1	3.135875
28.650000	1	3.101625
28.666667	1	3.059250
28.683333	1	3.010250
28.700000	1	2.953500
28.716667	1	2.889625
28.733333	1	2.818000
28.750000	1	2.739750
28.766667	1	2.654750
28.783333	1	2.563625
28.800000	1	2.466875
28.816667	1	2.366250
28.833333	1	2.261750
28.850000	1	2.153875
28.866667	1	2.044375
28.883333	1	1.933250
28.900000	1	1.821625
28.916667	1	1.709875
28.933333	1	1.599375
28.950000	1	1.491000
28.966667	1	1.385375
28.983333	1	1.282875
29.000000	1	1.183500
29.016667	1	1.088875
29.033333	1	0.998875
29.050000	1	0.913625
29.066667	1	0.832750
29.083333	1	0.757125
29.100000	1	0.686875
29.116667	1	0.621625
29.133333	1	0.560875
29.150000	1	0.505750
29.166667	1	0.454875
29.183333	1	0.409000
29.200000	1	0.367000
29.216667	1	0.329125
29.233333	1	0.295250
29.250000	1	0.264750
29.266667	1	0.236875
29.283333	1	0.212625
29.300000	1	0.190875
29.316667	1	0.172125
29.333333	1	0.155875
29.350000	1	0.141875
29.366667	1	0.129875
29.383333	1	0.120125
29.400000	1	0.111625
29.416667	1	0.105125
29.433333	1	0.100250
29.450000	1	0.096625
29.466667	1	0.094250
29.483333	1	0.093500
29.500000	1	0.093625
29.516667	1	0.095000
29.533333	1	0.097375
29.550000	1	0.100750
29.566667	1	0.105000
29.583333	1	0.110750
29.600000	1	0.117625
29.616667	1	0.125250
29.633333	1	0.133625
29.650000	1	0.142500
29.666667	1	0.151750
29.683333	1	0.161875
29.700000	1	0.173000
29.716667	1	0.184750
29.733333	1	0.196500
29.750000	1	0.208375
29.766667	1	0.220875
29.783333	1	0.234125
29.800000	1	0.247750
29.816667	1	0.262125
29.833333	1	0.276375
29.850000	1	0.289750
29.866667	1	0.304250
29.883333	1	0.317750
29.900000	1	0.331750
29.916667	1	0.346000
29.933333	1	0.358875
29.950000	1	0.371375
29.966667	1	0.383875
29.983333	1	0.395750
30.000000	1	0.407125
30.016667	1	0.418750
30.033333	1	0.429375
30.050000	1	0.439375
30.066667	1	0.449000
30.083333	1	0.457875
30.100000	1	0.465625
30.116667	1	0.473125
30.133333	1	0.480000
30.150000	1	0.486000
30.166667	1	0.491875
30.183333	1	0.497375
30.200000	1	0.502375
30.216667	1	0.506500
30.233333	1	0.510875
30.250000	1	0.514500
30.266667	1	0.517875
30.283333	1	0.520000
30.300000	1	0.522875
30.316667	1	0.524000
30.333333	1	0.525500
30.350000	1	0.526000
30.366667	1	0.526000
30.383333	1	0.526000
30.400000	1	0.525500
30.416667	1	0.525000
30.433333	1	0.523875
30.450000	1	0.522500
30.466667	1	0.520625
30.483333	1	0.518750
30.500000	1	0.515875
30.516667	1	0.513000
30.533333	1	0.510000
30.550000	1	0.506250
30.566667	1	0.502000
30.583333	1	0.498625
30.600000	1	0.494875
30.616667	1	0.490625
30.633333	1	0.486750
30.650000	1	0.482375
30.666667	1	0.477500
30.683333	1	0.472750
30.700000	1	0.468250
30.716667	1	0.463875
30.733333	1	0.459500
30.750000	1	0.455875
30.766667	1	0.452500
30.783333	1	0.449250
30.800000	1	0.446375
30.816667	1	0.443250
30.833333	1	0.441375
30.850000	1	0.439500
30.866667	1	0.438500
30.883333	1	0.437875
30.900000	1	0.437125
30.916667	1	0.436500
30.933333	1	0.437000
30.950000	1	0.437625
30.966667	1	0.439250
30.983333	1	0.441000
31.000000	1	0.443000
31.016667	1	0.445125
31.033333	1	0.447500
31.050000	1	0.449875
31.066667	1	0.452750
31.083333	1	0.455500
31.100000	1	0.459125
31.116667	1	0.462500
31.133333	1	0.465750
31.150000	1	0.469750
31.166667	1	0.473250
31.183333	1	0.476750
31.200000	1	0.479750
31.216667	1	0.483125
31.233333	1	0.486250
31.250000	1	0.489375
31.266667	1	0.492125
31.283333	1	0.495500
31.300000	1	0.498000
31.316667	1	0.501625
31.333333	1	0.504875
31.350000	1	0.507125
31.366667	1	0.510000
31.383333	1	0.512250
31.400000	1	0.514625
31.416667	1	0.517500
31.433333	1	0.519750
31.450000	1	0.522000
31.466667	1	0.523750
31.483333	1	0.524625
31.500000	1	0.526125
31.516667	1	0.527125
31.533333	1	0.527375
31.550000	1	0.527875
31.566667	1	0.527875
31.583333	1	0.527625
31.600000	1	0.527625
31.616667	1	0.526000
31.633333	1	0.525750
31.650000	1	0.524750
31.666667	1	0.523625
31.683333	1	0.522375
31.700000	1	0.520625
31.716667	1	0.517750
31.733333	1	0.515375
31.750000	1	0.513125
31.766667	1	0.510500
31.783333	1	0.507125
31.800000	1	0.504250
31.816667	1	0.501875
31.833333	1	0.500125
31.850000	1	0.498250
31.866667	1	0.496250
31.883333	1	0.494625
31.900000	1	0.492750
31.916667	1	0.490750
31.933333	1	0.489625
31.950000	1	0.488875
31.966667	1	0.488875
31.983333	1	0.488375
32.000000	1	0.489500
32.016667	1	0.491250
32.033333	1	0.492250
32.050000	1	0.494750
32.066667	1	0.497250
32.083333	1	0.499750
32.100000	1	0.503250
32.116667	1	0.507500
32.133333	1	0.512000
32.150000	1	0.517250
32.166667	1	0.522625
32.183333	1	0.528500
32.200000	1	0.535000
32.216667	1	0.542375
32.233333	1	0.549500
32.250000	1	0.556500
32.266667	1	0.564250
32.283333	1	0.572875
32.300000	1	0.581125
32.316667	1	0.589625
32.333333	1	0.597750
32.350000	1	0.605875
32.366667	1	0.614375
32.383333	1	0.622250
32.400000	1	0.630375
32.416667	1	0.638125
32.433333	1	0.645500
32.450000	1	0.652875
32.466667	1	0.659625
32.483333	1	0.666625
32.500000	1	0.672750
32.516667	1	0.678250
32.533333	1	0.684000
32.550000	1	0.689750
32.566667	1	0.694000
32.583333	1	0.697875
32.600000	1	0.701375
32.616667	1	0.704875
32.633333	1	0.707125
32.650000	1	0.709125
32.666667	1	0.710750
32.683333	1	0.712125
32.700000	1	0.712250
32.716667	1	0.712625
32.733333	1	0.712000
32.750000	1	0.711125
32.766667	1	0.708750
32.783333	1	0.706375
32.800000	1	0.703625
32.816667	1	0.699625
32.833333	1	0.695000
32.850000	1	0.689750
32.866667	1	0.683500
32.883333	1	0.676750
32.900000	1	0.668750
32.916667	1	0.661000
32.933333	1	0.653000
32.950000	1	0.644250
32.966667	1	0.634625
32.983333	1	0.624500
33.000000	1	0.613625
33.016667	1	0.602250
33.033333	1	0.590500
33.050000	1	0.578250
33.066667	1	0.566375
33.083333	1	0.553750
33.100000	1	0.540250
33.116667	1	0.526250
33.133333	1	0.512250
33.150000	1	0.497750
33.166667	1	0.483500
33.183333	1	0.468625
33.200000	1	0.453625
33.216667	1	0.439125
33.233333	1	0.424500
33.250000	1	0.409625
33.266667	1	0.394625
33.283333	1	0.379500
33.300000	1	0.364250
33.316667	1	0.348750
33.333333	1	0.334125
33.350000	1	0.319625
33.366667	1	0.305250
33.383333	1	0.291375
33.400000	1	0.277375
33.416667	1	0.264500
33.433333	1	0.251125
33.450000	1	0.237500
33.466667	1	0.225125
33.483333	1	0.213250
33.500000	1	0.201375
33.516667	1	0.189875
33.533333	1	0.179375
33.550000	1	0.169750
33.566667	1	0.159875
33.583333	1	0.151125
33.600000	1	0.142625
33.616667	1	0.134125
33.633333	1	0.126500
33.650000	1	0.119250
33.666667	1	0.112875
33.683333	1	0.106875
33.700000	1	0.100500
33.716667	1	0.094500
33.733333	1	0.089500
33.750000	1	0.084875
33.766667	1	0.081375
33.783333	1	0.077875
33.800000	1	0.074125
33.816667	1	0.070875
33.833333	1	0.067875
33.850000	1	0.065000
33.866667	1	0.062375
33.883333	1	0.060125
33.900000	1	0.058250
33.916667	1	0.055875
33.933333	1	0.054375
33.950000	1	0.053500
33.966667	1	0.052250
33.983333	1	0.051500
34.000000	1	0.050125
34.016667	1	0.050875
34.033333	1	0.051000
34.050000	1	0.051250
34.066667	1	0.051500
34.083333	1	0.053000
34.100000	1	0.054750
34.116667	1	0.057250
34.133333	1	0.059750
34.150000	1	0.063125
34.166667	1	0.067250
34.183333	1	0.072125
34.200000	1	0.077500
34.216667	1	0.083500
34.233333	1	0.090125
34.250000	1	0.098125
34.266667	1	0.106875
34.283333	1	0.116125
34.300000	1	0.126875
34.316667	1	0.137750
34.333333	1	0.149750
34.350000	1	0.163250
34.366667	1	0.178375
34.383333	1	0.194250
34.400000	1	0.210125
34.416667	1	0.226625
34.433333	1	0.244375
34.450000	1	0.263125
34.466667	1	0.282250
34.483333	1	0.301250
34.500000	1	0.321000
34.516667	1	0.341500
34.533333	1	0.361625
34.550000	1	0.381750
34.566667	1	0.402750
34.583333	1	0.422750
34.600000	1	0.442250
34.616667	1	0.462500
34.633333	1	0.481125
34.650000	1	0.499875
34.666667	1	0.518250
34.683333	1	0.536000
34.700000	1	0.552125
34.716667	1	0.568625
34.733333	1	0.584000
34.750000	1	0.598875
34.766667	1	0.613375
34.783333	1	0.626875
34.800000	1	0.639250
34.816667	1	0.650875
34.833333	1	0.661375
34.850000	1	0.672125
34.866667	1	0.681875
34.883333	1	0.690375
34.900000	1	0.698125
34.916667	1	0.705000
34.933333	1	0.711000
34.950000	1	0.716875
34.966667	1	0.721375
34.983333	1	0.724875
35.000000	1	0.727375
35.016667	1	0.728625
35.033333	1	0.729375
35.050000	1	0.728375
35.066667	1	0.726125
35.083333	1	0.723250
35.100000	1	0.719375
35.116667	1	0.713625
35.133333	1	0.706875
35.150000	1	0.699750
35.166667	1	0.690875
35.183333	1	0.680625
35.200000	1	0.668125
35.216667	1	0.655500
35.233333	1	0.642000
35.250000	1	0.626875
35.266667	1	0.610875
35.283333	1	0.593125
35.300000	1	0.575125
35.316667	1	0.556250
35.333333	1	0.537125
35.350000	1	0.518250
35.366667	1	0.497875
35.383333	1	0.477625
35.400000	1	0.457000
35.416667	1	0.437000
35.433333	1	0.416375
35.450000	1	0.396125
35.466667	1	0.376375
35.483333	1	0.357125
35.500000	1	0.338125
35.516667	1	0.319500
35.533333	1	0.302000
35.550000	1	0.284875
35.566667	1	0.267750
35.583333	1	0.252375
35.600000	1	0.237500
35.616667	1	0.224000
35.633333	1	0.210500
35.650000	1	0.198625
35.666667	1	0.186500
35.683333	1	0.175875
35.700000	1	0.166125
35.716667	1	0.157125
35.733333	1	0.149250
35.750000	1	0.141875
35.766667	1	0.135500
35.783333	1	0.129375
35.800000	1	0.125125
35.816667	1	0.120625
35.833333	1	0.117625
35.850000	1	0.114250
35.866667	1	0.111000
35.883333	1	0.108250
35.900000	1	0.106875
35.916667	1	0.105250
35.933333	1	0.104500
35.950000	1	0.104000
35.966667	1	0.103625
35.983333	1	0.103750
36.000000	1	0.104125
36.016667	1	0.104250
36.033333	1	0.105125
36.050000	1	0.106000
36.066667	1	0.106875
36.083333	1	0.109000
36.100000	1	0.110625
36.116667	1	0.112500
36.133333	1	0.114750
36.150000	1	0.116750
36.166667	1	0.119500
36.183333	1	0.122125
36.200000	1	0.124625
36.216667	1	0.127875
36.233333	1	0.131000
36.250000	1	0.133875
36.266667	1	0.136625
36.283333	1	0.140125
36.300000	1	0.143000
36.316667	1	0.146375
36.333333	1	0.149875
36.350000	1	0.152875
36.366667	1	0.156500
36.383333	1	0.160125
36.400000	1	0.163625
36.416667	1	0.167750
36.433333	1	0.171125
36.450000	1	0.175125
36.466667	1	0.179000
36.483333	1	0.182250
36.500000	1	0.185875
36.516667	1	0.190000
36.533333	1	0.193500
36.550000	1	0.196875
36.566667	1	0.200500
36.583333	1	0.203875
36.600000	1	0.207375
36.616667	1	0.210625
36.633333	1	0.214125
36.650000	1	0.216750
36.666667	1	0.219875
36.683333	1	0.223250
36.700000	1	0.225625
36.716667	1	0.228875
36.733333	1	0.231125
36.750000	1	0.233500
36.766667	1	0.236250
36.783333	1	0.238750
36.800000	1	0.241500
36.816667	1	0.244625
36.833333	1	0.246750
36.850000	1	0.249375
36.866667	1	0.251625
36.883333	1	0.253125
36.900000	1	0.255250
36.916667	1	0.257500
36.933333	1	0.258750
36.950000	1	0.261000
36.966667	1	0.263000
36.983333	1	0.264500
37.000000	1	0.266000
37.016667	1	0.266875
37.033333	1	0.267500
37.050000	1	0.267875
37.066667	1	0.268000
37.083333	1	0.268375
37.100000	1	0.268625
37.116667	1	0.267500
37.133333	1	0.267000
37.150000	1	0.266000
37.166667	1	0.264125
37.183333	1	0.262500
37.200000	1	0.260500
37.216667	1	0.258375
37.233333	1	0.255500
37.250000	1	0.253125
37.266667	1	0.250125
37.283333	1	0.247000
37.300000	1	0.243625
37.316667	1	0.239875
37.333333	1	0.236500
37.350000	1	0.232250
37.366667	1	0.228250
37.383333	1	0.223500
37.400000	1	0.219375
37.416667	1	0.214500
37.433333	1	0.209500
37.450000	1	0.204125
37.466667	1	0.199500
37.483333	1	0.194875
37.500000	1	0.189625
37.516667	1	0.184625
37.533333	1	0.179500
37.550000	1	0.174750
37.566667	1	0.169375
37.583333	1	0.163625
37.600000	1	0.158125
37.616667	1	0.153500
37.633333	1	0.147875
37.650000	1	0.142500
37.666667	1	0.136875
37.683333	1	0.131500
37.700000	1	0.125875
37.716667	1	0.121000
37.733333	1	0.116125
37.750000	1	0.111000
37.766667	1	0.105875
37.783333	1	0.101000
37.800000	1	0.095625
37.816667	1	0.091625
37.833333	1	0.086875
37.850000	1	0.081875
37.866667	1	0.077250
37.883333	1	0.072375
37.900000	1	0.067500
37.916667	1	0.063750
37.933333	1	0.059625
37.950000	1	0.055750
37.966667	1	0.051375
37.983333	1	0.047000
38.000000	1	0.043375
38.016667	1	0.039625
38.033333	1	0.036125
38.050000	1	0.032625
38.066667	1	0.028875
38.083333	1	0.025500
38.100000	1	0.023000
38.116667	1	0.020250
38.133333	1	0.017375
38.150000	1	0.014375
38.166667	1	0.013000
38.183333	1	0.010750
38.200000	1	0.008375
38.216667	1	0.007375
38.233333	1	0.005375
38.250000	1	0.004125
38.266667	1	0.002625
38.283333	1	0.001875
38.300000	1	0.000625
38.316667	1	-0.000375
38.333333	1	-0.000625
38.350000	1	-0.000125
38.366667	1	-0.000875
38.383333	1	-0.001375
38.400000	1	-0.001625
38.416667	1	-0.001375
38.433333	1	-0.001500
38.450000	1	-0.001000
38.466667	1	-0.000125
38.483333	1	0.000375
38.500000	1	0.000500
38.516667	1	0.001250
38.533333	1	0.001125
38.550000	1	0.001625
38.566667	1	0.002625
38.583333	1	0.003375
38.600000	1	0.004000
38.616667	1	0.004375
38.633333	1	0.005125
38.650000	1	0.005375
38.666667	1	0.006125
38.683333	1	0.006750
38.700000	1	0.007250
38.716667	1	0.008000
38.733333	1	0.008625
38.750000	1	0.009750
38.766667	1	0.010875
38.783333	1	0.010750
38.800000	1	0.010500
38.816667	1	0.010875
38.833333	1	0.010750
38.850000	1	0.010750
38.866667	1	0.011625
38.883333	1	0.012125
38.900000	1	0.012750
38.916667	1	0.012500
38.933333	1	0.012500
38.950000	1	0.012375
38.966667	1	0.012375
38.983333	1	0.012000
39.000000	1	0.011750
39.016667	1	0.011375
39.033333	1	0.011625
39.050000	1	0.011000
39.066667	1	0.010125
39.083333	1	0.010500
39.100000	1	0.010125
39.116667	1	0.009875
39.133333	1	0.009625
39.150000	1	0.009125
39.166667	1	0.009125
39.183333	1	0.008375
39.200000	1	0.008250
39.216667	1	0.007875
39.233333	1	0.007250
39.250000	1	0.007125
39.266667	1	0.006625
39.283333	1	0.006125
39.300000	1	0.005750
39.316667	1	0.005875
39.333333	1	0.005500
39.350000	1	0.004750
39.366667	1	0.004125
39.383333	1	0.004125
39.400000	1	0.003875
39.416667	1	0.003875
39.433333	1	0.003000
39.450000	1	0.003000
39.466667	1	0.002875
39.483333	1	0.002250
39.500000	1	0.002125
39.516667	1	0.001750
39.533333	1	0.001500
39.550000	1	0.000750
39.566667	1	0.000250
39.583333	1	0.000000
39.600000	1	-0.000750
39.616667	1	-0.001125
39.633333	1	-0.002000
39.650000	1	-0.002125
39.666667	1	-0.002000
39.683333	1	-0.002125
39.700000	1	-0.001875
39.716667	1	-0.002000
39.733333	1	-0.002375
39.750000	1	-0.002000
39.766667	1	-0.001750
39.783333	1	-0.001500
39.800000	1	-0.001500
39.816667	1	-0.001250
39.833333	1	-0.001125
39.850000	1	-0.000875
39.866667	1	-0.000500
39.883333	1	-0.000125
39.900000	1	0.000500
39.916667	1	0.001500
39.933333	1	0.002625
39.950000	1	0.003125
39.966667	1	0.004000
39.983333	1	0.004750
40.000000	1	0.005125
