File Path	chrom://marshall/Chromeleon7/HPLC_Ultimate_3000/Users/markusar/20230107.seq/223.smp/RI_1.channel/RI_1.chm
Channel	RI_1

Injection Information:
Data Vault	Chromeleon7
Injection	ri1.2
Injection Number	11
Position	RB3
Comment	
Processing Method	
Instrument Method	std_method
Type	Unknown
Status	Finished
Injection Date	07.01.2023
Injection Time	22:43:46
Injection Volume (µl)	20.000
Dilution Factor	1.0000
Weight	1.0000

Chromatogram Data Information:
Time Min. (min)	0.000000
Time Max. (min)	40.000000
Data Points	2401
Detector	RI
Generating Data System	Chromeleon 7.2.5.9507
Exporting Data System	Chromeleon 7.2.5.0
Operator	Instrument Controller
Signal Quantity	Refractive 
Signal Unit	µRIU
Signal Min.	-0.097125
Signal Max.	110.433000
Channel	RI_1
Driver Name	RID520Driver.dll
Channel Type	Evaluation
Min. Step (s)	1
Max. Step (s)	1
Average Step (s)	1

Signal Parameter Information:
Signal Info	

Chromatogram Data:
Time (min)	Step (s)	Value (µRIU)
0.000000	n.a.	0.134750
0.016667	1	0.137500
0.033333	1	0.140625
0.050000	1	0.142000
0.066667	1	0.144625
0.083333	1	0.146875
0.100000	1	0.149250
0.116667	1	0.151000
0.133333	1	0.152625
0.150000	1	0.154875
0.166667	1	0.157125
0.183333	1	0.159000
0.200000	1	0.159875
0.216667	1	0.161375
0.233333	1	0.163125
0.250000	1	0.163750
0.266667	1	0.164500
0.283333	1	0.165500
0.300000	1	0.166000
0.316667	1	0.167125
0.333333	1	0.167750
0.350000	1	0.168625
0.366667	1	0.168625
0.383333	1	0.168500
0.400000	1	0.169500
0.416667	1	0.169125
0.433333	1	0.168875
0.450000	1	0.168375
0.466667	1	0.167875
0.483333	1	0.167750
0.500000	1	0.166500
0.516667	1	0.165500
0.533333	1	0.164875
0.550000	1	0.163250
0.566667	1	0.162750
0.583333	1	0.162250
0.600000	1	0.161875
0.616667	1	0.161000
0.633333	1	0.160000
0.650000	1	0.159250
0.666667	1	0.158500
0.683333	1	0.157000
0.700000	1	0.156125
0.716667	1	0.155000
0.733333	1	0.153000
0.750000	1	0.151125
0.766667	1	0.148375
0.783333	1	0.146125
0.800000	1	0.143000
0.816667	1	0.139375
0.833333	1	0.136750
0.850000	1	0.134125
0.866667	1	0.131000
0.883333	1	0.127375
0.900000	1	0.124625
0.916667	1	0.121875
0.933333	1	0.119125
0.950000	1	0.116500
0.966667	1	0.113750
0.983333	1	0.111250
1.000000	1	0.109125
1.016667	1	0.106375
1.033333	1	0.103500
1.050000	1	0.101500
1.066667	1	0.099750
1.083333	1	0.097125
1.100000	1	0.094375
1.116667	1	0.092250
1.133333	1	0.090000
1.150000	1	0.087125
1.166667	1	0.084750
1.183333	1	0.082625
1.200000	1	0.080250
1.216667	1	0.077625
1.233333	1	0.074875
1.250000	1	0.072250
1.266667	1	0.069500
1.283333	1	0.067125
1.300000	1	0.064875
1.316667	1	0.062000
1.333333	1	0.059375
1.350000	1	0.057250
1.366667	1	0.054875
1.383333	1	0.052500
1.400000	1	0.050000
1.416667	1	0.047250
1.433333	1	0.044875
1.450000	1	0.042250
1.466667	1	0.038875
1.483333	1	0.036625
1.500000	1	0.034250
1.516667	1	0.031375
1.533333	1	0.029250
1.550000	1	0.026750
1.566667	1	0.023875
1.583333	1	0.021500
1.600000	1	0.019125
1.616667	1	0.017125
1.633333	1	0.014125
1.650000	1	0.010875
1.666667	1	0.008375
1.683333	1	0.006375
1.700000	1	0.003375
1.716667	1	0.001375
1.733333	1	-0.001000
1.750000	1	-0.002875
1.766667	1	-0.005375
1.783333	1	-0.007750
1.800000	1	-0.010625
1.816667	1	-0.013500
1.833333	1	-0.016875
1.850000	1	-0.019250
1.866667	1	-0.022000
1.883333	1	-0.024625
1.900000	1	-0.027500
1.916667	1	-0.030000
1.933333	1	-0.032625
1.950000	1	-0.035250
1.966667	1	-0.038250
1.983333	1	-0.040125
2.000000	1	-0.043125
2.016667	1	-0.046500
2.033333	1	-0.048000
2.050000	1	-0.050875
2.066667	1	-0.053000
2.083333	1	-0.055250
2.100000	1	-0.057375
2.116667	1	-0.059625
2.133333	1	-0.061875
2.150000	1	-0.064250
2.166667	1	-0.066125
2.183333	1	-0.068875
2.200000	1	-0.070500
2.216667	1	-0.072500
2.233333	1	-0.074625
2.250000	1	-0.076500
2.266667	1	-0.078625
2.283333	1	-0.080500
2.300000	1	-0.082500
2.316667	1	-0.083625
2.333333	1	-0.084750
2.350000	1	-0.086250
2.366667	1	-0.087000
2.383333	1	-0.088625
2.400000	1	-0.089875
2.416667	1	-0.091500
2.433333	1	-0.092500
2.450000	1	-0.093000
2.466667	1	-0.093750
2.483333	1	-0.094500
2.500000	1	-0.095500
2.516667	1	-0.095750
2.533333	1	-0.096375
2.550000	1	-0.096625
2.566667	1	-0.095875
2.583333	1	-0.096500
2.600000	1	-0.096750
2.616667	1	-0.097125
2.633333	1	-0.097125
2.650000	1	-0.096500
2.666667	1	-0.095875
2.683333	1	-0.095750
2.700000	1	-0.095500
2.716667	1	-0.095500
2.733333	1	-0.094750
2.750000	1	-0.093875
2.766667	1	-0.093250
2.783333	1	-0.092250
2.800000	1	-0.091250
2.816667	1	-0.090250
2.833333	1	-0.089125
2.850000	1	-0.088625
2.866667	1	-0.087500
2.883333	1	-0.086375
2.900000	1	-0.085250
2.916667	1	-0.084000
2.933333	1	-0.082000
2.950000	1	-0.080750
2.966667	1	-0.080000
2.983333	1	-0.078250
3.000000	1	-0.077500
3.016667	1	-0.075500
3.033333	1	-0.074375
3.050000	1	-0.072875
3.066667	1	-0.071125
3.083333	1	-0.069625
3.100000	1	-0.068375
3.116667	1	-0.066125
3.133333	1	-0.064500
3.150000	1	-0.063250
3.166667	1	-0.061625
3.183333	1	-0.059000
3.200000	1	-0.057250
3.216667	1	-0.055750
3.233333	1	-0.053875
3.250000	1	-0.051750
3.266667	1	-0.049500
3.283333	1	-0.047375
3.300000	1	-0.044750
3.316667	1	-0.042375
3.333333	1	-0.040375
3.350000	1	-0.038000
3.366667	1	-0.036125
3.383333	1	-0.034000
3.400000	1	-0.031250
3.416667	1	-0.029375
3.433333	1	-0.026875
3.450000	1	-0.024750
3.466667	1	-0.022625
3.483333	1	-0.020250
3.500000	1	-0.018000
3.516667	1	-0.015750
3.533333	1	-0.013375
3.550000	1	-0.011250
3.566667	1	-0.009875
3.583333	1	-0.008250
3.600000	1	-0.005875
3.616667	1	-0.004125
3.633333	1	-0.002750
3.650000	1	-0.000875
3.666667	1	0.001250
3.683333	1	0.002000
3.700000	1	0.003375
3.716667	1	0.004500
3.733333	1	0.006000
3.750000	1	0.007625
3.766667	1	0.008750
3.783333	1	0.009750
3.800000	1	0.011125
3.816667	1	0.012375
3.833333	1	0.013500
3.850000	1	0.015125
3.866667	1	0.015875
3.883333	1	0.017500
3.900000	1	0.018375
3.916667	1	0.020000
3.933333	1	0.020375
3.950000	1	0.022250
3.966667	1	0.023625
3.983333	1	0.024500
4.000000	1	0.025500
4.016667	1	0.026625
4.033333	1	0.027500
4.050000	1	0.029125
4.066667	1	0.030375
4.083333	1	0.031000
4.100000	1	0.032125
4.116667	1	0.033000
4.133333	1	0.033125
4.150000	1	0.033750
4.166667	1	0.034625
4.183333	1	0.035250
4.200000	1	0.036125
4.216667	1	0.036625
4.233333	1	0.037500
4.250000	1	0.038250
4.266667	1	0.038375
4.283333	1	0.038625
4.300000	1	0.038750
4.316667	1	0.038500
4.333333	1	0.038875
4.350000	1	0.038500
4.366667	1	0.038250
4.383333	1	0.038125
4.400000	1	0.038375
4.416667	1	0.038250
4.433333	1	0.038125
4.450000	1	0.037500
4.466667	1	0.037250
4.483333	1	0.037125
4.500000	1	0.037000
4.516667	1	0.035875
4.533333	1	0.035000
4.550000	1	0.034125
4.566667	1	0.033750
4.583333	1	0.033500
4.600000	1	0.032500
4.616667	1	0.031750
4.633333	1	0.031125
4.650000	1	0.030625
4.666667	1	0.030000
4.683333	1	0.029500
4.700000	1	0.028125
4.716667	1	0.027375
4.733333	1	0.026750
4.750000	1	0.025625
4.766667	1	0.024875
4.783333	1	0.023875
4.800000	1	0.023250
4.816667	1	0.022375
4.833333	1	0.021125
4.850000	1	0.020250
4.866667	1	0.019375
4.883333	1	0.018125
4.900000	1	0.017000
4.916667	1	0.015375
4.933333	1	0.014375
4.950000	1	0.013375
4.966667	1	0.012750
4.983333	1	0.011625
5.000000	1	0.010875
5.016667	1	0.009250
5.033333	1	0.008000
5.050000	1	0.006875
5.066667	1	0.006250
5.083333	1	0.005375
5.100000	1	0.004125
5.116667	1	0.003250
5.133333	1	0.001875
5.150000	1	0.001375
5.166667	1	0.000250
5.183333	1	-0.000125
5.200000	1	-0.001250
5.216667	1	-0.001875
5.233333	1	-0.002250
5.250000	1	-0.002500
5.266667	1	-0.002875
5.283333	1	-0.003125
5.300000	1	-0.002875
5.316667	1	-0.003000
5.333333	1	-0.003125
5.350000	1	-0.003500
5.366667	1	-0.002750
5.383333	1	-0.002625
5.400000	1	-0.001875
5.416667	1	-0.001250
5.433333	1	-0.001000
5.450000	1	-0.000875
5.466667	1	-0.000125
5.483333	1	0.000000
5.500000	1	0.000750
5.516667	1	0.001750
5.533333	1	0.003375
5.550000	1	0.004750
5.566667	1	0.006375
5.583333	1	0.007000
5.600000	1	0.008500
5.616667	1	0.010500
5.633333	1	0.012375
5.650000	1	0.014125
5.666667	1	0.016000
5.683333	1	0.017500
5.700000	1	0.019250
5.716667	1	0.021250
5.733333	1	0.022875
5.750000	1	0.025000
5.766667	1	0.027500
5.783333	1	0.029875
5.800000	1	0.032625
5.816667	1	0.035125
5.833333	1	0.037250
5.850000	1	0.040125
5.866667	1	0.042625
5.883333	1	0.045750
5.900000	1	0.048125
5.916667	1	0.051250
5.933333	1	0.054375
5.950000	1	0.057250
5.966667	1	0.059000
5.983333	1	0.061625
6.000000	1	0.064125
6.016667	1	0.067000
6.033333	1	0.070125
6.050000	1	0.073000
6.066667	1	0.075375
6.083333	1	0.077875
6.100000	1	0.079875
6.116667	1	0.082375
6.133333	1	0.085250
6.150000	1	0.087500
6.166667	1	0.090000
6.183333	1	0.093125
6.200000	1	0.095375
6.216667	1	0.098000
6.233333	1	0.100125
6.250000	1	0.103125
6.266667	1	0.105500
6.283333	1	0.106875
6.300000	1	0.109250
6.316667	1	0.111500
6.333333	1	0.113375
6.350000	1	0.115000
6.366667	1	0.117250
6.383333	1	0.118750
6.400000	1	0.120250
6.416667	1	0.121250
6.433333	1	0.123000
6.450000	1	0.124375
6.466667	1	0.125000
6.483333	1	0.126500
6.500000	1	0.127750
6.516667	1	0.128375
6.533333	1	0.128875
6.550000	1	0.129750
6.566667	1	0.130125
6.583333	1	0.130750
6.600000	1	0.131375
6.616667	1	0.131875
6.633333	1	0.131875
6.650000	1	0.133250
6.666667	1	0.133125
6.683333	1	0.133000
6.700000	1	0.133375
6.716667	1	0.133125
6.733333	1	0.133250
6.750000	1	0.132875
6.766667	1	0.132375
6.783333	1	0.132000
6.800000	1	0.132125
6.816667	1	0.132000
6.833333	1	0.132000
6.850000	1	0.131875
6.866667	1	0.131625
6.883333	1	0.131500
6.900000	1	0.130875
6.916667	1	0.130875
6.933333	1	0.130625
6.950000	1	0.130250
6.966667	1	0.130125
6.983333	1	0.130125
7.000000	1	0.130125
7.016667	1	0.130000
7.033333	1	0.129875
7.050000	1	0.129375
7.066667	1	0.129875
7.083333	1	0.130250
7.100000	1	0.130625
7.116667	1	0.130625
7.133333	1	0.131000
7.150000	1	0.131125
7.166667	1	0.132125
7.183333	1	0.132500
7.200000	1	0.133500
7.216667	1	0.134125
7.233333	1	0.134750
7.250000	1	0.136000
7.266667	1	0.136750
7.283333	1	0.137750
7.300000	1	0.138125
7.316667	1	0.139250
7.333333	1	0.140250
7.350000	1	0.141500
7.366667	1	0.142625
7.383333	1	0.144000
7.400000	1	0.145375
7.416667	1	0.146625
7.433333	1	0.147750
7.450000	1	0.148750
7.466667	1	0.149875
7.483333	1	0.151500
7.500000	1	0.152750
7.516667	1	0.154250
7.533333	1	0.155500
7.550000	1	0.156000
7.566667	1	0.157125
7.583333	1	0.158500
7.600000	1	0.159875
7.616667	1	0.161000
7.633333	1	0.162125
7.650000	1	0.162750
7.666667	1	0.163625
7.683333	1	0.164250
7.700000	1	0.165125
7.716667	1	0.166250
7.733333	1	0.166750
7.750000	1	0.167250
7.766667	1	0.167500
7.783333	1	0.170000
7.800000	1	0.170625
7.816667	1	0.165625
7.833333	1	0.160625
7.850000	1	0.157500
7.866667	1	0.157375
7.883333	1	0.162625
7.900000	1	0.166000
7.916667	1	0.168125
7.933333	1	0.169750
7.950000	1	0.170750
7.966667	1	0.171375
7.983333	1	0.171250
8.000000	1	0.171500
8.016667	1	0.170875
8.033333	1	0.170875
8.050000	1	0.170500
8.066667	1	0.170125
8.083333	1	0.170000
8.100000	1	0.169750
8.116667	1	0.169375
8.133333	1	0.168375
8.150000	1	0.167750
8.166667	1	0.166625
8.183333	1	0.166000
8.200000	1	0.165750
8.216667	1	0.165125
8.233333	1	0.163625
8.250000	1	0.162375
8.266667	1	0.161000
8.283333	1	0.159875
8.300000	1	0.158750
8.316667	1	0.157625
8.333333	1	0.156000
8.350000	1	0.154750
8.366667	1	0.153500
8.383333	1	0.152000
8.400000	1	0.151000
8.416667	1	0.148875
8.433333	1	0.147500
8.450000	1	0.146625
8.466667	1	0.144375
8.483333	1	0.142375
8.500000	1	0.141125
8.516667	1	0.139375
8.533333	1	0.137750
8.550000	1	0.135875
8.566667	1	0.133875
8.583333	1	0.132000
8.600000	1	0.130500
8.616667	1	0.128875
8.633333	1	0.127375
8.650000	1	0.125750
8.666667	1	0.124375
8.683333	1	0.122875
8.700000	1	0.121625
8.716667	1	0.120750
8.733333	1	0.118750
8.750000	1	0.117625
8.766667	1	0.116000
8.783333	1	0.114750
8.800000	1	0.114375
8.816667	1	0.113625
8.833333	1	0.112750
8.850000	1	0.112500
8.866667	1	0.112375
8.883333	1	0.112250
8.900000	1	0.111750
8.916667	1	0.111250
8.933333	1	0.111500
8.950000	1	0.111500
8.966667	1	0.111625
8.983333	1	0.111500
9.000000	1	0.112375
9.016667	1	0.112750
9.033333	1	0.113625
9.050000	1	0.114375
9.066667	1	0.115000
9.083333	1	0.115875
9.100000	1	0.117000
9.116667	1	0.117875
9.133333	1	0.118375
9.150000	1	0.120125
9.166667	1	0.122000
9.183333	1	0.123125
9.200000	1	0.124125
9.216667	1	0.125500
9.233333	1	0.127125
9.250000	1	0.128750
9.266667	1	0.130125
9.283333	1	0.131750
9.300000	1	0.134625
9.316667	1	0.136625
9.333333	1	0.138625
9.350000	1	0.140375
9.366667	1	0.143000
9.383333	1	0.145375
9.400000	1	0.147500
9.416667	1	0.150625
9.433333	1	0.153625
9.450000	1	0.157250
9.466667	1	0.160375
9.483333	1	0.163500
9.500000	1	0.166625
9.516667	1	0.170125
9.533333	1	0.173750
9.550000	1	0.177875
9.566667	1	0.182625
9.583333	1	0.187875
9.600000	1	0.192625
9.616667	1	0.197625
9.633333	1	0.202875
9.650000	1	0.209375
9.666667	1	0.215875
9.683333	1	0.223250
9.700000	1	0.231625
9.716667	1	0.240500
9.733333	1	0.251000
9.750000	1	0.264000
9.766667	1	0.277875
9.783333	1	0.294125
9.800000	1	0.313500
9.816667	1	0.335000
9.833333	1	0.359875
9.850000	1	0.388125
9.866667	1	0.419625
9.883333	1	0.454750
9.900000	1	0.493750
9.916667	1	0.536125
9.933333	1	0.583500
9.950000	1	0.633375
9.966667	1	0.687750
9.983333	1	0.746375
10.000000	1	0.809375
10.016667	1	0.878625
10.033333	1	0.951750
10.050000	1	1.024625
10.066667	1	1.090875
10.083333	1	1.142125
10.100000	1	1.169250
10.116667	1	1.170125
10.133333	1	1.145625
10.150000	1	1.106375
10.166667	1	1.068750
10.183333	1	1.056125
10.200000	1	1.096875
10.216667	1	1.226625
10.233333	1	1.483375
10.250000	1	1.907000
10.266667	1	2.542375
10.283333	1	3.433625
10.300000	1	4.628750
10.316667	1	6.171500
10.333333	1	8.105875
10.350000	1	10.473875
10.366667	1	13.310375
10.383333	1	16.645750
10.400000	1	20.508750
10.416667	1	24.919375
10.433333	1	29.887125
10.450000	1	35.403875
10.466667	1	41.458125
10.483333	1	48.009625
10.500000	1	54.993125
10.516667	1	62.299875
10.533333	1	69.783125
10.550000	1	77.253875
10.566667	1	84.491625
10.583333	1	91.257875
10.600000	1	97.317250
10.616667	1	102.443000
10.633333	1	106.437000
10.650000	1	109.138875
10.666667	1	110.433000
10.683333	1	110.239000
10.700000	1	108.523250
10.716667	1	105.313875
10.733333	1	100.716625
10.750000	1	94.916250
10.766667	1	88.172375
10.783333	1	80.779125
10.800000	1	73.041875
10.816667	1	65.255375
10.833333	1	57.684875
10.850000	1	50.542500
10.866667	1	43.975375
10.883333	1	38.086750
10.900000	1	32.922750
10.916667	1	28.485500
10.933333	1	24.742500
10.950000	1	21.632250
10.966667	1	19.079125
10.983333	1	17.002250
11.000000	1	15.319750
11.016667	1	13.959000
11.033333	1	12.855125
11.050000	1	11.952875
11.066667	1	11.204875
11.083333	1	10.575625
11.100000	1	10.035000
11.116667	1	9.559625
11.133333	1	9.131875
11.150000	1	8.738625
11.166667	1	8.371125
11.183333	1	8.022500
11.200000	1	7.689000
11.216667	1	7.366500
11.233333	1	7.055750
11.250000	1	6.754750
11.266667	1	6.464750
11.283333	1	6.185875
11.300000	1	5.919000
11.316667	1	5.664000
11.333333	1	5.422250
11.350000	1	5.196625
11.366667	1	4.986500
11.383333	1	4.793250
11.400000	1	4.618250
11.416667	1	4.462625
11.433333	1	4.325375
11.450000	1	4.207375
11.466667	1	4.107000
11.483333	1	4.022000
11.500000	1	3.951375
11.516667	1	3.892250
11.533333	1	3.840875
11.550000	1	3.795250
11.566667	1	3.753375
11.583333	1	3.713625
11.600000	1	3.675875
11.616667	1	3.638625
11.633333	1	3.602875
11.650000	1	3.567500
11.666667	1	3.533625
11.683333	1	3.500500
11.700000	1	3.468000
11.716667	1	3.435125
11.733333	1	3.402625
11.750000	1	3.369875
11.766667	1	3.335500
11.783333	1	3.299875
11.800000	1	3.262375
11.816667	1	3.222625
11.833333	1	3.182125
11.850000	1	3.140000
11.866667	1	3.097875
11.883333	1	3.055125
11.900000	1	3.012750
11.916667	1	2.970750
11.933333	1	2.929500
11.950000	1	2.889250
11.966667	1	2.849625
11.983333	1	2.811750
12.000000	1	2.774250
12.016667	1	2.737625
12.033333	1	2.701000
12.050000	1	2.664500
12.066667	1	2.629875
12.083333	1	2.595000
12.100000	1	2.560375
12.116667	1	2.527125
12.133333	1	2.493875
12.150000	1	2.461875
12.166667	1	2.430500
12.183333	1	2.401000
12.200000	1	2.372250
12.216667	1	2.345625
12.233333	1	2.319750
12.250000	1	2.296750
12.266667	1	2.275375
12.283333	1	2.256625
12.300000	1	2.241000
12.316667	1	2.228500
12.333333	1	2.220500
12.350000	1	2.217125
12.366667	1	2.220625
12.383333	1	2.232000
12.400000	1	2.251500
12.416667	1	2.281125
12.433333	1	2.323250
12.450000	1	2.380750
12.466667	1	2.455000
12.483333	1	2.549250
12.500000	1	2.668875
12.516667	1	2.817000
12.533333	1	2.998125
12.550000	1	3.216000
12.566667	1	3.473125
12.583333	1	3.773625
12.600000	1	4.116250
12.616667	1	4.500375
12.633333	1	4.923750
12.650000	1	5.382125
12.666667	1	5.871000
12.683333	1	6.385000
12.700000	1	6.916750
12.716667	1	7.461250
12.733333	1	8.013750
12.750000	1	8.570125
12.766667	1	9.128750
12.783333	1	9.688875
12.800000	1	10.250000
12.816667	1	10.810750
12.833333	1	11.372500
12.850000	1	11.936125
12.866667	1	12.502375
12.883333	1	13.071000
12.900000	1	13.639375
12.916667	1	14.206000
12.933333	1	14.765625
12.950000	1	15.313375
12.966667	1	15.842250
12.983333	1	16.345000
13.000000	1	16.813250
13.016667	1	17.239250
13.033333	1	17.618125
13.050000	1	17.944125
13.066667	1	18.214125
13.083333	1	18.424125
13.100000	1	18.572250
13.116667	1	18.658875
13.133333	1	18.685625
13.150000	1	18.654750
13.166667	1	18.569000
13.183333	1	18.433250
13.200000	1	18.252125
13.216667	1	18.029500
13.233333	1	17.771500
13.250000	1	17.482125
13.266667	1	17.167625
13.283333	1	16.830750
13.300000	1	16.476750
13.316667	1	16.109750
13.333333	1	15.732875
13.350000	1	15.348125
13.366667	1	14.959750
13.383333	1	14.568750
13.400000	1	14.177250
13.416667	1	13.786625
13.433333	1	13.397375
13.450000	1	13.008875
13.466667	1	12.620250
13.483333	1	12.231375
13.500000	1	11.840125
13.516667	1	11.445250
13.533333	1	11.043375
13.550000	1	10.634000
13.566667	1	10.214500
13.583333	1	9.784500
13.600000	1	9.346125
13.616667	1	8.901250
13.633333	1	8.453625
13.650000	1	8.010125
13.666667	1	7.576375
13.683333	1	7.159375
13.700000	1	6.765625
13.716667	1	6.400375
13.733333	1	6.068250
13.750000	1	5.771625
13.766667	1	5.511500
13.783333	1	5.286500
13.800000	1	5.093625
13.816667	1	4.930000
13.833333	1	4.791125
13.850000	1	4.673000
13.866667	1	4.571250
13.883333	1	4.483375
13.900000	1	4.405250
13.916667	1	4.335625
13.933333	1	4.272875
13.950000	1	4.215750
13.966667	1	4.163125
13.983333	1	4.115125
14.000000	1	4.070125
14.016667	1	4.028000
14.033333	1	3.987000
14.050000	1	3.946250
14.066667	1	3.904625
14.083333	1	3.860375
14.100000	1	3.812375
14.116667	1	3.759375
14.133333	1	3.700125
14.150000	1	3.634625
14.166667	1	3.561875
14.183333	1	3.482875
14.200000	1	3.398625
14.216667	1	3.310625
14.233333	1	3.221375
14.250000	1	3.131625
14.266667	1	3.044875
14.283333	1	2.963000
14.300000	1	2.887500
14.316667	1	2.821375
14.333333	1	2.765875
14.350000	1	2.723000
14.366667	1	2.694750
14.383333	1	2.682750
14.400000	1	2.687250
14.416667	1	2.709750
14.433333	1	2.751500
14.450000	1	2.812500
14.466667	1	2.893000
14.483333	1	2.994250
14.500000	1	3.116500
14.516667	1	3.259000
14.533333	1	3.420375
14.550000	1	3.601250
14.566667	1	3.800875
14.583333	1	4.018375
14.600000	1	4.252375
14.616667	1	4.502625
14.633333	1	4.766750
14.650000	1	5.042625
14.666667	1	5.327000
14.683333	1	5.617500
14.700000	1	5.908125
14.716667	1	6.196125
14.733333	1	6.480125
14.750000	1	6.756875
14.766667	1	7.027000
14.783333	1	7.291875
14.800000	1	7.553625
14.816667	1	7.820500
14.833333	1	8.100250
14.850000	1	8.403375
14.866667	1	8.742375
14.883333	1	9.129625
14.900000	1	9.576750
14.916667	1	10.093125
14.933333	1	10.684875
14.950000	1	11.352750
14.966667	1	12.092375
14.983333	1	12.895625
15.000000	1	13.748000
15.016667	1	14.632500
15.033333	1	15.530125
15.050000	1	16.421500
15.066667	1	17.287375
15.083333	1	18.111375
15.100000	1	18.880750
15.116667	1	19.582250
15.133333	1	20.212500
15.150000	1	20.767000
15.166667	1	21.242875
15.183333	1	21.638875
15.200000	1	21.955250
15.216667	1	22.190625
15.233333	1	22.343375
15.250000	1	22.410750
15.266667	1	22.390375
15.283333	1	22.276250
15.300000	1	22.066250
15.316667	1	21.757875
15.333333	1	21.351250
15.350000	1	20.850375
15.366667	1	20.259125
15.383333	1	19.588125
15.400000	1	18.846625
15.416667	1	18.045875
15.433333	1	17.198000
15.450000	1	16.315125
15.466667	1	15.409750
15.483333	1	14.494750
15.500000	1	13.582250
15.516667	1	12.683750
15.533333	1	11.806000
15.550000	1	10.959000
15.566667	1	10.149625
15.583333	1	9.383500
15.600000	1	8.664125
15.616667	1	7.994250
15.633333	1	7.376000
15.650000	1	6.808750
15.666667	1	6.293750
15.683333	1	5.828250
15.700000	1	5.412875
15.716667	1	5.043750
15.733333	1	4.717625
15.750000	1	4.430625
15.766667	1	4.181000
15.783333	1	3.964000
15.800000	1	3.778375
15.816667	1	3.620250
15.833333	1	3.488000
15.850000	1	3.379125
15.866667	1	3.291750
15.883333	1	3.225500
15.900000	1	3.179375
15.916667	1	3.151500
15.933333	1	3.140500
15.950000	1	3.145375
15.966667	1	3.164250
15.983333	1	3.194875
16.000000	1	3.236000
16.016667	1	3.285750
16.033333	1	3.343250
16.050000	1	3.406000
16.066667	1	3.473750
16.083333	1	3.545625
16.100000	1	3.621875
16.116667	1	3.704375
16.133333	1	3.794375
16.150000	1	3.895000
16.166667	1	4.008625
16.183333	1	4.138625
16.200000	1	4.287625
16.216667	1	4.457250
16.233333	1	4.647750
16.250000	1	4.858500
16.266667	1	5.086750
16.283333	1	5.329125
16.300000	1	5.580500
16.316667	1	5.835125
16.333333	1	6.087375
16.350000	1	6.331125
16.366667	1	6.560500
16.383333	1	6.771625
16.400000	1	6.961750
16.416667	1	7.129375
16.433333	1	7.271875
16.450000	1	7.391000
16.466667	1	7.487375
16.483333	1	7.561375
16.500000	1	7.614500
16.516667	1	7.646875
16.533333	1	7.659500
16.550000	1	7.652625
16.566667	1	7.626250
16.583333	1	7.579125
16.600000	1	7.512375
16.616667	1	7.425125
16.633333	1	7.317000
16.650000	1	7.186750
16.666667	1	7.035500
16.683333	1	6.864000
16.700000	1	6.673500
16.716667	1	6.466750
16.733333	1	6.244125
16.750000	1	6.009500
16.766667	1	5.765625
16.783333	1	5.516250
16.800000	1	5.264000
16.816667	1	5.011250
16.833333	1	4.761125
16.850000	1	4.515250
16.866667	1	4.277500
16.883333	1	4.048000
16.900000	1	3.829500
16.916667	1	3.622375
16.933333	1	3.427875
16.950000	1	3.246875
16.966667	1	3.079875
16.983333	1	2.925250
17.000000	1	2.784125
17.016667	1	2.656750
17.033333	1	2.541875
17.050000	1	2.438875
17.066667	1	2.345750
17.083333	1	2.263875
17.100000	1	2.190750
17.116667	1	2.125500
17.133333	1	2.068500
17.150000	1	2.019000
17.166667	1	1.975000
17.183333	1	1.936625
17.200000	1	1.902000
17.216667	1	1.871500
17.233333	1	1.844125
17.250000	1	1.819625
17.266667	1	1.797250
17.283333	1	1.776625
17.300000	1	1.757250
17.316667	1	1.739375
17.333333	1	1.722125
17.350000	1	1.706250
17.366667	1	1.691375
17.383333	1	1.676750
17.400000	1	1.661625
17.416667	1	1.647750
17.433333	1	1.634375
17.450000	1	1.621250
17.466667	1	1.609125
17.483333	1	1.597000
17.500000	1	1.586500
17.516667	1	1.576125
17.533333	1	1.565750
17.550000	1	1.555500
17.566667	1	1.546125
17.583333	1	1.538125
17.600000	1	1.530125
17.616667	1	1.523125
17.633333	1	1.516750
17.650000	1	1.511375
17.666667	1	1.506250
17.683333	1	1.501750
17.700000	1	1.498875
17.716667	1	1.497000
17.733333	1	1.496750
17.750000	1	1.496750
17.766667	1	1.498625
17.783333	1	1.502375
17.800000	1	1.507750
17.816667	1	1.515125
17.833333	1	1.523625
17.850000	1	1.534500
17.866667	1	1.547000
17.883333	1	1.561625
17.900000	1	1.578000
17.916667	1	1.595750
17.933333	1	1.615500
17.950000	1	1.636750
17.966667	1	1.658875
17.983333	1	1.681875
18.000000	1	1.705875
18.016667	1	1.730500
18.033333	1	1.755250
18.050000	1	1.779375
18.066667	1	1.803625
18.083333	1	1.827625
18.100000	1	1.851625
18.116667	1	1.874125
18.133333	1	1.895750
18.150000	1	1.916125
18.166667	1	1.934750
18.183333	1	1.952500
18.200000	1	1.969000
18.216667	1	1.983875
18.233333	1	1.997125
18.250000	1	2.008875
18.266667	1	2.017875
18.283333	1	2.024500
18.300000	1	2.029750
18.316667	1	2.032250
18.333333	1	2.032000
18.350000	1	2.030000
18.366667	1	2.025375
18.383333	1	2.018875
18.400000	1	2.010125
18.416667	1	1.999750
18.433333	1	1.987875
18.450000	1	1.974125
18.466667	1	1.959125
18.483333	1	1.943375
18.500000	1	1.926500
18.516667	1	1.908000
18.533333	1	1.889125
18.550000	1	1.869750
18.566667	1	1.849875
18.583333	1	1.829500
18.600000	1	1.808750
18.616667	1	1.787875
18.633333	1	1.765875
18.650000	1	1.743500
18.666667	1	1.721750
18.683333	1	1.699500
18.700000	1	1.676750
18.716667	1	1.653875
18.733333	1	1.631625
18.750000	1	1.609625
18.766667	1	1.587875
18.783333	1	1.566250
18.800000	1	1.545125
18.816667	1	1.523625
18.833333	1	1.503625
18.850000	1	1.484500
18.866667	1	1.465125
18.883333	1	1.446750
18.900000	1	1.428750
18.916667	1	1.412250
18.933333	1	1.395625
18.950000	1	1.379375
18.966667	1	1.363875
18.983333	1	1.348875
19.000000	1	1.334750
19.016667	1	1.321000
19.033333	1	1.307875
19.050000	1	1.295125
19.066667	1	1.284250
19.083333	1	1.274000
19.100000	1	1.265875
19.116667	1	1.259000
19.133333	1	1.253875
19.150000	1	1.251000
19.166667	1	1.250500
19.183333	1	1.253500
19.200000	1	1.258375
19.216667	1	1.266625
19.233333	1	1.277500
19.250000	1	1.291875
19.266667	1	1.310125
19.283333	1	1.331125
19.300000	1	1.354750
19.316667	1	1.380875
19.333333	1	1.409000
19.350000	1	1.439500
19.366667	1	1.471500
19.383333	1	1.503625
19.400000	1	1.537250
19.416667	1	1.570000
19.433333	1	1.603000
19.450000	1	1.635125
19.466667	1	1.666750
19.483333	1	1.697125
19.500000	1	1.724875
19.516667	1	1.751375
19.533333	1	1.776125
19.550000	1	1.799250
19.566667	1	1.820375
19.583333	1	1.838750
19.600000	1	1.854375
19.616667	1	1.868125
19.633333	1	1.878625
19.650000	1	1.886750
19.666667	1	1.892250
19.683333	1	1.894750
19.700000	1	1.894125
19.716667	1	1.890875
19.733333	1	1.883625
19.750000	1	1.873250
19.766667	1	1.860375
19.783333	1	1.844500
19.800000	1	1.826000
19.816667	1	1.804125
19.833333	1	1.781875
19.850000	1	1.757250
19.866667	1	1.730625
19.883333	1	1.702500
19.900000	1	1.674000
19.916667	1	1.644875
19.933333	1	1.616500
19.950000	1	1.588250
19.966667	1	1.561375
19.983333	1	1.536375
20.000000	1	1.513125
20.016667	1	1.491875
20.033333	1	1.472375
20.050000	1	1.455000
20.066667	1	1.439375
20.083333	1	1.426000
20.100000	1	1.415250
20.116667	1	1.406125
20.133333	1	1.399000
20.150000	1	1.394125
20.166667	1	1.390375
20.183333	1	1.389000
20.200000	1	1.388375
20.216667	1	1.388875
20.233333	1	1.390750
20.250000	1	1.394125
20.266667	1	1.397250
20.283333	1	1.402625
20.300000	1	1.409500
20.316667	1	1.417500
20.333333	1	1.427000
20.350000	1	1.437000
20.366667	1	1.448625
20.383333	1	1.462125
20.400000	1	1.478000
20.416667	1	1.495125
20.433333	1	1.514875
20.450000	1	1.536875
20.466667	1	1.560875
20.483333	1	1.586500
20.500000	1	1.614625
20.516667	1	1.644375
20.533333	1	1.674625
20.550000	1	1.705500
20.566667	1	1.737625
20.583333	1	1.769875
20.600000	1	1.802375
20.616667	1	1.833250
20.633333	1	1.862500
20.650000	1	1.890500
20.666667	1	1.916375
20.683333	1	1.940375
20.700000	1	1.962250
20.716667	1	1.982250
20.733333	1	2.000000
20.750000	1	2.015000
20.766667	1	2.028875
20.783333	1	2.041250
20.800000	1	2.052250
20.816667	1	2.062625
20.833333	1	2.070750
20.850000	1	2.078500
20.866667	1	2.085125
20.883333	1	2.091125
20.900000	1	2.097000
20.916667	1	2.101125
20.933333	1	2.104375
20.950000	1	2.107625
20.966667	1	2.109125
20.983333	1	2.108875
21.000000	1	2.107750
21.016667	1	2.104750
21.033333	1	2.099125
21.050000	1	2.091500
21.066667	1	2.081000
21.083333	1	2.068375
21.100000	1	2.053750
21.116667	1	2.036750
21.133333	1	2.017625
21.150000	1	1.996750
21.166667	1	1.974875
21.183333	1	1.950500
21.200000	1	1.925500
21.216667	1	1.900250
21.233333	1	1.875000
21.250000	1	1.849750
21.266667	1	1.824875
21.283333	1	1.800250
21.300000	1	1.776500
21.316667	1	1.753250
21.333333	1	1.729875
21.350000	1	1.708500
21.366667	1	1.687125
21.383333	1	1.666000
21.400000	1	1.644375
21.416667	1	1.622125
21.433333	1	1.598500
21.450000	1	1.574250
21.466667	1	1.548750
21.483333	1	1.521375
21.500000	1	1.492000
21.516667	1	1.461250
21.533333	1	1.429125
21.550000	1	1.394000
21.566667	1	1.358375
21.583333	1	1.321375
21.600000	1	1.283000
21.616667	1	1.243500
21.633333	1	1.204125
21.650000	1	1.163625
21.666667	1	1.124625
21.683333	1	1.085375
21.700000	1	1.048500
21.716667	1	1.012000
21.733333	1	0.976125
21.750000	1	0.942500
21.766667	1	0.910625
21.783333	1	0.880625
21.800000	1	0.852000
21.816667	1	0.826000
21.833333	1	0.802000
21.850000	1	0.779625
21.866667	1	0.759500
21.883333	1	0.741250
21.900000	1	0.725250
21.916667	1	0.711250
21.933333	1	0.698500
21.950000	1	0.688125
21.966667	1	0.679875
21.983333	1	0.672375
22.000000	1	0.667125
22.016667	1	0.663375
22.033333	1	0.661000
22.050000	1	0.660250
22.066667	1	0.660250
22.083333	1	0.661625
22.100000	1	0.663625
22.116667	1	0.667250
22.133333	1	0.670875
22.150000	1	0.675375
22.166667	1	0.680750
22.183333	1	0.685875
22.200000	1	0.691250
22.216667	1	0.696875
22.233333	1	0.701500
22.250000	1	0.706250
22.266667	1	0.711500
22.283333	1	0.716000
22.300000	1	0.720250
22.316667	1	0.723875
22.333333	1	0.727375
22.350000	1	0.730875
22.366667	1	0.733750
22.383333	1	0.736250
22.400000	1	0.738250
22.416667	1	0.740125
22.433333	1	0.741000
22.450000	1	0.740875
22.466667	1	0.740750
22.483333	1	0.739500
22.500000	1	0.737375
22.516667	1	0.735875
22.533333	1	0.733625
22.550000	1	0.730625
22.566667	1	0.728000
22.583333	1	0.724000
22.600000	1	0.719625
22.616667	1	0.715875
22.633333	1	0.712000
22.650000	1	0.707875
22.666667	1	0.703000
22.683333	1	0.698375
22.700000	1	0.694875
22.716667	1	0.691750
22.733333	1	0.688250
22.750000	1	0.685125
22.766667	1	0.683500
22.783333	1	0.682125
22.800000	1	0.681625
22.816667	1	0.681375
22.833333	1	0.681750
22.850000	1	0.682625
22.866667	1	0.683625
22.883333	1	0.685750
22.900000	1	0.688750
22.916667	1	0.692125
22.933333	1	0.695500
22.950000	1	0.699000
22.966667	1	0.702500
22.983333	1	0.706250
23.000000	1	0.709875
23.016667	1	0.712875
23.033333	1	0.716250
23.050000	1	0.719625
23.066667	1	0.721625
23.083333	1	0.724000
23.100000	1	0.725750
23.116667	1	0.726750
23.133333	1	0.727375
23.150000	1	0.727750
23.166667	1	0.727500
23.183333	1	0.726375
23.200000	1	0.725250
23.216667	1	0.723875
23.233333	1	0.721375
23.250000	1	0.718625
23.266667	1	0.715500
23.283333	1	0.711625
23.300000	1	0.707000
23.316667	1	0.702000
23.333333	1	0.696625
23.350000	1	0.690625
23.366667	1	0.684375
23.383333	1	0.678000
23.400000	1	0.670875
23.416667	1	0.662875
23.433333	1	0.654750
23.450000	1	0.646875
23.466667	1	0.637750
23.483333	1	0.629125
23.500000	1	0.620250
23.516667	1	0.611625
23.533333	1	0.602875
23.550000	1	0.593625
23.566667	1	0.584250
23.583333	1	0.575875
23.600000	1	0.567500
23.616667	1	0.559875
23.633333	1	0.552625
23.650000	1	0.545000
23.666667	1	0.537625
23.683333	1	0.532000
23.700000	1	0.527000
23.716667	1	0.522750
23.733333	1	0.519375
23.750000	1	0.517375
23.766667	1	0.517250
23.783333	1	0.518750
23.800000	1	0.522500
23.816667	1	0.528125
23.833333	1	0.536500
23.850000	1	0.547000
23.866667	1	0.560750
23.883333	1	0.577250
23.900000	1	0.597125
23.916667	1	0.619375
23.933333	1	0.644750
23.950000	1	0.673625
23.966667	1	0.704750
23.983333	1	0.738625
24.000000	1	0.774750
24.016667	1	0.812500
24.033333	1	0.852125
24.050000	1	0.892125
24.066667	1	0.933750
24.083333	1	0.975500
24.100000	1	1.017125
24.116667	1	1.057875
24.133333	1	1.098000
24.150000	1	1.137625
24.166667	1	1.175500
24.183333	1	1.211875
24.200000	1	1.246625
24.216667	1	1.279250
24.233333	1	1.309875
24.250000	1	1.338375
24.266667	1	1.364875
24.283333	1	1.388875
24.300000	1	1.410625
24.316667	1	1.430125
24.333333	1	1.446625
24.350000	1	1.461000
24.366667	1	1.472750
24.383333	1	1.480875
24.400000	1	1.485875
24.416667	1	1.488125
24.433333	1	1.487750
24.450000	1	1.484000
24.466667	1	1.476500
24.483333	1	1.465750
24.500000	1	1.451750
24.516667	1	1.435000
24.533333	1	1.415500
24.550000	1	1.392750
24.566667	1	1.368875
24.583333	1	1.342500
24.600000	1	1.314375
24.616667	1	1.285125
24.633333	1	1.255250
24.650000	1	1.224875
24.666667	1	1.194000
24.683333	1	1.163625
24.700000	1	1.133875
24.716667	1	1.104750
24.733333	1	1.076875
24.750000	1	1.050500
24.766667	1	1.025125
24.783333	1	1.002000
24.800000	1	0.980250
24.816667	1	0.959875
24.833333	1	0.941500
24.850000	1	0.925125
24.866667	1	0.910625
24.883333	1	0.897000
24.900000	1	0.885125
24.916667	1	0.874125
24.933333	1	0.864375
24.950000	1	0.856125
24.966667	1	0.849000
24.983333	1	0.842375
25.000000	1	0.836000
25.016667	1	0.829875
25.033333	1	0.824125
25.050000	1	0.818125
25.066667	1	0.812375
25.083333	1	0.807125
25.100000	1	0.800750
25.116667	1	0.793875
25.133333	1	0.786625
25.150000	1	0.778625
25.166667	1	0.770250
25.183333	1	0.761375
25.200000	1	0.751250
25.216667	1	0.740250
25.233333	1	0.728875
25.250000	1	0.716125
25.266667	1	0.702625
25.283333	1	0.689000
25.300000	1	0.674875
25.316667	1	0.659250
25.333333	1	0.643625
25.350000	1	0.628375
25.366667	1	0.611625
25.383333	1	0.594750
25.400000	1	0.579375
25.416667	1	0.562750
25.433333	1	0.546750
25.450000	1	0.530625
25.466667	1	0.515125
25.483333	1	0.500375
25.500000	1	0.486500
25.516667	1	0.473000
25.533333	1	0.459750
25.550000	1	0.447250
25.566667	1	0.435875
25.583333	1	0.425500
25.600000	1	0.416000
25.616667	1	0.406750
25.633333	1	0.398625
25.650000	1	0.392000
25.666667	1	0.386125
25.683333	1	0.381375
25.700000	1	0.376375
25.716667	1	0.372625
25.733333	1	0.369375
25.750000	1	0.367000
25.766667	1	0.365000
25.783333	1	0.363875
25.800000	1	0.363500
25.816667	1	0.363625
25.833333	1	0.363750
25.850000	1	0.364250
25.866667	1	0.365250
25.883333	1	0.366500
25.900000	1	0.368000
25.916667	1	0.370375
25.933333	1	0.373500
25.950000	1	0.375375
25.966667	1	0.378250
25.983333	1	0.380875
26.000000	1	0.383625
26.016667	1	0.386125
26.033333	1	0.388750
26.050000	1	0.391125
26.066667	1	0.394375
26.083333	1	0.397375
26.100000	1	0.400000
26.116667	1	0.402750
26.133333	1	0.405875
26.150000	1	0.408500
26.166667	1	0.410750
26.183333	1	0.413000
26.200000	1	0.415250
26.216667	1	0.417625
26.233333	1	0.419500
26.250000	1	0.421500
26.266667	1	0.423875
26.283333	1	0.425875
26.300000	1	0.427625
26.316667	1	0.429625
26.333333	1	0.432625
26.350000	1	0.435250
26.366667	1	0.438250
26.383333	1	0.440500
26.400000	1	0.442750
26.416667	1	0.446125
26.433333	1	0.449750
26.450000	1	0.452125
26.466667	1	0.455250
26.483333	1	0.458875
26.500000	1	0.462250
26.516667	1	0.466625
26.533333	1	0.470500
26.550000	1	0.475000
26.566667	1	0.479000
26.583333	1	0.483250
26.600000	1	0.487125
26.616667	1	0.491375
26.633333	1	0.495125
26.650000	1	0.499750
26.666667	1	0.503375
26.683333	1	0.507000
26.700000	1	0.510125
26.716667	1	0.513250
26.733333	1	0.515875
26.750000	1	0.519500
26.766667	1	0.521875
26.783333	1	0.524000
26.800000	1	0.526375
26.816667	1	0.527750
26.833333	1	0.528625
26.850000	1	0.529500
26.866667	1	0.529875
26.883333	1	0.529750
26.900000	1	0.529625
26.916667	1	0.528500
26.933333	1	0.527875
26.950000	1	0.526125
26.966667	1	0.524125
26.983333	1	0.522000
27.000000	1	0.519000
27.016667	1	0.516000
27.033333	1	0.513625
27.050000	1	0.510625
27.066667	1	0.506625
27.083333	1	0.503250
27.100000	1	0.500375
27.116667	1	0.497000
27.133333	1	0.492375
27.150000	1	0.487875
27.166667	1	0.483125
27.183333	1	0.478125
27.200000	1	0.473000
27.216667	1	0.467750
27.233333	1	0.462000
27.250000	1	0.456125
27.266667	1	0.449750
27.283333	1	0.443250
27.300000	1	0.436000
27.316667	1	0.429000
27.333333	1	0.422000
27.350000	1	0.415625
27.366667	1	0.408125
27.383333	1	0.399625
27.400000	1	0.391250
27.416667	1	0.383375
27.433333	1	0.375250
27.450000	1	0.367000
27.466667	1	0.358750
27.483333	1	0.350500
27.500000	1	0.343000
27.516667	1	0.335375
27.533333	1	0.328125
27.550000	1	0.320375
27.566667	1	0.312750
27.583333	1	0.304750
27.600000	1	0.298000
27.616667	1	0.291625
27.633333	1	0.285750
27.650000	1	0.281375
27.666667	1	0.277250
27.683333	1	0.274500
27.700000	1	0.273250
27.716667	1	0.272500
27.733333	1	0.272875
27.750000	1	0.276125
27.766667	1	0.281000
27.783333	1	0.287875
27.800000	1	0.298625
27.816667	1	0.311625
27.833333	1	0.328625
27.850000	1	0.349625
27.866667	1	0.375500
27.883333	1	0.406375
27.900000	1	0.442875
27.916667	1	0.484875
27.933333	1	0.532625
27.950000	1	0.586625
27.966667	1	0.645875
27.983333	1	0.711250
28.000000	1	0.782875
28.016667	1	0.861000
28.033333	1	0.944875
28.050000	1	1.033750
28.066667	1	1.127750
28.083333	1	1.225750
28.100000	1	1.327375
28.116667	1	1.431500
28.133333	1	1.537375
28.150000	1	1.644750
28.166667	1	1.752125
28.183333	1	1.857750
28.200000	1	1.962625
28.216667	1	2.064250
28.233333	1	2.164000
28.250000	1	2.260250
28.266667	1	2.351000
28.283333	1	2.438500
28.300000	1	2.520375
28.316667	1	2.597375
28.333333	1	2.670000
28.350000	1	2.737000
28.366667	1	2.798750
28.383333	1	2.854875
28.400000	1	2.906625
28.416667	1	2.953125
28.433333	1	2.994250
28.450000	1	3.031250
28.466667	1	3.063375
28.483333	1	3.091000
28.500000	1	3.113375
28.516667	1	3.131125
28.533333	1	3.143625
28.550000	1	3.151000
28.566667	1	3.152500
28.583333	1	3.148375
28.600000	1	3.137000
28.616667	1	3.119500
28.633333	1	3.094500
28.650000	1	3.063875
28.666667	1	3.025375
28.683333	1	2.979625
28.700000	1	2.926750
28.716667	1	2.866750
28.733333	1	2.798500
28.750000	1	2.723750
28.766667	1	2.641750
28.783333	1	2.554625
28.800000	1	2.461000
28.816667	1	2.362625
28.833333	1	2.260625
28.850000	1	2.154500
28.866667	1	2.045375
28.883333	1	1.935500
28.900000	1	1.824250
28.916667	1	1.712125
28.933333	1	1.601875
28.950000	1	1.492500
28.966667	1	1.385750
28.983333	1	1.282000
29.000000	1	1.180875
29.016667	1	1.083250
29.033333	1	0.990375
29.050000	1	0.901875
29.066667	1	0.818500
29.083333	1	0.740000
29.100000	1	0.666250
29.116667	1	0.597125
29.133333	1	0.533750
29.150000	1	0.475375
29.166667	1	0.420625
29.183333	1	0.370875
29.200000	1	0.325375
29.216667	1	0.284500
29.233333	1	0.247250
29.250000	1	0.214000
29.266667	1	0.183500
29.283333	1	0.156750
29.300000	1	0.131750
29.316667	1	0.109750
29.333333	1	0.091000
29.350000	1	0.074500
29.366667	1	0.060125
29.383333	1	0.047625
29.400000	1	0.036750
29.416667	1	0.028125
29.433333	1	0.021250
29.450000	1	0.015875
29.466667	1	0.011625
29.483333	1	0.008625
29.500000	1	0.007375
29.516667	1	0.007375
29.533333	1	0.008875
29.550000	1	0.011250
29.566667	1	0.014750
29.583333	1	0.019500
29.600000	1	0.025875
29.616667	1	0.032750
29.633333	1	0.040375
29.650000	1	0.049250
29.666667	1	0.059250
29.683333	1	0.069500
29.700000	1	0.080875
29.716667	1	0.092500
29.733333	1	0.105625
29.750000	1	0.118875
29.766667	1	0.132250
29.783333	1	0.146750
29.800000	1	0.162000
29.816667	1	0.177500
29.833333	1	0.193875
29.850000	1	0.209750
29.866667	1	0.225000
29.883333	1	0.240125
29.900000	1	0.256500
29.916667	1	0.271250
29.933333	1	0.285875
29.950000	1	0.300500
29.966667	1	0.315375
29.983333	1	0.330125
30.000000	1	0.343625
30.016667	1	0.356875
30.033333	1	0.369625
30.050000	1	0.381750
30.066667	1	0.393625
30.083333	1	0.404250
30.100000	1	0.414750
30.116667	1	0.424625
30.133333	1	0.433750
30.150000	1	0.442125
30.166667	1	0.450250
30.183333	1	0.457625
30.200000	1	0.464500
30.216667	1	0.471375
30.233333	1	0.478250
30.250000	1	0.483625
30.266667	1	0.487875
30.283333	1	0.491375
30.300000	1	0.495875
30.316667	1	0.499375
30.333333	1	0.502125
30.350000	1	0.504375
30.366667	1	0.506750
30.383333	1	0.508250
30.400000	1	0.509750
30.416667	1	0.511125
30.433333	1	0.512250
30.450000	1	0.512250
30.466667	1	0.512375
30.483333	1	0.512000
30.500000	1	0.511875
30.516667	1	0.510500
30.533333	1	0.509000
30.550000	1	0.507125
30.566667	1	0.505000
30.583333	1	0.502125
30.600000	1	0.499750
30.616667	1	0.496875
30.633333	1	0.494500
30.650000	1	0.491750
30.666667	1	0.488875
30.683333	1	0.486000
30.700000	1	0.482500
30.716667	1	0.479000
30.733333	1	0.475375
30.750000	1	0.472875
30.766667	1	0.470500
30.783333	1	0.468625
30.800000	1	0.466625
30.816667	1	0.464750
30.833333	1	0.464000
30.850000	1	0.463250
30.866667	1	0.462250
30.883333	1	0.461875
30.900000	1	0.462250
30.916667	1	0.462875
30.933333	1	0.463375
30.950000	1	0.464750
30.966667	1	0.465875
30.983333	1	0.467125
31.000000	1	0.469125
31.016667	1	0.470875
31.033333	1	0.474625
31.050000	1	0.476625
31.066667	1	0.479000
31.083333	1	0.481375
31.100000	1	0.484000
31.116667	1	0.486000
31.133333	1	0.488250
31.150000	1	0.491000
31.166667	1	0.494000
31.183333	1	0.497000
31.200000	1	0.500625
31.216667	1	0.503125
31.233333	1	0.505125
31.250000	1	0.507875
31.266667	1	0.509875
31.283333	1	0.511500
31.300000	1	0.512875
31.316667	1	0.514375
31.333333	1	0.515500
31.350000	1	0.516750
31.366667	1	0.518250
31.383333	1	0.519625
31.400000	1	0.520375
31.416667	1	0.520750
31.433333	1	0.521125
31.450000	1	0.521875
31.466667	1	0.521875
31.483333	1	0.521250
31.500000	1	0.520750
31.516667	1	0.520000
31.533333	1	0.519000
31.550000	1	0.517500
31.566667	1	0.515500
31.583333	1	0.513500
31.600000	1	0.510375
31.616667	1	0.508125
31.633333	1	0.505750
31.650000	1	0.502250
31.666667	1	0.499625
31.683333	1	0.495375
31.700000	1	0.491875
31.716667	1	0.487250
31.733333	1	0.483000
31.750000	1	0.478500
31.766667	1	0.473875
31.783333	1	0.469625
31.800000	1	0.465750
31.816667	1	0.461000
31.833333	1	0.457500
31.850000	1	0.453000
31.866667	1	0.449500
31.883333	1	0.445125
31.900000	1	0.442000
31.916667	1	0.439750
31.933333	1	0.437500
31.950000	1	0.435500
31.966667	1	0.433000
31.983333	1	0.431750
32.000000	1	0.430625
32.016667	1	0.431250
32.033333	1	0.432000
32.050000	1	0.433250
32.066667	1	0.435000
32.083333	1	0.437125
32.100000	1	0.440000
32.116667	1	0.443125
32.133333	1	0.448000
32.150000	1	0.453000
32.166667	1	0.457625
32.183333	1	0.463250
32.200000	1	0.469625
32.216667	1	0.476250
32.233333	1	0.482625
32.250000	1	0.490250
32.266667	1	0.498000
32.283333	1	0.506125
32.300000	1	0.513750
32.316667	1	0.521625
32.333333	1	0.530375
32.350000	1	0.539375
32.366667	1	0.547750
32.383333	1	0.555875
32.400000	1	0.564750
32.416667	1	0.573500
32.433333	1	0.581875
32.450000	1	0.590000
32.466667	1	0.597750
32.483333	1	0.605625
32.500000	1	0.613375
32.516667	1	0.620000
32.533333	1	0.626875
32.550000	1	0.633625
32.566667	1	0.639125
32.583333	1	0.644250
32.600000	1	0.648500
32.616667	1	0.653250
32.633333	1	0.657750
32.650000	1	0.661375
32.666667	1	0.664000
32.683333	1	0.666000
32.700000	1	0.667875
32.716667	1	0.668750
32.733333	1	0.669625
32.750000	1	0.669125
32.766667	1	0.668125
32.783333	1	0.666875
32.800000	1	0.664125
32.816667	1	0.661500
32.833333	1	0.658250
32.850000	1	0.653875
32.866667	1	0.649000
32.883333	1	0.643625
32.900000	1	0.637750
32.916667	1	0.630875
32.933333	1	0.623500
32.950000	1	0.615125
32.966667	1	0.606250
32.983333	1	0.597000
33.000000	1	0.587125
33.016667	1	0.576500
33.033333	1	0.565625
33.050000	1	0.554500
33.066667	1	0.542625
33.083333	1	0.530125
33.100000	1	0.517125
33.116667	1	0.504000
33.133333	1	0.489750
33.150000	1	0.475500
33.166667	1	0.461625
33.183333	1	0.447125
33.200000	1	0.432500
33.216667	1	0.417750
33.233333	1	0.401875
33.250000	1	0.386500
33.266667	1	0.371750
33.283333	1	0.356500
33.300000	1	0.340875
33.316667	1	0.324875
33.333333	1	0.310250
33.350000	1	0.295250
33.366667	1	0.281500
33.383333	1	0.266875
33.400000	1	0.252000
33.416667	1	0.237750
33.433333	1	0.223875
33.450000	1	0.210500
33.466667	1	0.197750
33.483333	1	0.185375
33.500000	1	0.173375
33.516667	1	0.162375
33.533333	1	0.150500
33.550000	1	0.139250
33.566667	1	0.128375
33.583333	1	0.118875
33.600000	1	0.110000
33.616667	1	0.102000
33.633333	1	0.093125
33.650000	1	0.085500
33.666667	1	0.078125
33.683333	1	0.071250
33.700000	1	0.065625
33.716667	1	0.059250
33.733333	1	0.053375
33.750000	1	0.047750
33.766667	1	0.042750
33.783333	1	0.038500
33.800000	1	0.034875
33.816667	1	0.030250
33.833333	1	0.026625
33.850000	1	0.023750
33.866667	1	0.020875
33.883333	1	0.018750
33.900000	1	0.016500
33.916667	1	0.014500
33.933333	1	0.012750
33.950000	1	0.011500
33.966667	1	0.010125
33.983333	1	0.009000
34.000000	1	0.008125
34.016667	1	0.006125
34.033333	1	0.005000
34.050000	1	0.004500
34.066667	1	0.004750
34.083333	1	0.004750
34.100000	1	0.005125
34.116667	1	0.006125
34.133333	1	0.007125
34.150000	1	0.009375
34.166667	1	0.011125
34.183333	1	0.013500
34.200000	1	0.015875
34.216667	1	0.018500
34.233333	1	0.022375
34.250000	1	0.026125
34.266667	1	0.030625
34.283333	1	0.035875
34.300000	1	0.040875
34.316667	1	0.047250
34.333333	1	0.054375
34.350000	1	0.061500
34.366667	1	0.068750
34.383333	1	0.076500
34.400000	1	0.085625
34.416667	1	0.094375
34.433333	1	0.104500
34.450000	1	0.114375
34.466667	1	0.125000
34.483333	1	0.136000
34.500000	1	0.146875
34.516667	1	0.157375
34.533333	1	0.168500
34.550000	1	0.179875
34.566667	1	0.191750
34.583333	1	0.203500
34.600000	1	0.214375
34.616667	1	0.226125
34.633333	1	0.236875
34.650000	1	0.247750
34.666667	1	0.257875
34.683333	1	0.267875
34.700000	1	0.278000
34.716667	1	0.287250
34.733333	1	0.296625
34.750000	1	0.305500
34.766667	1	0.313875
34.783333	1	0.321375
34.800000	1	0.328750
34.816667	1	0.335375
34.833333	1	0.342625
34.850000	1	0.349250
34.866667	1	0.354875
34.883333	1	0.360250
34.900000	1	0.364750
34.916667	1	0.370000
34.933333	1	0.375000
34.950000	1	0.378250
34.966667	1	0.381000
34.983333	1	0.383250
35.000000	1	0.385000
35.016667	1	0.386875
35.033333	1	0.387125
35.050000	1	0.387375
35.066667	1	0.386750
35.083333	1	0.385500
35.100000	1	0.383375
35.116667	1	0.381250
35.133333	1	0.378125
35.150000	1	0.373750
35.166667	1	0.369250
35.183333	1	0.364000
35.200000	1	0.357750
35.216667	1	0.350125
35.233333	1	0.342750
35.250000	1	0.334000
35.266667	1	0.325000
35.283333	1	0.316000
35.300000	1	0.305875
35.316667	1	0.297000
35.333333	1	0.287125
35.350000	1	0.276750
35.366667	1	0.266000
35.383333	1	0.255375
35.400000	1	0.244375
35.416667	1	0.233375
35.433333	1	0.221750
35.450000	1	0.211250
35.466667	1	0.200625
35.483333	1	0.190250
35.500000	1	0.180375
35.516667	1	0.171000
35.533333	1	0.161875
35.550000	1	0.153125
35.566667	1	0.144250
35.583333	1	0.135875
35.600000	1	0.128125
35.616667	1	0.120750
35.633333	1	0.114625
35.650000	1	0.109000
35.666667	1	0.102875
35.683333	1	0.097625
35.700000	1	0.092750
35.716667	1	0.087750
35.733333	1	0.084000
35.750000	1	0.080125
35.766667	1	0.077000
35.783333	1	0.073625
35.800000	1	0.071250
35.816667	1	0.069000
35.833333	1	0.067375
35.850000	1	0.065625
35.866667	1	0.064000
35.883333	1	0.063750
35.900000	1	0.063125
35.916667	1	0.062625
35.933333	1	0.062375
35.950000	1	0.062750
35.966667	1	0.063000
35.983333	1	0.064125
36.000000	1	0.065375
36.016667	1	0.066625
36.033333	1	0.067750
36.050000	1	0.069125
36.066667	1	0.070250
36.083333	1	0.072375
36.100000	1	0.074000
36.116667	1	0.076125
36.133333	1	0.078625
36.150000	1	0.080875
36.166667	1	0.083625
36.183333	1	0.086500
36.200000	1	0.089750
36.216667	1	0.092875
36.233333	1	0.095500
36.250000	1	0.098125
36.266667	1	0.101750
36.283333	1	0.105500
36.300000	1	0.109125
36.316667	1	0.113000
36.333333	1	0.117500
36.350000	1	0.121375
36.366667	1	0.125500
36.383333	1	0.129875
36.400000	1	0.133875
36.416667	1	0.138250
36.433333	1	0.142375
36.450000	1	0.146375
36.466667	1	0.150125
36.483333	1	0.154250
36.500000	1	0.158375
36.516667	1	0.162750
36.533333	1	0.167000
36.550000	1	0.170750
36.566667	1	0.174250
36.583333	1	0.178250
36.600000	1	0.182625
36.616667	1	0.186750
36.633333	1	0.189750
36.650000	1	0.193375
36.666667	1	0.197250
36.683333	1	0.200625
36.700000	1	0.204125
36.716667	1	0.208000
36.733333	1	0.211875
36.750000	1	0.215000
36.766667	1	0.218500
36.783333	1	0.221625
36.800000	1	0.224875
36.816667	1	0.227500
36.833333	1	0.230500
36.850000	1	0.233000
36.866667	1	0.235750
36.883333	1	0.238875
36.900000	1	0.241375
36.916667	1	0.243750
36.933333	1	0.245750
36.950000	1	0.247625
36.966667	1	0.249250
36.983333	1	0.251125
37.000000	1	0.252375
37.016667	1	0.253875
37.033333	1	0.255000
37.050000	1	0.255500
37.066667	1	0.255625
37.083333	1	0.255875
37.100000	1	0.255375
37.116667	1	0.255125
37.133333	1	0.254125
37.150000	1	0.253625
37.166667	1	0.252375
37.183333	1	0.250500
37.200000	1	0.249000
37.216667	1	0.247125
37.233333	1	0.245000
37.250000	1	0.242000
37.266667	1	0.238875
37.283333	1	0.235250
37.300000	1	0.232500
37.316667	1	0.229375
37.333333	1	0.225625
37.350000	1	0.221250
37.366667	1	0.217250
37.383333	1	0.212750
37.400000	1	0.207750
37.416667	1	0.203500
37.433333	1	0.198375
37.450000	1	0.193125
37.466667	1	0.187750
37.483333	1	0.182625
37.500000	1	0.177625
37.516667	1	0.172250
37.533333	1	0.166750
37.550000	1	0.162375
37.566667	1	0.155750
37.583333	1	0.149625
37.600000	1	0.144125
37.616667	1	0.137875
37.633333	1	0.132500
37.650000	1	0.127000
37.666667	1	0.121125
37.683333	1	0.114625
37.700000	1	0.109375
37.716667	1	0.103625
37.733333	1	0.098000
37.750000	1	0.092500
37.766667	1	0.087500
37.783333	1	0.081500
37.800000	1	0.076125
37.816667	1	0.070750
37.833333	1	0.065625
37.850000	1	0.060375
37.866667	1	0.055875
37.883333	1	0.050875
37.900000	1	0.046000
37.916667	1	0.041875
37.933333	1	0.037500
37.950000	1	0.033500
37.966667	1	0.029000
37.983333	1	0.024875
38.000000	1	0.020375
38.016667	1	0.017000
38.033333	1	0.012625
38.050000	1	0.009250
38.066667	1	0.006500
38.083333	1	0.003250
38.100000	1	0.000125
38.116667	1	-0.002500
38.133333	1	-0.004875
38.150000	1	-0.007500
38.166667	1	-0.009750
38.183333	1	-0.012125
38.200000	1	-0.014000
38.216667	1	-0.016625
38.233333	1	-0.018750
38.250000	1	-0.020375
38.266667	1	-0.021375
38.283333	1	-0.022750
38.300000	1	-0.023500
38.316667	1	-0.024375
38.333333	1	-0.025625
38.350000	1	-0.025875
38.366667	1	-0.026625
38.383333	1	-0.027625
38.400000	1	-0.028625
38.416667	1	-0.029250
38.433333	1	-0.029625
38.450000	1	-0.029750
38.466667	1	-0.030000
38.483333	1	-0.030125
38.500000	1	-0.030000
38.516667	1	-0.029375
38.533333	1	-0.029750
38.550000	1	-0.029750
38.566667	1	-0.029500
38.583333	1	-0.028125
38.600000	1	-0.028000
38.616667	1	-0.028125
38.633333	1	-0.027750
38.650000	1	-0.028000
38.666667	1	-0.027625
38.683333	1	-0.027250
38.700000	1	-0.027125
38.716667	1	-0.027125
38.733333	1	-0.026625
38.750000	1	-0.026250
38.766667	1	-0.025750
38.783333	1	-0.025125
38.800000	1	-0.025000
38.816667	1	-0.025000
38.833333	1	-0.024875
38.850000	1	-0.025000
38.866667	1	-0.024750
38.883333	1	-0.024625
38.900000	1	-0.023875
38.916667	1	-0.023625
38.933333	1	-0.022750
38.950000	1	-0.021875
38.966667	1	-0.021750
38.983333	1	-0.021500
39.000000	1	-0.021125
39.016667	1	-0.020875
39.033333	1	-0.021000
39.050000	1	-0.021125
39.066667	1	-0.021125
39.083333	1	-0.021000
39.100000	1	-0.020375
39.116667	1	-0.020000
39.133333	1	-0.019750
39.150000	1	-0.020000
39.166667	1	-0.020125
39.183333	1	-0.020000
39.200000	1	-0.019750
39.216667	1	-0.020000
39.233333	1	-0.020000
39.250000	1	-0.020000
39.266667	1	-0.019750
39.283333	1	-0.019625
39.300000	1	-0.019750
39.316667	1	-0.019250
39.333333	1	-0.019125
39.350000	1	-0.019125
39.366667	1	-0.019375
39.383333	1	-0.019500
39.400000	1	-0.019875
39.416667	1	-0.019750
39.433333	1	-0.019125
39.450000	1	-0.019250
39.466667	1	-0.018625
39.483333	1	-0.018875
39.500000	1	-0.018500
39.516667	1	-0.018500
39.533333	1	-0.017875
39.550000	1	-0.017500
39.566667	1	-0.017875
39.583333	1	-0.018375
39.600000	1	-0.018625
39.616667	1	-0.019625
39.633333	1	-0.019625
39.650000	1	-0.020000
39.666667	1	-0.020250
39.683333	1	-0.020125
39.700000	1	-0.020125
39.716667	1	-0.020375
39.733333	1	-0.020750
39.750000	1	-0.020750
39.766667	1	-0.020750
39.783333	1	-0.021125
39.800000	1	-0.020875
39.816667	1	-0.020625
39.833333	1	-0.020500
39.850000	1	-0.019875
39.866667	1	-0.020125
39.883333	1	-0.020000
39.900000	1	-0.020500
39.916667	1	-0.020375
39.933333	1	-0.020375
39.950000	1	-0.020125
39.966667	1	-0.019375
39.983333	1	-0.018875
40.000000	1	-0.018375
