File Path	chrom://marshall/Chromeleon7/HPLC_Ultimate_3000/Users/markusar/20230107.seq/475.smp/RI_1.channel/RI_1.chm
Channel	RI_1

Injection Information:
Data Vault	Chromeleon7
Injection	ri1.3
Injection Number	12
Position	RB4
Comment	
Processing Method	
Instrument Method	std_method
Type	Unknown
Status	Finished
Injection Date	07.01.2023
Injection Time	23:24:44
Injection Volume (µl)	20.000
Dilution Factor	1.0000
Weight	1.0000

Chromatogram Data Information:
Time Min. (min)	0.000000
Time Max. (min)	40.000000
Data Points	2401
Detector	RI
Generating Data System	Chromeleon 7.2.5.9507
Exporting Data System	Chromeleon 7.2.5.0
Operator	Instrument Controller
Signal Quantity	Refractive 
Signal Unit	µRIU
Signal Min.	-0.075250
Signal Max.	110.517750
Channel	RI_1
Driver Name	RID520Driver.dll
Channel Type	Evaluation
Min. Step (s)	1
Max. Step (s)	1
Average Step (s)	1

Signal Parameter Information:
Signal Info	

Chromatogram Data:
Time (min)	Step (s)	Value (µRIU)
0.000000	n.a.	0.156875
0.016667	1	0.158500
0.033333	1	0.160125
0.050000	1	0.162750
0.066667	1	0.165375
0.083333	1	0.166750
0.100000	1	0.168750
0.116667	1	0.170875
0.133333	1	0.172875
0.150000	1	0.174500
0.166667	1	0.175875
0.183333	1	0.177000
0.200000	1	0.177250
0.216667	1	0.178000
0.233333	1	0.178500
0.250000	1	0.179500
0.266667	1	0.179750
0.283333	1	0.180125
0.300000	1	0.180125
0.316667	1	0.180000
0.333333	1	0.180250
0.350000	1	0.180500
0.366667	1	0.180375
0.383333	1	0.179875
0.400000	1	0.178875
0.416667	1	0.178250
0.433333	1	0.177500
0.450000	1	0.175500
0.466667	1	0.174000
0.483333	1	0.172875
0.500000	1	0.171750
0.516667	1	0.170125
0.533333	1	0.168000
0.550000	1	0.165750
0.566667	1	0.164000
0.583333	1	0.162500
0.600000	1	0.161500
0.616667	1	0.160125
0.633333	1	0.159125
0.650000	1	0.158125
0.666667	1	0.157125
0.683333	1	0.155875
0.700000	1	0.154250
0.716667	1	0.152375
0.733333	1	0.150250
0.750000	1	0.148250
0.766667	1	0.146375
0.783333	1	0.143250
0.800000	1	0.140500
0.816667	1	0.137375
0.833333	1	0.134875
0.850000	1	0.131750
0.866667	1	0.129125
0.883333	1	0.126625
0.900000	1	0.123750
0.916667	1	0.121375
0.933333	1	0.118875
0.950000	1	0.116625
0.966667	1	0.114500
0.983333	1	0.112750
1.000000	1	0.110750
1.016667	1	0.109000
1.033333	1	0.106875
1.050000	1	0.105250
1.066667	1	0.103750
1.083333	1	0.101500
1.100000	1	0.100500
1.116667	1	0.098625
1.133333	1	0.096375
1.150000	1	0.095375
1.166667	1	0.094000
1.183333	1	0.092500
1.200000	1	0.089750
1.216667	1	0.088500
1.233333	1	0.087250
1.250000	1	0.085625
1.266667	1	0.084375
1.283333	1	0.082625
1.300000	1	0.080750
1.316667	1	0.079000
1.333333	1	0.077125
1.350000	1	0.075250
1.366667	1	0.072875
1.383333	1	0.071125
1.400000	1	0.069375
1.416667	1	0.067375
1.433333	1	0.065000
1.450000	1	0.062500
1.466667	1	0.060125
1.483333	1	0.057750
1.500000	1	0.055625
1.516667	1	0.053750
1.533333	1	0.051000
1.550000	1	0.048875
1.566667	1	0.046750
1.583333	1	0.044375
1.600000	1	0.042000
1.616667	1	0.039375
1.633333	1	0.037000
1.650000	1	0.035125
1.666667	1	0.032625
1.683333	1	0.030500
1.700000	1	0.028500
1.716667	1	0.026125
1.733333	1	0.023375
1.750000	1	0.021000
1.766667	1	0.018125
1.783333	1	0.015875
1.800000	1	0.014250
1.816667	1	0.011875
1.833333	1	0.009250
1.850000	1	0.006000
1.866667	1	0.003250
1.883333	1	0.000625
1.900000	1	-0.001500
1.916667	1	-0.004000
1.933333	1	-0.006875
1.950000	1	-0.009250
1.966667	1	-0.012000
1.983333	1	-0.014875
2.000000	1	-0.017625
2.016667	1	-0.020375
2.033333	1	-0.023250
2.050000	1	-0.026000
2.066667	1	-0.028375
2.083333	1	-0.031250
2.100000	1	-0.033750
2.116667	1	-0.035875
2.133333	1	-0.037500
2.150000	1	-0.040250
2.166667	1	-0.042000
2.183333	1	-0.044750
2.200000	1	-0.047125
2.216667	1	-0.049375
2.233333	1	-0.051375
2.250000	1	-0.053000
2.266667	1	-0.054875
2.283333	1	-0.055750
2.300000	1	-0.057125
2.316667	1	-0.059250
2.333333	1	-0.060750
2.350000	1	-0.061625
2.366667	1	-0.062625
2.383333	1	-0.063625
2.400000	1	-0.064875
2.416667	1	-0.065875
2.433333	1	-0.066000
2.450000	1	-0.067000
2.466667	1	-0.068125
2.483333	1	-0.068750
2.500000	1	-0.069875
2.516667	1	-0.070750
2.533333	1	-0.071125
2.550000	1	-0.071000
2.566667	1	-0.072125
2.583333	1	-0.073250
2.600000	1	-0.073375
2.616667	1	-0.073625
2.633333	1	-0.073750
2.650000	1	-0.073875
2.666667	1	-0.073625
2.683333	1	-0.074125
2.700000	1	-0.074750
2.716667	1	-0.075000
2.733333	1	-0.075250
2.750000	1	-0.074750
2.766667	1	-0.074125
2.783333	1	-0.074250
2.800000	1	-0.073750
2.816667	1	-0.073125
2.833333	1	-0.073000
2.850000	1	-0.073000
2.866667	1	-0.071750
2.883333	1	-0.071250
2.900000	1	-0.070375
2.916667	1	-0.069875
2.933333	1	-0.069375
2.950000	1	-0.069000
2.966667	1	-0.068500
2.983333	1	-0.067500
3.000000	1	-0.066375
3.016667	1	-0.065750
3.033333	1	-0.065125
3.050000	1	-0.064500
3.066667	1	-0.063125
3.083333	1	-0.062125
3.100000	1	-0.060625
3.116667	1	-0.059000
3.133333	1	-0.057250
3.150000	1	-0.056125
3.166667	1	-0.054625
3.183333	1	-0.052125
3.200000	1	-0.051125
3.216667	1	-0.049000
3.233333	1	-0.047625
3.250000	1	-0.046000
3.266667	1	-0.043750
3.283333	1	-0.041500
3.300000	1	-0.039875
3.316667	1	-0.038750
3.333333	1	-0.037250
3.350000	1	-0.036000
3.366667	1	-0.034125
3.383333	1	-0.032250
3.400000	1	-0.030125
3.416667	1	-0.028625
3.433333	1	-0.027500
3.450000	1	-0.025625
3.466667	1	-0.023875
3.483333	1	-0.021750
3.500000	1	-0.020000
3.516667	1	-0.018375
3.533333	1	-0.016375
3.550000	1	-0.015375
3.566667	1	-0.013625
3.583333	1	-0.012125
3.600000	1	-0.010375
3.616667	1	-0.009000
3.633333	1	-0.006875
3.650000	1	-0.005000
3.666667	1	-0.003000
3.683333	1	-0.001250
3.700000	1	0.000250
3.716667	1	0.002000
3.733333	1	0.004750
3.750000	1	0.006625
3.766667	1	0.008750
3.783333	1	0.011000
3.800000	1	0.012750
3.816667	1	0.014375
3.833333	1	0.016875
3.850000	1	0.018625
3.866667	1	0.021125
3.883333	1	0.022875
3.900000	1	0.025000
3.916667	1	0.027000
3.933333	1	0.029375
3.950000	1	0.031500
3.966667	1	0.033250
3.983333	1	0.034875
4.000000	1	0.036250
4.016667	1	0.037875
4.033333	1	0.039625
4.050000	1	0.041125
4.066667	1	0.042125
4.083333	1	0.043875
4.100000	1	0.044875
4.116667	1	0.046125
4.133333	1	0.047250
4.150000	1	0.048500
4.166667	1	0.048875
4.183333	1	0.049250
4.200000	1	0.050000
4.216667	1	0.050125
4.233333	1	0.050500
4.250000	1	0.050875
4.266667	1	0.051250
4.283333	1	0.051250
4.300000	1	0.051500
4.316667	1	0.051875
4.333333	1	0.052375
4.350000	1	0.052875
4.366667	1	0.053250
4.383333	1	0.053000
4.400000	1	0.053375
4.416667	1	0.053375
4.433333	1	0.053750
4.450000	1	0.054000
4.466667	1	0.054000
4.483333	1	0.053875
4.500000	1	0.053875
4.516667	1	0.053625
4.533333	1	0.053750
4.550000	1	0.053250
4.566667	1	0.053625
4.583333	1	0.053375
4.600000	1	0.053750
4.616667	1	0.053250
4.633333	1	0.052875
4.650000	1	0.052000
4.666667	1	0.051125
4.683333	1	0.050625
4.700000	1	0.050000
4.716667	1	0.049250
4.733333	1	0.047875
4.750000	1	0.047500
4.766667	1	0.046125
4.783333	1	0.044625
4.800000	1	0.044500
4.816667	1	0.044000
4.833333	1	0.043375
4.850000	1	0.042625
4.866667	1	0.041750
4.883333	1	0.039625
4.900000	1	0.039000
4.916667	1	0.037625
4.933333	1	0.036375
4.950000	1	0.034875
4.966667	1	0.034250
4.983333	1	0.033500
5.000000	1	0.031625
5.016667	1	0.031375
5.033333	1	0.031000
5.050000	1	0.029625
5.066667	1	0.029125
5.083333	1	0.028250
5.100000	1	0.027625
5.116667	1	0.027250
5.133333	1	0.026500
5.150000	1	0.025750
5.166667	1	0.025500
5.183333	1	0.024625
5.200000	1	0.023875
5.216667	1	0.023875
5.233333	1	0.024000
5.250000	1	0.024000
5.266667	1	0.023625
5.283333	1	0.022875
5.300000	1	0.021750
5.316667	1	0.021125
5.333333	1	0.020750
5.350000	1	0.020375
5.366667	1	0.020625
5.383333	1	0.021000
5.400000	1	0.021875
5.416667	1	0.022000
5.433333	1	0.022500
5.450000	1	0.023125
5.466667	1	0.023500
5.483333	1	0.024250
5.500000	1	0.025125
5.516667	1	0.026125
5.533333	1	0.026875
5.550000	1	0.028125
5.566667	1	0.029500
5.583333	1	0.030375
5.600000	1	0.031750
5.616667	1	0.033250
5.633333	1	0.035000
5.650000	1	0.037125
5.666667	1	0.039125
5.683333	1	0.041250
5.700000	1	0.042875
5.716667	1	0.044875
5.733333	1	0.047250
5.750000	1	0.049500
5.766667	1	0.051750
5.783333	1	0.053750
5.800000	1	0.056375
5.816667	1	0.058750
5.833333	1	0.061250
5.850000	1	0.063750
5.866667	1	0.065625
5.883333	1	0.067750
5.900000	1	0.070375
5.916667	1	0.073000
5.933333	1	0.075375
5.950000	1	0.077625
5.966667	1	0.080000
5.983333	1	0.082750
6.000000	1	0.085000
6.016667	1	0.087125
6.033333	1	0.089250
6.050000	1	0.090625
6.066667	1	0.093125
6.083333	1	0.094750
6.100000	1	0.096625
6.116667	1	0.098625
6.133333	1	0.101000
6.150000	1	0.103375
6.166667	1	0.105750
6.183333	1	0.107750
6.200000	1	0.110000
6.216667	1	0.111875
6.233333	1	0.113750
6.250000	1	0.115750
6.266667	1	0.117250
6.283333	1	0.119250
6.300000	1	0.120875
6.316667	1	0.122375
6.333333	1	0.123625
6.350000	1	0.125750
6.366667	1	0.127000
6.383333	1	0.128500
6.400000	1	0.129750
6.416667	1	0.131125
6.433333	1	0.132625
6.450000	1	0.134000
6.466667	1	0.134250
6.483333	1	0.135500
6.500000	1	0.136125
6.516667	1	0.137000
6.533333	1	0.138000
6.550000	1	0.138375
6.566667	1	0.139625
6.583333	1	0.139875
6.600000	1	0.140250
6.616667	1	0.141000
6.633333	1	0.141250
6.650000	1	0.141250
6.666667	1	0.141000
6.683333	1	0.141000
6.700000	1	0.140875
6.716667	1	0.141125
6.733333	1	0.140625
6.750000	1	0.140375
6.766667	1	0.140500
6.783333	1	0.140375
6.800000	1	0.139750
6.816667	1	0.139625
6.833333	1	0.139000
6.850000	1	0.138750
6.866667	1	0.138250
6.883333	1	0.137250
6.900000	1	0.136500
6.916667	1	0.135875
6.933333	1	0.135625
6.950000	1	0.135625
6.966667	1	0.135500
6.983333	1	0.135750
7.000000	1	0.135875
7.016667	1	0.135375
7.033333	1	0.135125
7.050000	1	0.135500
7.066667	1	0.135625
7.083333	1	0.135875
7.100000	1	0.136375
7.116667	1	0.137500
7.133333	1	0.138500
7.150000	1	0.139500
7.166667	1	0.140000
7.183333	1	0.140625
7.200000	1	0.142500
7.216667	1	0.144375
7.233333	1	0.145375
7.250000	1	0.147000
7.266667	1	0.148250
7.283333	1	0.149750
7.300000	1	0.151125
7.316667	1	0.153125
7.333333	1	0.154875
7.350000	1	0.156375
7.366667	1	0.158250
7.383333	1	0.159625
7.400000	1	0.161375
7.416667	1	0.163375
7.433333	1	0.165500
7.450000	1	0.166875
7.466667	1	0.169500
7.483333	1	0.171375
7.500000	1	0.172625
7.516667	1	0.173500
7.533333	1	0.175125
7.550000	1	0.176625
7.566667	1	0.178375
7.583333	1	0.179375
7.600000	1	0.180625
7.616667	1	0.182000
7.633333	1	0.183250
7.650000	1	0.184500
7.666667	1	0.185625
7.683333	1	0.186375
7.700000	1	0.187375
7.716667	1	0.189000
7.733333	1	0.190125
7.750000	1	0.191250
7.766667	1	0.192000
7.783333	1	0.192875
7.800000	1	0.193875
7.816667	1	0.194750
7.833333	1	0.195875
7.850000	1	0.196625
7.866667	1	0.197375
7.883333	1	0.197000
7.900000	1	0.197125
7.916667	1	0.197375
7.933333	1	0.198000
7.950000	1	0.198375
7.966667	1	0.198625
7.983333	1	0.198875
8.000000	1	0.199000
8.016667	1	0.199125
8.033333	1	0.199375
8.050000	1	0.199375
8.066667	1	0.199000
8.083333	1	0.198375
8.100000	1	0.197750
8.116667	1	0.197250
8.133333	1	0.196625
8.150000	1	0.196000
8.166667	1	0.195000
8.183333	1	0.193875
8.200000	1	0.193125
8.216667	1	0.191750
8.233333	1	0.190375
8.250000	1	0.189500
8.266667	1	0.188000
8.283333	1	0.187250
8.300000	1	0.185500
8.316667	1	0.184000
8.333333	1	0.182750
8.350000	1	0.181000
8.366667	1	0.179375
8.383333	1	0.177500
8.400000	1	0.175500
8.416667	1	0.174000
8.433333	1	0.172625
8.450000	1	0.170875
8.466667	1	0.169500
8.483333	1	0.167500
8.500000	1	0.165250
8.516667	1	0.163375
8.533333	1	0.161750
8.550000	1	0.160000
8.566667	1	0.158375
8.583333	1	0.156500
8.600000	1	0.155125
8.616667	1	0.153250
8.633333	1	0.152125
8.650000	1	0.149750
8.666667	1	0.148125
8.683333	1	0.146500
8.700000	1	0.144625
8.716667	1	0.143500
8.733333	1	0.142000
8.750000	1	0.140750
8.766667	1	0.140000
8.783333	1	0.138875
8.800000	1	0.138375
8.816667	1	0.137500
8.833333	1	0.136875
8.850000	1	0.136750
8.866667	1	0.136625
8.883333	1	0.136500
8.900000	1	0.136500
8.916667	1	0.136125
8.933333	1	0.136375
8.950000	1	0.136625
8.966667	1	0.136875
8.983333	1	0.137500
9.000000	1	0.138000
9.016667	1	0.138500
9.033333	1	0.137750
9.050000	1	0.138250
9.066667	1	0.138750
9.083333	1	0.139125
9.100000	1	0.140375
9.116667	1	0.141125
9.133333	1	0.141875
9.150000	1	0.143250
9.166667	1	0.144500
9.183333	1	0.145750
9.200000	1	0.147250
9.216667	1	0.148500
9.233333	1	0.150625
9.250000	1	0.152000
9.266667	1	0.153250
9.283333	1	0.154750
9.300000	1	0.156625
9.316667	1	0.159000
9.333333	1	0.161250
9.350000	1	0.163875
9.366667	1	0.166125
9.383333	1	0.168750
9.400000	1	0.171750
9.416667	1	0.174625
9.433333	1	0.177500
9.450000	1	0.180500
9.466667	1	0.184125
9.483333	1	0.187250
9.500000	1	0.191000
9.516667	1	0.195000
9.533333	1	0.199000
9.550000	1	0.203500
9.566667	1	0.207500
9.583333	1	0.212375
9.600000	1	0.217250
9.616667	1	0.222125
9.633333	1	0.227750
9.650000	1	0.233500
9.666667	1	0.240875
9.683333	1	0.248500
9.700000	1	0.256750
9.716667	1	0.266000
9.733333	1	0.276375
9.750000	1	0.288750
9.766667	1	0.302625
9.783333	1	0.318375
9.800000	1	0.337750
9.816667	1	0.359125
9.833333	1	0.384125
9.850000	1	0.412375
9.866667	1	0.444875
9.883333	1	0.481000
9.900000	1	0.522250
9.916667	1	0.567875
9.933333	1	0.617250
9.950000	1	0.671875
9.966667	1	0.730125
9.983333	1	0.793000
10.000000	1	0.860375
10.016667	1	0.932500
10.033333	1	1.007500
10.050000	1	1.081625
10.066667	1	1.146875
10.083333	1	1.195625
10.100000	1	1.222125
10.116667	1	1.221500
10.133333	1	1.197000
10.150000	1	1.156500
10.166667	1	1.118375
10.183333	1	1.105000
10.200000	1	1.147500
10.216667	1	1.279125
10.233333	1	1.538750
10.250000	1	1.966750
10.266667	1	2.607625
10.283333	1	3.505875
10.300000	1	4.708000
10.316667	1	6.258375
10.333333	1	8.200125
10.350000	1	10.574875
10.366667	1	13.417125
10.383333	1	16.757375
10.400000	1	20.623625
10.416667	1	25.036750
10.433333	1	30.005500
10.450000	1	35.523125
10.466667	1	41.576625
10.483333	1	48.126625
10.500000	1	55.108250
10.516667	1	62.416250
10.533333	1	69.901875
10.550000	1	77.374750
10.566667	1	84.613750
10.583333	1	91.381625
10.600000	1	97.439375
10.616667	1	102.561375
10.633333	1	106.547625
10.650000	1	109.238750
10.666667	1	110.517750
10.683333	1	110.304750
10.700000	1	108.567000
10.716667	1	105.333750
10.733333	1	100.713250
10.750000	1	94.893375
10.766667	1	88.133750
10.783333	1	80.727500
10.800000	1	72.982625
10.816667	1	65.192875
10.833333	1	57.620250
10.850000	1	50.477375
10.866667	1	43.914750
10.883333	1	38.030125
10.900000	1	32.871875
10.916667	1	28.441750
10.933333	1	24.705500
10.950000	1	21.601750
10.966667	1	19.055500
10.983333	1	16.985875
11.000000	1	15.310875
11.016667	1	13.957625
11.033333	1	12.860750
11.050000	1	11.964500
11.066667	1	11.222500
11.083333	1	10.597250
11.100000	1	10.058750
11.116667	1	9.585875
11.133333	1	9.159750
11.150000	1	8.768625
11.166667	1	8.403125
11.183333	1	8.055625
11.200000	1	7.722875
11.216667	1	7.402125
11.233333	1	7.092375
11.250000	1	6.793250
11.266667	1	6.504000
11.283333	1	6.225875
11.300000	1	5.959875
11.316667	1	5.705500
11.333333	1	5.464750
11.350000	1	5.238000
11.366667	1	5.026375
11.383333	1	4.830500
11.400000	1	4.651875
11.416667	1	4.489625
11.433333	1	4.345625
11.450000	1	4.218750
11.466667	1	4.108750
11.483333	1	4.013125
11.500000	1	3.930625
11.516667	1	3.858750
11.533333	1	3.794750
11.550000	1	3.737125
11.566667	1	3.684125
11.583333	1	3.634750
11.600000	1	3.587875
11.616667	1	3.542000
11.633333	1	3.499125
11.650000	1	3.457750
11.666667	1	3.418250
11.683333	1	3.380875
11.700000	1	3.345125
11.716667	1	3.310750
11.733333	1	3.277000
11.750000	1	3.243125
11.766667	1	3.208875
11.783333	1	3.174250
11.800000	1	3.138500
11.816667	1	3.101750
11.833333	1	3.063625
11.850000	1	3.025500
11.866667	1	2.987125
11.883333	1	2.949000
11.900000	1	2.910875
11.916667	1	2.873500
11.933333	1	2.836875
11.950000	1	2.800375
11.966667	1	2.765500
11.983333	1	2.731500
12.000000	1	2.697500
12.016667	1	2.664125
12.033333	1	2.631750
12.050000	1	2.599250
12.066667	1	2.566750
12.083333	1	2.534750
12.100000	1	2.503375
12.116667	1	2.472125
12.133333	1	2.441750
12.150000	1	2.411750
12.166667	1	2.383625
12.183333	1	2.355625
12.200000	1	2.328500
12.216667	1	2.303000
12.233333	1	2.279125
12.250000	1	2.257000
12.266667	1	2.236875
12.283333	1	2.219250
12.300000	1	2.203500
12.316667	1	2.192500
12.333333	1	2.185125
12.350000	1	2.183375
12.366667	1	2.187125
12.383333	1	2.198875
12.400000	1	2.219125
12.416667	1	2.249625
12.433333	1	2.292125
12.450000	1	2.349500
12.466667	1	2.423875
12.483333	1	2.518750
12.500000	1	2.637875
12.516667	1	2.785500
12.533333	1	2.965125
12.550000	1	3.180750
12.566667	1	3.435250
12.583333	1	3.730625
12.600000	1	4.066250
12.616667	1	4.441375
12.633333	1	4.852875
12.650000	1	5.296500
12.666667	1	5.766375
12.683333	1	6.258500
12.700000	1	6.766250
12.716667	1	7.285375
12.733333	1	7.810875
12.750000	1	8.340000
12.766667	1	8.870875
12.783333	1	9.402250
12.800000	1	9.935125
12.816667	1	10.467875
12.833333	1	11.002625
12.850000	1	11.539125
12.866667	1	12.076625
12.883333	1	12.615125
12.900000	1	13.154125
12.916667	1	13.690125
12.933333	1	14.220000
12.950000	1	14.738375
12.966667	1	15.239250
12.983333	1	15.715875
13.000000	1	16.161625
13.016667	1	16.569500
13.033333	1	16.933375
13.050000	1	17.247625
13.066667	1	17.509750
13.083333	1	17.715625
13.100000	1	17.863000
13.116667	1	17.951375
13.133333	1	17.981625
13.150000	1	17.956375
13.166667	1	17.876875
13.183333	1	17.748125
13.200000	1	17.575500
13.216667	1	17.363125
13.233333	1	17.116875
13.250000	1	16.840875
13.266667	1	16.540250
13.283333	1	16.218875
13.300000	1	15.881625
13.316667	1	15.531750
13.333333	1	15.171875
13.350000	1	14.806375
13.366667	1	14.437250
13.383333	1	14.065875
13.400000	1	13.694750
13.416667	1	13.323500
13.433333	1	12.954000
13.450000	1	12.585250
13.466667	1	12.215875
13.483333	1	11.844500
13.500000	1	11.469625
13.516667	1	11.090375
13.533333	1	10.704125
13.550000	1	10.308250
13.566667	1	9.901375
13.583333	1	9.483125
13.600000	1	9.055375
13.616667	1	8.621125
13.633333	1	8.184250
13.650000	1	7.750750
13.666667	1	7.327625
13.683333	1	6.922125
13.700000	1	6.539750
13.716667	1	6.186500
13.733333	1	5.866625
13.750000	1	5.581875
13.766667	1	5.333125
13.783333	1	5.119000
13.800000	1	4.937500
13.816667	1	4.784125
13.833333	1	4.654625
13.850000	1	4.544750
13.866667	1	4.451125
13.883333	1	4.369250
13.900000	1	4.297375
13.916667	1	4.233500
13.933333	1	4.175875
13.950000	1	4.122125
13.966667	1	4.073125
13.983333	1	4.027750
14.000000	1	3.985875
14.016667	1	3.945500
14.033333	1	3.906750
14.050000	1	3.867625
14.066667	1	3.826750
14.083333	1	3.784000
14.100000	1	3.736125
14.116667	1	3.683250
14.133333	1	3.624000
14.150000	1	3.557875
14.166667	1	3.485000
14.183333	1	3.405750
14.200000	1	3.322125
14.216667	1	3.233625
14.233333	1	3.144000
14.250000	1	3.054000
14.266667	1	2.966500
14.283333	1	2.883625
14.300000	1	2.808125
14.316667	1	2.741625
14.333333	1	2.685500
14.350000	1	2.642875
14.366667	1	2.614125
14.383333	1	2.601750
14.400000	1	2.606125
14.416667	1	2.628750
14.433333	1	2.669625
14.450000	1	2.730750
14.466667	1	2.811375
14.483333	1	2.912250
14.500000	1	3.033250
14.516667	1	3.174625
14.533333	1	3.335625
14.550000	1	3.516000
14.566667	1	3.716000
14.583333	1	3.933500
14.600000	1	4.167750
14.616667	1	4.418000
14.633333	1	4.682875
14.650000	1	4.959250
14.666667	1	5.244875
14.683333	1	5.535000
14.700000	1	5.828125
14.716667	1	6.118500
14.733333	1	6.404375
14.750000	1	6.683625
14.766667	1	6.954750
14.783333	1	7.219375
14.800000	1	7.481750
14.816667	1	7.747375
14.833333	1	8.024000
14.850000	1	8.321875
14.866667	1	8.653750
14.883333	1	9.030750
14.900000	1	9.465125
14.916667	1	9.967125
14.933333	1	10.541750
14.950000	1	11.190500
14.966667	1	11.909750
14.983333	1	12.691125
15.000000	1	13.521875
15.016667	1	14.385625
15.033333	1	15.264000
15.050000	1	16.138000
15.066667	1	16.988750
15.083333	1	17.800125
15.100000	1	18.557250
15.116667	1	19.251500
15.133333	1	19.875125
15.150000	1	20.424250
15.166667	1	20.896750
15.183333	1	21.291375
15.200000	1	21.606000
15.216667	1	21.839750
15.233333	1	21.991125
15.250000	1	22.057125
15.266667	1	22.034375
15.283333	1	21.918875
15.300000	1	21.708625
15.316667	1	21.400625
15.333333	1	20.996750
15.350000	1	20.498875
15.366667	1	19.914250
15.383333	1	19.250625
15.400000	1	18.518875
15.416667	1	17.729875
15.433333	1	16.894875
15.450000	1	16.025875
15.466667	1	15.136875
15.483333	1	14.237625
15.500000	1	13.341125
15.516667	1	12.456625
15.533333	1	11.594375
15.550000	1	10.761875
15.566667	1	9.967250
15.583333	1	9.214500
15.600000	1	8.508875
15.616667	1	7.852125
15.633333	1	7.245125
15.650000	1	6.690000
15.666667	1	6.184750
15.683333	1	5.729750
15.700000	1	5.321500
15.716667	1	4.959250
15.733333	1	4.639625
15.750000	1	4.359625
15.766667	1	4.115500
15.783333	1	3.905125
15.800000	1	3.724500
15.816667	1	3.571625
15.833333	1	3.443125
15.850000	1	3.338000
15.866667	1	3.255625
15.883333	1	3.193375
15.900000	1	3.150000
15.916667	1	3.124500
15.933333	1	3.115750
15.950000	1	3.122375
15.966667	1	3.142750
15.983333	1	3.175000
16.000000	1	3.218250
16.016667	1	3.269750
16.033333	1	3.327875
16.050000	1	3.391375
16.066667	1	3.460125
16.083333	1	3.533500
16.100000	1	3.611500
16.116667	1	3.694000
16.133333	1	3.785500
16.150000	1	3.886500
16.166667	1	4.000000
16.183333	1	4.129625
16.200000	1	4.277250
16.216667	1	4.445875
16.233333	1	4.635250
16.250000	1	4.843625
16.266667	1	5.070500
16.283333	1	5.311375
16.300000	1	5.560250
16.316667	1	5.813125
16.333333	1	6.063625
16.350000	1	6.305625
16.366667	1	6.534125
16.383333	1	6.745125
16.400000	1	6.936250
16.416667	1	7.103500
16.433333	1	7.247375
16.450000	1	7.368125
16.466667	1	7.465375
16.483333	1	7.540625
16.500000	1	7.594375
16.516667	1	7.627500
16.533333	1	7.640375
16.550000	1	7.633125
16.566667	1	7.606250
16.583333	1	7.559875
16.600000	1	7.493250
16.616667	1	7.404750
16.633333	1	7.296375
16.650000	1	7.166375
16.666667	1	7.015375
16.683333	1	6.844250
16.700000	1	6.654375
16.716667	1	6.448000
16.733333	1	6.226750
16.750000	1	5.994500
16.766667	1	5.752875
16.783333	1	5.505750
16.800000	1	5.255875
16.816667	1	5.005875
16.833333	1	4.758500
16.850000	1	4.516000
16.866667	1	4.281250
16.883333	1	4.054875
16.900000	1	3.838875
16.916667	1	3.633875
16.933333	1	3.442375
16.950000	1	3.263375
16.966667	1	3.097625
16.983333	1	2.945875
17.000000	1	2.806000
17.016667	1	2.679500
17.033333	1	2.564750
17.050000	1	2.461500
17.066667	1	2.368375
17.083333	1	2.286125
17.100000	1	2.213125
17.116667	1	2.147750
17.133333	1	2.090125
17.150000	1	2.039750
17.166667	1	1.994750
17.183333	1	1.954750
17.200000	1	1.919250
17.216667	1	1.888250
17.233333	1	1.860500
17.250000	1	1.835000
17.266667	1	1.811250
17.283333	1	1.790000
17.300000	1	1.770125
17.316667	1	1.751125
17.333333	1	1.733000
17.350000	1	1.716125
17.366667	1	1.700000
17.383333	1	1.683750
17.400000	1	1.668875
17.416667	1	1.655500
17.433333	1	1.642500
17.450000	1	1.629500
17.466667	1	1.617250
17.483333	1	1.606000
17.500000	1	1.594500
17.516667	1	1.583500
17.533333	1	1.573625
17.550000	1	1.563750
17.566667	1	1.554750
17.583333	1	1.546625
17.600000	1	1.539000
17.616667	1	1.531625
17.633333	1	1.525625
17.650000	1	1.519750
17.666667	1	1.514625
17.683333	1	1.511000
17.700000	1	1.508125
17.716667	1	1.506125
17.733333	1	1.505500
17.750000	1	1.506125
17.766667	1	1.508000
17.783333	1	1.511250
17.800000	1	1.516125
17.816667	1	1.523375
17.833333	1	1.532250
17.850000	1	1.543000
17.866667	1	1.556000
17.883333	1	1.570875
17.900000	1	1.586875
17.916667	1	1.604875
17.933333	1	1.624625
17.950000	1	1.645750
17.966667	1	1.667750
17.983333	1	1.690750
18.000000	1	1.714875
18.016667	1	1.739000
18.033333	1	1.764000
18.050000	1	1.789000
18.066667	1	1.813625
18.083333	1	1.837625
18.100000	1	1.861375
18.116667	1	1.884500
18.133333	1	1.907500
18.150000	1	1.928000
18.166667	1	1.947000
18.183333	1	1.965750
18.200000	1	1.982875
18.216667	1	1.997875
18.233333	1	2.011500
18.250000	1	2.023500
18.266667	1	2.033000
18.283333	1	2.040625
18.300000	1	2.045875
18.316667	1	2.048625
18.333333	1	2.049125
18.350000	1	2.046875
18.366667	1	2.042250
18.383333	1	2.035750
18.400000	1	2.026875
18.416667	1	2.016500
18.433333	1	2.004375
18.450000	1	1.991125
18.466667	1	1.976125
18.483333	1	1.959625
18.500000	1	1.942250
18.516667	1	1.924125
18.533333	1	1.905500
18.550000	1	1.885750
18.566667	1	1.865750
18.583333	1	1.845250
18.600000	1	1.824250
18.616667	1	1.802375
18.633333	1	1.781375
18.650000	1	1.759250
18.666667	1	1.736750
18.683333	1	1.714750
18.700000	1	1.692000
18.716667	1	1.668500
18.733333	1	1.645875
18.750000	1	1.623625
18.766667	1	1.602250
18.783333	1	1.580875
18.800000	1	1.559250
18.816667	1	1.539000
18.833333	1	1.518375
18.850000	1	1.499125
18.866667	1	1.479875
18.883333	1	1.461000
18.900000	1	1.443250
18.916667	1	1.425625
18.933333	1	1.409750
18.950000	1	1.393375
18.966667	1	1.377375
18.983333	1	1.361500
19.000000	1	1.346625
19.016667	1	1.332625
19.033333	1	1.319000
19.050000	1	1.306875
19.066667	1	1.295125
19.083333	1	1.284000
19.100000	1	1.275125
19.116667	1	1.267875
19.133333	1	1.262500
19.150000	1	1.258875
19.166667	1	1.257375
19.183333	1	1.258875
19.200000	1	1.263875
19.216667	1	1.272500
19.233333	1	1.283250
19.250000	1	1.297500
19.266667	1	1.315375
19.283333	1	1.335875
19.300000	1	1.359625
19.316667	1	1.384750
19.333333	1	1.413375
19.350000	1	1.443500
19.366667	1	1.475500
19.383333	1	1.508750
19.400000	1	1.542250
19.416667	1	1.575500
19.433333	1	1.608750
19.450000	1	1.640625
19.466667	1	1.672000
19.483333	1	1.702250
19.500000	1	1.731000
19.516667	1	1.757625
19.533333	1	1.782250
19.550000	1	1.804875
19.566667	1	1.825875
19.583333	1	1.844000
19.600000	1	1.859500
19.616667	1	1.873000
19.633333	1	1.883500
19.650000	1	1.891375
19.666667	1	1.896500
19.683333	1	1.899000
19.700000	1	1.897875
19.716667	1	1.893250
19.733333	1	1.886000
19.750000	1	1.876000
19.766667	1	1.863250
19.783333	1	1.847375
19.800000	1	1.828500
19.816667	1	1.807375
19.833333	1	1.784000
19.850000	1	1.758500
19.866667	1	1.730625
19.883333	1	1.702750
19.900000	1	1.673250
19.916667	1	1.644250
19.933333	1	1.615500
19.950000	1	1.587375
19.966667	1	1.560250
19.983333	1	1.534375
20.000000	1	1.510625
20.016667	1	1.488375
20.033333	1	1.468125
20.050000	1	1.450125
20.066667	1	1.435000
20.083333	1	1.421875
20.100000	1	1.410625
20.116667	1	1.401375
20.133333	1	1.393625
20.150000	1	1.388125
20.166667	1	1.384375
20.183333	1	1.381875
20.200000	1	1.380625
20.216667	1	1.380875
20.233333	1	1.382375
20.250000	1	1.384875
20.266667	1	1.388750
20.283333	1	1.393625
20.300000	1	1.400000
20.316667	1	1.407500
20.333333	1	1.416000
20.350000	1	1.425750
20.366667	1	1.437250
20.383333	1	1.451375
20.400000	1	1.466750
20.416667	1	1.484125
20.433333	1	1.503500
20.450000	1	1.525250
20.466667	1	1.549375
20.483333	1	1.575625
20.500000	1	1.603375
20.516667	1	1.632875
20.533333	1	1.663250
20.550000	1	1.695250
20.566667	1	1.727875
20.583333	1	1.759625
20.600000	1	1.791000
20.616667	1	1.822250
20.633333	1	1.852125
20.650000	1	1.880125
20.666667	1	1.906250
20.683333	1	1.930250
20.700000	1	1.952625
20.716667	1	1.972625
20.733333	1	1.991125
20.750000	1	2.006625
20.766667	1	2.020875
20.783333	1	2.033625
20.800000	1	2.045375
20.816667	1	2.055500
20.833333	1	2.064375
20.850000	1	2.072625
20.866667	1	2.080000
20.883333	1	2.086375
20.900000	1	2.091500
20.916667	1	2.096250
20.933333	1	2.100375
20.950000	1	2.103750
20.966667	1	2.105500
20.983333	1	2.105875
21.000000	1	2.104625
21.016667	1	2.101375
21.033333	1	2.096625
21.050000	1	2.089375
21.066667	1	2.080500
21.083333	1	2.067875
21.100000	1	2.053250
21.116667	1	2.037500
21.133333	1	2.019375
21.150000	1	1.999000
21.166667	1	1.977125
21.183333	1	1.953500
21.200000	1	1.929125
21.216667	1	1.903875
21.233333	1	1.878750
21.250000	1	1.853125
21.266667	1	1.828125
21.283333	1	1.804750
21.300000	1	1.781625
21.316667	1	1.758500
21.333333	1	1.736375
21.350000	1	1.714250
21.366667	1	1.692500
21.383333	1	1.671625
21.400000	1	1.651250
21.416667	1	1.630500
21.433333	1	1.607375
21.450000	1	1.583250
21.466667	1	1.558000
21.483333	1	1.530000
21.500000	1	1.501000
21.516667	1	1.470125
21.533333	1	1.437750
21.550000	1	1.403625
21.566667	1	1.368125
21.583333	1	1.331125
21.600000	1	1.293250
21.616667	1	1.254750
21.633333	1	1.215625
21.650000	1	1.176625
21.666667	1	1.138250
21.683333	1	1.100375
21.700000	1	1.062875
21.716667	1	1.026625
21.733333	1	0.992250
21.750000	1	0.958625
21.766667	1	0.927125
21.783333	1	0.898250
21.800000	1	0.869875
21.816667	1	0.844125
21.833333	1	0.820250
21.850000	1	0.799125
21.866667	1	0.779375
21.883333	1	0.761250
21.900000	1	0.745125
21.916667	1	0.731375
21.933333	1	0.719625
21.950000	1	0.709250
21.966667	1	0.700375
21.983333	1	0.693875
22.000000	1	0.689250
22.016667	1	0.686000
22.033333	1	0.684250
22.050000	1	0.683375
22.066667	1	0.683625
22.083333	1	0.685125
22.100000	1	0.687875
22.116667	1	0.692000
22.133333	1	0.696125
22.150000	1	0.701000
22.166667	1	0.705875
22.183333	1	0.711500
22.200000	1	0.717500
22.216667	1	0.723875
22.233333	1	0.729625
22.250000	1	0.735125
22.266667	1	0.741000
22.283333	1	0.746250
22.300000	1	0.750750
22.316667	1	0.755000
22.333333	1	0.760125
22.350000	1	0.763125
22.366667	1	0.766125
22.383333	1	0.768625
22.400000	1	0.770750
22.416667	1	0.772875
22.433333	1	0.774750
22.450000	1	0.775625
22.466667	1	0.775625
22.483333	1	0.775125
22.500000	1	0.773750
22.516667	1	0.772375
22.533333	1	0.770625
22.550000	1	0.768000
22.566667	1	0.765125
22.583333	1	0.761875
22.600000	1	0.758000
22.616667	1	0.754000
22.633333	1	0.749625
22.650000	1	0.745250
22.666667	1	0.740625
22.683333	1	0.736500
22.700000	1	0.732000
22.716667	1	0.728500
22.733333	1	0.724750
22.750000	1	0.722375
22.766667	1	0.720500
22.783333	1	0.718750
22.800000	1	0.717750
22.816667	1	0.717250
22.833333	1	0.717250
22.850000	1	0.717750
22.866667	1	0.719375
22.883333	1	0.721500
22.900000	1	0.723875
22.916667	1	0.726000
22.933333	1	0.729625
22.950000	1	0.732250
22.966667	1	0.735125
22.983333	1	0.737875
23.000000	1	0.740375
23.016667	1	0.743625
23.033333	1	0.745875
23.050000	1	0.748125
23.066667	1	0.749625
23.083333	1	0.750750
23.100000	1	0.751625
23.116667	1	0.751500
23.133333	1	0.751250
23.150000	1	0.750625
23.166667	1	0.748875
23.183333	1	0.748000
23.200000	1	0.745750
23.216667	1	0.742750
23.233333	1	0.739125
23.250000	1	0.734750
23.266667	1	0.730000
23.283333	1	0.725125
23.300000	1	0.719625
23.316667	1	0.713500
23.333333	1	0.707000
23.350000	1	0.700000
23.366667	1	0.692250
23.383333	1	0.684125
23.400000	1	0.676500
23.416667	1	0.667625
23.433333	1	0.659500
23.450000	1	0.650250
23.466667	1	0.640625
23.483333	1	0.630625
23.500000	1	0.621000
23.516667	1	0.611625
23.533333	1	0.602375
23.550000	1	0.592875
23.566667	1	0.583500
23.583333	1	0.574375
23.600000	1	0.566000
23.616667	1	0.556875
23.633333	1	0.548875
23.650000	1	0.541750
23.666667	1	0.534875
23.683333	1	0.528125
23.700000	1	0.523625
23.716667	1	0.519125
23.733333	1	0.516625
23.750000	1	0.515625
23.766667	1	0.516375
23.783333	1	0.519375
23.800000	1	0.524375
23.816667	1	0.531750
23.833333	1	0.542000
23.850000	1	0.555375
23.866667	1	0.571750
23.883333	1	0.591125
23.900000	1	0.614375
23.916667	1	0.640625
23.933333	1	0.670375
23.950000	1	0.703750
23.966667	1	0.740125
23.983333	1	0.779250
24.000000	1	0.820500
24.016667	1	0.864250
24.033333	1	0.909625
24.050000	1	0.956875
24.066667	1	1.004375
24.083333	1	1.052000
24.100000	1	1.099250
24.116667	1	1.146500
24.133333	1	1.193125
24.150000	1	1.238500
24.166667	1	1.281875
24.183333	1	1.323875
24.200000	1	1.364750
24.216667	1	1.403125
24.233333	1	1.439000
24.250000	1	1.472375
24.266667	1	1.503000
24.283333	1	1.531125
24.300000	1	1.556875
24.316667	1	1.580125
24.333333	1	1.601125
24.350000	1	1.617750
24.366667	1	1.631625
24.383333	1	1.642875
24.400000	1	1.650125
24.416667	1	1.653375
24.433333	1	1.653000
24.450000	1	1.648625
24.466667	1	1.640125
24.483333	1	1.627375
24.500000	1	1.612000
24.516667	1	1.592250
24.533333	1	1.569625
24.550000	1	1.543375
24.566667	1	1.514750
24.583333	1	1.483500
24.600000	1	1.449750
24.616667	1	1.415250
24.633333	1	1.379375
24.650000	1	1.342875
24.666667	1	1.306000
24.683333	1	1.269875
24.700000	1	1.234375
24.716667	1	1.200000
24.733333	1	1.167000
24.750000	1	1.134250
24.766667	1	1.103500
24.783333	1	1.075250
24.800000	1	1.048750
24.816667	1	1.023750
24.833333	1	1.001750
24.850000	1	0.981375
24.866667	1	0.963375
24.883333	1	0.947250
24.900000	1	0.932500
24.916667	1	0.918875
24.933333	1	0.907125
24.950000	1	0.896875
24.966667	1	0.887000
24.983333	1	0.877875
25.000000	1	0.869875
25.016667	1	0.862500
25.033333	1	0.855375
25.050000	1	0.848250
25.066667	1	0.841125
25.083333	1	0.834625
25.100000	1	0.827000
25.116667	1	0.819375
25.133333	1	0.811625
25.150000	1	0.802375
25.166667	1	0.792500
25.183333	1	0.782750
25.200000	1	0.771250
25.216667	1	0.759000
25.233333	1	0.746500
25.250000	1	0.733250
25.266667	1	0.718625
25.283333	1	0.704125
25.300000	1	0.689000
25.316667	1	0.673375
25.333333	1	0.657000
25.350000	1	0.640250
25.366667	1	0.623000
25.383333	1	0.606250
25.400000	1	0.588625
25.416667	1	0.572000
25.433333	1	0.555375
25.450000	1	0.539125
25.466667	1	0.522500
25.483333	1	0.506750
25.500000	1	0.492250
25.516667	1	0.478250
25.533333	1	0.465000
25.550000	1	0.452000
25.566667	1	0.440375
25.583333	1	0.429625
25.600000	1	0.420625
25.616667	1	0.411125
25.633333	1	0.402750
25.650000	1	0.395250
25.666667	1	0.388875
25.683333	1	0.382750
25.700000	1	0.377750
25.716667	1	0.373875
25.733333	1	0.371375
25.750000	1	0.368750
25.766667	1	0.366250
25.783333	1	0.364375
25.800000	1	0.363250
25.816667	1	0.362375
25.833333	1	0.362375
25.850000	1	0.363000
25.866667	1	0.363375
25.883333	1	0.365250
25.900000	1	0.366750
25.916667	1	0.368500
25.933333	1	0.370500
25.950000	1	0.372625
25.966667	1	0.375250
25.983333	1	0.378500
26.000000	1	0.380875
26.016667	1	0.383250
26.033333	1	0.386500
26.050000	1	0.389250
26.066667	1	0.392000
26.083333	1	0.395000
26.100000	1	0.398125
26.116667	1	0.402125
26.133333	1	0.405125
26.150000	1	0.408375
26.166667	1	0.411500
26.183333	1	0.415250
26.200000	1	0.418000
26.216667	1	0.420875
26.233333	1	0.424125
26.250000	1	0.427500
26.266667	1	0.430375
26.283333	1	0.433875
26.300000	1	0.436625
26.316667	1	0.439750
26.333333	1	0.443250
26.350000	1	0.445875
26.366667	1	0.449625
26.383333	1	0.454000
26.400000	1	0.457875
26.416667	1	0.461500
26.433333	1	0.465500
26.450000	1	0.469250
26.466667	1	0.473875
26.483333	1	0.478375
26.500000	1	0.482625
26.516667	1	0.487125
26.533333	1	0.492125
26.550000	1	0.496875
26.566667	1	0.501500
26.583333	1	0.505875
26.600000	1	0.511000
26.616667	1	0.515750
26.633333	1	0.521500
26.650000	1	0.525875
26.666667	1	0.530875
26.683333	1	0.535000
26.700000	1	0.539500
26.716667	1	0.544375
26.733333	1	0.548125
26.750000	1	0.551000
26.766667	1	0.554375
26.783333	1	0.557375
26.800000	1	0.559375
26.816667	1	0.561875
26.833333	1	0.563500
26.850000	1	0.564250
26.866667	1	0.565250
26.883333	1	0.565750
26.900000	1	0.566750
26.916667	1	0.566875
26.933333	1	0.566250
26.950000	1	0.565250
26.966667	1	0.563750
26.983333	1	0.562500
27.000000	1	0.560500
27.016667	1	0.557875
27.033333	1	0.555625
27.050000	1	0.553250
27.066667	1	0.551250
27.083333	1	0.547125
27.100000	1	0.543125
27.116667	1	0.539625
27.133333	1	0.535500
27.150000	1	0.531375
27.166667	1	0.526375
27.183333	1	0.521500
27.200000	1	0.516625
27.216667	1	0.510625
27.233333	1	0.504750
27.250000	1	0.498625
27.266667	1	0.492375
27.283333	1	0.485000
27.300000	1	0.478750
27.316667	1	0.472000
27.333333	1	0.464125
27.350000	1	0.456500
27.366667	1	0.449000
27.383333	1	0.440375
27.400000	1	0.432125
27.416667	1	0.424375
27.433333	1	0.416250
27.450000	1	0.408250
27.466667	1	0.399625
27.483333	1	0.391875
27.500000	1	0.384250
27.516667	1	0.376125
27.533333	1	0.367750
27.550000	1	0.360625
27.566667	1	0.353125
27.583333	1	0.346250
27.600000	1	0.339375
27.616667	1	0.333250
27.633333	1	0.328625
27.650000	1	0.323500
27.666667	1	0.319125
27.683333	1	0.316375
27.700000	1	0.314125
27.716667	1	0.314125
27.733333	1	0.315125
27.750000	1	0.317625
27.766667	1	0.322750
27.783333	1	0.330250
27.800000	1	0.340500
27.816667	1	0.354125
27.833333	1	0.372000
27.850000	1	0.393750
27.866667	1	0.419750
27.883333	1	0.450625
27.900000	1	0.486875
27.916667	1	0.528250
27.933333	1	0.576125
27.950000	1	0.629875
27.966667	1	0.690000
27.983333	1	0.756250
28.000000	1	0.828125
28.016667	1	0.906250
28.033333	1	0.990000
28.050000	1	1.079250
28.066667	1	1.173000
28.083333	1	1.271750
28.100000	1	1.373000
28.116667	1	1.477625
28.133333	1	1.584375
28.150000	1	1.691625
28.166667	1	1.798500
28.183333	1	1.904875
28.200000	1	2.009750
28.216667	1	2.112250
28.233333	1	2.212000
28.250000	1	2.308375
28.266667	1	2.400125
28.283333	1	2.487250
28.300000	1	2.569750
28.316667	1	2.646750
28.333333	1	2.719000
28.350000	1	2.785625
28.366667	1	2.846625
28.383333	1	2.902250
28.400000	1	2.953625
28.416667	1	2.999625
28.433333	1	3.041375
28.450000	1	3.078000
28.466667	1	3.109625
28.483333	1	3.138000
28.500000	1	3.160000
28.516667	1	3.177375
28.533333	1	3.189125
28.550000	1	3.195375
28.566667	1	3.196000
28.583333	1	3.190750
28.600000	1	3.179125
28.616667	1	3.161000
28.633333	1	3.136000
28.650000	1	3.103875
28.666667	1	3.065250
28.683333	1	3.019125
28.700000	1	2.965375
28.716667	1	2.903875
28.733333	1	2.835125
28.750000	1	2.759000
28.766667	1	2.675750
28.783333	1	2.587125
28.800000	1	2.493125
28.816667	1	2.394375
28.833333	1	2.291125
28.850000	1	2.184000
28.866667	1	2.074500
28.883333	1	1.963375
28.900000	1	1.851875
28.916667	1	1.740000
28.933333	1	1.628375
28.950000	1	1.518750
28.966667	1	1.411375
28.983333	1	1.307000
29.000000	1	1.205625
29.016667	1	1.108375
29.033333	1	1.015625
29.050000	1	0.928250
29.066667	1	0.844875
29.083333	1	0.766625
29.100000	1	0.693375
29.116667	1	0.625250
29.133333	1	0.561625
29.150000	1	0.503500
29.166667	1	0.449375
29.183333	1	0.400500
29.200000	1	0.356000
29.216667	1	0.315250
29.233333	1	0.278250
29.250000	1	0.245000
29.266667	1	0.215125
29.283333	1	0.188500
29.300000	1	0.164875
29.316667	1	0.143625
29.333333	1	0.124750
29.350000	1	0.108000
29.366667	1	0.094000
29.383333	1	0.081250
29.400000	1	0.070375
29.416667	1	0.061375
29.433333	1	0.054750
29.450000	1	0.048750
29.466667	1	0.044625
29.483333	1	0.041250
29.500000	1	0.039375
29.516667	1	0.039125
29.533333	1	0.039625
29.550000	1	0.041375
29.566667	1	0.044250
29.583333	1	0.049125
29.600000	1	0.054500
29.616667	1	0.060875
29.633333	1	0.068000
29.650000	1	0.076625
29.666667	1	0.085500
29.683333	1	0.094750
29.700000	1	0.105375
29.716667	1	0.116375
29.733333	1	0.128625
29.750000	1	0.142000
29.766667	1	0.154875
29.783333	1	0.168250
29.800000	1	0.182500
29.816667	1	0.196125
29.833333	1	0.210625
29.850000	1	0.225250
29.866667	1	0.240125
29.883333	1	0.254375
29.900000	1	0.268625
29.916667	1	0.283375
29.933333	1	0.296875
29.950000	1	0.309875
29.966667	1	0.323125
29.983333	1	0.336625
30.000000	1	0.349250
30.016667	1	0.361750
30.033333	1	0.373750
30.050000	1	0.384500
30.066667	1	0.395125
30.083333	1	0.404750
30.100000	1	0.414000
30.116667	1	0.423000
30.133333	1	0.431250
30.150000	1	0.439250
30.166667	1	0.446250
30.183333	1	0.453000
30.200000	1	0.458875
30.216667	1	0.463375
30.233333	1	0.468375
30.250000	1	0.472500
30.266667	1	0.475875
30.283333	1	0.479375
30.300000	1	0.482625
30.316667	1	0.485750
30.333333	1	0.488125
30.350000	1	0.490375
30.366667	1	0.491875
30.383333	1	0.493250
30.400000	1	0.493875
30.416667	1	0.495125
30.433333	1	0.495500
30.450000	1	0.495000
30.466667	1	0.494625
30.483333	1	0.494875
30.500000	1	0.494500
30.516667	1	0.493250
30.533333	1	0.491875
30.550000	1	0.490250
30.566667	1	0.488250
30.583333	1	0.486625
30.600000	1	0.484375
30.616667	1	0.481375
30.633333	1	0.479250
30.650000	1	0.477000
30.666667	1	0.474875
30.683333	1	0.472125
30.700000	1	0.470000
30.716667	1	0.468250
30.733333	1	0.466125
30.750000	1	0.464000
30.766667	1	0.461750
30.783333	1	0.460125
30.800000	1	0.458625
30.816667	1	0.458125
30.833333	1	0.457625
30.850000	1	0.457500
30.866667	1	0.457500
30.883333	1	0.457375
30.900000	1	0.458375
30.916667	1	0.460125
30.933333	1	0.461250
30.950000	1	0.463500
30.966667	1	0.465625
30.983333	1	0.468000
31.000000	1	0.470625
31.016667	1	0.473250
31.033333	1	0.476625
31.050000	1	0.480750
31.066667	1	0.484125
31.083333	1	0.488250
31.100000	1	0.492750
31.116667	1	0.496875
31.133333	1	0.501250
31.150000	1	0.505250
31.166667	1	0.508750
31.183333	1	0.512250
31.200000	1	0.516000
31.216667	1	0.519375
31.233333	1	0.523500
31.250000	1	0.526875
31.266667	1	0.530625
31.283333	1	0.534375
31.300000	1	0.537375
31.316667	1	0.539750
31.333333	1	0.542250
31.350000	1	0.544875
31.366667	1	0.547375
31.383333	1	0.549750
31.400000	1	0.551750
31.416667	1	0.553250
31.433333	1	0.555625
31.450000	1	0.556500
31.466667	1	0.557125
31.483333	1	0.557125
31.500000	1	0.557625
31.516667	1	0.557625
31.533333	1	0.556375
31.550000	1	0.555250
31.566667	1	0.553250
31.583333	1	0.551750
31.600000	1	0.550125
31.616667	1	0.548000
31.633333	1	0.544625
31.650000	1	0.542125
31.666667	1	0.538125
31.683333	1	0.533750
31.700000	1	0.529875
31.716667	1	0.525375
31.733333	1	0.520250
31.750000	1	0.516250
31.766667	1	0.511125
31.783333	1	0.506500
31.800000	1	0.501875
31.816667	1	0.496500
31.833333	1	0.491750
31.850000	1	0.487000
31.866667	1	0.482750
31.883333	1	0.478750
31.900000	1	0.474875
31.916667	1	0.471125
31.933333	1	0.468250
31.950000	1	0.466125
31.966667	1	0.463750
31.983333	1	0.461375
32.000000	1	0.460750
32.016667	1	0.460125
32.033333	1	0.459875
32.050000	1	0.460375
32.066667	1	0.461000
32.083333	1	0.462375
32.100000	1	0.464500
32.116667	1	0.467375
32.133333	1	0.470625
32.150000	1	0.474875
32.166667	1	0.479625
32.183333	1	0.485125
32.200000	1	0.490750
32.216667	1	0.496500
32.233333	1	0.502875
32.250000	1	0.509625
32.266667	1	0.517000
32.283333	1	0.524000
32.300000	1	0.530750
32.316667	1	0.537750
32.333333	1	0.546000
32.350000	1	0.553750
32.366667	1	0.561875
32.383333	1	0.569125
32.400000	1	0.576625
32.416667	1	0.583875
32.433333	1	0.591625
32.450000	1	0.599125
32.466667	1	0.605875
32.483333	1	0.613000
32.500000	1	0.619625
32.516667	1	0.625625
32.533333	1	0.631000
32.550000	1	0.636500
32.566667	1	0.641125
32.583333	1	0.646000
32.600000	1	0.650375
32.616667	1	0.654875
32.633333	1	0.658125
32.650000	1	0.660875
32.666667	1	0.663125
32.683333	1	0.665000
32.700000	1	0.666750
32.716667	1	0.667625
32.733333	1	0.667875
32.750000	1	0.667875
32.766667	1	0.666750
32.783333	1	0.664750
32.800000	1	0.663000
32.816667	1	0.660625
32.833333	1	0.657375
32.850000	1	0.653125
32.866667	1	0.647875
32.883333	1	0.642500
32.900000	1	0.636375
32.916667	1	0.629875
32.933333	1	0.622875
32.950000	1	0.614875
32.966667	1	0.606125
32.983333	1	0.597500
33.000000	1	0.588375
33.016667	1	0.578875
33.033333	1	0.568875
33.050000	1	0.557875
33.066667	1	0.546375
33.083333	1	0.534625
33.100000	1	0.522000
33.116667	1	0.509500
33.133333	1	0.496625
33.150000	1	0.483125
33.166667	1	0.469625
33.183333	1	0.455500
33.200000	1	0.441500
33.216667	1	0.427500
33.233333	1	0.413625
33.250000	1	0.399500
33.266667	1	0.385500
33.283333	1	0.370750
33.300000	1	0.356125
33.316667	1	0.341875
33.333333	1	0.327375
33.350000	1	0.312500
33.366667	1	0.299500
33.383333	1	0.285875
33.400000	1	0.272625
33.416667	1	0.260375
33.433333	1	0.247500
33.450000	1	0.235500
33.466667	1	0.224250
33.483333	1	0.212750
33.500000	1	0.202125
33.516667	1	0.191750
33.533333	1	0.182000
33.550000	1	0.172125
33.566667	1	0.163500
33.583333	1	0.155375
33.600000	1	0.147125
33.616667	1	0.139500
33.633333	1	0.132250
33.650000	1	0.125750
33.666667	1	0.119250
33.683333	1	0.114500
33.700000	1	0.109500
33.716667	1	0.104500
33.733333	1	0.100500
33.750000	1	0.096125
33.766667	1	0.092500
33.783333	1	0.089000
33.800000	1	0.086000
33.816667	1	0.083500
33.833333	1	0.081125
33.850000	1	0.079250
33.866667	1	0.077250
33.883333	1	0.075375
33.900000	1	0.074125
33.916667	1	0.073625
33.933333	1	0.073250
33.950000	1	0.071750
33.966667	1	0.070875
33.983333	1	0.070625
34.000000	1	0.071250
34.016667	1	0.071125
34.033333	1	0.072000
34.050000	1	0.072625
34.066667	1	0.073000
34.083333	1	0.073375
34.100000	1	0.074875
34.116667	1	0.076250
34.133333	1	0.078750
34.150000	1	0.081250
34.166667	1	0.084500
34.183333	1	0.088000
34.200000	1	0.092000
34.216667	1	0.097000
34.233333	1	0.102375
34.250000	1	0.108500
34.266667	1	0.115625
34.283333	1	0.123125
34.300000	1	0.130875
34.316667	1	0.139000
34.333333	1	0.148750
34.350000	1	0.159125
34.366667	1	0.170250
34.383333	1	0.182125
34.400000	1	0.194500
34.416667	1	0.207375
34.433333	1	0.220625
34.450000	1	0.235500
34.466667	1	0.250000
34.483333	1	0.265625
34.500000	1	0.281000
34.516667	1	0.297125
34.533333	1	0.313000
34.550000	1	0.329125
34.566667	1	0.345375
34.583333	1	0.361250
34.600000	1	0.377125
34.616667	1	0.392625
34.633333	1	0.408125
34.650000	1	0.423250
34.666667	1	0.437500
34.683333	1	0.451500
34.700000	1	0.465000
34.716667	1	0.478125
34.733333	1	0.491250
34.750000	1	0.503250
34.766667	1	0.515000
34.783333	1	0.525750
34.800000	1	0.535875
34.816667	1	0.545125
34.833333	1	0.553625
34.850000	1	0.561875
34.866667	1	0.569625
34.883333	1	0.576500
34.900000	1	0.582875
34.916667	1	0.588375
34.933333	1	0.592750
34.950000	1	0.596750
34.966667	1	0.600000
34.983333	1	0.602625
35.000000	1	0.604375
35.016667	1	0.604750
35.033333	1	0.604875
35.050000	1	0.604375
35.066667	1	0.602375
35.083333	1	0.599625
35.100000	1	0.595875
35.116667	1	0.591625
35.133333	1	0.586250
35.150000	1	0.580000
35.166667	1	0.572000
35.183333	1	0.563250
35.200000	1	0.553750
35.216667	1	0.543000
35.233333	1	0.531875
35.250000	1	0.519375
35.266667	1	0.506125
35.283333	1	0.492625
35.300000	1	0.479000
35.316667	1	0.464375
35.333333	1	0.449875
35.350000	1	0.434125
35.366667	1	0.417875
35.383333	1	0.401250
35.400000	1	0.385000
35.416667	1	0.369125
35.433333	1	0.353000
35.450000	1	0.336750
35.466667	1	0.320375
35.483333	1	0.304625
35.500000	1	0.288625
35.516667	1	0.274250
35.533333	1	0.260250
35.550000	1	0.246500
35.566667	1	0.233000
35.583333	1	0.220625
35.600000	1	0.208750
35.616667	1	0.197625
35.633333	1	0.187125
35.650000	1	0.177000
35.666667	1	0.167625
35.683333	1	0.159125
35.700000	1	0.150250
35.716667	1	0.143000
35.733333	1	0.137125
35.750000	1	0.130875
35.766667	1	0.125250
35.783333	1	0.120625
35.800000	1	0.117125
35.816667	1	0.113875
35.833333	1	0.110000
35.850000	1	0.107250
35.866667	1	0.104875
35.883333	1	0.102625
35.900000	1	0.100875
35.916667	1	0.099500
35.933333	1	0.098375
35.950000	1	0.097500
35.966667	1	0.096875
35.983333	1	0.097750
36.000000	1	0.099000
36.016667	1	0.099500
36.033333	1	0.100500
36.050000	1	0.101000
36.066667	1	0.101750
36.083333	1	0.102500
36.100000	1	0.104625
36.116667	1	0.106375
36.133333	1	0.107500
36.150000	1	0.109625
36.166667	1	0.111750
36.183333	1	0.114750
36.200000	1	0.117500
36.216667	1	0.120125
36.233333	1	0.122625
36.250000	1	0.126000
36.266667	1	0.128250
36.283333	1	0.131375
36.300000	1	0.134250
36.316667	1	0.137250
36.333333	1	0.140500
36.350000	1	0.144000
36.366667	1	0.146750
36.383333	1	0.150000
36.400000	1	0.152750
36.416667	1	0.156125
36.433333	1	0.159250
36.450000	1	0.163000
36.466667	1	0.165875
36.483333	1	0.168875
36.500000	1	0.171000
36.516667	1	0.173750
36.533333	1	0.176625
36.550000	1	0.179500
36.566667	1	0.182750
36.583333	1	0.185875
36.600000	1	0.188875
36.616667	1	0.191250
36.633333	1	0.193375
36.650000	1	0.195750
36.666667	1	0.197500
36.683333	1	0.200125
36.700000	1	0.202750
36.716667	1	0.205375
36.733333	1	0.207375
36.750000	1	0.209750
36.766667	1	0.211375
36.783333	1	0.213875
36.800000	1	0.215625
36.816667	1	0.217875
36.833333	1	0.220000
36.850000	1	0.221250
36.866667	1	0.223375
36.883333	1	0.226000
36.900000	1	0.227875
36.916667	1	0.229250
36.933333	1	0.230750
36.950000	1	0.231625
36.966667	1	0.233125
36.983333	1	0.233750
37.000000	1	0.234750
37.016667	1	0.235000
37.033333	1	0.236125
37.050000	1	0.236500
37.066667	1	0.235750
37.083333	1	0.235500
37.100000	1	0.235375
37.116667	1	0.234250
37.133333	1	0.233375
37.150000	1	0.232375
37.166667	1	0.231375
37.183333	1	0.230000
37.200000	1	0.227875
37.216667	1	0.226000
37.233333	1	0.223250
37.250000	1	0.220250
37.266667	1	0.217125
37.283333	1	0.213750
37.300000	1	0.197750
37.316667	1	0.196375
37.333333	1	0.197375
37.350000	1	0.195875
37.366667	1	0.193125
37.383333	1	0.190250
37.400000	1	0.186750
37.416667	1	0.182500
37.433333	1	0.178625
37.450000	1	0.173750
37.466667	1	0.169250
37.483333	1	0.164250
37.500000	1	0.159500
37.516667	1	0.154875
37.533333	1	0.150250
37.550000	1	0.145625
37.566667	1	0.140250
37.583333	1	0.135625
37.600000	1	0.131000
37.616667	1	0.126000
37.633333	1	0.120625
37.650000	1	0.115250
37.666667	1	0.110500
37.683333	1	0.105375
37.700000	1	0.100750
37.716667	1	0.096000
37.733333	1	0.091125
37.750000	1	0.085750
37.766667	1	0.081500
37.783333	1	0.077125
37.800000	1	0.072750
37.816667	1	0.068375
37.833333	1	0.065375
37.850000	1	0.060375
37.866667	1	0.055500
37.883333	1	0.051625
37.900000	1	0.047500
37.916667	1	0.043625
37.933333	1	0.039625
37.950000	1	0.036000
37.966667	1	0.033125
37.983333	1	0.029500
38.000000	1	0.026625
38.016667	1	0.023625
38.033333	1	0.020625
38.050000	1	0.018250
38.066667	1	0.015375
38.083333	1	0.012500
38.100000	1	0.010125
38.116667	1	0.007875
38.133333	1	0.005125
38.150000	1	0.002625
38.166667	1	0.000875
38.183333	1	-0.000625
38.200000	1	-0.001500
38.216667	1	-0.003125
38.233333	1	-0.004375
38.250000	1	-0.005750
38.266667	1	-0.006500
38.283333	1	-0.007125
38.300000	1	-0.008125
38.316667	1	-0.008625
38.333333	1	-0.009500
38.350000	1	-0.010250
38.366667	1	-0.010625
38.383333	1	-0.011000
38.400000	1	-0.011750
38.416667	1	-0.011875
38.433333	1	-0.012250
38.450000	1	-0.012625
38.466667	1	-0.012875
38.483333	1	-0.013500
38.500000	1	-0.013500
38.516667	1	-0.013500
38.533333	1	-0.013500
38.550000	1	-0.013250
38.566667	1	-0.013375
38.583333	1	-0.012875
38.600000	1	-0.013000
38.616667	1	-0.012625
38.633333	1	-0.012375
38.650000	1	-0.012125
38.666667	1	-0.012000
38.683333	1	-0.011750
38.700000	1	-0.011125
38.716667	1	-0.011000
38.733333	1	-0.011125
38.750000	1	-0.010625
38.766667	1	-0.010500
38.783333	1	-0.009875
38.800000	1	-0.009875
38.816667	1	-0.010000
38.833333	1	-0.009625
38.850000	1	-0.009250
38.866667	1	-0.009250
38.883333	1	-0.008750
38.900000	1	-0.008750
38.916667	1	-0.009125
38.933333	1	-0.009625
38.950000	1	-0.009250
38.966667	1	-0.009125
38.983333	1	-0.009625
39.000000	1	-0.010000
39.016667	1	-0.010625
39.033333	1	-0.011125
39.050000	1	-0.010500
39.066667	1	-0.010500
39.083333	1	-0.011250
39.100000	1	-0.011250
39.116667	1	-0.011625
39.133333	1	-0.011250
39.150000	1	-0.011000
39.166667	1	-0.011375
39.183333	1	-0.012750
39.200000	1	-0.012625
39.216667	1	-0.012875
39.233333	1	-0.013375
39.250000	1	-0.013375
39.266667	1	-0.013750
39.283333	1	-0.013875
39.300000	1	-0.013875
39.316667	1	-0.014375
39.333333	1	-0.014125
39.350000	1	-0.014250
39.366667	1	-0.013875
39.383333	1	-0.013625
39.400000	1	-0.013625
39.416667	1	-0.013750
39.433333	1	-0.014000
39.450000	1	-0.013500
39.466667	1	-0.013250
39.483333	1	-0.013250
39.500000	1	-0.012875
39.516667	1	-0.012875
39.533333	1	-0.013625
39.550000	1	-0.013375
39.566667	1	-0.013250
39.583333	1	-0.013250
39.600000	1	-0.013500
39.616667	1	-0.013125
39.633333	1	-0.012625
39.650000	1	-0.012750
39.666667	1	-0.013250
39.683333	1	-0.013375
39.700000	1	-0.012750
39.716667	1	-0.012125
39.733333	1	-0.011750
39.750000	1	-0.012375
39.766667	1	-0.012125
39.783333	1	-0.012750
39.800000	1	-0.013000
39.816667	1	-0.013000
39.833333	1	-0.013000
39.850000	1	-0.012375
39.866667	1	-0.012125
39.883333	1	-0.012125
39.900000	1	-0.011375
39.916667	1	-0.010375
39.933333	1	-0.009625
39.950000	1	-0.008750
39.966667	1	-0.008375
39.983333	1	-0.007625
40.000000	1	-0.007125
