File Path	chrom://marshall/Chromeleon7/HPLC_Ultimate_3000/Users/markusar/20221226.seq/805.smp/RI_1.channel/RI_1.chm
Channel	RI_1

Injection Information:
Data Vault	Chromeleon7
Injection	ri3
Injection Number	4
Position	RA4
Comment	
Processing Method	
Instrument Method	std_method
Type	Unknown
Status	Finished
Injection Date	26.12.2022
Injection Time	18:13:26
Injection Volume (µl)	20.000
Dilution Factor	1.0000
Weight	1.0000

Chromatogram Data Information:
Time Min. (min)	0.000000
Time Max. (min)	40.000000
Data Points	2401
Detector	RI
Generating Data System	Chromeleon 7.2.5.9507
Exporting Data System	Chromeleon 7.2.5.0
Operator	Instrument Controller
Signal Quantity	Refractive 
Signal Unit	µRIU
Signal Min.	-0.074625
Signal Max.	99.266750
Channel	RI_1
Driver Name	RID520Driver.dll
Channel Type	Evaluation
Min. Step (s)	1
Max. Step (s)	1
Average Step (s)	1

Signal Parameter Information:
Signal Info	

Chromatogram Data:
Time (min)	Step (s)	Value (µRIU)
0.000000	n.a.	0.115625
0.016667	1	0.116625
0.033333	1	0.118000
0.050000	1	0.118625
0.066667	1	0.119000
0.083333	1	0.120125
0.100000	1	0.121000
0.116667	1	0.120875
0.133333	1	0.120500
0.150000	1	0.120875
0.166667	1	0.120125
0.183333	1	0.119875
0.200000	1	0.119500
0.216667	1	0.117875
0.233333	1	0.117250
0.250000	1	0.116250
0.266667	1	0.114250
0.283333	1	0.111500
0.300000	1	0.106500
0.316667	1	0.101750
0.333333	1	0.099750
0.350000	1	0.100125
0.366667	1	0.102875
0.383333	1	0.103875
0.400000	1	0.103750
0.416667	1	0.102875
0.433333	1	0.101375
0.450000	1	0.099500
0.466667	1	0.096375
0.483333	1	0.091125
0.500000	1	0.084375
0.516667	1	0.077125
0.533333	1	0.071375
0.550000	1	0.066125
0.566667	1	0.062250
0.583333	1	0.058250
0.600000	1	0.054250
0.616667	1	0.050375
0.633333	1	0.046250
0.650000	1	0.042625
0.666667	1	0.038750
0.683333	1	0.034875
0.700000	1	0.031625
0.716667	1	0.028625
0.733333	1	0.025375
0.750000	1	0.022500
0.766667	1	0.019875
0.783333	1	0.016625
0.800000	1	0.014500
0.816667	1	0.012000
0.833333	1	0.009375
0.850000	1	0.006875
0.866667	1	0.005000
0.883333	1	0.003375
0.900000	1	0.001625
0.916667	1	0.000000
0.933333	1	-0.001625
0.950000	1	-0.002625
0.966667	1	-0.004625
0.983333	1	-0.006375
1.000000	1	-0.007750
1.016667	1	-0.009000
1.033333	1	-0.010625
1.050000	1	-0.012250
1.066667	1	-0.013625
1.083333	1	-0.015250
1.100000	1	-0.016250
1.116667	1	-0.017625
1.133333	1	-0.019125
1.150000	1	-0.020000
1.166667	1	-0.020750
1.183333	1	-0.021250
1.200000	1	-0.022625
1.216667	1	-0.023750
1.233333	1	-0.025500
1.250000	1	-0.027125
1.266667	1	-0.028000
1.283333	1	-0.029500
1.300000	1	-0.030125
1.316667	1	-0.031125
1.333333	1	-0.031750
1.350000	1	-0.033125
1.366667	1	-0.033875
1.383333	1	-0.034625
1.400000	1	-0.035875
1.416667	1	-0.037125
1.433333	1	-0.038000
1.450000	1	-0.038250
1.466667	1	-0.038625
1.483333	1	-0.039500
1.500000	1	-0.040375
1.516667	1	-0.040875
1.533333	1	-0.041375
1.550000	1	-0.042000
1.566667	1	-0.042750
1.583333	1	-0.043625
1.600000	1	-0.043500
1.616667	1	-0.043250
1.633333	1	-0.043500
1.650000	1	-0.044250
1.666667	1	-0.044750
1.683333	1	-0.045125
1.700000	1	-0.045625
1.716667	1	-0.046250
1.733333	1	-0.045875
1.750000	1	-0.046500
1.766667	1	-0.046875
1.783333	1	-0.047250
1.800000	1	-0.047625
1.816667	1	-0.047750
1.833333	1	-0.048125
1.850000	1	-0.049000
1.866667	1	-0.049250
1.883333	1	-0.050125
1.900000	1	-0.050125
1.916667	1	-0.050500
1.933333	1	-0.050750
1.950000	1	-0.051125
1.966667	1	-0.051875
1.983333	1	-0.052875
2.000000	1	-0.053625
2.016667	1	-0.054000
2.033333	1	-0.054375
2.050000	1	-0.055000
2.066667	1	-0.055500
2.083333	1	-0.056750
2.100000	1	-0.057375
2.116667	1	-0.058750
2.133333	1	-0.059500
2.150000	1	-0.060375
2.166667	1	-0.061125
2.183333	1	-0.062250
2.200000	1	-0.062875
2.216667	1	-0.064375
2.233333	1	-0.065875
2.250000	1	-0.066250
2.266667	1	-0.066750
2.283333	1	-0.067250
2.300000	1	-0.068250
2.316667	1	-0.069000
2.333333	1	-0.069375
2.350000	1	-0.069625
2.366667	1	-0.070250
2.383333	1	-0.070875
2.400000	1	-0.071125
2.416667	1	-0.070875
2.433333	1	-0.071375
2.450000	1	-0.071625
2.466667	1	-0.071875
2.483333	1	-0.072000
2.500000	1	-0.071875
2.516667	1	-0.072125
2.533333	1	-0.072375
2.550000	1	-0.072875
2.566667	1	-0.072875
2.583333	1	-0.073125
2.600000	1	-0.073000
2.616667	1	-0.072875
2.633333	1	-0.073500
2.650000	1	-0.074125
2.666667	1	-0.074125
2.683333	1	-0.074000
2.700000	1	-0.073750
2.716667	1	-0.073875
2.733333	1	-0.074000
2.750000	1	-0.074250
2.766667	1	-0.074125
2.783333	1	-0.074000
2.800000	1	-0.074250
2.816667	1	-0.074250
2.833333	1	-0.074250
2.850000	1	-0.074500
2.866667	1	-0.074500
2.883333	1	-0.074625
2.900000	1	-0.074250
2.916667	1	-0.073750
2.933333	1	-0.074000
2.950000	1	-0.073250
2.966667	1	-0.074000
2.983333	1	-0.073625
3.000000	1	-0.073500
3.016667	1	-0.073250
3.033333	1	-0.072875
3.050000	1	-0.071625
3.066667	1	-0.070625
3.083333	1	-0.070250
3.100000	1	-0.069000
3.116667	1	-0.068500
3.133333	1	-0.067375
3.150000	1	-0.065750
3.166667	1	-0.064500
3.183333	1	-0.063250
3.200000	1	-0.062250
3.216667	1	-0.060750
3.233333	1	-0.059000
3.250000	1	-0.057250
3.266667	1	-0.055250
3.283333	1	-0.053125
3.300000	1	-0.051250
3.316667	1	-0.049375
3.333333	1	-0.047500
3.350000	1	-0.045500
3.366667	1	-0.043250
3.383333	1	-0.041125
3.400000	1	-0.038875
3.416667	1	-0.036875
3.433333	1	-0.034625
3.450000	1	-0.032000
3.466667	1	-0.029750
3.483333	1	-0.027125
3.500000	1	-0.025250
3.516667	1	-0.022125
3.533333	1	-0.019500
3.550000	1	-0.017125
3.566667	1	-0.015125
3.583333	1	-0.013125
3.600000	1	-0.011125
3.616667	1	-0.008625
3.633333	1	-0.007375
3.650000	1	-0.004750
3.666667	1	-0.002500
3.683333	1	-0.001000
3.700000	1	0.000875
3.716667	1	0.003250
3.733333	1	0.005625
3.750000	1	0.007750
3.766667	1	0.009125
3.783333	1	0.010500
3.800000	1	0.012125
3.816667	1	0.014250
3.833333	1	0.015875
3.850000	1	0.017250
3.866667	1	0.019000
3.883333	1	0.020375
3.900000	1	0.021500
3.916667	1	0.022875
3.933333	1	0.023875
3.950000	1	0.025125
3.966667	1	0.026125
3.983333	1	0.027125
4.000000	1	0.028125
4.016667	1	0.028625
4.033333	1	0.029625
4.050000	1	0.029625
4.066667	1	0.030875
4.083333	1	0.032250
4.100000	1	0.033250
4.116667	1	0.032750
4.133333	1	0.033000
4.150000	1	0.033500
4.166667	1	0.034125
4.183333	1	0.034375
4.200000	1	0.033875
4.216667	1	0.033750
4.233333	1	0.033750
4.250000	1	0.033625
4.266667	1	0.032875
4.283333	1	0.032375
4.300000	1	0.032500
4.316667	1	0.031750
4.333333	1	0.030750
4.350000	1	0.029250
4.366667	1	0.028750
4.383333	1	0.027250
4.400000	1	0.026000
4.416667	1	0.024750
4.433333	1	0.023125
4.450000	1	0.022000
4.466667	1	0.019875
4.483333	1	0.018875
4.500000	1	0.017500
4.516667	1	0.016000
4.533333	1	0.014375
4.550000	1	0.013000
4.566667	1	0.011625
4.583333	1	0.009875
4.600000	1	0.008000
4.616667	1	0.006500
4.633333	1	0.004625
4.650000	1	0.003125
4.666667	1	0.001500
4.683333	1	0.000125
4.700000	1	-0.001000
4.716667	1	-0.002125
4.733333	1	-0.003375
4.750000	1	-0.004375
4.766667	1	-0.005375
4.783333	1	-0.006000
4.800000	1	-0.006750
4.816667	1	-0.007500
4.833333	1	-0.008500
4.850000	1	-0.009375
4.866667	1	-0.009500
4.883333	1	-0.009375
4.900000	1	-0.009750
4.916667	1	-0.009625
4.933333	1	-0.009125
4.950000	1	-0.009000
4.966667	1	-0.008500
4.983333	1	-0.007875
5.000000	1	-0.007375
5.016667	1	-0.007000
5.033333	1	-0.006500
5.050000	1	-0.005500
5.066667	1	-0.004875
5.083333	1	-0.004000
5.100000	1	-0.002875
5.116667	1	-0.001500
5.133333	1	0.000000
5.150000	1	0.000750
5.166667	1	0.001250
5.183333	1	0.003250
5.200000	1	0.004625
5.216667	1	0.006625
5.233333	1	0.007500
5.250000	1	0.008500
5.266667	1	0.009750
5.283333	1	0.011000
5.300000	1	0.012125
5.316667	1	0.014250
5.333333	1	0.014750
5.350000	1	0.015875
5.366667	1	0.017125
5.383333	1	0.018125
5.400000	1	0.019000
5.416667	1	0.020000
5.433333	1	0.021750
5.450000	1	0.023125
5.466667	1	0.024250
5.483333	1	0.025125
5.500000	1	0.026750
5.516667	1	0.027875
5.533333	1	0.028875
5.550000	1	0.029750
5.566667	1	0.031375
5.583333	1	0.032250
5.600000	1	0.033000
5.616667	1	0.034125
5.633333	1	0.034750
5.650000	1	0.036250
5.666667	1	0.038125
5.683333	1	0.038875
5.700000	1	0.040000
5.716667	1	0.041000
5.733333	1	0.043125
5.750000	1	0.045000
5.766667	1	0.046750
5.783333	1	0.048500
5.800000	1	0.050125
5.816667	1	0.051625
5.833333	1	0.052875
5.850000	1	0.055000
5.866667	1	0.057125
5.883333	1	0.058250
5.900000	1	0.060875
5.916667	1	0.063250
5.933333	1	0.065125
5.950000	1	0.067250
5.966667	1	0.069375
5.983333	1	0.071500
6.000000	1	0.072750
6.016667	1	0.074625
6.033333	1	0.076250
6.050000	1	0.078500
6.066667	1	0.080750
6.083333	1	0.082000
6.100000	1	0.084000
6.116667	1	0.086000
6.133333	1	0.088750
6.150000	1	0.090875
6.166667	1	0.092625
6.183333	1	0.093500
6.200000	1	0.095625
6.216667	1	0.097375
6.233333	1	0.098750
6.250000	1	0.100125
6.266667	1	0.102000
6.283333	1	0.103500
6.300000	1	0.104875
6.316667	1	0.105750
6.333333	1	0.107000
6.350000	1	0.108750
6.366667	1	0.109750
6.383333	1	0.111125
6.400000	1	0.112125
6.416667	1	0.113000
6.433333	1	0.113625
6.450000	1	0.114750
6.466667	1	0.115375
6.483333	1	0.116375
6.500000	1	0.117375
6.516667	1	0.117625
6.533333	1	0.118250
6.550000	1	0.118875
6.566667	1	0.119000
6.583333	1	0.118875
6.600000	1	0.119000
6.616667	1	0.118750
6.633333	1	0.118750
6.650000	1	0.118625
6.666667	1	0.118125
6.683333	1	0.117500
6.700000	1	0.117250
6.716667	1	0.116875
6.733333	1	0.116500
6.750000	1	0.116375
6.766667	1	0.115750
6.783333	1	0.115625
6.800000	1	0.115000
6.816667	1	0.114375
6.833333	1	0.113875
6.850000	1	0.113750
6.866667	1	0.112750
6.883333	1	0.112125
6.900000	1	0.112500
6.916667	1	0.112625
6.933333	1	0.112250
6.950000	1	0.112125
6.966667	1	0.111625
6.983333	1	0.111125
7.000000	1	0.111250
7.016667	1	0.111000
7.033333	1	0.110625
7.050000	1	0.110375
7.066667	1	0.110625
7.083333	1	0.111125
7.100000	1	0.111500
7.116667	1	0.112125
7.133333	1	0.112500
7.150000	1	0.113125
7.166667	1	0.113500
7.183333	1	0.114250
7.200000	1	0.114875
7.216667	1	0.115500
7.233333	1	0.116750
7.250000	1	0.117500
7.266667	1	0.118625
7.283333	1	0.119625
7.300000	1	0.121000
7.316667	1	0.121625
7.333333	1	0.122000
7.350000	1	0.123500
7.366667	1	0.124625
7.383333	1	0.126250
7.400000	1	0.127500
7.416667	1	0.129125
7.433333	1	0.130625
7.450000	1	0.132125
7.466667	1	0.133500
7.483333	1	0.134625
7.500000	1	0.135875
7.516667	1	0.136875
7.533333	1	0.138125
7.550000	1	0.139250
7.566667	1	0.140250
7.583333	1	0.141000
7.600000	1	0.141500
7.616667	1	0.142500
7.633333	1	0.144000
7.650000	1	0.145375
7.666667	1	0.146375
7.683333	1	0.147250
7.700000	1	0.147375
7.716667	1	0.147875
7.733333	1	0.148875
7.750000	1	0.149250
7.766667	1	0.149500
7.783333	1	0.149500
7.800000	1	0.149625
7.816667	1	0.148750
7.833333	1	0.148000
7.850000	1	0.147875
7.866667	1	0.147625
7.883333	1	0.147125
7.900000	1	0.146750
7.916667	1	0.146250
7.933333	1	0.145125
7.950000	1	0.143750
7.966667	1	0.142875
7.983333	1	0.141125
8.000000	1	0.139125
8.016667	1	0.137125
8.033333	1	0.135125
8.050000	1	0.133625
8.066667	1	0.131875
8.083333	1	0.130125
8.100000	1	0.128125
8.116667	1	0.126750
8.133333	1	0.124625
8.150000	1	0.122625
8.166667	1	0.120625
8.183333	1	0.117625
8.200000	1	0.115500
8.216667	1	0.113125
8.233333	1	0.111125
8.250000	1	0.108500
8.266667	1	0.107375
8.283333	1	0.105375
8.300000	1	0.103125
8.316667	1	0.101500
8.333333	1	0.099750
8.350000	1	0.097875
8.366667	1	0.095750
8.383333	1	0.093875
8.400000	1	0.092500
8.416667	1	0.091250
8.433333	1	0.090250
8.450000	1	0.089375
8.466667	1	0.088125
8.483333	1	0.087000
8.500000	1	0.086125
8.516667	1	0.085125
8.533333	1	0.084125
8.550000	1	0.084000
8.566667	1	0.083625
8.583333	1	0.083375
8.600000	1	0.083125
8.616667	1	0.082625
8.633333	1	0.082875
8.650000	1	0.083500
8.666667	1	0.083500
8.683333	1	0.084250
8.700000	1	0.084625
8.716667	1	0.085625
8.733333	1	0.087000
8.750000	1	0.087875
8.766667	1	0.088875
8.783333	1	0.090250
8.800000	1	0.091500
8.816667	1	0.092250
8.833333	1	0.093625
8.850000	1	0.095375
8.866667	1	0.097250
8.883333	1	0.098250
8.900000	1	0.099500
8.916667	1	0.101750
8.933333	1	0.103875
8.950000	1	0.105500
8.966667	1	0.107500
8.983333	1	0.110500
9.000000	1	0.112250
9.016667	1	0.114250
9.033333	1	0.116125
9.050000	1	0.118875
9.066667	1	0.120750
9.083333	1	0.123250
9.100000	1	0.125750
9.116667	1	0.128750
9.133333	1	0.130500
9.150000	1	0.133125
9.166667	1	0.135750
9.183333	1	0.138750
9.200000	1	0.142000
9.216667	1	0.144625
9.233333	1	0.147500
9.250000	1	0.150250
9.266667	1	0.153250
9.283333	1	0.156625
9.300000	1	0.160625
9.316667	1	0.164500
9.333333	1	0.168875
9.350000	1	0.172875
9.366667	1	0.177625
9.383333	1	0.182375
9.400000	1	0.187625
9.416667	1	0.192875
9.433333	1	0.198750
9.450000	1	0.205875
9.466667	1	0.213000
9.483333	1	0.220750
9.500000	1	0.229750
9.516667	1	0.239875
9.533333	1	0.251875
9.550000	1	0.264625
9.566667	1	0.279125
9.583333	1	0.296375
9.600000	1	0.316125
9.616667	1	0.338625
9.633333	1	0.365500
9.650000	1	0.395625
9.666667	1	0.429000
9.683333	1	0.467125
9.700000	1	0.509375
9.716667	1	0.556000
9.733333	1	0.608375
9.750000	1	0.665500
9.766667	1	0.727750
9.783333	1	0.793375
9.800000	1	0.856500
9.816667	1	0.905000
9.833333	1	0.926625
9.850000	1	0.907375
9.866667	1	0.844875
9.883333	1	0.756750
9.900000	1	0.680500
9.916667	1	0.672750
9.933333	1	0.795625
9.950000	1	1.109625
9.966667	1	1.668625
9.983333	1	2.515375
10.000000	1	3.686500
10.016667	1	5.209125
10.033333	1	7.106375
10.050000	1	9.392250
10.066667	1	12.079625
10.083333	1	15.174750
10.100000	1	18.675875
10.116667	1	22.572750
10.133333	1	26.844250
10.150000	1	31.455000
10.166667	1	36.362875
10.183333	1	41.518375
10.200000	1	46.861250
10.216667	1	52.328875
10.233333	1	57.860875
10.250000	1	63.388500
10.266667	1	68.847750
10.283333	1	74.168625
10.300000	1	79.269625
10.316667	1	84.052625
10.333333	1	88.403000
10.350000	1	92.193125
10.366667	1	95.288625
10.383333	1	97.564875
10.400000	1	98.916875
10.416667	1	99.266750
10.433333	1	98.563500
10.450000	1	96.790125
10.466667	1	93.954250
10.483333	1	90.090125
10.500000	1	85.259625
10.516667	1	79.560125
10.533333	1	73.118500
10.550000	1	66.107375
10.566667	1	58.754750
10.583333	1	51.362500
10.600000	1	44.271000
10.616667	1	37.795750
10.633333	1	32.151375
10.650000	1	27.418375
10.666667	1	23.559000
10.683333	1	20.470375
10.700000	1	18.023125
10.716667	1	16.091375
10.733333	1	14.565125
10.750000	1	13.353375
10.766667	1	12.385125
10.783333	1	11.608000
10.800000	1	10.984875
10.816667	1	10.481750
10.833333	1	10.073125
10.850000	1	9.736750
10.866667	1	9.453375
10.883333	1	9.204750
10.900000	1	8.975875
10.916667	1	8.755375
10.933333	1	8.531625
10.950000	1	8.296000
10.966667	1	8.044375
10.983333	1	7.772000
11.000000	1	7.478500
11.016667	1	7.166000
11.033333	1	6.839875
11.050000	1	6.506250
11.066667	1	6.172625
11.083333	1	5.847750
11.100000	1	5.538375
11.116667	1	5.249000
11.133333	1	4.984000
11.150000	1	4.743750
11.166667	1	4.527500
11.183333	1	4.336375
11.200000	1	4.168375
11.216667	1	4.022250
11.233333	1	3.895000
11.250000	1	3.785375
11.266667	1	3.691750
11.283333	1	3.613375
11.300000	1	3.546500
11.316667	1	3.490625
11.333333	1	3.445500
11.350000	1	3.408500
11.366667	1	3.379250
11.383333	1	3.357000
11.400000	1	3.339375
11.416667	1	3.326875
11.433333	1	3.316875
11.450000	1	3.308250
11.466667	1	3.299500
11.483333	1	3.288750
11.500000	1	3.275625
11.516667	1	3.258625
11.533333	1	3.238625
11.550000	1	3.214375
11.566667	1	3.186375
11.583333	1	3.155500
11.600000	1	3.123000
11.616667	1	3.088625
11.633333	1	3.054250
11.650000	1	3.019375
11.666667	1	2.985125
11.683333	1	2.950875
11.700000	1	2.917375
11.716667	1	2.884500
11.733333	1	2.853375
11.750000	1	2.822875
11.766667	1	2.794500
11.783333	1	2.768750
11.800000	1	2.744500
11.816667	1	2.721500
11.833333	1	2.700750
11.850000	1	2.681750
11.866667	1	2.662500
11.883333	1	2.643000
11.900000	1	2.624375
11.916667	1	2.604625
11.933333	1	2.583000
11.950000	1	2.559875
11.966667	1	2.534750
11.983333	1	2.508375
12.000000	1	2.479875
12.016667	1	2.452000
12.033333	1	2.424250
12.050000	1	2.397500
12.066667	1	2.374000
12.083333	1	2.353125
12.100000	1	2.337500
12.116667	1	2.328250
12.133333	1	2.327750
12.150000	1	2.336500
12.166667	1	2.356750
12.183333	1	2.390125
12.200000	1	2.439125
12.216667	1	2.505000
12.233333	1	2.591125
12.250000	1	2.700250
12.266667	1	2.833875
12.283333	1	2.995000
12.300000	1	3.187000
12.316667	1	3.412125
12.333333	1	3.670125
12.350000	1	3.962000
12.366667	1	4.287000
12.383333	1	4.643000
12.400000	1	5.028750
12.416667	1	5.440500
12.433333	1	5.877500
12.450000	1	6.337500
12.466667	1	6.820625
12.483333	1	7.324875
12.500000	1	7.851000
12.516667	1	8.395750
12.533333	1	8.957125
12.550000	1	9.531125
12.566667	1	10.113000
12.583333	1	10.696125
12.600000	1	11.274750
12.616667	1	11.842000
12.633333	1	12.392500
12.650000	1	12.919500
12.666667	1	13.416750
12.683333	1	13.881250
12.700000	1	14.307125
12.716667	1	14.690375
12.733333	1	15.027375
12.750000	1	15.316875
12.766667	1	15.557750
12.783333	1	15.748750
12.800000	1	15.888875
12.816667	1	15.980000
12.833333	1	16.022875
12.850000	1	16.018750
12.866667	1	15.971250
12.883333	1	15.883250
12.900000	1	15.759750
12.916667	1	15.606375
12.933333	1	15.428125
12.950000	1	15.232750
12.966667	1	15.023750
12.983333	1	14.806000
13.000000	1	14.583250
13.016667	1	14.355875
13.033333	1	14.126375
13.050000	1	13.895750
13.066667	1	13.665625
13.083333	1	13.435500
13.100000	1	13.207500
13.116667	1	12.982125
13.133333	1	12.759500
13.150000	1	12.541250
13.166667	1	12.327125
13.183333	1	12.117250
13.200000	1	11.910875
13.216667	1	11.708500
13.233333	1	11.509000
13.250000	1	11.311125
13.266667	1	11.115250
13.283333	1	10.920375
13.300000	1	10.725000
13.316667	1	10.529500
13.333333	1	10.332250
13.350000	1	10.132250
13.366667	1	9.931125
13.383333	1	9.728250
13.400000	1	9.523500
13.416667	1	9.316000
13.433333	1	9.106750
13.450000	1	8.894000
13.466667	1	8.677625
13.483333	1	8.456125
13.500000	1	8.225625
13.516667	1	7.984875
13.533333	1	7.731125
13.550000	1	7.461625
13.566667	1	7.173875
13.583333	1	6.868625
13.600000	1	6.545250
13.616667	1	6.208750
13.633333	1	5.869000
13.650000	1	5.540875
13.666667	1	5.242375
13.683333	1	4.985750
13.700000	1	4.776500
13.716667	1	4.611000
13.733333	1	4.483250
13.750000	1	4.384875
13.766667	1	4.307375
13.783333	1	4.245750
13.800000	1	4.195000
13.816667	1	4.152625
13.833333	1	4.116500
13.850000	1	4.083625
13.866667	1	4.052750
13.883333	1	4.024125
13.900000	1	3.995625
13.916667	1	3.967125
13.933333	1	3.936375
13.950000	1	3.903500
13.966667	1	3.867500
13.983333	1	3.827875
14.000000	1	3.784750
14.016667	1	3.738625
14.033333	1	3.690250
14.050000	1	3.641625
14.066667	1	3.594750
14.083333	1	3.548750
14.100000	1	3.509500
14.116667	1	3.477625
14.133333	1	3.455125
14.150000	1	3.444375
14.166667	1	3.447500
14.183333	1	3.464875
14.200000	1	3.497250
14.216667	1	3.546375
14.233333	1	3.612500
14.250000	1	3.694750
14.266667	1	3.792250
14.283333	1	3.903500
14.300000	1	4.027375
14.316667	1	4.161750
14.333333	1	4.305625
14.350000	1	4.457750
14.366667	1	4.615500
14.383333	1	4.777375
14.400000	1	4.941500
14.416667	1	5.105500
14.433333	1	5.267625
14.450000	1	5.425625
14.466667	1	5.577375
14.483333	1	5.723000
14.500000	1	5.861125
14.516667	1	5.993000
14.533333	1	6.122250
14.550000	1	6.252500
14.566667	1	6.391250
14.583333	1	6.547000
14.600000	1	6.728000
14.616667	1	6.944375
14.633333	1	7.203625
14.650000	1	7.512625
14.666667	1	7.875125
14.683333	1	8.291625
14.700000	1	8.759125
14.716667	1	9.272375
14.733333	1	9.823250
14.750000	1	10.404125
14.766667	1	11.006625
14.783333	1	11.624125
14.800000	1	12.253625
14.816667	1	12.893625
14.833333	1	13.544750
14.850000	1	14.209375
14.866667	1	14.889625
14.883333	1	15.584625
14.900000	1	16.291000
14.916667	1	17.002625
14.933333	1	17.709000
14.950000	1	18.397625
14.966667	1	19.053125
14.983333	1	19.657750
15.000000	1	20.197250
15.016667	1	20.655875
15.033333	1	21.021625
15.050000	1	21.283125
15.066667	1	21.429375
15.083333	1	21.454500
15.100000	1	21.354125
15.116667	1	21.125000
15.133333	1	20.768875
15.150000	1	20.288625
15.166667	1	19.689750
15.183333	1	18.982000
15.200000	1	18.175250
15.216667	1	17.283625
15.233333	1	16.324000
15.250000	1	15.314750
15.266667	1	14.276000
15.283333	1	13.235500
15.300000	1	12.219500
15.316667	1	11.248750
15.333333	1	10.336375
15.350000	1	9.490000
15.366667	1	8.711250
15.383333	1	8.001500
15.400000	1	7.359875
15.416667	1	6.784625
15.433333	1	6.271125
15.450000	1	5.817875
15.466667	1	5.418500
15.483333	1	5.069375
15.500000	1	4.766750
15.516667	1	4.505500
15.533333	1	4.282250
15.550000	1	4.092875
15.566667	1	3.934875
15.583333	1	3.805000
15.600000	1	3.701250
15.616667	1	3.621875
15.633333	1	3.564125
15.650000	1	3.526750
15.666667	1	3.506500
15.683333	1	3.501125
15.700000	1	3.509625
15.716667	1	3.530375
15.733333	1	3.559000
15.750000	1	3.595375
15.766667	1	3.638625
15.783333	1	3.687125
15.800000	1	3.739500
15.816667	1	3.796375
15.833333	1	3.859000
15.850000	1	3.928250
15.866667	1	4.005500
15.883333	1	4.094250
15.900000	1	4.195250
15.916667	1	4.311000
15.933333	1	4.442625
15.950000	1	4.590500
15.966667	1	4.753000
15.983333	1	4.928375
16.000000	1	5.114500
16.016667	1	5.308000
16.033333	1	5.504625
16.050000	1	5.701250
16.066667	1	5.894125
16.083333	1	6.081125
16.100000	1	6.261125
16.116667	1	6.434625
16.133333	1	6.601750
16.150000	1	6.762625
16.166667	1	6.920125
16.183333	1	7.074375
16.200000	1	7.224625
16.216667	1	7.370625
16.233333	1	7.510875
16.250000	1	7.642875
16.266667	1	7.764000
16.283333	1	7.871750
16.300000	1	7.962750
16.316667	1	8.035625
16.333333	1	8.087250
16.350000	1	8.115250
16.366667	1	8.118875
16.383333	1	8.096500
16.400000	1	8.046750
16.416667	1	7.969250
16.433333	1	7.863625
16.450000	1	7.728875
16.466667	1	7.565500
16.483333	1	7.374375
16.500000	1	7.158875
16.516667	1	6.920000
16.533333	1	6.662125
16.550000	1	6.388875
16.566667	1	6.105500
16.583333	1	5.815875
16.600000	1	5.524625
16.616667	1	5.236750
16.633333	1	4.956625
16.650000	1	4.687750
16.666667	1	4.432750
16.683333	1	4.194375
16.700000	1	3.974250
16.716667	1	3.773000
16.733333	1	3.591250
16.750000	1	3.428000
16.766667	1	3.283125
16.783333	1	3.155375
16.800000	1	3.042625
16.816667	1	2.944750
16.833333	1	2.859500
16.850000	1	2.785375
16.866667	1	2.721375
16.883333	1	2.666250
16.900000	1	2.617500
16.916667	1	2.574000
16.933333	1	2.536875
16.950000	1	2.502750
16.966667	1	2.470750
16.983333	1	2.442125
17.000000	1	2.415875
17.016667	1	2.391375
17.033333	1	2.369125
17.050000	1	2.346875
17.066667	1	2.325875
17.083333	1	2.305750
17.100000	1	2.287875
17.116667	1	2.270625
17.133333	1	2.254375
17.150000	1	2.239500
17.166667	1	2.225375
17.183333	1	2.212375
17.200000	1	2.200000
17.216667	1	2.188625
17.233333	1	2.177875
17.250000	1	2.167875
17.266667	1	2.158375
17.283333	1	2.149625
17.300000	1	2.140875
17.316667	1	2.132375
17.333333	1	2.124375
17.350000	1	2.117250
17.366667	1	2.110375
17.383333	1	2.103875
17.400000	1	2.098000
17.416667	1	2.092625
17.433333	1	2.088250
17.450000	1	2.083750
17.466667	1	2.080750
17.483333	1	2.078000
17.500000	1	2.076500
17.516667	1	2.076250
17.533333	1	2.075750
17.550000	1	2.077750
17.566667	1	2.080750
17.583333	1	2.085875
17.600000	1	2.092250
17.616667	1	2.100625
17.633333	1	2.110250
17.650000	1	2.122750
17.666667	1	2.135750
17.683333	1	2.150750
17.700000	1	2.168000
17.716667	1	2.185125
17.733333	1	2.204125
17.750000	1	2.223875
17.766667	1	2.244625
17.783333	1	2.266250
17.800000	1	2.289750
17.816667	1	2.313625
17.833333	1	2.338000
17.850000	1	2.363125
17.866667	1	2.389000
17.883333	1	2.414250
17.900000	1	2.439875
17.916667	1	2.465375
17.933333	1	2.489875
17.950000	1	2.513000
17.966667	1	2.535250
17.983333	1	2.556250
18.000000	1	2.575750
18.016667	1	2.594250
18.033333	1	2.610125
18.050000	1	2.624000
18.066667	1	2.635750
18.083333	1	2.645125
18.100000	1	2.652375
18.116667	1	2.657125
18.133333	1	2.659500
18.150000	1	2.660125
18.166667	1	2.658250
18.183333	1	2.654000
18.200000	1	2.647500
18.216667	1	2.638375
18.233333	1	2.627750
18.250000	1	2.615000
18.266667	1	2.601250
18.283333	1	2.585500
18.300000	1	2.568000
18.316667	1	2.549250
18.333333	1	2.530250
18.350000	1	2.509500
18.366667	1	2.488375
18.383333	1	2.466500
18.400000	1	2.444375
18.416667	1	2.422625
18.433333	1	2.399875
18.450000	1	2.376750
18.466667	1	2.354375
18.483333	1	2.332500
18.500000	1	2.311000
18.516667	1	2.289125
18.533333	1	2.268625
18.550000	1	2.248000
18.566667	1	2.228000
18.583333	1	2.208875
18.600000	1	2.190250
18.616667	1	2.171625
18.633333	1	2.153750
18.650000	1	2.136875
18.666667	1	2.120625
18.683333	1	2.104500
18.700000	1	2.089250
18.716667	1	2.075000
18.733333	1	2.061000
18.750000	1	2.047750
18.766667	1	2.034375
18.783333	1	2.022125
18.800000	1	2.011750
18.816667	1	2.001625
18.833333	1	1.993125
18.850000	1	1.985500
18.866667	1	1.979875
18.883333	1	1.976375
18.900000	1	1.974000
18.916667	1	1.973000
18.933333	1	1.974125
18.950000	1	1.977250
18.966667	1	1.982250
18.983333	1	1.989750
19.000000	1	1.999625
19.016667	1	2.011500
19.033333	1	2.024875
19.050000	1	2.040125
19.066667	1	2.056625
19.083333	1	2.075250
19.100000	1	2.094875
19.116667	1	2.115125
19.133333	1	2.136500
19.150000	1	2.158375
19.166667	1	2.181500
19.183333	1	2.205000
19.200000	1	2.229750
19.216667	1	2.254875
19.233333	1	2.280875
19.250000	1	2.307250
19.266667	1	2.334125
19.283333	1	2.361250
19.300000	1	2.388125
19.316667	1	2.415250
19.333333	1	2.441750
19.350000	1	2.467375
19.366667	1	2.491875
19.383333	1	2.515875
19.400000	1	2.537625
19.416667	1	2.558500
19.433333	1	2.577625
19.450000	1	2.594625
19.466667	1	2.609000
19.483333	1	2.621500
19.500000	1	2.631125
19.516667	1	2.637125
19.533333	1	2.640375
19.550000	1	2.641250
19.566667	1	2.637875
19.583333	1	2.631750
19.600000	1	2.623375
19.616667	1	2.611250
19.633333	1	2.595750
19.650000	1	2.577625
19.666667	1	2.557500
19.683333	1	2.535625
19.700000	1	2.511125
19.716667	1	2.485125
19.733333	1	2.458125
19.750000	1	2.430625
19.766667	1	2.401125
19.783333	1	2.372625
19.800000	1	2.344000
19.816667	1	2.316000
19.833333	1	2.288875
19.850000	1	2.263500
19.866667	1	2.240125
19.883333	1	2.218875
19.900000	1	2.199125
19.916667	1	2.182125
19.933333	1	2.168875
19.950000	1	2.158375
19.966667	1	2.150000
19.983333	1	2.145000
20.000000	1	2.143750
20.016667	1	2.145125
20.033333	1	2.150000
20.050000	1	2.157500
20.066667	1	2.168750
20.083333	1	2.183500
20.100000	1	2.200500
20.116667	1	2.220250
20.133333	1	2.241625
20.150000	1	2.265875
20.166667	1	2.290625
20.183333	1	2.317625
20.200000	1	2.345875
20.216667	1	2.374000
20.233333	1	2.403375
20.250000	1	2.432000
20.266667	1	2.458375
20.283333	1	2.484125
20.300000	1	2.507625
20.316667	1	2.529000
20.333333	1	2.548625
20.350000	1	2.566125
20.366667	1	2.582500
20.383333	1	2.596750
20.400000	1	2.611250
20.416667	1	2.625250
20.433333	1	2.639625
20.450000	1	2.655000
20.466667	1	2.671125
20.483333	1	2.689000
20.500000	1	2.709375
20.516667	1	2.732750
20.533333	1	2.759875
20.550000	1	2.789875
20.566667	1	2.824375
20.583333	1	2.863250
20.600000	1	2.906250
20.616667	1	2.954500
20.633333	1	3.007375
20.650000	1	3.064500
20.666667	1	3.125750
20.683333	1	3.190000
20.700000	1	3.256250
20.716667	1	3.324375
20.733333	1	3.392750
20.750000	1	3.460750
20.766667	1	3.526000
20.783333	1	3.589000
20.800000	1	3.648375
20.816667	1	3.703500
20.833333	1	3.754875
20.850000	1	3.803000
20.866667	1	3.847625
20.883333	1	3.890250
20.900000	1	3.931375
20.916667	1	3.972375
20.933333	1	4.014125
20.950000	1	4.057125
20.966667	1	4.102125
20.983333	1	4.150125
21.000000	1	4.200750
21.016667	1	4.252750
21.033333	1	4.306625
21.050000	1	4.360875
21.066667	1	4.414875
21.083333	1	4.467250
21.100000	1	4.517125
21.116667	1	4.562875
21.133333	1	4.603125
21.150000	1	4.637125
21.166667	1	4.663875
21.183333	1	4.680750
21.200000	1	4.688375
21.216667	1	4.684250
21.233333	1	4.668375
21.250000	1	4.638750
21.266667	1	4.596625
21.283333	1	4.541375
21.300000	1	4.471875
21.316667	1	4.389500
21.333333	1	4.294250
21.350000	1	4.186750
21.366667	1	4.069375
21.383333	1	3.944250
21.400000	1	3.812250
21.416667	1	3.674250
21.433333	1	3.533875
21.450000	1	3.391875
21.466667	1	3.250625
21.483333	1	3.112375
21.500000	1	2.978000
21.516667	1	2.848000
21.533333	1	2.725000
21.550000	1	2.609375
21.566667	1	2.501750
21.583333	1	2.402250
21.600000	1	2.310625
21.616667	1	2.228000
21.633333	1	2.153000
21.650000	1	2.086250
21.666667	1	2.027125
21.683333	1	1.974125
21.700000	1	1.928000
21.716667	1	1.887625
21.733333	1	1.852250
21.750000	1	1.822375
21.766667	1	1.797250
21.783333	1	1.776125
21.800000	1	1.758125
21.816667	1	1.742250
21.833333	1	1.730375
21.850000	1	1.720375
21.866667	1	1.712375
21.883333	1	1.705375
21.900000	1	1.700750
21.916667	1	1.697500
21.933333	1	1.695625
21.950000	1	1.694625
21.966667	1	1.694375
21.983333	1	1.694875
22.000000	1	1.696125
22.016667	1	1.698375
22.033333	1	1.701375
22.050000	1	1.704875
22.066667	1	1.708375
22.083333	1	1.711500
22.100000	1	1.715375
22.116667	1	1.719375
22.133333	1	1.723625
22.150000	1	1.727750
22.166667	1	1.731875
22.183333	1	1.735500
22.200000	1	1.739000
22.216667	1	1.742375
22.233333	1	1.745250
22.250000	1	1.747500
22.266667	1	1.748125
22.283333	1	1.748875
22.300000	1	1.748625
22.316667	1	1.748625
22.333333	1	1.747500
22.350000	1	1.745750
22.366667	1	1.743500
22.383333	1	1.741125
22.400000	1	1.738500
22.416667	1	1.735125
22.433333	1	1.731750
22.450000	1	1.727875
22.466667	1	1.724000
22.483333	1	1.721000
22.500000	1	1.717875
22.516667	1	1.715000
22.533333	1	1.712000
22.550000	1	1.709000
22.566667	1	1.707000
22.583333	1	1.705500
22.600000	1	1.704625
22.616667	1	1.704750
22.633333	1	1.705375
22.650000	1	1.706125
22.666667	1	1.706750
22.683333	1	1.708375
22.700000	1	1.710250
22.716667	1	1.712625
22.733333	1	1.714625
22.750000	1	1.717625
22.766667	1	1.720375
22.783333	1	1.723125
22.800000	1	1.726500
22.816667	1	1.729625
22.833333	1	1.733125
22.850000	1	1.735750
22.866667	1	1.738125
22.883333	1	1.740125
22.900000	1	1.741500
22.916667	1	1.742250
22.933333	1	1.743500
22.950000	1	1.743500
22.966667	1	1.742625
22.983333	1	1.741125
23.000000	1	1.739625
23.016667	1	1.737375
23.033333	1	1.734375
23.050000	1	1.730500
23.066667	1	1.726750
23.083333	1	1.721750
23.100000	1	1.716375
23.116667	1	1.710375
23.133333	1	1.703750
23.150000	1	1.696750
23.166667	1	1.689250
23.183333	1	1.681375
23.200000	1	1.673125
23.216667	1	1.664875
23.233333	1	1.656625
23.250000	1	1.647500
23.266667	1	1.639125
23.283333	1	1.629875
23.300000	1	1.621625
23.316667	1	1.612500
23.333333	1	1.604125
23.350000	1	1.596125
23.366667	1	1.588375
23.383333	1	1.581375
23.400000	1	1.575375
23.416667	1	1.570750
23.433333	1	1.567375
23.450000	1	1.564750
23.466667	1	1.563250
23.483333	1	1.563750
23.500000	1	1.566625
23.516667	1	1.570625
23.533333	1	1.576250
23.550000	1	1.584750
23.566667	1	1.594375
23.583333	1	1.606500
23.600000	1	1.620375
23.616667	1	1.636125
23.633333	1	1.654500
23.650000	1	1.674750
23.666667	1	1.696125
23.683333	1	1.719250
23.700000	1	1.743750
23.716667	1	1.768000
23.733333	1	1.794750
23.750000	1	1.822000
23.766667	1	1.849375
23.783333	1	1.877375
23.800000	1	1.906875
23.816667	1	1.937500
23.833333	1	1.968375
23.850000	1	2.000250
23.866667	1	2.033250
23.883333	1	2.067375
23.900000	1	2.102250
23.916667	1	2.139125
23.933333	1	2.176125
23.950000	1	2.214375
23.966667	1	2.252250
23.983333	1	2.291375
24.000000	1	2.330000
24.016667	1	2.368750
24.033333	1	2.406875
24.050000	1	2.444000
24.066667	1	2.479750
24.083333	1	2.513875
24.100000	1	2.546500
24.116667	1	2.576875
24.133333	1	2.604375
24.150000	1	2.628500
24.166667	1	2.649000
24.183333	1	2.665750
24.200000	1	2.678500
24.216667	1	2.687375
24.233333	1	2.692000
24.250000	1	2.691500
24.266667	1	2.686750
24.283333	1	2.676750
24.300000	1	2.662125
24.316667	1	2.643375
24.333333	1	2.620000
24.350000	1	2.592875
24.366667	1	2.562625
24.383333	1	2.529000
24.400000	1	2.492875
24.416667	1	2.455125
24.433333	1	2.415750
24.450000	1	2.376500
24.466667	1	2.337000
24.483333	1	2.297625
24.500000	1	2.258625
24.516667	1	2.220500
24.533333	1	2.185125
24.550000	1	2.152000
24.566667	1	2.121250
24.583333	1	2.092875
24.600000	1	2.066875
24.616667	1	2.043625
24.633333	1	2.022875
24.650000	1	2.005750
24.666667	1	1.990875
24.683333	1	1.977875
24.700000	1	1.966625
24.716667	1	1.957625
24.733333	1	1.950500
24.750000	1	1.945125
24.766667	1	1.940250
24.783333	1	1.936375
24.800000	1	1.933000
24.816667	1	1.930000
24.833333	1	1.927125
24.850000	1	1.924125
24.866667	1	1.920875
24.883333	1	1.916875
24.900000	1	1.913000
24.916667	1	1.907625
24.933333	1	1.901750
24.950000	1	1.895250
24.966667	1	1.888125
24.983333	1	1.879250
25.000000	1	1.868750
25.016667	1	1.857375
25.033333	1	1.845250
25.050000	1	1.833375
25.066667	1	1.820000
25.083333	1	1.805250
25.100000	1	1.789750
25.116667	1	1.773875
25.133333	1	1.757250
25.150000	1	1.740250
25.166667	1	1.723625
25.183333	1	1.706250
25.200000	1	1.689500
25.216667	1	1.672125
25.233333	1	1.655500
25.250000	1	1.639750
25.266667	1	1.624125
25.283333	1	1.609125
25.300000	1	1.595250
25.316667	1	1.582250
25.333333	1	1.570000
25.350000	1	1.558500
25.366667	1	1.548625
25.383333	1	1.539125
25.400000	1	1.530250
25.416667	1	1.522500
25.433333	1	1.515625
25.450000	1	1.510000
25.466667	1	1.505500
25.483333	1	1.501000
25.500000	1	1.497625
25.516667	1	1.495500
25.533333	1	1.493375
25.550000	1	1.492750
25.566667	1	1.492750
25.583333	1	1.493125
25.600000	1	1.494000
25.616667	1	1.494875
25.633333	1	1.495875
25.650000	1	1.498375
25.666667	1	1.501000
25.683333	1	1.503500
25.700000	1	1.505875
25.716667	1	1.509250
25.733333	1	1.512250
25.750000	1	1.515375
25.766667	1	1.518875
25.783333	1	1.523000
25.800000	1	1.527250
25.816667	1	1.531625
25.833333	1	1.534875
25.850000	1	1.538500
25.866667	1	1.542125
25.883333	1	1.546500
25.900000	1	1.550375
25.916667	1	1.553875
25.933333	1	1.557250
25.950000	1	1.561375
25.966667	1	1.565750
25.983333	1	1.570875
26.000000	1	1.574500
26.016667	1	1.578000
26.033333	1	1.581500
26.050000	1	1.585875
26.066667	1	1.590125
26.083333	1	1.593875
26.100000	1	1.598500
26.116667	1	1.602625
26.133333	1	1.607125
26.150000	1	1.611000
26.166667	1	1.614875
26.183333	1	1.619000
26.200000	1	1.622625
26.216667	1	1.627750
26.233333	1	1.632125
26.250000	1	1.637000
26.266667	1	1.641375
26.283333	1	1.646250
26.300000	1	1.651125
26.316667	1	1.655875
26.333333	1	1.660375
26.350000	1	1.664625
26.366667	1	1.669250
26.383333	1	1.673500
26.400000	1	1.677500
26.416667	1	1.681375
26.433333	1	1.685625
26.450000	1	1.689250
26.466667	1	1.693375
26.483333	1	1.696875
26.500000	1	1.699625
26.516667	1	1.702875
26.533333	1	1.705750
26.550000	1	1.708500
26.566667	1	1.711000
26.583333	1	1.713000
26.600000	1	1.714000
26.616667	1	1.715000
26.633333	1	1.717625
26.650000	1	1.719625
26.666667	1	1.720875
26.683333	1	1.721125
26.700000	1	1.721375
26.716667	1	1.721250
26.733333	1	1.721000
26.750000	1	1.720000
26.766667	1	1.718750
26.783333	1	1.716875
26.800000	1	1.714500
26.816667	1	1.711875
26.833333	1	1.709000
26.850000	1	1.705625
26.866667	1	1.701375
26.883333	1	1.696750
26.900000	1	1.691500
26.916667	1	1.686250
26.933333	1	1.680625
26.950000	1	1.674250
26.966667	1	1.667375
26.983333	1	1.660125
27.000000	1	1.652875
27.016667	1	1.645625
27.033333	1	1.637875
27.050000	1	1.629750
27.066667	1	1.621125
27.083333	1	1.612375
27.100000	1	1.603250
27.116667	1	1.595375
27.133333	1	1.587000
27.150000	1	1.577875
27.166667	1	1.569625
27.183333	1	1.561500
27.200000	1	1.553875
27.216667	1	1.546250
27.233333	1	1.539000
27.250000	1	1.531625
27.266667	1	1.524375
27.283333	1	1.518000
27.300000	1	1.512750
27.316667	1	1.507750
27.333333	1	1.503750
27.350000	1	1.500500
27.366667	1	1.497875
27.383333	1	1.496375
27.400000	1	1.496500
27.416667	1	1.497875
27.433333	1	1.500625
27.450000	1	1.504875
27.466667	1	1.511000
27.483333	1	1.519125
27.500000	1	1.529375
27.516667	1	1.542500
27.533333	1	1.558250
27.550000	1	1.576375
27.566667	1	1.598125
27.583333	1	1.622750
27.600000	1	1.650250
27.616667	1	1.681375
27.633333	1	1.716250
27.650000	1	1.754375
27.666667	1	1.796250
27.683333	1	1.841375
27.700000	1	1.888625
27.716667	1	1.939375
27.733333	1	1.992250
27.750000	1	2.047750
27.766667	1	2.105375
27.783333	1	2.164125
27.800000	1	2.224750
27.816667	1	2.286875
27.833333	1	2.350125
27.850000	1	2.413750
27.866667	1	2.478625
27.883333	1	2.543875
27.900000	1	2.609625
27.916667	1	2.676250
27.933333	1	2.742750
27.950000	1	2.810000
27.966667	1	2.879000
27.983333	1	2.947500
28.000000	1	3.017000
28.016667	1	3.087500
28.033333	1	3.158250
28.050000	1	3.229250
28.066667	1	3.300750
28.083333	1	3.373375
28.100000	1	3.445875
28.116667	1	3.517500
28.133333	1	3.587750
28.150000	1	3.657500
28.166667	1	3.725375
28.183333	1	3.791375
28.200000	1	3.855500
28.216667	1	3.917000
28.233333	1	3.975750
28.250000	1	4.030750
28.266667	1	4.082625
28.283333	1	4.130000
28.300000	1	4.172875
28.316667	1	4.211375
28.333333	1	4.244500
28.350000	1	4.271625
28.366667	1	4.293000
28.383333	1	4.308000
28.400000	1	4.317250
28.416667	1	4.319500
28.433333	1	4.313250
28.450000	1	4.300250
28.466667	1	4.280125
28.483333	1	4.252000
28.500000	1	4.216500
28.516667	1	4.172250
28.533333	1	4.119625
28.550000	1	4.059125
28.566667	1	3.990750
28.583333	1	3.915000
28.600000	1	3.832375
28.616667	1	3.743125
28.633333	1	3.648125
28.650000	1	3.547875
28.666667	1	3.443375
28.683333	1	3.336000
28.700000	1	3.226250
28.716667	1	3.114750
28.733333	1	3.002375
28.750000	1	2.890875
28.766667	1	2.781500
28.783333	1	2.674250
28.800000	1	2.569750
28.816667	1	2.468750
28.833333	1	2.372375
28.850000	1	2.281125
28.866667	1	2.195375
28.883333	1	2.114125
28.900000	1	2.039250
28.916667	1	1.970625
28.933333	1	1.907625
28.950000	1	1.849750
28.966667	1	1.797375
28.983333	1	1.749375
29.000000	1	1.707000
29.016667	1	1.669250
29.033333	1	1.635500
29.050000	1	1.605375
29.066667	1	1.578875
29.083333	1	1.556375
29.100000	1	1.536375
29.116667	1	1.519250
29.133333	1	1.504125
29.150000	1	1.492250
29.166667	1	1.482125
29.183333	1	1.474125
29.200000	1	1.467625
29.216667	1	1.462750
29.233333	1	1.459250
29.250000	1	1.456750
29.266667	1	1.455500
29.283333	1	1.456125
29.300000	1	1.457750
29.316667	1	1.459250
29.333333	1	1.463000
29.350000	1	1.466750
29.366667	1	1.471125
29.383333	1	1.476250
29.400000	1	1.483125
29.416667	1	1.489750
29.433333	1	1.497750
29.450000	1	1.505500
29.466667	1	1.513875
29.483333	1	1.522875
29.500000	1	1.532000
29.516667	1	1.541750
29.533333	1	1.551750
29.550000	1	1.561875
29.566667	1	1.572625
29.583333	1	1.583500
29.600000	1	1.594375
29.616667	1	1.605875
29.633333	1	1.617375
29.650000	1	1.627875
29.666667	1	1.639125
29.683333	1	1.650625
29.700000	1	1.661750
29.716667	1	1.673500
29.733333	1	1.684750
29.750000	1	1.695500
29.766667	1	1.706375
29.783333	1	1.717375
29.800000	1	1.727375
29.816667	1	1.737250
29.833333	1	1.746250
29.850000	1	1.756250
29.866667	1	1.765000
29.883333	1	1.774250
29.900000	1	1.782875
29.916667	1	1.791125
29.933333	1	1.799125
29.950000	1	1.806000
29.966667	1	1.812625
29.983333	1	1.818500
30.000000	1	1.824250
30.016667	1	1.830125
30.033333	1	1.835125
30.050000	1	1.839875
30.066667	1	1.844000
30.083333	1	1.847750
30.100000	1	1.850750
30.116667	1	1.853500
30.133333	1	1.856000
30.150000	1	1.857750
30.166667	1	1.858750
30.183333	1	1.859500
30.200000	1	1.860375
30.216667	1	1.860000
30.233333	1	1.858375
30.250000	1	1.856500
30.266667	1	1.855125
30.283333	1	1.853250
30.300000	1	1.851750
30.316667	1	1.849375
30.333333	1	1.847000
30.350000	1	1.843500
30.366667	1	1.841125
30.383333	1	1.837625
30.400000	1	1.835000
30.416667	1	1.831750
30.433333	1	1.828125
30.450000	1	1.824875
30.466667	1	1.822000
30.483333	1	1.819625
30.500000	1	1.816500
30.516667	1	1.814250
30.533333	1	1.812000
30.550000	1	1.809875
30.566667	1	1.808125
30.583333	1	1.807000
30.600000	1	1.806250
30.616667	1	1.804875
30.633333	1	1.804000
30.650000	1	1.803500
30.666667	1	1.804125
30.683333	1	1.804125
30.700000	1	1.805375
30.716667	1	1.806500
30.733333	1	1.807750
30.750000	1	1.809000
30.766667	1	1.810750
30.783333	1	1.813250
30.800000	1	1.816250
30.816667	1	1.818500
30.833333	1	1.821500
30.850000	1	1.824750
30.866667	1	1.827750
30.883333	1	1.831875
30.900000	1	1.835250
30.916667	1	1.839500
30.933333	1	1.844250
30.950000	1	1.848750
30.966667	1	1.853500
30.983333	1	1.857500
31.000000	1	1.861875
31.016667	1	1.866500
31.033333	1	1.871375
31.050000	1	1.875500
31.066667	1	1.880375
31.083333	1	1.884875
31.100000	1	1.889375
31.116667	1	1.893750
31.133333	1	1.897625
31.150000	1	1.901250
31.166667	1	1.903875
31.183333	1	1.907750
31.200000	1	1.910500
31.216667	1	1.912750
31.233333	1	1.914750
31.250000	1	1.916750
31.266667	1	1.918000
31.283333	1	1.919250
31.300000	1	1.919625
31.316667	1	1.920125
31.333333	1	1.919750
31.350000	1	1.918500
31.366667	1	1.917375
31.383333	1	1.915500
31.400000	1	1.913125
31.416667	1	1.910875
31.433333	1	1.907625
31.450000	1	1.904500
31.466667	1	1.900250
31.483333	1	1.896000
31.500000	1	1.892000
31.516667	1	1.887000
31.533333	1	1.882375
31.550000	1	1.877875
31.566667	1	1.872750
31.583333	1	1.867750
31.600000	1	1.863000
31.616667	1	1.858000
31.633333	1	1.852875
31.650000	1	1.848750
31.666667	1	1.844625
31.683333	1	1.841000
31.700000	1	1.838125
31.716667	1	1.835250
31.733333	1	1.833000
31.750000	1	1.831250
31.766667	1	1.830250
31.783333	1	1.829875
31.800000	1	1.828875
31.816667	1	1.829250
31.833333	1	1.829750
31.850000	1	1.831250
31.866667	1	1.833500
31.883333	1	1.836125
31.900000	1	1.838125
31.916667	1	1.841625
31.933333	1	1.844875
31.950000	1	1.848625
31.966667	1	1.852625
31.983333	1	1.858000
32.000000	1	1.863250
32.016667	1	1.868625
32.033333	1	1.874250
32.050000	1	1.880250
32.066667	1	1.886500
32.083333	1	1.892875
32.100000	1	1.899750
32.116667	1	1.906125
32.133333	1	1.913500
32.150000	1	1.921125
32.166667	1	1.927250
32.183333	1	1.933875
32.200000	1	1.941250
32.216667	1	1.948125
32.233333	1	1.954875
32.250000	1	1.962125
32.266667	1	1.968625
32.283333	1	1.976500
32.300000	1	1.983250
32.316667	1	1.990125
32.333333	1	1.996000
32.350000	1	2.002000
32.366667	1	2.008000
32.383333	1	2.012875
32.400000	1	2.018000
32.416667	1	2.022875
32.433333	1	2.027500
32.450000	1	2.031125
32.466667	1	2.034375
32.483333	1	2.037625
32.500000	1	2.040750
32.516667	1	2.042500
32.533333	1	2.044000
32.550000	1	2.045750
32.566667	1	2.046500
32.583333	1	2.046750
32.600000	1	2.046250
32.616667	1	2.044750
32.633333	1	2.043500
32.650000	1	2.041375
32.666667	1	2.038875
32.683333	1	2.035250
32.700000	1	2.030125
32.716667	1	2.025125
32.733333	1	2.019250
32.750000	1	2.012750
32.766667	1	2.004750
32.783333	1	1.996375
32.800000	1	1.987750
32.816667	1	1.978125
32.833333	1	1.968500
32.850000	1	1.957750
32.866667	1	1.946125
32.883333	1	1.934250
32.900000	1	1.922250
32.916667	1	1.909125
32.933333	1	1.896125
32.950000	1	1.882500
32.966667	1	1.868125
32.983333	1	1.853125
33.000000	1	1.838250
33.016667	1	1.823625
33.033333	1	1.809125
33.050000	1	1.794000
33.066667	1	1.778375
33.083333	1	1.763375
33.100000	1	1.748000
33.116667	1	1.732875
33.133333	1	1.718000
33.150000	1	1.703875
33.166667	1	1.689625
33.183333	1	1.675750
33.200000	1	1.661250
33.216667	1	1.647875
33.233333	1	1.635625
33.250000	1	1.622875
33.266667	1	1.611125
33.283333	1	1.600125
33.300000	1	1.589625
33.316667	1	1.579000
33.333333	1	1.569125
33.350000	1	1.559625
33.366667	1	1.551000
33.383333	1	1.542875
33.400000	1	1.534750
33.416667	1	1.527375
33.433333	1	1.521000
33.450000	1	1.514375
33.466667	1	1.509000
33.483333	1	1.504000
33.500000	1	1.500250
33.516667	1	1.495625
33.533333	1	1.491500
33.550000	1	1.488375
33.566667	1	1.485250
33.583333	1	1.482750
33.600000	1	1.481375
33.616667	1	1.480250
33.633333	1	1.479875
33.650000	1	1.479500
33.666667	1	1.479750
33.683333	1	1.480125
33.700000	1	1.481625
33.716667	1	1.483375
33.733333	1	1.485250
33.750000	1	1.487750
33.766667	1	1.491625
33.783333	1	1.495500
33.800000	1	1.499625
33.816667	1	1.504125
33.833333	1	1.509000
33.850000	1	1.514500
33.866667	1	1.520500
33.883333	1	1.526750
33.900000	1	1.534750
33.916667	1	1.542875
33.933333	1	1.551500
33.950000	1	1.560750
33.966667	1	1.570250
33.983333	1	1.580000
34.000000	1	1.590750
34.016667	1	1.602500
34.033333	1	1.614125
34.050000	1	1.626125
34.066667	1	1.638500
34.083333	1	1.651375
34.100000	1	1.663875
34.116667	1	1.677500
34.133333	1	1.691125
34.150000	1	1.705125
34.166667	1	1.719375
34.183333	1	1.733500
34.200000	1	1.747750
34.216667	1	1.762375
34.233333	1	1.777250
34.250000	1	1.791875
34.266667	1	1.807625
34.283333	1	1.823500
34.300000	1	1.839250
34.316667	1	1.854500
34.333333	1	1.870625
34.350000	1	1.886875
34.366667	1	1.902500
34.383333	1	1.918875
34.400000	1	1.936625
34.416667	1	1.953125
34.433333	1	1.970000
34.450000	1	1.987250
34.466667	1	2.003750
34.483333	1	2.019875
34.500000	1	2.036625
34.516667	1	2.053375
34.533333	1	2.069875
34.550000	1	2.085000
34.566667	1	2.099500
34.583333	1	2.114750
34.600000	1	2.129125
34.616667	1	2.143375
34.633333	1	2.156250
34.650000	1	2.169000
34.666667	1	2.180875
34.683333	1	2.191875
34.700000	1	2.202000
34.716667	1	2.211125
34.733333	1	2.219375
34.750000	1	2.225625
34.766667	1	2.231750
34.783333	1	2.235875
34.800000	1	2.239250
34.816667	1	2.241375
34.833333	1	2.242250
34.850000	1	2.242000
34.866667	1	2.239500
34.883333	1	2.235625
34.900000	1	2.230250
34.916667	1	2.223250
34.933333	1	2.215125
34.950000	1	2.205750
34.966667	1	2.194750
34.983333	1	2.183000
35.000000	1	2.169625
35.016667	1	2.155375
35.033333	1	2.139875
35.050000	1	2.123625
35.066667	1	2.106375
35.083333	1	2.088500
35.100000	1	2.070000
35.116667	1	2.051250
35.133333	1	2.032000
35.150000	1	2.012500
35.166667	1	1.993000
35.183333	1	1.972750
35.200000	1	1.953125
35.216667	1	1.934000
35.233333	1	1.915125
35.250000	1	1.897125
35.266667	1	1.878750
35.283333	1	1.861250
35.300000	1	1.844125
35.316667	1	1.828000
35.333333	1	1.812750
35.350000	1	1.798500
35.366667	1	1.784625
35.383333	1	1.771125
35.400000	1	1.758750
35.416667	1	1.747375
35.433333	1	1.737000
35.450000	1	1.727625
35.466667	1	1.718750
35.483333	1	1.711250
35.500000	1	1.704250
35.516667	1	1.698000
35.533333	1	1.691750
35.550000	1	1.686875
35.566667	1	1.682500
35.583333	1	1.679375
35.600000	1	1.676750
35.616667	1	1.674250
35.633333	1	1.672125
35.650000	1	1.670750
35.666667	1	1.669500
35.683333	1	1.669375
35.700000	1	1.669000
35.716667	1	1.669500
35.733333	1	1.669625
35.750000	1	1.670250
35.766667	1	1.670750
35.783333	1	1.672125
35.800000	1	1.673250
35.816667	1	1.674750
35.833333	1	1.677000
35.850000	1	1.678000
35.866667	1	1.680000
35.883333	1	1.682000
35.900000	1	1.684250
35.916667	1	1.685625
35.933333	1	1.687750
35.950000	1	1.689875
35.966667	1	1.692000
35.983333	1	1.694625
36.000000	1	1.697500
36.016667	1	1.700125
36.033333	1	1.701875
36.050000	1	1.704625
36.066667	1	1.707000
36.083333	1	1.708625
36.100000	1	1.711250
36.116667	1	1.713750
36.133333	1	1.716375
36.150000	1	1.719000
36.166667	1	1.721250
36.183333	1	1.723500
36.200000	1	1.726250
36.216667	1	1.728625
36.233333	1	1.730250
36.250000	1	1.733125
36.266667	1	1.735875
36.283333	1	1.738500
36.300000	1	1.741625
36.316667	1	1.744375
36.333333	1	1.747375
36.350000	1	1.749875
36.366667	1	1.753125
36.383333	1	1.755375
36.400000	1	1.758625
36.416667	1	1.761375
36.433333	1	1.764125
36.450000	1	1.766875
36.466667	1	1.769500
36.483333	1	1.772875
36.500000	1	1.776000
36.516667	1	1.778625
36.533333	1	1.781750
36.550000	1	1.784250
36.566667	1	1.786500
36.583333	1	1.790000
36.600000	1	1.792000
36.616667	1	1.794750
36.633333	1	1.796875
36.650000	1	1.799500
36.666667	1	1.802375
36.683333	1	1.804875
36.700000	1	1.806500
36.716667	1	1.809000
36.733333	1	1.811125
36.750000	1	1.812500
36.766667	1	1.814000
36.783333	1	1.815625
36.800000	1	1.816625
36.816667	1	1.818250
36.833333	1	1.819125
36.850000	1	1.820125
36.866667	1	1.820000
36.883333	1	1.820000
36.900000	1	1.819625
36.916667	1	1.819750
36.933333	1	1.819500
36.950000	1	1.818750
36.966667	1	1.818000
36.983333	1	1.817375
37.000000	1	1.816625
37.016667	1	1.815000
37.033333	1	1.813500
37.050000	1	1.811625
37.066667	1	1.809500
37.083333	1	1.807500
37.100000	1	1.805375
37.116667	1	1.803375
37.133333	1	1.800875
37.150000	1	1.798500
37.166667	1	1.795875
37.183333	1	1.793125
37.200000	1	1.790125
37.216667	1	1.787000
37.233333	1	1.784125
37.250000	1	1.781000
37.266667	1	1.778125
37.283333	1	1.774375
37.300000	1	1.771125
37.316667	1	1.767750
37.333333	1	1.764500
37.350000	1	1.761125
37.366667	1	1.757125
37.383333	1	1.753625
37.400000	1	1.749875
37.416667	1	1.746125
37.433333	1	1.742125
37.450000	1	1.738125
37.466667	1	1.734000
37.483333	1	1.730000
37.500000	1	1.725750
37.516667	1	1.721250
37.533333	1	1.717625
37.550000	1	1.713250
37.566667	1	1.708500
37.583333	1	1.704250
37.600000	1	1.701125
37.616667	1	1.697125
37.633333	1	1.692875
37.650000	1	1.689250
37.666667	1	1.685125
37.683333	1	1.681375
37.700000	1	1.677750
37.716667	1	1.674500
37.733333	1	1.670875
37.750000	1	1.667750
37.766667	1	1.664625
37.783333	1	1.662000
37.800000	1	1.659250
37.816667	1	1.656500
37.833333	1	1.653500
37.850000	1	1.650875
37.866667	1	1.649625
37.883333	1	1.648000
37.900000	1	1.646000
37.916667	1	1.644500
37.933333	1	1.642125
37.950000	1	1.641000
37.966667	1	1.640625
37.983333	1	1.639750
38.000000	1	1.638875
38.016667	1	1.638625
38.033333	1	1.638125
38.050000	1	1.637500
38.066667	1	1.637875
38.083333	1	1.637000
38.100000	1	1.637250
38.116667	1	1.637500
38.133333	1	1.638000
38.150000	1	1.638375
38.166667	1	1.638500
38.183333	1	1.638875
38.200000	1	1.640000
38.216667	1	1.640875
38.233333	1	1.641125
38.250000	1	1.641625
38.266667	1	1.642375
38.283333	1	1.642750
38.300000	1	1.643625
38.316667	1	1.643875
38.333333	1	1.643875
38.350000	1	1.645375
38.366667	1	1.645500
38.383333	1	1.645500
38.400000	1	1.646000
38.416667	1	1.646125
38.433333	1	1.645750
38.450000	1	1.645875
38.466667	1	1.646125
38.483333	1	1.646125
38.500000	1	1.645875
38.516667	1	1.646000
38.533333	1	1.646250
38.550000	1	1.646750
38.566667	1	1.647000
38.583333	1	1.647125
38.600000	1	1.647875
38.616667	1	1.647750
38.633333	1	1.647750
38.650000	1	1.648000
38.666667	1	1.648500
38.683333	1	1.648625
38.700000	1	1.649500
38.716667	1	1.650375
38.733333	1	1.651125
38.750000	1	1.651500
38.766667	1	1.651875
38.783333	1	1.652500
38.800000	1	1.653250
38.816667	1	1.653625
38.833333	1	1.654125
38.850000	1	1.655000
38.866667	1	1.655375
38.883333	1	1.655750
38.900000	1	1.655750
38.916667	1	1.656250
38.933333	1	1.656375
38.950000	1	1.657000
38.966667	1	1.657000
38.983333	1	1.656750
39.000000	1	1.656500
39.016667	1	1.656625
39.033333	1	1.656875
39.050000	1	1.657250
39.066667	1	1.656375
39.083333	1	1.655500
39.100000	1	1.654750
39.116667	1	1.654500
39.133333	1	1.653875
39.150000	1	1.653375
39.166667	1	1.652250
39.183333	1	1.651500
39.200000	1	1.650625
39.216667	1	1.649750
39.233333	1	1.649375
39.250000	1	1.648125
39.266667	1	1.647000
39.283333	1	1.647000
39.300000	1	1.646250
39.316667	1	1.645625
39.333333	1	1.645250
39.350000	1	1.645250
39.366667	1	1.645625
39.383333	1	1.645375
39.400000	1	1.645500
39.416667	1	1.645250
39.433333	1	1.644875
39.450000	1	1.645500
39.466667	1	1.645875
39.483333	1	1.646250
39.500000	1	1.647125
39.516667	1	1.647000
39.533333	1	1.648125
39.550000	1	1.649500
39.566667	1	1.650500
39.583333	1	1.651250
39.600000	1	1.652000
39.616667	1	1.652875
39.633333	1	1.654375
39.650000	1	1.656375
39.666667	1	1.657500
39.683333	1	1.658750
39.700000	1	1.660250
39.716667	1	1.661750
39.733333	1	1.663375
39.750000	1	1.665250
39.766667	1	1.666500
39.783333	1	1.668000
39.800000	1	1.670000
39.816667	1	1.671250
39.833333	1	1.672875
39.850000	1	1.674625
39.866667	1	1.676750
39.883333	1	1.678250
39.900000	1	1.679750
39.916667	1	1.681750
39.933333	1	1.683375
39.950000	1	1.686000
39.966667	1	1.688125
39.983333	1	1.690000
40.000000	1	1.692250
