File Path	chrom://990-75db15j/XVault/Ultimate_3000/1256/20230531_CMO_stabTest _FP08_FP09.seq/356.smp/RI_1.channel/RI_1.chm
Channel	RI_1

Injection Information:
Data Vault	XVault
Injection	FP09__2_s1
Injection Number	60
Position	BB12
Comment	
Processing Method	
Instrument Method	run_25B_method
Type	Unknown
Status	Finished
Injection Date	03.06.2023
Injection Time	06:01:53
Injection Volume (µl)	20.000
Dilution Factor	1.0000
Weight	1.0000

Chromatogram Data Information:
Time Min. (min)	0.000000
Time Max. (min)	40.000000
Data Points	2401
Detector	RI
Generating Data System	Chromeleon 7.2.5.9507
Exporting Data System	Chromeleon 7.2.5.0
Operator	Instrument Controller
Signal Quantity	Refractive 
Signal Unit	µRIU
Signal Min.	-0.662125
Signal Max.	66.920500
Channel	RI_1
Driver Name	RID520Driver.dll
Channel Type	Evaluation
Min. Step (s)	1
Max. Step (s)	1
Average Step (s)	1

Signal Parameter Information:
Signal Info	

Chromatogram Data:
Time (min)	Step (s)	Value (µRIU)
0.000000	n.a.	0.000250
0.016667	1	-0.000375
0.033333	1	-0.001125
0.050000	1	-0.001125
0.066667	1	-0.000875
0.083333	1	-0.001000
0.100000	1	-0.001000
0.116667	1	-0.001625
0.133333	1	-0.002125
0.150000	1	-0.003250
0.166667	1	-0.003875
0.183333	1	-0.004625
0.200000	1	-0.004750
0.216667	1	-0.005625
0.233333	1	-0.005875
0.250000	1	-0.006750
0.266667	1	-0.006750
0.283333	1	-0.007875
0.300000	1	-0.010625
0.316667	1	-0.014125
0.333333	1	-0.017625
0.350000	1	-0.018000
0.366667	1	-0.015625
0.383333	1	-0.011750
0.400000	1	-0.008000
0.416667	1	-0.004875
0.433333	1	-0.002375
0.450000	1	-0.000625
0.466667	1	0.001125
0.483333	1	0.001750
0.500000	1	0.000500
0.516667	1	-0.001625
0.533333	1	-0.005000
0.550000	1	-0.007250
0.566667	1	-0.009250
0.583333	1	-0.011000
0.600000	1	-0.012375
0.616667	1	-0.014125
0.633333	1	-0.015750
0.650000	1	-0.017250
0.666667	1	-0.018875
0.683333	1	-0.019875
0.700000	1	-0.021250
0.716667	1	-0.023125
0.733333	1	-0.024375
0.750000	1	-0.025625
0.766667	1	-0.026375
0.783333	1	-0.026750
0.800000	1	-0.028250
0.816667	1	-0.029625
0.833333	1	-0.030375
0.850000	1	-0.030875
0.866667	1	-0.031750
0.883333	1	-0.033000
0.900000	1	-0.033375
0.916667	1	-0.034125
0.933333	1	-0.035875
0.950000	1	-0.037250
0.966667	1	-0.037875
0.983333	1	-0.038750
1.000000	1	-0.039125
1.016667	1	-0.039875
1.033333	1	-0.041625
1.050000	1	-0.042000
1.066667	1	-0.042000
1.083333	1	-0.042375
1.100000	1	-0.043250
1.116667	1	-0.043625
1.133333	1	-0.044125
1.150000	1	-0.045000
1.166667	1	-0.045375
1.183333	1	-0.046000
1.200000	1	-0.046500
1.216667	1	-0.047125
1.233333	1	-0.047375
1.250000	1	-0.047625
1.266667	1	-0.047000
1.283333	1	-0.047750
1.300000	1	-0.048125
1.316667	1	-0.048125
1.333333	1	-0.048375
1.350000	1	-0.049000
1.366667	1	-0.049250
1.383333	1	-0.049875
1.400000	1	-0.049500
1.416667	1	-0.049625
1.433333	1	-0.050000
1.450000	1	-0.048875
1.466667	1	-0.049500
1.483333	1	-0.050125
1.500000	1	-0.050250
1.516667	1	-0.051125
1.533333	1	-0.051500
1.550000	1	-0.051750
1.566667	1	-0.051875
1.583333	1	-0.052375
1.600000	1	-0.052250
1.616667	1	-0.052250
1.633333	1	-0.052375
1.650000	1	-0.052125
1.666667	1	-0.051625
1.683333	1	-0.051625
1.700000	1	-0.051625
1.716667	1	-0.051375
1.733333	1	-0.050625
1.750000	1	-0.050125
1.766667	1	-0.050000
1.783333	1	-0.049375
1.800000	1	-0.049625
1.816667	1	-0.049000
1.833333	1	-0.048875
1.850000	1	-0.048000
1.866667	1	-0.048500
1.883333	1	-0.047875
1.900000	1	-0.048375
1.916667	1	-0.048875
1.933333	1	-0.048875
1.950000	1	-0.048750
1.966667	1	-0.049125
1.983333	1	-0.049000
2.000000	1	-0.049000
2.016667	1	-0.049500
2.033333	1	-0.049875
2.050000	1	-0.050500
2.066667	1	-0.050625
2.083333	1	-0.050750
2.100000	1	-0.050875
2.116667	1	-0.051500
2.133333	1	-0.051625
2.150000	1	-0.051375
2.166667	1	-0.051250
2.183333	1	-0.051625
2.200000	1	-0.051875
2.216667	1	-0.052500
2.233333	1	-0.052125
2.250000	1	-0.051500
2.266667	1	-0.051000
2.283333	1	-0.050875
2.300000	1	-0.050125
2.316667	1	-0.050125
2.333333	1	-0.050000
2.350000	1	-0.049625
2.366667	1	-0.048875
2.383333	1	-0.048875
2.400000	1	-0.048000
2.416667	1	-0.047375
2.433333	1	-0.047000
2.450000	1	-0.046375
2.466667	1	-0.046500
2.483333	1	-0.045250
2.500000	1	-0.045000
2.516667	1	-0.043875
2.533333	1	-0.043750
2.550000	1	-0.044000
2.566667	1	-0.044125
2.583333	1	-0.043500
2.600000	1	-0.042625
2.616667	1	-0.042000
2.633333	1	-0.041000
2.650000	1	-0.040250
2.666667	1	-0.040125
2.683333	1	-0.039375
2.700000	1	-0.038625
2.716667	1	-0.038375
2.733333	1	-0.038250
2.750000	1	-0.037625
2.766667	1	-0.037000
2.783333	1	-0.036125
2.800000	1	-0.035250
2.816667	1	-0.033875
2.833333	1	-0.033000
2.850000	1	-0.032125
2.866667	1	-0.031000
2.883333	1	-0.030750
2.900000	1	-0.030000
2.916667	1	-0.029625
2.933333	1	-0.028750
2.950000	1	-0.028625
2.966667	1	-0.027875
2.983333	1	-0.027000
3.000000	1	-0.026625
3.016667	1	-0.025500
3.033333	1	-0.025000
3.050000	1	-0.024625
3.066667	1	-0.024250
3.083333	1	-0.023375
3.100000	1	-0.023000
3.116667	1	-0.023375
3.133333	1	-0.023500
3.150000	1	-0.023875
3.166667	1	-0.024250
3.183333	1	-0.024750
3.200000	1	-0.025750
3.216667	1	-0.025250
3.233333	1	-0.024875
3.250000	1	-0.025375
3.266667	1	-0.025875
3.283333	1	-0.026000
3.300000	1	-0.026625
3.316667	1	-0.027000
3.333333	1	-0.027625
3.350000	1	-0.027250
3.366667	1	-0.027875
3.383333	1	-0.028000
3.400000	1	-0.028500
3.416667	1	-0.028500
3.433333	1	-0.028500
3.450000	1	-0.028125
3.466667	1	-0.027625
3.483333	1	-0.027875
3.500000	1	-0.028000
3.516667	1	-0.027375
3.533333	1	-0.026750
3.550000	1	-0.027125
3.566667	1	-0.026875
3.583333	1	-0.026625
3.600000	1	-0.026125
3.616667	1	-0.025250
3.633333	1	-0.024250
3.650000	1	-0.023875
3.666667	1	-0.023375
3.683333	1	-0.023000
3.700000	1	-0.022500
3.716667	1	-0.021625
3.733333	1	-0.020375
3.750000	1	-0.020250
3.766667	1	-0.019875
3.783333	1	-0.019250
3.800000	1	-0.019000
3.816667	1	-0.019125
3.833333	1	-0.018375
3.850000	1	-0.018500
3.866667	1	-0.018000
3.883333	1	-0.017625
3.900000	1	-0.017250
3.916667	1	-0.017125
3.933333	1	-0.017000
3.950000	1	-0.016250
3.966667	1	-0.016625
3.983333	1	-0.015875
4.000000	1	-0.015500
4.016667	1	-0.014625
4.033333	1	-0.014500
4.050000	1	-0.014500
4.066667	1	-0.015125
4.083333	1	-0.015000
4.100000	1	-0.014625
4.116667	1	-0.014750
4.133333	1	-0.015125
4.150000	1	-0.016250
4.166667	1	-0.016375
4.183333	1	-0.017000
4.200000	1	-0.017000
4.216667	1	-0.017500
4.233333	1	-0.017750
4.250000	1	-0.018750
4.266667	1	-0.020500
4.283333	1	-0.022125
4.300000	1	-0.022500
4.316667	1	-0.023250
4.333333	1	-0.024750
4.350000	1	-0.025875
4.366667	1	-0.026750
4.383333	1	-0.027625
4.400000	1	-0.028000
4.416667	1	-0.029000
4.433333	1	-0.029375
4.450000	1	-0.029500
4.466667	1	-0.029750
4.483333	1	-0.030250
4.500000	1	-0.030500
4.516667	1	-0.030125
4.533333	1	-0.030375
4.550000	1	-0.030375
4.566667	1	-0.029125
4.583333	1	-0.028875
4.600000	1	-0.028375
4.616667	1	-0.027375
4.633333	1	-0.025750
4.650000	1	-0.023875
4.666667	1	-0.022250
4.683333	1	-0.020625
4.700000	1	-0.018750
4.716667	1	-0.016750
4.733333	1	-0.015000
4.750000	1	-0.012750
4.766667	1	-0.010625
4.783333	1	-0.008375
4.800000	1	-0.006000
4.816667	1	-0.003750
4.833333	1	-0.001000
4.850000	1	0.001125
4.866667	1	0.002875
4.883333	1	0.005625
4.900000	1	0.008625
4.916667	1	0.011375
4.933333	1	0.013875
4.950000	1	0.016875
4.966667	1	0.019250
4.983333	1	0.022500
5.000000	1	0.025250
5.016667	1	0.027750
5.033333	1	0.030750
5.050000	1	0.034000
5.066667	1	0.036500
5.083333	1	0.039250
5.100000	1	0.041625
5.116667	1	0.044500
5.133333	1	0.047125
5.150000	1	0.049250
5.166667	1	0.051750
5.183333	1	0.054750
5.200000	1	0.057625
5.216667	1	0.059750
5.233333	1	0.062125
5.250000	1	0.064375
5.266667	1	0.066500
5.283333	1	0.068000
5.300000	1	0.070250
5.316667	1	0.070875
5.333333	1	0.071500
5.350000	1	0.073000
5.366667	1	0.074500
5.383333	1	0.075625
5.400000	1	0.075625
5.416667	1	0.077000
5.433333	1	0.077125
5.450000	1	0.077125
5.466667	1	0.077000
5.483333	1	0.076750
5.500000	1	0.076375
5.516667	1	0.076000
5.533333	1	0.076125
5.550000	1	0.075250
5.566667	1	0.074625
5.583333	1	0.073250
5.600000	1	0.073375
5.616667	1	0.072750
5.633333	1	0.071875
5.650000	1	0.070000
5.666667	1	0.069125
5.683333	1	0.067750
5.700000	1	0.066875
5.716667	1	0.065375
5.733333	1	0.064125
5.750000	1	0.062375
5.766667	1	0.061500
5.783333	1	0.060625
5.800000	1	0.059875
5.816667	1	0.058500
5.833333	1	0.056875
5.850000	1	0.055875
5.866667	1	0.055000
5.883333	1	0.053500
5.900000	1	0.052000
5.916667	1	0.051875
5.933333	1	0.050625
5.950000	1	0.049875
5.966667	1	0.049250
5.983333	1	0.048750
6.000000	1	0.048750
6.016667	1	0.048250
6.033333	1	0.048125
6.050000	1	0.047750
6.066667	1	0.047625
6.083333	1	0.047000
6.100000	1	0.046750
6.116667	1	0.047000
6.133333	1	0.047250
6.150000	1	0.048125
6.166667	1	0.048750
6.183333	1	0.048750
6.200000	1	0.049625
6.216667	1	0.051000
6.233333	1	0.052375
6.250000	1	0.053625
6.266667	1	0.055625
6.283333	1	0.057125
6.300000	1	0.058500
6.316667	1	0.060500
6.333333	1	0.062500
6.350000	1	0.064750
6.366667	1	0.066250
6.383333	1	0.068125
6.400000	1	0.069875
6.416667	1	0.071750
6.433333	1	0.074125
6.450000	1	0.076250
6.466667	1	0.078375
6.483333	1	0.080375
6.500000	1	0.082625
6.516667	1	0.084750
6.533333	1	0.087000
6.550000	1	0.088875
6.566667	1	0.090500
6.583333	1	0.091875
6.600000	1	0.093500
6.616667	1	0.095000
6.633333	1	0.096250
6.650000	1	0.096875
6.666667	1	0.097875
6.683333	1	0.098375
6.700000	1	0.098375
6.716667	1	0.098500
6.733333	1	0.098750
6.750000	1	0.098875
6.766667	1	0.098375
6.783333	1	0.097625
6.800000	1	0.096375
6.816667	1	0.095750
6.833333	1	0.094625
6.850000	1	0.093125
6.866667	1	0.090875
6.883333	1	0.088875
6.900000	1	0.086625
6.916667	1	0.084375
6.933333	1	0.081875
6.950000	1	0.079375
6.966667	1	0.076500
6.983333	1	0.073375
7.000000	1	0.070500
7.016667	1	0.066750
7.033333	1	0.063000
7.050000	1	0.059750
7.066667	1	0.056500
7.083333	1	0.052875
7.100000	1	0.049625
7.116667	1	0.046125
7.133333	1	0.042625
7.150000	1	0.039750
7.166667	1	0.036750
7.183333	1	0.033875
7.200000	1	0.030625
7.216667	1	0.027250
7.233333	1	0.024625
7.250000	1	0.022375
7.266667	1	0.019500
7.283333	1	0.017875
7.300000	1	0.016125
7.316667	1	0.014250
7.333333	1	0.012000
7.350000	1	0.010125
7.366667	1	0.008875
7.383333	1	0.008000
7.400000	1	0.006500
7.416667	1	0.005750
7.433333	1	0.004500
7.450000	1	0.004125
7.466667	1	0.003125
7.483333	1	0.002375
7.500000	1	0.001500
7.516667	1	0.001250
7.533333	1	0.001625
7.550000	1	0.001250
7.566667	1	0.001000
7.583333	1	0.000875
7.600000	1	0.000750
7.616667	1	0.000250
7.633333	1	0.000000
7.650000	1	-0.000250
7.666667	1	-0.000250
7.683333	1	-0.000625
7.700000	1	-0.001125
7.716667	1	-0.000875
7.733333	1	-0.001000
7.750000	1	-0.001250
7.766667	1	-0.001125
7.783333	1	-0.001375
7.800000	1	-0.001375
7.816667	1	-0.001625
7.833333	1	-0.002125
7.850000	1	-0.002750
7.866667	1	-0.003250
7.883333	1	-0.003500
7.900000	1	-0.002750
7.916667	1	-0.002875
7.933333	1	-0.003000
7.950000	1	-0.003000
7.966667	1	-0.002500
7.983333	1	-0.002750
8.000000	1	-0.002125
8.016667	1	-0.001875
8.033333	1	-0.001000
8.050000	1	-0.000375
8.066667	1	0.000125
8.083333	1	0.000875
8.100000	1	0.001125
8.116667	1	0.002625
8.133333	1	0.003625
8.150000	1	0.004000
8.166667	1	0.005625
8.183333	1	0.007000
8.200000	1	0.007875
8.216667	1	0.009125
8.233333	1	0.010625
8.250000	1	0.012250
8.266667	1	0.013750
8.283333	1	0.016125
8.300000	1	0.017750
8.316667	1	0.019125
8.333333	1	0.020875
8.350000	1	0.022125
8.366667	1	0.023625
8.383333	1	0.025375
8.400000	1	0.027500
8.416667	1	0.029250
8.433333	1	0.030625
8.450000	1	0.032250
8.466667	1	0.033750
8.483333	1	0.034500
8.500000	1	0.036250
8.516667	1	0.038125
8.533333	1	0.039500
8.550000	1	0.041500
8.566667	1	0.043125
8.583333	1	0.044500
8.600000	1	0.045750
8.616667	1	0.046625
8.633333	1	0.047750
8.650000	1	0.048625
8.666667	1	0.048875
8.683333	1	0.049875
8.700000	1	0.050875
8.716667	1	0.051625
8.733333	1	0.052500
8.750000	1	0.053750
8.766667	1	0.054375
8.783333	1	0.055125
8.800000	1	0.056000
8.816667	1	0.056875
8.833333	1	0.056875
8.850000	1	0.057750
8.866667	1	0.058000
8.883333	1	0.058750
8.900000	1	0.059000
8.916667	1	0.059250
8.933333	1	0.059875
8.950000	1	0.060375
8.966667	1	0.060750
8.983333	1	0.060750
9.000000	1	0.061000
9.016667	1	0.060750
9.033333	1	0.060750
9.050000	1	0.060250
9.066667	1	0.060000
9.083333	1	0.060250
9.100000	1	0.060000
9.116667	1	0.060250
9.133333	1	0.059625
9.150000	1	0.059500
9.166667	1	0.059000
9.183333	1	0.058500
9.200000	1	0.058375
9.216667	1	0.057500
9.233333	1	0.057250
9.250000	1	0.057500
9.266667	1	0.057500
9.283333	1	0.057125
9.300000	1	0.056625
9.316667	1	0.056125
9.333333	1	0.056000
9.350000	1	0.056375
9.366667	1	0.056625
9.383333	1	0.057125
9.400000	1	0.057250
9.416667	1	0.058250
9.433333	1	0.059750
9.450000	1	0.061750
9.466667	1	0.064000
9.483333	1	0.066250
9.500000	1	0.070000
9.516667	1	0.074750
9.533333	1	0.080750
9.550000	1	0.087625
9.566667	1	0.095125
9.583333	1	0.104875
9.600000	1	0.115375
9.616667	1	0.127375
9.633333	1	0.140750
9.650000	1	0.157375
9.666667	1	0.175750
9.683333	1	0.195750
9.700000	1	0.217500
9.716667	1	0.241875
9.733333	1	0.267125
9.750000	1	0.293125
9.766667	1	0.318125
9.783333	1	0.341625
9.800000	1	0.361250
9.816667	1	0.376875
9.833333	1	0.387125
9.850000	1	0.392000
9.866667	1	0.387125
9.883333	1	0.370750
9.900000	1	0.344625
9.916667	1	0.317000
9.933333	1	0.310750
9.950000	1	0.364750
9.966667	1	0.532375
9.983333	1	0.878500
10.000000	1	1.469500
10.016667	1	2.362250
10.033333	1	3.603000
10.050000	1	5.223500
10.066667	1	7.240750
10.083333	1	9.659625
10.100000	1	12.471500
10.116667	1	15.653625
10.133333	1	19.166250
10.150000	1	22.951125
10.166667	1	26.928000
10.183333	1	30.987750
10.200000	1	34.995500
10.216667	1	38.784500
10.233333	1	42.161500
10.250000	1	44.917125
10.266667	1	46.857375
10.283333	1	47.834500
10.300000	1	47.772125
10.316667	1	46.687750
10.333333	1	44.691250
10.350000	1	41.965875
10.366667	1	38.737500
10.383333	1	35.238500
10.400000	1	31.679125
10.416667	1	28.227125
10.433333	1	24.999875
10.450000	1	22.066625
10.466667	1	19.453875
10.483333	1	17.159500
10.500000	1	15.164125
10.516667	1	13.435750
10.533333	1	11.940750
10.550000	1	10.646000
10.566667	1	9.521250
10.583333	1	8.539500
10.600000	1	7.681250
10.616667	1	6.929000
10.633333	1	6.270500
10.650000	1	5.694000
10.666667	1	5.190125
10.683333	1	4.750375
10.700000	1	4.367125
10.716667	1	4.033000
10.733333	1	3.739875
10.750000	1	3.483125
10.766667	1	3.257125
10.783333	1	3.057250
10.800000	1	2.879875
10.816667	1	2.720750
10.833333	1	2.578125
10.850000	1	2.449500
10.866667	1	2.332375
10.883333	1	2.225750
10.900000	1	2.128375
10.916667	1	2.039000
10.933333	1	1.957625
10.950000	1	1.883125
10.966667	1	1.814250
10.983333	1	1.751000
11.000000	1	1.692750
11.016667	1	1.638375
11.033333	1	1.588250
11.050000	1	1.542625
11.066667	1	1.499625
11.083333	1	1.460125
11.100000	1	1.423500
11.116667	1	1.390000
11.133333	1	1.358375
11.150000	1	1.329375
11.166667	1	1.302250
11.183333	1	1.277375
11.200000	1	1.254375
11.216667	1	1.232000
11.233333	1	1.211375
11.250000	1	1.191875
11.266667	1	1.173500
11.283333	1	1.156375
11.300000	1	1.139875
11.316667	1	1.123125
11.333333	1	1.108000
11.350000	1	1.093125
11.366667	1	1.079375
11.383333	1	1.065750
11.400000	1	1.053250
11.416667	1	1.041250
11.433333	1	1.031125
11.450000	1	1.021500
11.466667	1	1.013000
11.483333	1	1.005750
11.500000	1	1.000000
11.516667	1	0.994750
11.533333	1	0.990625
11.550000	1	0.988250
11.566667	1	0.986000
11.583333	1	0.984875
11.600000	1	0.985500
11.616667	1	0.986125
11.633333	1	0.987000
11.650000	1	0.988750
11.666667	1	0.989500
11.683333	1	0.991000
11.700000	1	0.991625
11.716667	1	0.993000
11.733333	1	0.993625
11.750000	1	0.993750
11.766667	1	0.994000
11.783333	1	0.993875
11.800000	1	0.994500
11.816667	1	0.996125
11.833333	1	0.997750
11.850000	1	1.000000
11.866667	1	1.004000
11.883333	1	1.009625
11.900000	1	1.016500
11.916667	1	1.024875
11.933333	1	1.036000
11.950000	1	1.049750
11.966667	1	1.065750
11.983333	1	1.084250
12.000000	1	1.105875
12.016667	1	1.130625
12.033333	1	1.159500
12.050000	1	1.190875
12.066667	1	1.226875
12.083333	1	1.268375
12.100000	1	1.316000
12.116667	1	1.372375
12.133333	1	1.439750
12.150000	1	1.520000
12.166667	1	1.615750
12.183333	1	1.729125
12.200000	1	1.862875
12.216667	1	2.019625
12.233333	1	2.200000
12.250000	1	2.405875
12.266667	1	2.638250
12.283333	1	2.899750
12.300000	1	3.191000
12.316667	1	3.515250
12.333333	1	3.874125
12.350000	1	4.272000
12.366667	1	4.710750
12.383333	1	5.194250
12.400000	1	5.720875
12.416667	1	6.291000
12.433333	1	6.900125
12.450000	1	7.542250
12.466667	1	8.205875
12.483333	1	8.875750
12.500000	1	9.533375
12.516667	1	10.155250
12.533333	1	10.717500
12.550000	1	11.197250
12.566667	1	11.578500
12.583333	1	11.852625
12.600000	1	12.019500
12.616667	1	12.087250
12.633333	1	12.069500
12.650000	1	11.980500
12.666667	1	11.833875
12.683333	1	11.644375
12.700000	1	11.422625
12.716667	1	11.179375
12.733333	1	10.922125
12.750000	1	10.656750
12.766667	1	10.388375
12.783333	1	10.120875
12.800000	1	9.858250
12.816667	1	9.601875
12.833333	1	9.352500
12.850000	1	9.110750
12.866667	1	8.876500
12.883333	1	8.650000
12.900000	1	8.429875
12.916667	1	8.215625
12.933333	1	8.004625
12.950000	1	7.797250
12.966667	1	7.591375
12.983333	1	7.386625
13.000000	1	7.180250
13.016667	1	6.971875
13.033333	1	6.758500
13.050000	1	6.539125
13.066667	1	6.311875
13.083333	1	6.075500
13.100000	1	5.827000
13.116667	1	5.563000
13.133333	1	5.280875
13.150000	1	4.980375
13.166667	1	4.657250
13.183333	1	4.310375
13.200000	1	3.940625
13.216667	1	3.553500
13.233333	1	3.162625
13.250000	1	2.786500
13.266667	1	2.446125
13.283333	1	2.155125
13.300000	1	1.915250
13.316667	1	1.723375
13.333333	1	1.570750
13.350000	1	1.449125
13.366667	1	1.352000
13.383333	1	1.271875
13.400000	1	1.205250
13.416667	1	1.148875
13.433333	1	1.100625
13.450000	1	1.059000
13.466667	1	1.023375
13.483333	1	0.992125
13.500000	1	0.965500
13.516667	1	0.941750
13.533333	1	0.921250
13.550000	1	0.904875
13.566667	1	0.890375
13.583333	1	0.878625
13.600000	1	0.869000
13.616667	1	0.862250
13.633333	1	0.856750
13.650000	1	0.852375
13.666667	1	0.848125
13.683333	1	0.844375
13.700000	1	0.840625
13.716667	1	0.835750
13.733333	1	0.829625
13.750000	1	0.823125
13.766667	1	0.814875
13.783333	1	0.805625
13.800000	1	0.795625
13.816667	1	0.784000
13.833333	1	0.771000
13.850000	1	0.758000
13.866667	1	0.743875
13.883333	1	0.729875
13.900000	1	0.715250
13.916667	1	0.700000
13.933333	1	0.684625
13.950000	1	0.671000
13.966667	1	0.657125
13.983333	1	0.643875
14.000000	1	0.631750
14.016667	1	0.620500
14.033333	1	0.609875
14.050000	1	0.600875
14.066667	1	0.593250
14.083333	1	0.585875
14.100000	1	0.579375
14.116667	1	0.575125
14.133333	1	0.572000
14.150000	1	0.570750
14.166667	1	0.572000
14.183333	1	0.575375
14.200000	1	0.581625
14.216667	1	0.589750
14.233333	1	0.602500
14.250000	1	0.619500
14.266667	1	0.641000
14.283333	1	0.669000
14.300000	1	0.703000
14.316667	1	0.745375
14.333333	1	0.796875
14.350000	1	0.859250
14.366667	1	0.934500
14.383333	1	1.023875
14.400000	1	1.128625
14.416667	1	1.251375
14.433333	1	1.394125
14.450000	1	1.559625
14.466667	1	1.750125
14.483333	1	1.967875
14.500000	1	2.217375
14.516667	1	2.503750
14.533333	1	2.830000
14.550000	1	3.204000
14.566667	1	3.634000
14.583333	1	4.129875
14.600000	1	4.706875
14.616667	1	5.383750
14.633333	1	6.185875
14.650000	1	7.144250
14.666667	1	8.295750
14.683333	1	9.683500
14.700000	1	11.352750
14.716667	1	13.347625
14.733333	1	15.709000
14.750000	1	18.469375
14.766667	1	21.646000
14.783333	1	25.229500
14.800000	1	29.189875
14.816667	1	33.472125
14.833333	1	37.990125
14.850000	1	42.628125
14.866667	1	47.245625
14.883333	1	51.689375
14.900000	1	55.799875
14.916667	1	59.425500
14.933333	1	62.435250
14.950000	1	64.727125
14.966667	1	66.231625
14.983333	1	66.920500
15.000000	1	66.800250
15.016667	1	65.910875
15.033333	1	64.319750
15.050000	1	62.115500
15.066667	1	59.401625
15.083333	1	56.288375
15.100000	1	52.889750
15.116667	1	49.312000
15.133333	1	45.651500
15.150000	1	41.989500
15.166667	1	38.397500
15.183333	1	34.933625
15.200000	1	31.636500
15.216667	1	28.534875
15.233333	1	25.645125
15.250000	1	22.977500
15.266667	1	20.532500
15.283333	1	18.307875
15.300000	1	16.297250
15.316667	1	14.490000
15.333333	1	12.874875
15.350000	1	11.436625
15.366667	1	10.163125
15.383333	1	9.039875
15.400000	1	8.052250
15.416667	1	7.186125
15.433333	1	6.429375
15.450000	1	5.770875
15.466667	1	5.198625
15.483333	1	4.703750
15.500000	1	4.277500
15.516667	1	3.912250
15.533333	1	3.600500
15.550000	1	3.334625
15.566667	1	3.109000
15.583333	1	2.916875
15.600000	1	2.753375
15.616667	1	2.612500
15.633333	1	2.490875
15.650000	1	2.383750
15.666667	1	2.287625
15.683333	1	2.200625
15.700000	1	2.119500
15.716667	1	2.042750
15.733333	1	1.970125
15.750000	1	1.899750
15.766667	1	1.831250
15.783333	1	1.765375
15.800000	1	1.701875
15.816667	1	1.641000
15.833333	1	1.582125
15.850000	1	1.526750
15.866667	1	1.472875
15.883333	1	1.422625
15.900000	1	1.375000
15.916667	1	1.330625
15.933333	1	1.288875
15.950000	1	1.249750
15.966667	1	1.214125
15.983333	1	1.181250
16.000000	1	1.151375
16.016667	1	1.123375
16.033333	1	1.098125
16.050000	1	1.075375
16.066667	1	1.054625
16.083333	1	1.036125
16.100000	1	1.020125
16.116667	1	1.006750
16.133333	1	0.995625
16.150000	1	0.986125
16.166667	1	0.978250
16.183333	1	0.971625
16.200000	1	0.966500
16.216667	1	0.962375
16.233333	1	0.958125
16.250000	1	0.954000
16.266667	1	0.950250
16.283333	1	0.946000
16.300000	1	0.941750
16.316667	1	0.937750
16.333333	1	0.933250
16.350000	1	0.928875
16.366667	1	0.923500
16.383333	1	0.918750
16.400000	1	0.914125
16.416667	1	0.909125
16.433333	1	0.904750
16.450000	1	0.900750
16.466667	1	0.897125
16.483333	1	0.893875
16.500000	1	0.890875
16.516667	1	0.889500
16.533333	1	0.888625
16.550000	1	0.888750
16.566667	1	0.889500
16.583333	1	0.890375
16.600000	1	0.891375
16.616667	1	0.893750
16.633333	1	0.897000
16.650000	1	0.900000
16.666667	1	0.903750
16.683333	1	0.908500
16.700000	1	0.913125
16.716667	1	0.917750
16.733333	1	0.922750
16.750000	1	0.927375
16.766667	1	0.931625
16.783333	1	0.935750
16.800000	1	0.939625
16.816667	1	0.943000
16.833333	1	0.944875
16.850000	1	0.945750
16.866667	1	0.945125
16.883333	1	0.943375
16.900000	1	0.941750
16.916667	1	0.939250
16.933333	1	0.937250
16.950000	1	0.934500
16.966667	1	0.932750
16.983333	1	0.931875
17.000000	1	0.931125
17.016667	1	0.931000
17.033333	1	0.930750
17.050000	1	0.931500
17.066667	1	0.932250
17.083333	1	0.933500
17.100000	1	0.933375
17.116667	1	0.933750
17.133333	1	0.932625
17.150000	1	0.930875
17.166667	1	0.928625
17.183333	1	0.924500
17.200000	1	0.920000
17.216667	1	0.914125
17.233333	1	0.907250
17.250000	1	0.899875
17.266667	1	0.890750
17.283333	1	0.880500
17.300000	1	0.870125
17.316667	1	0.859500
17.333333	1	0.849500
17.350000	1	0.839000
17.366667	1	0.829000
17.383333	1	0.820125
17.400000	1	0.812125
17.416667	1	0.804250
17.433333	1	0.798000
17.450000	1	0.792875
17.466667	1	0.789625
17.483333	1	0.787125
17.500000	1	0.786250
17.516667	1	0.786875
17.533333	1	0.789375
17.550000	1	0.793250
17.566667	1	0.799750
17.583333	1	0.807500
17.600000	1	0.816625
17.616667	1	0.827375
17.633333	1	0.839500
17.650000	1	0.852750
17.666667	1	0.866500
17.683333	1	0.881500
17.700000	1	0.897375
17.716667	1	0.914375
17.733333	1	0.931250
17.750000	1	0.948250
17.766667	1	0.964625
17.783333	1	0.980750
17.800000	1	0.996125
17.816667	1	1.011250
17.833333	1	1.025125
17.850000	1	1.037375
17.866667	1	1.047625
17.883333	1	1.055125
17.900000	1	1.060750
17.916667	1	1.064125
17.933333	1	1.065250
17.950000	1	1.064250
17.966667	1	1.061625
17.983333	1	1.057625
18.000000	1	1.050375
18.016667	1	1.041875
18.033333	1	1.031500
18.050000	1	1.019250
18.066667	1	1.006500
18.083333	1	0.992625
18.100000	1	0.978750
18.116667	1	0.964625
18.133333	1	0.949875
18.150000	1	0.934250
18.166667	1	0.919125
18.183333	1	0.905000
18.200000	1	0.891000
18.216667	1	0.877750
18.233333	1	0.865250
18.250000	1	0.852875
18.266667	1	0.841625
18.283333	1	0.831250
18.300000	1	0.821750
18.316667	1	0.814125
18.333333	1	0.806375
18.350000	1	0.800375
18.366667	1	0.794750
18.383333	1	0.791250
18.400000	1	0.788500
18.416667	1	0.786750
18.433333	1	0.784875
18.450000	1	0.782875
18.466667	1	0.781000
18.483333	1	0.780750
18.500000	1	0.780000
18.516667	1	0.780375
18.533333	1	0.780125
18.550000	1	0.780500
18.566667	1	0.780500
18.583333	1	0.780750
18.600000	1	0.781875
18.616667	1	0.783875
18.633333	1	0.786000
18.650000	1	0.788500
18.666667	1	0.791750
18.683333	1	0.795000
18.700000	1	0.799625
18.716667	1	0.804625
18.733333	1	0.810125
18.750000	1	0.816125
18.766667	1	0.823375
18.783333	1	0.831250
18.800000	1	0.839500
18.816667	1	0.847625
18.833333	1	0.857375
18.850000	1	0.868000
18.866667	1	0.879625
18.883333	1	0.892000
18.900000	1	0.907125
18.916667	1	0.923250
18.933333	1	0.941250
18.950000	1	0.960875
18.966667	1	0.983375
18.983333	1	1.008500
19.000000	1	1.036625
19.016667	1	1.067500
19.033333	1	1.101250
19.050000	1	1.137500
19.066667	1	1.176625
19.083333	1	1.217250
19.100000	1	1.260375
19.116667	1	1.304500
19.133333	1	1.348875
19.150000	1	1.392000
19.166667	1	1.433500
19.183333	1	1.472750
19.200000	1	1.507875
19.216667	1	1.539875
19.233333	1	1.565750
19.250000	1	1.586375
19.266667	1	1.600625
19.283333	1	1.607750
19.300000	1	1.608250
19.316667	1	1.602000
19.333333	1	1.589000
19.350000	1	1.569750
19.366667	1	1.544750
19.383333	1	1.514500
19.400000	1	1.479750
19.416667	1	1.440625
19.433333	1	1.398375
19.450000	1	1.353625
19.466667	1	1.307000
19.483333	1	1.259875
19.500000	1	1.212750
19.516667	1	1.165750
19.533333	1	1.120000
19.550000	1	1.075125
19.566667	1	1.032000
19.583333	1	0.990750
19.600000	1	0.952875
19.616667	1	0.917750
19.633333	1	0.885125
19.650000	1	0.855625
19.666667	1	0.830625
19.683333	1	0.808750
19.700000	1	0.789750
19.716667	1	0.774875
19.733333	1	0.763250
19.750000	1	0.755500
19.766667	1	0.752000
19.783333	1	0.752125
19.800000	1	0.755750
19.816667	1	0.762875
19.833333	1	0.773500
19.850000	1	0.786375
19.866667	1	0.801125
19.883333	1	0.818250
19.900000	1	0.836625
19.916667	1	0.855875
19.933333	1	0.876000
19.950000	1	0.896125
19.966667	1	0.915500
19.983333	1	0.933750
20.000000	1	0.951000
20.016667	1	0.966750
20.033333	1	0.980125
20.050000	1	0.991375
20.066667	1	1.001125
20.083333	1	1.009000
20.100000	1	1.015375
20.116667	1	1.019375
20.133333	1	1.023250
20.150000	1	1.025750
20.166667	1	1.026750
20.183333	1	1.028000
20.200000	1	1.029625
20.216667	1	1.032625
20.233333	1	1.037000
20.250000	1	1.041750
20.266667	1	1.049000
20.283333	1	1.057750
20.300000	1	1.069250
20.316667	1	1.082750
20.333333	1	1.098750
20.350000	1	1.116625
20.366667	1	1.135125
20.383333	1	1.155250
20.400000	1	1.175250
20.416667	1	1.195125
20.433333	1	1.215125
20.450000	1	1.233375
20.466667	1	1.249875
20.483333	1	1.263750
20.500000	1	1.274375
20.516667	1	1.282750
20.533333	1	1.287625
20.550000	1	1.290125
20.566667	1	1.289750
20.583333	1	1.286375
20.600000	1	1.281250
20.616667	1	1.275875
20.633333	1	1.269250
20.650000	1	1.263125
20.666667	1	1.258625
20.683333	1	1.257250
20.700000	1	1.259250
20.716667	1	1.266375
20.733333	1	1.278000
20.750000	1	1.295500
20.766667	1	1.318875
20.783333	1	1.347250
20.800000	1	1.380875
20.816667	1	1.419000
20.833333	1	1.459750
20.850000	1	1.502750
20.866667	1	1.547000
20.883333	1	1.589000
20.900000	1	1.628750
20.916667	1	1.663000
20.933333	1	1.690750
20.950000	1	1.711375
20.966667	1	1.723250
20.983333	1	1.726375
21.000000	1	1.719250
21.016667	1	1.702750
21.033333	1	1.677625
21.050000	1	1.643500
21.066667	1	1.601000
21.083333	1	1.552125
21.100000	1	1.497750
21.116667	1	1.439375
21.133333	1	1.378000
21.150000	1	1.315750
21.166667	1	1.252500
21.183333	1	1.189375
21.200000	1	1.127500
21.216667	1	1.067500
21.233333	1	1.010125
21.250000	1	0.955750
21.266667	1	0.904750
21.283333	1	0.857500
21.300000	1	0.812875
21.316667	1	0.772125
21.333333	1	0.735375
21.350000	1	0.702125
21.366667	1	0.671500
21.383333	1	0.643500
21.400000	1	0.618750
21.416667	1	0.596750
21.433333	1	0.577125
21.450000	1	0.560250
21.466667	1	0.544500
21.483333	1	0.531625
21.500000	1	0.520500
21.516667	1	0.510125
21.533333	1	0.500875
21.550000	1	0.492250
21.566667	1	0.485250
21.583333	1	0.479125
21.600000	1	0.473125
21.616667	1	0.467750
21.633333	1	0.462250
21.650000	1	0.458375
21.666667	1	0.454375
21.683333	1	0.450625
21.700000	1	0.447375
21.716667	1	0.444750
21.733333	1	0.442375
21.750000	1	0.440125
21.766667	1	0.438375
21.783333	1	0.436750
21.800000	1	0.435625
21.816667	1	0.435375
21.833333	1	0.435125
21.850000	1	0.435625
21.866667	1	0.435625
21.883333	1	0.436500
21.900000	1	0.437500
21.916667	1	0.438875
21.933333	1	0.441000
21.950000	1	0.443500
21.966667	1	0.445625
21.983333	1	0.447750
22.000000	1	0.449625
22.016667	1	0.451250
22.033333	1	0.452625
22.050000	1	0.453875
22.066667	1	0.454500
22.083333	1	0.454875
22.100000	1	0.454375
22.116667	1	0.454500
22.133333	1	0.454500
22.150000	1	0.454125
22.166667	1	0.453125
22.183333	1	0.452125
22.200000	1	0.451375
22.216667	1	0.450625
22.233333	1	0.450625
22.250000	1	0.450625
22.266667	1	0.451250
22.283333	1	0.452000
22.300000	1	0.454250
22.316667	1	0.455625
22.333333	1	0.457750
22.350000	1	0.461250
22.366667	1	0.464750
22.383333	1	0.468750
22.400000	1	0.473750
22.416667	1	0.478625
22.433333	1	0.483875
22.450000	1	0.489625
22.466667	1	0.496000
22.483333	1	0.502250
22.500000	1	0.508375
22.516667	1	0.515000
22.533333	1	0.520750
22.550000	1	0.527000
22.566667	1	0.533250
22.583333	1	0.539625
22.600000	1	0.545625
22.616667	1	0.551500
22.633333	1	0.556750
22.650000	1	0.561500
22.666667	1	0.565500
22.683333	1	0.569375
22.700000	1	0.572250
22.716667	1	0.575375
22.733333	1	0.577750
22.750000	1	0.579625
22.766667	1	0.579500
22.783333	1	0.579125
22.800000	1	0.578250
22.816667	1	0.576125
22.833333	1	0.574125
22.850000	1	0.570250
22.866667	1	0.566750
22.883333	1	0.563000
22.900000	1	0.557875
22.916667	1	0.553250
22.933333	1	0.547875
22.950000	1	0.541500
22.966667	1	0.535625
22.983333	1	0.529625
23.000000	1	0.524500
23.016667	1	0.519625
23.033333	1	0.514750
23.050000	1	0.509875
23.066667	1	0.506125
23.083333	1	0.503375
23.100000	1	0.501125
23.116667	1	0.499250
23.133333	1	0.498500
23.150000	1	0.498750
23.166667	1	0.501125
23.183333	1	0.503750
23.200000	1	0.508750
23.216667	1	0.514000
23.233333	1	0.521250
23.250000	1	0.529750
23.266667	1	0.540000
23.283333	1	0.551125
23.300000	1	0.565125
23.316667	1	0.581375
23.333333	1	0.598875
23.350000	1	0.618250
23.366667	1	0.639875
23.383333	1	0.664500
23.400000	1	0.691625
23.416667	1	0.722500
23.433333	1	0.755875
23.450000	1	0.793500
23.466667	1	0.835125
23.483333	1	0.882375
23.500000	1	0.935500
23.516667	1	0.994875
23.533333	1	1.062125
23.550000	1	1.137375
23.566667	1	1.222250
23.583333	1	1.317125
23.600000	1	1.423125
23.616667	1	1.542000
23.633333	1	1.672625
23.650000	1	1.816500
23.666667	1	1.973375
23.683333	1	2.143125
23.700000	1	2.325125
23.716667	1	2.518750
23.733333	1	2.721625
23.750000	1	2.931750
23.766667	1	3.146250
23.783333	1	3.361625
23.800000	1	3.574875
23.816667	1	3.781500
23.833333	1	3.978000
23.850000	1	4.161500
23.866667	1	4.327125
23.883333	1	4.472250
23.900000	1	4.592875
23.916667	1	4.687625
23.933333	1	4.754500
23.950000	1	4.791250
23.966667	1	4.798750
23.983333	1	4.777000
24.000000	1	4.727750
24.016667	1	4.651250
24.033333	1	4.549750
24.050000	1	4.426750
24.066667	1	4.285000
24.083333	1	4.127750
24.100000	1	3.958000
24.116667	1	3.778750
24.133333	1	3.593125
24.150000	1	3.403625
24.166667	1	3.213750
24.183333	1	3.026500
24.200000	1	2.842875
24.216667	1	2.665500
24.233333	1	2.495875
24.250000	1	2.334875
24.266667	1	2.183125
24.283333	1	2.041375
24.300000	1	1.909625
24.316667	1	1.787875
24.333333	1	1.676750
24.350000	1	1.575125
24.366667	1	1.482500
24.383333	1	1.398625
24.400000	1	1.322750
24.416667	1	1.254750
24.433333	1	1.193250
24.450000	1	1.138250
24.466667	1	1.088750
24.483333	1	1.045125
24.500000	1	1.004875
24.516667	1	0.967750
24.533333	1	0.933250
24.550000	1	0.901625
24.566667	1	0.871625
24.583333	1	0.844125
24.600000	1	0.817750
24.616667	1	0.792000
24.633333	1	0.767000
24.650000	1	0.743250
24.666667	1	0.719250
24.683333	1	0.696750
24.700000	1	0.674500
24.716667	1	0.651750
24.733333	1	0.629500
24.750000	1	0.608125
24.766667	1	0.586625
24.783333	1	0.566500
24.800000	1	0.546250
24.816667	1	0.527375
24.833333	1	0.508750
24.850000	1	0.490500
24.866667	1	0.473750
24.883333	1	0.457000
24.900000	1	0.441000
24.916667	1	0.427000
24.933333	1	0.414125
24.950000	1	0.401625
24.966667	1	0.390375
24.983333	1	0.379750
25.000000	1	0.370000
25.016667	1	0.360625
25.033333	1	0.353000
25.050000	1	0.345000
25.066667	1	0.339375
25.083333	1	0.334000
25.100000	1	0.330125
25.116667	1	0.326875
25.133333	1	0.323750
25.150000	1	0.321000
25.166667	1	0.318875
25.183333	1	0.317125
25.200000	1	0.316500
25.216667	1	0.316375
25.233333	1	0.316875
25.250000	1	0.317875
25.266667	1	0.319375
25.283333	1	0.320500
25.300000	1	0.322625
25.316667	1	0.324875
25.333333	1	0.326750
25.350000	1	0.328625
25.366667	1	0.330500
25.383333	1	0.333125
25.400000	1	0.335000
25.416667	1	0.337250
25.433333	1	0.339875
25.450000	1	0.342375
25.466667	1	0.344625
25.483333	1	0.346625
25.500000	1	0.348750
25.516667	1	0.350625
25.533333	1	0.351750
25.550000	1	0.352625
25.566667	1	0.353125
25.583333	1	0.354000
25.600000	1	0.354500
25.616667	1	0.354250
25.633333	1	0.353875
25.650000	1	0.353125
25.666667	1	0.352875
25.683333	1	0.352125
25.700000	1	0.351250
25.716667	1	0.350250
25.733333	1	0.348625
25.750000	1	0.346625
25.766667	1	0.345000
25.783333	1	0.343125
25.800000	1	0.340375
25.816667	1	0.337625
25.833333	1	0.334750
25.850000	1	0.331750
25.866667	1	0.328500
25.883333	1	0.324625
25.900000	1	0.320375
25.916667	1	0.315875
25.933333	1	0.311000
25.950000	1	0.305375
25.966667	1	0.300500
25.983333	1	0.295125
26.000000	1	0.290250
26.016667	1	0.284375
26.033333	1	0.278875
26.050000	1	0.273875
26.066667	1	0.267875
26.083333	1	0.262750
26.100000	1	0.256750
26.116667	1	0.252000
26.133333	1	0.247750
26.150000	1	0.243750
26.166667	1	0.239625
26.183333	1	0.236250
26.200000	1	0.233375
26.216667	1	0.231250
26.233333	1	0.230000
26.250000	1	0.229000
26.266667	1	0.229125
26.283333	1	0.229250
26.300000	1	0.229500
26.316667	1	0.230875
26.333333	1	0.232625
26.350000	1	0.234500
26.366667	1	0.237000
26.383333	1	0.239375
26.400000	1	0.241875
26.416667	1	0.244250
26.433333	1	0.246875
26.450000	1	0.249000
26.466667	1	0.251000
26.483333	1	0.253250
26.500000	1	0.255125
26.516667	1	0.256750
26.533333	1	0.258375
26.550000	1	0.258875
26.566667	1	0.259000
26.583333	1	0.259250
26.600000	1	0.259000
26.616667	1	0.258750
26.633333	1	0.257750
26.650000	1	0.257000
26.666667	1	0.256375
26.683333	1	0.255750
26.700000	1	0.255000
26.716667	1	0.253750
26.733333	1	0.252375
26.750000	1	0.252125
26.766667	1	0.251500
26.783333	1	0.251000
26.800000	1	0.251125
26.816667	1	0.251125
26.833333	1	0.252375
26.850000	1	0.253125
26.866667	1	0.254250
26.883333	1	0.255875
26.900000	1	0.258000
26.916667	1	0.260125
26.933333	1	0.262125
26.950000	1	0.265625
26.966667	1	0.269625
26.983333	1	0.274000
27.000000	1	0.278125
27.016667	1	0.283000
27.033333	1	0.288750
27.050000	1	0.296000
27.066667	1	0.302875
27.083333	1	0.309625
27.100000	1	0.318500
27.116667	1	0.327125
27.133333	1	0.335875
27.150000	1	0.345625
27.166667	1	0.356125
27.183333	1	0.367750
27.200000	1	0.380250
27.216667	1	0.393625
27.233333	1	0.408125
27.250000	1	0.423375
27.266667	1	0.439250
27.283333	1	0.456125
27.300000	1	0.474500
27.316667	1	0.493875
27.333333	1	0.514250
27.350000	1	0.535875
27.366667	1	0.558750
27.383333	1	0.583750
27.400000	1	0.610500
27.416667	1	0.639500
27.433333	1	0.670875
27.450000	1	0.704750
27.466667	1	0.740750
27.483333	1	0.780500
27.500000	1	0.824000
27.516667	1	0.871000
27.533333	1	0.922625
27.550000	1	0.980000
27.566667	1	1.043000
27.583333	1	1.111750
27.600000	1	1.186625
27.616667	1	1.268625
27.633333	1	1.358000
27.650000	1	1.454625
27.666667	1	1.558625
27.683333	1	1.671375
27.700000	1	1.791125
27.716667	1	1.918125
27.733333	1	2.050625
27.750000	1	2.190500
27.766667	1	2.336625
27.783333	1	2.486250
27.800000	1	2.639000
27.816667	1	2.792375
27.833333	1	2.946375
27.850000	1	3.097750
27.866667	1	3.245750
27.883333	1	3.387500
27.900000	1	3.522500
27.916667	1	3.646000
27.933333	1	3.757375
27.950000	1	3.854750
27.966667	1	3.936625
27.983333	1	4.001500
28.000000	1	4.049000
28.016667	1	4.076875
28.033333	1	4.084500
28.050000	1	4.072125
28.066667	1	4.040250
28.083333	1	3.988625
28.100000	1	3.918500
28.116667	1	3.831000
28.133333	1	3.726750
28.150000	1	3.607625
28.166667	1	3.476250
28.183333	1	3.334125
28.200000	1	3.182875
28.216667	1	3.024750
28.233333	1	2.861125
28.250000	1	2.695125
28.266667	1	2.527125
28.283333	1	2.359875
28.300000	1	2.194500
28.316667	1	2.032500
28.333333	1	1.874750
28.350000	1	1.722875
28.366667	1	1.576875
28.383333	1	1.436500
28.400000	1	1.303375
28.416667	1	1.177625
28.433333	1	1.058625
28.450000	1	0.946125
28.466667	1	0.840500
28.483333	1	0.740250
28.500000	1	0.645375
28.516667	1	0.556125
28.533333	1	0.471875
28.550000	1	0.391750
28.566667	1	0.315375
28.583333	1	0.242875
28.600000	1	0.174000
28.616667	1	0.107125
28.633333	1	0.043125
28.650000	1	-0.017750
28.666667	1	-0.077000
28.683333	1	-0.134125
28.700000	1	-0.188625
28.716667	1	-0.241000
28.733333	1	-0.291000
28.750000	1	-0.338375
28.766667	1	-0.384250
28.783333	1	-0.426625
28.800000	1	-0.466000
28.816667	1	-0.502125
28.833333	1	-0.535250
28.850000	1	-0.565125
28.866667	1	-0.591000
28.883333	1	-0.613375
28.900000	1	-0.631875
28.916667	1	-0.645750
28.933333	1	-0.655875
28.950000	1	-0.661125
28.966667	1	-0.662125
28.983333	1	-0.659125
29.000000	1	-0.652500
29.016667	1	-0.641500
29.033333	1	-0.627000
29.050000	1	-0.609250
29.066667	1	-0.587625
29.083333	1	-0.562250
29.100000	1	-0.534875
29.116667	1	-0.504875
29.133333	1	-0.471250
29.150000	1	-0.436750
29.166667	1	-0.400375
29.183333	1	-0.362125
29.200000	1	-0.323000
29.216667	1	-0.282875
29.233333	1	-0.242500
29.250000	1	-0.202000
29.266667	1	-0.161125
29.283333	1	-0.120375
29.300000	1	-0.080625
29.316667	1	-0.040500
29.333333	1	-0.001500
29.350000	1	0.036250
29.366667	1	0.072750
29.383333	1	0.108250
29.400000	1	0.142375
29.416667	1	0.175125
29.433333	1	0.207375
29.450000	1	0.237125
29.466667	1	0.265375
29.483333	1	0.292625
29.500000	1	0.317375
29.516667	1	0.340500
29.533333	1	0.362000
29.550000	1	0.382625
29.566667	1	0.400875
29.583333	1	0.418000
29.600000	1	0.433250
29.616667	1	0.446375
29.633333	1	0.458000
29.650000	1	0.467875
29.666667	1	0.476500
29.683333	1	0.484250
29.700000	1	0.489875
29.716667	1	0.494375
29.733333	1	0.497375
29.750000	1	0.499000
29.766667	1	0.500125
29.783333	1	0.500125
29.800000	1	0.499375
29.816667	1	0.497625
29.833333	1	0.495875
29.850000	1	0.493000
29.866667	1	0.489125
29.883333	1	0.485000
29.900000	1	0.480625
29.916667	1	0.475625
29.933333	1	0.471625
29.950000	1	0.466625
29.966667	1	0.461375
29.983333	1	0.456875
30.000000	1	0.452000
30.016667	1	0.446875
30.033333	1	0.442125
30.050000	1	0.436875
30.066667	1	0.431875
30.083333	1	0.427250
30.100000	1	0.422500
30.116667	1	0.418125
30.133333	1	0.414250
30.150000	1	0.410125
30.166667	1	0.406000
30.183333	1	0.402375
30.200000	1	0.399000
30.216667	1	0.396000
30.233333	1	0.392875
30.250000	1	0.389875
30.266667	1	0.386875
30.283333	1	0.385125
30.300000	1	0.382250
30.316667	1	0.379750
30.333333	1	0.377125
30.350000	1	0.375625
30.366667	1	0.374125
30.383333	1	0.373500
30.400000	1	0.373125
30.416667	1	0.372375
30.433333	1	0.372500
30.450000	1	0.373250
30.466667	1	0.374750
30.483333	1	0.375750
30.500000	1	0.377625
30.516667	1	0.379500
30.533333	1	0.382500
30.550000	1	0.385625
30.566667	1	0.388875
30.583333	1	0.392000
30.600000	1	0.396375
30.616667	1	0.400750
30.633333	1	0.405000
30.650000	1	0.409000
30.666667	1	0.412375
30.683333	1	0.416250
30.700000	1	0.420250
30.716667	1	0.423500
30.733333	1	0.426500
30.750000	1	0.429250
30.766667	1	0.431250
30.783333	1	0.432250
30.800000	1	0.433500
30.816667	1	0.433000
30.833333	1	0.431875
30.850000	1	0.430250
30.866667	1	0.427000
30.883333	1	0.423250
30.900000	1	0.418875
30.916667	1	0.413750
30.933333	1	0.407875
30.950000	1	0.401250
30.966667	1	0.394000
30.983333	1	0.386875
31.000000	1	0.377875
31.016667	1	0.369375
31.033333	1	0.361000
31.050000	1	0.352875
31.066667	1	0.343625
31.083333	1	0.334875
31.100000	1	0.325125
31.116667	1	0.315250
31.133333	1	0.306750
31.150000	1	0.298000
31.166667	1	0.289500
31.183333	1	0.281250
31.200000	1	0.273500
31.216667	1	0.266500
31.233333	1	0.259125
31.250000	1	0.252500
31.266667	1	0.246125
31.283333	1	0.240375
31.300000	1	0.234000
31.316667	1	0.228625
31.333333	1	0.224500
31.350000	1	0.220500
31.366667	1	0.217000
31.383333	1	0.213875
31.400000	1	0.211000
31.416667	1	0.208750
31.433333	1	0.207125
31.450000	1	0.205500
31.466667	1	0.204000
31.483333	1	0.203250
31.500000	1	0.203000
31.516667	1	0.203500
31.533333	1	0.204875
31.550000	1	0.206125
31.566667	1	0.207250
31.583333	1	0.209125
31.600000	1	0.211500
31.616667	1	0.213750
31.633333	1	0.216000
31.650000	1	0.218750
31.666667	1	0.221250
31.683333	1	0.225375
31.700000	1	0.229875
31.716667	1	0.233625
31.733333	1	0.238250
31.750000	1	0.242875
31.766667	1	0.248000
31.783333	1	0.253375
31.800000	1	0.258750
31.816667	1	0.264125
31.833333	1	0.269000
31.850000	1	0.274125
31.866667	1	0.279250
31.883333	1	0.284000
31.900000	1	0.289500
31.916667	1	0.293875
31.933333	1	0.298125
31.950000	1	0.302000
31.966667	1	0.304875
31.983333	1	0.308250
32.000000	1	0.311375
32.016667	1	0.312375
32.033333	1	0.313250
32.050000	1	0.313250
32.066667	1	0.313125
32.083333	1	0.312375
32.100000	1	0.311125
32.116667	1	0.308625
32.133333	1	0.305625
32.150000	1	0.301750
32.166667	1	0.298000
32.183333	1	0.293125
32.200000	1	0.288125
32.216667	1	0.282250
32.233333	1	0.276750
32.250000	1	0.270625
32.266667	1	0.264250
32.283333	1	0.257500
32.300000	1	0.250875
32.316667	1	0.244125
32.333333	1	0.237750
32.350000	1	0.230875
32.366667	1	0.224875
32.383333	1	0.219125
32.400000	1	0.212750
32.416667	1	0.207250
32.433333	1	0.201625
32.450000	1	0.195875
32.466667	1	0.191000
32.483333	1	0.185875
32.500000	1	0.181125
32.516667	1	0.176375
32.533333	1	0.172125
32.550000	1	0.168125
32.566667	1	0.164500
32.583333	1	0.160875
32.600000	1	0.156625
32.616667	1	0.152750
32.633333	1	0.149375
32.650000	1	0.144625
32.666667	1	0.140500
32.683333	1	0.137000
32.700000	1	0.132750
32.716667	1	0.128750
32.733333	1	0.125250
32.750000	1	0.120875
32.766667	1	0.117375
32.783333	1	0.113500
32.800000	1	0.110000
32.816667	1	0.105625
32.833333	1	0.101625
32.850000	1	0.096750
32.866667	1	0.092375
32.883333	1	0.088125
32.900000	1	0.084250
32.916667	1	0.079625
32.933333	1	0.075750
32.950000	1	0.071375
32.966667	1	0.067500
32.983333	1	0.063875
33.000000	1	0.060250
33.016667	1	0.056625
33.033333	1	0.052875
33.050000	1	0.049250
33.066667	1	0.046625
33.083333	1	0.044000
33.100000	1	0.041125
33.116667	1	0.038625
33.133333	1	0.036500
33.150000	1	0.034000
33.166667	1	0.032000
33.183333	1	0.030000
33.200000	1	0.028000
33.216667	1	0.026875
33.233333	1	0.025750
33.250000	1	0.025250
33.266667	1	0.024000
33.283333	1	0.023125
33.300000	1	0.022625
33.316667	1	0.022375
33.333333	1	0.022250
33.350000	1	0.022125
33.366667	1	0.022125
33.383333	1	0.022625
33.400000	1	0.023250
33.416667	1	0.023750
33.433333	1	0.023500
33.450000	1	0.024000
33.466667	1	0.025000
33.483333	1	0.026250
33.500000	1	0.027375
33.516667	1	0.029000
33.533333	1	0.030875
33.550000	1	0.032750
33.566667	1	0.034125
33.583333	1	0.035250
33.600000	1	0.037375
33.616667	1	0.039375
33.633333	1	0.041500
33.650000	1	0.044125
33.666667	1	0.046125
33.683333	1	0.048875
33.700000	1	0.051625
33.716667	1	0.055000
33.733333	1	0.059125
33.750000	1	0.062750
33.766667	1	0.066375
33.783333	1	0.070875
33.800000	1	0.075625
33.816667	1	0.080500
33.833333	1	0.086000
33.850000	1	0.091875
33.866667	1	0.098250
33.883333	1	0.105375
33.900000	1	0.112750
33.916667	1	0.121000
33.933333	1	0.129375
33.950000	1	0.138125
33.966667	1	0.147375
33.983333	1	0.157750
34.000000	1	0.168250
34.016667	1	0.179750
34.033333	1	0.191375
34.050000	1	0.202875
34.066667	1	0.215250
34.083333	1	0.227500
34.100000	1	0.240625
34.116667	1	0.254125
34.133333	1	0.267000
34.150000	1	0.280625
34.166667	1	0.293625
34.183333	1	0.306125
34.200000	1	0.318750
34.216667	1	0.330750
34.233333	1	0.342375
34.250000	1	0.353250
34.266667	1	0.363625
34.283333	1	0.373750
34.300000	1	0.381625
34.316667	1	0.389250
34.333333	1	0.395625
34.350000	1	0.400625
34.366667	1	0.404500
34.383333	1	0.407375
34.400000	1	0.409250
34.416667	1	0.409250
34.433333	1	0.408375
34.450000	1	0.406500
34.466667	1	0.403250
34.483333	1	0.399375
34.500000	1	0.394250
34.516667	1	0.388750
34.533333	1	0.382375
34.550000	1	0.375250
34.566667	1	0.367375
34.583333	1	0.358750
34.600000	1	0.350250
34.616667	1	0.340375
34.633333	1	0.330875
34.650000	1	0.321375
34.666667	1	0.311750
34.683333	1	0.302250
34.700000	1	0.292000
34.716667	1	0.283500
34.733333	1	0.275000
34.750000	1	0.267000
34.766667	1	0.258875
34.783333	1	0.251125
34.800000	1	0.243625
34.816667	1	0.236125
34.833333	1	0.229625
34.850000	1	0.223375
34.866667	1	0.217625
34.883333	1	0.212500
34.900000	1	0.208000
34.916667	1	0.203500
34.933333	1	0.200000
34.950000	1	0.197250
34.966667	1	0.194875
34.983333	1	0.192500
35.000000	1	0.190250
35.016667	1	0.188375
35.033333	1	0.187375
35.050000	1	0.187125
35.066667	1	0.186500
35.083333	1	0.186625
35.100000	1	0.186875
35.116667	1	0.187875
35.133333	1	0.188875
35.150000	1	0.190500
35.166667	1	0.191875
35.183333	1	0.193375
35.200000	1	0.194375
35.216667	1	0.195375
35.233333	1	0.196875
35.250000	1	0.199625
35.266667	1	0.202000
35.283333	1	0.203875
35.300000	1	0.205000
35.316667	1	0.207000
35.333333	1	0.209250
35.350000	1	0.210625
35.366667	1	0.212875
35.383333	1	0.214125
35.400000	1	0.215625
35.416667	1	0.217000
35.433333	1	0.218500
35.450000	1	0.219500
35.466667	1	0.220125
35.483333	1	0.221375
35.500000	1	0.222250
35.516667	1	0.223250
35.533333	1	0.223625
35.550000	1	0.224125
35.566667	1	0.224875
35.583333	1	0.224750
35.600000	1	0.225000
35.616667	1	0.224625
35.633333	1	0.224375
35.650000	1	0.224250
35.666667	1	0.223875
35.683333	1	0.222750
35.700000	1	0.222000
35.716667	1	0.221500
35.733333	1	0.220375
35.750000	1	0.219000
35.766667	1	0.218000
35.783333	1	0.216500
35.800000	1	0.215375
35.816667	1	0.213750
35.833333	1	0.212375
35.850000	1	0.210250
35.866667	1	0.208750
35.883333	1	0.207625
35.900000	1	0.205125
35.916667	1	0.203625
35.933333	1	0.201750
35.950000	1	0.200375
35.966667	1	0.198375
35.983333	1	0.196000
36.000000	1	0.193875
36.016667	1	0.191500
36.033333	1	0.189500
36.050000	1	0.187500
36.066667	1	0.185500
36.083333	1	0.183250
36.100000	1	0.180875
36.116667	1	0.178875
36.133333	1	0.176625
36.150000	1	0.174625
36.166667	1	0.172375
36.183333	1	0.169625
36.200000	1	0.167000
36.216667	1	0.164750
36.233333	1	0.162250
36.250000	1	0.159625
36.266667	1	0.157375
36.283333	1	0.155125
36.300000	1	0.153000
36.316667	1	0.151000
36.333333	1	0.149250
36.350000	1	0.147625
36.366667	1	0.145250
36.383333	1	0.143000
36.400000	1	0.140375
36.416667	1	0.138750
36.433333	1	0.136750
36.450000	1	0.134375
36.466667	1	0.132375
36.483333	1	0.130750
36.500000	1	0.128750
36.516667	1	0.127000
36.533333	1	0.125250
36.550000	1	0.123375
36.566667	1	0.121500
36.583333	1	0.118750
36.600000	1	0.116250
36.616667	1	0.113500
36.633333	1	0.111250
36.650000	1	0.108625
36.666667	1	0.106125
36.683333	1	0.103375
36.700000	1	0.099750
36.716667	1	0.096875
36.733333	1	0.093750
36.750000	1	0.090500
36.766667	1	0.087125
36.783333	1	0.083750
36.800000	1	0.079375
36.816667	1	0.075375
36.833333	1	0.072250
36.850000	1	0.068125
36.866667	1	0.064500
36.883333	1	0.060750
36.900000	1	0.057375
36.916667	1	0.053500
36.933333	1	0.049875
36.950000	1	0.046875
36.966667	1	0.043500
36.983333	1	0.040125
37.000000	1	0.036875
37.016667	1	0.034000
37.033333	1	0.031250
37.050000	1	0.028500
37.066667	1	0.026125
37.083333	1	0.024000
37.100000	1	0.022625
37.116667	1	0.020375
37.133333	1	0.018875
37.150000	1	0.018000
37.166667	1	0.016000
37.183333	1	0.013875
37.200000	1	0.012250
37.216667	1	0.010875
37.233333	1	0.010000
37.250000	1	0.008000
37.266667	1	0.007125
37.283333	1	0.006500
37.300000	1	0.005250
37.316667	1	0.004250
37.333333	1	0.002750
37.350000	1	0.002000
37.366667	1	0.001375
37.383333	1	0.000375
37.400000	1	-0.001000
37.416667	1	-0.001750
37.433333	1	-0.002875
37.450000	1	-0.003750
37.466667	1	-0.004625
37.483333	1	-0.006000
37.500000	1	-0.007250
37.516667	1	-0.008250
37.533333	1	-0.008625
37.550000	1	-0.009375
37.566667	1	-0.010000
37.583333	1	-0.010875
37.600000	1	-0.012250
37.616667	1	-0.012625
37.633333	1	-0.012750
37.650000	1	-0.012875
37.666667	1	-0.013125
37.683333	1	-0.013625
37.700000	1	-0.013000
37.716667	1	-0.012875
37.733333	1	-0.013375
37.750000	1	-0.013500
37.766667	1	-0.012875
37.783333	1	-0.012625
37.800000	1	-0.011625
37.816667	1	-0.011375
37.833333	1	-0.010625
37.850000	1	-0.010125
37.866667	1	-0.009250
37.883333	1	-0.008875
37.900000	1	-0.007750
37.916667	1	-0.006125
37.933333	1	-0.004875
37.950000	1	-0.003375
37.966667	1	-0.002625
37.983333	1	-0.001250
38.000000	1	0.000625
38.016667	1	0.002750
38.033333	1	0.004375
38.050000	1	0.005750
38.066667	1	0.006875
38.083333	1	0.009000
38.100000	1	0.009875
38.116667	1	0.010750
38.133333	1	0.012375
38.150000	1	0.013500
38.166667	1	0.014750
38.183333	1	0.016000
38.200000	1	0.017125
38.216667	1	0.018000
38.233333	1	0.018500
38.250000	1	0.018375
38.266667	1	0.019125
38.283333	1	0.019125
38.300000	1	0.019250
38.316667	1	0.019000
38.333333	1	0.019000
38.350000	1	0.018250
38.366667	1	0.017875
38.383333	1	0.017250
38.400000	1	0.017375
38.416667	1	0.016875
38.433333	1	0.016500
38.450000	1	0.015500
38.466667	1	0.014625
38.483333	1	0.014250
38.500000	1	0.013500
38.516667	1	0.012500
38.533333	1	0.012250
38.550000	1	0.010500
38.566667	1	0.009500
38.583333	1	0.009250
38.600000	1	0.008625
38.616667	1	0.006750
38.633333	1	0.005750
38.650000	1	0.005250
38.666667	1	0.004500
38.683333	1	0.003875
38.700000	1	0.003500
38.716667	1	0.003375
38.733333	1	0.002875
38.750000	1	0.002500
38.766667	1	0.002125
38.783333	1	0.002125
38.800000	1	0.002500
38.816667	1	0.002375
38.833333	1	0.002375
38.850000	1	0.002625
38.866667	1	0.002625
38.883333	1	0.002375
38.900000	1	0.002375
38.916667	1	0.001625
38.933333	1	0.001250
38.950000	1	0.001375
38.966667	1	0.001250
38.983333	1	0.001375
39.000000	1	0.001250
39.016667	1	0.000625
39.033333	1	0.000750
39.050000	1	0.000500
39.066667	1	0.000875
39.083333	1	0.001250
39.100000	1	0.001750
39.116667	1	0.001250
39.133333	1	0.000875
39.150000	1	0.001000
39.166667	1	0.001125
39.183333	1	0.001375
39.200000	1	0.002250
39.216667	1	0.002750
39.233333	1	0.003125
39.250000	1	0.003375
39.266667	1	0.004000
39.283333	1	0.004750
39.300000	1	0.005250
39.316667	1	0.006000
39.333333	1	0.006750
39.350000	1	0.007375
39.366667	1	0.007500
39.383333	1	0.008375
39.400000	1	0.008375
39.416667	1	0.008875
39.433333	1	0.009625
39.450000	1	0.010500
39.466667	1	0.011000
39.483333	1	0.011625
39.500000	1	0.011500
39.516667	1	0.011875
39.533333	1	0.011750
39.550000	1	0.012875
39.566667	1	0.013375
39.583333	1	0.014125
39.600000	1	0.014250
39.616667	1	0.014125
39.633333	1	0.014625
39.650000	1	0.015375
39.666667	1	0.015500
39.683333	1	0.016500
39.700000	1	0.016500
39.716667	1	0.017250
39.733333	1	0.018000
39.750000	1	0.018250
39.766667	1	0.018750
39.783333	1	0.018875
39.800000	1	0.019625
39.816667	1	0.020375
39.833333	1	0.021125
39.850000	1	0.022375
39.866667	1	0.023750
39.883333	1	0.024500
39.900000	1	0.025875
39.916667	1	0.027125
39.933333	1	0.028125
39.950000	1	0.029125
39.966667	1	0.030000
39.983333	1	0.031500
40.000000	1	0.032375
