File Path	chrom://marshall/Chromeleon7/HPLC_Ultimate_3000/Users/markusar/20230616_CMO_FP13_14_15.seq/575.smp/RI_1.channel/RI_1.chm
Channel	RI_1

Injection Information:
Data Vault	Chromeleon7
Injection	FP14_2.2_s2
Injection Number	15
Position	BD8
Comment	
Processing Method	
Instrument Method	run_25B_method
Type	Unknown
Status	Finished
Injection Date	17.06.2023
Injection Time	02:02:22
Injection Volume (µl)	20.000
Dilution Factor	1.0000
Weight	1.0000

Chromatogram Data Information:
Time Min. (min)	0.000000
Time Max. (min)	40.000000
Data Points	2401
Detector	RI
Generating Data System	Chromeleon 7.2.5.9507
Exporting Data System	Chromeleon 7.2.5.0
Operator	Instrument Controller
Signal Quantity	Refractive 
Signal Unit	µRIU
Signal Min.	-0.211000
Signal Max.	44.344750
Channel	RI_1
Driver Name	RID520Driver.dll
Channel Type	Evaluation
Min. Step (s)	1
Max. Step (s)	1
Average Step (s)	1

Signal Parameter Information:
Signal Info	

Chromatogram Data:
Time (min)	Step (s)	Value (µRIU)
0.000000	n.a.	0.015125
0.016667	1	0.014875
0.033333	1	0.014000
0.050000	1	0.013500
0.066667	1	0.012625
0.083333	1	0.011750
0.100000	1	0.011250
0.116667	1	0.010500
0.133333	1	0.010000
0.150000	1	0.009625
0.166667	1	0.008875
0.183333	1	0.007625
0.200000	1	0.006125
0.216667	1	0.005375
0.233333	1	0.004375
0.250000	1	0.002875
0.266667	1	0.002250
0.283333	1	0.001625
0.300000	1	0.000000
0.316667	1	-0.000500
0.333333	1	-0.000625
0.350000	1	-0.001500
0.366667	1	-0.003125
0.383333	1	-0.004000
0.400000	1	-0.006125
0.416667	1	-0.007000
0.433333	1	-0.010250
0.450000	1	-0.013625
0.466667	1	-0.017000
0.483333	1	-0.019125
0.500000	1	-0.020125
0.516667	1	-0.019500
0.533333	1	-0.017250
0.550000	1	-0.015500
0.566667	1	-0.013875
0.583333	1	-0.012250
0.600000	1	-0.011125
0.616667	1	-0.009625
0.633333	1	-0.009875
0.650000	1	-0.010625
0.666667	1	-0.012875
0.683333	1	-0.015625
0.700000	1	-0.018625
0.716667	1	-0.020875
0.733333	1	-0.023875
0.750000	1	-0.026375
0.766667	1	-0.028250
0.783333	1	-0.029625
0.800000	1	-0.031875
0.816667	1	-0.033750
0.833333	1	-0.035750
0.850000	1	-0.036875
0.866667	1	-0.037375
0.883333	1	-0.038750
0.900000	1	-0.039750
0.916667	1	-0.040500
0.933333	1	-0.040625
0.950000	1	-0.041250
0.966667	1	-0.042000
0.983333	1	-0.042125
1.000000	1	-0.043125
1.016667	1	-0.043375
1.033333	1	-0.044125
1.050000	1	-0.043625
1.066667	1	-0.044000
1.083333	1	-0.044000
1.100000	1	-0.044125
1.116667	1	-0.044000
1.133333	1	-0.043375
1.150000	1	-0.043250
1.166667	1	-0.042500
1.183333	1	-0.042250
1.200000	1	-0.042625
1.216667	1	-0.042500
1.233333	1	-0.041750
1.250000	1	-0.041125
1.266667	1	-0.041375
1.283333	1	-0.041125
1.300000	1	-0.040625
1.316667	1	-0.040625
1.333333	1	-0.040000
1.350000	1	-0.039000
1.366667	1	-0.038625
1.383333	1	-0.037250
1.400000	1	-0.036500
1.416667	1	-0.035375
1.433333	1	-0.034500
1.450000	1	-0.033750
1.466667	1	-0.032875
1.483333	1	-0.032000
1.500000	1	-0.031375
1.516667	1	-0.030625
1.533333	1	-0.029750
1.550000	1	-0.029125
1.566667	1	-0.028000
1.583333	1	-0.027000
1.600000	1	-0.025625
1.616667	1	-0.024500
1.633333	1	-0.024000
1.650000	1	-0.022875
1.666667	1	-0.022125
1.683333	1	-0.021250
1.700000	1	-0.020250
1.716667	1	-0.019250
1.733333	1	-0.018625
1.750000	1	-0.017375
1.766667	1	-0.016625
1.783333	1	-0.016125
1.800000	1	-0.015500
1.816667	1	-0.014625
1.833333	1	-0.014250
1.850000	1	-0.013375
1.866667	1	-0.013000
1.883333	1	-0.012500
1.900000	1	-0.011625
1.916667	1	-0.011375
1.933333	1	-0.010625
1.950000	1	-0.010125
1.966667	1	-0.010625
1.983333	1	-0.010375
2.000000	1	-0.009875
2.016667	1	-0.010000
2.033333	1	-0.010375
2.050000	1	-0.010125
2.066667	1	-0.010375
2.083333	1	-0.009625
2.100000	1	-0.009875
2.116667	1	-0.010375
2.133333	1	-0.010125
2.150000	1	-0.010125
2.166667	1	-0.010250
2.183333	1	-0.011000
2.200000	1	-0.011125
2.216667	1	-0.012375
2.233333	1	-0.013000
2.250000	1	-0.014375
2.266667	1	-0.014625
2.283333	1	-0.015125
2.300000	1	-0.015500
2.316667	1	-0.016250
2.333333	1	-0.016500
2.350000	1	-0.017125
2.366667	1	-0.017500
2.383333	1	-0.018625
2.400000	1	-0.019375
2.416667	1	-0.020250
2.433333	1	-0.020500
2.450000	1	-0.021625
2.466667	1	-0.022500
2.483333	1	-0.023375
2.500000	1	-0.024250
2.516667	1	-0.024125
2.533333	1	-0.024750
2.550000	1	-0.025125
2.566667	1	-0.025000
2.583333	1	-0.025125
2.600000	1	-0.025375
2.616667	1	-0.025625
2.633333	1	-0.026000
2.650000	1	-0.025875
2.666667	1	-0.025500
2.683333	1	-0.025125
2.700000	1	-0.025000
2.716667	1	-0.025125
2.733333	1	-0.024375
2.750000	1	-0.023875
2.766667	1	-0.023500
2.783333	1	-0.023000
2.800000	1	-0.022625
2.816667	1	-0.021625
2.833333	1	-0.020875
2.850000	1	-0.019875
2.866667	1	-0.018875
2.883333	1	-0.017250
2.900000	1	-0.016625
2.916667	1	-0.015250
2.933333	1	-0.014875
2.950000	1	-0.013500
2.966667	1	-0.011625
2.983333	1	-0.010500
3.000000	1	-0.009250
3.016667	1	-0.008375
3.033333	1	-0.006250
3.050000	1	-0.004625
3.066667	1	-0.003250
3.083333	1	-0.001500
3.100000	1	-0.000500
3.116667	1	0.001125
3.133333	1	0.002625
3.150000	1	0.004125
3.166667	1	0.005250
3.183333	1	0.006750
3.200000	1	0.007875
3.216667	1	0.009125
3.233333	1	0.010125
3.250000	1	0.011875
3.266667	1	0.012750
3.283333	1	0.013875
3.300000	1	0.014875
3.316667	1	0.016125
3.333333	1	0.017000
3.350000	1	0.017875
3.366667	1	0.018625
3.383333	1	0.019625
3.400000	1	0.019875
3.416667	1	0.020750
3.433333	1	0.021750
3.450000	1	0.022875
3.466667	1	0.023875
3.483333	1	0.024625
3.500000	1	0.024875
3.516667	1	0.025500
3.533333	1	0.026375
3.550000	1	0.027125
3.566667	1	0.027750
3.583333	1	0.028125
3.600000	1	0.028500
3.616667	1	0.028625
3.633333	1	0.028750
3.650000	1	0.029625
3.666667	1	0.030000
3.683333	1	0.030250
3.700000	1	0.030500
3.716667	1	0.030750
3.733333	1	0.030625
3.750000	1	0.030375
3.766667	1	0.030500
3.783333	1	0.031000
3.800000	1	0.030750
3.816667	1	0.030000
3.833333	1	0.029625
3.850000	1	0.029000
3.866667	1	0.028625
3.883333	1	0.027500
3.900000	1	0.026750
3.916667	1	0.026250
3.933333	1	0.025250
3.950000	1	0.024250
3.966667	1	0.023625
3.983333	1	0.022375
4.000000	1	0.021625
4.016667	1	0.021375
4.033333	1	0.020125
4.050000	1	0.019375
4.066667	1	0.018500
4.083333	1	0.017750
4.100000	1	0.016375
4.116667	1	0.015625
4.133333	1	0.014875
4.150000	1	0.013375
4.166667	1	0.011875
4.183333	1	0.010750
4.200000	1	0.009625
4.216667	1	0.008625
4.233333	1	0.007375
4.250000	1	0.006375
4.266667	1	0.004500
4.283333	1	0.003500
4.300000	1	0.002375
4.316667	1	0.001375
4.333333	1	0.000625
4.350000	1	-0.000375
4.366667	1	-0.001500
4.383333	1	-0.002250
4.400000	1	-0.003500
4.416667	1	-0.004750
4.433333	1	-0.005375
4.450000	1	-0.006375
4.466667	1	-0.007375
4.483333	1	-0.007750
4.500000	1	-0.008125
4.516667	1	-0.009000
4.533333	1	-0.009875
4.550000	1	-0.010625
4.566667	1	-0.010625
4.583333	1	-0.010500
4.600000	1	-0.010125
4.616667	1	-0.010625
4.633333	1	-0.011375
4.650000	1	-0.011625
4.666667	1	-0.011875
4.683333	1	-0.011375
4.700000	1	-0.010625
4.716667	1	-0.010750
4.733333	1	-0.010375
4.750000	1	-0.009750
4.766667	1	-0.009375
4.783333	1	-0.009250
4.800000	1	-0.008500
4.816667	1	-0.007875
4.833333	1	-0.006875
4.850000	1	-0.005750
4.866667	1	-0.004750
4.883333	1	-0.003250
4.900000	1	-0.002250
4.916667	1	-0.001000
4.933333	1	0.000375
4.950000	1	0.002250
4.966667	1	0.004375
4.983333	1	0.006250
5.000000	1	0.007375
5.016667	1	0.008625
5.033333	1	0.010500
5.050000	1	0.011625
5.066667	1	0.013250
5.083333	1	0.015250
5.100000	1	0.016750
5.116667	1	0.018875
5.133333	1	0.020500
5.150000	1	0.022250
5.166667	1	0.023750
5.183333	1	0.025500
5.200000	1	0.026875
5.216667	1	0.028750
5.233333	1	0.030750
5.250000	1	0.032250
5.266667	1	0.033625
5.283333	1	0.035500
5.300000	1	0.037750
5.316667	1	0.039500
5.333333	1	0.041125
5.350000	1	0.042750
5.366667	1	0.044375
5.383333	1	0.045625
5.400000	1	0.047500
5.416667	1	0.048875
5.433333	1	0.050250
5.450000	1	0.050875
5.466667	1	0.053125
5.483333	1	0.054250
5.500000	1	0.055750
5.516667	1	0.056750
5.533333	1	0.057125
5.550000	1	0.057875
5.566667	1	0.058125
5.583333	1	0.058500
5.600000	1	0.058625
5.616667	1	0.059000
5.633333	1	0.059375
5.650000	1	0.059625
5.666667	1	0.059750
5.683333	1	0.059375
5.700000	1	0.059125
5.716667	1	0.058875
5.733333	1	0.058625
5.750000	1	0.058000
5.766667	1	0.057250
5.783333	1	0.056125
5.800000	1	0.055125
5.816667	1	0.054250
5.833333	1	0.053500
5.850000	1	0.052625
5.866667	1	0.051500
5.883333	1	0.050125
5.900000	1	0.049250
5.916667	1	0.048375
5.933333	1	0.047375
5.950000	1	0.046750
5.966667	1	0.046000
5.983333	1	0.044500
6.000000	1	0.043500
6.016667	1	0.042500
6.033333	1	0.041875
6.050000	1	0.040875
6.066667	1	0.040375
6.083333	1	0.039125
6.100000	1	0.038500
6.116667	1	0.037875
6.133333	1	0.037500
6.150000	1	0.037375
6.166667	1	0.037000
6.183333	1	0.036500
6.200000	1	0.035750
6.216667	1	0.035875
6.233333	1	0.036500
6.250000	1	0.036750
6.266667	1	0.037375
6.283333	1	0.037875
6.300000	1	0.038125
6.316667	1	0.038375
6.333333	1	0.039250
6.350000	1	0.040000
6.366667	1	0.040375
6.383333	1	0.041625
6.400000	1	0.042625
6.416667	1	0.043750
6.433333	1	0.045375
6.450000	1	0.046875
6.466667	1	0.048625
6.483333	1	0.050250
6.500000	1	0.052000
6.516667	1	0.053500
6.533333	1	0.055250
6.550000	1	0.057000
6.566667	1	0.059625
6.583333	1	0.061875
6.600000	1	0.064625
6.616667	1	0.067125
6.633333	1	0.069625
6.650000	1	0.072500
6.666667	1	0.074500
6.683333	1	0.076250
6.700000	1	0.079250
6.716667	1	0.081875
6.733333	1	0.084000
6.750000	1	0.086750
6.766667	1	0.090000
6.783333	1	0.092500
6.800000	1	0.094250
6.816667	1	0.096375
6.833333	1	0.099750
6.850000	1	0.102500
6.866667	1	0.105375
6.883333	1	0.108000
6.900000	1	0.110125
6.916667	1	0.112125
6.933333	1	0.114750
6.950000	1	0.116375
6.966667	1	0.117750
6.983333	1	0.119625
7.000000	1	0.121250
7.016667	1	0.122875
7.033333	1	0.125125
7.050000	1	0.126500
7.066667	1	0.127625
7.083333	1	0.127875
7.100000	1	0.129125
7.116667	1	0.129875
7.133333	1	0.131000
7.150000	1	0.131000
7.166667	1	0.131375
7.183333	1	0.131500
7.200000	1	0.131000
7.216667	1	0.130000
7.233333	1	0.129625
7.250000	1	0.128375
7.266667	1	0.127875
7.283333	1	0.126500
7.300000	1	0.124625
7.316667	1	0.123000
7.333333	1	0.122125
7.350000	1	0.120125
7.366667	1	0.117875
7.383333	1	0.115750
7.400000	1	0.113375
7.416667	1	0.111500
7.433333	1	0.108625
7.450000	1	0.105750
7.466667	1	0.103875
7.483333	1	0.101375
7.500000	1	0.098375
7.516667	1	0.095750
7.533333	1	0.092750
7.550000	1	0.089625
7.566667	1	0.086750
7.583333	1	0.084125
7.600000	1	0.081250
7.616667	1	0.078875
7.633333	1	0.077000
7.650000	1	0.074875
7.666667	1	0.071750
7.683333	1	0.068875
7.700000	1	0.066750
7.716667	1	0.064875
7.733333	1	0.062625
7.750000	1	0.060000
7.766667	1	0.058375
7.783333	1	0.056000
7.800000	1	0.054125
7.816667	1	0.053125
7.833333	1	0.051500
7.850000	1	0.050500
7.866667	1	0.049000
7.883333	1	0.047750
7.900000	1	0.046625
7.916667	1	0.045375
7.933333	1	0.044250
7.950000	1	0.043000
7.966667	1	0.042250
7.983333	1	0.041250
8.000000	1	0.040250
8.016667	1	0.039750
8.033333	1	0.039000
8.050000	1	0.037875
8.066667	1	0.037250
8.083333	1	0.035875
8.100000	1	0.035000
8.116667	1	0.033875
8.133333	1	0.032750
8.150000	1	0.032000
8.166667	1	0.032000
8.183333	1	0.031500
8.200000	1	0.031250
8.216667	1	0.031000
8.233333	1	0.030875
8.250000	1	0.030250
8.266667	1	0.030250
8.283333	1	0.030250
8.300000	1	0.030125
8.316667	1	0.030500
8.333333	1	0.030500
8.350000	1	0.030375
8.366667	1	0.030625
8.383333	1	0.030875
8.400000	1	0.031000
8.416667	1	0.031500
8.433333	1	0.032625
8.450000	1	0.032750
8.466667	1	0.032875
8.483333	1	0.033250
8.500000	1	0.034500
8.516667	1	0.035500
8.533333	1	0.036000
8.550000	1	0.037125
8.566667	1	0.038250
8.583333	1	0.039500
8.600000	1	0.039875
8.616667	1	0.040375
8.633333	1	0.041625
8.650000	1	0.043625
8.666667	1	0.044750
8.683333	1	0.045750
8.700000	1	0.046625
8.716667	1	0.048250
8.733333	1	0.050000
8.750000	1	0.051000
8.766667	1	0.052250
8.783333	1	0.054000
8.800000	1	0.055875
8.816667	1	0.057250
8.833333	1	0.059250
8.850000	1	0.060875
8.866667	1	0.062250
8.883333	1	0.064125
8.900000	1	0.065250
8.916667	1	0.067250
8.933333	1	0.068875
8.950000	1	0.071000
8.966667	1	0.072250
8.983333	1	0.073750
9.000000	1	0.075375
9.016667	1	0.077125
9.033333	1	0.079250
9.050000	1	0.080750
9.066667	1	0.081750
9.083333	1	0.083875
9.100000	1	0.085375
9.116667	1	0.086875
9.133333	1	0.088000
9.150000	1	0.089000
9.166667	1	0.090250
9.183333	1	0.091750
9.200000	1	0.092000
9.216667	1	0.092875
9.233333	1	0.094375
9.250000	1	0.095375
9.266667	1	0.097125
9.283333	1	0.097625
9.300000	1	0.098500
9.316667	1	0.099625
9.333333	1	0.100125
9.350000	1	0.101250
9.366667	1	0.101875
9.383333	1	0.102875
9.400000	1	0.104250
9.416667	1	0.105000
9.433333	1	0.107000
9.450000	1	0.108875
9.466667	1	0.111000
9.483333	1	0.113125
9.500000	1	0.116875
9.516667	1	0.120875
9.533333	1	0.124750
9.550000	1	0.130250
9.566667	1	0.135625
9.583333	1	0.142000
9.600000	1	0.149125
9.616667	1	0.156500
9.633333	1	0.164500
9.650000	1	0.173250
9.666667	1	0.181750
9.683333	1	0.189375
9.700000	1	0.196625
9.716667	1	0.202125
9.733333	1	0.206000
9.750000	1	0.208500
9.766667	1	0.208750
9.783333	1	0.208000
9.800000	1	0.206500
9.816667	1	0.206625
9.833333	1	0.212125
9.850000	1	0.226125
9.866667	1	0.255625
9.883333	1	0.306375
9.900000	1	0.385000
9.916667	1	0.501625
9.933333	1	0.665625
9.950000	1	0.891375
9.966667	1	1.195250
9.983333	1	1.596375
10.000000	1	2.118875
10.016667	1	2.786125
10.033333	1	3.623125
10.050000	1	4.647875
10.066667	1	5.875500
10.083333	1	7.314375
10.100000	1	8.964500
10.116667	1	10.815875
10.133333	1	12.846375
10.150000	1	15.022625
10.166667	1	17.300125
10.183333	1	19.622000
10.200000	1	21.923750
10.216667	1	24.133000
10.233333	1	26.173625
10.250000	1	27.966000
10.266667	1	29.441000
10.283333	1	30.539750
10.300000	1	31.223875
10.316667	1	31.475875
10.333333	1	31.307125
10.350000	1	30.756625
10.366667	1	29.883000
10.383333	1	28.761375
10.400000	1	27.469750
10.416667	1	26.081250
10.433333	1	24.657875
10.450000	1	23.247250
10.466667	1	21.878000
10.483333	1	20.569125
10.500000	1	19.326875
10.516667	1	18.152125
10.533333	1	17.041125
10.550000	1	15.988500
10.566667	1	14.989250
10.583333	1	14.038000
10.600000	1	13.129375
10.616667	1	12.259125
10.633333	1	11.426000
10.650000	1	10.628750
10.666667	1	9.865875
10.683333	1	9.138875
10.700000	1	8.447750
10.716667	1	7.794500
10.733333	1	7.181250
10.750000	1	6.609250
10.766667	1	6.080125
10.783333	1	5.595000
10.800000	1	5.153625
10.816667	1	4.755000
10.833333	1	4.397375
10.850000	1	4.079125
10.866667	1	3.795875
10.883333	1	3.545875
10.900000	1	3.325000
10.916667	1	3.129500
10.933333	1	2.957500
10.950000	1	2.805625
10.966667	1	2.670000
10.983333	1	2.550000
11.000000	1	2.441750
11.016667	1	2.345500
11.033333	1	2.258625
11.050000	1	2.180000
11.066667	1	2.109000
11.083333	1	2.043375
11.100000	1	1.982000
11.116667	1	1.926500
11.133333	1	1.874375
11.150000	1	1.825750
11.166667	1	1.779500
11.183333	1	1.736625
11.200000	1	1.695875
11.216667	1	1.658000
11.233333	1	1.621375
11.250000	1	1.586625
11.266667	1	1.553250
11.283333	1	1.521125
11.300000	1	1.490125
11.316667	1	1.460250
11.333333	1	1.431750
11.350000	1	1.404625
11.366667	1	1.378875
11.383333	1	1.353500
11.400000	1	1.328875
11.416667	1	1.305375
11.433333	1	1.282375
11.450000	1	1.261000
11.466667	1	1.241125
11.483333	1	1.222250
11.500000	1	1.203750
11.516667	1	1.186375
11.533333	1	1.170625
11.550000	1	1.155500
11.566667	1	1.141375
11.583333	1	1.128625
11.600000	1	1.117125
11.616667	1	1.106000
11.633333	1	1.095250
11.650000	1	1.085875
11.666667	1	1.077125
11.683333	1	1.069000
11.700000	1	1.061625
11.716667	1	1.054000
11.733333	1	1.047500
11.750000	1	1.041375
11.766667	1	1.035750
11.783333	1	1.030375
11.800000	1	1.025750
11.816667	1	1.021500
11.833333	1	1.017875
11.850000	1	1.015125
11.866667	1	1.012250
11.883333	1	1.010750
11.900000	1	1.011000
11.916667	1	1.011750
11.933333	1	1.013875
11.950000	1	1.018625
11.966667	1	1.025125
11.983333	1	1.033375
12.000000	1	1.043750
12.016667	1	1.056750
12.033333	1	1.071750
12.050000	1	1.090000
12.066667	1	1.111625
12.083333	1	1.136875
12.100000	1	1.166375
12.116667	1	1.200125
12.133333	1	1.239250
12.150000	1	1.283750
12.166667	1	1.335125
12.183333	1	1.394375
12.200000	1	1.463125
12.216667	1	1.542000
12.233333	1	1.633625
12.250000	1	1.739000
12.266667	1	1.859375
12.283333	1	1.995500
12.300000	1	2.150000
12.316667	1	2.324500
12.333333	1	2.519625
12.350000	1	2.737000
12.366667	1	2.978125
12.383333	1	3.244500
12.400000	1	3.536875
12.416667	1	3.854500
12.433333	1	4.197750
12.450000	1	4.565375
12.466667	1	4.952375
12.483333	1	5.355250
12.500000	1	5.768125
12.516667	1	6.184500
12.533333	1	6.597250
12.550000	1	6.998250
12.566667	1	7.380375
12.583333	1	7.737500
12.600000	1	8.064000
12.616667	1	8.355875
12.633333	1	8.610625
12.650000	1	8.825750
12.666667	1	9.002250
12.683333	1	9.141625
12.700000	1	9.244750
12.716667	1	9.314625
12.733333	1	9.354125
12.750000	1	9.365250
12.766667	1	9.352500
12.783333	1	9.318625
12.800000	1	9.268625
12.816667	1	9.204000
12.833333	1	9.128500
12.850000	1	9.043375
12.866667	1	8.951875
12.883333	1	8.853500
12.900000	1	8.750625
12.916667	1	8.643250
12.933333	1	8.532375
12.950000	1	8.416750
12.966667	1	8.295750
12.983333	1	8.170875
13.000000	1	8.040875
13.016667	1	7.904375
13.033333	1	7.761750
13.050000	1	7.612125
13.066667	1	7.453625
13.083333	1	7.285750
13.100000	1	7.107375
13.116667	1	6.917750
13.133333	1	6.714750
13.150000	1	6.499625
13.166667	1	6.268250
13.183333	1	6.021750
13.200000	1	5.757875
13.216667	1	5.475000
13.233333	1	5.172750
13.250000	1	4.849875
13.266667	1	4.506500
13.283333	1	4.144375
13.300000	1	3.772500
13.316667	1	3.401875
13.333333	1	3.048000
13.350000	1	2.726750
13.366667	1	2.446875
13.383333	1	2.210625
13.400000	1	2.016000
13.416667	1	1.856625
13.433333	1	1.727250
13.450000	1	1.621625
13.466667	1	1.534750
13.483333	1	1.462500
13.500000	1	1.401000
13.516667	1	1.349125
13.533333	1	1.304250
13.550000	1	1.265625
13.566667	1	1.231500
13.583333	1	1.201625
13.600000	1	1.175875
13.616667	1	1.152500
13.633333	1	1.131500
13.650000	1	1.113375
13.666667	1	1.096500
13.683333	1	1.082375
13.700000	1	1.069125
13.716667	1	1.056875
13.733333	1	1.044375
13.750000	1	1.032750
13.766667	1	1.020500
13.783333	1	1.009125
13.800000	1	0.998500
13.816667	1	0.986625
13.833333	1	0.974500
13.850000	1	0.962250
13.866667	1	0.949375
13.883333	1	0.936750
13.900000	1	0.924375
13.916667	1	0.912125
13.933333	1	0.899625
13.950000	1	0.888000
13.966667	1	0.876000
13.983333	1	0.865250
14.000000	1	0.855625
14.016667	1	0.846125
14.033333	1	0.837500
14.050000	1	0.829625
14.066667	1	0.824000
14.083333	1	0.819875
14.100000	1	0.816875
14.116667	1	0.817625
14.133333	1	0.821125
14.150000	1	0.827000
14.166667	1	0.836500
14.183333	1	0.850625
14.200000	1	0.868500
14.216667	1	0.891500
14.233333	1	0.920625
14.250000	1	0.956625
14.266667	1	0.999250
14.283333	1	1.049625
14.300000	1	1.109375
14.316667	1	1.178750
14.333333	1	1.259750
14.350000	1	1.352625
14.366667	1	1.459000
14.383333	1	1.580375
14.400000	1	1.717625
14.416667	1	1.870375
14.433333	1	2.041750
14.450000	1	2.233625
14.466667	1	2.446000
14.483333	1	2.681500
14.500000	1	2.941500
14.516667	1	3.228125
14.533333	1	3.544000
14.550000	1	3.890625
14.566667	1	4.272500
14.583333	1	4.694875
14.600000	1	5.163625
14.616667	1	5.686500
14.633333	1	6.275375
14.650000	1	6.941875
14.666667	1	7.702875
14.683333	1	8.575250
14.700000	1	9.577500
14.716667	1	10.729500
14.733333	1	12.049625
14.750000	1	13.552875
14.766667	1	15.247750
14.783333	1	17.134750
14.800000	1	19.207250
14.816667	1	21.447125
14.833333	1	23.825625
14.850000	1	26.302500
14.866667	1	28.827875
14.883333	1	31.341875
14.900000	1	33.782625
14.916667	1	36.083500
14.933333	1	38.187000
14.950000	1	40.037500
14.966667	1	41.590250
14.983333	1	42.810750
15.000000	1	43.679750
15.016667	1	44.190000
15.033333	1	44.344750
15.050000	1	44.158125
15.066667	1	43.653125
15.083333	1	42.860875
15.100000	1	41.817375
15.116667	1	40.560750
15.133333	1	39.129375
15.150000	1	37.562500
15.166667	1	35.895375
15.183333	1	34.162625
15.200000	1	32.394750
15.216667	1	30.613625
15.233333	1	28.841000
15.250000	1	27.093750
15.266667	1	25.387500
15.283333	1	23.733625
15.300000	1	22.141250
15.316667	1	20.616125
15.333333	1	19.162625
15.350000	1	17.782250
15.366667	1	16.478375
15.383333	1	15.250250
15.400000	1	14.097375
15.416667	1	13.016375
15.433333	1	12.006250
15.450000	1	11.064875
15.466667	1	10.191500
15.483333	1	9.384000
15.500000	1	8.641000
15.516667	1	7.959125
15.533333	1	7.337000
15.550000	1	6.770500
15.566667	1	6.258000
15.583333	1	5.796875
15.600000	1	5.381375
15.616667	1	5.008375
15.633333	1	4.675125
15.650000	1	4.377500
15.666667	1	4.110750
15.683333	1	3.872750
15.700000	1	3.660750
15.716667	1	3.470000
15.733333	1	3.299000
15.750000	1	3.144500
15.766667	1	3.004875
15.783333	1	2.878625
15.800000	1	2.762750
15.816667	1	2.657000
15.833333	1	2.559500
15.850000	1	2.469750
15.866667	1	2.386500
15.883333	1	2.309000
15.900000	1	2.235875
15.916667	1	2.168625
15.933333	1	2.105250
15.950000	1	2.045375
15.966667	1	1.988750
15.983333	1	1.934750
16.000000	1	1.884250
16.016667	1	1.837375
16.033333	1	1.792375
16.050000	1	1.750000
16.066667	1	1.710375
16.083333	1	1.672500
16.100000	1	1.637500
16.116667	1	1.604375
16.133333	1	1.573500
16.150000	1	1.543750
16.166667	1	1.515875
16.183333	1	1.490125
16.200000	1	1.466000
16.216667	1	1.443000
16.233333	1	1.421375
16.250000	1	1.400500
16.266667	1	1.381125
16.283333	1	1.362000
16.300000	1	1.344750
16.316667	1	1.328000
16.333333	1	1.312000
16.350000	1	1.296625
16.366667	1	1.281625
16.383333	1	1.267625
16.400000	1	1.254375
16.416667	1	1.242250
16.433333	1	1.231125
16.450000	1	1.220250
16.466667	1	1.210000
16.483333	1	1.201250
16.500000	1	1.191875
16.516667	1	1.183625
16.533333	1	1.176125
16.550000	1	1.168500
16.566667	1	1.162000
16.583333	1	1.156500
16.600000	1	1.151000
16.616667	1	1.146000
16.633333	1	1.141750
16.650000	1	1.138250
16.666667	1	1.134500
16.683333	1	1.131250
16.700000	1	1.129000
16.716667	1	1.127000
16.733333	1	1.125375
16.750000	1	1.124500
16.766667	1	1.123750
16.783333	1	1.123125
16.800000	1	1.122875
16.816667	1	1.123250
16.833333	1	1.123000
16.850000	1	1.123250
16.866667	1	1.124000
16.883333	1	1.123750
16.900000	1	1.123875
16.916667	1	1.124250
16.933333	1	1.124750
16.950000	1	1.124125
16.966667	1	1.124625
16.983333	1	1.124250
17.000000	1	1.123750
17.016667	1	1.123375
17.033333	1	1.123625
17.050000	1	1.123000
17.066667	1	1.122500
17.083333	1	1.122250
17.100000	1	1.121500
17.116667	1	1.119875
17.133333	1	1.118250
17.150000	1	1.116500
17.166667	1	1.114250
17.183333	1	1.111125
17.200000	1	1.108125
17.216667	1	1.104000
17.233333	1	1.099250
17.250000	1	1.094125
17.266667	1	1.087375
17.283333	1	1.081250
17.300000	1	1.073750
17.316667	1	1.066125
17.333333	1	1.058125
17.350000	1	1.049375
17.366667	1	1.039625
17.383333	1	1.030875
17.400000	1	1.021750
17.416667	1	1.011750
17.433333	1	1.002500
17.450000	1	0.992875
17.466667	1	0.984625
17.483333	1	0.977000
17.500000	1	0.969750
17.516667	1	0.962625
17.533333	1	0.956500
17.550000	1	0.951250
17.566667	1	0.947000
17.583333	1	0.944250
17.600000	1	0.942875
17.616667	1	0.942750
17.633333	1	0.942375
17.650000	1	0.943375
17.666667	1	0.945125
17.683333	1	0.948250
17.700000	1	0.952875
17.716667	1	0.957625
17.733333	1	0.963250
17.750000	1	0.969750
17.766667	1	0.976625
17.783333	1	0.983750
17.800000	1	0.991625
17.816667	1	0.999625
17.833333	1	1.008000
17.850000	1	1.016625
17.866667	1	1.024375
17.883333	1	1.031250
17.900000	1	1.037875
17.916667	1	1.043375
17.933333	1	1.048875
17.950000	1	1.053250
17.966667	1	1.056875
17.983333	1	1.059500
18.000000	1	1.060750
18.016667	1	1.061125
18.033333	1	1.060125
18.050000	1	1.058750
18.066667	1	1.055750
18.083333	1	1.052250
18.100000	1	1.048125
18.116667	1	1.043000
18.133333	1	1.036875
18.150000	1	1.030250
18.166667	1	1.023750
18.183333	1	1.016875
18.200000	1	1.008625
18.216667	1	1.000250
18.233333	1	0.991250
18.250000	1	0.983125
18.266667	1	0.973750
18.283333	1	0.965125
18.300000	1	0.956750
18.316667	1	0.948375
18.333333	1	0.941125
18.350000	1	0.933125
18.366667	1	0.925500
18.383333	1	0.919000
18.400000	1	0.912125
18.416667	1	0.906250
18.433333	1	0.900875
18.450000	1	0.895875
18.466667	1	0.891000
18.483333	1	0.886250
18.500000	1	0.882000
18.516667	1	0.878500
18.533333	1	0.875750
18.550000	1	0.873625
18.566667	1	0.872000
18.583333	1	0.870500
18.600000	1	0.868750
18.616667	1	0.868750
18.633333	1	0.869125
18.650000	1	0.869500
18.666667	1	0.870500
18.683333	1	0.871125
18.700000	1	0.872875
18.716667	1	0.875500
18.733333	1	0.877625
18.750000	1	0.881000
18.766667	1	0.884875
18.783333	1	0.889000
18.800000	1	0.894500
18.816667	1	0.899875
18.833333	1	0.906375
18.850000	1	0.912250
18.866667	1	0.918750
18.883333	1	0.926000
18.900000	1	0.933500
18.916667	1	0.941625
18.933333	1	0.950125
18.950000	1	0.959750
18.966667	1	0.969875
18.983333	1	0.981125
19.000000	1	0.993625
19.016667	1	1.006750
19.033333	1	1.021750
19.050000	1	1.038250
19.066667	1	1.056375
19.083333	1	1.076000
19.100000	1	1.096875
19.116667	1	1.119750
19.133333	1	1.143500
19.150000	1	1.169250
19.166667	1	1.195500
19.183333	1	1.223250
19.200000	1	1.252125
19.216667	1	1.280500
19.233333	1	1.308250
19.250000	1	1.335375
19.266667	1	1.361875
19.283333	1	1.385375
19.300000	1	1.406625
19.316667	1	1.426000
19.333333	1	1.442000
19.350000	1	1.454750
19.366667	1	1.464750
19.383333	1	1.470875
19.400000	1	1.473000
19.416667	1	1.472250
19.433333	1	1.468000
19.450000	1	1.459500
19.466667	1	1.448000
19.483333	1	1.433625
19.500000	1	1.417000
19.516667	1	1.397500
19.533333	1	1.375875
19.550000	1	1.353500
19.566667	1	1.329625
19.583333	1	1.304750
19.600000	1	1.279750
19.616667	1	1.255250
19.633333	1	1.231125
19.650000	1	1.207125
19.666667	1	1.184500
19.683333	1	1.162500
19.700000	1	1.141750
19.716667	1	1.123125
19.733333	1	1.105625
19.750000	1	1.090625
19.766667	1	1.078000
19.783333	1	1.068125
19.800000	1	1.059875
19.816667	1	1.053375
19.833333	1	1.049250
19.850000	1	1.046750
19.866667	1	1.046500
19.883333	1	1.048000
19.900000	1	1.050875
19.916667	1	1.055500
19.933333	1	1.060750
19.950000	1	1.067000
19.966667	1	1.074125
19.983333	1	1.082250
20.000000	1	1.090750
20.016667	1	1.099125
20.033333	1	1.107500
20.050000	1	1.115750
20.066667	1	1.123500
20.083333	1	1.131000
20.100000	1	1.138625
20.116667	1	1.146125
20.133333	1	1.153375
20.150000	1	1.160875
20.166667	1	1.168500
20.183333	1	1.175875
20.200000	1	1.183375
20.216667	1	1.191250
20.233333	1	1.200000
20.250000	1	1.209125
20.266667	1	1.218750
20.283333	1	1.229500
20.300000	1	1.240000
20.316667	1	1.251500
20.333333	1	1.263625
20.350000	1	1.276750
20.366667	1	1.290375
20.383333	1	1.304125
20.400000	1	1.317625
20.416667	1	1.330000
20.433333	1	1.342000
20.450000	1	1.353750
20.466667	1	1.363875
20.483333	1	1.373375
20.500000	1	1.381000
20.516667	1	1.386625
20.533333	1	1.390375
20.550000	1	1.393125
20.566667	1	1.394500
20.583333	1	1.394000
20.600000	1	1.391250
20.616667	1	1.387250
20.633333	1	1.382750
20.650000	1	1.377125
20.666667	1	1.371250
20.683333	1	1.364875
20.700000	1	1.358750
20.716667	1	1.353750
20.733333	1	1.349375
20.750000	1	1.346750
20.766667	1	1.345750
20.783333	1	1.346750
20.800000	1	1.349875
20.816667	1	1.356500
20.833333	1	1.364000
20.850000	1	1.373625
20.866667	1	1.384875
20.883333	1	1.398125
20.900000	1	1.411625
20.916667	1	1.425500
20.933333	1	1.439250
20.950000	1	1.451625
20.966667	1	1.463375
20.983333	1	1.473500
21.000000	1	1.480375
21.016667	1	1.483875
21.033333	1	1.485250
21.050000	1	1.482875
21.066667	1	1.477625
21.083333	1	1.468125
21.100000	1	1.454875
21.116667	1	1.438375
21.133333	1	1.419125
21.150000	1	1.396875
21.166667	1	1.372500
21.183333	1	1.346000
21.200000	1	1.317625
21.216667	1	1.287500
21.233333	1	1.257000
21.250000	1	1.226250
21.266667	1	1.195000
21.283333	1	1.164250
21.300000	1	1.133500
21.316667	1	1.103375
21.333333	1	1.074000
21.350000	1	1.045500
21.366667	1	1.018000
21.383333	1	0.991875
21.400000	1	0.967250
21.416667	1	0.943375
21.433333	1	0.921125
21.450000	1	0.900375
21.466667	1	0.879875
21.483333	1	0.862000
21.500000	1	0.845125
21.516667	1	0.829000
21.533333	1	0.814000
21.550000	1	0.800875
21.566667	1	0.787750
21.583333	1	0.776625
21.600000	1	0.766375
21.616667	1	0.757250
21.633333	1	0.748625
21.650000	1	0.741000
21.666667	1	0.734875
21.683333	1	0.728875
21.700000	1	0.723375
21.716667	1	0.718125
21.733333	1	0.713750
21.750000	1	0.710250
21.766667	1	0.707875
21.783333	1	0.705375
21.800000	1	0.702500
21.816667	1	0.700250
21.833333	1	0.698625
21.850000	1	0.697375
21.866667	1	0.696875
21.883333	1	0.696875
21.900000	1	0.696375
21.916667	1	0.695625
21.933333	1	0.695750
21.950000	1	0.695875
21.966667	1	0.696875
21.983333	1	0.698125
22.000000	1	0.699250
22.016667	1	0.699875
22.033333	1	0.701125
22.050000	1	0.702125
22.066667	1	0.703625
22.083333	1	0.705125
22.100000	1	0.706000
22.116667	1	0.707375
22.133333	1	0.708500
22.150000	1	0.709875
22.166667	1	0.710500
22.183333	1	0.710875
22.200000	1	0.712000
22.216667	1	0.711875
22.233333	1	0.712750
22.250000	1	0.713250
22.266667	1	0.713750
22.283333	1	0.714500
22.300000	1	0.714875
22.316667	1	0.716125
22.333333	1	0.717375
22.350000	1	0.718375
22.366667	1	0.719500
22.383333	1	0.721500
22.400000	1	0.723125
22.416667	1	0.725250
22.433333	1	0.727750
22.450000	1	0.729500
22.466667	1	0.732750
22.483333	1	0.736000
22.500000	1	0.739500
22.516667	1	0.743000
22.533333	1	0.746500
22.550000	1	0.750500
22.566667	1	0.754625
22.583333	1	0.758250
22.600000	1	0.762750
22.616667	1	0.766875
22.633333	1	0.770500
22.650000	1	0.774375
22.666667	1	0.778125
22.683333	1	0.781625
22.700000	1	0.784875
22.716667	1	0.787875
22.733333	1	0.791500
22.750000	1	0.794750
22.766667	1	0.796125
22.783333	1	0.798250
22.800000	1	0.799625
22.816667	1	0.802125
22.833333	1	0.803250
22.850000	1	0.804250
22.866667	1	0.804500
22.883333	1	0.804500
22.900000	1	0.804375
22.916667	1	0.804000
22.933333	1	0.803875
22.950000	1	0.802875
22.966667	1	0.802125
22.983333	1	0.801125
23.000000	1	0.801000
23.016667	1	0.801000
23.033333	1	0.800875
23.050000	1	0.801000
23.066667	1	0.801125
23.083333	1	0.802375
23.100000	1	0.803875
23.116667	1	0.806125
23.133333	1	0.809875
23.150000	1	0.814500
23.166667	1	0.820250
23.183333	1	0.826000
23.200000	1	0.832750
23.216667	1	0.841375
23.233333	1	0.851250
23.250000	1	0.862125
23.266667	1	0.875125
23.283333	1	0.889375
23.300000	1	0.905375
23.316667	1	0.923125
23.333333	1	0.942875
23.350000	1	0.964500
23.366667	1	0.988625
23.383333	1	1.014125
23.400000	1	1.042125
23.416667	1	1.073000
23.433333	1	1.106125
23.450000	1	1.141250
23.466667	1	1.179125
23.483333	1	1.220625
23.500000	1	1.265250
23.516667	1	1.314125
23.533333	1	1.367125
23.550000	1	1.424375
23.566667	1	1.485875
23.583333	1	1.552875
23.600000	1	1.625250
23.616667	1	1.703875
23.633333	1	1.788625
23.650000	1	1.880625
23.666667	1	1.979000
23.683333	1	2.084750
23.700000	1	2.197375
23.716667	1	2.318125
23.733333	1	2.445125
23.750000	1	2.578000
23.766667	1	2.716250
23.783333	1	2.858250
23.800000	1	3.002750
23.816667	1	3.147750
23.833333	1	3.291250
23.850000	1	3.432875
23.866667	1	3.568500
23.883333	1	3.696875
23.900000	1	3.816375
23.916667	1	3.924750
23.933333	1	4.020875
23.950000	1	4.102750
23.966667	1	4.169750
23.983333	1	4.219875
24.000000	1	4.252375
24.016667	1	4.268500
24.033333	1	4.267000
24.050000	1	4.248750
24.066667	1	4.214750
24.083333	1	4.165625
24.100000	1	4.103000
24.116667	1	4.027125
24.133333	1	3.940750
24.150000	1	3.844375
24.166667	1	3.740375
24.183333	1	3.629500
24.200000	1	3.512750
24.216667	1	3.393125
24.233333	1	3.269875
24.250000	1	3.146250
24.266667	1	3.022750
24.283333	1	2.900000
24.300000	1	2.779375
24.316667	1	2.661625
24.333333	1	2.547750
24.350000	1	2.436875
24.366667	1	2.330750
24.383333	1	2.229250
24.400000	1	2.132750
24.416667	1	2.040750
24.433333	1	1.954250
24.450000	1	1.872875
24.466667	1	1.797250
24.483333	1	1.725500
24.500000	1	1.659000
24.516667	1	1.597250
24.533333	1	1.539875
24.550000	1	1.485750
24.566667	1	1.436500
24.583333	1	1.390625
24.600000	1	1.349000
24.616667	1	1.309375
24.633333	1	1.273500
24.650000	1	1.240375
24.666667	1	1.209000
24.683333	1	1.179875
24.700000	1	1.152750
24.716667	1	1.127375
24.733333	1	1.104375
24.750000	1	1.081750
24.766667	1	1.060500
24.783333	1	1.039875
24.800000	1	1.019875
24.816667	1	1.001000
24.833333	1	0.982625
24.850000	1	0.965500
24.866667	1	0.947875
24.883333	1	0.931375
24.900000	1	0.915125
24.916667	1	0.900250
24.933333	1	0.884750
24.950000	1	0.869000
24.966667	1	0.855125
24.983333	1	0.840875
25.000000	1	0.827250
25.016667	1	0.813875
25.033333	1	0.800625
25.050000	1	0.788500
25.066667	1	0.777250
25.083333	1	0.765750
25.100000	1	0.755250
25.116667	1	0.745000
25.133333	1	0.736000
25.150000	1	0.727000
25.166667	1	0.718125
25.183333	1	0.711000
25.200000	1	0.704500
25.216667	1	0.697375
25.233333	1	0.691125
25.250000	1	0.685250
25.266667	1	0.680125
25.283333	1	0.675000
25.300000	1	0.670750
25.316667	1	0.667125
25.333333	1	0.663500
25.350000	1	0.660250
25.366667	1	0.658125
25.383333	1	0.655375
25.400000	1	0.653750
25.416667	1	0.652125
25.433333	1	0.650375
25.450000	1	0.648875
25.466667	1	0.648125
25.483333	1	0.647125
25.500000	1	0.646750
25.516667	1	0.646125
25.533333	1	0.646125
25.550000	1	0.645625
25.566667	1	0.645250
25.583333	1	0.645250
25.600000	1	0.645000
25.616667	1	0.645000
25.633333	1	0.644875
25.650000	1	0.644875
25.666667	1	0.644875
25.683333	1	0.645750
25.700000	1	0.646500
25.716667	1	0.646500
25.733333	1	0.646000
25.750000	1	0.646750
25.766667	1	0.647500
25.783333	1	0.648625
25.800000	1	0.648875
25.816667	1	0.649000
25.833333	1	0.649000
25.850000	1	0.649500
25.866667	1	0.649875
25.883333	1	0.651250
25.900000	1	0.651750
25.916667	1	0.652625
25.933333	1	0.654250
25.950000	1	0.655250
25.966667	1	0.656125
25.983333	1	0.657375
26.000000	1	0.657875
26.016667	1	0.659125
26.033333	1	0.659500
26.050000	1	0.660625
26.066667	1	0.661500
26.083333	1	0.662375
26.100000	1	0.663625
26.116667	1	0.664625
26.133333	1	0.665500
26.150000	1	0.666375
26.166667	1	0.667750
26.183333	1	0.668500
26.200000	1	0.669750
26.216667	1	0.671250
26.233333	1	0.672750
26.250000	1	0.674250
26.266667	1	0.675500
26.283333	1	0.676625
26.300000	1	0.678250
26.316667	1	0.680125
26.333333	1	0.681500
26.350000	1	0.683625
26.366667	1	0.685625
26.383333	1	0.686875
26.400000	1	0.688875
26.416667	1	0.690500
26.433333	1	0.692375
26.450000	1	0.693750
26.466667	1	0.695375
26.483333	1	0.697125
26.500000	1	0.698750
26.516667	1	0.700250
26.533333	1	0.701500
26.550000	1	0.701750
26.566667	1	0.701625
26.583333	1	0.701250
26.600000	1	0.701250
26.616667	1	0.700375
26.633333	1	0.698750
26.650000	1	0.696875
26.666667	1	0.695375
26.683333	1	0.693125
26.700000	1	0.690500
26.716667	1	0.688250
26.733333	1	0.685375
26.750000	1	0.682625
26.766667	1	0.679625
26.783333	1	0.676000
26.800000	1	0.672500
26.816667	1	0.669000
26.833333	1	0.664625
26.850000	1	0.661000
26.866667	1	0.656500
26.883333	1	0.652750
26.900000	1	0.649375
26.916667	1	0.646500
26.933333	1	0.643750
26.950000	1	0.641125
26.966667	1	0.638750
26.983333	1	0.636625
27.000000	1	0.635000
27.016667	1	0.633625
27.033333	1	0.633375
27.050000	1	0.633500
27.066667	1	0.633500
27.083333	1	0.634375
27.100000	1	0.636000
27.116667	1	0.638625
27.133333	1	0.641750
27.150000	1	0.645625
27.166667	1	0.650375
27.183333	1	0.655125
27.200000	1	0.661375
27.216667	1	0.668625
27.233333	1	0.676625
27.250000	1	0.685500
27.266667	1	0.694875
27.283333	1	0.705375
27.300000	1	0.716875
27.316667	1	0.729375
27.333333	1	0.743500
27.350000	1	0.758000
27.366667	1	0.773125
27.383333	1	0.789500
27.400000	1	0.806875
27.416667	1	0.826250
27.433333	1	0.846000
27.450000	1	0.867125
27.466667	1	0.889750
27.483333	1	0.913625
27.500000	1	0.938875
27.516667	1	0.965750
27.533333	1	0.994500
27.550000	1	1.025125
27.566667	1	1.058125
27.583333	1	1.093000
27.600000	1	1.130375
27.616667	1	1.170500
27.633333	1	1.213875
27.650000	1	1.259625
27.666667	1	1.309125
27.683333	1	1.363375
27.700000	1	1.420875
27.716667	1	1.482250
27.733333	1	1.548375
27.750000	1	1.619125
27.766667	1	1.694250
27.783333	1	1.773375
27.800000	1	1.857125
27.816667	1	1.945250
27.833333	1	2.037500
27.850000	1	2.133750
27.866667	1	2.233125
27.883333	1	2.334500
27.900000	1	2.438000
27.916667	1	2.542500
27.933333	1	2.647125
27.950000	1	2.751375
27.966667	1	2.853250
27.983333	1	2.952125
28.000000	1	3.047000
28.016667	1	3.136375
28.033333	1	3.219750
28.050000	1	3.296375
28.066667	1	3.364500
28.083333	1	3.422875
28.100000	1	3.471000
28.116667	1	3.508625
28.133333	1	3.535000
28.150000	1	3.550125
28.166667	1	3.553250
28.183333	1	3.544625
28.200000	1	3.524000
28.216667	1	3.491625
28.233333	1	3.448500
28.250000	1	3.393375
28.266667	1	3.328875
28.283333	1	3.255125
28.300000	1	3.172875
28.316667	1	3.083000
28.333333	1	2.986500
28.350000	1	2.884125
28.366667	1	2.776125
28.383333	1	2.664875
28.400000	1	2.551375
28.416667	1	2.435375
28.433333	1	2.318625
28.450000	1	2.201125
28.466667	1	2.084875
28.483333	1	1.969250
28.500000	1	1.855125
28.516667	1	1.742750
28.533333	1	1.633000
28.550000	1	1.525375
28.566667	1	1.421625
28.583333	1	1.320875
28.600000	1	1.223875
28.616667	1	1.129625
28.633333	1	1.039125
28.650000	1	0.952125
28.666667	1	0.868625
28.683333	1	0.788625
28.700000	1	0.711625
28.716667	1	0.638500
28.733333	1	0.568875
28.750000	1	0.502375
28.766667	1	0.439125
28.783333	1	0.379125
28.800000	1	0.321500
28.816667	1	0.267125
28.833333	1	0.216125
28.850000	1	0.167375
28.866667	1	0.121625
28.883333	1	0.078875
28.900000	1	0.039500
28.916667	1	0.002750
28.933333	1	-0.030375
28.950000	1	-0.062000
28.966667	1	-0.090250
28.983333	1	-0.115125
29.000000	1	-0.137125
29.016667	1	-0.156125
29.033333	1	-0.172375
29.050000	1	-0.186000
29.066667	1	-0.196000
29.083333	1	-0.203750
29.100000	1	-0.209000
29.116667	1	-0.211000
29.133333	1	-0.210125
29.150000	1	-0.206500
29.166667	1	-0.201500
29.183333	1	-0.193625
29.200000	1	-0.182750
29.216667	1	-0.169625
29.233333	1	-0.155375
29.250000	1	-0.139250
29.266667	1	-0.120375
29.283333	1	-0.100375
29.300000	1	-0.079375
29.316667	1	-0.057250
29.333333	1	-0.032875
29.350000	1	-0.008250
29.366667	1	0.016875
29.383333	1	0.042875
29.400000	1	0.069625
29.416667	1	0.096875
29.433333	1	0.123750
29.450000	1	0.151375
29.466667	1	0.178750
29.483333	1	0.205875
29.500000	1	0.232500
29.516667	1	0.259250
29.533333	1	0.285625
29.550000	1	0.310750
29.566667	1	0.335625
29.583333	1	0.360750
29.600000	1	0.383875
29.616667	1	0.406125
29.633333	1	0.428375
29.650000	1	0.449125
29.666667	1	0.469375
29.683333	1	0.489000
29.700000	1	0.507000
29.716667	1	0.524125
29.733333	1	0.540625
29.750000	1	0.555625
29.766667	1	0.569500
29.783333	1	0.581875
29.800000	1	0.593375
29.816667	1	0.603750
29.833333	1	0.613500
29.850000	1	0.622250
29.866667	1	0.630125
29.883333	1	0.637125
29.900000	1	0.643250
29.916667	1	0.648125
29.933333	1	0.652625
29.950000	1	0.656250
29.966667	1	0.658875
29.983333	1	0.660625
30.000000	1	0.663375
30.016667	1	0.664250
30.033333	1	0.664875
30.050000	1	0.665250
30.066667	1	0.664875
30.083333	1	0.663875
30.100000	1	0.662875
30.116667	1	0.661875
30.133333	1	0.661125
30.150000	1	0.659125
30.166667	1	0.657250
30.183333	1	0.655875
30.200000	1	0.654125
30.216667	1	0.652625
30.233333	1	0.651000
30.250000	1	0.649625
30.266667	1	0.648125
30.283333	1	0.646250
30.300000	1	0.644500
30.316667	1	0.643125
30.333333	1	0.641125
30.350000	1	0.639375
30.366667	1	0.638375
30.383333	1	0.637625
30.400000	1	0.636500
30.416667	1	0.635125
30.433333	1	0.634250
30.450000	1	0.634000
30.466667	1	0.633750
30.483333	1	0.633875
30.500000	1	0.633750
30.516667	1	0.634500
30.533333	1	0.635625
30.550000	1	0.635875
30.566667	1	0.637500
30.583333	1	0.639250
30.600000	1	0.641750
30.616667	1	0.644250
30.633333	1	0.647625
30.650000	1	0.651250
30.666667	1	0.654250
30.683333	1	0.658125
30.700000	1	0.662750
30.716667	1	0.667750
30.733333	1	0.672375
30.750000	1	0.677125
30.766667	1	0.682500
30.783333	1	0.688000
30.800000	1	0.693000
30.816667	1	0.697625
30.833333	1	0.702750
30.850000	1	0.708250
30.866667	1	0.712750
30.883333	1	0.716875
30.900000	1	0.720500
30.916667	1	0.723500
30.933333	1	0.726500
30.950000	1	0.727750
30.966667	1	0.728625
30.983333	1	0.729250
31.000000	1	0.729000
31.016667	1	0.727875
31.033333	1	0.725250
31.050000	1	0.722250
31.066667	1	0.718750
31.083333	1	0.713625
31.100000	1	0.707875
31.116667	1	0.701375
31.133333	1	0.694375
31.150000	1	0.687000
31.166667	1	0.678625
31.183333	1	0.670125
31.200000	1	0.661375
31.216667	1	0.652250
31.233333	1	0.642625
31.250000	1	0.632750
31.266667	1	0.622875
31.283333	1	0.611750
31.300000	1	0.601000
31.316667	1	0.590625
31.333333	1	0.579875
31.350000	1	0.569500
31.366667	1	0.559625
31.383333	1	0.550000
31.400000	1	0.540125
31.416667	1	0.530750
31.433333	1	0.522125
31.450000	1	0.513375
31.466667	1	0.504625
31.483333	1	0.496375
31.500000	1	0.488875
31.516667	1	0.481625
31.533333	1	0.474625
31.550000	1	0.467875
31.566667	1	0.461250
31.583333	1	0.455250
31.600000	1	0.450375
31.616667	1	0.445500
31.633333	1	0.440375
31.650000	1	0.436125
31.666667	1	0.431625
31.683333	1	0.428625
31.700000	1	0.425625
31.716667	1	0.422500
31.733333	1	0.419125
31.750000	1	0.417125
31.766667	1	0.414500
31.783333	1	0.412750
31.800000	1	0.411500
31.816667	1	0.410625
31.833333	1	0.409750
31.850000	1	0.409500
31.866667	1	0.408875
31.883333	1	0.408875
31.900000	1	0.408750
31.916667	1	0.409500
31.933333	1	0.409875
31.950000	1	0.410375
31.966667	1	0.411000
31.983333	1	0.412250
32.000000	1	0.413250
32.016667	1	0.414625
32.033333	1	0.416000
32.050000	1	0.416625
32.066667	1	0.417375
32.083333	1	0.418000
32.100000	1	0.417875
32.116667	1	0.418500
32.133333	1	0.419375
32.150000	1	0.419125
32.166667	1	0.418500
32.183333	1	0.417750
32.200000	1	0.417000
32.216667	1	0.416500
32.233333	1	0.415125
32.250000	1	0.413250
32.266667	1	0.411250
32.283333	1	0.409000
32.300000	1	0.405875
32.316667	1	0.402375
32.333333	1	0.399500
32.350000	1	0.395875
32.366667	1	0.392125
32.383333	1	0.387000
32.400000	1	0.382125
32.416667	1	0.377375
32.433333	1	0.372375
32.450000	1	0.367375
32.466667	1	0.362375
32.483333	1	0.357000
32.500000	1	0.351250
32.516667	1	0.345375
32.533333	1	0.339375
32.550000	1	0.333250
32.566667	1	0.326375
32.583333	1	0.320250
32.600000	1	0.314500
32.616667	1	0.309375
32.633333	1	0.302625
32.650000	1	0.296250
32.666667	1	0.290750
32.683333	1	0.285375
32.700000	1	0.279625
32.716667	1	0.274250
32.733333	1	0.268375
32.750000	1	0.263125
32.766667	1	0.257750
32.783333	1	0.252875
32.800000	1	0.247500
32.816667	1	0.243000
32.833333	1	0.239125
32.850000	1	0.234500
32.866667	1	0.229875
32.883333	1	0.225625
32.900000	1	0.221875
32.916667	1	0.218000
32.933333	1	0.214000
32.950000	1	0.210625
32.966667	1	0.207500
32.983333	1	0.204500
33.000000	1	0.201250
33.016667	1	0.198875
33.033333	1	0.196875
33.050000	1	0.194625
33.066667	1	0.193000
33.083333	1	0.191375
33.100000	1	0.190125
33.116667	1	0.188500
33.133333	1	0.186500
33.150000	1	0.185750
33.166667	1	0.184250
33.183333	1	0.183250
33.200000	1	0.183125
33.216667	1	0.182750
33.233333	1	0.182500
33.250000	1	0.182125
33.266667	1	0.182125
33.283333	1	0.182375
33.300000	1	0.181875
33.316667	1	0.182375
33.333333	1	0.182500
33.350000	1	0.183250
33.366667	1	0.183875
33.383333	1	0.184875
33.400000	1	0.185625
33.416667	1	0.186000
33.433333	1	0.186375
33.450000	1	0.187000
33.466667	1	0.188250
33.483333	1	0.189000
33.500000	1	0.189750
33.516667	1	0.190375
33.533333	1	0.191125
33.550000	1	0.191625
33.566667	1	0.192125
33.583333	1	0.193375
33.600000	1	0.195250
33.616667	1	0.195875
33.633333	1	0.196875
33.650000	1	0.198000
33.666667	1	0.199000
33.683333	1	0.199500
33.700000	1	0.200500
33.716667	1	0.201375
33.733333	1	0.203250
33.750000	1	0.204875
33.766667	1	0.206875
33.783333	1	0.208000
33.800000	1	0.209500
33.816667	1	0.211375
33.833333	1	0.213375
33.850000	1	0.215875
33.866667	1	0.218500
33.883333	1	0.220625
33.900000	1	0.223750
33.916667	1	0.226750
33.933333	1	0.229625
33.950000	1	0.233625
33.966667	1	0.237625
33.983333	1	0.242500
34.000000	1	0.247125
34.016667	1	0.252250
34.033333	1	0.257875
34.050000	1	0.263625
34.066667	1	0.269625
34.083333	1	0.275000
34.100000	1	0.281500
34.116667	1	0.287875
34.133333	1	0.294625
34.150000	1	0.301750
34.166667	1	0.309000
34.183333	1	0.317250
34.200000	1	0.325250
34.216667	1	0.332875
34.233333	1	0.339750
34.250000	1	0.347500
34.266667	1	0.354875
34.283333	1	0.361500
34.300000	1	0.368625
34.316667	1	0.375625
34.333333	1	0.381250
34.350000	1	0.386625
34.366667	1	0.391625
34.383333	1	0.396500
34.400000	1	0.400750
34.416667	1	0.404250
34.433333	1	0.407125
34.450000	1	0.409125
34.466667	1	0.410250
34.483333	1	0.409625
34.500000	1	0.409250
34.516667	1	0.408500
34.533333	1	0.406500
34.550000	1	0.403750
34.566667	1	0.400375
34.583333	1	0.396875
34.600000	1	0.392500
34.616667	1	0.387375
34.633333	1	0.381375
34.650000	1	0.375750
34.666667	1	0.369500
34.683333	1	0.362500
34.700000	1	0.355375
34.716667	1	0.348000
34.733333	1	0.340125
34.750000	1	0.332750
34.766667	1	0.324250
34.783333	1	0.315875
34.800000	1	0.308375
34.816667	1	0.300500
34.833333	1	0.293000
34.850000	1	0.285125
34.866667	1	0.277500
34.883333	1	0.270750
34.900000	1	0.263500
34.916667	1	0.256375
34.933333	1	0.249625
34.950000	1	0.243500
34.966667	1	0.237375
34.983333	1	0.232750
35.000000	1	0.227000
35.016667	1	0.221875
35.033333	1	0.217125
35.050000	1	0.212750
35.066667	1	0.208500
35.083333	1	0.204375
35.100000	1	0.200875
35.116667	1	0.197875
35.133333	1	0.195375
35.150000	1	0.192500
35.166667	1	0.189625
35.183333	1	0.187875
35.200000	1	0.186500
35.216667	1	0.185500
35.233333	1	0.184000
35.250000	1	0.182625
35.266667	1	0.182250
35.283333	1	0.181875
35.300000	1	0.181375
35.316667	1	0.180750
35.333333	1	0.180000
35.350000	1	0.179500
35.366667	1	0.179250
35.383333	1	0.179375
35.400000	1	0.179750
35.416667	1	0.180375
35.433333	1	0.180625
35.450000	1	0.181250
35.466667	1	0.181625
35.483333	1	0.182125
35.500000	1	0.181875
35.516667	1	0.181875
35.533333	1	0.182625
35.550000	1	0.183250
35.566667	1	0.183875
35.583333	1	0.184375
35.600000	1	0.184000
35.616667	1	0.184875
35.633333	1	0.184500
35.650000	1	0.185125
35.666667	1	0.185625
35.683333	1	0.186125
35.700000	1	0.186625
35.716667	1	0.186500
35.733333	1	0.187000
35.750000	1	0.186875
35.766667	1	0.187375
35.783333	1	0.187500
35.800000	1	0.187875
35.816667	1	0.188750
35.833333	1	0.189125
35.850000	1	0.188250
35.866667	1	0.187875
35.883333	1	0.187875
35.900000	1	0.188000
35.916667	1	0.187625
35.933333	1	0.187500
35.950000	1	0.187625
35.966667	1	0.188000
35.983333	1	0.188125
36.000000	1	0.188500
36.016667	1	0.188500
36.033333	1	0.188000
36.050000	1	0.188125
36.066667	1	0.187625
36.083333	1	0.187750
36.100000	1	0.187250
36.116667	1	0.187125
36.133333	1	0.187375
36.150000	1	0.187375
36.166667	1	0.187250
36.183333	1	0.187000
36.200000	1	0.185625
36.216667	1	0.185250
36.233333	1	0.185125
36.250000	1	0.185250
36.266667	1	0.185000
36.283333	1	0.184375
36.300000	1	0.183625
36.316667	1	0.183500
36.333333	1	0.182750
36.350000	1	0.181875
36.366667	1	0.181250
36.383333	1	0.180750
36.400000	1	0.180375
36.416667	1	0.179875
36.433333	1	0.178875
36.450000	1	0.177375
36.466667	1	0.176625
36.483333	1	0.175625
36.500000	1	0.174750
36.516667	1	0.173250
36.533333	1	0.172250
36.550000	1	0.171500
36.566667	1	0.170500
36.583333	1	0.169375
36.600000	1	0.168500
36.616667	1	0.167125
36.633333	1	0.166375
36.650000	1	0.165250
36.666667	1	0.164000
36.683333	1	0.163000
36.700000	1	0.162125
36.716667	1	0.161250
36.733333	1	0.160000
36.750000	1	0.158250
36.766667	1	0.157125
36.783333	1	0.156250
36.800000	1	0.155000
36.816667	1	0.153750
36.833333	1	0.152500
36.850000	1	0.151375
36.866667	1	0.150625
36.883333	1	0.149000
36.900000	1	0.147375
36.916667	1	0.146250
36.933333	1	0.144500
36.950000	1	0.142875
36.966667	1	0.141625
36.983333	1	0.140625
37.000000	1	0.138875
37.016667	1	0.137125
37.033333	1	0.135625
37.050000	1	0.133625
37.066667	1	0.131375
37.083333	1	0.129125
37.100000	1	0.126625
37.116667	1	0.124625
37.133333	1	0.122250
37.150000	1	0.119625
37.166667	1	0.117250
37.183333	1	0.114875
37.200000	1	0.112375
37.216667	1	0.109250
37.233333	1	0.106625
37.250000	1	0.103750
37.266667	1	0.101000
37.283333	1	0.098375
37.300000	1	0.095250
37.316667	1	0.092000
37.333333	1	0.089125
37.350000	1	0.087000
37.366667	1	0.084125
37.383333	1	0.081125
37.400000	1	0.078125
37.416667	1	0.075000
37.433333	1	0.072125
37.450000	1	0.069000
37.466667	1	0.065875
37.483333	1	0.063500
37.500000	1	0.060875
37.516667	1	0.058000
37.533333	1	0.055625
37.550000	1	0.053750
37.566667	1	0.050750
37.583333	1	0.048750
37.600000	1	0.046375
37.616667	1	0.043625
37.633333	1	0.041125
37.650000	1	0.039250
37.666667	1	0.036875
37.683333	1	0.035125
37.700000	1	0.033125
37.716667	1	0.031000
37.733333	1	0.029125
37.750000	1	0.027125
37.766667	1	0.026000
37.783333	1	0.023875
37.800000	1	0.022125
37.816667	1	0.020375
37.833333	1	0.019125
37.850000	1	0.018375
37.866667	1	0.016875
37.883333	1	0.015500
37.900000	1	0.015000
37.916667	1	0.014000
37.933333	1	0.013375
37.950000	1	0.013125
37.966667	1	0.012250
37.983333	1	0.012750
38.000000	1	0.012500
38.016667	1	0.011875
38.033333	1	0.011125
38.050000	1	0.011375
38.066667	1	0.011500
38.083333	1	0.011625
38.100000	1	0.012250
38.116667	1	0.012500
38.133333	1	0.012875
38.150000	1	0.013375
38.166667	1	0.014000
38.183333	1	0.015875
38.200000	1	0.016250
38.216667	1	0.016500
38.233333	1	0.017500
38.250000	1	0.018250
38.266667	1	0.019750
38.283333	1	0.020875
38.300000	1	0.021750
38.316667	1	0.023125
38.333333	1	0.023750
38.350000	1	0.025625
38.366667	1	0.026875
38.383333	1	0.028375
38.400000	1	0.029625
38.416667	1	0.031125
38.433333	1	0.033375
38.450000	1	0.033625
38.466667	1	0.035125
38.483333	1	0.036625
38.500000	1	0.037625
38.516667	1	0.038625
38.533333	1	0.040000
38.550000	1	0.041125
38.566667	1	0.042375
38.583333	1	0.043250
38.600000	1	0.044000
38.616667	1	0.044875
38.633333	1	0.045375
38.650000	1	0.046125
38.666667	1	0.045750
38.683333	1	0.046250
38.700000	1	0.046750
38.716667	1	0.046875
38.733333	1	0.046500
38.750000	1	0.047250
38.766667	1	0.046875
38.783333	1	0.046000
38.800000	1	0.046250
38.816667	1	0.046000
38.833333	1	0.045625
38.850000	1	0.045625
38.866667	1	0.044500
38.883333	1	0.043875
38.900000	1	0.043000
38.916667	1	0.042750
38.933333	1	0.041750
38.950000	1	0.041125
38.966667	1	0.040625
38.983333	1	0.040250
39.000000	1	0.039750
39.016667	1	0.038500
39.033333	1	0.037625
39.050000	1	0.036750
39.066667	1	0.035875
39.083333	1	0.035625
39.100000	1	0.035250
39.116667	1	0.035125
39.133333	1	0.034375
39.150000	1	0.034375
39.166667	1	0.034250
39.183333	1	0.033750
39.200000	1	0.033000
39.216667	1	0.033000
39.233333	1	0.033125
39.250000	1	0.033750
39.266667	1	0.034250
39.283333	1	0.033625
39.300000	1	0.033750
39.316667	1	0.033625
39.333333	1	0.034000
39.350000	1	0.035000
39.366667	1	0.035625
39.383333	1	0.035750
39.400000	1	0.036750
39.416667	1	0.036875
39.433333	1	0.038000
39.450000	1	0.038375
39.466667	1	0.039500
39.483333	1	0.040375
39.500000	1	0.041625
39.516667	1	0.042375
39.533333	1	0.043000
39.550000	1	0.043750
39.566667	1	0.043875
39.583333	1	0.044625
39.600000	1	0.045500
39.616667	1	0.046125
39.633333	1	0.047000
39.650000	1	0.047750
39.666667	1	0.048375
39.683333	1	0.049125
39.700000	1	0.049875
39.716667	1	0.050125
39.733333	1	0.051125
39.750000	1	0.051875
39.766667	1	0.052500
39.783333	1	0.052875
39.800000	1	0.053625
39.816667	1	0.054625
39.833333	1	0.055500
39.850000	1	0.056250
39.866667	1	0.057250
39.883333	1	0.057750
39.900000	1	0.058750
39.916667	1	0.059875
39.933333	1	0.060375
39.950000	1	0.061375
39.966667	1	0.062500
39.983333	1	0.062875
40.000000	1	0.062625
