File Path	chrom://990-75db15j/XVault/Ultimate_3000/1256/20230531_CMO_stabTest _FP08_FP09.seq/187.smp/RI_1.channel/RI_1.chm
Channel	RI_1

Injection Information:
Data Vault	XVault
Injection	FP08_2_s2
Injection Number	30
Position	BD8
Comment	
Processing Method	
Instrument Method	run_25B_method
Type	Unknown
Status	Finished
Injection Date	02.06.2023
Injection Time	08:32:57
Injection Volume (µl)	20.000
Dilution Factor	1.0000
Weight	1.0000

Chromatogram Data Information:
Time Min. (min)	0.000000
Time Max. (min)	40.000000
Data Points	2401
Detector	RI
Generating Data System	Chromeleon 7.2.5.9507
Exporting Data System	Chromeleon 7.2.5.0
Operator	Instrument Controller
Signal Quantity	Refractive 
Signal Unit	µRIU
Signal Min.	-0.676750
Signal Max.	56.430750
Channel	RI_1
Driver Name	RID520Driver.dll
Channel Type	Evaluation
Min. Step (s)	1
Max. Step (s)	1
Average Step (s)	1

Signal Parameter Information:
Signal Info	

Chromatogram Data:
Time (min)	Step (s)	Value (µRIU)
0.000000	n.a.	-0.026875
0.016667	1	-0.028250
0.033333	1	-0.030000
0.050000	1	-0.031750
0.066667	1	-0.033625
0.083333	1	-0.035250
0.100000	1	-0.036500
0.116667	1	-0.037750
0.133333	1	-0.039125
0.150000	1	-0.040875
0.166667	1	-0.042625
0.183333	1	-0.043875
0.200000	1	-0.045000
0.216667	1	-0.045750
0.233333	1	-0.046750
0.250000	1	-0.047375
0.266667	1	-0.048250
0.283333	1	-0.049375
0.300000	1	-0.052500
0.316667	1	-0.056250
0.333333	1	-0.060375
0.350000	1	-0.061375
0.366667	1	-0.059500
0.383333	1	-0.056000
0.400000	1	-0.052125
0.416667	1	-0.048750
0.433333	1	-0.045625
0.450000	1	-0.043000
0.466667	1	-0.041125
0.483333	1	-0.040125
0.500000	1	-0.041500
0.516667	1	-0.043125
0.533333	1	-0.046125
0.550000	1	-0.047125
0.566667	1	-0.048375
0.583333	1	-0.050125
0.600000	1	-0.050875
0.616667	1	-0.052125
0.633333	1	-0.053000
0.650000	1	-0.053500
0.666667	1	-0.053875
0.683333	1	-0.054375
0.700000	1	-0.054875
0.716667	1	-0.055625
0.733333	1	-0.055875
0.750000	1	-0.056125
0.766667	1	-0.056375
0.783333	1	-0.056000
0.800000	1	-0.056125
0.816667	1	-0.056000
0.833333	1	-0.056250
0.850000	1	-0.056375
0.866667	1	-0.056500
0.883333	1	-0.056875
0.900000	1	-0.057375
0.916667	1	-0.058000
0.933333	1	-0.058750
0.950000	1	-0.058875
0.966667	1	-0.059000
0.983333	1	-0.059750
1.000000	1	-0.061125
1.016667	1	-0.061625
1.033333	1	-0.062250
1.050000	1	-0.062500
1.066667	1	-0.063000
1.083333	1	-0.063375
1.100000	1	-0.064000
1.116667	1	-0.064000
1.133333	1	-0.065125
1.150000	1	-0.065000
1.166667	1	-0.065125
1.183333	1	-0.064875
1.200000	1	-0.065125
1.216667	1	-0.065500
1.233333	1	-0.065750
1.250000	1	-0.065875
1.266667	1	-0.065500
1.283333	1	-0.065125
1.300000	1	-0.065125
1.316667	1	-0.065125
1.333333	1	-0.065000
1.350000	1	-0.065125
1.366667	1	-0.064375
1.383333	1	-0.063625
1.400000	1	-0.063375
1.416667	1	-0.063250
1.433333	1	-0.062375
1.450000	1	-0.062375
1.466667	1	-0.061750
1.483333	1	-0.061250
1.500000	1	-0.060875
1.516667	1	-0.060375
1.533333	1	-0.060125
1.550000	1	-0.059750
1.566667	1	-0.058500
1.583333	1	-0.058250
1.600000	1	-0.057500
1.616667	1	-0.056500
1.633333	1	-0.055500
1.650000	1	-0.054875
1.666667	1	-0.054625
1.683333	1	-0.053500
1.700000	1	-0.053125
1.716667	1	-0.052750
1.733333	1	-0.052375
1.750000	1	-0.052375
1.766667	1	-0.052750
1.783333	1	-0.052375
1.800000	1	-0.051750
1.816667	1	-0.051000
1.833333	1	-0.049875
1.850000	1	-0.049375
1.866667	1	-0.049125
1.883333	1	-0.048250
1.900000	1	-0.047875
1.916667	1	-0.048000
1.933333	1	-0.047625
1.950000	1	-0.046750
1.966667	1	-0.046625
1.983333	1	-0.046250
2.000000	1	-0.045375
2.016667	1	-0.045500
2.033333	1	-0.045000
2.050000	1	-0.044875
2.066667	1	-0.044750
2.083333	1	-0.043750
2.100000	1	-0.043500
2.116667	1	-0.043250
2.133333	1	-0.042625
2.150000	1	-0.042500
2.166667	1	-0.042250
2.183333	1	-0.041500
2.200000	1	-0.041375
2.216667	1	-0.040875
2.233333	1	-0.040625
2.250000	1	-0.040000
2.266667	1	-0.039625
2.283333	1	-0.039125
2.300000	1	-0.038875
2.316667	1	-0.038500
2.333333	1	-0.038375
2.350000	1	-0.038250
2.366667	1	-0.037375
2.383333	1	-0.037125
2.400000	1	-0.036875
2.416667	1	-0.035875
2.433333	1	-0.035500
2.450000	1	-0.034875
2.466667	1	-0.034125
2.483333	1	-0.033000
2.500000	1	-0.033125
2.516667	1	-0.032500
2.533333	1	-0.032375
2.550000	1	-0.032250
2.566667	1	-0.030750
2.583333	1	-0.030125
2.600000	1	-0.030250
2.616667	1	-0.030250
2.633333	1	-0.029375
2.650000	1	-0.029000
2.666667	1	-0.028500
2.683333	1	-0.027625
2.700000	1	-0.027375
2.716667	1	-0.027625
2.733333	1	-0.027250
2.750000	1	-0.027125
2.766667	1	-0.027250
2.783333	1	-0.027250
2.800000	1	-0.026625
2.816667	1	-0.026750
2.833333	1	-0.026500
2.850000	1	-0.026625
2.866667	1	-0.026875
2.883333	1	-0.027250
2.900000	1	-0.027750
2.916667	1	-0.027625
2.933333	1	-0.027000
2.950000	1	-0.027250
2.966667	1	-0.027250
2.983333	1	-0.027000
3.000000	1	-0.026250
3.016667	1	-0.025375
3.033333	1	-0.025750
3.050000	1	-0.025625
3.066667	1	-0.025875
3.083333	1	-0.026375
3.100000	1	-0.026125
3.116667	1	-0.026000
3.133333	1	-0.025625
3.150000	1	-0.024875
3.166667	1	-0.024750
3.183333	1	-0.024000
3.200000	1	-0.024125
3.216667	1	-0.024000
3.233333	1	-0.024250
3.250000	1	-0.024000
3.266667	1	-0.023750
3.283333	1	-0.023500
3.300000	1	-0.023750
3.316667	1	-0.023625
3.333333	1	-0.023625
3.350000	1	-0.023500
3.366667	1	-0.023000
3.383333	1	-0.023125
3.400000	1	-0.023625
3.416667	1	-0.023750
3.433333	1	-0.024250
3.450000	1	-0.025000
3.466667	1	-0.026125
3.483333	1	-0.026625
3.500000	1	-0.028250
3.516667	1	-0.029500
3.533333	1	-0.030000
3.550000	1	-0.031250
3.566667	1	-0.031875
3.583333	1	-0.033250
3.600000	1	-0.035000
3.616667	1	-0.036125
3.633333	1	-0.037125
3.650000	1	-0.038250
3.666667	1	-0.038875
3.683333	1	-0.039625
3.700000	1	-0.040750
3.716667	1	-0.041625
3.733333	1	-0.042750
3.750000	1	-0.042875
3.766667	1	-0.043500
3.783333	1	-0.044125
3.800000	1	-0.044750
3.816667	1	-0.044500
3.833333	1	-0.043750
3.850000	1	-0.043250
3.866667	1	-0.043000
3.883333	1	-0.043250
3.900000	1	-0.042375
3.916667	1	-0.042250
3.933333	1	-0.042375
3.950000	1	-0.042125
3.966667	1	-0.041625
3.983333	1	-0.041250
4.000000	1	-0.041000
4.016667	1	-0.040625
4.033333	1	-0.040125
4.050000	1	-0.040500
4.066667	1	-0.040500
4.083333	1	-0.040750
4.100000	1	-0.041000
4.116667	1	-0.041375
4.133333	1	-0.042125
4.150000	1	-0.043250
4.166667	1	-0.044875
4.183333	1	-0.045375
4.200000	1	-0.046250
4.216667	1	-0.046250
4.233333	1	-0.047000
4.250000	1	-0.048500
4.266667	1	-0.049250
4.283333	1	-0.050250
4.300000	1	-0.051125
4.316667	1	-0.052000
4.333333	1	-0.052375
4.350000	1	-0.053375
4.366667	1	-0.053500
4.383333	1	-0.053875
4.400000	1	-0.054000
4.416667	1	-0.054000
4.433333	1	-0.054125
4.450000	1	-0.053875
4.466667	1	-0.054000
4.483333	1	-0.053875
4.500000	1	-0.053125
4.516667	1	-0.052875
4.533333	1	-0.052250
4.550000	1	-0.051750
4.566667	1	-0.050875
4.583333	1	-0.050500
4.600000	1	-0.049375
4.616667	1	-0.048375
4.633333	1	-0.047750
4.650000	1	-0.046500
4.666667	1	-0.045125
4.683333	1	-0.044000
4.700000	1	-0.042625
4.716667	1	-0.041125
4.733333	1	-0.040125
4.750000	1	-0.039000
4.766667	1	-0.037875
4.783333	1	-0.036000
4.800000	1	-0.034000
4.816667	1	-0.032000
4.833333	1	-0.030750
4.850000	1	-0.028875
4.866667	1	-0.027625
4.883333	1	-0.025625
4.900000	1	-0.023875
4.916667	1	-0.021875
4.933333	1	-0.019875
4.950000	1	-0.018250
4.966667	1	-0.016375
4.983333	1	-0.015125
5.000000	1	-0.013000
5.016667	1	-0.010875
5.033333	1	-0.008750
5.050000	1	-0.006750
5.066667	1	-0.004875
5.083333	1	-0.003000
5.100000	1	-0.001500
5.116667	1	0.000000
5.133333	1	0.001875
5.150000	1	0.003250
5.166667	1	0.004875
5.183333	1	0.007125
5.200000	1	0.008500
5.216667	1	0.010750
5.233333	1	0.012750
5.250000	1	0.014625
5.266667	1	0.016750
5.283333	1	0.018125
5.300000	1	0.020000
5.316667	1	0.020875
5.333333	1	0.021875
5.350000	1	0.024000
5.366667	1	0.025500
5.383333	1	0.027125
5.400000	1	0.028625
5.416667	1	0.030000
5.433333	1	0.031000
5.450000	1	0.031625
5.466667	1	0.032750
5.483333	1	0.033250
5.500000	1	0.033500
5.516667	1	0.034000
5.533333	1	0.034500
5.550000	1	0.034375
5.566667	1	0.035125
5.583333	1	0.035875
5.600000	1	0.036000
5.616667	1	0.036250
5.633333	1	0.036000
5.650000	1	0.035500
5.666667	1	0.035125
5.683333	1	0.034750
5.700000	1	0.034625
5.716667	1	0.034000
5.733333	1	0.033500
5.750000	1	0.033375
5.766667	1	0.033750
5.783333	1	0.033125
5.800000	1	0.032500
5.816667	1	0.032000
5.833333	1	0.031375
5.850000	1	0.031250
5.866667	1	0.030375
5.883333	1	0.030500
5.900000	1	0.029500
5.916667	1	0.028875
5.933333	1	0.028000
5.950000	1	0.027250
5.966667	1	0.026500
5.983333	1	0.026250
6.000000	1	0.025500
6.016667	1	0.024875
6.033333	1	0.024625
6.050000	1	0.024750
6.066667	1	0.024625
6.083333	1	0.023000
6.100000	1	0.022375
6.116667	1	0.022250
6.133333	1	0.021625
6.150000	1	0.021125
6.166667	1	0.021250
6.183333	1	0.020875
6.200000	1	0.021750
6.216667	1	0.022125
6.233333	1	0.023000
6.250000	1	0.023750
6.266667	1	0.024375
6.283333	1	0.024875
6.300000	1	0.025625
6.316667	1	0.026875
6.333333	1	0.028250
6.350000	1	0.030000
6.366667	1	0.031125
6.383333	1	0.032000
6.400000	1	0.033875
6.416667	1	0.035625
6.433333	1	0.037125
6.450000	1	0.038875
6.466667	1	0.040500
6.483333	1	0.042375
6.500000	1	0.044500
6.516667	1	0.046250
6.533333	1	0.047625
6.550000	1	0.049500
6.566667	1	0.051625
6.583333	1	0.054375
6.600000	1	0.056500
6.616667	1	0.058250
6.633333	1	0.059500
6.650000	1	0.060750
6.666667	1	0.062500
6.683333	1	0.064125
6.700000	1	0.064750
6.716667	1	0.065875
6.733333	1	0.067500
6.750000	1	0.068625
6.766667	1	0.070250
6.783333	1	0.070750
6.800000	1	0.071000
6.816667	1	0.071250
6.833333	1	0.071000
6.850000	1	0.070750
6.866667	1	0.070375
6.883333	1	0.069500
6.900000	1	0.069625
6.916667	1	0.069000
6.933333	1	0.068750
6.950000	1	0.067625
6.966667	1	0.067125
6.983333	1	0.066250
7.000000	1	0.065000
7.016667	1	0.062625
7.033333	1	0.061625
7.050000	1	0.059500
7.066667	1	0.058375
7.083333	1	0.056125
7.100000	1	0.054500
7.116667	1	0.052125
7.133333	1	0.050250
7.150000	1	0.047750
7.166667	1	0.044875
7.183333	1	0.042125
7.200000	1	0.039375
7.216667	1	0.036250
7.233333	1	0.033750
7.250000	1	0.030625
7.266667	1	0.027125
7.283333	1	0.024625
7.300000	1	0.021875
7.316667	1	0.019250
7.333333	1	0.016125
7.350000	1	0.014000
7.366667	1	0.010625
7.383333	1	0.008375
7.400000	1	0.005875
7.416667	1	0.003125
7.433333	1	0.000875
7.450000	1	-0.001625
7.466667	1	-0.004125
7.483333	1	-0.006000
7.500000	1	-0.007750
7.516667	1	-0.009500
7.533333	1	-0.011125
7.550000	1	-0.012875
7.566667	1	-0.014875
7.583333	1	-0.016375
7.600000	1	-0.018250
7.616667	1	-0.020250
7.633333	1	-0.021875
7.650000	1	-0.023500
7.666667	1	-0.024625
7.683333	1	-0.026375
7.700000	1	-0.027875
7.716667	1	-0.029250
7.733333	1	-0.030250
7.750000	1	-0.031250
7.766667	1	-0.032250
7.783333	1	-0.033375
7.800000	1	-0.033250
7.816667	1	-0.033750
7.833333	1	-0.034250
7.850000	1	-0.034875
7.866667	1	-0.035500
7.883333	1	-0.035000
7.900000	1	-0.035625
7.916667	1	-0.035500
7.933333	1	-0.035375
7.950000	1	-0.035625
7.966667	1	-0.035500
7.983333	1	-0.035125
8.000000	1	-0.034625
8.016667	1	-0.034500
8.033333	1	-0.035125
8.050000	1	-0.035500
8.066667	1	-0.035250
8.083333	1	-0.034875
8.100000	1	-0.034500
8.116667	1	-0.033875
8.133333	1	-0.033375
8.150000	1	-0.032250
8.166667	1	-0.031250
8.183333	1	-0.030125
8.200000	1	-0.029875
8.216667	1	-0.029000
8.233333	1	-0.027750
8.250000	1	-0.027000
8.266667	1	-0.026125
8.283333	1	-0.024875
8.300000	1	-0.024500
8.316667	1	-0.023375
8.333333	1	-0.022000
8.350000	1	-0.021250
8.366667	1	-0.020500
8.383333	1	-0.019375
8.400000	1	-0.017750
8.416667	1	-0.016875
8.433333	1	-0.015875
8.450000	1	-0.014750
8.466667	1	-0.013750
8.483333	1	-0.012250
8.500000	1	-0.010625
8.516667	1	-0.009375
8.533333	1	-0.007750
8.550000	1	-0.005875
8.566667	1	-0.003750
8.583333	1	-0.002000
8.600000	1	-0.000375
8.616667	1	0.001875
8.633333	1	0.003875
8.650000	1	0.005625
8.666667	1	0.008375
8.683333	1	0.010250
8.700000	1	0.013000
8.716667	1	0.015125
8.733333	1	0.017625
8.750000	1	0.020125
8.766667	1	0.021875
8.783333	1	0.024375
8.800000	1	0.026000
8.816667	1	0.029000
8.833333	1	0.031000
8.850000	1	0.032875
8.866667	1	0.034250
8.883333	1	0.036000
8.900000	1	0.037375
8.916667	1	0.038250
8.933333	1	0.039500
8.950000	1	0.040125
8.966667	1	0.041000
8.983333	1	0.040875
9.000000	1	0.040750
9.016667	1	0.040375
9.033333	1	0.040000
9.050000	1	0.038750
9.066667	1	0.038750
9.083333	1	0.038125
9.100000	1	0.037000
9.116667	1	0.036000
9.133333	1	0.034875
9.150000	1	0.033625
9.166667	1	0.032375
9.183333	1	0.031000
9.200000	1	0.029875
9.216667	1	0.029125
9.233333	1	0.028375
9.250000	1	0.027875
9.266667	1	0.027625
9.283333	1	0.027000
9.300000	1	0.026750
9.316667	1	0.025875
9.333333	1	0.025375
9.350000	1	0.025625
9.366667	1	0.026000
9.383333	1	0.026500
9.400000	1	0.027375
9.416667	1	0.028750
9.433333	1	0.029500
9.450000	1	0.032250
9.466667	1	0.035625
9.483333	1	0.039625
9.500000	1	0.043625
9.516667	1	0.049250
9.533333	1	0.056375
9.550000	1	0.064125
9.566667	1	0.073000
9.583333	1	0.082750
9.600000	1	0.094000
9.616667	1	0.106875
9.633333	1	0.122250
9.650000	1	0.138875
9.666667	1	0.156875
9.683333	1	0.178000
9.700000	1	0.200125
9.716667	1	0.223250
9.733333	1	0.247500
9.750000	1	0.271875
9.766667	1	0.295000
9.783333	1	0.316000
9.800000	1	0.332250
9.816667	1	0.344000
9.833333	1	0.351375
9.850000	1	0.352125
9.866667	1	0.344875
9.883333	1	0.329875
9.900000	1	0.308375
9.916667	1	0.288500
9.933333	1	0.292250
9.950000	1	0.355500
9.966667	1	0.529750
9.983333	1	0.873250
10.000000	1	1.447000
10.016667	1	2.306375
10.033333	1	3.494375
10.050000	1	5.041375
10.066667	1	6.962875
10.083333	1	9.262250
10.100000	1	11.929750
10.116667	1	14.941750
10.133333	1	18.255500
10.150000	1	21.811500
10.166667	1	25.526125
10.183333	1	29.285500
10.200000	1	32.943375
10.216667	1	36.323125
10.233333	1	39.223500
10.250000	1	41.435625
10.266667	1	42.781000
10.283333	1	43.139125
10.300000	1	42.478125
10.316667	1	40.867875
10.333333	1	38.469875
10.350000	1	35.504125
10.366667	1	32.212875
10.383333	1	28.825125
10.400000	1	25.521875
10.416667	1	22.430500
10.433333	1	19.627125
10.450000	1	17.143125
10.466667	1	14.976625
10.483333	1	13.104750
10.500000	1	11.494625
10.516667	1	10.113000
10.533333	1	8.926000
10.550000	1	7.904750
10.566667	1	7.023875
10.583333	1	6.264750
10.600000	1	5.610875
10.616667	1	5.048750
10.633333	1	4.566250
10.650000	1	4.153000
10.666667	1	3.799000
10.683333	1	3.495500
10.700000	1	3.233625
10.716667	1	3.006625
10.733333	1	2.808375
10.750000	1	2.633750
10.766667	1	2.481500
10.783333	1	2.347125
10.800000	1	2.220750
10.816667	1	2.107125
10.833333	1	2.004000
10.850000	1	1.911125
10.866667	1	1.826000
10.883333	1	1.748625
10.900000	1	1.677125
10.916667	1	1.611750
10.933333	1	1.552125
10.950000	1	1.497625
10.966667	1	1.446125
10.983333	1	1.397750
11.000000	1	1.353000
11.016667	1	1.311500
11.033333	1	1.273125
11.050000	1	1.238125
11.066667	1	1.204500
11.083333	1	1.173625
11.100000	1	1.145125
11.116667	1	1.118250
11.133333	1	1.093250
11.150000	1	1.069625
11.166667	1	1.048375
11.183333	1	1.027875
11.200000	1	1.009125
11.216667	1	0.991000
11.233333	1	0.974125
11.250000	1	0.958500
11.266667	1	0.943000
11.283333	1	0.928875
11.300000	1	0.915500
11.316667	1	0.902750
11.333333	1	0.889625
11.350000	1	0.877500
11.366667	1	0.865375
11.383333	1	0.853750
11.400000	1	0.842750
11.416667	1	0.832750
11.433333	1	0.824000
11.450000	1	0.815125
11.466667	1	0.809000
11.483333	1	0.803000
11.500000	1	0.796750
11.516667	1	0.791750
11.533333	1	0.788250
11.550000	1	0.785000
11.566667	1	0.782625
11.583333	1	0.781000
11.600000	1	0.779500
11.616667	1	0.778750
11.633333	1	0.778500
11.650000	1	0.779375
11.666667	1	0.779875
11.683333	1	0.780125
11.700000	1	0.779000
11.716667	1	0.778125
11.733333	1	0.776875
11.750000	1	0.775250
11.766667	1	0.774625
11.783333	1	0.774125
11.800000	1	0.774000
11.816667	1	0.774250
11.833333	1	0.775625
11.850000	1	0.779500
11.866667	1	0.783500
11.883333	1	0.789125
11.900000	1	0.796125
11.916667	1	0.805000
11.933333	1	0.815375
11.950000	1	0.828125
11.966667	1	0.843000
11.983333	1	0.861500
12.000000	1	0.883500
12.016667	1	0.908125
12.033333	1	0.936625
12.050000	1	0.969000
12.066667	1	1.006250
12.083333	1	1.050125
12.100000	1	1.101500
12.116667	1	1.162125
12.133333	1	1.233250
12.150000	1	1.319500
12.166667	1	1.422375
12.183333	1	1.543375
12.200000	1	1.685000
12.216667	1	1.849125
12.233333	1	2.036250
12.250000	1	2.248750
12.266667	1	2.485500
12.283333	1	2.750250
12.300000	1	3.043750
12.316667	1	3.368250
12.333333	1	3.724750
12.350000	1	4.116500
12.366667	1	4.545500
12.383333	1	5.014250
12.400000	1	5.523250
12.416667	1	6.071625
12.433333	1	6.655000
12.450000	1	7.267625
12.466667	1	7.897625
12.483333	1	8.529125
12.500000	1	9.143625
12.516667	1	9.716000
12.533333	1	10.223250
12.550000	1	10.642625
12.566667	1	10.961625
12.583333	1	11.175500
12.600000	1	11.288125
12.616667	1	11.308375
12.633333	1	11.248625
12.650000	1	11.124000
12.666667	1	10.948000
12.683333	1	10.731625
12.700000	1	10.486500
12.716667	1	10.219125
12.733333	1	9.938000
12.750000	1	9.648875
12.766667	1	9.356125
12.783333	1	9.065250
12.800000	1	8.778125
12.816667	1	8.497250
12.833333	1	8.224125
12.850000	1	7.958625
12.866667	1	7.701000
12.883333	1	7.448750
12.900000	1	7.200875
12.916667	1	6.955750
12.933333	1	6.711375
12.950000	1	6.467500
12.966667	1	6.220625
12.983333	1	5.969375
13.000000	1	5.711500
13.016667	1	5.443375
13.033333	1	5.162250
13.050000	1	4.864875
13.066667	1	4.548625
13.083333	1	4.211000
13.100000	1	3.850500
13.116667	1	3.470625
13.133333	1	3.083875
13.150000	1	2.709500
13.166667	1	2.368625
13.183333	1	2.075500
13.200000	1	1.836250
13.216667	1	1.645125
13.233333	1	1.494125
13.250000	1	1.373500
13.266667	1	1.276500
13.283333	1	1.196250
13.300000	1	1.129375
13.316667	1	1.072125
13.333333	1	1.022500
13.350000	1	0.979125
13.366667	1	0.941250
13.383333	1	0.906875
13.400000	1	0.876750
13.416667	1	0.849000
13.433333	1	0.824125
13.450000	1	0.801750
13.466667	1	0.782125
13.483333	1	0.764250
13.500000	1	0.749625
13.516667	1	0.736250
13.533333	1	0.725000
13.550000	1	0.716000
13.566667	1	0.708750
13.583333	1	0.703875
13.600000	1	0.700500
13.616667	1	0.697875
13.633333	1	0.696125
13.650000	1	0.694250
13.666667	1	0.691750
13.683333	1	0.689125
13.700000	1	0.686125
13.716667	1	0.681250
13.733333	1	0.676125
13.750000	1	0.669500
13.766667	1	0.661375
13.783333	1	0.652250
13.800000	1	0.642625
13.816667	1	0.632125
13.833333	1	0.621125
13.850000	1	0.609625
13.866667	1	0.597750
13.883333	1	0.586000
13.900000	1	0.574250
13.916667	1	0.562875
13.933333	1	0.551875
13.950000	1	0.540625
13.966667	1	0.529500
13.983333	1	0.519500
14.000000	1	0.510375
14.016667	1	0.502250
14.033333	1	0.495000
14.050000	1	0.488875
14.066667	1	0.483625
14.083333	1	0.480375
14.100000	1	0.477375
14.116667	1	0.475250
14.133333	1	0.475250
14.150000	1	0.477000
14.166667	1	0.480375
14.183333	1	0.485750
14.200000	1	0.493250
14.216667	1	0.504125
14.233333	1	0.517750
14.250000	1	0.535875
14.266667	1	0.558000
14.283333	1	0.586125
14.300000	1	0.620500
14.316667	1	0.662500
14.333333	1	0.713500
14.350000	1	0.774750
14.366667	1	0.847125
14.383333	1	0.930875
14.400000	1	1.029750
14.416667	1	1.145125
14.433333	1	1.278875
14.450000	1	1.433125
14.466667	1	1.609750
14.483333	1	1.810750
14.500000	1	2.038750
14.516667	1	2.298125
14.533333	1	2.593000
14.550000	1	2.930125
14.566667	1	3.316125
14.583333	1	3.760500
14.600000	1	4.275125
14.616667	1	4.877875
14.633333	1	5.591875
14.650000	1	6.443125
14.666667	1	7.465250
14.683333	1	8.695500
14.700000	1	10.174875
14.716667	1	11.940250
14.733333	1	14.027000
14.750000	1	16.461750
14.766667	1	19.254500
14.783333	1	22.393875
14.800000	1	25.845875
14.816667	1	29.556125
14.833333	1	33.439875
14.850000	1	37.391000
14.866667	1	41.283875
14.883333	1	44.980375
14.900000	1	48.342250
14.916667	1	51.238625
14.933333	1	53.560125
14.950000	1	55.225875
14.966667	1	56.187000
14.983333	1	56.430750
15.000000	1	55.978125
15.016667	1	54.875625
15.033333	1	53.193125
15.050000	1	51.015875
15.066667	1	48.441000
15.083333	1	45.569500
15.100000	1	42.502625
15.116667	1	39.336250
15.133333	1	36.148125
15.150000	1	33.004750
15.166667	1	29.962125
15.183333	1	27.063250
15.200000	1	24.336000
15.216667	1	21.798500
15.233333	1	19.458500
15.250000	1	17.319500
15.266667	1	15.379500
15.283333	1	13.630750
15.300000	1	12.065625
15.316667	1	10.672125
15.333333	1	9.437000
15.350000	1	8.348625
15.366667	1	7.394000
15.383333	1	6.558250
15.400000	1	5.830250
15.416667	1	5.197875
15.433333	1	4.649750
15.450000	1	4.175625
15.466667	1	3.768250
15.483333	1	3.418750
15.500000	1	3.120500
15.516667	1	2.866875
15.533333	1	2.651375
15.550000	1	2.469500
15.566667	1	2.315750
15.583333	1	2.185875
15.600000	1	2.075500
15.616667	1	1.981125
15.633333	1	1.898625
15.650000	1	1.824750
15.666667	1	1.758000
15.683333	1	1.696500
15.700000	1	1.637250
15.716667	1	1.579750
15.733333	1	1.523750
15.750000	1	1.469250
15.766667	1	1.416250
15.783333	1	1.364000
15.800000	1	1.313625
15.816667	1	1.265250
15.833333	1	1.218250
15.850000	1	1.173250
15.866667	1	1.130500
15.883333	1	1.090625
15.900000	1	1.052125
15.916667	1	1.016750
15.933333	1	0.984500
15.950000	1	0.954250
15.966667	1	0.926500
15.983333	1	0.901625
16.000000	1	0.878750
16.016667	1	0.858000
16.033333	1	0.838875
16.050000	1	0.822125
16.066667	1	0.807750
16.083333	1	0.795250
16.100000	1	0.784750
16.116667	1	0.776000
16.133333	1	0.768500
16.150000	1	0.763000
16.166667	1	0.758375
16.183333	1	0.754625
16.200000	1	0.751750
16.216667	1	0.749500
16.233333	1	0.746750
16.250000	1	0.744625
16.266667	1	0.742500
16.283333	1	0.740250
16.300000	1	0.737750
16.316667	1	0.735250
16.333333	1	0.732250
16.350000	1	0.729125
16.366667	1	0.726500
16.383333	1	0.724250
16.400000	1	0.722250
16.416667	1	0.720500
16.433333	1	0.719125
16.450000	1	0.717500
16.466667	1	0.717125
16.483333	1	0.716875
16.500000	1	0.716750
16.516667	1	0.717500
16.533333	1	0.719125
16.550000	1	0.721375
16.566667	1	0.724500
16.583333	1	0.727875
16.600000	1	0.731375
16.616667	1	0.735375
16.633333	1	0.740000
16.650000	1	0.744750
16.666667	1	0.750250
16.683333	1	0.755750
16.700000	1	0.761000
16.716667	1	0.765375
16.733333	1	0.770625
16.750000	1	0.775750
16.766667	1	0.781250
16.783333	1	0.785250
16.800000	1	0.788750
16.816667	1	0.791375
16.833333	1	0.792625
16.850000	1	0.793250
16.866667	1	0.792750
16.883333	1	0.792250
16.900000	1	0.791375
16.916667	1	0.789500
16.933333	1	0.787375
16.950000	1	0.786000
16.966667	1	0.784500
16.983333	1	0.783875
17.000000	1	0.784125
17.016667	1	0.784750
17.033333	1	0.785000
17.050000	1	0.787000
17.066667	1	0.788500
17.083333	1	0.790375
17.100000	1	0.792500
17.116667	1	0.793875
17.133333	1	0.794250
17.150000	1	0.794875
17.166667	1	0.793500
17.183333	1	0.792000
17.200000	1	0.789250
17.216667	1	0.785000
17.233333	1	0.780000
17.250000	1	0.774250
17.266667	1	0.768000
17.283333	1	0.760375
17.300000	1	0.752750
17.316667	1	0.744625
17.333333	1	0.736500
17.350000	1	0.727750
17.366667	1	0.719750
17.383333	1	0.712125
17.400000	1	0.704250
17.416667	1	0.697375
17.433333	1	0.691000
17.450000	1	0.685625
17.466667	1	0.681125
17.483333	1	0.678000
17.500000	1	0.676125
17.516667	1	0.675875
17.533333	1	0.676250
17.550000	1	0.677625
17.566667	1	0.681375
17.583333	1	0.686375
17.600000	1	0.692625
17.616667	1	0.700375
17.633333	1	0.708375
17.650000	1	0.717750
17.666667	1	0.728625
17.683333	1	0.740750
17.700000	1	0.753000
17.716667	1	0.765625
17.733333	1	0.777875
17.750000	1	0.791125
17.766667	1	0.804125
17.783333	1	0.816625
17.800000	1	0.828875
17.816667	1	0.840625
17.833333	1	0.850625
17.850000	1	0.860000
17.866667	1	0.866875
17.883333	1	0.872125
17.900000	1	0.876125
17.916667	1	0.878125
17.933333	1	0.877750
17.950000	1	0.875625
17.966667	1	0.871875
17.983333	1	0.866500
18.000000	1	0.859625
18.016667	1	0.850750
18.033333	1	0.840500
18.050000	1	0.829500
18.066667	1	0.818125
18.083333	1	0.804875
18.100000	1	0.791875
18.116667	1	0.778375
18.133333	1	0.765125
18.150000	1	0.751250
18.166667	1	0.738250
18.183333	1	0.725250
18.200000	1	0.713000
18.216667	1	0.700250
18.233333	1	0.689250
18.250000	1	0.678000
18.266667	1	0.667500
18.283333	1	0.658250
18.300000	1	0.649125
18.316667	1	0.641000
18.333333	1	0.635125
18.350000	1	0.629500
18.366667	1	0.624625
18.383333	1	0.621250
18.400000	1	0.617750
18.416667	1	0.614500
18.433333	1	0.611750
18.450000	1	0.610250
18.466667	1	0.608500
18.483333	1	0.607125
18.500000	1	0.607125
18.516667	1	0.607500
18.533333	1	0.607375
18.550000	1	0.607625
18.566667	1	0.609125
18.583333	1	0.610750
18.600000	1	0.612625
18.616667	1	0.614625
18.633333	1	0.617625
18.650000	1	0.620625
18.666667	1	0.624375
18.683333	1	0.628125
18.700000	1	0.632875
18.716667	1	0.639000
18.733333	1	0.645125
18.750000	1	0.652625
18.766667	1	0.660250
18.783333	1	0.668375
18.800000	1	0.677375
18.816667	1	0.685875
18.833333	1	0.695375
18.850000	1	0.706250
18.866667	1	0.716875
18.883333	1	0.728875
18.900000	1	0.741750
18.916667	1	0.755625
18.933333	1	0.771250
18.950000	1	0.788125
18.966667	1	0.808125
18.983333	1	0.829500
19.000000	1	0.852875
19.016667	1	0.878625
19.033333	1	0.906750
19.050000	1	0.938125
19.066667	1	0.971000
19.083333	1	1.005875
19.100000	1	1.042500
19.116667	1	1.080125
19.133333	1	1.117875
19.150000	1	1.155250
19.166667	1	1.191375
19.183333	1	1.226125
19.200000	1	1.257875
19.216667	1	1.285875
19.233333	1	1.310000
19.250000	1	1.329125
19.266667	1	1.342625
19.283333	1	1.350375
19.300000	1	1.352250
19.316667	1	1.348000
19.333333	1	1.338375
19.350000	1	1.322500
19.366667	1	1.302375
19.383333	1	1.277000
19.400000	1	1.247875
19.416667	1	1.214500
19.433333	1	1.178375
19.450000	1	1.139750
19.466667	1	1.099750
19.483333	1	1.058750
19.500000	1	1.018375
19.516667	1	0.977875
19.533333	1	0.937625
19.550000	1	0.898250
19.566667	1	0.861250
19.583333	1	0.826375
19.600000	1	0.793625
19.616667	1	0.763250
19.633333	1	0.735875
19.650000	1	0.711500
19.666667	1	0.690250
19.683333	1	0.672000
19.700000	1	0.656750
19.716667	1	0.644875
19.733333	1	0.636250
19.750000	1	0.631250
19.766667	1	0.629125
19.783333	1	0.630500
19.800000	1	0.634750
19.816667	1	0.641375
19.833333	1	0.650750
19.850000	1	0.662250
19.866667	1	0.675750
19.883333	1	0.690625
19.900000	1	0.706750
19.916667	1	0.722750
19.933333	1	0.738625
19.950000	1	0.754875
19.966667	1	0.770000
19.983333	1	0.784375
20.000000	1	0.796750
20.016667	1	0.807375
20.033333	1	0.816750
20.050000	1	0.823500
20.066667	1	0.830000
20.083333	1	0.835000
20.100000	1	0.838500
20.116667	1	0.841500
20.133333	1	0.843000
20.150000	1	0.844000
20.166667	1	0.845500
20.183333	1	0.846750
20.200000	1	0.848125
20.216667	1	0.850750
20.233333	1	0.855500
20.250000	1	0.861750
20.266667	1	0.869250
20.283333	1	0.879125
20.300000	1	0.890625
20.316667	1	0.903500
20.333333	1	0.917750
20.350000	1	0.934750
20.366667	1	0.953250
20.383333	1	0.971750
20.400000	1	0.991375
20.416667	1	1.010625
20.433333	1	1.029125
20.450000	1	1.046125
20.466667	1	1.062250
20.483333	1	1.076250
20.500000	1	1.088125
20.516667	1	1.097750
20.533333	1	1.106125
20.550000	1	1.111750
20.566667	1	1.116250
20.583333	1	1.118625
20.600000	1	1.121000
20.616667	1	1.123500
20.633333	1	1.127500
20.650000	1	1.133250
20.666667	1	1.143000
20.683333	1	1.156125
20.700000	1	1.174750
20.716667	1	1.200125
20.733333	1	1.233125
20.750000	1	1.273250
20.766667	1	1.321625
20.783333	1	1.378375
20.800000	1	1.443750
20.816667	1	1.515125
20.833333	1	1.591750
20.850000	1	1.672375
20.866667	1	1.755875
20.883333	1	1.838000
20.900000	1	1.917750
20.916667	1	1.991375
20.933333	1	2.056500
20.950000	1	2.112250
20.966667	1	2.155250
20.983333	1	2.184125
21.000000	1	2.199500
21.016667	1	2.198750
21.033333	1	2.182750
21.050000	1	2.152250
21.066667	1	2.107250
21.083333	1	2.051000
21.100000	1	1.983625
21.116667	1	1.907375
21.133333	1	1.824375
21.150000	1	1.735875
21.166667	1	1.644750
21.183333	1	1.551250
21.200000	1	1.458500
21.216667	1	1.367625
21.233333	1	1.278875
21.250000	1	1.193875
21.266667	1	1.113500
21.283333	1	1.037875
21.300000	1	0.967875
21.316667	1	0.902750
21.333333	1	0.842250
21.350000	1	0.787625
21.366667	1	0.737875
21.383333	1	0.693000
21.400000	1	0.652750
21.416667	1	0.615875
21.433333	1	0.583000
21.450000	1	0.554000
21.466667	1	0.528625
21.483333	1	0.506000
21.500000	1	0.486000
21.516667	1	0.467750
21.533333	1	0.452125
21.550000	1	0.437750
21.566667	1	0.425625
21.583333	1	0.415125
21.600000	1	0.405000
21.616667	1	0.396125
21.633333	1	0.388250
21.650000	1	0.381125
21.666667	1	0.374875
21.683333	1	0.369250
21.700000	1	0.364375
21.716667	1	0.359250
21.733333	1	0.354750
21.750000	1	0.351250
21.766667	1	0.347875
21.783333	1	0.345375
21.800000	1	0.342375
21.816667	1	0.340500
21.833333	1	0.339125
21.850000	1	0.338125
21.866667	1	0.337500
21.883333	1	0.337000
21.900000	1	0.337375
21.916667	1	0.338500
21.933333	1	0.339375
21.950000	1	0.341125
21.966667	1	0.342250
21.983333	1	0.343250
22.000000	1	0.343500
22.016667	1	0.344500
22.033333	1	0.345250
22.050000	1	0.345875
22.066667	1	0.345500
22.083333	1	0.345375
22.100000	1	0.345625
22.116667	1	0.344625
22.133333	1	0.343625
22.150000	1	0.343250
22.166667	1	0.341750
22.183333	1	0.341375
22.200000	1	0.340125
22.216667	1	0.339000
22.233333	1	0.338500
22.250000	1	0.337750
22.266667	1	0.337750
22.283333	1	0.338375
22.300000	1	0.338750
22.316667	1	0.340000
22.333333	1	0.341625
22.350000	1	0.344000
22.366667	1	0.346625
22.383333	1	0.349750
22.400000	1	0.353250
22.416667	1	0.357375
22.433333	1	0.362250
22.450000	1	0.367875
22.466667	1	0.373125
22.483333	1	0.379000
22.500000	1	0.384375
22.516667	1	0.390375
22.533333	1	0.396125
22.550000	1	0.402500
22.566667	1	0.408000
22.583333	1	0.414750
22.600000	1	0.420250
22.616667	1	0.425750
22.633333	1	0.431375
22.650000	1	0.436500
22.666667	1	0.441500
22.683333	1	0.445625
22.700000	1	0.449375
22.716667	1	0.452000
22.733333	1	0.454875
22.750000	1	0.456625
22.766667	1	0.458125
22.783333	1	0.458750
22.800000	1	0.458750
22.816667	1	0.457500
22.833333	1	0.456250
22.850000	1	0.454000
22.866667	1	0.451375
22.883333	1	0.449000
22.900000	1	0.445375
22.916667	1	0.441625
22.933333	1	0.438000
22.950000	1	0.433500
22.966667	1	0.429500
22.983333	1	0.426125
23.000000	1	0.422000
23.016667	1	0.418250
23.033333	1	0.415125
23.050000	1	0.412000
23.066667	1	0.409750
23.083333	1	0.408000
23.100000	1	0.407000
23.116667	1	0.406875
23.133333	1	0.408000
23.150000	1	0.408875
23.166667	1	0.411750
23.183333	1	0.415250
23.200000	1	0.419625
23.216667	1	0.425625
23.233333	1	0.433000
23.250000	1	0.442125
23.266667	1	0.451875
23.283333	1	0.464125
23.300000	1	0.476875
23.316667	1	0.492000
23.333333	1	0.509125
23.350000	1	0.528375
23.366667	1	0.549500
23.383333	1	0.573375
23.400000	1	0.599250
23.416667	1	0.628250
23.433333	1	0.661625
23.450000	1	0.698500
23.466667	1	0.739375
23.483333	1	0.784125
23.500000	1	0.834500
23.516667	1	0.891500
23.533333	1	0.954375
23.550000	1	1.026125
23.566667	1	1.105750
23.583333	1	1.195250
23.600000	1	1.295125
23.616667	1	1.406500
23.633333	1	1.529750
23.650000	1	1.665625
23.666667	1	1.814375
23.683333	1	1.975375
23.700000	1	2.147875
23.716667	1	2.332125
23.733333	1	2.525125
23.750000	1	2.725875
23.766667	1	2.931875
23.783333	1	3.139375
23.800000	1	3.344750
23.816667	1	3.544625
23.833333	1	3.737375
23.850000	1	3.917250
23.866667	1	4.080625
23.883333	1	4.224125
23.900000	1	4.345750
23.916667	1	4.441875
23.933333	1	4.510375
23.950000	1	4.551125
23.966667	1	4.562000
23.983333	1	4.544250
24.000000	1	4.498500
24.016667	1	4.426000
24.033333	1	4.328875
24.050000	1	4.210500
24.066667	1	4.072750
24.083333	1	3.919625
24.100000	1	3.753000
24.116667	1	3.576125
24.133333	1	3.392000
24.150000	1	3.204500
24.166667	1	3.016500
24.183333	1	2.829500
24.200000	1	2.646625
24.216667	1	2.469375
24.233333	1	2.299625
24.250000	1	2.138500
24.266667	1	1.986625
24.283333	1	1.844250
24.300000	1	1.712875
24.316667	1	1.590500
24.333333	1	1.478375
24.350000	1	1.376625
24.366667	1	1.284000
24.383333	1	1.200500
24.400000	1	1.125750
24.416667	1	1.058000
24.433333	1	0.997750
24.450000	1	0.943625
24.466667	1	0.895875
24.483333	1	0.852750
24.500000	1	0.813500
24.516667	1	0.778375
24.533333	1	0.746375
24.550000	1	0.717375
24.566667	1	0.690000
24.583333	1	0.665625
24.600000	1	0.642125
24.616667	1	0.620000
24.633333	1	0.599375
24.650000	1	0.579500
24.666667	1	0.559250
24.683333	1	0.539625
24.700000	1	0.520500
24.716667	1	0.501750
24.733333	1	0.483250
24.750000	1	0.465250
24.766667	1	0.446875
24.783333	1	0.429875
24.800000	1	0.411375
24.816667	1	0.393875
24.833333	1	0.376750
24.850000	1	0.361125
24.866667	1	0.345375
24.883333	1	0.330625
24.900000	1	0.315875
24.916667	1	0.301625
24.933333	1	0.288125
24.950000	1	0.275625
24.966667	1	0.264375
24.983333	1	0.253625
25.000000	1	0.243625
25.016667	1	0.233625
25.033333	1	0.225250
25.050000	1	0.217625
25.066667	1	0.210250
25.083333	1	0.204250
25.100000	1	0.199000
25.116667	1	0.194500
25.133333	1	0.190875
25.150000	1	0.187750
25.166667	1	0.185000
25.183333	1	0.183250
25.200000	1	0.182375
25.216667	1	0.181875
25.233333	1	0.181625
25.250000	1	0.182625
25.266667	1	0.183750
25.283333	1	0.185000
25.300000	1	0.187625
25.316667	1	0.190375
25.333333	1	0.193125
25.350000	1	0.195625
25.366667	1	0.197750
25.383333	1	0.201000
25.400000	1	0.204125
25.416667	1	0.206625
25.433333	1	0.210375
25.450000	1	0.213625
25.466667	1	0.216750
25.483333	1	0.219750
25.500000	1	0.222125
25.516667	1	0.225375
25.533333	1	0.227500
25.550000	1	0.229875
25.566667	1	0.231875
25.583333	1	0.233000
25.600000	1	0.234250
25.616667	1	0.235875
25.633333	1	0.237375
25.650000	1	0.238250
25.666667	1	0.238875
25.683333	1	0.239750
25.700000	1	0.240375
25.716667	1	0.240625
25.733333	1	0.240625
25.750000	1	0.240250
25.766667	1	0.240000
25.783333	1	0.239875
25.800000	1	0.239125
25.816667	1	0.238500
25.833333	1	0.236875
25.850000	1	0.235625
25.866667	1	0.234125
25.883333	1	0.232250
25.900000	1	0.230125
25.916667	1	0.227250
25.933333	1	0.224250
25.950000	1	0.221000
25.966667	1	0.217000
25.983333	1	0.213625
26.000000	1	0.209375
26.016667	1	0.205000
26.033333	1	0.199500
26.050000	1	0.194375
26.066667	1	0.189500
26.083333	1	0.184375
26.100000	1	0.179500
26.116667	1	0.173750
26.133333	1	0.168250
26.150000	1	0.162875
26.166667	1	0.158625
26.183333	1	0.154250
26.200000	1	0.149625
26.216667	1	0.146250
26.233333	1	0.143500
26.250000	1	0.141125
26.266667	1	0.139000
26.283333	1	0.137250
26.300000	1	0.136125
26.316667	1	0.135750
26.333333	1	0.136125
26.350000	1	0.137375
26.366667	1	0.138500
26.383333	1	0.139875
26.400000	1	0.142250
26.416667	1	0.144250
26.433333	1	0.147375
26.450000	1	0.150000
26.466667	1	0.152750
26.483333	1	0.155875
26.500000	1	0.159125
26.516667	1	0.162000
26.533333	1	0.163875
26.550000	1	0.166125
26.566667	1	0.168625
26.583333	1	0.170625
26.600000	1	0.172625
26.616667	1	0.174375
26.633333	1	0.175250
26.650000	1	0.176625
26.666667	1	0.177375
26.683333	1	0.178000
26.700000	1	0.178125
26.716667	1	0.178375
26.733333	1	0.178250
26.750000	1	0.179250
26.766667	1	0.179375
26.783333	1	0.179125
26.800000	1	0.179500
26.816667	1	0.180000
26.833333	1	0.180375
26.850000	1	0.181625
26.866667	1	0.182750
26.883333	1	0.184250
26.900000	1	0.186250
26.916667	1	0.188250
26.933333	1	0.190500
26.950000	1	0.192750
26.966667	1	0.196375
26.983333	1	0.200500
27.000000	1	0.204625
27.016667	1	0.208625
27.033333	1	0.214125
27.050000	1	0.219750
27.066667	1	0.225625
27.083333	1	0.231750
27.100000	1	0.238500
27.116667	1	0.245375
27.133333	1	0.253000
27.150000	1	0.261000
27.166667	1	0.269125
27.183333	1	0.279625
27.200000	1	0.289375
27.216667	1	0.299375
27.233333	1	0.310625
27.250000	1	0.322375
27.266667	1	0.334750
27.283333	1	0.347750
27.300000	1	0.361125
27.316667	1	0.375250
27.333333	1	0.390500
27.350000	1	0.406125
27.366667	1	0.423375
27.383333	1	0.441000
27.400000	1	0.459750
27.416667	1	0.480000
27.433333	1	0.501625
27.450000	1	0.525750
27.466667	1	0.551500
27.483333	1	0.578750
27.500000	1	0.609000
27.516667	1	0.641875
27.533333	1	0.677500
27.550000	1	0.716500
27.566667	1	0.759875
27.583333	1	0.807500
27.600000	1	0.859875
27.616667	1	0.917750
27.633333	1	0.981000
27.650000	1	1.050125
27.666667	1	1.125000
27.683333	1	1.206625
27.700000	1	1.294000
27.716667	1	1.387000
27.733333	1	1.486750
27.750000	1	1.592250
27.766667	1	1.701875
27.783333	1	1.816000
27.800000	1	1.933375
27.816667	1	2.053000
27.833333	1	2.173750
27.850000	1	2.293000
27.866667	1	2.411000
27.883333	1	2.525875
27.900000	1	2.635500
27.916667	1	2.737375
27.933333	1	2.831625
27.950000	1	2.916000
27.966667	1	2.988875
27.983333	1	3.050000
28.000000	1	3.096875
28.016667	1	3.128000
28.033333	1	3.143875
28.050000	1	3.144125
28.066667	1	3.129125
28.083333	1	3.098500
28.100000	1	3.052875
28.116667	1	2.992250
28.133333	1	2.918000
28.150000	1	2.831500
28.166667	1	2.733500
28.183333	1	2.626875
28.200000	1	2.512000
28.216667	1	2.390875
28.233333	1	2.264250
28.250000	1	2.135000
28.266667	1	2.003875
28.283333	1	1.872500
28.300000	1	1.740375
28.316667	1	1.611000
28.333333	1	1.485000
28.350000	1	1.362125
28.366667	1	1.244625
28.383333	1	1.132250
28.400000	1	1.025000
28.416667	1	0.923125
28.433333	1	0.827375
28.450000	1	0.736750
28.466667	1	0.650750
28.483333	1	0.569750
28.500000	1	0.493250
28.516667	1	0.421000
28.533333	1	0.352125
28.550000	1	0.288000
28.566667	1	0.226625
28.583333	1	0.167875
28.600000	1	0.112125
28.616667	1	0.058625
28.633333	1	0.007125
28.650000	1	-0.043500
28.666667	1	-0.091875
28.683333	1	-0.139750
28.700000	1	-0.186125
28.716667	1	-0.230875
28.733333	1	-0.275250
28.750000	1	-0.317750
28.766667	1	-0.358375
28.783333	1	-0.397750
28.800000	1	-0.434500
28.816667	1	-0.469875
28.833333	1	-0.502875
28.850000	1	-0.533500
28.866667	1	-0.562000
28.883333	1	-0.587625
28.900000	1	-0.610250
28.916667	1	-0.629875
28.933333	1	-0.646500
28.950000	1	-0.659750
28.966667	1	-0.668750
28.983333	1	-0.674750
29.000000	1	-0.676750
29.016667	1	-0.674875
29.033333	1	-0.669625
29.050000	1	-0.662000
29.066667	1	-0.649875
29.083333	1	-0.634750
29.100000	1	-0.616750
29.116667	1	-0.595250
29.133333	1	-0.571125
29.150000	1	-0.545500
29.166667	1	-0.517000
29.183333	1	-0.486875
29.200000	1	-0.454125
29.216667	1	-0.421000
29.233333	1	-0.386250
29.250000	1	-0.351375
29.266667	1	-0.315750
29.283333	1	-0.279375
29.300000	1	-0.242750
29.316667	1	-0.206625
29.333333	1	-0.170750
29.350000	1	-0.134625
29.366667	1	-0.099000
29.383333	1	-0.064875
29.400000	1	-0.031750
29.416667	1	0.000375
29.433333	1	0.031875
29.450000	1	0.061750
29.466667	1	0.090875
29.483333	1	0.118375
29.500000	1	0.144625
29.516667	1	0.170000
29.533333	1	0.193125
29.550000	1	0.214125
29.566667	1	0.233875
29.583333	1	0.253000
29.600000	1	0.270500
29.616667	1	0.286125
29.633333	1	0.300250
29.650000	1	0.313000
29.666667	1	0.325125
29.683333	1	0.334625
29.700000	1	0.343125
29.716667	1	0.351000
29.733333	1	0.357500
29.750000	1	0.362250
29.766667	1	0.366000
29.783333	1	0.368500
29.800000	1	0.371125
29.816667	1	0.372250
29.833333	1	0.373000
29.850000	1	0.373000
29.866667	1	0.372125
29.883333	1	0.370250
29.900000	1	0.368625
29.916667	1	0.366750
29.933333	1	0.364000
29.950000	1	0.360875
29.966667	1	0.358000
29.983333	1	0.354625
30.000000	1	0.351750
30.016667	1	0.348625
30.033333	1	0.345250
30.050000	1	0.341625
30.066667	1	0.338875
30.083333	1	0.335875
30.100000	1	0.333250
30.116667	1	0.331125
30.133333	1	0.328875
30.150000	1	0.326250
30.166667	1	0.324625
30.183333	1	0.322375
30.200000	1	0.320500
30.216667	1	0.319000
30.233333	1	0.317750
30.250000	1	0.316625
30.266667	1	0.315500
30.283333	1	0.314500
30.300000	1	0.313750
30.316667	1	0.313750
30.333333	1	0.313750
30.350000	1	0.313875
30.366667	1	0.315250
30.383333	1	0.316750
30.400000	1	0.318500
30.416667	1	0.320875
30.433333	1	0.323625
30.450000	1	0.326500
30.466667	1	0.330000
30.483333	1	0.334750
30.500000	1	0.339625
30.516667	1	0.345000
30.533333	1	0.351375
30.550000	1	0.358500
30.566667	1	0.366500
30.583333	1	0.375125
30.600000	1	0.385375
30.616667	1	0.395625
30.633333	1	0.406750
30.650000	1	0.417625
30.666667	1	0.429000
30.683333	1	0.441000
30.700000	1	0.451625
30.716667	1	0.463375
30.733333	1	0.475250
30.750000	1	0.486250
30.766667	1	0.497125
30.783333	1	0.507250
30.800000	1	0.515750
30.816667	1	0.523750
30.833333	1	0.529875
30.850000	1	0.536125
30.866667	1	0.540000
30.883333	1	0.541875
30.900000	1	0.543000
30.916667	1	0.542625
30.933333	1	0.540625
30.950000	1	0.536625
30.966667	1	0.531750
30.983333	1	0.524500
31.000000	1	0.516625
31.016667	1	0.506750
31.033333	1	0.495625
31.050000	1	0.484375
31.066667	1	0.471125
31.083333	1	0.457750
31.100000	1	0.443875
31.116667	1	0.428875
31.133333	1	0.414125
31.150000	1	0.399250
31.166667	1	0.384750
31.183333	1	0.369750
31.200000	1	0.354750
31.216667	1	0.339375
31.233333	1	0.325250
31.250000	1	0.311250
31.266667	1	0.298750
31.283333	1	0.286125
31.300000	1	0.274750
31.316667	1	0.263875
31.333333	1	0.253375
31.350000	1	0.243375
31.366667	1	0.235125
31.383333	1	0.227000
31.400000	1	0.219625
31.416667	1	0.213000
31.433333	1	0.207125
31.450000	1	0.202250
31.466667	1	0.197625
31.483333	1	0.193625
31.500000	1	0.190625
31.516667	1	0.187625
31.533333	1	0.185375
31.550000	1	0.184125
31.566667	1	0.183000
31.583333	1	0.182375
31.600000	1	0.182375
31.616667	1	0.182250
31.633333	1	0.182875
31.650000	1	0.184125
31.666667	1	0.185750
31.683333	1	0.187875
31.700000	1	0.190125
31.716667	1	0.193625
31.733333	1	0.196375
31.750000	1	0.199375
31.766667	1	0.202875
31.783333	1	0.207000
31.800000	1	0.210875
31.816667	1	0.215125
31.833333	1	0.219375
31.850000	1	0.224125
31.866667	1	0.228875
31.883333	1	0.233125
31.900000	1	0.238000
31.916667	1	0.243000
31.933333	1	0.248000
31.950000	1	0.252625
31.966667	1	0.258250
31.983333	1	0.262500
32.000000	1	0.266375
32.016667	1	0.269750
32.033333	1	0.273125
32.050000	1	0.275625
32.066667	1	0.277875
32.083333	1	0.280500
32.100000	1	0.282375
32.116667	1	0.283125
32.133333	1	0.283750
32.150000	1	0.284125
32.166667	1	0.283125
32.183333	1	0.282375
32.200000	1	0.281000
32.216667	1	0.279750
32.233333	1	0.277500
32.250000	1	0.273750
32.266667	1	0.270125
32.283333	1	0.266750
32.300000	1	0.262750
32.316667	1	0.259375
32.333333	1	0.255125
32.350000	1	0.250500
32.366667	1	0.245875
32.383333	1	0.241375
32.400000	1	0.236375
32.416667	1	0.231250
32.433333	1	0.226625
32.450000	1	0.221125
32.466667	1	0.216750
32.483333	1	0.211500
32.500000	1	0.206750
32.516667	1	0.202375
32.533333	1	0.197375
32.550000	1	0.192500
32.566667	1	0.187750
32.583333	1	0.182875
32.600000	1	0.178125
32.616667	1	0.173625
32.633333	1	0.169250
32.650000	1	0.163500
32.666667	1	0.158125
32.683333	1	0.153000
32.700000	1	0.148000
32.716667	1	0.142125
32.733333	1	0.136875
32.750000	1	0.130875
32.766667	1	0.124750
32.783333	1	0.119375
32.800000	1	0.113875
32.816667	1	0.107750
32.833333	1	0.102000
32.850000	1	0.095875
32.866667	1	0.090000
32.883333	1	0.083500
32.900000	1	0.076750
32.916667	1	0.070500
32.933333	1	0.065125
32.950000	1	0.059625
32.966667	1	0.054750
32.983333	1	0.049625
33.000000	1	0.044125
33.016667	1	0.039125
33.033333	1	0.034750
33.050000	1	0.029750
33.066667	1	0.025375
33.083333	1	0.020875
33.100000	1	0.016500
33.116667	1	0.012500
33.133333	1	0.008625
33.150000	1	0.005625
33.166667	1	0.003125
33.183333	1	0.000375
33.200000	1	-0.002125
33.216667	1	-0.004375
33.233333	1	-0.005625
33.250000	1	-0.007875
33.266667	1	-0.009500
33.283333	1	-0.011375
33.300000	1	-0.013000
33.316667	1	-0.014125
33.333333	1	-0.015250
33.350000	1	-0.015750
33.366667	1	-0.015875
33.383333	1	-0.016125
33.400000	1	-0.016125
33.416667	1	-0.016000
33.433333	1	-0.016250
33.450000	1	-0.015625
33.466667	1	-0.014750
33.483333	1	-0.014500
33.500000	1	-0.013625
33.516667	1	-0.013000
33.533333	1	-0.011750
33.550000	1	-0.010375
33.566667	1	-0.009125
33.583333	1	-0.007125
33.600000	1	-0.004875
33.616667	1	-0.002750
33.633333	1	-0.000750
33.650000	1	0.001625
33.666667	1	0.004750
33.683333	1	0.008000
33.700000	1	0.011750
33.716667	1	0.015500
33.733333	1	0.019000
33.750000	1	0.022875
33.766667	1	0.028000
33.783333	1	0.033875
33.800000	1	0.039375
33.816667	1	0.045750
33.833333	1	0.051625
33.850000	1	0.058250
33.866667	1	0.065375
33.883333	1	0.073000
33.900000	1	0.081750
33.916667	1	0.090750
33.933333	1	0.100625
33.950000	1	0.111125
33.966667	1	0.122375
33.983333	1	0.133125
34.000000	1	0.145375
34.016667	1	0.157375
34.033333	1	0.170000
34.050000	1	0.183875
34.066667	1	0.198125
34.083333	1	0.212500
34.100000	1	0.226750
34.116667	1	0.242125
34.133333	1	0.257375
34.150000	1	0.272625
34.166667	1	0.288500
34.183333	1	0.303250
34.200000	1	0.318625
34.216667	1	0.332750
34.233333	1	0.346250
34.250000	1	0.359750
34.266667	1	0.372375
34.283333	1	0.383250
34.300000	1	0.394000
34.316667	1	0.403500
34.333333	1	0.411625
34.350000	1	0.418875
34.366667	1	0.423875
34.383333	1	0.427875
34.400000	1	0.430875
34.416667	1	0.432125
34.433333	1	0.431000
34.450000	1	0.429250
34.466667	1	0.426375
34.483333	1	0.421750
34.500000	1	0.416250
34.516667	1	0.408875
34.533333	1	0.400625
34.550000	1	0.391625
34.566667	1	0.381375
34.583333	1	0.370250
34.600000	1	0.358500
34.616667	1	0.346125
34.633333	1	0.333500
34.650000	1	0.320375
34.666667	1	0.307750
34.683333	1	0.294000
34.700000	1	0.281875
34.716667	1	0.268750
34.733333	1	0.255750
34.750000	1	0.243375
34.766667	1	0.231500
34.783333	1	0.219625
34.800000	1	0.208250
34.816667	1	0.197125
34.833333	1	0.187500
34.850000	1	0.178125
34.866667	1	0.168875
34.883333	1	0.160375
34.900000	1	0.152375
34.916667	1	0.145500
34.933333	1	0.138875
34.950000	1	0.133000
34.966667	1	0.127500
34.983333	1	0.122500
35.000000	1	0.117750
35.016667	1	0.113500
35.033333	1	0.109875
35.050000	1	0.106500
35.066667	1	0.103750
35.083333	1	0.101375
35.100000	1	0.098750
35.116667	1	0.097625
35.133333	1	0.096250
35.150000	1	0.094500
35.166667	1	0.093875
35.183333	1	0.093500
35.200000	1	0.092500
35.216667	1	0.092250
35.233333	1	0.091875
35.250000	1	0.092250
35.266667	1	0.092875
35.283333	1	0.092875
35.300000	1	0.093125
35.316667	1	0.093625
35.333333	1	0.094500
35.350000	1	0.095125
35.366667	1	0.096250
35.383333	1	0.097000
35.400000	1	0.097750
35.416667	1	0.098375
35.433333	1	0.099500
35.450000	1	0.100500
35.466667	1	0.101250
35.483333	1	0.102125
35.500000	1	0.103625
35.516667	1	0.104250
35.533333	1	0.105000
35.550000	1	0.106500
35.566667	1	0.107750
35.583333	1	0.108375
35.600000	1	0.109250
35.616667	1	0.110500
35.633333	1	0.111875
35.650000	1	0.113500
35.666667	1	0.114375
35.683333	1	0.115250
35.700000	1	0.116500
35.716667	1	0.117625
35.733333	1	0.118875
35.750000	1	0.119875
35.766667	1	0.120250
35.783333	1	0.121250
35.800000	1	0.122000
35.816667	1	0.122500
35.833333	1	0.122875
35.850000	1	0.123125
35.866667	1	0.123500
35.883333	1	0.123625
35.900000	1	0.124875
35.916667	1	0.125875
35.933333	1	0.125875
35.950000	1	0.125625
35.966667	1	0.125250
35.983333	1	0.125000
36.000000	1	0.125500
36.016667	1	0.125500
36.033333	1	0.125375
36.050000	1	0.125375
36.066667	1	0.125625
36.083333	1	0.124750
36.100000	1	0.125125
36.116667	1	0.124625
36.133333	1	0.124000
36.150000	1	0.123500
36.166667	1	0.123500
36.183333	1	0.122875
36.200000	1	0.122125
36.216667	1	0.121125
36.233333	1	0.120250
36.250000	1	0.118875
36.266667	1	0.117500
36.283333	1	0.117000
36.300000	1	0.115750
36.316667	1	0.114125
36.333333	1	0.113000
36.350000	1	0.111625
36.366667	1	0.110500
36.383333	1	0.109000
36.400000	1	0.107500
36.416667	1	0.105375
36.433333	1	0.103625
36.450000	1	0.102500
36.466667	1	0.100500
36.483333	1	0.099375
36.500000	1	0.097625
36.516667	1	0.095875
36.533333	1	0.093875
36.550000	1	0.092625
36.566667	1	0.091250
36.583333	1	0.088875
36.600000	1	0.086750
36.616667	1	0.084875
36.633333	1	0.083250
36.650000	1	0.081500
36.666667	1	0.079500
36.683333	1	0.077875
36.700000	1	0.075875
36.716667	1	0.073375
36.733333	1	0.071375
36.750000	1	0.068750
36.766667	1	0.066500
36.783333	1	0.063875
36.800000	1	0.061375
36.816667	1	0.059125
36.833333	1	0.056000
36.850000	1	0.053500
36.866667	1	0.050500
36.883333	1	0.047375
36.900000	1	0.045000
36.916667	1	0.042375
36.933333	1	0.039625
36.950000	1	0.036250
36.966667	1	0.032875
36.983333	1	0.029875
37.000000	1	0.026875
37.016667	1	0.023625
37.033333	1	0.021500
37.050000	1	0.018875
37.066667	1	0.016000
37.083333	1	0.013750
37.100000	1	0.011625
37.116667	1	0.009375
37.133333	1	0.007500
37.150000	1	0.006125
37.166667	1	0.004250
37.183333	1	0.002625
37.200000	1	0.000375
37.216667	1	-0.000625
37.233333	1	-0.001125
37.250000	1	-0.002750
37.266667	1	-0.003750
37.283333	1	-0.003625
37.300000	1	-0.004250
37.316667	1	-0.005000
37.333333	1	-0.005625
37.350000	1	-0.006250
37.366667	1	-0.006750
37.383333	1	-0.006500
37.400000	1	-0.006625
37.416667	1	-0.007125
37.433333	1	-0.007000
37.450000	1	-0.006625
37.466667	1	-0.005875
37.483333	1	-0.005875
37.500000	1	-0.005625
37.516667	1	-0.004750
37.533333	1	-0.004375
37.550000	1	-0.004000
37.566667	1	-0.003625
37.583333	1	-0.003250
37.600000	1	-0.002875
37.616667	1	-0.001625
37.633333	1	-0.000250
37.650000	1	0.000375
37.666667	1	0.000500
37.683333	1	0.001250
37.700000	1	0.002625
37.716667	1	0.003250
37.733333	1	0.004375
37.750000	1	0.005250
37.766667	1	0.005875
37.783333	1	0.006875
37.800000	1	0.007625
37.816667	1	0.007875
37.833333	1	0.008750
37.850000	1	0.009750
37.866667	1	0.010750
37.883333	1	0.011375
37.900000	1	0.011250
37.916667	1	0.011875
37.933333	1	0.012375
37.950000	1	0.012750
37.966667	1	0.014000
37.983333	1	0.013500
38.000000	1	0.013625
38.016667	1	0.014625
38.033333	1	0.015125
38.050000	1	0.015125
38.066667	1	0.015750
38.083333	1	0.015875
38.100000	1	0.016250
38.116667	1	0.017250
38.133333	1	0.017500
38.150000	1	0.017625
38.166667	1	0.017625
38.183333	1	0.017000
38.200000	1	0.017250
38.216667	1	0.017375
38.233333	1	0.017500
38.250000	1	0.017375
38.266667	1	0.017750
38.283333	1	0.017375
38.300000	1	0.017375
38.316667	1	0.017250
38.333333	1	0.017000
38.350000	1	0.016375
38.366667	1	0.016625
38.383333	1	0.016000
38.400000	1	0.015875
38.416667	1	0.015500
38.433333	1	0.015625
38.450000	1	0.015250
38.466667	1	0.014875
38.483333	1	0.013625
38.500000	1	0.013000
38.516667	1	0.013625
38.533333	1	0.013250
38.550000	1	0.012000
38.566667	1	0.011750
38.583333	1	0.011375
38.600000	1	0.010875
38.616667	1	0.010000
38.633333	1	0.009125
38.650000	1	0.008125
38.666667	1	0.007875
38.683333	1	0.006875
38.700000	1	0.006125
38.716667	1	0.005500
38.733333	1	0.004375
38.750000	1	0.003250
38.766667	1	0.002250
38.783333	1	0.000875
38.800000	1	0.000125
38.816667	1	-0.000125
38.833333	1	-0.001000
38.850000	1	-0.002125
38.866667	1	-0.003500
38.883333	1	-0.004750
38.900000	1	-0.005875
38.916667	1	-0.006500
38.933333	1	-0.007875
38.950000	1	-0.009000
38.966667	1	-0.010250
38.983333	1	-0.011875
39.000000	1	-0.012375
39.016667	1	-0.013750
39.033333	1	-0.014875
39.050000	1	-0.015875
39.066667	1	-0.016875
39.083333	1	-0.017250
39.100000	1	-0.018250
39.116667	1	-0.019250
39.133333	1	-0.019875
39.150000	1	-0.021250
39.166667	1	-0.022250
39.183333	1	-0.023750
39.200000	1	-0.024375
39.216667	1	-0.025375
39.233333	1	-0.026125
39.250000	1	-0.026500
39.266667	1	-0.027750
39.283333	1	-0.028250
39.300000	1	-0.028500
39.316667	1	-0.029500
39.333333	1	-0.029875
39.350000	1	-0.030000
39.366667	1	-0.030500
39.383333	1	-0.031250
39.400000	1	-0.031375
39.416667	1	-0.031500
39.433333	1	-0.031375
39.450000	1	-0.031750
39.466667	1	-0.031875
39.483333	1	-0.031625
39.500000	1	-0.031375
39.516667	1	-0.031500
39.533333	1	-0.030875
39.550000	1	-0.030375
39.566667	1	-0.029750
39.583333	1	-0.028875
39.600000	1	-0.028500
39.616667	1	-0.027750
39.633333	1	-0.027500
39.650000	1	-0.026125
39.666667	1	-0.024750
39.683333	1	-0.023875
39.700000	1	-0.022750
39.716667	1	-0.021625
39.733333	1	-0.020625
39.750000	1	-0.019250
39.766667	1	-0.018500
39.783333	1	-0.018250
39.800000	1	-0.017000
39.816667	1	-0.016125
39.833333	1	-0.015375
39.850000	1	-0.013500
39.866667	1	-0.012250
39.883333	1	-0.010875
39.900000	1	-0.010250
39.916667	1	-0.008750
39.933333	1	-0.007750
39.950000	1	-0.006875
39.966667	1	-0.005625
39.983333	1	-0.004500
40.000000	1	-0.003500
