File Path	chrom://marshall/Chromeleon7/HPLC_Ultimate_3000/Users/markusar/20230610_CMO_FP11_FP12.seq/911.smp/RI_1.channel/RI_1.chm
Channel	RI_1

Injection Information:
Data Vault	Chromeleon7
Injection	FP12_2_S4
Injection Number	29
Position	BC4
Comment	
Processing Method	
Instrument Method	run_25B_method
Type	Unknown
Status	Finished
Injection Date	11.06.2023
Injection Time	13:50:57
Injection Volume (µl)	20.000
Dilution Factor	1.0000
Weight	1.0000

Chromatogram Data Information:
Time Min. (min)	0.000000
Time Max. (min)	40.000000
Data Points	2401
Detector	RI
Generating Data System	Chromeleon 7.2.5.9507
Exporting Data System	Chromeleon 7.2.5.0
Operator	Instrument Controller
Signal Quantity	Refractive 
Signal Unit	µRIU
Signal Min.	-0.304875
Signal Max.	44.744250
Channel	RI_1
Driver Name	RID520Driver.dll
Channel Type	Evaluation
Min. Step (s)	1
Max. Step (s)	1
Average Step (s)	1

Signal Parameter Information:
Signal Info	

Chromatogram Data:
Time (min)	Step (s)	Value (µRIU)
0.000000	n.a.	-0.008750
0.016667	1	-0.009375
0.033333	1	-0.009500
0.050000	1	-0.009375
0.066667	1	-0.009375
0.083333	1	-0.010500
0.100000	1	-0.010875
0.116667	1	-0.011125
0.133333	1	-0.011250
0.150000	1	-0.011750
0.166667	1	-0.012250
0.183333	1	-0.012875
0.200000	1	-0.013500
0.216667	1	-0.014250
0.233333	1	-0.014625
0.250000	1	-0.015625
0.266667	1	-0.016750
0.283333	1	-0.017250
0.300000	1	-0.018125
0.316667	1	-0.020750
0.333333	1	-0.023875
0.350000	1	-0.028875
0.366667	1	-0.032625
0.383333	1	-0.033875
0.400000	1	-0.031750
0.416667	1	-0.029875
0.433333	1	-0.027750
0.450000	1	-0.025875
0.466667	1	-0.024625
0.483333	1	-0.023500
0.500000	1	-0.022375
0.516667	1	-0.022250
0.533333	1	-0.022875
0.550000	1	-0.024625
0.566667	1	-0.027875
0.583333	1	-0.031625
0.600000	1	-0.034125
0.616667	1	-0.036875
0.633333	1	-0.039000
0.650000	1	-0.041500
0.666667	1	-0.043125
0.683333	1	-0.045000
0.700000	1	-0.046750
0.716667	1	-0.048000
0.733333	1	-0.050125
0.750000	1	-0.051375
0.766667	1	-0.052375
0.783333	1	-0.053250
0.800000	1	-0.054250
0.816667	1	-0.055000
0.833333	1	-0.055500
0.850000	1	-0.056125
0.866667	1	-0.056500
0.883333	1	-0.056625
0.900000	1	-0.057125
0.916667	1	-0.057750
0.933333	1	-0.057375
0.950000	1	-0.057500
0.966667	1	-0.057875
0.983333	1	-0.057625
1.000000	1	-0.058000
1.016667	1	-0.057750
1.033333	1	-0.058250
1.050000	1	-0.058375
1.066667	1	-0.057750
1.083333	1	-0.057500
1.100000	1	-0.057500
1.116667	1	-0.057250
1.133333	1	-0.057750
1.150000	1	-0.057375
1.166667	1	-0.056875
1.183333	1	-0.056750
1.200000	1	-0.056000
1.216667	1	-0.056125
1.233333	1	-0.056125
1.250000	1	-0.056000
1.266667	1	-0.055250
1.283333	1	-0.054875
1.300000	1	-0.054750
1.316667	1	-0.054250
1.333333	1	-0.053625
1.350000	1	-0.053625
1.366667	1	-0.053375
1.383333	1	-0.053250
1.400000	1	-0.052750
1.416667	1	-0.052625
1.433333	1	-0.052500
1.450000	1	-0.051750
1.466667	1	-0.051500
1.483333	1	-0.050875
1.500000	1	-0.050375
1.516667	1	-0.050500
1.533333	1	-0.051000
1.550000	1	-0.051000
1.566667	1	-0.050375
1.583333	1	-0.050375
1.600000	1	-0.050875
1.616667	1	-0.051125
1.633333	1	-0.050750
1.650000	1	-0.050125
1.666667	1	-0.050500
1.683333	1	-0.051125
1.700000	1	-0.050750
1.716667	1	-0.051375
1.733333	1	-0.051750
1.750000	1	-0.051875
1.766667	1	-0.052750
1.783333	1	-0.053125
1.800000	1	-0.053500
1.816667	1	-0.053750
1.833333	1	-0.054125
1.850000	1	-0.054375
1.866667	1	-0.054625
1.883333	1	-0.055125
1.900000	1	-0.055750
1.916667	1	-0.056750
1.933333	1	-0.057250
1.950000	1	-0.057625
1.966667	1	-0.058000
1.983333	1	-0.058625
2.000000	1	-0.058875
2.016667	1	-0.059500
2.033333	1	-0.060250
2.050000	1	-0.060750
2.066667	1	-0.061250
2.083333	1	-0.061625
2.100000	1	-0.062875
2.116667	1	-0.063250
2.133333	1	-0.063750
2.150000	1	-0.064125
2.166667	1	-0.064750
2.183333	1	-0.064500
2.200000	1	-0.064875
2.216667	1	-0.064750
2.233333	1	-0.065125
2.250000	1	-0.065750
2.266667	1	-0.066125
2.283333	1	-0.065875
2.300000	1	-0.066375
2.316667	1	-0.066250
2.333333	1	-0.066125
2.350000	1	-0.066000
2.366667	1	-0.065875
2.383333	1	-0.066500
2.400000	1	-0.066000
2.416667	1	-0.066250
2.433333	1	-0.066250
2.450000	1	-0.066750
2.466667	1	-0.066625
2.483333	1	-0.066625
2.500000	1	-0.066250
2.516667	1	-0.066250
2.533333	1	-0.066125
2.550000	1	-0.065625
2.566667	1	-0.065000
2.583333	1	-0.064125
2.600000	1	-0.063875
2.616667	1	-0.063500
2.633333	1	-0.063250
2.650000	1	-0.062875
2.666667	1	-0.062250
2.683333	1	-0.061750
2.700000	1	-0.061625
2.716667	1	-0.061125
2.733333	1	-0.060500
2.750000	1	-0.059875
2.766667	1	-0.058875
2.783333	1	-0.058250
2.800000	1	-0.057250
2.816667	1	-0.056750
2.833333	1	-0.055625
2.850000	1	-0.054750
2.866667	1	-0.054250
2.883333	1	-0.053125
2.900000	1	-0.053000
2.916667	1	-0.052375
2.933333	1	-0.051750
2.950000	1	-0.051250
2.966667	1	-0.050125
2.983333	1	-0.049375
3.000000	1	-0.048875
3.016667	1	-0.048375
3.033333	1	-0.048125
3.050000	1	-0.046375
3.066667	1	-0.045375
3.083333	1	-0.045500
3.100000	1	-0.045625
3.116667	1	-0.045125
3.133333	1	-0.044750
3.150000	1	-0.044125
3.166667	1	-0.044000
3.183333	1	-0.043500
3.200000	1	-0.043625
3.216667	1	-0.043750
3.233333	1	-0.043125
3.250000	1	-0.042625
3.266667	1	-0.041750
3.283333	1	-0.041125
3.300000	1	-0.041500
3.316667	1	-0.041500
3.333333	1	-0.041750
3.350000	1	-0.041500
3.366667	1	-0.041625
3.383333	1	-0.041500
3.400000	1	-0.042000
3.416667	1	-0.042375
3.433333	1	-0.042375
3.450000	1	-0.042625
3.466667	1	-0.043500
3.483333	1	-0.043875
3.500000	1	-0.044000
3.516667	1	-0.045125
3.533333	1	-0.045750
3.550000	1	-0.045625
3.566667	1	-0.046125
3.583333	1	-0.046750
3.600000	1	-0.047500
3.616667	1	-0.047750
3.633333	1	-0.048500
3.650000	1	-0.048750
3.666667	1	-0.049375
3.683333	1	-0.049875
3.700000	1	-0.050000
3.716667	1	-0.050375
3.733333	1	-0.050375
3.750000	1	-0.051250
3.766667	1	-0.052375
3.783333	1	-0.053000
3.800000	1	-0.052875
3.816667	1	-0.052500
3.833333	1	-0.052875
3.850000	1	-0.053875
3.866667	1	-0.054625
3.883333	1	-0.055375
3.900000	1	-0.056125
3.916667	1	-0.056750
3.933333	1	-0.057625
3.950000	1	-0.058000
3.966667	1	-0.057250
3.983333	1	-0.057500
4.000000	1	-0.058250
4.016667	1	-0.058875
4.033333	1	-0.059375
4.050000	1	-0.059625
4.066667	1	-0.059875
4.083333	1	-0.060375
4.100000	1	-0.061250
4.116667	1	-0.061500
4.133333	1	-0.061875
4.150000	1	-0.062500
4.166667	1	-0.062875
4.183333	1	-0.063125
4.200000	1	-0.063125
4.216667	1	-0.063250
4.233333	1	-0.063250
4.250000	1	-0.063375
4.266667	1	-0.063250
4.283333	1	-0.063250
4.300000	1	-0.063125
4.316667	1	-0.063250
4.333333	1	-0.063250
4.350000	1	-0.063250
4.366667	1	-0.063500
4.383333	1	-0.063250
4.400000	1	-0.063000
4.416667	1	-0.062625
4.433333	1	-0.061875
4.450000	1	-0.060875
4.466667	1	-0.060500
4.483333	1	-0.059750
4.500000	1	-0.059250
4.516667	1	-0.058500
4.533333	1	-0.057875
4.550000	1	-0.057375
4.566667	1	-0.055875
4.583333	1	-0.054500
4.600000	1	-0.053250
4.616667	1	-0.051625
4.633333	1	-0.050625
4.650000	1	-0.049250
4.666667	1	-0.048250
4.683333	1	-0.047625
4.700000	1	-0.046250
4.716667	1	-0.044500
4.733333	1	-0.042500
4.750000	1	-0.041250
4.766667	1	-0.040375
4.783333	1	-0.038750
4.800000	1	-0.036875
4.816667	1	-0.035500
4.833333	1	-0.033375
4.850000	1	-0.032125
4.866667	1	-0.030125
4.883333	1	-0.027875
4.900000	1	-0.026125
4.916667	1	-0.024000
4.933333	1	-0.022000
4.950000	1	-0.020250
4.966667	1	-0.018625
4.983333	1	-0.016750
5.000000	1	-0.015125
5.016667	1	-0.013250
5.033333	1	-0.011500
5.050000	1	-0.009000
5.066667	1	-0.007125
5.083333	1	-0.005500
5.100000	1	-0.004000
5.116667	1	-0.002375
5.133333	1	-0.001000
5.150000	1	0.000250
5.166667	1	0.002000
5.183333	1	0.003250
5.200000	1	0.004000
5.216667	1	0.005000
5.233333	1	0.006125
5.250000	1	0.007375
5.266667	1	0.008250
5.283333	1	0.008625
5.300000	1	0.010125
5.316667	1	0.010500
5.333333	1	0.010875
5.350000	1	0.011000
5.366667	1	0.011625
5.383333	1	0.012375
5.400000	1	0.012875
5.416667	1	0.013250
5.433333	1	0.013000
5.450000	1	0.013250
5.466667	1	0.013000
5.483333	1	0.012500
5.500000	1	0.012500
5.516667	1	0.012125
5.533333	1	0.011750
5.550000	1	0.011750
5.566667	1	0.011625
5.583333	1	0.011500
5.600000	1	0.010875
5.616667	1	0.010000
5.633333	1	0.009750
5.650000	1	0.009500
5.666667	1	0.008250
5.683333	1	0.007250
5.700000	1	0.006250
5.716667	1	0.005875
5.733333	1	0.005750
5.750000	1	0.005250
5.766667	1	0.004875
5.783333	1	0.004875
5.800000	1	0.005375
5.816667	1	0.005000
5.833333	1	0.004875
5.850000	1	0.005250
5.866667	1	0.004750
5.883333	1	0.004125
5.900000	1	0.003625
5.916667	1	0.004125
5.933333	1	0.004750
5.950000	1	0.004500
5.966667	1	0.004750
5.983333	1	0.005625
6.000000	1	0.006250
6.016667	1	0.007250
6.033333	1	0.007625
6.050000	1	0.007875
6.066667	1	0.008750
6.083333	1	0.009250
6.100000	1	0.010250
6.116667	1	0.011125
6.133333	1	0.012250
6.150000	1	0.013625
6.166667	1	0.014625
6.183333	1	0.015250
6.200000	1	0.016375
6.216667	1	0.017750
6.233333	1	0.019000
6.250000	1	0.020625
6.266667	1	0.022250
6.283333	1	0.024500
6.300000	1	0.026125
6.316667	1	0.028625
6.333333	1	0.030250
6.350000	1	0.032875
6.366667	1	0.035125
6.383333	1	0.037125
6.400000	1	0.039500
6.416667	1	0.042000
6.433333	1	0.044125
6.450000	1	0.046750
6.466667	1	0.048750
6.483333	1	0.051875
6.500000	1	0.054625
6.516667	1	0.057250
6.533333	1	0.059750
6.550000	1	0.062000
6.566667	1	0.064875
6.583333	1	0.067375
6.600000	1	0.069250
6.616667	1	0.071000
6.633333	1	0.073125
6.650000	1	0.075000
6.666667	1	0.077000
6.683333	1	0.078875
6.700000	1	0.079875
6.716667	1	0.081250
6.733333	1	0.081875
6.750000	1	0.082625
6.766667	1	0.083625
6.783333	1	0.084375
6.800000	1	0.085250
6.816667	1	0.085625
6.833333	1	0.085625
6.850000	1	0.085875
6.866667	1	0.085625
6.883333	1	0.085000
6.900000	1	0.084500
6.916667	1	0.083375
6.933333	1	0.082125
6.950000	1	0.080875
6.966667	1	0.079875
6.983333	1	0.077875
7.000000	1	0.077250
7.016667	1	0.075125
7.033333	1	0.072250
7.050000	1	0.069750
7.066667	1	0.067125
7.083333	1	0.064875
7.100000	1	0.062375
7.116667	1	0.059000
7.133333	1	0.056000
7.150000	1	0.053375
7.166667	1	0.050625
7.183333	1	0.047250
7.200000	1	0.043500
7.216667	1	0.040000
7.233333	1	0.036750
7.250000	1	0.034000
7.266667	1	0.031375
7.283333	1	0.027875
7.300000	1	0.024250
7.316667	1	0.021625
7.333333	1	0.019000
7.350000	1	0.015750
7.366667	1	0.012625
7.383333	1	0.009625
7.400000	1	0.006875
7.416667	1	0.005000
7.433333	1	0.002625
7.450000	1	0.000125
7.466667	1	-0.002625
7.483333	1	-0.004750
7.500000	1	-0.007000
7.516667	1	-0.008125
7.533333	1	-0.010000
7.550000	1	-0.011875
7.566667	1	-0.012625
7.583333	1	-0.013750
7.600000	1	-0.015250
7.616667	1	-0.016250
7.633333	1	-0.017625
7.650000	1	-0.018625
7.666667	1	-0.019500
7.683333	1	-0.020250
7.700000	1	-0.020625
7.716667	1	-0.021125
7.733333	1	-0.021250
7.750000	1	-0.021500
7.766667	1	-0.021375
7.783333	1	-0.022000
7.800000	1	-0.022125
7.816667	1	-0.022125
7.833333	1	-0.022375
7.850000	1	-0.023125
7.866667	1	-0.023125
7.883333	1	-0.023625
7.900000	1	-0.023500
7.916667	1	-0.023250
7.933333	1	-0.022500
7.950000	1	-0.022000
7.966667	1	-0.021750
7.983333	1	-0.021750
8.000000	1	-0.021625
8.016667	1	-0.021000
8.033333	1	-0.020375
8.050000	1	-0.020375
8.066667	1	-0.019000
8.083333	1	-0.018625
8.100000	1	-0.019250
8.116667	1	-0.018625
8.133333	1	-0.017750
8.150000	1	-0.016500
8.166667	1	-0.015375
8.183333	1	-0.014625
8.200000	1	-0.013750
8.216667	1	-0.013375
8.233333	1	-0.012500
8.250000	1	-0.011500
8.266667	1	-0.010375
8.283333	1	-0.009625
8.300000	1	-0.008875
8.316667	1	-0.007875
8.333333	1	-0.006250
8.350000	1	-0.005500
8.366667	1	-0.004000
8.383333	1	-0.002750
8.400000	1	-0.001750
8.416667	1	-0.000500
8.433333	1	0.000125
8.450000	1	0.001500
8.466667	1	0.002875
8.483333	1	0.004125
8.500000	1	0.005875
8.516667	1	0.006875
8.533333	1	0.008000
8.550000	1	0.009000
8.566667	1	0.010000
8.583333	1	0.011375
8.600000	1	0.013500
8.616667	1	0.014000
8.633333	1	0.014500
8.650000	1	0.016000
8.666667	1	0.017500
8.683333	1	0.018750
8.700000	1	0.019750
8.716667	1	0.021000
8.733333	1	0.021750
8.750000	1	0.022875
8.766667	1	0.023875
8.783333	1	0.024500
8.800000	1	0.025625
8.816667	1	0.027000
8.833333	1	0.028250
8.850000	1	0.029625
8.866667	1	0.031000
8.883333	1	0.031875
8.900000	1	0.032375
8.916667	1	0.033000
8.933333	1	0.033500
8.950000	1	0.035000
8.966667	1	0.036500
8.983333	1	0.037250
9.000000	1	0.038375
9.016667	1	0.038375
9.033333	1	0.039250
9.050000	1	0.040125
9.066667	1	0.041250
9.083333	1	0.042250
9.100000	1	0.042750
9.116667	1	0.043750
9.133333	1	0.044500
9.150000	1	0.044875
9.166667	1	0.046000
9.183333	1	0.047625
9.200000	1	0.048750
9.216667	1	0.049250
9.233333	1	0.049500
9.250000	1	0.050000
9.266667	1	0.050750
9.283333	1	0.052000
9.300000	1	0.053000
9.316667	1	0.053750
9.333333	1	0.054500
9.350000	1	0.055750
9.366667	1	0.057250
9.383333	1	0.057500
9.400000	1	0.058375
9.416667	1	0.059750
9.433333	1	0.061000
9.450000	1	0.062625
9.466667	1	0.064000
9.483333	1	0.065875
9.500000	1	0.068125
9.516667	1	0.070625
9.533333	1	0.074500
9.550000	1	0.078625
9.566667	1	0.083125
9.583333	1	0.087750
9.600000	1	0.093625
9.616667	1	0.101000
9.633333	1	0.108875
9.650000	1	0.118250
9.666667	1	0.129875
9.683333	1	0.143250
9.700000	1	0.158875
9.716667	1	0.176625
9.733333	1	0.197875
9.750000	1	0.222250
9.766667	1	0.249875
9.783333	1	0.281625
9.800000	1	0.316875
9.816667	1	0.356875
9.833333	1	0.399375
9.850000	1	0.443250
9.866667	1	0.484125
9.883333	1	0.519750
9.900000	1	0.548250
9.916667	1	0.572875
9.933333	1	0.604875
9.950000	1	0.660125
9.966667	1	0.764375
9.983333	1	0.946000
10.000000	1	1.235875
10.016667	1	1.662875
10.033333	1	2.252000
10.050000	1	3.022625
10.066667	1	3.991750
10.083333	1	5.171125
10.100000	1	6.564750
10.116667	1	8.170875
10.133333	1	9.980000
10.150000	1	11.973250
10.166667	1	14.125875
10.183333	1	16.407375
10.200000	1	18.785375
10.216667	1	21.225500
10.233333	1	23.693500
10.250000	1	26.152125
10.266667	1	28.563000
10.283333	1	30.876875
10.300000	1	33.032375
10.316667	1	34.944875
10.333333	1	36.508125
10.350000	1	37.597500
10.366667	1	38.088000
10.383333	1	37.879000
10.400000	1	36.924125
10.416667	1	35.248750
10.433333	1	32.962625
10.450000	1	30.239750
10.466667	1	27.281625
10.483333	1	24.284500
10.500000	1	21.403750
10.516667	1	18.742625
10.533333	1	16.353125
10.550000	1	14.248125
10.566667	1	12.413625
10.583333	1	10.824125
10.600000	1	9.451125
10.616667	1	8.267500
10.633333	1	7.251625
10.650000	1	6.384375
10.666667	1	5.646875
10.683333	1	5.023750
10.700000	1	4.498375
10.716667	1	4.057500
10.733333	1	3.687875
10.750000	1	3.377000
10.766667	1	3.113875
10.783333	1	2.890375
10.800000	1	2.698875
10.816667	1	2.532375
10.833333	1	2.386750
10.850000	1	2.258375
10.866667	1	2.144500
10.883333	1	2.041000
10.900000	1	1.948500
10.916667	1	1.864500
10.933333	1	1.788250
10.950000	1	1.718125
10.966667	1	1.653375
10.983333	1	1.593625
11.000000	1	1.538875
11.016667	1	1.487500
11.033333	1	1.440125
11.050000	1	1.395500
11.066667	1	1.353875
11.083333	1	1.315125
11.100000	1	1.278250
11.116667	1	1.244125
11.133333	1	1.212625
11.150000	1	1.183125
11.166667	1	1.155375
11.183333	1	1.129125
11.200000	1	1.104875
11.216667	1	1.081500
11.233333	1	1.059750
11.250000	1	1.039375
11.266667	1	1.020875
11.283333	1	1.003125
11.300000	1	0.986625
11.316667	1	0.971625
11.333333	1	0.957750
11.350000	1	0.944250
11.366667	1	0.932750
11.383333	1	0.922125
11.400000	1	0.912125
11.416667	1	0.902750
11.433333	1	0.894750
11.450000	1	0.887625
11.466667	1	0.881125
11.483333	1	0.876125
11.500000	1	0.872500
11.516667	1	0.869000
11.533333	1	0.867000
11.550000	1	0.865250
11.566667	1	0.863625
11.583333	1	0.864000
11.600000	1	0.864750
11.616667	1	0.865750
11.633333	1	0.866875
11.650000	1	0.869250
11.666667	1	0.871750
11.683333	1	0.874375
11.700000	1	0.877125
11.716667	1	0.880250
11.733333	1	0.883000
11.750000	1	0.886125
11.766667	1	0.889000
11.783333	1	0.892625
11.800000	1	0.895125
11.816667	1	0.897625
11.833333	1	0.899750
11.850000	1	0.902125
11.866667	1	0.904000
11.883333	1	0.906375
11.900000	1	0.908750
11.916667	1	0.911875
11.933333	1	0.914625
11.950000	1	0.918500
11.966667	1	0.923125
11.983333	1	0.928875
12.000000	1	0.935375
12.016667	1	0.943375
12.033333	1	0.952875
12.050000	1	0.964750
12.066667	1	0.979625
12.083333	1	0.998875
12.100000	1	1.024000
12.116667	1	1.055875
12.133333	1	1.096125
12.150000	1	1.147000
12.166667	1	1.210875
12.183333	1	1.288625
12.200000	1	1.382750
12.216667	1	1.494750
12.233333	1	1.625875
12.250000	1	1.778125
12.266667	1	1.953750
12.283333	1	2.154250
12.300000	1	2.380750
12.316667	1	2.635500
12.333333	1	2.920375
12.350000	1	3.235875
12.366667	1	3.583250
12.383333	1	3.962750
12.400000	1	4.374375
12.416667	1	4.817500
12.433333	1	5.290250
12.450000	1	5.789625
12.466667	1	6.312750
12.483333	1	6.854625
12.500000	1	7.407625
12.516667	1	7.963500
12.533333	1	8.513625
12.550000	1	9.047000
12.566667	1	9.554750
12.583333	1	10.029750
12.600000	1	10.466125
12.616667	1	10.859375
12.633333	1	11.207625
12.650000	1	11.509000
12.666667	1	11.760125
12.683333	1	11.960250
12.700000	1	12.108375
12.716667	1	12.203875
12.733333	1	12.248125
12.750000	1	12.241125
12.766667	1	12.181125
12.783333	1	12.069375
12.800000	1	11.905625
12.816667	1	11.693625
12.833333	1	11.440625
12.850000	1	11.155000
12.866667	1	10.845000
12.883333	1	10.517750
12.900000	1	10.175375
12.916667	1	9.817375
12.933333	1	9.441750
12.950000	1	9.046250
12.966667	1	8.630750
12.983333	1	8.197250
13.000000	1	7.748625
13.016667	1	7.288500
13.033333	1	6.818750
13.050000	1	6.339625
13.066667	1	5.849750
13.083333	1	5.345500
13.100000	1	4.825125
13.116667	1	4.293375
13.133333	1	3.765625
13.150000	1	3.263875
13.166667	1	2.813375
13.183333	1	2.433125
13.200000	1	2.126750
13.216667	1	1.886750
13.233333	1	1.701000
13.250000	1	1.555500
13.266667	1	1.440375
13.283333	1	1.346750
13.300000	1	1.270125
13.316667	1	1.205250
13.333333	1	1.149500
13.350000	1	1.101125
13.366667	1	1.058375
13.383333	1	1.019875
13.400000	1	0.984625
13.416667	1	0.952500
13.433333	1	0.923500
13.450000	1	0.896750
13.466667	1	0.871875
13.483333	1	0.849125
13.500000	1	0.828625
13.516667	1	0.809375
13.533333	1	0.792500
13.550000	1	0.777500
13.566667	1	0.763875
13.583333	1	0.752500
13.600000	1	0.742250
13.616667	1	0.733625
13.633333	1	0.726625
13.650000	1	0.720875
13.666667	1	0.716000
13.683333	1	0.712375
13.700000	1	0.709625
13.716667	1	0.708250
13.733333	1	0.707250
13.750000	1	0.707000
13.766667	1	0.707875
13.783333	1	0.708000
13.800000	1	0.707500
13.816667	1	0.706625
13.833333	1	0.705500
13.850000	1	0.702875
13.866667	1	0.698250
13.883333	1	0.692875
13.900000	1	0.686125
13.916667	1	0.678000
13.933333	1	0.669000
13.950000	1	0.659750
13.966667	1	0.649125
13.983333	1	0.637625
14.000000	1	0.626500
14.016667	1	0.615250
14.033333	1	0.604500
14.050000	1	0.593750
14.066667	1	0.583500
14.083333	1	0.575000
14.100000	1	0.566000
14.116667	1	0.557750
14.133333	1	0.550750
14.150000	1	0.544750
14.166667	1	0.539250
14.183333	1	0.535250
14.200000	1	0.531625
14.216667	1	0.529125
14.233333	1	0.528000
14.250000	1	0.528375
14.266667	1	0.530125
14.283333	1	0.533000
14.300000	1	0.537875
14.316667	1	0.544500
14.333333	1	0.553875
14.350000	1	0.565500
14.366667	1	0.579500
14.383333	1	0.597750
14.400000	1	0.619625
14.416667	1	0.646375
14.433333	1	0.677500
14.450000	1	0.716000
14.466667	1	0.762250
14.483333	1	0.817500
14.500000	1	0.884000
14.516667	1	0.963500
14.533333	1	1.060125
14.550000	1	1.179375
14.566667	1	1.325125
14.583333	1	1.504375
14.600000	1	1.726000
14.616667	1	2.001500
14.633333	1	2.343125
14.650000	1	2.767500
14.666667	1	3.289500
14.683333	1	3.925625
14.700000	1	4.692750
14.716667	1	5.606250
14.733333	1	6.680375
14.750000	1	7.926625
14.766667	1	9.351500
14.783333	1	10.956625
14.800000	1	12.740375
14.816667	1	14.696625
14.833333	1	16.814875
14.850000	1	19.078125
14.866667	1	21.463625
14.883333	1	23.944500
14.900000	1	26.487125
14.916667	1	29.054125
14.933333	1	31.600625
14.950000	1	34.076125
14.966667	1	36.427250
14.983333	1	38.594500
15.000000	1	40.519750
15.016667	1	42.146250
15.033333	1	43.421375
15.050000	1	44.299125
15.066667	1	44.744250
15.083333	1	44.737375
15.100000	1	44.278875
15.116667	1	43.385250
15.133333	1	42.088250
15.150000	1	40.433375
15.166667	1	38.479375
15.183333	1	36.292000
15.200000	1	33.936375
15.216667	1	31.477000
15.233333	1	28.975500
15.250000	1	26.487000
15.266667	1	24.059375
15.283333	1	21.732000
15.300000	1	19.534000
15.316667	1	17.486500
15.333333	1	15.602000
15.350000	1	13.884125
15.366667	1	12.333375
15.383333	1	10.943750
15.400000	1	9.707125
15.416667	1	8.612875
15.433333	1	7.648125
15.450000	1	6.802875
15.466667	1	6.064125
15.483333	1	5.420875
15.500000	1	4.864000
15.516667	1	4.382375
15.533333	1	3.966750
15.550000	1	3.609250
15.566667	1	3.302875
15.583333	1	3.040000
15.600000	1	2.814500
15.616667	1	2.621500
15.633333	1	2.456625
15.650000	1	2.316375
15.666667	1	2.196125
15.683333	1	2.092500
15.700000	1	2.003500
15.716667	1	1.927625
15.733333	1	1.861000
15.750000	1	1.801875
15.766667	1	1.748750
15.783333	1	1.700750
15.800000	1	1.654750
15.816667	1	1.610375
15.833333	1	1.567625
15.850000	1	1.525625
15.866667	1	1.484000
15.883333	1	1.441750
15.900000	1	1.400250
15.916667	1	1.359250
15.933333	1	1.318750
15.950000	1	1.280625
15.966667	1	1.242500
15.983333	1	1.206500
16.000000	1	1.172875
16.016667	1	1.140875
16.033333	1	1.110125
16.050000	1	1.082625
16.066667	1	1.057000
16.083333	1	1.033375
16.100000	1	1.012250
16.116667	1	0.992500
16.133333	1	0.975250
16.150000	1	0.959500
16.166667	1	0.946000
16.183333	1	0.934500
16.200000	1	0.924500
16.216667	1	0.916000
16.233333	1	0.909000
16.250000	1	0.902750
16.266667	1	0.898125
16.283333	1	0.894125
16.300000	1	0.890750
16.316667	1	0.887750
16.333333	1	0.886000
16.350000	1	0.884500
16.366667	1	0.882875
16.383333	1	0.881375
16.400000	1	0.880750
16.416667	1	0.879625
16.433333	1	0.878750
16.450000	1	0.877375
16.466667	1	0.875375
16.483333	1	0.873000
16.500000	1	0.871500
16.516667	1	0.870250
16.533333	1	0.868875
16.550000	1	0.868000
16.566667	1	0.867125
16.583333	1	0.866750
16.600000	1	0.866875
16.616667	1	0.867625
16.633333	1	0.868875
16.650000	1	0.870250
16.666667	1	0.873000
16.683333	1	0.875875
16.700000	1	0.879250
16.716667	1	0.883500
16.733333	1	0.887875
16.750000	1	0.892125
16.766667	1	0.897125
16.783333	1	0.902625
16.800000	1	0.908500
16.816667	1	0.913750
16.833333	1	0.918875
16.850000	1	0.923875
16.866667	1	0.928000
16.883333	1	0.933000
16.900000	1	0.937500
16.916667	1	0.941875
16.933333	1	0.945750
16.950000	1	0.949375
16.966667	1	0.951750
16.983333	1	0.953875
17.000000	1	0.955250
17.016667	1	0.956625
17.033333	1	0.957250
17.050000	1	0.957375
17.066667	1	0.957500
17.083333	1	0.957125
17.100000	1	0.956750
17.116667	1	0.955750
17.133333	1	0.955250
17.150000	1	0.954750
17.166667	1	0.954750
17.183333	1	0.953750
17.200000	1	0.952625
17.216667	1	0.951875
17.233333	1	0.950750
17.250000	1	0.948125
17.266667	1	0.945500
17.283333	1	0.941875
17.300000	1	0.937375
17.316667	1	0.932750
17.333333	1	0.927125
17.350000	1	0.920500
17.366667	1	0.913500
17.383333	1	0.906750
17.400000	1	0.899625
17.416667	1	0.891375
17.433333	1	0.884125
17.450000	1	0.877375
17.466667	1	0.869875
17.483333	1	0.864250
17.500000	1	0.858250
17.516667	1	0.853500
17.533333	1	0.849375
17.550000	1	0.845875
17.566667	1	0.844000
17.583333	1	0.844250
17.600000	1	0.845375
17.616667	1	0.848000
17.633333	1	0.851875
17.650000	1	0.857500
17.666667	1	0.864250
17.683333	1	0.872000
17.700000	1	0.881875
17.716667	1	0.892375
17.733333	1	0.903500
17.750000	1	0.916125
17.766667	1	0.929000
17.783333	1	0.942500
17.800000	1	0.956875
17.816667	1	0.971000
17.833333	1	0.984625
17.850000	1	0.998250
17.866667	1	1.012250
17.883333	1	1.024750
17.900000	1	1.036625
17.916667	1	1.048000
17.933333	1	1.058000
17.950000	1	1.065875
17.966667	1	1.073250
17.983333	1	1.079125
18.000000	1	1.083000
18.016667	1	1.085500
18.033333	1	1.085875
18.050000	1	1.084250
18.066667	1	1.080500
18.083333	1	1.075500
18.100000	1	1.068500
18.116667	1	1.060750
18.133333	1	1.051875
18.150000	1	1.041375
18.166667	1	1.030250
18.183333	1	1.018500
18.200000	1	1.006625
18.216667	1	0.993500
18.233333	1	0.980875
18.250000	1	0.968250
18.266667	1	0.956000
18.283333	1	0.943250
18.300000	1	0.931125
18.316667	1	0.919500
18.333333	1	0.909250
18.350000	1	0.898625
18.366667	1	0.889125
18.383333	1	0.880750
18.400000	1	0.872625
18.416667	1	0.866375
18.433333	1	0.860500
18.450000	1	0.855500
18.466667	1	0.851250
18.483333	1	0.847375
18.500000	1	0.844500
18.516667	1	0.841750
18.533333	1	0.840625
18.550000	1	0.840000
18.566667	1	0.839750
18.583333	1	0.840000
18.600000	1	0.840125
18.616667	1	0.840750
18.633333	1	0.842750
18.650000	1	0.844750
18.666667	1	0.846000
18.683333	1	0.848000
18.700000	1	0.851250
18.716667	1	0.853625
18.733333	1	0.857125
18.750000	1	0.861000
18.766667	1	0.865125
18.783333	1	0.869875
18.800000	1	0.875625
18.816667	1	0.881375
18.833333	1	0.887875
18.850000	1	0.895500
18.866667	1	0.903250
18.883333	1	0.912125
18.900000	1	0.922500
18.916667	1	0.933125
18.933333	1	0.945750
18.950000	1	0.960125
18.966667	1	0.975750
18.983333	1	0.993250
19.000000	1	1.011375
19.016667	1	1.031750
19.033333	1	1.054250
19.050000	1	1.077750
19.066667	1	1.103375
19.083333	1	1.131500
19.100000	1	1.160250
19.116667	1	1.191250
19.133333	1	1.223250
19.150000	1	1.257000
19.166667	1	1.291000
19.183333	1	1.325250
19.200000	1	1.360750
19.216667	1	1.395000
19.233333	1	1.427875
19.250000	1	1.460250
19.266667	1	1.490125
19.283333	1	1.517875
19.300000	1	1.542500
19.316667	1	1.563625
19.333333	1	1.580125
19.350000	1	1.592000
19.366667	1	1.599375
19.383333	1	1.601375
19.400000	1	1.598125
19.416667	1	1.590125
19.433333	1	1.577125
19.450000	1	1.559250
19.466667	1	1.537375
19.483333	1	1.511750
19.500000	1	1.482000
19.516667	1	1.449500
19.533333	1	1.414375
19.550000	1	1.376750
19.566667	1	1.338250
19.583333	1	1.298875
19.600000	1	1.259000
19.616667	1	1.220000
19.633333	1	1.181375
19.650000	1	1.144500
19.666667	1	1.109250
19.683333	1	1.076500
19.700000	1	1.046125
19.716667	1	1.018500
19.733333	1	0.993125
19.750000	1	0.970875
19.766667	1	0.952250
19.783333	1	0.936750
19.800000	1	0.924125
19.816667	1	0.914250
19.833333	1	0.907250
19.850000	1	0.903375
19.866667	1	0.902875
19.883333	1	0.904375
19.900000	1	0.907750
19.916667	1	0.915000
19.933333	1	0.923625
19.950000	1	0.934875
19.966667	1	0.947625
19.983333	1	0.961625
20.000000	1	0.977375
20.016667	1	0.993625
20.033333	1	1.010125
20.050000	1	1.027125
20.066667	1	1.044000
20.083333	1	1.060625
20.100000	1	1.076625
20.116667	1	1.092375
20.133333	1	1.108125
20.150000	1	1.121875
20.166667	1	1.135500
20.183333	1	1.147375
20.200000	1	1.158500
20.216667	1	1.169375
20.233333	1	1.178875
20.250000	1	1.188125
20.266667	1	1.196375
20.283333	1	1.205500
20.300000	1	1.214500
20.316667	1	1.224125
20.333333	1	1.234125
20.350000	1	1.244250
20.366667	1	1.256000
20.383333	1	1.268375
20.400000	1	1.281125
20.416667	1	1.295625
20.433333	1	1.310625
20.450000	1	1.325375
20.466667	1	1.341250
20.483333	1	1.358250
20.500000	1	1.374375
20.516667	1	1.390625
20.533333	1	1.406750
20.550000	1	1.422500
20.566667	1	1.437625
20.583333	1	1.451875
20.600000	1	1.465375
20.616667	1	1.477875
20.633333	1	1.489250
20.650000	1	1.498750
20.666667	1	1.508000
20.683333	1	1.517000
20.700000	1	1.525625
20.716667	1	1.534375
20.733333	1	1.544125
20.750000	1	1.555125
20.766667	1	1.566625
20.783333	1	1.579625
20.800000	1	1.595000
20.816667	1	1.612875
20.833333	1	1.633625
20.850000	1	1.657250
20.866667	1	1.683250
20.883333	1	1.712000
20.900000	1	1.742125
20.916667	1	1.774000
20.933333	1	1.807250
20.950000	1	1.840875
20.966667	1	1.873500
20.983333	1	1.903875
21.000000	1	1.930625
21.016667	1	1.953625
21.033333	1	1.971125
21.050000	1	1.982000
21.066667	1	1.986375
21.083333	1	1.983375
21.100000	1	1.971250
21.116667	1	1.952125
21.133333	1	1.925500
21.150000	1	1.891000
21.166667	1	1.849875
21.183333	1	1.802250
21.200000	1	1.748875
21.216667	1	1.691500
21.233333	1	1.631625
21.250000	1	1.569750
21.266667	1	1.506625
21.283333	1	1.443625
21.300000	1	1.381750
21.316667	1	1.322000
21.333333	1	1.264375
21.350000	1	1.209000
21.366667	1	1.157125
21.383333	1	1.108750
21.400000	1	1.063250
21.416667	1	1.021625
21.433333	1	0.983500
21.450000	1	0.948875
21.466667	1	0.917875
21.483333	1	0.889500
21.500000	1	0.864625
21.516667	1	0.842875
21.533333	1	0.823875
21.550000	1	0.806375
21.566667	1	0.791125
21.583333	1	0.778000
21.600000	1	0.766750
21.616667	1	0.756500
21.633333	1	0.747750
21.650000	1	0.739750
21.666667	1	0.733500
21.683333	1	0.728500
21.700000	1	0.724125
21.716667	1	0.721000
21.733333	1	0.717875
21.750000	1	0.715750
21.766667	1	0.714125
21.783333	1	0.712500
21.800000	1	0.711125
21.816667	1	0.710250
21.833333	1	0.710125
21.850000	1	0.710500
21.866667	1	0.711250
21.883333	1	0.712625
21.900000	1	0.713750
21.916667	1	0.715875
21.933333	1	0.717000
21.950000	1	0.719750
21.966667	1	0.722750
21.983333	1	0.725750
22.000000	1	0.728875
22.016667	1	0.732875
22.033333	1	0.736125
22.050000	1	0.739000
22.066667	1	0.742000
22.083333	1	0.744875
22.100000	1	0.748250
22.116667	1	0.750875
22.133333	1	0.752625
22.150000	1	0.753500
22.166667	1	0.754125
22.183333	1	0.755375
22.200000	1	0.755500
22.216667	1	0.754375
22.233333	1	0.753250
22.250000	1	0.751375
22.266667	1	0.749125
22.283333	1	0.746375
22.300000	1	0.743500
22.316667	1	0.741125
22.333333	1	0.738750
22.350000	1	0.736375
22.366667	1	0.733625
22.383333	1	0.731625
22.400000	1	0.729500
22.416667	1	0.727625
22.433333	1	0.726625
22.450000	1	0.725875
22.466667	1	0.725875
22.483333	1	0.726875
22.500000	1	0.727250
22.516667	1	0.729000
22.533333	1	0.730875
22.550000	1	0.733375
22.566667	1	0.736500
22.583333	1	0.739375
22.600000	1	0.742750
22.616667	1	0.746625
22.633333	1	0.750125
22.650000	1	0.754250
22.666667	1	0.757875
22.683333	1	0.761750
22.700000	1	0.765500
22.716667	1	0.768375
22.733333	1	0.771250
22.750000	1	0.774250
22.766667	1	0.776625
22.783333	1	0.778500
22.800000	1	0.780000
22.816667	1	0.781250
22.833333	1	0.781750
22.850000	1	0.781500
22.866667	1	0.781125
22.883333	1	0.780250
22.900000	1	0.778875
22.916667	1	0.776625
22.933333	1	0.774750
22.950000	1	0.772250
22.966667	1	0.769000
22.983333	1	0.765625
23.000000	1	0.761750
23.016667	1	0.757250
23.033333	1	0.753125
23.050000	1	0.749250
23.066667	1	0.745625
23.083333	1	0.741125
23.100000	1	0.737375
23.116667	1	0.734250
23.133333	1	0.731250
23.150000	1	0.728250
23.166667	1	0.725750
23.183333	1	0.723500
23.200000	1	0.722500
23.216667	1	0.722375
23.233333	1	0.723125
23.250000	1	0.724125
23.266667	1	0.726250
23.283333	1	0.730375
23.300000	1	0.735500
23.316667	1	0.741625
23.333333	1	0.749250
23.350000	1	0.757375
23.366667	1	0.767375
23.383333	1	0.779875
23.400000	1	0.794625
23.416667	1	0.812000
23.433333	1	0.831875
23.450000	1	0.855000
23.466667	1	0.881875
23.483333	1	0.913375
23.500000	1	0.948875
23.516667	1	0.989500
23.533333	1	1.037000
23.550000	1	1.090500
23.566667	1	1.150875
23.583333	1	1.218375
23.600000	1	1.294000
23.616667	1	1.377875
23.633333	1	1.471250
23.650000	1	1.572500
23.666667	1	1.684000
23.683333	1	1.804625
23.700000	1	1.935375
23.716667	1	2.075875
23.733333	1	2.225875
23.750000	1	2.385125
23.766667	1	2.551750
23.783333	1	2.727750
23.800000	1	2.908875
23.816667	1	3.095625
23.833333	1	3.287000
23.850000	1	3.481125
23.866667	1	3.674625
23.883333	1	3.866625
23.900000	1	4.055250
23.916667	1	4.237000
23.933333	1	4.409500
23.950000	1	4.569625
23.966667	1	4.714750
23.983333	1	4.843000
24.000000	1	4.950750
24.016667	1	5.037750
24.033333	1	5.101250
24.050000	1	5.140500
24.066667	1	5.154750
24.083333	1	5.143750
24.100000	1	5.107000
24.116667	1	5.046250
24.133333	1	4.962875
24.150000	1	4.856375
24.166667	1	4.730875
24.183333	1	4.588625
24.200000	1	4.431500
24.216667	1	4.263625
24.233333	1	4.086125
24.250000	1	3.902625
24.266667	1	3.715875
24.283333	1	3.528000
24.300000	1	3.341000
24.316667	1	3.157750
24.333333	1	2.979625
24.350000	1	2.807750
24.366667	1	2.643750
24.383333	1	2.487375
24.400000	1	2.340875
24.416667	1	2.204375
24.433333	1	2.077375
24.450000	1	1.960000
24.466667	1	1.852875
24.483333	1	1.755000
24.500000	1	1.665375
24.516667	1	1.584625
24.533333	1	1.510750
24.550000	1	1.443375
24.566667	1	1.383000
24.583333	1	1.328625
24.600000	1	1.278500
24.616667	1	1.233000
24.633333	1	1.191250
24.650000	1	1.153375
24.666667	1	1.118125
24.683333	1	1.085875
24.700000	1	1.055625
24.716667	1	1.027625
24.733333	1	1.001250
24.750000	1	0.975125
24.766667	1	0.950000
24.783333	1	0.926875
24.800000	1	0.904500
24.816667	1	0.883375
24.833333	1	0.863000
24.850000	1	0.843750
24.866667	1	0.824375
24.883333	1	0.806375
24.900000	1	0.789125
24.916667	1	0.772500
24.933333	1	0.756625
24.950000	1	0.740625
24.966667	1	0.726375
24.983333	1	0.713125
25.000000	1	0.700625
25.016667	1	0.689125
25.033333	1	0.677875
25.050000	1	0.668250
25.066667	1	0.659750
25.083333	1	0.652000
25.100000	1	0.645250
25.116667	1	0.638750
25.133333	1	0.633000
25.150000	1	0.628500
25.166667	1	0.624625
25.183333	1	0.621500
25.200000	1	0.619750
25.216667	1	0.618125
25.233333	1	0.616750
25.250000	1	0.615875
25.266667	1	0.615500
25.283333	1	0.615625
25.300000	1	0.615750
25.316667	1	0.616500
25.333333	1	0.617875
25.350000	1	0.619625
25.366667	1	0.621250
25.383333	1	0.622875
25.400000	1	0.625000
25.416667	1	0.626500
25.433333	1	0.628500
25.450000	1	0.630875
25.466667	1	0.633000
25.483333	1	0.635500
25.500000	1	0.637625
25.516667	1	0.639250
25.533333	1	0.641125
25.550000	1	0.642875
25.566667	1	0.644000
25.583333	1	0.644750
25.600000	1	0.645375
25.616667	1	0.645625
25.633333	1	0.646125
25.650000	1	0.646000
25.666667	1	0.645625
25.683333	1	0.645500
25.700000	1	0.644750
25.716667	1	0.644000
25.733333	1	0.642250
25.750000	1	0.641125
25.766667	1	0.639875
25.783333	1	0.638000
25.800000	1	0.636375
25.816667	1	0.634625
25.833333	1	0.632875
25.850000	1	0.631000
25.866667	1	0.629375
25.883333	1	0.627375
25.900000	1	0.626125
25.916667	1	0.624375
25.933333	1	0.622375
25.950000	1	0.620875
25.966667	1	0.619375
25.983333	1	0.617750
26.000000	1	0.616250
26.016667	1	0.614750
26.033333	1	0.613875
26.050000	1	0.613000
26.066667	1	0.612125
26.083333	1	0.611875
26.100000	1	0.612125
26.116667	1	0.612125
26.133333	1	0.611875
26.150000	1	0.612000
26.166667	1	0.612000
26.183333	1	0.612875
26.200000	1	0.613625
26.216667	1	0.614250
26.233333	1	0.615375
26.250000	1	0.617375
26.266667	1	0.618750
26.283333	1	0.620250
26.300000	1	0.622125
26.316667	1	0.624125
26.333333	1	0.625250
26.350000	1	0.626000
26.366667	1	0.626875
26.383333	1	0.628125
26.400000	1	0.629125
26.416667	1	0.629125
26.433333	1	0.628750
26.450000	1	0.628750
26.466667	1	0.628000
26.483333	1	0.627000
26.500000	1	0.624750
26.516667	1	0.622750
26.533333	1	0.620375
26.550000	1	0.617125
26.566667	1	0.613250
26.583333	1	0.609250
26.600000	1	0.604750
26.616667	1	0.600125
26.633333	1	0.594500
26.650000	1	0.589125
26.666667	1	0.582375
26.683333	1	0.576500
26.700000	1	0.569250
26.716667	1	0.561875
26.733333	1	0.555125
26.750000	1	0.547625
26.766667	1	0.541125
26.783333	1	0.533625
26.800000	1	0.526125
26.816667	1	0.519500
26.833333	1	0.513000
26.850000	1	0.505875
26.866667	1	0.500000
26.883333	1	0.493500
26.900000	1	0.488000
26.916667	1	0.482375
26.933333	1	0.477750
26.950000	1	0.473250
26.966667	1	0.469375
26.983333	1	0.466250
27.000000	1	0.462750
27.016667	1	0.459875
27.033333	1	0.458125
27.050000	1	0.456625
27.066667	1	0.455500
27.083333	1	0.455125
27.100000	1	0.454500
27.116667	1	0.455250
27.133333	1	0.457125
27.150000	1	0.459125
27.166667	1	0.461375
27.183333	1	0.465375
27.200000	1	0.468875
27.216667	1	0.473250
27.233333	1	0.478375
27.250000	1	0.484875
27.266667	1	0.492250
27.283333	1	0.499750
27.300000	1	0.508750
27.316667	1	0.519250
27.333333	1	0.530875
27.350000	1	0.544125
27.366667	1	0.559250
27.383333	1	0.575750
27.400000	1	0.593625
27.416667	1	0.613875
27.433333	1	0.636625
27.450000	1	0.662250
27.466667	1	0.690625
27.483333	1	0.722000
27.500000	1	0.756125
27.516667	1	0.793875
27.533333	1	0.835875
27.550000	1	0.881750
27.566667	1	0.931500
27.583333	1	0.986125
27.600000	1	1.045625
27.616667	1	1.110500
27.633333	1	1.181625
27.650000	1	1.257875
27.666667	1	1.339000
27.683333	1	1.425750
27.700000	1	1.518250
27.716667	1	1.616000
27.733333	1	1.719750
27.750000	1	1.828250
27.766667	1	1.941375
27.783333	1	2.058375
27.800000	1	2.180250
27.816667	1	2.305750
27.833333	1	2.434125
27.850000	1	2.565625
27.866667	1	2.697500
27.883333	1	2.829750
27.900000	1	2.961875
27.916667	1	3.091875
27.933333	1	3.219375
27.950000	1	3.342625
27.966667	1	3.460750
27.983333	1	3.573000
28.000000	1	3.676125
28.016667	1	3.771250
28.033333	1	3.855875
28.050000	1	3.929125
28.066667	1	3.989125
28.083333	1	4.036750
28.100000	1	4.068500
28.116667	1	4.086125
28.133333	1	4.088250
28.150000	1	4.074625
28.166667	1	4.045125
28.183333	1	3.999625
28.200000	1	3.939500
28.216667	1	3.864125
28.233333	1	3.775000
28.250000	1	3.673750
28.266667	1	3.560625
28.283333	1	3.437125
28.300000	1	3.305250
28.316667	1	3.167000
28.333333	1	3.022750
28.350000	1	2.875250
28.366667	1	2.725125
28.383333	1	2.573625
28.400000	1	2.423250
28.416667	1	2.275000
28.433333	1	2.129375
28.450000	1	1.987375
28.466667	1	1.848375
28.483333	1	1.715000
28.500000	1	1.587625
28.516667	1	1.465375
28.533333	1	1.348000
28.550000	1	1.237500
28.566667	1	1.131500
28.583333	1	1.031250
28.600000	1	0.936000
28.616667	1	0.846250
28.633333	1	0.761000
28.650000	1	0.680125
28.666667	1	0.603125
28.683333	1	0.530250
28.700000	1	0.460625
28.716667	1	0.394625
28.733333	1	0.331625
28.750000	1	0.271500
28.766667	1	0.214250
28.783333	1	0.160125
28.800000	1	0.108500
28.816667	1	0.060000
28.833333	1	0.014375
28.850000	1	-0.027875
28.866667	1	-0.068125
28.883333	1	-0.105500
28.900000	1	-0.140500
28.916667	1	-0.171875
28.933333	1	-0.200750
28.950000	1	-0.225500
28.966667	1	-0.247000
28.983333	1	-0.265375
29.000000	1	-0.280125
29.016667	1	-0.291250
29.033333	1	-0.299125
29.050000	1	-0.303875
29.066667	1	-0.304875
29.083333	1	-0.302250
29.100000	1	-0.296125
29.116667	1	-0.286375
29.133333	1	-0.273500
29.150000	1	-0.258125
29.166667	1	-0.239500
29.183333	1	-0.218625
29.200000	1	-0.195250
29.216667	1	-0.169250
29.233333	1	-0.142500
29.250000	1	-0.113125
29.266667	1	-0.082875
29.283333	1	-0.050875
29.300000	1	-0.018000
29.316667	1	0.015875
29.333333	1	0.049875
29.350000	1	0.083375
29.366667	1	0.117750
29.383333	1	0.151875
29.400000	1	0.184375
29.416667	1	0.217125
29.433333	1	0.249625
29.450000	1	0.280500
29.466667	1	0.310875
29.483333	1	0.339875
29.500000	1	0.367750
29.516667	1	0.394625
29.533333	1	0.419625
29.550000	1	0.443250
29.566667	1	0.465750
29.583333	1	0.487000
29.600000	1	0.506000
29.616667	1	0.523750
29.633333	1	0.540250
29.650000	1	0.555375
29.666667	1	0.568875
29.683333	1	0.580875
29.700000	1	0.591375
29.716667	1	0.601000
29.733333	1	0.609250
29.750000	1	0.615625
29.766667	1	0.621500
29.783333	1	0.627000
29.800000	1	0.631375
29.816667	1	0.634250
29.833333	1	0.637000
29.850000	1	0.638375
29.866667	1	0.638750
29.883333	1	0.638875
29.900000	1	0.638375
29.916667	1	0.637125
29.933333	1	0.635250
29.950000	1	0.633375
29.966667	1	0.631250
29.983333	1	0.628875
30.000000	1	0.626375
30.016667	1	0.624500
30.033333	1	0.622375
30.050000	1	0.620250
30.066667	1	0.618125
30.083333	1	0.616125
30.100000	1	0.615500
30.116667	1	0.614625
30.133333	1	0.613125
30.150000	1	0.612750
30.166667	1	0.613125
30.183333	1	0.614625
30.200000	1	0.615250
30.216667	1	0.616750
30.233333	1	0.619625
30.250000	1	0.623250
30.266667	1	0.627875
30.283333	1	0.632500
30.300000	1	0.637625
30.316667	1	0.643625
30.333333	1	0.650375
30.350000	1	0.658750
30.366667	1	0.668125
30.383333	1	0.679375
30.400000	1	0.691250
30.416667	1	0.704125
30.433333	1	0.717750
30.450000	1	0.733125
30.466667	1	0.749375
30.483333	1	0.767250
30.500000	1	0.785250
30.516667	1	0.805125
30.533333	1	0.826500
30.550000	1	0.849125
30.566667	1	0.872250
30.583333	1	0.897125
30.600000	1	0.922500
30.616667	1	0.948375
30.633333	1	0.974750
30.650000	1	1.001625
30.666667	1	1.029000
30.683333	1	1.055500
30.700000	1	1.081625
30.716667	1	1.107250
30.733333	1	1.132625
30.750000	1	1.157250
30.766667	1	1.180375
30.783333	1	1.201750
30.800000	1	1.221250
30.816667	1	1.237875
30.833333	1	1.252250
30.850000	1	1.264375
30.866667	1	1.274250
30.883333	1	1.280750
30.900000	1	1.284000
30.916667	1	1.283750
30.933333	1	1.281250
30.950000	1	1.275375
30.966667	1	1.266125
30.983333	1	1.253750
31.000000	1	1.238250
31.016667	1	1.219750
31.033333	1	1.198625
31.050000	1	1.175500
31.066667	1	1.149625
31.083333	1	1.121750
31.100000	1	1.093375
31.116667	1	1.062750
31.133333	1	1.030875
31.150000	1	0.998750
31.166667	1	0.966125
31.183333	1	0.933125
31.200000	1	0.900500
31.216667	1	0.868500
31.233333	1	0.837000
31.250000	1	0.805250
31.266667	1	0.774500
31.283333	1	0.744875
31.300000	1	0.717000
31.316667	1	0.690625
31.333333	1	0.664375
31.350000	1	0.640375
31.366667	1	0.617500
31.383333	1	0.595750
31.400000	1	0.575125
31.416667	1	0.556750
31.433333	1	0.539250
31.450000	1	0.523500
31.466667	1	0.508250
31.483333	1	0.495500
31.500000	1	0.482875
31.516667	1	0.471375
31.533333	1	0.461375
31.550000	1	0.453375
31.566667	1	0.444875
31.583333	1	0.438250
31.600000	1	0.432125
31.616667	1	0.426625
31.633333	1	0.422125
31.650000	1	0.417500
31.666667	1	0.414375
31.683333	1	0.411625
31.700000	1	0.409500
31.716667	1	0.408375
31.733333	1	0.407875
31.750000	1	0.408500
31.766667	1	0.408875
31.783333	1	0.409500
31.800000	1	0.410625
31.816667	1	0.412500
31.833333	1	0.414125
31.850000	1	0.415625
31.866667	1	0.417375
31.883333	1	0.419625
31.900000	1	0.422500
31.916667	1	0.425250
31.933333	1	0.427875
31.950000	1	0.430625
31.966667	1	0.433375
31.983333	1	0.435875
32.000000	1	0.437625
32.016667	1	0.438750
32.033333	1	0.440250
32.050000	1	0.441375
32.066667	1	0.442250
32.083333	1	0.442625
32.100000	1	0.442750
32.116667	1	0.442500
32.133333	1	0.441375
32.150000	1	0.440375
32.166667	1	0.438750
32.183333	1	0.436875
32.200000	1	0.433500
32.216667	1	0.429750
32.233333	1	0.425750
32.250000	1	0.420500
32.266667	1	0.416500
32.283333	1	0.411250
32.300000	1	0.405125
32.316667	1	0.398500
32.333333	1	0.391875
32.350000	1	0.385125
32.366667	1	0.377625
32.383333	1	0.370125
32.400000	1	0.362625
32.416667	1	0.354625
32.433333	1	0.347125
32.450000	1	0.339500
32.466667	1	0.331500
32.483333	1	0.323750
32.500000	1	0.315375
32.516667	1	0.307500
32.533333	1	0.299500
32.550000	1	0.293000
32.566667	1	0.286875
32.583333	1	0.279750
32.600000	1	0.272625
32.616667	1	0.266625
32.633333	1	0.260625
32.650000	1	0.254375
32.666667	1	0.249375
32.683333	1	0.244500
32.700000	1	0.239500
32.716667	1	0.235125
32.733333	1	0.230875
32.750000	1	0.226750
32.766667	1	0.223000
32.783333	1	0.220000
32.800000	1	0.216750
32.816667	1	0.213875
32.833333	1	0.210625
32.850000	1	0.207625
32.866667	1	0.205250
32.883333	1	0.202375
32.900000	1	0.199625
32.916667	1	0.197500
32.933333	1	0.195375
32.950000	1	0.194000
32.966667	1	0.192500
32.983333	1	0.191000
33.000000	1	0.189500
33.016667	1	0.188250
33.033333	1	0.187375
33.050000	1	0.185375
33.066667	1	0.184125
33.083333	1	0.183250
33.100000	1	0.182375
33.116667	1	0.181375
33.133333	1	0.180500
33.150000	1	0.179875
33.166667	1	0.179375
33.183333	1	0.178875
33.200000	1	0.178125
33.216667	1	0.177125
33.233333	1	0.176625
33.250000	1	0.176625
33.266667	1	0.177125
33.283333	1	0.176750
33.300000	1	0.176875
33.316667	1	0.177625
33.333333	1	0.178500
33.350000	1	0.179125
33.366667	1	0.179875
33.383333	1	0.180375
33.400000	1	0.181000
33.416667	1	0.182750
33.433333	1	0.184625
33.450000	1	0.186500
33.466667	1	0.187500
33.483333	1	0.190000
33.500000	1	0.192500
33.516667	1	0.195250
33.533333	1	0.198625
33.550000	1	0.201750
33.566667	1	0.205500
33.583333	1	0.209875
33.600000	1	0.214250
33.616667	1	0.219000
33.633333	1	0.224000
33.650000	1	0.230250
33.666667	1	0.236875
33.683333	1	0.243875
33.700000	1	0.252500
33.716667	1	0.261000
33.733333	1	0.270250
33.750000	1	0.280625
33.766667	1	0.292000
33.783333	1	0.304375
33.800000	1	0.317500
33.816667	1	0.332000
33.833333	1	0.347500
33.850000	1	0.364000
33.866667	1	0.382000
33.883333	1	0.401125
33.900000	1	0.421375
33.916667	1	0.443000
33.933333	1	0.466500
33.950000	1	0.491125
33.966667	1	0.517625
33.983333	1	0.545250
34.000000	1	0.574500
34.016667	1	0.604625
34.033333	1	0.636500
34.050000	1	0.669375
34.066667	1	0.703625
34.083333	1	0.739125
34.100000	1	0.775125
34.116667	1	0.812625
34.133333	1	0.851125
34.150000	1	0.889750
34.166667	1	0.928750
34.183333	1	0.968375
34.200000	1	1.007750
34.216667	1	1.047125
34.233333	1	1.085625
34.250000	1	1.123875
34.266667	1	1.160750
34.283333	1	1.196500
34.300000	1	1.230625
34.316667	1	1.263125
34.333333	1	1.293250
34.350000	1	1.321625
34.366667	1	1.346875
34.383333	1	1.369125
34.400000	1	1.388375
34.416667	1	1.405125
34.433333	1	1.417875
34.450000	1	1.427625
34.466667	1	1.433500
34.483333	1	1.436000
34.500000	1	1.434875
34.516667	1	1.430125
34.533333	1	1.422750
34.550000	1	1.412000
34.566667	1	1.397375
34.583333	1	1.380375
34.600000	1	1.360000
34.616667	1	1.336625
34.633333	1	1.311250
34.650000	1	1.283500
34.666667	1	1.254250
34.683333	1	1.222875
34.700000	1	1.190625
34.716667	1	1.157250
34.733333	1	1.122625
34.750000	1	1.087500
34.766667	1	1.051750
34.783333	1	1.015750
34.800000	1	0.979875
34.816667	1	0.944375
34.833333	1	0.908875
34.850000	1	0.875125
34.866667	1	0.841500
34.883333	1	0.809500
34.900000	1	0.778000
34.916667	1	0.748125
34.933333	1	0.718750
34.950000	1	0.690750
34.966667	1	0.664750
34.983333	1	0.640000
35.000000	1	0.615625
35.016667	1	0.592750
35.033333	1	0.572250
35.050000	1	0.552875
35.066667	1	0.535250
35.083333	1	0.518125
35.100000	1	0.502250
35.116667	1	0.487500
35.133333	1	0.473625
35.150000	1	0.461375
35.166667	1	0.450250
35.183333	1	0.440125
35.200000	1	0.430500
35.216667	1	0.421250
35.233333	1	0.412375
35.250000	1	0.405000
35.266667	1	0.397750
35.283333	1	0.392000
35.300000	1	0.387000
35.316667	1	0.382375
35.333333	1	0.378125
35.350000	1	0.373250
35.366667	1	0.369250
35.383333	1	0.366000
35.400000	1	0.362500
35.416667	1	0.358875
35.433333	1	0.355500
35.450000	1	0.352375
35.466667	1	0.349500
35.483333	1	0.347375
35.500000	1	0.345750
35.516667	1	0.343000
35.533333	1	0.341500
35.550000	1	0.339000
35.566667	1	0.336125
35.583333	1	0.333375
35.600000	1	0.331125
35.616667	1	0.329000
35.633333	1	0.326625
35.650000	1	0.324375
35.666667	1	0.323000
35.683333	1	0.321375
35.700000	1	0.319375
35.716667	1	0.317875
35.733333	1	0.315625
35.750000	1	0.313375
35.766667	1	0.311500
35.783333	1	0.310125
35.800000	1	0.308500
35.816667	1	0.306375
35.833333	1	0.305250
35.850000	1	0.303500
35.866667	1	0.301625
35.883333	1	0.300250
35.900000	1	0.299375
35.916667	1	0.298125
35.933333	1	0.297500
35.950000	1	0.296875
35.966667	1	0.295875
35.983333	1	0.294500
36.000000	1	0.293875
36.016667	1	0.293125
36.033333	1	0.292625
36.050000	1	0.291625
36.066667	1	0.290625
36.083333	1	0.289375
36.100000	1	0.288625
36.116667	1	0.288125
36.133333	1	0.287750
36.150000	1	0.287000
36.166667	1	0.286875
36.183333	1	0.286125
36.200000	1	0.285125
36.216667	1	0.283375
36.233333	1	0.283125
36.250000	1	0.282375
36.266667	1	0.281375
36.283333	1	0.280000
36.300000	1	0.278875
36.316667	1	0.278000
36.333333	1	0.277000
36.350000	1	0.275500
36.366667	1	0.274125
36.383333	1	0.273000
36.400000	1	0.271875
36.416667	1	0.270500
36.433333	1	0.268625
36.450000	1	0.266625
36.466667	1	0.265000
36.483333	1	0.263125
36.500000	1	0.261125
36.516667	1	0.259500
36.533333	1	0.257625
36.550000	1	0.255375
36.566667	1	0.253250
36.583333	1	0.251250
36.600000	1	0.248375
36.616667	1	0.246000
36.633333	1	0.244125
36.650000	1	0.241250
36.666667	1	0.238500
36.683333	1	0.235500
36.700000	1	0.233250
36.716667	1	0.230625
36.733333	1	0.227625
36.750000	1	0.225000
36.766667	1	0.222250
36.783333	1	0.219125
36.800000	1	0.215500
36.816667	1	0.212125
36.833333	1	0.209625
36.850000	1	0.206500
36.866667	1	0.203250
36.883333	1	0.199750
36.900000	1	0.196250
36.916667	1	0.193375
36.933333	1	0.190250
36.950000	1	0.187125
36.966667	1	0.184500
36.983333	1	0.180750
37.000000	1	0.177250
37.016667	1	0.173750
37.033333	1	0.170375
37.050000	1	0.167375
37.066667	1	0.164750
37.083333	1	0.161625
37.100000	1	0.159000
37.116667	1	0.156250
37.133333	1	0.153500
37.150000	1	0.150625
37.166667	1	0.148000
37.183333	1	0.145625
37.200000	1	0.143250
37.216667	1	0.140875
37.233333	1	0.138750
37.250000	1	0.137125
37.266667	1	0.135750
37.283333	1	0.134125
37.300000	1	0.132750
37.316667	1	0.131250
37.333333	1	0.129500
37.350000	1	0.127750
37.366667	1	0.126125
37.383333	1	0.125125
37.400000	1	0.123500
37.416667	1	0.122750
37.433333	1	0.121500
37.450000	1	0.120625
37.466667	1	0.119500
37.483333	1	0.119625
37.500000	1	0.119000
37.516667	1	0.119125
37.533333	1	0.119375
37.550000	1	0.118125
37.566667	1	0.118375
37.583333	1	0.118500
37.600000	1	0.118750
37.616667	1	0.118500
37.633333	1	0.118250
37.650000	1	0.118375
37.666667	1	0.118875
37.683333	1	0.119250
37.700000	1	0.119625
37.716667	1	0.120625
37.733333	1	0.121250
37.750000	1	0.122125
37.766667	1	0.122625
37.783333	1	0.123500
37.800000	1	0.123875
37.816667	1	0.125000
37.833333	1	0.125500
37.850000	1	0.126500
37.866667	1	0.127500
37.883333	1	0.128250
37.900000	1	0.128875
37.916667	1	0.129500
37.933333	1	0.130250
37.950000	1	0.131125
37.966667	1	0.132500
37.983333	1	0.133250
38.000000	1	0.134250
38.016667	1	0.135000
38.033333	1	0.136625
38.050000	1	0.137750
38.066667	1	0.138625
38.083333	1	0.139625
38.100000	1	0.140750
38.116667	1	0.141625
38.133333	1	0.142250
38.150000	1	0.143125
38.166667	1	0.143500
38.183333	1	0.144375
38.200000	1	0.144875
38.216667	1	0.145875
38.233333	1	0.146875
38.250000	1	0.147500
38.266667	1	0.148500
38.283333	1	0.149500
38.300000	1	0.150125
38.316667	1	0.150250
38.333333	1	0.150750
38.350000	1	0.150875
38.366667	1	0.150875
38.383333	1	0.150875
38.400000	1	0.151500
38.416667	1	0.151250
38.433333	1	0.150875
38.450000	1	0.150375
38.466667	1	0.150875
38.483333	1	0.151625
38.500000	1	0.151875
38.516667	1	0.151250
38.533333	1	0.150625
38.550000	1	0.150250
38.566667	1	0.149625
38.583333	1	0.149375
38.600000	1	0.148500
38.616667	1	0.147125
38.633333	1	0.146375
38.650000	1	0.145625
38.666667	1	0.145625
38.683333	1	0.144375
38.700000	1	0.143000
38.716667	1	0.141500
38.733333	1	0.140375
38.750000	1	0.139625
38.766667	1	0.138000
38.783333	1	0.136750
38.800000	1	0.135875
38.816667	1	0.134500
38.833333	1	0.133500
38.850000	1	0.132000
38.866667	1	0.130625
38.883333	1	0.129250
38.900000	1	0.128500
38.916667	1	0.126500
38.933333	1	0.125250
38.950000	1	0.124000
38.966667	1	0.123500
38.983333	1	0.122000
39.000000	1	0.120500
39.016667	1	0.119625
39.033333	1	0.118875
39.050000	1	0.117500
39.066667	1	0.116250
39.083333	1	0.116125
39.100000	1	0.115250
39.116667	1	0.114250
39.133333	1	0.113250
39.150000	1	0.112375
39.166667	1	0.112000
39.183333	1	0.111875
39.200000	1	0.111500
39.216667	1	0.111250
39.233333	1	0.111000
39.250000	1	0.111125
39.266667	1	0.111125
39.283333	1	0.111750
39.300000	1	0.111750
39.316667	1	0.112000
39.333333	1	0.112375
39.350000	1	0.112875
39.366667	1	0.114000
39.383333	1	0.114625
39.400000	1	0.115250
39.416667	1	0.115875
39.433333	1	0.116500
39.450000	1	0.117625
39.466667	1	0.118625
39.483333	1	0.120000
39.500000	1	0.121125
39.516667	1	0.122500
39.533333	1	0.123250
39.550000	1	0.124000
39.566667	1	0.125375
39.583333	1	0.126625
39.600000	1	0.128000
39.616667	1	0.128500
39.633333	1	0.129875
39.650000	1	0.131625
39.666667	1	0.133375
39.683333	1	0.135125
39.700000	1	0.136500
39.716667	1	0.137875
39.733333	1	0.139000
39.750000	1	0.140625
39.766667	1	0.142250
39.783333	1	0.143875
39.800000	1	0.145250
39.816667	1	0.146500
39.833333	1	0.148125
39.850000	1	0.149750
39.866667	1	0.151375
39.883333	1	0.152875
39.900000	1	0.154000
39.916667	1	0.155875
39.933333	1	0.157375
39.950000	1	0.158250
39.966667	1	0.159375
39.983333	1	0.160750
40.000000	1	0.161625
