File Path	chrom://marshall/Chromeleon7/HPLC_Ultimate_3000/Users/markusar/20230616_CMO_FP13_14_15.seq/342.smp/RI_1.channel/RI_1.chm
Channel	RI_1

Injection Information:
Data Vault	Chromeleon7
Injection	FP14_2.2_s4
Injection Number	17
Position	BD10
Comment	
Processing Method	
Instrument Method	run_25B_method
Type	Unknown
Status	Finished
Injection Date	17.06.2023
Injection Time	03:24:17
Injection Volume (µl)	20.000
Dilution Factor	1.0000
Weight	1.0000

Chromatogram Data Information:
Time Min. (min)	0.000000
Time Max. (min)	40.000000
Data Points	2401
Detector	RI
Generating Data System	Chromeleon 7.2.5.9507
Exporting Data System	Chromeleon 7.2.5.0
Operator	Instrument Controller
Signal Quantity	Refractive 
Signal Unit	µRIU
Signal Min.	-0.114500
Signal Max.	42.029000
Channel	RI_1
Driver Name	RID520Driver.dll
Channel Type	Evaluation
Min. Step (s)	1
Max. Step (s)	1
Average Step (s)	1

Signal Parameter Information:
Signal Info	

Chromatogram Data:
Time (min)	Step (s)	Value (µRIU)
0.000000	n.a.	0.001125
0.016667	1	0.001000
0.033333	1	0.000625
0.050000	1	0.000375
0.066667	1	0.000000
0.083333	1	0.000000
0.100000	1	0.000000
0.116667	1	-0.000500
0.133333	1	-0.001125
0.150000	1	-0.001250
0.166667	1	-0.000625
0.183333	1	-0.000750
0.200000	1	-0.000625
0.216667	1	-0.000500
0.233333	1	-0.000625
0.250000	1	-0.001125
0.266667	1	-0.001125
0.283333	1	-0.001500
0.300000	1	-0.001375
0.316667	1	-0.001500
0.333333	1	-0.002000
0.350000	1	-0.001500
0.366667	1	-0.002250
0.383333	1	-0.002375
0.400000	1	-0.002125
0.416667	1	-0.002750
0.433333	1	-0.004250
0.450000	1	-0.007375
0.466667	1	-0.009250
0.483333	1	-0.011250
0.500000	1	-0.010250
0.516667	1	-0.008500
0.533333	1	-0.006250
0.550000	1	-0.003125
0.566667	1	-0.001125
0.583333	1	0.001375
0.600000	1	0.003375
0.616667	1	0.004500
0.633333	1	0.005125
0.650000	1	0.005625
0.666667	1	0.004250
0.683333	1	0.001875
0.700000	1	-0.000375
0.716667	1	-0.002250
0.733333	1	-0.004375
0.750000	1	-0.005750
0.766667	1	-0.007750
0.783333	1	-0.009250
0.800000	1	-0.010750
0.816667	1	-0.012125
0.833333	1	-0.013500
0.850000	1	-0.014250
0.866667	1	-0.015375
0.883333	1	-0.016500
0.900000	1	-0.017250
0.916667	1	-0.017375
0.933333	1	-0.018250
0.950000	1	-0.018500
0.966667	1	-0.019000
0.983333	1	-0.019000
1.000000	1	-0.019500
1.016667	1	-0.019625
1.033333	1	-0.020000
1.050000	1	-0.020125
1.066667	1	-0.020875
1.083333	1	-0.021375
1.100000	1	-0.021875
1.116667	1	-0.022250
1.133333	1	-0.022125
1.150000	1	-0.022500
1.166667	1	-0.022000
1.183333	1	-0.022250
1.200000	1	-0.022125
1.216667	1	-0.023000
1.233333	1	-0.023500
1.250000	1	-0.024000
1.266667	1	-0.024250
1.283333	1	-0.024875
1.300000	1	-0.025250
1.316667	1	-0.025125
1.333333	1	-0.025375
1.350000	1	-0.025250
1.366667	1	-0.026000
1.383333	1	-0.025625
1.400000	1	-0.025625
1.416667	1	-0.026250
1.433333	1	-0.027000
1.450000	1	-0.027375
1.466667	1	-0.027375
1.483333	1	-0.028125
1.500000	1	-0.028000
1.516667	1	-0.028875
1.533333	1	-0.029375
1.550000	1	-0.029750
1.566667	1	-0.030625
1.583333	1	-0.031000
1.600000	1	-0.031375
1.616667	1	-0.032125
1.633333	1	-0.032125
1.650000	1	-0.032750
1.666667	1	-0.033625
1.683333	1	-0.034125
1.700000	1	-0.034875
1.716667	1	-0.035750
1.733333	1	-0.036500
1.750000	1	-0.037500
1.766667	1	-0.037750
1.783333	1	-0.038125
1.800000	1	-0.038625
1.816667	1	-0.039500
1.833333	1	-0.040500
1.850000	1	-0.041500
1.866667	1	-0.042000
1.883333	1	-0.043250
1.900000	1	-0.043625
1.916667	1	-0.044625
1.933333	1	-0.044625
1.950000	1	-0.044875
1.966667	1	-0.045625
1.983333	1	-0.046250
2.000000	1	-0.046500
2.016667	1	-0.046625
2.033333	1	-0.046625
2.050000	1	-0.047000
2.066667	1	-0.047750
2.083333	1	-0.048125
2.100000	1	-0.048625
2.116667	1	-0.048250
2.133333	1	-0.049000
2.150000	1	-0.049250
2.166667	1	-0.049625
2.183333	1	-0.048875
2.200000	1	-0.049125
2.216667	1	-0.049500
2.233333	1	-0.049375
2.250000	1	-0.049125
2.266667	1	-0.049000
2.283333	1	-0.048500
2.300000	1	-0.048125
2.316667	1	-0.048000
2.333333	1	-0.047250
2.350000	1	-0.047375
2.366667	1	-0.047125
2.383333	1	-0.047000
2.400000	1	-0.046375
2.416667	1	-0.046125
2.433333	1	-0.045750
2.450000	1	-0.044750
2.466667	1	-0.045000
2.483333	1	-0.044750
2.500000	1	-0.043500
2.516667	1	-0.043125
2.533333	1	-0.042875
2.550000	1	-0.042125
2.566667	1	-0.041375
2.583333	1	-0.041125
2.600000	1	-0.040500
2.616667	1	-0.040375
2.633333	1	-0.039875
2.650000	1	-0.039375
2.666667	1	-0.038750
2.683333	1	-0.037625
2.700000	1	-0.036500
2.716667	1	-0.035875
2.733333	1	-0.034375
2.750000	1	-0.034125
2.766667	1	-0.033625
2.783333	1	-0.032750
2.800000	1	-0.031625
2.816667	1	-0.030750
2.833333	1	-0.030000
2.850000	1	-0.029375
2.866667	1	-0.028625
2.883333	1	-0.027625
2.900000	1	-0.026625
2.916667	1	-0.026000
2.933333	1	-0.025250
2.950000	1	-0.024250
2.966667	1	-0.023750
2.983333	1	-0.022500
3.000000	1	-0.021500
3.016667	1	-0.021000
3.033333	1	-0.020500
3.050000	1	-0.019500
3.066667	1	-0.018750
3.083333	1	-0.018125
3.100000	1	-0.016750
3.116667	1	-0.015750
3.133333	1	-0.015125
3.150000	1	-0.014250
3.166667	1	-0.013625
3.183333	1	-0.012500
3.200000	1	-0.011750
3.216667	1	-0.011250
3.233333	1	-0.009750
3.250000	1	-0.008750
3.266667	1	-0.007750
3.283333	1	-0.007000
3.300000	1	-0.006250
3.316667	1	-0.005375
3.333333	1	-0.004750
3.350000	1	-0.003625
3.366667	1	-0.002875
3.383333	1	-0.002250
3.400000	1	-0.001375
3.416667	1	-0.000250
3.433333	1	0.000375
3.450000	1	0.001125
3.466667	1	0.002000
3.483333	1	0.003000
3.500000	1	0.004375
3.516667	1	0.004250
3.533333	1	0.005000
3.550000	1	0.005875
3.566667	1	0.006500
3.583333	1	0.006625
3.600000	1	0.007375
3.616667	1	0.008250
3.633333	1	0.009625
3.650000	1	0.010625
3.666667	1	0.010625
3.683333	1	0.011000
3.700000	1	0.011375
3.716667	1	0.011500
3.733333	1	0.011250
3.750000	1	0.011500
3.766667	1	0.011500
3.783333	1	0.011750
3.800000	1	0.012000
3.816667	1	0.013125
3.833333	1	0.012750
3.850000	1	0.013250
3.866667	1	0.013750
3.883333	1	0.014250
3.900000	1	0.013875
3.916667	1	0.013750
3.933333	1	0.013125
3.950000	1	0.013250
3.966667	1	0.013625
3.983333	1	0.013500
4.000000	1	0.013625
4.016667	1	0.013000
4.033333	1	0.012750
4.050000	1	0.013000
4.066667	1	0.012625
4.083333	1	0.012750
4.100000	1	0.012500
4.116667	1	0.012250
4.133333	1	0.012250
4.150000	1	0.011625
4.166667	1	0.011250
4.183333	1	0.011375
4.200000	1	0.011125
4.216667	1	0.011250
4.233333	1	0.010875
4.250000	1	0.011000
4.266667	1	0.011000
4.283333	1	0.010875
4.300000	1	0.010625
4.316667	1	0.009875
4.333333	1	0.009750
4.350000	1	0.009250
4.366667	1	0.008875
4.383333	1	0.008625
4.400000	1	0.007875
4.416667	1	0.007000
4.433333	1	0.006750
4.450000	1	0.006250
4.466667	1	0.006000
4.483333	1	0.005375
4.500000	1	0.005125
4.516667	1	0.004625
4.533333	1	0.004250
4.550000	1	0.004000
4.566667	1	0.003250
4.583333	1	0.002250
4.600000	1	0.001375
4.616667	1	0.001125
4.633333	1	0.001125
4.650000	1	0.000750
4.666667	1	0.000125
4.683333	1	-0.000500
4.700000	1	-0.000875
4.716667	1	-0.001500
4.733333	1	-0.001750
4.750000	1	-0.002000
4.766667	1	-0.002250
4.783333	1	-0.002500
4.800000	1	-0.002875
4.816667	1	-0.002500
4.833333	1	-0.002875
4.850000	1	-0.002750
4.866667	1	-0.002250
4.883333	1	-0.001625
4.900000	1	-0.001625
4.916667	1	-0.001375
4.933333	1	-0.000875
4.950000	1	0.000250
4.966667	1	0.000750
4.983333	1	0.001375
5.000000	1	0.002125
5.016667	1	0.002625
5.033333	1	0.003625
5.050000	1	0.004625
5.066667	1	0.006000
5.083333	1	0.008125
5.100000	1	0.009375
5.116667	1	0.010750
5.133333	1	0.012250
5.150000	1	0.014000
5.166667	1	0.015500
5.183333	1	0.017750
5.200000	1	0.019500
5.216667	1	0.021750
5.233333	1	0.024000
5.250000	1	0.026625
5.266667	1	0.028625
5.283333	1	0.030375
5.300000	1	0.033000
5.316667	1	0.036250
5.333333	1	0.039000
5.350000	1	0.041375
5.366667	1	0.044375
5.383333	1	0.046875
5.400000	1	0.049375
5.416667	1	0.052000
5.433333	1	0.054625
5.450000	1	0.057375
5.466667	1	0.059500
5.483333	1	0.061000
5.500000	1	0.063500
5.516667	1	0.065500
5.533333	1	0.067625
5.550000	1	0.070000
5.566667	1	0.071625
5.583333	1	0.074000
5.600000	1	0.075250
5.616667	1	0.076375
5.633333	1	0.077875
5.650000	1	0.079750
5.666667	1	0.080375
5.683333	1	0.081625
5.700000	1	0.081875
5.716667	1	0.082375
5.733333	1	0.083750
5.750000	1	0.084125
5.766667	1	0.084000
5.783333	1	0.083750
5.800000	1	0.083375
5.816667	1	0.083125
5.833333	1	0.083250
5.850000	1	0.082875
5.866667	1	0.082250
5.883333	1	0.081750
5.900000	1	0.080875
5.916667	1	0.079875
5.933333	1	0.078500
5.950000	1	0.077125
5.966667	1	0.075750
5.983333	1	0.074625
6.000000	1	0.073750
6.016667	1	0.072500
6.033333	1	0.071000
6.050000	1	0.068875
6.066667	1	0.067875
6.083333	1	0.066250
6.100000	1	0.064750
6.116667	1	0.063125
6.133333	1	0.061125
6.150000	1	0.059375
6.166667	1	0.057750
6.183333	1	0.056500
6.200000	1	0.055000
6.216667	1	0.054000
6.233333	1	0.052875
6.250000	1	0.051625
6.266667	1	0.049875
6.283333	1	0.048625
6.300000	1	0.047750
6.316667	1	0.046875
6.333333	1	0.045875
6.350000	1	0.045000
6.366667	1	0.043250
6.383333	1	0.042625
6.400000	1	0.042000
6.416667	1	0.041875
6.433333	1	0.042125
6.450000	1	0.041875
6.466667	1	0.041500
6.483333	1	0.041375
6.500000	1	0.040750
6.516667	1	0.042000
6.533333	1	0.042750
6.550000	1	0.043750
6.566667	1	0.043625
6.583333	1	0.044000
6.600000	1	0.044750
6.616667	1	0.045375
6.633333	1	0.046375
6.650000	1	0.047750
6.666667	1	0.049500
6.683333	1	0.050375
6.700000	1	0.051750
6.716667	1	0.053250
6.733333	1	0.055000
6.750000	1	0.055875
6.766667	1	0.057375
6.783333	1	0.058875
6.800000	1	0.060375
6.816667	1	0.061250
6.833333	1	0.063500
6.850000	1	0.065125
6.866667	1	0.066625
6.883333	1	0.068375
6.900000	1	0.070250
6.916667	1	0.072000
6.933333	1	0.074000
6.950000	1	0.075500
6.966667	1	0.078000
6.983333	1	0.079500
7.000000	1	0.081000
7.016667	1	0.082375
7.033333	1	0.084125
7.050000	1	0.085125
7.066667	1	0.086750
7.083333	1	0.087750
7.100000	1	0.089125
7.116667	1	0.090625
7.133333	1	0.091250
7.150000	1	0.091750
7.166667	1	0.092625
7.183333	1	0.092375
7.200000	1	0.092500
7.216667	1	0.092125
7.233333	1	0.091625
7.250000	1	0.091125
7.266667	1	0.090500
7.283333	1	0.089375
7.300000	1	0.088500
7.316667	1	0.087375
7.333333	1	0.086875
7.350000	1	0.085375
7.366667	1	0.083750
7.383333	1	0.081750
7.400000	1	0.080000
7.416667	1	0.077875
7.433333	1	0.076250
7.450000	1	0.074375
7.466667	1	0.072375
7.483333	1	0.069375
7.500000	1	0.066625
7.516667	1	0.063875
7.533333	1	0.061375
7.550000	1	0.059125
7.566667	1	0.056375
7.583333	1	0.052625
7.600000	1	0.050000
7.616667	1	0.047625
7.633333	1	0.045375
7.650000	1	0.043125
7.666667	1	0.040500
7.683333	1	0.036875
7.700000	1	0.034125
7.716667	1	0.031250
7.733333	1	0.028875
7.750000	1	0.026000
7.766667	1	0.024000
7.783333	1	0.021625
7.800000	1	0.018750
7.816667	1	0.016000
7.833333	1	0.013750
7.850000	1	0.011500
7.866667	1	0.009625
7.883333	1	0.007375
7.900000	1	0.005000
7.916667	1	0.003000
7.933333	1	0.000750
7.950000	1	-0.000875
7.966667	1	-0.002000
7.983333	1	-0.003250
8.000000	1	-0.004750
8.016667	1	-0.005875
8.033333	1	-0.006875
8.050000	1	-0.008250
8.066667	1	-0.009125
8.083333	1	-0.010000
8.100000	1	-0.011125
8.116667	1	-0.011875
8.133333	1	-0.012375
8.150000	1	-0.013375
8.166667	1	-0.013000
8.183333	1	-0.013125
8.200000	1	-0.013375
8.216667	1	-0.013750
8.233333	1	-0.013875
8.250000	1	-0.012750
8.266667	1	-0.012375
8.283333	1	-0.012125
8.300000	1	-0.011625
8.316667	1	-0.011125
8.333333	1	-0.011250
8.350000	1	-0.010500
8.366667	1	-0.010000
8.383333	1	-0.009375
8.400000	1	-0.008375
8.416667	1	-0.007000
8.433333	1	-0.005500
8.450000	1	-0.004125
8.466667	1	-0.003375
8.483333	1	-0.002000
8.500000	1	-0.000625
8.516667	1	0.000125
8.533333	1	0.001500
8.550000	1	0.003125
8.566667	1	0.005125
8.583333	1	0.007250
8.600000	1	0.010000
8.616667	1	0.011375
8.633333	1	0.012750
8.650000	1	0.015000
8.666667	1	0.017250
8.683333	1	0.018500
8.700000	1	0.020625
8.716667	1	0.022375
8.733333	1	0.023875
8.750000	1	0.025875
8.766667	1	0.028625
8.783333	1	0.031000
8.800000	1	0.032250
8.816667	1	0.034125
8.833333	1	0.036750
8.850000	1	0.039000
8.866667	1	0.040875
8.883333	1	0.042625
8.900000	1	0.044625
8.916667	1	0.046375
8.933333	1	0.048125
8.950000	1	0.049625
8.966667	1	0.051000
8.983333	1	0.052500
9.000000	1	0.054500
9.016667	1	0.055875
9.033333	1	0.057500
9.050000	1	0.058000
9.066667	1	0.059750
9.083333	1	0.060875
9.100000	1	0.061875
9.116667	1	0.063375
9.133333	1	0.064125
9.150000	1	0.065375
9.166667	1	0.067000
9.183333	1	0.067875
9.200000	1	0.068625
9.216667	1	0.070125
9.233333	1	0.071125
9.250000	1	0.072250
9.266667	1	0.073500
9.283333	1	0.074750
9.300000	1	0.075875
9.316667	1	0.077000
9.333333	1	0.078250
9.350000	1	0.079750
9.366667	1	0.081875
9.383333	1	0.084500
9.400000	1	0.086500
9.416667	1	0.088625
9.433333	1	0.091375
9.450000	1	0.093875
9.466667	1	0.096875
9.483333	1	0.100875
9.500000	1	0.105625
9.516667	1	0.110000
9.533333	1	0.115000
9.550000	1	0.120875
9.566667	1	0.128125
9.583333	1	0.135625
9.600000	1	0.144375
9.616667	1	0.153375
9.633333	1	0.162750
9.650000	1	0.172875
9.666667	1	0.182625
9.683333	1	0.191750
9.700000	1	0.200875
9.716667	1	0.208250
9.733333	1	0.214125
9.750000	1	0.218500
9.766667	1	0.221000
9.783333	1	0.221375
9.800000	1	0.221750
9.816667	1	0.223375
9.833333	1	0.229375
9.850000	1	0.245125
9.866667	1	0.273375
9.883333	1	0.323375
9.900000	1	0.400500
9.916667	1	0.514875
9.933333	1	0.676750
9.950000	1	0.899625
9.966667	1	1.199625
9.983333	1	1.597125
10.000000	1	2.115250
10.016667	1	2.779250
10.033333	1	3.613500
10.050000	1	4.636625
10.066667	1	5.863000
10.083333	1	7.302125
10.100000	1	8.953750
10.116667	1	10.807000
10.133333	1	12.839000
10.150000	1	15.017250
10.166667	1	17.296375
10.183333	1	19.621500
10.200000	1	21.928000
10.216667	1	24.143875
10.233333	1	26.194000
10.250000	1	28.000625
10.266667	1	29.497375
10.283333	1	30.625875
10.300000	1	31.347125
10.316667	1	31.644250
10.333333	1	31.526875
10.350000	1	31.029250
10.366667	1	30.207875
10.383333	1	29.135000
10.400000	1	27.884500
10.416667	1	26.526375
10.433333	1	25.122125
10.450000	1	23.718375
10.466667	1	22.346500
10.483333	1	21.024875
10.500000	1	19.763375
10.516667	1	18.564000
10.533333	1	17.425000
10.550000	1	16.342375
10.566667	1	15.311750
10.583333	1	14.328625
10.600000	1	13.388875
10.616667	1	12.489500
10.633333	1	11.628250
10.650000	1	10.804500
10.666667	1	10.018375
10.683333	1	9.269250
10.700000	1	8.558750
10.716667	1	7.888500
10.733333	1	7.260125
10.750000	1	6.675125
10.766667	1	6.135125
10.783333	1	5.639750
10.800000	1	5.189750
10.816667	1	4.785250
10.833333	1	4.422375
10.850000	1	4.099750
10.866667	1	3.813750
10.883333	1	3.561250
10.900000	1	3.337875
10.916667	1	3.141000
10.933333	1	2.967750
10.950000	1	2.814125
10.966667	1	2.678000
10.983333	1	2.556500
11.000000	1	2.448500
11.016667	1	2.351375
11.033333	1	2.264000
11.050000	1	2.184875
11.066667	1	2.113000
11.083333	1	2.047500
11.100000	1	1.987125
11.116667	1	1.930875
11.133333	1	1.878625
11.150000	1	1.830125
11.166667	1	1.784500
11.183333	1	1.742250
11.200000	1	1.702500
11.216667	1	1.664375
11.233333	1	1.628250
11.250000	1	1.594750
11.266667	1	1.562000
11.283333	1	1.530750
11.300000	1	1.500375
11.316667	1	1.471250
11.333333	1	1.443750
11.350000	1	1.417375
11.366667	1	1.392250
11.383333	1	1.367375
11.400000	1	1.343375
11.416667	1	1.320875
11.433333	1	1.299125
11.450000	1	1.278250
11.466667	1	1.259125
11.483333	1	1.240000
11.500000	1	1.221500
11.516667	1	1.205250
11.533333	1	1.190875
11.550000	1	1.176125
11.566667	1	1.163000
11.583333	1	1.150625
11.600000	1	1.139500
11.616667	1	1.129250
11.633333	1	1.120250
11.650000	1	1.111875
11.666667	1	1.104250
11.683333	1	1.096500
11.700000	1	1.089500
11.716667	1	1.083125
11.733333	1	1.077375
11.750000	1	1.071625
11.766667	1	1.066625
11.783333	1	1.062250
11.800000	1	1.058000
11.816667	1	1.054500
11.833333	1	1.051000
11.850000	1	1.048000
11.866667	1	1.046250
11.883333	1	1.045500
11.900000	1	1.045500
11.916667	1	1.047625
11.933333	1	1.050625
11.950000	1	1.054625
11.966667	1	1.061000
11.983333	1	1.068750
12.000000	1	1.079250
12.016667	1	1.092125
12.033333	1	1.107125
12.050000	1	1.125125
12.066667	1	1.145625
12.083333	1	1.171125
12.100000	1	1.199000
12.116667	1	1.231750
12.133333	1	1.270125
12.150000	1	1.314500
12.166667	1	1.365875
12.183333	1	1.424875
12.200000	1	1.492875
12.216667	1	1.571125
12.233333	1	1.661625
12.250000	1	1.765125
12.266667	1	1.884000
12.283333	1	2.019250
12.300000	1	2.171500
12.316667	1	2.344250
12.333333	1	2.538250
12.350000	1	2.754250
12.366667	1	2.994625
12.383333	1	3.259625
12.400000	1	3.550875
12.416667	1	3.867875
12.433333	1	4.210000
12.450000	1	4.575875
12.466667	1	4.961500
12.483333	1	5.362875
12.500000	1	5.774750
12.516667	1	6.189000
12.533333	1	6.598875
12.550000	1	6.997250
12.566667	1	7.376625
12.583333	1	7.729500
12.600000	1	8.051500
12.616667	1	8.338750
12.633333	1	8.588000
12.650000	1	8.798750
12.666667	1	8.970750
12.683333	1	9.104875
12.700000	1	9.203125
12.716667	1	9.268750
12.733333	1	9.303250
12.750000	1	9.311125
12.766667	1	9.295500
12.783333	1	9.260750
12.800000	1	9.209250
12.816667	1	9.145000
12.833333	1	9.071000
12.850000	1	8.987625
12.866667	1	8.898000
12.883333	1	8.802500
12.900000	1	8.702375
12.916667	1	8.598875
12.933333	1	8.491250
12.950000	1	8.379375
12.966667	1	8.263500
12.983333	1	8.143125
13.000000	1	8.018000
13.016667	1	7.886875
13.033333	1	7.749875
13.050000	1	7.605250
13.066667	1	7.452500
13.083333	1	7.290500
13.100000	1	7.118625
13.116667	1	6.934750
13.133333	1	6.739375
13.150000	1	6.530625
13.166667	1	6.306875
13.183333	1	6.067625
13.200000	1	5.812750
13.216667	1	5.538625
13.233333	1	5.245875
13.250000	1	4.932875
13.266667	1	4.598750
13.283333	1	4.244750
13.300000	1	3.875875
13.316667	1	3.502000
13.333333	1	3.137500
13.350000	1	2.798750
13.366667	1	2.498750
13.383333	1	2.242000
13.400000	1	2.028125
13.416667	1	1.853250
13.433333	1	1.711250
13.450000	1	1.595750
13.466667	1	1.500375
13.483333	1	1.422125
13.500000	1	1.356500
13.516667	1	1.301125
13.533333	1	1.253875
13.550000	1	1.212625
13.566667	1	1.178250
13.583333	1	1.147750
13.600000	1	1.121625
13.616667	1	1.098875
13.633333	1	1.078875
13.650000	1	1.060500
13.666667	1	1.044625
13.683333	1	1.030125
13.700000	1	1.016875
13.716667	1	1.005500
13.733333	1	0.994750
13.750000	1	0.984125
13.766667	1	0.973625
13.783333	1	0.963375
13.800000	1	0.953250
13.816667	1	0.942500
13.833333	1	0.931625
13.850000	1	0.920500
13.866667	1	0.909500
13.883333	1	0.897875
13.900000	1	0.886125
13.916667	1	0.874250
13.933333	1	0.862250
13.950000	1	0.851000
13.966667	1	0.840000
13.983333	1	0.829125
14.000000	1	0.818750
14.016667	1	0.809500
14.033333	1	0.801750
14.050000	1	0.794625
14.066667	1	0.789250
14.083333	1	0.785125
14.100000	1	0.783125
14.116667	1	0.782625
14.133333	1	0.784875
14.150000	1	0.790625
14.166667	1	0.799250
14.183333	1	0.811625
14.200000	1	0.828250
14.216667	1	0.849750
14.233333	1	0.876625
14.250000	1	0.910250
14.266667	1	0.950625
14.283333	1	0.998875
14.300000	1	1.054750
14.316667	1	1.121500
14.333333	1	1.198500
14.350000	1	1.287250
14.366667	1	1.389000
14.383333	1	1.505125
14.400000	1	1.635750
14.416667	1	1.782000
14.433333	1	1.947000
14.450000	1	2.130750
14.466667	1	2.334375
14.483333	1	2.560500
14.500000	1	2.809250
14.516667	1	3.084000
14.533333	1	3.386625
14.550000	1	3.719625
14.566667	1	4.087375
14.583333	1	4.493375
14.600000	1	4.944250
14.616667	1	5.447000
14.633333	1	6.013250
14.650000	1	6.656125
14.666667	1	7.388625
14.683333	1	8.228250
14.700000	1	9.193375
14.716667	1	10.300875
14.733333	1	11.567875
14.750000	1	13.008875
14.766667	1	14.632750
14.783333	1	16.437125
14.800000	1	18.415250
14.816667	1	20.550000
14.833333	1	22.812750
14.850000	1	25.165375
14.866667	1	27.558375
14.883333	1	29.935750
14.900000	1	32.239000
14.916667	1	34.404250
14.933333	1	36.376500
14.950000	1	38.104625
14.966667	1	39.547375
14.983333	1	40.673250
15.000000	1	41.464375
15.016667	1	41.914625
15.033333	1	42.029000
15.050000	1	41.820500
15.066667	1	41.313250
15.083333	1	40.536875
15.100000	1	39.525000
15.116667	1	38.315375
15.133333	1	36.943875
15.150000	1	35.447500
15.166667	1	33.860125
15.183333	1	32.214875
15.200000	1	30.537375
15.216667	1	28.850500
15.233333	1	27.174000
15.250000	1	25.525625
15.266667	1	23.915500
15.283333	1	22.356250
15.300000	1	20.856500
15.316667	1	19.421125
15.333333	1	18.053750
15.350000	1	16.756250
15.366667	1	15.531375
15.383333	1	14.377625
15.400000	1	13.293500
15.416667	1	12.278125
15.433333	1	11.329500
15.450000	1	10.447000
15.466667	1	9.627875
15.483333	1	8.871500
15.500000	1	8.175500
15.516667	1	7.537750
15.533333	1	6.955125
15.550000	1	6.425750
15.566667	1	5.947125
15.583333	1	5.516875
15.600000	1	5.130500
15.616667	1	4.784000
15.633333	1	4.473375
15.650000	1	4.196125
15.666667	1	3.949000
15.683333	1	3.727125
15.700000	1	3.529250
15.716667	1	3.351875
15.733333	1	3.192250
15.750000	1	3.048000
15.766667	1	2.918125
15.783333	1	2.799125
15.800000	1	2.690125
15.816667	1	2.590125
15.833333	1	2.498000
15.850000	1	2.413250
15.866667	1	2.334000
15.883333	1	2.259500
15.900000	1	2.190500
15.916667	1	2.126125
15.933333	1	2.064500
15.950000	1	2.006500
15.966667	1	1.952250
15.983333	1	1.901125
16.000000	1	1.852750
16.016667	1	1.806750
16.033333	1	1.763250
16.050000	1	1.721750
16.066667	1	1.683000
16.083333	1	1.646250
16.100000	1	1.611875
16.116667	1	1.580000
16.133333	1	1.549500
16.150000	1	1.520000
16.166667	1	1.492750
16.183333	1	1.467375
16.200000	1	1.444375
16.216667	1	1.421500
16.233333	1	1.400625
16.250000	1	1.379625
16.266667	1	1.360500
16.283333	1	1.342000
16.300000	1	1.324500
16.316667	1	1.307750
16.333333	1	1.292125
16.350000	1	1.277000
16.366667	1	1.262750
16.383333	1	1.249125
16.400000	1	1.236375
16.416667	1	1.223000
16.433333	1	1.211750
16.450000	1	1.200625
16.466667	1	1.190625
16.483333	1	1.180875
16.500000	1	1.171750
16.516667	1	1.163375
16.533333	1	1.156250
16.550000	1	1.150000
16.566667	1	1.142875
16.583333	1	1.136625
16.600000	1	1.130375
16.616667	1	1.126375
16.633333	1	1.122000
16.650000	1	1.118000
16.666667	1	1.113750
16.683333	1	1.110375
16.700000	1	1.108625
16.716667	1	1.106500
16.733333	1	1.104125
16.750000	1	1.102750
16.766667	1	1.101125
16.783333	1	1.099875
16.800000	1	1.099375
16.816667	1	1.099375
16.833333	1	1.099750
16.850000	1	1.099625
16.866667	1	1.100375
16.883333	1	1.100250
16.900000	1	1.100000
16.916667	1	1.099750
16.933333	1	1.099375
16.950000	1	1.098750
16.966667	1	1.098125
16.983333	1	1.097500
17.000000	1	1.097625
17.016667	1	1.097500
17.033333	1	1.096750
17.050000	1	1.096375
17.066667	1	1.096250
17.083333	1	1.095500
17.100000	1	1.095250
17.116667	1	1.093875
17.133333	1	1.093125
17.150000	1	1.091375
17.166667	1	1.089625
17.183333	1	1.087125
17.200000	1	1.083875
17.216667	1	1.079750
17.233333	1	1.075000
17.250000	1	1.070250
17.266667	1	1.064625
17.283333	1	1.058500
17.300000	1	1.051750
17.316667	1	1.044500
17.333333	1	1.036625
17.350000	1	1.028875
17.366667	1	1.020375
17.383333	1	1.012125
17.400000	1	1.003500
17.416667	1	0.995000
17.433333	1	0.987625
17.450000	1	0.980000
17.466667	1	0.972875
17.483333	1	0.966000
17.500000	1	0.960125
17.516667	1	0.955375
17.533333	1	0.949750
17.550000	1	0.946375
17.566667	1	0.943875
17.583333	1	0.942125
17.600000	1	0.941250
17.616667	1	0.941625
17.633333	1	0.942750
17.650000	1	0.945500
17.666667	1	0.949000
17.683333	1	0.953750
17.700000	1	0.958500
17.716667	1	0.965250
17.733333	1	0.972000
17.750000	1	0.979750
17.766667	1	0.987000
17.783333	1	0.995750
17.800000	1	1.003875
17.816667	1	1.012250
17.833333	1	1.021500
17.850000	1	1.030875
17.866667	1	1.038625
17.883333	1	1.046125
17.900000	1	1.053250
17.916667	1	1.059375
17.933333	1	1.064500
17.950000	1	1.068750
17.966667	1	1.072375
17.983333	1	1.075000
18.000000	1	1.076500
18.016667	1	1.076625
18.033333	1	1.075875
18.050000	1	1.074000
18.066667	1	1.071250
18.083333	1	1.067625
18.100000	1	1.063375
18.116667	1	1.058250
18.133333	1	1.052000
18.150000	1	1.046125
18.166667	1	1.038875
18.183333	1	1.030875
18.200000	1	1.023375
18.216667	1	1.014250
18.233333	1	1.006000
18.250000	1	0.997500
18.266667	1	0.988750
18.283333	1	0.980000
18.300000	1	0.971125
18.316667	1	0.962500
18.333333	1	0.955000
18.350000	1	0.947125
18.366667	1	0.940000
18.383333	1	0.933625
18.400000	1	0.927250
18.416667	1	0.921625
18.433333	1	0.916625
18.450000	1	0.911500
18.466667	1	0.907250
18.483333	1	0.903250
18.500000	1	0.900000
18.516667	1	0.896125
18.533333	1	0.893125
18.550000	1	0.890250
18.566667	1	0.888250
18.583333	1	0.887625
18.600000	1	0.886750
18.616667	1	0.886750
18.633333	1	0.886750
18.650000	1	0.887250
18.666667	1	0.888000
18.683333	1	0.889875
18.700000	1	0.892000
18.716667	1	0.894125
18.733333	1	0.896750
18.750000	1	0.900250
18.766667	1	0.904875
18.783333	1	0.909125
18.800000	1	0.913375
18.816667	1	0.919000
18.833333	1	0.924500
18.850000	1	0.931125
18.866667	1	0.937375
18.883333	1	0.944500
18.900000	1	0.951750
18.916667	1	0.959750
18.933333	1	0.968250
18.950000	1	0.978375
18.966667	1	0.988625
18.983333	1	0.999500
19.000000	1	1.012000
19.016667	1	1.026125
19.033333	1	1.041625
19.050000	1	1.058250
19.066667	1	1.077125
19.083333	1	1.097125
19.100000	1	1.119000
19.116667	1	1.142375
19.133333	1	1.167000
19.150000	1	1.192750
19.166667	1	1.219625
19.183333	1	1.248125
19.200000	1	1.276500
19.216667	1	1.305375
19.233333	1	1.334000
19.250000	1	1.361875
19.266667	1	1.387875
19.283333	1	1.412125
19.300000	1	1.433375
19.316667	1	1.453125
19.333333	1	1.469625
19.350000	1	1.481625
19.366667	1	1.491250
19.383333	1	1.497250
19.400000	1	1.499125
19.416667	1	1.497000
19.433333	1	1.491375
19.450000	1	1.482875
19.466667	1	1.470625
19.483333	1	1.455500
19.500000	1	1.437125
19.516667	1	1.417375
19.533333	1	1.395250
19.550000	1	1.371125
19.566667	1	1.346375
19.583333	1	1.321000
19.600000	1	1.295250
19.616667	1	1.269500
19.633333	1	1.244875
19.650000	1	1.220125
19.666667	1	1.196250
19.683333	1	1.173500
19.700000	1	1.152500
19.716667	1	1.132875
19.733333	1	1.115625
19.750000	1	1.100000
19.766667	1	1.086375
19.783333	1	1.075125
19.800000	1	1.066000
19.816667	1	1.059000
19.833333	1	1.055000
19.850000	1	1.052625
19.866667	1	1.052875
19.883333	1	1.053625
19.900000	1	1.056000
19.916667	1	1.060875
19.933333	1	1.066375
19.950000	1	1.072625
19.966667	1	1.079250
19.983333	1	1.086750
20.000000	1	1.094250
20.016667	1	1.102500
20.033333	1	1.110500
20.050000	1	1.118000
20.066667	1	1.126750
20.083333	1	1.134625
20.100000	1	1.142625
20.116667	1	1.150000
20.133333	1	1.157000
20.150000	1	1.164875
20.166667	1	1.173000
20.183333	1	1.180375
20.200000	1	1.188500
20.216667	1	1.197125
20.233333	1	1.206000
20.250000	1	1.215500
20.266667	1	1.225375
20.283333	1	1.236250
20.300000	1	1.247625
20.316667	1	1.260250
20.333333	1	1.272625
20.350000	1	1.286125
20.366667	1	1.299500
20.383333	1	1.313500
20.400000	1	1.327000
20.416667	1	1.339625
20.433333	1	1.352625
20.450000	1	1.364875
20.466667	1	1.375375
20.483333	1	1.384750
20.500000	1	1.392500
20.516667	1	1.398375
20.533333	1	1.402500
20.550000	1	1.404500
20.566667	1	1.405125
20.583333	1	1.404125
20.600000	1	1.402250
20.616667	1	1.398250
20.633333	1	1.392750
20.650000	1	1.386625
20.666667	1	1.379875
20.683333	1	1.373250
20.700000	1	1.366375
20.716667	1	1.360500
20.733333	1	1.356000
20.750000	1	1.353875
20.766667	1	1.351750
20.783333	1	1.352000
20.800000	1	1.354500
20.816667	1	1.359250
20.833333	1	1.365500
20.850000	1	1.374000
20.866667	1	1.384250
20.883333	1	1.395375
20.900000	1	1.407000
20.916667	1	1.419750
20.933333	1	1.432500
20.950000	1	1.444125
20.966667	1	1.454625
20.983333	1	1.463500
21.000000	1	1.470000
21.016667	1	1.473000
21.033333	1	1.472500
21.050000	1	1.468875
21.066667	1	1.460875
21.083333	1	1.450125
21.100000	1	1.435875
21.116667	1	1.417750
21.133333	1	1.397250
21.150000	1	1.373625
21.166667	1	1.348000
21.183333	1	1.321250
21.200000	1	1.292250
21.216667	1	1.261875
21.233333	1	1.231000
21.250000	1	1.198875
21.266667	1	1.167500
21.283333	1	1.136375
21.300000	1	1.104750
21.316667	1	1.074750
21.333333	1	1.045125
21.350000	1	1.016750
21.366667	1	0.989500
21.383333	1	0.962750
21.400000	1	0.937500
21.416667	1	0.914500
21.433333	1	0.892625
21.450000	1	0.871250
21.466667	1	0.851625
21.483333	1	0.833375
21.500000	1	0.816750
21.516667	1	0.801375
21.533333	1	0.787250
21.550000	1	0.774000
21.566667	1	0.762250
21.583333	1	0.752125
21.600000	1	0.742375
21.616667	1	0.733625
21.633333	1	0.726000
21.650000	1	0.719125
21.666667	1	0.713375
21.683333	1	0.708375
21.700000	1	0.703875
21.716667	1	0.700500
21.733333	1	0.697625
21.750000	1	0.695125
21.766667	1	0.693250
21.783333	1	0.692375
21.800000	1	0.691250
21.816667	1	0.690875
21.833333	1	0.690000
21.850000	1	0.689750
21.866667	1	0.690250
21.883333	1	0.691375
21.900000	1	0.692000
21.916667	1	0.692875
21.933333	1	0.694750
21.950000	1	0.697375
21.966667	1	0.699750
21.983333	1	0.701500
22.000000	1	0.703625
22.016667	1	0.705500
22.033333	1	0.707500
22.050000	1	0.710125
22.066667	1	0.711750
22.083333	1	0.714500
22.100000	1	0.716625
22.116667	1	0.718125
22.133333	1	0.719625
22.150000	1	0.720875
22.166667	1	0.722375
22.183333	1	0.723750
22.200000	1	0.725125
22.216667	1	0.725750
22.233333	1	0.726750
22.250000	1	0.727750
22.266667	1	0.729250
22.283333	1	0.730250
22.300000	1	0.730750
22.316667	1	0.731750
22.333333	1	0.733375
22.350000	1	0.735375
22.366667	1	0.737375
22.383333	1	0.739375
22.400000	1	0.741375
22.416667	1	0.743875
22.433333	1	0.746750
22.450000	1	0.749750
22.466667	1	0.753000
22.483333	1	0.756500
22.500000	1	0.759875
22.516667	1	0.764000
22.533333	1	0.768000
22.550000	1	0.772000
22.566667	1	0.776250
22.583333	1	0.780375
22.600000	1	0.785125
22.616667	1	0.789000
22.633333	1	0.793000
22.650000	1	0.797250
22.666667	1	0.801125
22.683333	1	0.804875
22.700000	1	0.807500
22.716667	1	0.810375
22.733333	1	0.813500
22.750000	1	0.815500
22.766667	1	0.818250
22.783333	1	0.820875
22.800000	1	0.822250
22.816667	1	0.823375
22.833333	1	0.824250
22.850000	1	0.824500
22.866667	1	0.824375
22.883333	1	0.824500
22.900000	1	0.823750
22.916667	1	0.822750
22.933333	1	0.821875
22.950000	1	0.821375
22.966667	1	0.820375
22.983333	1	0.819375
23.000000	1	0.818375
23.016667	1	0.817750
23.033333	1	0.816625
23.050000	1	0.815875
23.066667	1	0.815875
23.083333	1	0.815875
23.100000	1	0.816750
23.116667	1	0.819375
23.133333	1	0.822000
23.150000	1	0.825250
23.166667	1	0.830000
23.183333	1	0.835250
23.200000	1	0.842875
23.216667	1	0.850500
23.233333	1	0.860250
23.250000	1	0.870875
23.266667	1	0.883250
23.283333	1	0.897250
23.300000	1	0.913750
23.316667	1	0.931750
23.333333	1	0.951750
23.350000	1	0.973875
23.366667	1	0.998500
23.383333	1	1.024750
23.400000	1	1.053750
23.416667	1	1.085375
23.433333	1	1.118875
23.450000	1	1.156250
23.466667	1	1.196625
23.483333	1	1.240250
23.500000	1	1.286750
23.516667	1	1.338000
23.533333	1	1.393875
23.550000	1	1.454875
23.566667	1	1.520500
23.583333	1	1.591375
23.600000	1	1.668000
23.616667	1	1.751875
23.633333	1	1.842125
23.650000	1	1.939375
23.666667	1	2.044500
23.683333	1	2.157375
23.700000	1	2.277125
23.716667	1	2.404875
23.733333	1	2.539375
23.750000	1	2.680625
23.766667	1	2.826750
23.783333	1	2.977000
23.800000	1	3.130000
23.816667	1	3.283125
23.833333	1	3.434875
23.850000	1	3.583750
23.866667	1	3.726500
23.883333	1	3.861375
23.900000	1	3.987000
23.916667	1	4.101250
23.933333	1	4.202500
23.950000	1	4.287500
23.966667	1	4.357125
23.983333	1	4.409250
24.000000	1	4.443750
24.016667	1	4.459125
24.033333	1	4.457000
24.050000	1	4.436750
24.066667	1	4.399875
24.083333	1	4.347250
24.100000	1	4.279875
24.116667	1	4.199250
24.133333	1	4.106625
24.150000	1	4.003500
24.166667	1	3.892375
24.183333	1	3.774250
24.200000	1	3.650000
24.216667	1	3.522000
24.233333	1	3.391125
24.250000	1	3.259875
24.266667	1	3.128875
24.283333	1	2.998750
24.300000	1	2.871000
24.316667	1	2.745875
24.333333	1	2.624375
24.350000	1	2.507125
24.366667	1	2.393625
24.383333	1	2.285500
24.400000	1	2.182875
24.416667	1	2.086000
24.433333	1	1.993625
24.450000	1	1.908000
24.466667	1	1.826125
24.483333	1	1.750625
24.500000	1	1.680125
24.516667	1	1.614375
24.533333	1	1.553875
24.550000	1	1.497000
24.566667	1	1.444375
24.583333	1	1.396375
24.600000	1	1.351625
24.616667	1	1.310750
24.633333	1	1.272625
24.650000	1	1.238500
24.666667	1	1.206500
24.683333	1	1.177500
24.700000	1	1.149625
24.716667	1	1.123500
24.733333	1	1.099250
24.750000	1	1.076000
24.766667	1	1.054125
24.783333	1	1.033375
24.800000	1	1.013875
24.816667	1	0.994500
24.833333	1	0.976875
24.850000	1	0.959500
24.866667	1	0.943000
24.883333	1	0.927250
24.900000	1	0.911750
24.916667	1	0.897000
24.933333	1	0.882250
24.950000	1	0.867625
24.966667	1	0.853625
24.983333	1	0.840625
25.000000	1	0.828500
25.016667	1	0.815875
25.033333	1	0.803375
25.050000	1	0.792125
25.066667	1	0.780375
25.083333	1	0.770250
25.100000	1	0.761000
25.116667	1	0.751000
25.133333	1	0.742250
25.150000	1	0.733500
25.166667	1	0.725750
25.183333	1	0.719000
25.200000	1	0.711625
25.216667	1	0.705500
25.233333	1	0.699625
25.250000	1	0.694250
25.266667	1	0.689625
25.283333	1	0.684750
25.300000	1	0.680750
25.316667	1	0.677125
25.333333	1	0.673875
25.350000	1	0.671250
25.366667	1	0.668625
25.383333	1	0.667125
25.400000	1	0.665000
25.416667	1	0.663000
25.433333	1	0.661375
25.450000	1	0.659875
25.466667	1	0.659375
25.483333	1	0.658500
25.500000	1	0.657875
25.516667	1	0.657625
25.533333	1	0.657375
25.550000	1	0.657625
25.566667	1	0.656875
25.583333	1	0.656500
25.600000	1	0.656625
25.616667	1	0.656250
25.633333	1	0.656500
25.650000	1	0.656750
25.666667	1	0.656250
25.683333	1	0.656375
25.700000	1	0.656875
25.716667	1	0.656750
25.733333	1	0.656625
25.750000	1	0.656250
25.766667	1	0.656250
25.783333	1	0.655875
25.800000	1	0.656000
25.816667	1	0.655875
25.833333	1	0.656125
25.850000	1	0.656875
25.866667	1	0.656875
25.883333	1	0.657000
25.900000	1	0.656875
25.916667	1	0.656500
25.933333	1	0.656375
25.950000	1	0.656000
25.966667	1	0.655750
25.983333	1	0.655875
26.000000	1	0.655500
26.016667	1	0.654750
26.033333	1	0.655125
26.050000	1	0.655250
26.066667	1	0.655000
26.083333	1	0.655250
26.100000	1	0.654875
26.116667	1	0.654250
26.133333	1	0.654375
26.150000	1	0.654250
26.166667	1	0.654375
26.183333	1	0.654625
26.200000	1	0.655125
26.216667	1	0.655375
26.233333	1	0.655625
26.250000	1	0.655750
26.266667	1	0.655875
26.283333	1	0.656750
26.300000	1	0.657125
26.316667	1	0.657750
26.333333	1	0.658875
26.350000	1	0.660875
26.366667	1	0.662000
26.383333	1	0.663500
26.400000	1	0.665000
26.416667	1	0.666625
26.433333	1	0.668375
26.450000	1	0.670125
26.466667	1	0.671875
26.483333	1	0.673000
26.500000	1	0.674625
26.516667	1	0.676375
26.533333	1	0.677875
26.550000	1	0.678875
26.566667	1	0.679500
26.583333	1	0.680875
26.600000	1	0.681250
26.616667	1	0.681500
26.633333	1	0.681125
26.650000	1	0.680750
26.666667	1	0.680375
26.683333	1	0.679625
26.700000	1	0.678625
26.716667	1	0.677250
26.733333	1	0.675750
26.750000	1	0.673750
26.766667	1	0.672000
26.783333	1	0.670875
26.800000	1	0.668625
26.816667	1	0.666125
26.833333	1	0.663375
26.850000	1	0.660750
26.866667	1	0.657875
26.883333	1	0.655625
26.900000	1	0.653250
26.916667	1	0.651125
26.933333	1	0.648625
26.950000	1	0.646750
26.966667	1	0.644625
26.983333	1	0.643375
27.000000	1	0.642250
27.016667	1	0.641250
27.033333	1	0.640500
27.050000	1	0.640875
27.066667	1	0.641250
27.083333	1	0.642125
27.100000	1	0.643750
27.116667	1	0.646125
27.133333	1	0.648750
27.150000	1	0.653125
27.166667	1	0.656750
27.183333	1	0.662125
27.200000	1	0.667125
27.216667	1	0.673125
27.233333	1	0.680125
27.250000	1	0.687250
27.266667	1	0.695250
27.283333	1	0.705125
27.300000	1	0.715375
27.316667	1	0.726250
27.333333	1	0.738375
27.350000	1	0.751250
27.366667	1	0.766250
27.383333	1	0.781750
27.400000	1	0.797500
27.416667	1	0.815125
27.433333	1	0.833625
27.450000	1	0.853125
27.466667	1	0.873625
27.483333	1	0.895375
27.500000	1	0.919625
27.516667	1	0.944875
27.533333	1	0.972500
27.550000	1	1.002375
27.566667	1	1.034125
27.583333	1	1.068000
27.600000	1	1.104875
27.616667	1	1.143875
27.633333	1	1.185625
27.650000	1	1.231375
27.666667	1	1.281000
27.683333	1	1.333625
27.700000	1	1.390750
27.716667	1	1.452375
27.733333	1	1.518250
27.750000	1	1.588625
27.766667	1	1.663000
27.783333	1	1.742250
27.800000	1	1.826125
27.816667	1	1.913875
27.833333	1	2.005750
27.850000	1	2.102250
27.866667	1	2.201625
27.883333	1	2.303250
27.900000	1	2.407000
27.916667	1	2.512750
27.933333	1	2.617625
27.950000	1	2.722000
27.966667	1	2.825000
27.983333	1	2.924625
28.000000	1	3.021125
28.016667	1	3.111625
28.033333	1	3.195875
28.050000	1	3.273375
28.066667	1	3.342250
28.083333	1	3.401750
28.100000	1	3.451125
28.116667	1	3.489750
28.133333	1	3.517500
28.150000	1	3.533250
28.166667	1	3.537500
28.183333	1	3.529250
28.200000	1	3.508875
28.216667	1	3.477000
28.233333	1	3.433750
28.250000	1	3.380250
28.266667	1	3.316000
28.283333	1	3.242125
28.300000	1	3.160375
28.316667	1	3.070750
28.333333	1	2.974375
28.350000	1	2.872125
28.366667	1	2.765875
28.383333	1	2.655625
28.400000	1	2.542500
28.416667	1	2.427500
28.433333	1	2.311500
28.450000	1	2.195750
28.466667	1	2.080375
28.483333	1	1.966375
28.500000	1	1.852875
28.516667	1	1.742750
28.533333	1	1.635375
28.550000	1	1.530625
28.566667	1	1.428750
28.583333	1	1.330375
28.600000	1	1.235750
28.616667	1	1.144875
28.633333	1	1.057625
28.650000	1	0.974000
28.666667	1	0.894125
28.683333	1	0.817375
28.700000	1	0.744875
28.716667	1	0.675500
28.733333	1	0.609125
28.750000	1	0.546125
28.766667	1	0.486625
28.783333	1	0.430500
28.800000	1	0.377125
28.816667	1	0.326250
28.833333	1	0.278500
28.850000	1	0.233375
28.866667	1	0.191625
28.883333	1	0.152625
28.900000	1	0.116000
28.916667	1	0.081875
28.933333	1	0.050500
28.950000	1	0.022625
28.966667	1	-0.003000
28.983333	1	-0.026250
29.000000	1	-0.046500
29.016667	1	-0.064000
29.033333	1	-0.079000
29.050000	1	-0.091125
29.066667	1	-0.100625
29.083333	1	-0.107500
29.100000	1	-0.112625
29.116667	1	-0.114500
29.133333	1	-0.113750
29.150000	1	-0.111250
29.166667	1	-0.106250
29.183333	1	-0.098625
29.200000	1	-0.089750
29.216667	1	-0.078250
29.233333	1	-0.065250
29.250000	1	-0.050500
29.266667	1	-0.033625
29.283333	1	-0.015625
29.300000	1	0.002750
29.316667	1	0.023375
29.333333	1	0.044500
29.350000	1	0.065875
29.366667	1	0.089000
29.383333	1	0.112625
29.400000	1	0.136625
29.416667	1	0.160125
29.433333	1	0.184125
29.450000	1	0.208500
29.466667	1	0.233250
29.483333	1	0.257625
29.500000	1	0.281000
29.516667	1	0.304625
29.533333	1	0.327500
29.550000	1	0.349750
29.566667	1	0.371625
29.583333	1	0.392625
29.600000	1	0.413625
29.616667	1	0.433500
29.633333	1	0.452250
29.650000	1	0.471000
29.666667	1	0.488375
29.683333	1	0.505125
29.700000	1	0.520375
29.716667	1	0.534875
29.733333	1	0.548500
29.750000	1	0.561250
29.766667	1	0.572500
29.783333	1	0.583125
29.800000	1	0.593375
29.816667	1	0.601500
29.833333	1	0.609375
29.850000	1	0.616625
29.866667	1	0.622375
29.883333	1	0.627875
29.900000	1	0.632875
29.916667	1	0.637000
29.933333	1	0.640625
29.950000	1	0.642500
29.966667	1	0.644500
29.983333	1	0.646125
30.000000	1	0.647500
30.016667	1	0.648000
30.033333	1	0.647625
30.050000	1	0.647500
30.066667	1	0.647625
30.083333	1	0.646375
30.100000	1	0.645750
30.116667	1	0.644625
30.133333	1	0.643625
30.150000	1	0.642250
30.166667	1	0.640750
30.183333	1	0.639125
30.200000	1	0.637625
30.216667	1	0.635875
30.233333	1	0.634375
30.250000	1	0.632375
30.266667	1	0.630750
30.283333	1	0.629500
30.300000	1	0.627375
30.316667	1	0.625750
30.333333	1	0.624375
30.350000	1	0.623125
30.366667	1	0.622375
30.383333	1	0.621750
30.400000	1	0.620000
30.416667	1	0.619750
30.433333	1	0.619250
30.450000	1	0.618750
30.466667	1	0.618750
30.483333	1	0.618875
30.500000	1	0.618875
30.516667	1	0.619750
30.533333	1	0.620500
30.550000	1	0.621750
30.566667	1	0.622875
30.583333	1	0.624500
30.600000	1	0.627375
30.616667	1	0.629625
30.633333	1	0.631875
30.650000	1	0.634750
30.666667	1	0.638750
30.683333	1	0.642375
30.700000	1	0.646125
30.716667	1	0.649625
30.733333	1	0.653750
30.750000	1	0.658125
30.766667	1	0.663125
30.783333	1	0.668000
30.800000	1	0.672875
30.816667	1	0.677625
30.833333	1	0.682125
30.850000	1	0.686375
30.866667	1	0.690375
30.883333	1	0.694125
30.900000	1	0.696875
30.916667	1	0.699500
30.933333	1	0.701125
30.950000	1	0.702375
30.966667	1	0.702250
30.983333	1	0.701750
31.000000	1	0.701125
31.016667	1	0.699625
31.033333	1	0.696875
31.050000	1	0.693875
31.066667	1	0.690500
31.083333	1	0.686375
31.100000	1	0.680625
31.116667	1	0.673875
31.133333	1	0.667125
31.150000	1	0.660375
31.166667	1	0.651875
31.183333	1	0.643625
31.200000	1	0.634875
31.216667	1	0.625250
31.233333	1	0.615625
31.250000	1	0.606125
31.266667	1	0.596500
31.283333	1	0.586625
31.300000	1	0.576250
31.316667	1	0.566625
31.333333	1	0.557000
31.350000	1	0.547000
31.366667	1	0.536500
31.383333	1	0.527125
31.400000	1	0.517750
31.416667	1	0.508875
31.433333	1	0.500625
31.450000	1	0.491875
31.466667	1	0.484375
31.483333	1	0.476250
31.500000	1	0.468875
31.516667	1	0.461625
31.533333	1	0.455125
31.550000	1	0.448875
31.566667	1	0.442875
31.583333	1	0.437375
31.600000	1	0.432625
31.616667	1	0.428250
31.633333	1	0.423875
31.650000	1	0.420125
31.666667	1	0.416625
31.683333	1	0.412875
31.700000	1	0.410125
31.716667	1	0.407875
31.733333	1	0.406000
31.750000	1	0.404500
31.766667	1	0.403250
31.783333	1	0.401875
31.800000	1	0.400625
31.816667	1	0.400500
31.833333	1	0.400625
31.850000	1	0.400250
31.866667	1	0.400125
31.883333	1	0.400875
31.900000	1	0.401875
31.916667	1	0.402250
31.933333	1	0.403375
31.950000	1	0.404625
31.966667	1	0.405500
31.983333	1	0.407000
32.000000	1	0.408000
32.016667	1	0.408500
32.033333	1	0.410625
32.050000	1	0.411625
32.066667	1	0.412500
32.083333	1	0.413625
32.100000	1	0.414500
32.116667	1	0.415000
32.133333	1	0.415125
32.150000	1	0.415250
32.166667	1	0.415125
32.183333	1	0.414500
32.200000	1	0.413625
32.216667	1	0.412125
32.233333	1	0.410375
32.250000	1	0.408625
32.266667	1	0.406500
32.283333	1	0.403500
32.300000	1	0.400625
32.316667	1	0.397500
32.333333	1	0.394250
32.350000	1	0.390125
32.366667	1	0.385125
32.383333	1	0.380750
32.400000	1	0.376125
32.416667	1	0.371375
32.433333	1	0.365500
32.450000	1	0.360125
32.466667	1	0.354500
32.483333	1	0.348500
32.500000	1	0.342375
32.516667	1	0.335500
32.533333	1	0.329625
32.550000	1	0.323250
32.566667	1	0.316250
32.583333	1	0.310000
32.600000	1	0.303375
32.616667	1	0.297125
32.633333	1	0.290125
32.650000	1	0.283875
32.666667	1	0.277375
32.683333	1	0.270625
32.700000	1	0.264375
32.716667	1	0.258500
32.733333	1	0.252500
32.750000	1	0.246625
32.766667	1	0.241000
32.783333	1	0.235625
32.800000	1	0.229875
32.816667	1	0.225000
32.833333	1	0.220000
32.850000	1	0.215250
32.866667	1	0.210500
32.883333	1	0.206375
32.900000	1	0.202000
32.916667	1	0.197750
32.933333	1	0.194250
32.950000	1	0.190750
32.966667	1	0.186875
32.983333	1	0.183875
33.000000	1	0.181250
33.016667	1	0.178750
33.033333	1	0.176500
33.050000	1	0.174000
33.066667	1	0.171625
33.083333	1	0.169625
33.100000	1	0.168000
33.116667	1	0.166500
33.133333	1	0.165500
33.150000	1	0.165375
33.166667	1	0.163625
33.183333	1	0.162875
33.200000	1	0.162000
33.216667	1	0.162125
33.233333	1	0.161250
33.250000	1	0.161500
33.266667	1	0.162250
33.283333	1	0.161875
33.300000	1	0.161500
33.316667	1	0.161875
33.333333	1	0.162250
33.350000	1	0.162875
33.366667	1	0.163875
33.383333	1	0.164500
33.400000	1	0.165625
33.416667	1	0.167500
33.433333	1	0.168625
33.450000	1	0.169625
33.466667	1	0.170500
33.483333	1	0.172750
33.500000	1	0.174500
33.516667	1	0.176625
33.533333	1	0.178500
33.550000	1	0.180000
33.566667	1	0.181625
33.583333	1	0.184250
33.600000	1	0.186500
33.616667	1	0.189375
33.633333	1	0.192250
33.650000	1	0.195375
33.666667	1	0.197500
33.683333	1	0.200625
33.700000	1	0.204375
33.716667	1	0.208000
33.733333	1	0.211250
33.750000	1	0.215125
33.766667	1	0.219750
33.783333	1	0.224000
33.800000	1	0.228750
33.816667	1	0.234375
33.833333	1	0.240500
33.850000	1	0.246125
33.866667	1	0.252625
33.883333	1	0.259250
33.900000	1	0.266625
33.916667	1	0.274750
33.933333	1	0.283375
33.950000	1	0.292000
33.966667	1	0.301250
33.983333	1	0.311500
34.000000	1	0.321875
34.016667	1	0.333125
34.033333	1	0.345000
34.050000	1	0.357625
34.066667	1	0.370375
34.083333	1	0.383625
34.100000	1	0.397750
34.116667	1	0.413250
34.133333	1	0.428375
34.150000	1	0.443125
34.166667	1	0.458625
34.183333	1	0.474250
34.200000	1	0.490625
34.216667	1	0.506125
34.233333	1	0.520750
34.250000	1	0.536375
34.266667	1	0.550875
34.283333	1	0.564875
34.300000	1	0.578500
34.316667	1	0.591125
34.333333	1	0.602750
34.350000	1	0.613375
34.366667	1	0.623250
34.383333	1	0.630750
34.400000	1	0.637750
34.416667	1	0.643500
34.433333	1	0.647625
34.450000	1	0.649875
34.466667	1	0.651500
34.483333	1	0.650875
34.500000	1	0.649000
34.516667	1	0.645375
34.533333	1	0.641750
34.550000	1	0.635125
34.566667	1	0.627625
34.583333	1	0.619500
34.600000	1	0.610500
34.616667	1	0.600125
34.633333	1	0.588625
34.650000	1	0.576375
34.666667	1	0.563000
34.683333	1	0.549500
34.700000	1	0.536375
34.716667	1	0.522000
34.733333	1	0.507125
34.750000	1	0.492250
34.766667	1	0.476625
34.783333	1	0.461500
34.800000	1	0.446875
34.816667	1	0.431750
34.833333	1	0.416875
34.850000	1	0.402500
34.866667	1	0.388750
34.883333	1	0.375250
34.900000	1	0.362250
34.916667	1	0.349250
34.933333	1	0.337000
34.950000	1	0.325125
34.966667	1	0.314125
34.983333	1	0.303750
35.000000	1	0.294250
35.016667	1	0.284875
35.033333	1	0.276000
35.050000	1	0.267375
35.066667	1	0.260500
35.083333	1	0.253750
35.100000	1	0.246500
35.116667	1	0.240375
35.133333	1	0.235000
35.150000	1	0.230500
35.166667	1	0.225625
35.183333	1	0.221250
35.200000	1	0.217875
35.216667	1	0.215500
35.233333	1	0.213250
35.250000	1	0.211375
35.266667	1	0.209000
35.283333	1	0.207250
35.300000	1	0.206125
35.316667	1	0.204750
35.333333	1	0.204125
35.350000	1	0.204250
35.366667	1	0.204875
35.383333	1	0.205000
35.400000	1	0.205000
35.416667	1	0.205500
35.433333	1	0.205625
35.450000	1	0.206625
35.466667	1	0.207250
35.483333	1	0.207875
35.500000	1	0.208000
35.516667	1	0.210000
35.533333	1	0.211000
35.550000	1	0.212000
35.566667	1	0.213000
35.583333	1	0.214500
35.600000	1	0.215250
35.616667	1	0.216000
35.633333	1	0.216875
35.650000	1	0.217250
35.666667	1	0.217750
35.683333	1	0.218000
35.700000	1	0.218000
35.716667	1	0.218500
35.733333	1	0.218875
35.750000	1	0.219625
35.766667	1	0.219250
35.783333	1	0.219125
35.800000	1	0.219125
35.816667	1	0.219125
35.833333	1	0.219250
35.850000	1	0.218500
35.866667	1	0.217625
35.883333	1	0.216625
35.900000	1	0.216125
35.916667	1	0.215750
35.933333	1	0.215250
35.950000	1	0.214500
35.966667	1	0.213250
35.983333	1	0.212125
36.000000	1	0.210750
36.016667	1	0.209375
36.033333	1	0.208625
36.050000	1	0.207625
36.066667	1	0.206500
36.083333	1	0.205250
36.100000	1	0.203750
36.116667	1	0.201875
36.133333	1	0.200000
36.150000	1	0.198375
36.166667	1	0.197125
36.183333	1	0.195500
36.200000	1	0.193875
36.216667	1	0.192375
36.233333	1	0.190625
36.250000	1	0.188875
36.266667	1	0.187000
36.283333	1	0.184250
36.300000	1	0.182750
36.316667	1	0.180250
36.333333	1	0.178625
36.350000	1	0.177125
36.366667	1	0.174750
36.383333	1	0.172875
36.400000	1	0.170125
36.416667	1	0.167750
36.433333	1	0.165375
36.450000	1	0.163000
36.466667	1	0.160375
36.483333	1	0.158000
36.500000	1	0.156000
36.516667	1	0.153375
36.533333	1	0.150750
36.550000	1	0.149000
36.566667	1	0.147250
36.583333	1	0.145000
36.600000	1	0.143250
36.616667	1	0.141500
36.633333	1	0.139625
36.650000	1	0.137625
36.666667	1	0.135625
36.683333	1	0.133750
36.700000	1	0.131625
36.716667	1	0.129875
36.733333	1	0.127875
36.750000	1	0.126500
36.766667	1	0.125500
36.783333	1	0.124000
36.800000	1	0.122000
36.816667	1	0.120500
36.833333	1	0.119500
36.850000	1	0.117875
36.866667	1	0.116000
36.883333	1	0.114125
36.900000	1	0.112125
36.916667	1	0.110375
36.933333	1	0.108750
36.950000	1	0.107375
36.966667	1	0.105750
36.983333	1	0.104000
37.000000	1	0.102625
37.016667	1	0.100750
37.033333	1	0.099250
37.050000	1	0.097625
37.066667	1	0.095500
37.083333	1	0.093625
37.100000	1	0.091875
37.116667	1	0.089250
37.133333	1	0.087000
37.150000	1	0.084500
37.166667	1	0.082375
37.183333	1	0.081125
37.200000	1	0.079375
37.216667	1	0.078625
37.233333	1	0.076875
37.250000	1	0.074750
37.266667	1	0.072375
37.283333	1	0.070750
37.300000	1	0.069000
37.316667	1	0.068000
37.333333	1	0.066000
37.350000	1	0.063625
37.366667	1	0.062375
37.383333	1	0.061375
37.400000	1	0.060000
37.416667	1	0.058625
37.433333	1	0.057125
37.450000	1	0.055375
37.466667	1	0.054000
37.483333	1	0.053250
37.500000	1	0.052500
37.516667	1	0.051750
37.533333	1	0.051250
37.550000	1	0.050625
37.566667	1	0.050125
37.583333	1	0.049125
37.600000	1	0.049000
37.616667	1	0.048750
37.633333	1	0.048125
37.650000	1	0.048250
37.666667	1	0.048875
37.683333	1	0.048625
37.700000	1	0.047875
37.716667	1	0.047625
37.733333	1	0.047375
37.750000	1	0.048000
37.766667	1	0.048625
37.783333	1	0.049375
37.800000	1	0.050000
37.816667	1	0.051000
37.833333	1	0.051500
37.850000	1	0.052500
37.866667	1	0.052750
37.883333	1	0.053750
37.900000	1	0.055125
37.916667	1	0.055875
37.933333	1	0.056500
37.950000	1	0.057625
37.966667	1	0.059125
37.983333	1	0.060125
38.000000	1	0.061125
38.016667	1	0.062125
38.033333	1	0.064000
38.050000	1	0.065375
38.066667	1	0.066750
38.083333	1	0.068000
38.100000	1	0.069000
38.116667	1	0.070250
38.133333	1	0.071500
38.150000	1	0.072750
38.166667	1	0.074875
38.183333	1	0.077000
38.200000	1	0.078375
38.216667	1	0.079250
38.233333	1	0.080750
38.250000	1	0.082250
38.266667	1	0.083375
38.283333	1	0.084500
38.300000	1	0.085875
38.316667	1	0.087500
38.333333	1	0.087875
38.350000	1	0.088625
38.366667	1	0.089250
38.383333	1	0.090250
38.400000	1	0.090750
38.416667	1	0.091000
38.433333	1	0.091000
38.450000	1	0.090625
38.466667	1	0.089875
38.483333	1	0.088750
38.500000	1	0.088625
38.516667	1	0.088500
38.533333	1	0.087625
38.550000	1	0.087125
38.566667	1	0.086250
38.583333	1	0.086000
38.600000	1	0.084875
38.616667	1	0.082500
38.633333	1	0.080625
38.650000	1	0.078875
38.666667	1	0.077250
38.683333	1	0.075375
38.700000	1	0.073125
38.716667	1	0.070625
38.733333	1	0.068375
38.750000	1	0.066000
38.766667	1	0.064000
38.783333	1	0.061875
38.800000	1	0.059625
38.816667	1	0.057375
38.833333	1	0.054500
38.850000	1	0.051750
38.866667	1	0.049500
38.883333	1	0.047250
38.900000	1	0.044250
38.916667	1	0.041875
38.933333	1	0.039500
38.950000	1	0.036625
38.966667	1	0.034000
38.983333	1	0.031750
39.000000	1	0.029750
39.016667	1	0.027750
39.033333	1	0.025875
39.050000	1	0.024250
39.066667	1	0.022000
39.083333	1	0.021000
39.100000	1	0.019375
39.116667	1	0.016750
39.133333	1	0.015000
39.150000	1	0.013750
39.166667	1	0.012500
39.183333	1	0.011000
39.200000	1	0.009250
39.216667	1	0.008250
39.233333	1	0.006375
39.250000	1	0.005500
39.266667	1	0.004250
39.283333	1	0.003000
39.300000	1	0.002500
39.316667	1	0.001625
39.333333	1	0.001250
39.350000	1	0.000500
39.366667	1	0.000125
39.383333	1	-0.000500
39.400000	1	-0.001250
39.416667	1	-0.001250
39.433333	1	-0.001375
39.450000	1	-0.001500
39.466667	1	-0.001500
39.483333	1	-0.001625
39.500000	1	-0.001500
39.516667	1	-0.001250
39.533333	1	-0.001250
39.550000	1	-0.001125
39.566667	1	-0.000375
39.583333	1	-0.000250
39.600000	1	0.000000
39.616667	1	0.000250
39.633333	1	0.001000
39.650000	1	0.002000
39.666667	1	0.002500
39.683333	1	0.003125
39.700000	1	0.004250
39.716667	1	0.004750
39.733333	1	0.006000
39.750000	1	0.007125
39.766667	1	0.008375
39.783333	1	0.010250
39.800000	1	0.011750
39.816667	1	0.013375
39.833333	1	0.014000
39.850000	1	0.015625
39.866667	1	0.017250
39.883333	1	0.018750
39.900000	1	0.020250
39.916667	1	0.022750
39.933333	1	0.024375
39.950000	1	0.025875
39.966667	1	0.027625
39.983333	1	0.029375
40.000000	1	0.031875
