File Path	chrom://marshall/Chromeleon7/HPLC_Ultimate_3000/Users/markusar/20230616_CMO_FP13_14_15.seq/103.smp/RI_1.channel/RI_1.chm
Channel	RI_1

Injection Information:
Data Vault	Chromeleon7
Injection	FP14_2.2_s3
Injection Number	16
Position	BD9
Comment	
Processing Method	
Instrument Method	run_25B_method
Type	Unknown
Status	Finished
Injection Date	17.06.2023
Injection Time	02:43:19
Injection Volume (µl)	20.000
Dilution Factor	1.0000
Weight	1.0000

Chromatogram Data Information:
Time Min. (min)	0.000000
Time Max. (min)	40.000000
Data Points	2401
Detector	RI
Generating Data System	Chromeleon 7.2.5.9507
Exporting Data System	Chromeleon 7.2.5.0
Operator	Instrument Controller
Signal Quantity	Refractive 
Signal Unit	µRIU
Signal Min.	-0.235750
Signal Max.	44.180500
Channel	RI_1
Driver Name	RID520Driver.dll
Channel Type	Evaluation
Min. Step (s)	1
Max. Step (s)	1
Average Step (s)	1

Signal Parameter Information:
Signal Info	

Chromatogram Data:
Time (min)	Step (s)	Value (µRIU)
0.000000	n.a.	-0.048375
0.016667	1	-0.050375
0.033333	1	-0.052125
0.050000	1	-0.053625
0.066667	1	-0.055375
0.083333	1	-0.057125
0.100000	1	-0.058625
0.116667	1	-0.060500
0.133333	1	-0.061750
0.150000	1	-0.063375
0.166667	1	-0.064250
0.183333	1	-0.065375
0.200000	1	-0.066875
0.216667	1	-0.068125
0.233333	1	-0.069750
0.250000	1	-0.071125
0.266667	1	-0.072375
0.283333	1	-0.073125
0.300000	1	-0.073750
0.316667	1	-0.074250
0.333333	1	-0.075750
0.350000	1	-0.076375
0.366667	1	-0.077375
0.383333	1	-0.077875
0.400000	1	-0.078875
0.416667	1	-0.080000
0.433333	1	-0.082125
0.450000	1	-0.085375
0.466667	1	-0.088125
0.483333	1	-0.089750
0.500000	1	-0.089375
0.516667	1	-0.087250
0.533333	1	-0.085000
0.550000	1	-0.082125
0.566667	1	-0.079250
0.583333	1	-0.077625
0.600000	1	-0.075375
0.616667	1	-0.073750
0.633333	1	-0.072625
0.650000	1	-0.072750
0.666667	1	-0.073500
0.683333	1	-0.075125
0.700000	1	-0.076875
0.716667	1	-0.078875
0.733333	1	-0.079750
0.750000	1	-0.080125
0.766667	1	-0.080750
0.783333	1	-0.081625
0.800000	1	-0.081625
0.816667	1	-0.081500
0.833333	1	-0.081500
0.850000	1	-0.081750
0.866667	1	-0.081750
0.883333	1	-0.081500
0.900000	1	-0.081250
0.916667	1	-0.081375
0.933333	1	-0.081125
0.950000	1	-0.080875
0.966667	1	-0.080250
0.983333	1	-0.079875
1.000000	1	-0.079250
1.016667	1	-0.079625
1.033333	1	-0.079250
1.050000	1	-0.079125
1.066667	1	-0.079000
1.083333	1	-0.078125
1.100000	1	-0.077250
1.116667	1	-0.076750
1.133333	1	-0.076250
1.150000	1	-0.077125
1.166667	1	-0.076250
1.183333	1	-0.075875
1.200000	1	-0.075500
1.216667	1	-0.075500
1.233333	1	-0.075250
1.250000	1	-0.075000
1.266667	1	-0.075250
1.283333	1	-0.075375
1.300000	1	-0.075125
1.316667	1	-0.075375
1.333333	1	-0.075250
1.350000	1	-0.075250
1.366667	1	-0.075750
1.383333	1	-0.076000
1.400000	1	-0.076875
1.416667	1	-0.076250
1.433333	1	-0.077375
1.450000	1	-0.077750
1.466667	1	-0.078125
1.483333	1	-0.078750
1.500000	1	-0.079250
1.516667	1	-0.080125
1.533333	1	-0.080375
1.550000	1	-0.081000
1.566667	1	-0.081875
1.583333	1	-0.082625
1.600000	1	-0.083250
1.616667	1	-0.083875
1.633333	1	-0.084250
1.650000	1	-0.084750
1.666667	1	-0.085125
1.683333	1	-0.085625
1.700000	1	-0.086625
1.716667	1	-0.087000
1.733333	1	-0.087250
1.750000	1	-0.087000
1.766667	1	-0.087500
1.783333	1	-0.087625
1.800000	1	-0.087875
1.816667	1	-0.088375
1.833333	1	-0.087875
1.850000	1	-0.088125
1.866667	1	-0.088000
1.883333	1	-0.087875
1.900000	1	-0.088125
1.916667	1	-0.087750
1.933333	1	-0.087500
1.950000	1	-0.087250
1.966667	1	-0.087000
1.983333	1	-0.086250
2.000000	1	-0.086000
2.016667	1	-0.085625
2.033333	1	-0.085000
2.050000	1	-0.084375
2.066667	1	-0.083625
2.083333	1	-0.082750
2.100000	1	-0.081375
2.116667	1	-0.080375
2.133333	1	-0.079875
2.150000	1	-0.078750
2.166667	1	-0.077500
2.183333	1	-0.076875
2.200000	1	-0.076375
2.216667	1	-0.075250
2.233333	1	-0.074125
2.250000	1	-0.073125
2.266667	1	-0.072250
2.283333	1	-0.070750
2.300000	1	-0.069875
2.316667	1	-0.069000
2.333333	1	-0.068375
2.350000	1	-0.067625
2.366667	1	-0.066000
2.383333	1	-0.065500
2.400000	1	-0.064500
2.416667	1	-0.063625
2.433333	1	-0.062875
2.450000	1	-0.062375
2.466667	1	-0.061000
2.483333	1	-0.060375
2.500000	1	-0.059375
2.516667	1	-0.058250
2.533333	1	-0.057125
2.550000	1	-0.055875
2.566667	1	-0.055250
2.583333	1	-0.055500
2.600000	1	-0.055125
2.616667	1	-0.054875
2.633333	1	-0.054750
2.650000	1	-0.054000
2.666667	1	-0.053125
2.683333	1	-0.052375
2.700000	1	-0.052125
2.716667	1	-0.051750
2.733333	1	-0.052125
2.750000	1	-0.052500
2.766667	1	-0.052375
2.783333	1	-0.051375
2.800000	1	-0.051875
2.816667	1	-0.052250
2.833333	1	-0.052250
2.850000	1	-0.052250
2.866667	1	-0.052250
2.883333	1	-0.052875
2.900000	1	-0.053625
2.916667	1	-0.053250
2.933333	1	-0.053250
2.950000	1	-0.053750
2.966667	1	-0.054500
2.983333	1	-0.055375
3.000000	1	-0.056000
3.016667	1	-0.056125
3.033333	1	-0.056875
3.050000	1	-0.057500
3.066667	1	-0.058375
3.083333	1	-0.060000
3.100000	1	-0.061000
3.116667	1	-0.061750
3.133333	1	-0.063375
3.150000	1	-0.064125
3.166667	1	-0.065125
3.183333	1	-0.066875
3.200000	1	-0.068000
3.216667	1	-0.069375
3.233333	1	-0.070250
3.250000	1	-0.071500
3.266667	1	-0.072875
3.283333	1	-0.074500
3.300000	1	-0.076250
3.316667	1	-0.077500
3.333333	1	-0.079375
3.350000	1	-0.081000
3.366667	1	-0.083125
3.383333	1	-0.083625
3.400000	1	-0.085000
3.416667	1	-0.086125
3.433333	1	-0.087625
3.450000	1	-0.088875
3.466667	1	-0.090750
3.483333	1	-0.092250
3.500000	1	-0.093625
3.516667	1	-0.094500
3.533333	1	-0.096000
3.550000	1	-0.096875
3.566667	1	-0.097750
3.583333	1	-0.098000
3.600000	1	-0.099000
3.616667	1	-0.099750
3.633333	1	-0.100750
3.650000	1	-0.101250
3.666667	1	-0.101625
3.683333	1	-0.101625
3.700000	1	-0.102375
3.716667	1	-0.103000
3.733333	1	-0.103875
3.750000	1	-0.104000
3.766667	1	-0.104375
3.783333	1	-0.104750
3.800000	1	-0.104500
3.816667	1	-0.104625
3.833333	1	-0.104000
3.850000	1	-0.104000
3.866667	1	-0.103250
3.883333	1	-0.103125
3.900000	1	-0.103375
3.916667	1	-0.103125
3.933333	1	-0.101875
3.950000	1	-0.101375
3.966667	1	-0.100625
3.983333	1	-0.099875
4.000000	1	-0.099375
4.016667	1	-0.098875
4.033333	1	-0.097750
4.050000	1	-0.097375
4.066667	1	-0.095875
4.083333	1	-0.095375
4.100000	1	-0.094750
4.116667	1	-0.093625
4.133333	1	-0.092750
4.150000	1	-0.092000
4.166667	1	-0.091000
4.183333	1	-0.090125
4.200000	1	-0.089375
4.216667	1	-0.088375
4.233333	1	-0.087500
4.250000	1	-0.086500
4.266667	1	-0.085125
4.283333	1	-0.084125
4.300000	1	-0.083500
4.316667	1	-0.082375
4.333333	1	-0.081750
4.350000	1	-0.081250
4.366667	1	-0.079750
4.383333	1	-0.078500
4.400000	1	-0.077375
4.416667	1	-0.076125
4.433333	1	-0.075125
4.450000	1	-0.074250
4.466667	1	-0.072875
4.483333	1	-0.072625
4.500000	1	-0.071625
4.516667	1	-0.070250
4.533333	1	-0.069250
4.550000	1	-0.068125
4.566667	1	-0.067000
4.583333	1	-0.066250
4.600000	1	-0.065750
4.616667	1	-0.064750
4.633333	1	-0.064125
4.650000	1	-0.062875
4.666667	1	-0.062250
4.683333	1	-0.061000
4.700000	1	-0.060000
4.716667	1	-0.059375
4.733333	1	-0.058125
4.750000	1	-0.057125
4.766667	1	-0.056125
4.783333	1	-0.055875
4.800000	1	-0.054750
4.816667	1	-0.053875
4.833333	1	-0.052750
4.850000	1	-0.051250
4.866667	1	-0.050625
4.883333	1	-0.049500
4.900000	1	-0.049250
4.916667	1	-0.048000
4.933333	1	-0.047250
4.950000	1	-0.046375
4.966667	1	-0.045500
4.983333	1	-0.044125
5.000000	1	-0.043250
5.016667	1	-0.042000
5.033333	1	-0.040750
5.050000	1	-0.039500
5.066667	1	-0.039000
5.083333	1	-0.037875
5.100000	1	-0.036125
5.116667	1	-0.034500
5.133333	1	-0.032750
5.150000	1	-0.030500
5.166667	1	-0.029875
5.183333	1	-0.028625
5.200000	1	-0.026750
5.216667	1	-0.024875
5.233333	1	-0.022875
5.250000	1	-0.021125
5.266667	1	-0.019250
5.283333	1	-0.017125
5.300000	1	-0.015375
5.316667	1	-0.013125
5.333333	1	-0.011125
5.350000	1	-0.008750
5.366667	1	-0.006125
5.383333	1	-0.003500
5.400000	1	-0.001250
5.416667	1	0.000625
5.433333	1	0.003250
5.450000	1	0.005625
5.466667	1	0.008500
5.483333	1	0.010125
5.500000	1	0.012625
5.516667	1	0.015000
5.533333	1	0.017500
5.550000	1	0.020125
5.566667	1	0.022500
5.583333	1	0.025125
5.600000	1	0.026750
5.616667	1	0.029000
5.633333	1	0.030750
5.650000	1	0.033500
5.666667	1	0.034875
5.683333	1	0.036250
5.700000	1	0.037375
5.716667	1	0.038500
5.733333	1	0.039375
5.750000	1	0.041000
5.766667	1	0.041750
5.783333	1	0.043125
5.800000	1	0.043875
5.816667	1	0.044625
5.833333	1	0.044375
5.850000	1	0.044875
5.866667	1	0.044500
5.883333	1	0.044875
5.900000	1	0.045250
5.916667	1	0.045000
5.933333	1	0.044750
5.950000	1	0.044000
5.966667	1	0.044000
5.983333	1	0.043125
6.000000	1	0.042250
6.016667	1	0.042250
6.033333	1	0.041250
6.050000	1	0.040625
6.066667	1	0.039125
6.083333	1	0.038125
6.100000	1	0.036750
6.116667	1	0.035375
6.133333	1	0.034375
6.150000	1	0.032375
6.166667	1	0.031750
6.183333	1	0.030375
6.200000	1	0.029375
6.216667	1	0.027250
6.233333	1	0.025625
6.250000	1	0.024250
6.266667	1	0.023000
6.283333	1	0.021500
6.300000	1	0.020750
6.316667	1	0.019375
6.333333	1	0.018250
6.350000	1	0.017125
6.366667	1	0.016125
6.383333	1	0.015625
6.400000	1	0.014750
6.416667	1	0.014250
6.433333	1	0.013250
6.450000	1	0.012625
6.466667	1	0.012000
6.483333	1	0.011750
6.500000	1	0.011375
6.516667	1	0.011250
6.533333	1	0.011250
6.550000	1	0.011625
6.566667	1	0.011875
6.583333	1	0.012125
6.600000	1	0.012875
6.616667	1	0.013500
6.633333	1	0.014250
6.650000	1	0.015000
6.666667	1	0.016125
6.683333	1	0.017000
6.700000	1	0.018000
6.716667	1	0.019000
6.733333	1	0.020750
6.750000	1	0.022875
6.766667	1	0.024875
6.783333	1	0.026625
6.800000	1	0.028250
6.816667	1	0.030625
6.833333	1	0.033000
6.850000	1	0.034875
6.866667	1	0.036750
6.883333	1	0.038625
6.900000	1	0.040625
6.916667	1	0.042125
6.933333	1	0.044750
6.950000	1	0.045875
6.966667	1	0.048375
6.983333	1	0.050625
7.000000	1	0.052625
7.016667	1	0.054125
7.033333	1	0.055625
7.050000	1	0.057250
7.066667	1	0.058500
7.083333	1	0.059875
7.100000	1	0.060000
7.116667	1	0.061125
7.133333	1	0.061750
7.150000	1	0.062625
7.166667	1	0.063250
7.183333	1	0.063500
7.200000	1	0.064000
7.216667	1	0.064875
7.233333	1	0.064750
7.250000	1	0.064000
7.266667	1	0.064125
7.283333	1	0.063500
7.300000	1	0.062750
7.316667	1	0.061875
7.333333	1	0.060875
7.350000	1	0.059750
7.366667	1	0.059000
7.383333	1	0.056875
7.400000	1	0.055250
7.416667	1	0.054000
7.433333	1	0.052750
7.450000	1	0.051250
7.466667	1	0.049500
7.483333	1	0.048250
7.500000	1	0.047000
7.516667	1	0.044375
7.533333	1	0.042500
7.550000	1	0.040125
7.566667	1	0.038750
7.583333	1	0.036875
7.600000	1	0.034750
7.616667	1	0.033000
7.633333	1	0.031625
7.650000	1	0.029875
7.666667	1	0.027375
7.683333	1	0.025375
7.700000	1	0.023125
7.716667	1	0.021125
7.733333	1	0.019250
7.750000	1	0.017250
7.766667	1	0.015375
7.783333	1	0.013000
7.800000	1	0.011375
7.816667	1	0.009750
7.833333	1	0.008250
7.850000	1	0.006250
7.866667	1	0.004750
7.883333	1	0.002875
7.900000	1	0.000625
7.916667	1	-0.001000
7.933333	1	-0.002375
7.950000	1	-0.004125
7.966667	1	-0.005625
7.983333	1	-0.007125
8.000000	1	-0.008500
8.016667	1	-0.010000
8.033333	1	-0.010250
8.050000	1	-0.011375
8.066667	1	-0.012000
8.083333	1	-0.013375
8.100000	1	-0.014625
8.116667	1	-0.015125
8.133333	1	-0.015750
8.150000	1	-0.017000
8.166667	1	-0.018000
8.183333	1	-0.018500
8.200000	1	-0.019750
8.216667	1	-0.020750
8.233333	1	-0.020875
8.250000	1	-0.021500
8.266667	1	-0.021375
8.283333	1	-0.021500
8.300000	1	-0.022750
8.316667	1	-0.023875
8.333333	1	-0.024625
8.350000	1	-0.024875
8.366667	1	-0.024125
8.383333	1	-0.024375
8.400000	1	-0.024250
8.416667	1	-0.023875
8.433333	1	-0.023750
8.450000	1	-0.023625
8.466667	1	-0.023875
8.483333	1	-0.024000
8.500000	1	-0.022375
8.516667	1	-0.021750
8.533333	1	-0.021000
8.550000	1	-0.020750
8.566667	1	-0.020000
8.583333	1	-0.018750
8.600000	1	-0.018125
8.616667	1	-0.016875
8.633333	1	-0.015750
8.650000	1	-0.014000
8.666667	1	-0.012750
8.683333	1	-0.011875
8.700000	1	-0.010625
8.716667	1	-0.009375
8.733333	1	-0.007875
8.750000	1	-0.006000
8.766667	1	-0.004500
8.783333	1	-0.002625
8.800000	1	-0.000625
8.816667	1	0.000875
8.833333	1	0.003250
8.850000	1	0.004250
8.866667	1	0.005750
8.883333	1	0.007000
8.900000	1	0.008750
8.916667	1	0.011125
8.933333	1	0.012625
8.950000	1	0.014875
8.966667	1	0.017250
8.983333	1	0.019375
9.000000	1	0.021250
9.016667	1	0.022750
9.033333	1	0.024000
9.050000	1	0.026375
9.066667	1	0.027750
9.083333	1	0.029875
9.100000	1	0.031750
9.116667	1	0.034000
9.133333	1	0.035375
9.150000	1	0.037500
9.166667	1	0.039375
9.183333	1	0.041750
9.200000	1	0.044375
9.216667	1	0.045875
9.233333	1	0.047625
9.250000	1	0.049500
9.266667	1	0.051000
9.283333	1	0.052625
9.300000	1	0.055000
9.316667	1	0.056500
9.333333	1	0.058125
9.350000	1	0.060000
9.366667	1	0.061875
9.383333	1	0.064000
9.400000	1	0.066125
9.416667	1	0.068750
9.433333	1	0.070875
9.450000	1	0.073250
9.466667	1	0.076875
9.483333	1	0.079875
9.500000	1	0.083125
9.516667	1	0.087125
9.533333	1	0.092125
9.550000	1	0.097000
9.566667	1	0.103250
9.583333	1	0.109875
9.600000	1	0.116750
9.616667	1	0.124750
9.633333	1	0.132875
9.650000	1	0.140625
9.666667	1	0.149125
9.683333	1	0.156500
9.700000	1	0.162625
9.716667	1	0.168375
9.733333	1	0.172125
9.750000	1	0.174000
9.766667	1	0.174125
9.783333	1	0.172250
9.800000	1	0.171250
9.816667	1	0.172000
9.833333	1	0.178500
9.850000	1	0.194375
9.866667	1	0.226000
9.883333	1	0.279375
9.900000	1	0.362500
9.916667	1	0.484625
9.933333	1	0.657000
9.950000	1	0.893000
9.966667	1	1.209125
9.983333	1	1.628250
10.000000	1	2.171750
10.016667	1	2.865250
10.033333	1	3.732000
10.050000	1	4.790875
10.066667	1	6.056000
10.083333	1	7.535125
10.100000	1	9.227250
10.116667	1	11.120250
10.133333	1	13.189500
10.150000	1	15.403125
10.166667	1	17.715125
10.183333	1	20.069250
10.200000	1	22.401625
10.216667	1	24.639375
10.233333	1	26.708125
10.250000	1	28.531750
10.266667	1	30.041000
10.283333	1	31.178875
10.300000	1	31.905375
10.316667	1	32.202875
10.333333	1	32.080875
10.350000	1	31.573750
10.366667	1	30.738375
10.383333	1	29.645375
10.400000	1	28.371875
10.416667	1	26.988375
10.433333	1	25.555500
10.450000	1	24.123250
10.466667	1	22.723375
10.483333	1	21.375500
10.500000	1	20.089125
10.516667	1	18.866125
10.533333	1	17.704875
10.550000	1	16.603250
10.566667	1	15.555250
10.583333	1	14.557125
10.600000	1	13.604250
10.616667	1	12.693250
10.633333	1	11.822125
10.650000	1	10.988625
10.666667	1	10.193000
10.683333	1	9.435375
10.700000	1	8.716750
10.716667	1	8.037750
10.733333	1	7.401500
10.750000	1	6.807875
10.766667	1	6.259750
10.783333	1	5.757375
10.800000	1	5.299500
10.816667	1	4.885875
10.833333	1	4.514875
10.850000	1	4.183250
10.866667	1	3.889500
10.883333	1	3.630125
10.900000	1	3.399875
10.916667	1	3.197250
10.933333	1	3.018000
10.950000	1	2.859875
10.966667	1	2.719000
10.983333	1	2.593375
11.000000	1	2.481500
11.016667	1	2.381000
11.033333	1	2.290625
11.050000	1	2.208875
11.066667	1	2.134625
11.083333	1	2.066125
11.100000	1	2.003000
11.116667	1	1.944875
11.133333	1	1.890125
11.150000	1	1.839250
11.166667	1	1.791625
11.183333	1	1.747375
11.200000	1	1.705750
11.216667	1	1.665625
11.233333	1	1.627250
11.250000	1	1.590875
11.266667	1	1.556625
11.283333	1	1.523625
11.300000	1	1.491875
11.316667	1	1.461125
11.333333	1	1.431500
11.350000	1	1.403375
11.366667	1	1.376125
11.383333	1	1.348500
11.400000	1	1.322875
11.416667	1	1.298125
11.433333	1	1.274250
11.450000	1	1.251375
11.466667	1	1.230000
11.483333	1	1.210000
11.500000	1	1.190875
11.516667	1	1.172625
11.533333	1	1.155250
11.550000	1	1.139125
11.566667	1	1.124625
11.583333	1	1.109875
11.600000	1	1.097125
11.616667	1	1.085750
11.633333	1	1.075375
11.650000	1	1.065125
11.666667	1	1.055500
11.683333	1	1.047125
11.700000	1	1.039250
11.716667	1	1.031875
11.733333	1	1.024250
11.750000	1	1.017625
11.766667	1	1.012125
11.783333	1	1.006500
11.800000	1	1.001875
11.816667	1	0.997750
11.833333	1	0.993375
11.850000	1	0.990500
11.866667	1	0.988125
11.883333	1	0.987000
11.900000	1	0.986500
11.916667	1	0.988500
11.933333	1	0.990500
11.950000	1	0.995625
11.966667	1	1.002875
11.983333	1	1.012125
12.000000	1	1.022750
12.016667	1	1.035750
12.033333	1	1.051250
12.050000	1	1.070750
12.066667	1	1.093250
12.083333	1	1.119500
12.100000	1	1.150125
12.116667	1	1.184500
12.133333	1	1.224125
12.150000	1	1.270125
12.166667	1	1.322750
12.183333	1	1.383125
12.200000	1	1.453500
12.216667	1	1.534250
12.233333	1	1.627375
12.250000	1	1.733875
12.266667	1	1.855875
12.283333	1	1.994875
12.300000	1	2.151625
12.316667	1	2.328125
12.333333	1	2.525875
12.350000	1	2.745250
12.366667	1	2.989375
12.383333	1	3.258625
12.400000	1	3.554875
12.416667	1	3.876875
12.433333	1	4.224875
12.450000	1	4.595125
12.466667	1	4.986250
12.483333	1	5.392875
12.500000	1	5.808875
12.516667	1	6.228125
12.533333	1	6.642750
12.550000	1	7.044625
12.566667	1	7.426875
12.583333	1	7.782750
12.600000	1	8.107000
12.616667	1	8.395625
12.633333	1	8.645750
12.650000	1	8.856625
12.666667	1	9.028750
12.683333	1	9.162500
12.700000	1	9.261000
12.716667	1	9.327250
12.733333	1	9.362250
12.750000	1	9.372000
12.766667	1	9.358000
12.783333	1	9.325000
12.800000	1	9.276125
12.816667	1	9.213875
12.833333	1	9.142250
12.850000	1	9.062500
12.866667	1	8.975625
12.883333	1	8.883125
12.900000	1	8.785875
12.916667	1	8.685625
12.933333	1	8.581625
12.950000	1	8.473750
12.966667	1	8.362000
12.983333	1	8.246000
13.000000	1	8.125750
13.016667	1	7.999625
13.033333	1	7.867000
13.050000	1	7.727250
13.066667	1	7.579875
13.083333	1	7.423000
13.100000	1	7.257250
13.116667	1	7.080000
13.133333	1	6.890500
13.150000	1	6.689125
13.166667	1	6.473500
13.183333	1	6.242875
13.200000	1	5.996750
13.216667	1	5.732750
13.233333	1	5.450375
13.250000	1	5.147875
13.266667	1	4.824625
13.283333	1	4.479750
13.300000	1	4.116500
13.316667	1	3.742125
13.333333	1	3.368125
13.350000	1	3.009500
13.366667	1	2.681750
13.383333	1	2.395250
13.400000	1	2.152750
13.416667	1	1.952250
13.433333	1	1.788000
13.450000	1	1.654500
13.466667	1	1.545750
13.483333	1	1.455500
13.500000	1	1.380875
13.516667	1	1.318000
13.533333	1	1.265125
13.550000	1	1.219625
13.566667	1	1.180500
13.583333	1	1.146125
13.600000	1	1.116750
13.616667	1	1.091000
13.633333	1	1.068000
13.650000	1	1.047500
13.666667	1	1.030500
13.683333	1	1.014750
13.700000	1	0.999875
13.716667	1	0.986125
13.733333	1	0.973500
13.750000	1	0.962000
13.766667	1	0.950375
13.783333	1	0.938750
13.800000	1	0.927125
13.816667	1	0.915625
13.833333	1	0.903625
13.850000	1	0.890500
13.866667	1	0.878250
13.883333	1	0.866375
13.900000	1	0.853875
13.916667	1	0.841500
13.933333	1	0.829375
13.950000	1	0.817125
13.966667	1	0.805750
13.983333	1	0.794125
14.000000	1	0.783875
14.016667	1	0.774250
14.033333	1	0.765500
14.050000	1	0.758375
14.066667	1	0.752375
14.083333	1	0.748250
14.100000	1	0.747125
14.116667	1	0.747875
14.133333	1	0.750500
14.150000	1	0.756250
14.166667	1	0.765875
14.183333	1	0.779500
14.200000	1	0.797375
14.216667	1	0.820500
14.233333	1	0.849375
14.250000	1	0.885000
14.266667	1	0.927250
14.283333	1	0.978375
14.300000	1	1.039250
14.316667	1	1.110250
14.333333	1	1.192750
14.350000	1	1.287625
14.366667	1	1.395750
14.383333	1	1.517875
14.400000	1	1.656375
14.416667	1	1.811500
14.433333	1	1.985875
14.450000	1	2.180500
14.466667	1	2.397000
14.483333	1	2.636125
14.500000	1	2.900375
14.516667	1	3.192125
14.533333	1	3.512875
14.550000	1	3.865250
14.566667	1	4.254125
14.583333	1	4.683875
14.600000	1	5.160875
14.616667	1	5.693000
14.633333	1	6.291875
14.650000	1	6.970125
14.666667	1	7.744000
14.683333	1	8.630625
14.700000	1	9.648000
14.716667	1	10.815375
14.733333	1	12.151125
14.750000	1	13.670250
14.766667	1	15.379625
14.783333	1	17.279125
14.800000	1	19.361125
14.816667	1	21.606625
14.833333	1	23.985750
14.850000	1	26.458000
14.866667	1	28.973125
14.883333	1	31.470750
14.900000	1	33.888750
14.916667	1	36.163000
14.933333	1	38.235375
14.950000	1	40.051125
14.966667	1	41.568000
14.983333	1	42.751125
15.000000	1	43.584500
15.016667	1	44.059500
15.033333	1	44.180500
15.050000	1	43.962500
15.066667	1	43.429625
15.083333	1	42.613250
15.100000	1	41.549000
15.116667	1	40.275500
15.133333	1	38.832500
15.150000	1	37.257250
15.166667	1	35.586000
15.183333	1	33.853375
15.200000	1	32.086375
15.216667	1	30.310250
15.233333	1	28.544000
15.250000	1	26.805750
15.266667	1	25.110250
15.283333	1	23.468750
15.300000	1	21.889500
15.316667	1	20.378375
15.333333	1	18.939000
15.350000	1	17.573875
15.366667	1	16.284000
15.383333	1	15.069375
15.400000	1	13.929250
15.416667	1	12.860375
15.433333	1	11.862500
15.450000	1	10.933000
15.466667	1	10.072000
15.483333	1	9.274500
15.500000	1	8.540250
15.516667	1	7.867125
15.533333	1	7.252125
15.550000	1	6.692750
15.566667	1	6.186875
15.583333	1	5.730375
15.600000	1	5.320375
15.616667	1	4.953000
15.633333	1	4.623625
15.650000	1	4.329250
15.666667	1	4.066625
15.683333	1	3.831500
15.700000	1	3.621250
15.716667	1	3.432125
15.733333	1	3.263000
15.750000	1	3.110375
15.766667	1	2.971750
15.783333	1	2.846250
15.800000	1	2.731750
15.816667	1	2.627125
15.833333	1	2.530625
15.850000	1	2.441500
15.866667	1	2.358750
15.883333	1	2.281500
15.900000	1	2.209500
15.916667	1	2.142125
15.933333	1	2.079000
15.950000	1	2.020250
15.966667	1	1.963625
15.983333	1	1.911000
16.000000	1	1.861125
16.016667	1	1.813500
16.033333	1	1.769625
16.050000	1	1.727750
16.066667	1	1.687875
16.083333	1	1.650625
16.100000	1	1.615500
16.116667	1	1.581875
16.133333	1	1.551125
16.150000	1	1.521625
16.166667	1	1.493750
16.183333	1	1.467875
16.200000	1	1.443250
16.216667	1	1.420000
16.233333	1	1.397750
16.250000	1	1.377000
16.266667	1	1.356875
16.283333	1	1.337625
16.300000	1	1.319125
16.316667	1	1.301250
16.333333	1	1.284625
16.350000	1	1.268500
16.366667	1	1.253250
16.383333	1	1.238750
16.400000	1	1.224250
16.416667	1	1.210250
16.433333	1	1.197500
16.450000	1	1.185125
16.466667	1	1.173875
16.483333	1	1.162875
16.500000	1	1.152250
16.516667	1	1.143250
16.533333	1	1.134875
16.550000	1	1.127500
16.566667	1	1.119250
16.583333	1	1.112500
16.600000	1	1.105750
16.616667	1	1.100125
16.633333	1	1.095375
16.650000	1	1.091000
16.666667	1	1.086500
16.683333	1	1.082625
16.700000	1	1.079500
16.716667	1	1.076000
16.733333	1	1.073750
16.750000	1	1.072500
16.766667	1	1.071000
16.783333	1	1.070250
16.800000	1	1.069875
16.816667	1	1.069875
16.833333	1	1.070000
16.850000	1	1.070250
16.866667	1	1.070875
16.883333	1	1.071125
16.900000	1	1.071375
16.916667	1	1.072875
16.933333	1	1.073500
16.950000	1	1.073750
16.966667	1	1.074250
16.983333	1	1.073875
17.000000	1	1.074375
17.016667	1	1.075000
17.033333	1	1.075875
17.050000	1	1.076750
17.066667	1	1.077125
17.083333	1	1.077500
17.100000	1	1.078500
17.116667	1	1.078250
17.133333	1	1.078000
17.150000	1	1.077375
17.166667	1	1.076625
17.183333	1	1.074375
17.200000	1	1.072125
17.216667	1	1.069000
17.233333	1	1.065500
17.250000	1	1.061375
17.266667	1	1.056125
17.283333	1	1.050500
17.300000	1	1.044375
17.316667	1	1.038000
17.333333	1	1.031125
17.350000	1	1.024250
17.366667	1	1.016500
17.383333	1	1.008250
17.400000	1	0.999750
17.416667	1	0.991875
17.433333	1	0.984375
17.450000	1	0.977000
17.466667	1	0.970250
17.483333	1	0.963625
17.500000	1	0.957375
17.516667	1	0.952625
17.533333	1	0.948875
17.550000	1	0.944750
17.566667	1	0.942625
17.583333	1	0.940625
17.600000	1	0.940250
17.616667	1	0.939875
17.633333	1	0.942000
17.650000	1	0.943625
17.666667	1	0.946375
17.683333	1	0.950375
17.700000	1	0.954625
17.716667	1	0.960000
17.733333	1	0.966250
17.750000	1	0.973125
17.766667	1	0.980375
17.783333	1	0.988625
17.800000	1	0.996625
17.816667	1	1.003875
17.833333	1	1.012000
17.850000	1	1.019000
17.866667	1	1.026500
17.883333	1	1.033375
17.900000	1	1.039625
17.916667	1	1.044750
17.933333	1	1.048250
17.950000	1	1.052375
17.966667	1	1.054375
17.983333	1	1.056125
18.000000	1	1.056625
18.016667	1	1.056250
18.033333	1	1.053625
18.050000	1	1.050500
18.066667	1	1.045750
18.083333	1	1.040500
18.100000	1	1.034750
18.116667	1	1.028500
18.133333	1	1.020750
18.150000	1	1.012625
18.166667	1	1.004250
18.183333	1	0.995250
18.200000	1	0.985750
18.216667	1	0.976375
18.233333	1	0.966750
18.250000	1	0.957625
18.266667	1	0.947875
18.283333	1	0.937625
18.300000	1	0.927500
18.316667	1	0.917625
18.333333	1	0.908250
18.350000	1	0.899375
18.366667	1	0.890875
18.383333	1	0.882375
18.400000	1	0.874500
18.416667	1	0.867375
18.433333	1	0.860250
18.450000	1	0.854375
18.466667	1	0.849625
18.483333	1	0.844125
18.500000	1	0.839250
18.516667	1	0.835625
18.533333	1	0.830875
18.550000	1	0.828250
18.566667	1	0.825625
18.583333	1	0.823125
18.600000	1	0.821875
18.616667	1	0.820500
18.633333	1	0.820125
18.650000	1	0.821125
18.666667	1	0.821250
18.683333	1	0.823250
18.700000	1	0.825000
18.716667	1	0.827500
18.733333	1	0.830625
18.750000	1	0.834875
18.766667	1	0.839000
18.783333	1	0.844250
18.800000	1	0.849500
18.816667	1	0.854750
18.833333	1	0.861125
18.850000	1	0.868250
18.866667	1	0.875625
18.883333	1	0.883250
18.900000	1	0.891875
18.916667	1	0.901125
18.933333	1	0.910875
18.950000	1	0.921375
18.966667	1	0.933500
18.983333	1	0.946000
19.000000	1	0.959875
19.016667	1	0.975000
19.033333	1	0.992000
19.050000	1	1.009875
19.066667	1	1.029500
19.083333	1	1.050750
19.100000	1	1.073750
19.116667	1	1.097750
19.133333	1	1.123875
19.150000	1	1.151375
19.166667	1	1.180000
19.183333	1	1.209750
19.200000	1	1.239875
19.216667	1	1.269625
19.233333	1	1.298875
19.250000	1	1.327125
19.266667	1	1.354125
19.283333	1	1.379125
19.300000	1	1.401875
19.316667	1	1.422000
19.333333	1	1.438875
19.350000	1	1.452125
19.366667	1	1.461750
19.383333	1	1.467750
19.400000	1	1.470000
19.416667	1	1.468125
19.433333	1	1.462750
19.450000	1	1.454000
19.466667	1	1.441500
19.483333	1	1.426375
19.500000	1	1.408000
19.516667	1	1.387000
19.533333	1	1.364500
19.550000	1	1.340500
19.566667	1	1.315125
19.583333	1	1.289125
19.600000	1	1.261500
19.616667	1	1.235250
19.633333	1	1.208750
19.650000	1	1.183625
19.666667	1	1.158750
19.683333	1	1.135125
19.700000	1	1.113375
19.716667	1	1.093125
19.733333	1	1.074750
19.750000	1	1.058125
19.766667	1	1.043750
19.783333	1	1.031625
19.800000	1	1.021750
19.816667	1	1.014000
19.833333	1	1.009000
19.850000	1	1.005375
19.866667	1	1.003500
19.883333	1	1.003875
19.900000	1	1.006250
19.916667	1	1.009750
19.933333	1	1.013750
19.950000	1	1.019250
19.966667	1	1.025500
19.983333	1	1.032625
20.000000	1	1.039875
20.016667	1	1.047625
20.033333	1	1.055250
20.050000	1	1.063375
20.066667	1	1.070875
20.083333	1	1.078375
20.100000	1	1.085625
20.116667	1	1.093000
20.133333	1	1.100375
20.150000	1	1.107500
20.166667	1	1.115125
20.183333	1	1.123125
20.200000	1	1.131375
20.216667	1	1.139625
20.233333	1	1.148625
20.250000	1	1.158500
20.266667	1	1.169000
20.283333	1	1.180625
20.300000	1	1.192750
20.316667	1	1.205875
20.333333	1	1.219125
20.350000	1	1.233875
20.366667	1	1.248375
20.383333	1	1.262375
20.400000	1	1.276500
20.416667	1	1.291375
20.433333	1	1.305250
20.450000	1	1.317625
20.466667	1	1.328875
20.483333	1	1.339250
20.500000	1	1.348250
20.516667	1	1.354750
20.533333	1	1.360125
20.550000	1	1.363875
20.566667	1	1.365750
20.583333	1	1.365875
20.600000	1	1.364500
20.616667	1	1.361375
20.633333	1	1.357125
20.650000	1	1.351500
20.666667	1	1.346000
20.683333	1	1.340875
20.700000	1	1.335500
20.716667	1	1.330500
20.733333	1	1.327625
20.750000	1	1.326125
20.766667	1	1.326250
20.783333	1	1.328625
20.800000	1	1.332750
20.816667	1	1.339125
20.833333	1	1.347000
20.850000	1	1.357625
20.866667	1	1.369250
20.883333	1	1.383125
20.900000	1	1.397625
20.916667	1	1.412500
20.933333	1	1.426875
20.950000	1	1.440750
20.966667	1	1.453125
20.983333	1	1.463750
21.000000	1	1.471500
21.016667	1	1.476250
21.033333	1	1.477750
21.050000	1	1.475875
21.066667	1	1.469500
21.083333	1	1.460500
21.100000	1	1.447250
21.116667	1	1.431375
21.133333	1	1.412000
21.150000	1	1.389375
21.166667	1	1.364500
21.183333	1	1.337875
21.200000	1	1.309750
21.216667	1	1.280000
21.233333	1	1.250000
21.250000	1	1.219000
21.266667	1	1.187750
21.283333	1	1.157250
21.300000	1	1.126875
21.316667	1	1.096625
21.333333	1	1.068000
21.350000	1	1.039750
21.366667	1	1.012000
21.383333	1	0.985750
21.400000	1	0.960625
21.416667	1	0.936750
21.433333	1	0.913250
21.450000	1	0.891500
21.466667	1	0.871875
21.483333	1	0.853250
21.500000	1	0.835500
21.516667	1	0.819875
21.533333	1	0.804750
21.550000	1	0.791500
21.566667	1	0.779250
21.583333	1	0.767625
21.600000	1	0.757125
21.616667	1	0.747375
21.633333	1	0.738875
21.650000	1	0.731000
21.666667	1	0.724000
21.683333	1	0.717500
21.700000	1	0.712250
21.716667	1	0.706375
21.733333	1	0.701625
21.750000	1	0.697000
21.766667	1	0.693250
21.783333	1	0.689375
21.800000	1	0.687375
21.816667	1	0.685625
21.833333	1	0.683500
21.850000	1	0.681250
21.866667	1	0.679750
21.883333	1	0.678250
21.900000	1	0.677750
21.916667	1	0.677250
21.933333	1	0.677000
21.950000	1	0.677125
21.966667	1	0.677250
21.983333	1	0.677375
22.000000	1	0.677625
22.016667	1	0.677500
22.033333	1	0.677875
22.050000	1	0.677875
22.066667	1	0.678125
22.083333	1	0.678000
22.100000	1	0.678625
22.116667	1	0.678750
22.133333	1	0.678875
22.150000	1	0.679000
22.166667	1	0.678500
22.183333	1	0.678125
22.200000	1	0.678000
22.216667	1	0.677375
22.233333	1	0.676750
22.250000	1	0.675875
22.266667	1	0.675625
22.283333	1	0.674375
22.300000	1	0.673750
22.316667	1	0.673625
22.333333	1	0.673750
22.350000	1	0.674375
22.366667	1	0.674500
22.383333	1	0.674750
22.400000	1	0.676250
22.416667	1	0.677750
22.433333	1	0.679000
22.450000	1	0.681500
22.466667	1	0.684000
22.483333	1	0.687125
22.500000	1	0.689375
22.516667	1	0.692500
22.533333	1	0.696625
22.550000	1	0.700250
22.566667	1	0.704000
22.583333	1	0.707500
22.600000	1	0.711250
22.616667	1	0.714875
22.633333	1	0.718500
22.650000	1	0.721750
22.666667	1	0.725375
22.683333	1	0.728875
22.700000	1	0.732375
22.716667	1	0.735750
22.733333	1	0.738750
22.750000	1	0.741625
22.766667	1	0.743375
22.783333	1	0.745000
22.800000	1	0.746625
22.816667	1	0.747875
22.833333	1	0.748500
22.850000	1	0.749750
22.866667	1	0.750000
22.883333	1	0.750125
22.900000	1	0.749750
22.916667	1	0.749625
22.933333	1	0.749375
22.950000	1	0.749000
22.966667	1	0.748625
22.983333	1	0.748000
23.000000	1	0.747500
23.016667	1	0.747750
23.033333	1	0.747625
23.050000	1	0.748375
23.066667	1	0.749375
23.083333	1	0.750625
23.100000	1	0.752250
23.116667	1	0.754500
23.133333	1	0.757625
23.150000	1	0.762125
23.166667	1	0.768000
23.183333	1	0.774125
23.200000	1	0.781250
23.216667	1	0.790125
23.233333	1	0.801500
23.250000	1	0.812750
23.266667	1	0.826500
23.283333	1	0.841875
23.300000	1	0.859000
23.316667	1	0.878000
23.333333	1	0.898250
23.350000	1	0.921000
23.366667	1	0.945750
23.383333	1	0.973250
23.400000	1	1.002750
23.416667	1	1.034500
23.433333	1	1.069375
23.450000	1	1.107250
23.466667	1	1.148000
23.483333	1	1.192125
23.500000	1	1.239750
23.516667	1	1.290750
23.533333	1	1.346125
23.550000	1	1.407250
23.566667	1	1.473000
23.583333	1	1.543875
23.600000	1	1.620625
23.616667	1	1.704625
23.633333	1	1.794375
23.650000	1	1.892000
23.666667	1	1.996625
23.683333	1	2.109125
23.700000	1	2.228625
23.716667	1	2.355875
23.733333	1	2.489875
23.750000	1	2.630500
23.766667	1	2.775500
23.783333	1	2.925250
23.800000	1	3.077000
23.816667	1	3.229250
23.833333	1	3.380750
23.850000	1	3.528125
23.866667	1	3.669500
23.883333	1	3.804125
23.900000	1	3.928875
23.916667	1	4.042250
23.933333	1	4.141500
23.950000	1	4.226750
23.966667	1	4.295500
23.983333	1	4.346875
24.000000	1	4.381250
24.016667	1	4.397125
24.033333	1	4.394125
24.050000	1	4.374500
24.066667	1	4.338000
24.083333	1	4.286250
24.100000	1	4.219875
24.116667	1	4.140000
24.133333	1	4.049375
24.150000	1	3.948125
24.166667	1	3.838250
24.183333	1	3.721750
24.200000	1	3.600000
24.216667	1	3.474500
24.233333	1	3.346625
24.250000	1	3.217625
24.266667	1	3.089625
24.283333	1	2.962250
24.300000	1	2.836875
24.316667	1	2.714500
24.333333	1	2.595625
24.350000	1	2.481000
24.366667	1	2.370500
24.383333	1	2.266000
24.400000	1	2.165125
24.416667	1	2.070500
24.433333	1	1.981125
24.450000	1	1.896625
24.466667	1	1.817500
24.483333	1	1.744125
24.500000	1	1.675500
24.516667	1	1.611375
24.533333	1	1.552125
24.550000	1	1.497500
24.566667	1	1.447375
24.583333	1	1.401250
24.600000	1	1.357875
24.616667	1	1.317625
24.633333	1	1.280750
24.650000	1	1.246750
24.666667	1	1.215000
24.683333	1	1.185750
24.700000	1	1.158250
24.716667	1	1.131375
24.733333	1	1.107125
24.750000	1	1.083875
24.766667	1	1.061750
24.783333	1	1.040875
24.800000	1	1.021250
24.816667	1	1.002125
24.833333	1	0.983375
24.850000	1	0.965750
24.866667	1	0.948250
24.883333	1	0.930750
24.900000	1	0.914500
24.916667	1	0.898750
24.933333	1	0.882125
24.950000	1	0.866125
24.966667	1	0.851000
24.983333	1	0.836750
25.000000	1	0.822875
25.016667	1	0.809000
25.033333	1	0.795500
25.050000	1	0.782875
25.066667	1	0.770250
25.083333	1	0.759000
25.100000	1	0.747000
25.116667	1	0.736750
25.133333	1	0.726750
25.150000	1	0.716875
25.166667	1	0.707625
25.183333	1	0.699000
25.200000	1	0.690875
25.216667	1	0.683875
25.233333	1	0.677375
25.250000	1	0.670750
25.266667	1	0.664500
25.283333	1	0.659250
25.300000	1	0.654625
25.316667	1	0.650625
25.333333	1	0.647500
25.350000	1	0.644250
25.366667	1	0.640875
25.383333	1	0.638250
25.400000	1	0.636500
25.416667	1	0.634625
25.433333	1	0.633125
25.450000	1	0.631625
25.466667	1	0.630500
25.483333	1	0.629500
25.500000	1	0.628625
25.516667	1	0.628625
25.533333	1	0.627875
25.550000	1	0.627125
25.566667	1	0.626500
25.583333	1	0.626500
25.600000	1	0.626125
25.616667	1	0.626125
25.633333	1	0.625875
25.650000	1	0.626125
25.666667	1	0.625750
25.683333	1	0.625500
25.700000	1	0.625500
25.716667	1	0.625000
25.733333	1	0.624625
25.750000	1	0.624750
25.766667	1	0.625000
25.783333	1	0.625250
25.800000	1	0.625125
25.816667	1	0.624625
25.833333	1	0.624375
25.850000	1	0.624375
25.866667	1	0.624000
25.883333	1	0.624375
25.900000	1	0.624750
25.916667	1	0.624750
25.933333	1	0.625125
25.950000	1	0.626125
25.966667	1	0.626125
25.983333	1	0.626250
26.000000	1	0.626375
26.016667	1	0.626750
26.033333	1	0.626750
26.050000	1	0.626250
26.066667	1	0.626375
26.083333	1	0.627000
26.100000	1	0.627000
26.116667	1	0.626875
26.133333	1	0.626625
26.150000	1	0.626875
26.166667	1	0.628125
26.183333	1	0.627625
26.200000	1	0.627625
26.216667	1	0.627750
26.233333	1	0.628625
26.250000	1	0.629500
26.266667	1	0.630625
26.283333	1	0.631125
26.300000	1	0.632125
26.316667	1	0.633000
26.333333	1	0.633875
26.350000	1	0.635375
26.366667	1	0.636000
26.383333	1	0.637875
26.400000	1	0.638875
26.416667	1	0.639875
26.433333	1	0.641625
26.450000	1	0.642875
26.466667	1	0.643500
26.483333	1	0.643875
26.500000	1	0.644750
26.516667	1	0.646250
26.533333	1	0.646625
26.550000	1	0.646500
26.566667	1	0.646250
26.583333	1	0.646375
26.600000	1	0.646250
26.616667	1	0.645375
26.633333	1	0.644375
26.650000	1	0.642500
26.666667	1	0.640375
26.683333	1	0.638000
26.700000	1	0.635875
26.716667	1	0.634250
26.733333	1	0.631875
26.750000	1	0.629125
26.766667	1	0.625750
26.783333	1	0.622250
26.800000	1	0.618875
26.816667	1	0.615625
26.833333	1	0.611875
26.850000	1	0.608625
26.866667	1	0.605500
26.883333	1	0.601625
26.900000	1	0.598875
26.916667	1	0.595500
26.933333	1	0.593000
26.950000	1	0.590500
26.966667	1	0.587875
26.983333	1	0.586625
27.000000	1	0.584625
27.016667	1	0.584875
27.033333	1	0.584250
27.050000	1	0.584875
27.066667	1	0.585250
27.083333	1	0.586750
27.100000	1	0.588500
27.116667	1	0.591000
27.133333	1	0.594375
27.150000	1	0.598125
27.166667	1	0.603250
27.183333	1	0.608250
27.200000	1	0.614875
27.216667	1	0.622125
27.233333	1	0.630000
27.250000	1	0.638625
27.266667	1	0.648875
27.283333	1	0.659500
27.300000	1	0.671125
27.316667	1	0.683750
27.333333	1	0.698250
27.350000	1	0.712750
27.366667	1	0.729125
27.383333	1	0.745875
27.400000	1	0.764000
27.416667	1	0.784000
27.433333	1	0.804625
27.450000	1	0.826375
27.466667	1	0.849750
27.483333	1	0.874375
27.500000	1	0.900875
27.516667	1	0.928750
27.533333	1	0.958625
27.550000	1	0.989875
27.566667	1	1.023375
27.583333	1	1.059250
27.600000	1	1.098125
27.616667	1	1.139375
27.633333	1	1.183750
27.650000	1	1.231250
27.666667	1	1.282625
27.683333	1	1.337875
27.700000	1	1.396750
27.716667	1	1.460375
27.733333	1	1.528000
27.750000	1	1.599750
27.766667	1	1.676625
27.783333	1	1.758000
27.800000	1	1.843500
27.816667	1	1.933625
27.833333	1	2.027375
27.850000	1	2.124750
27.866667	1	2.225875
27.883333	1	2.329625
27.900000	1	2.435500
27.916667	1	2.541500
27.933333	1	2.647125
27.950000	1	2.753000
27.966667	1	2.856500
27.983333	1	2.957625
28.000000	1	3.053125
28.016667	1	3.144875
28.033333	1	3.228625
28.050000	1	3.305875
28.066667	1	3.374625
28.083333	1	3.434250
28.100000	1	3.483125
28.116667	1	3.521375
28.133333	1	3.548375
28.150000	1	3.562625
28.166667	1	3.564750
28.183333	1	3.555500
28.200000	1	3.533625
28.216667	1	3.499375
28.233333	1	3.454250
28.250000	1	3.398250
28.266667	1	3.331625
28.283333	1	3.255000
28.300000	1	3.169250
28.316667	1	3.076000
28.333333	1	2.976000
28.350000	1	2.870625
28.366667	1	2.760250
28.383333	1	2.647000
28.400000	1	2.530250
28.416667	1	2.411375
28.433333	1	2.291125
28.450000	1	2.171375
28.466667	1	2.051750
28.483333	1	1.933250
28.500000	1	1.816375
28.516667	1	1.701500
28.533333	1	1.589750
28.550000	1	1.481125
28.566667	1	1.375500
28.583333	1	1.273125
28.600000	1	1.174000
28.616667	1	1.079125
28.633333	1	0.988000
28.650000	1	0.900875
28.666667	1	0.817750
28.683333	1	0.737625
28.700000	1	0.661125
28.716667	1	0.588125
28.733333	1	0.518875
28.750000	1	0.453500
28.766667	1	0.391250
28.783333	1	0.331750
28.800000	1	0.275375
28.816667	1	0.222000
28.833333	1	0.172375
28.850000	1	0.125000
28.866667	1	0.081125
28.883333	1	0.039750
28.900000	1	0.001625
28.916667	1	-0.034000
28.933333	1	-0.066500
28.950000	1	-0.095500
28.966667	1	-0.122375
28.983333	1	-0.146875
29.000000	1	-0.167750
29.016667	1	-0.186000
29.033333	1	-0.201375
29.050000	1	-0.213125
29.066667	1	-0.223125
29.083333	1	-0.230250
29.100000	1	-0.234750
29.116667	1	-0.235750
29.133333	1	-0.234500
29.150000	1	-0.230875
29.166667	1	-0.225250
29.183333	1	-0.217375
29.200000	1	-0.206625
29.216667	1	-0.194000
29.233333	1	-0.179125
29.250000	1	-0.162625
29.266667	1	-0.144250
29.283333	1	-0.123875
29.300000	1	-0.103125
29.316667	1	-0.080875
29.333333	1	-0.057000
29.350000	1	-0.033875
29.366667	1	-0.009125
29.383333	1	0.016125
29.400000	1	0.042000
29.416667	1	0.068250
29.433333	1	0.094500
29.450000	1	0.120500
29.466667	1	0.147125
29.483333	1	0.173125
29.500000	1	0.199125
29.516667	1	0.224625
29.533333	1	0.249875
29.550000	1	0.273875
29.566667	1	0.297750
29.583333	1	0.320875
29.600000	1	0.343125
29.616667	1	0.365125
29.633333	1	0.386250
29.650000	1	0.406375
29.666667	1	0.424875
29.683333	1	0.442750
29.700000	1	0.459875
29.716667	1	0.476250
29.733333	1	0.491250
29.750000	1	0.505125
29.766667	1	0.518125
29.783333	1	0.530000
29.800000	1	0.540375
29.816667	1	0.550750
29.833333	1	0.559875
29.850000	1	0.567500
29.866667	1	0.574250
29.883333	1	0.581000
29.900000	1	0.586125
29.916667	1	0.591125
29.933333	1	0.593875
29.950000	1	0.596875
29.966667	1	0.598875
29.983333	1	0.600500
30.000000	1	0.602250
30.016667	1	0.603250
30.033333	1	0.603625
30.050000	1	0.603625
30.066667	1	0.602500
30.083333	1	0.601500
30.100000	1	0.600500
30.116667	1	0.598750
30.133333	1	0.597125
30.150000	1	0.595250
30.166667	1	0.593250
30.183333	1	0.591000
30.200000	1	0.589375
30.216667	1	0.587125
30.233333	1	0.584625
30.250000	1	0.582000
30.266667	1	0.580250
30.283333	1	0.577750
30.300000	1	0.575875
30.316667	1	0.573500
30.333333	1	0.571750
30.350000	1	0.569250
30.366667	1	0.567625
30.383333	1	0.565750
30.400000	1	0.564375
30.416667	1	0.563625
30.433333	1	0.562500
30.450000	1	0.561625
30.466667	1	0.561375
30.483333	1	0.561000
30.500000	1	0.561375
30.516667	1	0.561250
30.533333	1	0.562125
30.550000	1	0.562875
30.566667	1	0.564625
30.583333	1	0.565750
30.600000	1	0.568250
30.616667	1	0.570750
30.633333	1	0.573875
30.650000	1	0.576625
30.666667	1	0.580250
30.683333	1	0.584000
30.700000	1	0.587875
30.716667	1	0.592750
30.733333	1	0.597875
30.750000	1	0.603250
30.766667	1	0.608500
30.783333	1	0.613625
30.800000	1	0.619250
30.816667	1	0.624375
30.833333	1	0.629500
30.850000	1	0.634250
30.866667	1	0.638875
30.883333	1	0.644125
30.900000	1	0.647875
30.916667	1	0.651375
30.933333	1	0.654250
30.950000	1	0.656375
30.966667	1	0.657875
30.983333	1	0.658875
31.000000	1	0.659500
31.016667	1	0.658750
31.033333	1	0.657125
31.050000	1	0.655125
31.066667	1	0.651750
31.083333	1	0.648500
31.100000	1	0.644375
31.116667	1	0.639875
31.133333	1	0.635000
31.150000	1	0.627875
31.166667	1	0.621375
31.183333	1	0.613375
31.200000	1	0.605625
31.216667	1	0.597125
31.233333	1	0.588250
31.250000	1	0.579125
31.266667	1	0.570375
31.283333	1	0.561250
31.300000	1	0.552000
31.316667	1	0.542750
31.333333	1	0.532375
31.350000	1	0.523000
31.366667	1	0.514250
31.383333	1	0.505750
31.400000	1	0.497250
31.416667	1	0.488375
31.433333	1	0.479875
31.450000	1	0.472125
31.466667	1	0.464125
31.483333	1	0.457125
31.500000	1	0.450375
31.516667	1	0.443000
31.533333	1	0.436375
31.550000	1	0.430375
31.566667	1	0.424500
31.583333	1	0.419125
31.600000	1	0.413125
31.616667	1	0.408875
31.633333	1	0.404500
31.650000	1	0.399750
31.666667	1	0.396500
31.683333	1	0.392625
31.700000	1	0.389125
31.716667	1	0.387000
31.733333	1	0.384625
31.750000	1	0.382625
31.766667	1	0.380750
31.783333	1	0.379125
31.800000	1	0.378000
31.816667	1	0.377000
31.833333	1	0.376875
31.850000	1	0.376250
31.866667	1	0.376000
31.883333	1	0.376750
31.900000	1	0.376875
31.916667	1	0.376875
31.933333	1	0.377375
31.950000	1	0.378375
31.966667	1	0.379625
31.983333	1	0.381250
32.000000	1	0.382500
32.016667	1	0.383625
32.033333	1	0.384625
32.050000	1	0.385750
32.066667	1	0.387000
32.083333	1	0.387625
32.100000	1	0.388750
32.116667	1	0.389875
32.133333	1	0.390750
32.150000	1	0.391000
32.166667	1	0.390875
32.183333	1	0.391625
32.200000	1	0.392125
32.216667	1	0.391750
32.233333	1	0.390625
32.250000	1	0.389875
32.266667	1	0.388250
32.283333	1	0.385750
32.300000	1	0.384000
32.316667	1	0.381500
32.333333	1	0.378625
32.350000	1	0.374625
32.366667	1	0.371000
32.383333	1	0.366750
32.400000	1	0.363125
32.416667	1	0.358000
32.433333	1	0.352500
32.450000	1	0.347875
32.466667	1	0.342500
32.483333	1	0.337000
32.500000	1	0.331375
32.516667	1	0.326000
32.533333	1	0.320000
32.550000	1	0.314500
32.566667	1	0.308125
32.583333	1	0.302125
32.600000	1	0.295875
32.616667	1	0.290500
32.633333	1	0.284500
32.650000	1	0.278750
32.666667	1	0.273125
32.683333	1	0.267125
32.700000	1	0.260375
32.716667	1	0.254750
32.733333	1	0.249625
32.750000	1	0.244375
32.766667	1	0.238625
32.783333	1	0.233750
32.800000	1	0.228625
32.816667	1	0.223500
32.833333	1	0.218375
32.850000	1	0.213250
32.866667	1	0.208625
32.883333	1	0.204750
32.900000	1	0.200875
32.916667	1	0.196500
32.933333	1	0.192500
32.950000	1	0.189125
32.966667	1	0.185625
32.983333	1	0.181875
33.000000	1	0.178750
33.016667	1	0.175250
33.033333	1	0.172125
33.050000	1	0.169250
33.066667	1	0.166500
33.083333	1	0.164125
33.100000	1	0.162000
33.116667	1	0.159375
33.133333	1	0.156750
33.150000	1	0.154750
33.166667	1	0.153125
33.183333	1	0.151250
33.200000	1	0.149625
33.216667	1	0.148625
33.233333	1	0.146875
33.250000	1	0.145500
33.266667	1	0.144750
33.283333	1	0.144000
33.300000	1	0.142750
33.316667	1	0.142000
33.333333	1	0.141125
33.350000	1	0.140500
33.366667	1	0.139500
33.383333	1	0.139500
33.400000	1	0.139875
33.416667	1	0.139500
33.433333	1	0.139375
33.450000	1	0.139375
33.466667	1	0.139625
33.483333	1	0.139500
33.500000	1	0.140000
33.516667	1	0.140125
33.533333	1	0.141125
33.550000	1	0.142000
33.566667	1	0.142375
33.583333	1	0.143500
33.600000	1	0.144250
33.616667	1	0.145625
33.633333	1	0.147375
33.650000	1	0.149375
33.666667	1	0.151250
33.683333	1	0.152625
33.700000	1	0.154500
33.716667	1	0.156250
33.733333	1	0.158625
33.750000	1	0.161125
33.766667	1	0.163375
33.783333	1	0.166375
33.800000	1	0.169750
33.816667	1	0.173125
33.833333	1	0.177250
33.850000	1	0.181375
33.866667	1	0.185500
33.883333	1	0.190125
33.900000	1	0.194875
33.916667	1	0.200375
33.933333	1	0.206875
33.950000	1	0.213250
33.966667	1	0.220000
33.983333	1	0.228125
34.000000	1	0.236250
34.016667	1	0.245000
34.033333	1	0.253875
34.050000	1	0.263250
34.066667	1	0.272875
34.083333	1	0.283000
34.100000	1	0.293625
34.116667	1	0.305000
34.133333	1	0.316250
34.150000	1	0.328625
34.166667	1	0.340625
34.183333	1	0.352625
34.200000	1	0.365375
34.216667	1	0.378125
34.233333	1	0.390625
34.250000	1	0.402500
34.266667	1	0.413750
34.283333	1	0.424875
34.300000	1	0.435375
34.316667	1	0.446000
34.333333	1	0.456250
34.350000	1	0.465625
34.366667	1	0.473500
34.383333	1	0.481250
34.400000	1	0.487625
34.416667	1	0.492500
34.433333	1	0.496750
34.450000	1	0.499875
34.466667	1	0.502000
34.483333	1	0.502000
34.500000	1	0.501875
34.516667	1	0.500500
34.533333	1	0.498625
34.550000	1	0.494250
34.566667	1	0.489500
34.583333	1	0.484000
34.600000	1	0.477375
34.616667	1	0.469625
34.633333	1	0.460750
34.650000	1	0.452125
34.666667	1	0.442750
34.683333	1	0.432250
34.700000	1	0.420875
34.716667	1	0.409625
34.733333	1	0.398250
34.750000	1	0.386250
34.766667	1	0.374625
34.783333	1	0.362500
34.800000	1	0.350000
34.816667	1	0.337750
34.833333	1	0.325750
34.850000	1	0.313750
34.866667	1	0.302125
34.883333	1	0.290750
34.900000	1	0.279625
34.916667	1	0.268500
34.933333	1	0.257250
34.950000	1	0.246500
34.966667	1	0.236250
34.983333	1	0.226750
35.000000	1	0.217625
35.016667	1	0.208625
35.033333	1	0.200625
35.050000	1	0.192500
35.066667	1	0.185125
35.083333	1	0.178000
35.100000	1	0.171375
35.116667	1	0.165625
35.133333	1	0.159750
35.150000	1	0.154375
35.166667	1	0.149250
35.183333	1	0.144625
35.200000	1	0.140750
35.216667	1	0.137875
35.233333	1	0.134625
35.250000	1	0.131500
35.266667	1	0.128875
35.283333	1	0.127000
35.300000	1	0.125375
35.316667	1	0.123500
35.333333	1	0.122500
35.350000	1	0.122000
35.366667	1	0.120750
35.383333	1	0.120125
35.400000	1	0.118625
35.416667	1	0.118250
35.433333	1	0.118250
35.450000	1	0.118500
35.466667	1	0.119000
35.483333	1	0.119375
35.500000	1	0.120250
35.516667	1	0.121125
35.533333	1	0.121125
35.550000	1	0.121625
35.566667	1	0.121375
35.583333	1	0.122500
35.600000	1	0.123500
35.616667	1	0.124250
35.633333	1	0.124750
35.650000	1	0.125375
35.666667	1	0.126750
35.683333	1	0.127250
35.700000	1	0.127750
35.716667	1	0.128125
35.733333	1	0.128750
35.750000	1	0.129125
35.766667	1	0.129500
35.783333	1	0.130125
35.800000	1	0.131000
35.816667	1	0.131125
35.833333	1	0.131125
35.850000	1	0.131250
35.866667	1	0.131250
35.883333	1	0.131875
35.900000	1	0.132125
35.916667	1	0.131500
35.933333	1	0.132000
35.950000	1	0.131500
35.966667	1	0.131875
35.983333	1	0.132250
36.000000	1	0.132250
36.016667	1	0.132000
36.033333	1	0.131500
36.050000	1	0.131875
36.066667	1	0.131125
36.083333	1	0.130875
36.100000	1	0.130875
36.116667	1	0.130750
36.133333	1	0.130500
36.150000	1	0.130000
36.166667	1	0.129500
36.183333	1	0.128625
36.200000	1	0.127625
36.216667	1	0.127125
36.233333	1	0.126500
36.250000	1	0.126250
36.266667	1	0.125500
36.283333	1	0.124750
36.300000	1	0.123625
36.316667	1	0.123125
36.333333	1	0.122500
36.350000	1	0.122000
36.366667	1	0.120750
36.383333	1	0.120000
36.400000	1	0.119000
36.416667	1	0.118250
36.433333	1	0.116875
36.450000	1	0.115375
36.466667	1	0.114125
36.483333	1	0.112625
36.500000	1	0.111500
36.516667	1	0.110375
36.533333	1	0.108500
36.550000	1	0.107875
36.566667	1	0.106875
36.583333	1	0.105125
36.600000	1	0.104125
36.616667	1	0.103125
36.633333	1	0.102125
36.650000	1	0.101500
36.666667	1	0.100250
36.683333	1	0.098625
36.700000	1	0.097500
36.716667	1	0.096750
36.733333	1	0.096625
36.750000	1	0.095125
36.766667	1	0.094125
36.783333	1	0.093000
36.800000	1	0.092125
36.816667	1	0.091000
36.833333	1	0.090000
36.850000	1	0.088875
36.866667	1	0.087625
36.883333	1	0.087250
36.900000	1	0.086250
36.916667	1	0.085000
36.933333	1	0.084375
36.950000	1	0.082875
36.966667	1	0.081875
36.983333	1	0.080500
37.000000	1	0.079500
37.016667	1	0.078750
37.033333	1	0.076625
37.050000	1	0.075125
37.066667	1	0.073125
37.083333	1	0.071625
37.100000	1	0.070500
37.116667	1	0.069000
37.133333	1	0.067875
37.150000	1	0.066125
37.166667	1	0.064375
37.183333	1	0.062625
37.200000	1	0.061125
37.216667	1	0.059375
37.233333	1	0.056750
37.250000	1	0.055000
37.266667	1	0.053000
37.283333	1	0.051000
37.300000	1	0.048500
37.316667	1	0.046750
37.333333	1	0.044500
37.350000	1	0.042875
37.366667	1	0.041000
37.383333	1	0.039375
37.400000	1	0.037750
37.416667	1	0.036625
37.433333	1	0.034375
37.450000	1	0.032500
37.466667	1	0.031000
37.483333	1	0.029125
37.500000	1	0.027625
37.516667	1	0.025875
37.533333	1	0.024375
37.550000	1	0.023000
37.566667	1	0.021375
37.583333	1	0.020250
37.600000	1	0.018875
37.616667	1	0.016750
37.633333	1	0.015875
37.650000	1	0.014625
37.666667	1	0.012875
37.683333	1	0.011375
37.700000	1	0.009750
37.716667	1	0.008750
37.733333	1	0.007750
37.750000	1	0.006375
37.766667	1	0.005250
37.783333	1	0.004250
37.800000	1	0.002750
37.816667	1	0.001000
37.833333	1	0.000000
37.850000	1	-0.001250
37.866667	1	-0.002125
37.883333	1	-0.003500
37.900000	1	-0.005250
37.916667	1	-0.006625
37.933333	1	-0.008250
37.950000	1	-0.009875
37.966667	1	-0.011125
37.983333	1	-0.012500
38.000000	1	-0.013875
38.016667	1	-0.015000
38.033333	1	-0.016625
38.050000	1	-0.018250
38.066667	1	-0.019125
38.083333	1	-0.020375
38.100000	1	-0.021750
38.116667	1	-0.022750
38.133333	1	-0.023625
38.150000	1	-0.024375
38.166667	1	-0.025500
38.183333	1	-0.026125
38.200000	1	-0.026625
38.216667	1	-0.027375
38.233333	1	-0.027625
38.250000	1	-0.028250
38.266667	1	-0.029250
38.283333	1	-0.029500
38.300000	1	-0.030000
38.316667	1	-0.030625
38.333333	1	-0.030375
38.350000	1	-0.030875
38.366667	1	-0.031250
38.383333	1	-0.030625
38.400000	1	-0.031875
38.416667	1	-0.032375
38.433333	1	-0.032625
38.450000	1	-0.032250
38.466667	1	-0.032625
38.483333	1	-0.033250
38.500000	1	-0.033625
38.516667	1	-0.032750
38.533333	1	-0.033000
38.550000	1	-0.032875
38.566667	1	-0.032625
38.583333	1	-0.033125
38.600000	1	-0.032750
38.616667	1	-0.033000
38.633333	1	-0.033125
38.650000	1	-0.033000
38.666667	1	-0.033000
38.683333	1	-0.033000
38.700000	1	-0.033625
38.716667	1	-0.033625
38.733333	1	-0.034000
38.750000	1	-0.033750
38.766667	1	-0.034000
38.783333	1	-0.033750
38.800000	1	-0.034625
38.816667	1	-0.034750
38.833333	1	-0.034500
38.850000	1	-0.034500
38.866667	1	-0.035000
38.883333	1	-0.035000
38.900000	1	-0.034875
38.916667	1	-0.034625
38.933333	1	-0.034250
38.950000	1	-0.033750
38.966667	1	-0.033500
38.983333	1	-0.033125
39.000000	1	-0.032750
39.016667	1	-0.032375
39.033333	1	-0.032625
39.050000	1	-0.032125
39.066667	1	-0.032000
39.083333	1	-0.031625
39.100000	1	-0.031000
39.116667	1	-0.030000
39.133333	1	-0.029750
39.150000	1	-0.029625
39.166667	1	-0.028875
39.183333	1	-0.028250
39.200000	1	-0.027500
39.216667	1	-0.026750
39.233333	1	-0.027000
39.250000	1	-0.026875
39.266667	1	-0.026625
39.283333	1	-0.026125
39.300000	1	-0.025375
39.316667	1	-0.025250
39.333333	1	-0.025000
39.350000	1	-0.024500
39.366667	1	-0.024000
39.383333	1	-0.024125
39.400000	1	-0.023625
39.416667	1	-0.023375
39.433333	1	-0.023250
39.450000	1	-0.022750
39.466667	1	-0.022500
39.483333	1	-0.022125
39.500000	1	-0.021250
39.516667	1	-0.021500
39.533333	1	-0.021125
39.550000	1	-0.020250
39.566667	1	-0.020000
39.583333	1	-0.019250
39.600000	1	-0.019125
39.616667	1	-0.019250
39.633333	1	-0.019500
39.650000	1	-0.018750
39.666667	1	-0.018750
39.683333	1	-0.018375
39.700000	1	-0.017750
39.716667	1	-0.017250
39.733333	1	-0.016625
39.750000	1	-0.016125
39.766667	1	-0.016250
39.783333	1	-0.016375
39.800000	1	-0.015750
39.816667	1	-0.015375
39.833333	1	-0.016250
39.850000	1	-0.016125
39.866667	1	-0.016750
39.883333	1	-0.016750
39.900000	1	-0.016750
39.916667	1	-0.016750
39.933333	1	-0.017000
39.950000	1	-0.017625
39.966667	1	-0.018125
39.983333	1	-0.018250
40.000000	1	-0.018125
