File Path	chrom://marshall/Chromeleon7/HPLC_Ultimate_3000/Users/markusar/20230616_CMO_FP13_14_15.seq/266.smp/RI_1.channel/RI_1.chm
Channel	RI_1

Injection Information:
Data Vault	Chromeleon7
Injection	FP14_2.2_s1
Injection Number	14
Position	BD7
Comment	
Processing Method	
Instrument Method	run_25B_method
Type	Unknown
Status	Finished
Injection Date	17.06.2023
Injection Time	01:21:24
Injection Volume (µl)	20.000
Dilution Factor	1.0000
Weight	1.0000

Chromatogram Data Information:
Time Min. (min)	0.000000
Time Max. (min)	40.000000
Data Points	2401
Detector	RI
Generating Data System	Chromeleon 7.2.5.9507
Exporting Data System	Chromeleon 7.2.5.0
Operator	Instrument Controller
Signal Quantity	Refractive 
Signal Unit	µRIU
Signal Min.	-0.230625
Signal Max.	44.697750
Channel	RI_1
Driver Name	RID520Driver.dll
Channel Type	Evaluation
Min. Step (s)	1
Max. Step (s)	1
Average Step (s)	1

Signal Parameter Information:
Signal Info	

Chromatogram Data:
Time (min)	Step (s)	Value (µRIU)
0.000000	n.a.	0.006500
0.016667	1	0.004625
0.033333	1	0.003625
0.050000	1	0.001500
0.066667	1	0.000500
0.083333	1	-0.000500
0.100000	1	-0.002000
0.116667	1	-0.003875
0.133333	1	-0.005000
0.150000	1	-0.006750
0.166667	1	-0.007500
0.183333	1	-0.008875
0.200000	1	-0.010500
0.216667	1	-0.011500
0.233333	1	-0.012625
0.250000	1	-0.013875
0.266667	1	-0.014750
0.283333	1	-0.015125
0.300000	1	-0.016500
0.316667	1	-0.017625
0.333333	1	-0.018875
0.350000	1	-0.019750
0.366667	1	-0.020500
0.383333	1	-0.020875
0.400000	1	-0.021125
0.416667	1	-0.022625
0.433333	1	-0.024750
0.450000	1	-0.027125
0.466667	1	-0.029250
0.483333	1	-0.030875
0.500000	1	-0.030625
0.516667	1	-0.028250
0.533333	1	-0.025250
0.550000	1	-0.022875
0.566667	1	-0.019250
0.583333	1	-0.016625
0.600000	1	-0.014750
0.616667	1	-0.013375
0.633333	1	-0.011750
0.650000	1	-0.011375
0.666667	1	-0.012250
0.683333	1	-0.013625
0.700000	1	-0.014875
0.716667	1	-0.016250
0.733333	1	-0.017750
0.750000	1	-0.018500
0.766667	1	-0.018750
0.783333	1	-0.019625
0.800000	1	-0.019875
0.816667	1	-0.020250
0.833333	1	-0.020250
0.850000	1	-0.020500
0.866667	1	-0.020500
0.883333	1	-0.020500
0.900000	1	-0.020500
0.916667	1	-0.020125
0.933333	1	-0.019875
0.950000	1	-0.019500
0.966667	1	-0.019125
0.983333	1	-0.018625
1.000000	1	-0.018250
1.016667	1	-0.018250
1.033333	1	-0.018000
1.050000	1	-0.017625
1.066667	1	-0.017125
1.083333	1	-0.017625
1.100000	1	-0.017750
1.116667	1	-0.016750
1.133333	1	-0.016000
1.150000	1	-0.016250
1.166667	1	-0.016375
1.183333	1	-0.016500
1.200000	1	-0.016125
1.216667	1	-0.016250
1.233333	1	-0.016500
1.250000	1	-0.016375
1.266667	1	-0.016625
1.283333	1	-0.016125
1.300000	1	-0.016125
1.316667	1	-0.015375
1.333333	1	-0.014625
1.350000	1	-0.014875
1.366667	1	-0.014625
1.383333	1	-0.014375
1.400000	1	-0.014875
1.416667	1	-0.014875
1.433333	1	-0.014750
1.450000	1	-0.014375
1.466667	1	-0.014875
1.483333	1	-0.015625
1.500000	1	-0.015125
1.516667	1	-0.014500
1.533333	1	-0.015125
1.550000	1	-0.015000
1.566667	1	-0.015625
1.583333	1	-0.015750
1.600000	1	-0.015500
1.616667	1	-0.015750
1.633333	1	-0.015875
1.650000	1	-0.016125
1.666667	1	-0.016375
1.683333	1	-0.016625
1.700000	1	-0.017125
1.716667	1	-0.017375
1.733333	1	-0.017750
1.750000	1	-0.018125
1.766667	1	-0.018500
1.783333	1	-0.018875
1.800000	1	-0.019375
1.816667	1	-0.020500
1.833333	1	-0.020125
1.850000	1	-0.020250
1.866667	1	-0.020750
1.883333	1	-0.021125
1.900000	1	-0.020875
1.916667	1	-0.021500
1.933333	1	-0.021750
1.950000	1	-0.022000
1.966667	1	-0.022000
1.983333	1	-0.022625
2.000000	1	-0.023125
2.016667	1	-0.023125
2.033333	1	-0.023375
2.050000	1	-0.024000
2.066667	1	-0.023750
2.083333	1	-0.024250
2.100000	1	-0.024375
2.116667	1	-0.024500
2.133333	1	-0.024625
2.150000	1	-0.024875
2.166667	1	-0.024500
2.183333	1	-0.024500
2.200000	1	-0.024000
2.216667	1	-0.024875
2.233333	1	-0.025625
2.250000	1	-0.025875
2.266667	1	-0.025375
2.283333	1	-0.025250
2.300000	1	-0.025125
2.316667	1	-0.025750
2.333333	1	-0.026000
2.350000	1	-0.026500
2.366667	1	-0.027000
2.383333	1	-0.026750
2.400000	1	-0.027125
2.416667	1	-0.026875
2.433333	1	-0.027500
2.450000	1	-0.027625
2.466667	1	-0.027625
2.483333	1	-0.028125
2.500000	1	-0.028000
2.516667	1	-0.027750
2.533333	1	-0.027375
2.550000	1	-0.027500
2.566667	1	-0.028250
2.583333	1	-0.028500
2.600000	1	-0.028750
2.616667	1	-0.028500
2.633333	1	-0.028000
2.650000	1	-0.027375
2.666667	1	-0.027500
2.683333	1	-0.027500
2.700000	1	-0.027625
2.716667	1	-0.027000
2.733333	1	-0.027125
2.750000	1	-0.026625
2.766667	1	-0.027250
2.783333	1	-0.027125
2.800000	1	-0.026750
2.816667	1	-0.026750
2.833333	1	-0.026250
2.850000	1	-0.025875
2.866667	1	-0.025500
2.883333	1	-0.025500
2.900000	1	-0.025250
2.916667	1	-0.025125
2.933333	1	-0.025125
2.950000	1	-0.024375
2.966667	1	-0.023875
2.983333	1	-0.023125
3.000000	1	-0.023000
3.016667	1	-0.023000
3.033333	1	-0.022625
3.050000	1	-0.022375
3.066667	1	-0.022000
3.083333	1	-0.021625
3.100000	1	-0.021500
3.116667	1	-0.021000
3.133333	1	-0.020250
3.150000	1	-0.019875
3.166667	1	-0.019625
3.183333	1	-0.019125
3.200000	1	-0.019250
3.216667	1	-0.019000
3.233333	1	-0.019000
3.250000	1	-0.018125
3.266667	1	-0.017625
3.283333	1	-0.017250
3.300000	1	-0.016875
3.316667	1	-0.016875
3.333333	1	-0.016750
3.350000	1	-0.016375
3.366667	1	-0.016625
3.383333	1	-0.016625
3.400000	1	-0.016750
3.416667	1	-0.016875
3.433333	1	-0.016625
3.450000	1	-0.016250
3.466667	1	-0.016125
3.483333	1	-0.016375
3.500000	1	-0.016875
3.516667	1	-0.016500
3.533333	1	-0.015750
3.550000	1	-0.015125
3.566667	1	-0.015000
3.583333	1	-0.015000
3.600000	1	-0.014750
3.616667	1	-0.014750
3.633333	1	-0.014250
3.650000	1	-0.014125
3.666667	1	-0.014000
3.683333	1	-0.013250
3.700000	1	-0.012750
3.716667	1	-0.012000
3.733333	1	-0.011125
3.750000	1	-0.010500
3.766667	1	-0.009750
3.783333	1	-0.009500
3.800000	1	-0.009125
3.816667	1	-0.008625
3.833333	1	-0.007875
3.850000	1	-0.007125
3.866667	1	-0.005875
3.883333	1	-0.005000
3.900000	1	-0.004375
3.916667	1	-0.003625
3.933333	1	-0.002625
3.950000	1	-0.001875
3.966667	1	-0.001750
3.983333	1	-0.001250
4.000000	1	-0.000750
4.016667	1	-0.000125
4.033333	1	0.000625
4.050000	1	0.001750
4.066667	1	0.002625
4.083333	1	0.003875
4.100000	1	0.003750
4.116667	1	0.004250
4.133333	1	0.004625
4.150000	1	0.005625
4.166667	1	0.006500
4.183333	1	0.007125
4.200000	1	0.007500
4.216667	1	0.008875
4.233333	1	0.009375
4.250000	1	0.009875
4.266667	1	0.010375
4.283333	1	0.010750
4.300000	1	0.011250
4.316667	1	0.012000
4.333333	1	0.012750
4.350000	1	0.013250
4.366667	1	0.014125
4.383333	1	0.015125
4.400000	1	0.015875
4.416667	1	0.016000
4.433333	1	0.016500
4.450000	1	0.017375
4.466667	1	0.018000
4.483333	1	0.019000
4.500000	1	0.020125
4.516667	1	0.021125
4.533333	1	0.021500
4.550000	1	0.022000
4.566667	1	0.022125
4.583333	1	0.022625
4.600000	1	0.023625
4.616667	1	0.025250
4.633333	1	0.025375
4.650000	1	0.026000
4.666667	1	0.025875
4.683333	1	0.027250
4.700000	1	0.027750
4.716667	1	0.028250
4.733333	1	0.029000
4.750000	1	0.030250
4.766667	1	0.031375
4.783333	1	0.031375
4.800000	1	0.032375
4.816667	1	0.032875
4.833333	1	0.033875
4.850000	1	0.034500
4.866667	1	0.035250
4.883333	1	0.036125
4.900000	1	0.037125
4.916667	1	0.038625
4.933333	1	0.039625
4.950000	1	0.040625
4.966667	1	0.041750
4.983333	1	0.042500
5.000000	1	0.043250
5.016667	1	0.044500
5.033333	1	0.045750
5.050000	1	0.046250
5.066667	1	0.047375
5.083333	1	0.049000
5.100000	1	0.049875
5.116667	1	0.051000
5.133333	1	0.051500
5.150000	1	0.052625
5.166667	1	0.054250
5.183333	1	0.055125
5.200000	1	0.055625
5.216667	1	0.057250
5.233333	1	0.058250
5.250000	1	0.059125
5.266667	1	0.060000
5.283333	1	0.061375
5.300000	1	0.062500
5.316667	1	0.064125
5.333333	1	0.064875
5.350000	1	0.065625
5.366667	1	0.066375
5.383333	1	0.066875
5.400000	1	0.067875
5.416667	1	0.069000
5.433333	1	0.069000
5.450000	1	0.069250
5.466667	1	0.070000
5.483333	1	0.071000
5.500000	1	0.071625
5.516667	1	0.072125
5.533333	1	0.071875
5.550000	1	0.072625
5.566667	1	0.072625
5.583333	1	0.072375
5.600000	1	0.072375
5.616667	1	0.072000
5.633333	1	0.072250
5.650000	1	0.072000
5.666667	1	0.071875
5.683333	1	0.072125
5.700000	1	0.071500
5.716667	1	0.071000
5.733333	1	0.069500
5.750000	1	0.068750
5.766667	1	0.068000
5.783333	1	0.066750
5.800000	1	0.065500
5.816667	1	0.064750
5.833333	1	0.063500
5.850000	1	0.062500
5.866667	1	0.061500
5.883333	1	0.060750
5.900000	1	0.060125
5.916667	1	0.058625
5.933333	1	0.057125
5.950000	1	0.055750
5.966667	1	0.054625
5.983333	1	0.053250
6.000000	1	0.052625
6.016667	1	0.051500
6.033333	1	0.050500
6.050000	1	0.049875
6.066667	1	0.049500
6.083333	1	0.049000
6.100000	1	0.047875
6.116667	1	0.047500
6.133333	1	0.046625
6.150000	1	0.046250
6.166667	1	0.045750
6.183333	1	0.045125
6.200000	1	0.044250
6.216667	1	0.043125
6.233333	1	0.043375
6.250000	1	0.043375
6.266667	1	0.043000
6.283333	1	0.042875
6.300000	1	0.043375
6.316667	1	0.043500
6.333333	1	0.043750
6.350000	1	0.043500
6.366667	1	0.044125
6.383333	1	0.043875
6.400000	1	0.043875
6.416667	1	0.044625
6.433333	1	0.045375
6.450000	1	0.045625
6.466667	1	0.047000
6.483333	1	0.047375
6.500000	1	0.048000
6.516667	1	0.048250
6.533333	1	0.049500
6.550000	1	0.049750
6.566667	1	0.050875
6.583333	1	0.052125
6.600000	1	0.052875
6.616667	1	0.053875
6.633333	1	0.055250
6.650000	1	0.056500
6.666667	1	0.058000
6.683333	1	0.058750
6.700000	1	0.059500
6.716667	1	0.061000
6.733333	1	0.062500
6.750000	1	0.064375
6.766667	1	0.065625
6.783333	1	0.067125
6.800000	1	0.069125
6.816667	1	0.071000
6.833333	1	0.072750
6.850000	1	0.075250
6.866667	1	0.076000
6.883333	1	0.077500
6.900000	1	0.079125
6.916667	1	0.080875
6.933333	1	0.083250
6.950000	1	0.084750
6.966667	1	0.086125
6.983333	1	0.088250
7.000000	1	0.090250
7.016667	1	0.091625
7.033333	1	0.093500
7.050000	1	0.095750
7.066667	1	0.097000
7.083333	1	0.098125
7.100000	1	0.099000
7.116667	1	0.100000
7.133333	1	0.101250
7.150000	1	0.101875
7.166667	1	0.103125
7.183333	1	0.104500
7.200000	1	0.105250
7.216667	1	0.105375
7.233333	1	0.105875
7.250000	1	0.106000
7.266667	1	0.106500
7.283333	1	0.106750
7.300000	1	0.106750
7.316667	1	0.106625
7.333333	1	0.106375
7.350000	1	0.107125
7.366667	1	0.106875
7.383333	1	0.106375
7.400000	1	0.105625
7.416667	1	0.106000
7.433333	1	0.105375
7.450000	1	0.105625
7.466667	1	0.105125
7.483333	1	0.105375
7.500000	1	0.104625
7.516667	1	0.104000
7.533333	1	0.103000
7.550000	1	0.102625
7.566667	1	0.102625
7.583333	1	0.102250
7.600000	1	0.101500
7.616667	1	0.101750
7.633333	1	0.101750
7.650000	1	0.101750
7.666667	1	0.101000
7.683333	1	0.101125
7.700000	1	0.101125
7.716667	1	0.101125
7.733333	1	0.100375
7.750000	1	0.100125
7.766667	1	0.100375
7.783333	1	0.099750
7.800000	1	0.099625
7.816667	1	0.099875
7.833333	1	0.099875
7.850000	1	0.099375
7.866667	1	0.099125
7.883333	1	0.098625
7.900000	1	0.098375
7.916667	1	0.098625
7.933333	1	0.098500
7.950000	1	0.098125
7.966667	1	0.097500
7.983333	1	0.096875
8.000000	1	0.096250
8.016667	1	0.095625
8.033333	1	0.095125
8.050000	1	0.094000
8.066667	1	0.093875
8.083333	1	0.093375
8.100000	1	0.091750
8.116667	1	0.090750
8.133333	1	0.090000
8.150000	1	0.088875
8.166667	1	0.088250
8.183333	1	0.087125
8.200000	1	0.086375
8.216667	1	0.085750
8.233333	1	0.084875
8.250000	1	0.084125
8.266667	1	0.083375
8.283333	1	0.082875
8.300000	1	0.082125
8.316667	1	0.081625
8.333333	1	0.080750
8.350000	1	0.079750
8.366667	1	0.079000
8.383333	1	0.079000
8.400000	1	0.078125
8.416667	1	0.077500
8.433333	1	0.077625
8.450000	1	0.077250
8.466667	1	0.077125
8.483333	1	0.075750
8.500000	1	0.075625
8.516667	1	0.075375
8.533333	1	0.075750
8.550000	1	0.076000
8.566667	1	0.076125
8.583333	1	0.076000
8.600000	1	0.076500
8.616667	1	0.077000
8.633333	1	0.077500
8.650000	1	0.078625
8.666667	1	0.079500
8.683333	1	0.080000
8.700000	1	0.080875
8.716667	1	0.081750
8.733333	1	0.082375
8.750000	1	0.083250
8.766667	1	0.084125
8.783333	1	0.085375
8.800000	1	0.086625
8.816667	1	0.088000
8.833333	1	0.089625
8.850000	1	0.091375
8.866667	1	0.092250
8.883333	1	0.093875
8.900000	1	0.095250
8.916667	1	0.096875
8.933333	1	0.098000
8.950000	1	0.099125
8.966667	1	0.100875
8.983333	1	0.102375
9.000000	1	0.103500
9.016667	1	0.104500
9.033333	1	0.105875
9.050000	1	0.107000
9.066667	1	0.108000
9.083333	1	0.109125
9.100000	1	0.111000
9.116667	1	0.111750
9.133333	1	0.112875
9.150000	1	0.113375
9.166667	1	0.114125
9.183333	1	0.114875
9.200000	1	0.115625
9.216667	1	0.117000
9.233333	1	0.117500
9.250000	1	0.118250
9.266667	1	0.118875
9.283333	1	0.119375
9.300000	1	0.119875
9.316667	1	0.120750
9.333333	1	0.122250
9.350000	1	0.122750
9.366667	1	0.124250
9.383333	1	0.124875
9.400000	1	0.126125
9.416667	1	0.127250
9.433333	1	0.129000
9.450000	1	0.130625
9.466667	1	0.132500
9.483333	1	0.135125
9.500000	1	0.138000
9.516667	1	0.141250
9.533333	1	0.145625
9.550000	1	0.149625
9.566667	1	0.155000
9.583333	1	0.161500
9.600000	1	0.168125
9.616667	1	0.175500
9.633333	1	0.183000
9.650000	1	0.190375
9.666667	1	0.198000
9.683333	1	0.205500
9.700000	1	0.211375
9.716667	1	0.216375
9.733333	1	0.219750
9.750000	1	0.221750
9.766667	1	0.221250
9.783333	1	0.219750
9.800000	1	0.217750
9.816667	1	0.217375
9.833333	1	0.222125
9.850000	1	0.235750
9.866667	1	0.263875
9.883333	1	0.313000
9.900000	1	0.390750
9.916667	1	0.505000
9.933333	1	0.667250
9.950000	1	0.891125
9.966667	1	1.192000
9.983333	1	1.589250
10.000000	1	2.106500
10.016667	1	2.767250
10.033333	1	3.594500
10.050000	1	4.607750
10.066667	1	5.820625
10.083333	1	7.241250
10.100000	1	8.869000
10.116667	1	10.692125
10.133333	1	12.689125
10.150000	1	14.826375
10.166667	1	17.060625
10.183333	1	19.335875
10.200000	1	21.587875
10.216667	1	23.747000
10.233333	1	25.738375
10.250000	1	27.487875
10.266667	1	28.930125
10.283333	1	30.008500
10.300000	1	30.686750
10.316667	1	30.948250
10.333333	1	30.804625
10.350000	1	30.292125
10.366667	1	29.466750
10.383333	1	28.398125
10.400000	1	27.160250
10.416667	1	25.821750
10.433333	1	24.440875
10.450000	1	23.065250
10.466667	1	21.723375
10.483333	1	20.433625
10.500000	1	19.204125
10.516667	1	18.037250
10.533333	1	16.931250
10.550000	1	15.880750
10.566667	1	14.881000
10.583333	1	13.927250
10.600000	1	13.015875
10.616667	1	12.142625
10.633333	1	11.307500
10.650000	1	10.508500
10.666667	1	9.744000
10.683333	1	9.016750
10.700000	1	8.327625
10.716667	1	7.677000
10.733333	1	7.067875
10.750000	1	6.501375
10.766667	1	5.979750
10.783333	1	5.502500
10.800000	1	5.069125
10.816667	1	4.678375
10.833333	1	4.329125
10.850000	1	4.018625
10.866667	1	3.743500
10.883333	1	3.501000
10.900000	1	3.286125
10.916667	1	3.097125
10.933333	1	2.930625
10.950000	1	2.782750
10.966667	1	2.652375
10.983333	1	2.536375
11.000000	1	2.432250
11.016667	1	2.339875
11.033333	1	2.255875
11.050000	1	2.180125
11.066667	1	2.111500
11.083333	1	2.048500
11.100000	1	1.990125
11.116667	1	1.935500
11.133333	1	1.885875
11.150000	1	1.839500
11.166667	1	1.795625
11.183333	1	1.754625
11.200000	1	1.716500
11.216667	1	1.680250
11.233333	1	1.645500
11.250000	1	1.612500
11.266667	1	1.580875
11.283333	1	1.549875
11.300000	1	1.520250
11.316667	1	1.492375
11.333333	1	1.465250
11.350000	1	1.439125
11.366667	1	1.413750
11.383333	1	1.389375
11.400000	1	1.365500
11.416667	1	1.343125
11.433333	1	1.320875
11.450000	1	1.300125
11.466667	1	1.280375
11.483333	1	1.261250
11.500000	1	1.243625
11.516667	1	1.227000
11.533333	1	1.211125
11.550000	1	1.196500
11.566667	1	1.182625
11.583333	1	1.169375
11.600000	1	1.157000
11.616667	1	1.146250
11.633333	1	1.136250
11.650000	1	1.126375
11.666667	1	1.117625
11.683333	1	1.109875
11.700000	1	1.101500
11.716667	1	1.094125
11.733333	1	1.087375
11.750000	1	1.080500
11.766667	1	1.074375
11.783333	1	1.069125
11.800000	1	1.063750
11.816667	1	1.058750
11.833333	1	1.054125
11.850000	1	1.051125
11.866667	1	1.048250
11.883333	1	1.046875
11.900000	1	1.046750
11.916667	1	1.047250
11.933333	1	1.049500
11.950000	1	1.053500
11.966667	1	1.060125
11.983333	1	1.067500
12.000000	1	1.078375
12.016667	1	1.090750
12.033333	1	1.106000
12.050000	1	1.124125
12.066667	1	1.145500
12.083333	1	1.170125
12.100000	1	1.199125
12.116667	1	1.232625
12.133333	1	1.271625
12.150000	1	1.315750
12.166667	1	1.367250
12.183333	1	1.426500
12.200000	1	1.495125
12.216667	1	1.574625
12.233333	1	1.666000
12.250000	1	1.771000
12.266667	1	1.890250
12.283333	1	2.026750
12.300000	1	2.181250
12.316667	1	2.354375
12.333333	1	2.548125
12.350000	1	2.763875
12.366667	1	3.002625
12.383333	1	3.267500
12.400000	1	3.557125
12.416667	1	3.871875
12.433333	1	4.211375
12.450000	1	4.574125
12.466667	1	4.957750
12.483333	1	5.356375
12.500000	1	5.765250
12.516667	1	6.177625
12.533333	1	6.585750
12.550000	1	6.981500
12.566667	1	7.359250
12.583333	1	7.710875
12.600000	1	8.031125
12.616667	1	8.316875
12.633333	1	8.564750
12.650000	1	8.773875
12.666667	1	8.943500
12.683333	1	9.075875
12.700000	1	9.172750
12.716667	1	9.235875
12.733333	1	9.269500
12.750000	1	9.275500
12.766667	1	9.259000
12.783333	1	9.223375
12.800000	1	9.171625
12.816667	1	9.106500
12.833333	1	9.031750
12.850000	1	8.948375
12.866667	1	8.858000
12.883333	1	8.762000
12.900000	1	8.661125
12.916667	1	8.555875
12.933333	1	8.447375
12.950000	1	8.334250
12.966667	1	8.217000
12.983333	1	8.094375
13.000000	1	7.966875
13.016667	1	7.833500
13.033333	1	7.693250
13.050000	1	7.545375
13.066667	1	7.388375
13.083333	1	7.222375
13.100000	1	7.045125
13.116667	1	6.857000
13.133333	1	6.656125
13.150000	1	6.441500
13.166667	1	6.212000
13.183333	1	5.965375
13.200000	1	5.702250
13.216667	1	5.420500
13.233333	1	5.118750
13.250000	1	4.796875
13.266667	1	4.454500
13.283333	1	4.093625
13.300000	1	3.723375
13.316667	1	3.354625
13.333333	1	3.004375
13.350000	1	2.686250
13.366667	1	2.410625
13.383333	1	2.178250
13.400000	1	1.986125
13.416667	1	1.830500
13.433333	1	1.703000
13.450000	1	1.598375
13.466667	1	1.512500
13.483333	1	1.440375
13.500000	1	1.380125
13.516667	1	1.329750
13.533333	1	1.286000
13.550000	1	1.247750
13.566667	1	1.215375
13.583333	1	1.186500
13.600000	1	1.161375
13.616667	1	1.139250
13.633333	1	1.118625
13.650000	1	1.101125
13.666667	1	1.085125
13.683333	1	1.071250
13.700000	1	1.057875
13.716667	1	1.046875
13.733333	1	1.035750
13.750000	1	1.024875
13.766667	1	1.014375
13.783333	1	1.004000
13.800000	1	0.993375
13.816667	1	0.982125
13.833333	1	0.971875
13.850000	1	0.960625
13.866667	1	0.949750
13.883333	1	0.938125
13.900000	1	0.926375
13.916667	1	0.914750
13.933333	1	0.903125
13.950000	1	0.891625
13.966667	1	0.881125
13.983333	1	0.870750
14.000000	1	0.861125
14.016667	1	0.852375
14.033333	1	0.844750
14.050000	1	0.838250
14.066667	1	0.833625
14.083333	1	0.830500
14.100000	1	0.829500
14.116667	1	0.830750
14.133333	1	0.834750
14.150000	1	0.842000
14.166667	1	0.851375
14.183333	1	0.865250
14.200000	1	0.884125
14.216667	1	0.908125
14.233333	1	0.937750
14.250000	1	0.973625
14.266667	1	1.017375
14.283333	1	1.068500
14.300000	1	1.129500
14.316667	1	1.200000
14.333333	1	1.281375
14.350000	1	1.375000
14.366667	1	1.483125
14.383333	1	1.605500
14.400000	1	1.743750
14.416667	1	1.899250
14.433333	1	2.071375
14.450000	1	2.265125
14.466667	1	2.480125
14.483333	1	2.718000
14.500000	1	2.981125
14.516667	1	3.270875
14.533333	1	3.589625
14.550000	1	3.940000
14.566667	1	4.326500
14.583333	1	4.752750
14.600000	1	5.225125
14.616667	1	5.753000
14.633333	1	6.345625
14.650000	1	7.016125
14.666667	1	7.780500
14.683333	1	8.657000
14.700000	1	9.662875
14.716667	1	10.817500
14.733333	1	12.140500
14.750000	1	13.646875
14.766667	1	15.345375
14.783333	1	17.235500
14.800000	1	19.312500
14.816667	1	21.558125
14.833333	1	23.945000
14.850000	1	26.433375
14.866667	1	28.971625
14.883333	1	31.502250
14.900000	1	33.961250
14.916667	1	36.285125
14.933333	1	38.411000
14.950000	1	40.285875
14.966667	1	41.862750
14.983333	1	43.107625
15.000000	1	43.999000
15.016667	1	44.528250
15.033333	1	44.697750
15.050000	1	44.521625
15.066667	1	44.022500
15.083333	1	43.231250
15.100000	1	42.182500
15.116667	1	40.915375
15.133333	1	39.469625
15.150000	1	37.884750
15.166667	1	36.198750
15.183333	1	34.446500
15.200000	1	32.657625
15.216667	1	30.856625
15.233333	1	29.065500
15.250000	1	27.300500
15.266667	1	25.579250
15.283333	1	23.910625
15.300000	1	22.304125
15.316667	1	20.766625
15.333333	1	19.301375
15.350000	1	17.911250
15.366667	1	16.597875
15.383333	1	15.360750
15.400000	1	14.199375
15.416667	1	13.111750
15.433333	1	12.095375
15.450000	1	11.149000
15.466667	1	10.271500
15.483333	1	9.460875
15.500000	1	8.714875
15.516667	1	8.031875
15.533333	1	7.408375
15.550000	1	6.840750
15.566667	1	6.327625
15.583333	1	5.864875
15.600000	1	5.449000
15.616667	1	5.076875
15.633333	1	4.743000
15.650000	1	4.444875
15.666667	1	4.178625
15.683333	1	3.941125
15.700000	1	3.728500
15.716667	1	3.538250
15.733333	1	3.367000
15.750000	1	3.212875
15.766667	1	3.073250
15.783333	1	2.946875
15.800000	1	2.831375
15.816667	1	2.725125
15.833333	1	2.627250
15.850000	1	2.536875
15.866667	1	2.452875
15.883333	1	2.374625
15.900000	1	2.302000
15.916667	1	2.234125
15.933333	1	2.170000
15.950000	1	2.109000
15.966667	1	2.051875
15.983333	1	1.997250
16.000000	1	1.946750
16.016667	1	1.898500
16.033333	1	1.852750
16.050000	1	1.809250
16.066667	1	1.768000
16.083333	1	1.729250
16.100000	1	1.692875
16.116667	1	1.658500
16.133333	1	1.626000
16.150000	1	1.595125
16.166667	1	1.566500
16.183333	1	1.539125
16.200000	1	1.513000
16.216667	1	1.488625
16.233333	1	1.465000
16.250000	1	1.443250
16.266667	1	1.422125
16.283333	1	1.401500
16.300000	1	1.382000
16.316667	1	1.363375
16.333333	1	1.344875
16.350000	1	1.327750
16.366667	1	1.311125
16.383333	1	1.295375
16.400000	1	1.280625
16.416667	1	1.265625
16.433333	1	1.252500
16.450000	1	1.239250
16.466667	1	1.226625
16.483333	1	1.215125
16.500000	1	1.204250
16.516667	1	1.193750
16.533333	1	1.184000
16.550000	1	1.176000
16.566667	1	1.167250
16.583333	1	1.159000
16.600000	1	1.152375
16.616667	1	1.146000
16.633333	1	1.140375
16.650000	1	1.134750
16.666667	1	1.129500
16.683333	1	1.125125
16.700000	1	1.121375
16.716667	1	1.117875
16.733333	1	1.114875
16.750000	1	1.113000
16.766667	1	1.110875
16.783333	1	1.109375
16.800000	1	1.108625
16.816667	1	1.107875
16.833333	1	1.107625
16.850000	1	1.107250
16.866667	1	1.107250
16.883333	1	1.107500
16.900000	1	1.107125
16.916667	1	1.107000
16.933333	1	1.107125
16.950000	1	1.106875
16.966667	1	1.106125
16.983333	1	1.106125
17.000000	1	1.105625
17.016667	1	1.105625
17.033333	1	1.105875
17.050000	1	1.106250
17.066667	1	1.105875
17.083333	1	1.106250
17.100000	1	1.106375
17.116667	1	1.106500
17.133333	1	1.105875
17.150000	1	1.104625
17.166667	1	1.103125
17.183333	1	1.101000
17.200000	1	1.098750
17.216667	1	1.095625
17.233333	1	1.092250
17.250000	1	1.087750
17.266667	1	1.083500
17.283333	1	1.078500
17.300000	1	1.072250
17.316667	1	1.065750
17.333333	1	1.058875
17.350000	1	1.051875
17.366667	1	1.045000
17.383333	1	1.037125
17.400000	1	1.030125
17.416667	1	1.023125
17.433333	1	1.016125
17.450000	1	1.008750
17.466667	1	1.002250
17.483333	1	0.995875
17.500000	1	0.990375
17.516667	1	0.985625
17.533333	1	0.981625
17.550000	1	0.978625
17.566667	1	0.976500
17.583333	1	0.974250
17.600000	1	0.973750
17.616667	1	0.974625
17.633333	1	0.976250
17.650000	1	0.979375
17.666667	1	0.982625
17.683333	1	0.986875
17.700000	1	0.991375
17.716667	1	0.997500
17.733333	1	1.004250
17.750000	1	1.011375
17.766667	1	1.019250
17.783333	1	1.026375
17.800000	1	1.035000
17.816667	1	1.043625
17.833333	1	1.051375
17.850000	1	1.059375
17.866667	1	1.067000
17.883333	1	1.073875
17.900000	1	1.080250
17.916667	1	1.086125
17.933333	1	1.091125
17.950000	1	1.095250
17.966667	1	1.098250
17.983333	1	1.100125
18.000000	1	1.101375
18.016667	1	1.101250
18.033333	1	1.100375
18.050000	1	1.098500
18.066667	1	1.095500
18.083333	1	1.090875
18.100000	1	1.085875
18.116667	1	1.080250
18.133333	1	1.074000
18.150000	1	1.066875
18.166667	1	1.058625
18.183333	1	1.050750
18.200000	1	1.042250
18.216667	1	1.033375
18.233333	1	1.024375
18.250000	1	1.014625
18.266667	1	1.005000
18.283333	1	0.995625
18.300000	1	0.985625
18.316667	1	0.976500
18.333333	1	0.968125
18.350000	1	0.959500
18.366667	1	0.950375
18.383333	1	0.942875
18.400000	1	0.935125
18.416667	1	0.928250
18.433333	1	0.921750
18.450000	1	0.916000
18.466667	1	0.910250
18.483333	1	0.904625
18.500000	1	0.899875
18.516667	1	0.896375
18.533333	1	0.892750
18.550000	1	0.889375
18.566667	1	0.886000
18.583333	1	0.884125
18.600000	1	0.881750
18.616667	1	0.880125
18.633333	1	0.879375
18.650000	1	0.878875
18.666667	1	0.879375
18.683333	1	0.880125
18.700000	1	0.880625
18.716667	1	0.882875
18.733333	1	0.885125
18.750000	1	0.887875
18.766667	1	0.890625
18.783333	1	0.894000
18.800000	1	0.898000
18.816667	1	0.902625
18.833333	1	0.907625
18.850000	1	0.913125
18.866667	1	0.919625
18.883333	1	0.926500
18.900000	1	0.933875
18.916667	1	0.941750
18.933333	1	0.950250
18.950000	1	0.959375
18.966667	1	0.969750
18.983333	1	0.981250
19.000000	1	0.993250
19.016667	1	1.006625
19.033333	1	1.021250
19.050000	1	1.037625
19.066667	1	1.055625
19.083333	1	1.075125
19.100000	1	1.096375
19.116667	1	1.118875
19.133333	1	1.143250
19.150000	1	1.168875
19.166667	1	1.195750
19.183333	1	1.223500
19.200000	1	1.252125
19.216667	1	1.280375
19.233333	1	1.308125
19.250000	1	1.335500
19.266667	1	1.361125
19.283333	1	1.385750
19.300000	1	1.407500
19.316667	1	1.427000
19.333333	1	1.443125
19.350000	1	1.455750
19.366667	1	1.465250
19.383333	1	1.471375
19.400000	1	1.474375
19.416667	1	1.473500
19.433333	1	1.469000
19.450000	1	1.460375
19.466667	1	1.449250
19.483333	1	1.435500
19.500000	1	1.418875
19.516667	1	1.400000
19.533333	1	1.378375
19.550000	1	1.355875
19.566667	1	1.333250
19.583333	1	1.308750
19.600000	1	1.284250
19.616667	1	1.259625
19.633333	1	1.235500
19.650000	1	1.212125
19.666667	1	1.189500
19.683333	1	1.167625
19.700000	1	1.147375
19.716667	1	1.128375
19.733333	1	1.111375
19.750000	1	1.096500
19.766667	1	1.083625
19.783333	1	1.073625
19.800000	1	1.064875
19.816667	1	1.058625
19.833333	1	1.054500
19.850000	1	1.052375
19.866667	1	1.052000
19.883333	1	1.053500
19.900000	1	1.056875
19.916667	1	1.061125
19.933333	1	1.067000
19.950000	1	1.073625
19.966667	1	1.080375
19.983333	1	1.088000
20.000000	1	1.096375
20.016667	1	1.104500
20.033333	1	1.113125
20.050000	1	1.122500
20.066667	1	1.130375
20.083333	1	1.138000
20.100000	1	1.146500
20.116667	1	1.154625
20.133333	1	1.162375
20.150000	1	1.170125
20.166667	1	1.177875
20.183333	1	1.185875
20.200000	1	1.194125
20.216667	1	1.202375
20.233333	1	1.211000
20.250000	1	1.220375
20.266667	1	1.230625
20.283333	1	1.241500
20.300000	1	1.252750
20.316667	1	1.264750
20.333333	1	1.277750
20.350000	1	1.290625
20.366667	1	1.305375
20.383333	1	1.319750
20.400000	1	1.334375
20.416667	1	1.348250
20.433333	1	1.360750
20.450000	1	1.373250
20.466667	1	1.383875
20.483333	1	1.394000
20.500000	1	1.402750
20.516667	1	1.410000
20.533333	1	1.415750
20.550000	1	1.419000
20.566667	1	1.420500
20.583333	1	1.420125
20.600000	1	1.418500
20.616667	1	1.415500
20.633333	1	1.411625
20.650000	1	1.406875
20.666667	1	1.401375
20.683333	1	1.396000
20.700000	1	1.390750
20.716667	1	1.386250
20.733333	1	1.382750
20.750000	1	1.380625
20.766667	1	1.380125
20.783333	1	1.380875
20.800000	1	1.383875
20.816667	1	1.390250
20.833333	1	1.397750
20.850000	1	1.406875
20.866667	1	1.417750
20.883333	1	1.430125
20.900000	1	1.443625
20.916667	1	1.456875
20.933333	1	1.470250
20.950000	1	1.482125
20.966667	1	1.494125
20.983333	1	1.503875
21.000000	1	1.510875
21.016667	1	1.514625
21.033333	1	1.515625
21.050000	1	1.513250
21.066667	1	1.507125
21.083333	1	1.497375
21.100000	1	1.483750
21.116667	1	1.467250
21.133333	1	1.447875
21.150000	1	1.425750
21.166667	1	1.401000
21.183333	1	1.374625
21.200000	1	1.346500
21.216667	1	1.317125
21.233333	1	1.286750
21.250000	1	1.256000
21.266667	1	1.224750
21.283333	1	1.193375
21.300000	1	1.162125
21.316667	1	1.132375
21.333333	1	1.102750
21.350000	1	1.073625
21.366667	1	1.045250
21.383333	1	1.019125
21.400000	1	0.994000
21.416667	1	0.970250
21.433333	1	0.947500
21.450000	1	0.925500
21.466667	1	0.905000
21.483333	1	0.886750
21.500000	1	0.868750
21.516667	1	0.853000
21.533333	1	0.838000
21.550000	1	0.823875
21.566667	1	0.811750
21.583333	1	0.800000
21.600000	1	0.788750
21.616667	1	0.779500
21.633333	1	0.771375
21.650000	1	0.763500
21.666667	1	0.756250
21.683333	1	0.750000
21.700000	1	0.743875
21.716667	1	0.738500
21.733333	1	0.733875
21.750000	1	0.730000
21.766667	1	0.726875
21.783333	1	0.724000
21.800000	1	0.721500
21.816667	1	0.718250
21.833333	1	0.716250
21.850000	1	0.714750
21.866667	1	0.713375
21.883333	1	0.712625
21.900000	1	0.711625
21.916667	1	0.711125
21.933333	1	0.711125
21.950000	1	0.711000
21.966667	1	0.711250
21.983333	1	0.712750
22.000000	1	0.713875
22.016667	1	0.714375
22.033333	1	0.715625
22.050000	1	0.716375
22.066667	1	0.717250
22.083333	1	0.718250
22.100000	1	0.720000
22.116667	1	0.721125
22.133333	1	0.722250
22.150000	1	0.723000
22.166667	1	0.724125
22.183333	1	0.725875
22.200000	1	0.726625
22.216667	1	0.727250
22.233333	1	0.727625
22.250000	1	0.728250
22.266667	1	0.729250
22.283333	1	0.730000
22.300000	1	0.731000
22.316667	1	0.732125
22.333333	1	0.733875
22.350000	1	0.735625
22.366667	1	0.737750
22.383333	1	0.739750
22.400000	1	0.741875
22.416667	1	0.745000
22.433333	1	0.748625
22.450000	1	0.751625
22.466667	1	0.755500
22.483333	1	0.758625
22.500000	1	0.762750
22.516667	1	0.766875
22.533333	1	0.771500
22.550000	1	0.776000
22.566667	1	0.780625
22.583333	1	0.785375
22.600000	1	0.789875
22.616667	1	0.794125
22.633333	1	0.798625
22.650000	1	0.803125
22.666667	1	0.807000
22.683333	1	0.811125
22.700000	1	0.814750
22.716667	1	0.818250
22.733333	1	0.821625
22.750000	1	0.824250
22.766667	1	0.827250
22.783333	1	0.829500
22.800000	1	0.831250
22.816667	1	0.832750
22.833333	1	0.834250
22.850000	1	0.834625
22.866667	1	0.834875
22.883333	1	0.834875
22.900000	1	0.835125
22.916667	1	0.834875
22.933333	1	0.834125
22.950000	1	0.833750
22.966667	1	0.832875
22.983333	1	0.831625
23.000000	1	0.831125
23.016667	1	0.830250
23.033333	1	0.829750
23.050000	1	0.829250
23.066667	1	0.829375
23.083333	1	0.830000
23.100000	1	0.831375
23.116667	1	0.832875
23.133333	1	0.835500
23.150000	1	0.838750
23.166667	1	0.842750
23.183333	1	0.848625
23.200000	1	0.854625
23.216667	1	0.862500
23.233333	1	0.870875
23.250000	1	0.880750
23.266667	1	0.891875
23.283333	1	0.904750
23.300000	1	0.919250
23.316667	1	0.936250
23.333333	1	0.955250
23.350000	1	0.975875
23.366667	1	0.998375
23.383333	1	1.022000
23.400000	1	1.048625
23.416667	1	1.077750
23.433333	1	1.108125
23.450000	1	1.141750
23.466667	1	1.178500
23.483333	1	1.217625
23.500000	1	1.260500
23.516667	1	1.307000
23.533333	1	1.357000
23.550000	1	1.411750
23.566667	1	1.470875
23.583333	1	1.534750
23.600000	1	1.604875
23.616667	1	1.680250
23.633333	1	1.761500
23.650000	1	1.849500
23.666667	1	1.944875
23.683333	1	2.047125
23.700000	1	2.156375
23.716667	1	2.271750
23.733333	1	2.394500
23.750000	1	2.523125
23.766667	1	2.655625
23.783333	1	2.791500
23.800000	1	2.930625
23.816667	1	3.071000
23.833333	1	3.209875
23.850000	1	3.346125
23.866667	1	3.477625
23.883333	1	3.603000
23.900000	1	3.719375
23.916667	1	3.825125
23.933333	1	3.919000
23.950000	1	3.999625
23.966667	1	4.065000
23.983333	1	4.114500
24.000000	1	4.147375
24.016667	1	4.163750
24.033333	1	4.163250
24.050000	1	4.147125
24.066667	1	4.115000
24.083333	1	4.068125
24.100000	1	4.007625
24.116667	1	3.935500
24.133333	1	3.852250
24.150000	1	3.759250
24.166667	1	3.658750
24.183333	1	3.550750
24.200000	1	3.437500
24.216667	1	3.320625
24.233333	1	3.201625
24.250000	1	3.081875
24.266667	1	2.962250
24.283333	1	2.843875
24.300000	1	2.727250
24.316667	1	2.613125
24.333333	1	2.501750
24.350000	1	2.394750
24.366667	1	2.292250
24.383333	1	2.194000
24.400000	1	2.101000
24.416667	1	2.013000
24.433333	1	1.929750
24.450000	1	1.851250
24.466667	1	1.778250
24.483333	1	1.710500
24.500000	1	1.646250
24.516667	1	1.587250
24.533333	1	1.533375
24.550000	1	1.482500
24.566667	1	1.436000
24.583333	1	1.393250
24.600000	1	1.353000
24.616667	1	1.316625
24.633333	1	1.283250
24.650000	1	1.252125
24.666667	1	1.223250
24.683333	1	1.197000
24.700000	1	1.172125
24.716667	1	1.148750
24.733333	1	1.126500
24.750000	1	1.106000
24.766667	1	1.086250
24.783333	1	1.067625
24.800000	1	1.049500
24.816667	1	1.032125
24.833333	1	1.014875
24.850000	1	0.998250
24.866667	1	0.982250
24.883333	1	0.966875
24.900000	1	0.951875
24.916667	1	0.937500
24.933333	1	0.923125
24.950000	1	0.909250
24.966667	1	0.895625
24.983333	1	0.881750
25.000000	1	0.869000
25.016667	1	0.856000
25.033333	1	0.843500
25.050000	1	0.832250
25.066667	1	0.820750
25.083333	1	0.810625
25.100000	1	0.800125
25.116667	1	0.789500
25.133333	1	0.779875
25.150000	1	0.771250
25.166667	1	0.762875
25.183333	1	0.755750
25.200000	1	0.748000
25.216667	1	0.741125
25.233333	1	0.734750
25.250000	1	0.728875
25.266667	1	0.723500
25.283333	1	0.718500
25.300000	1	0.714625
25.316667	1	0.710875
25.333333	1	0.707500
25.350000	1	0.704625
25.366667	1	0.702375
25.383333	1	0.700750
25.400000	1	0.698875
25.416667	1	0.696500
25.433333	1	0.694875
25.450000	1	0.693750
25.466667	1	0.693625
25.483333	1	0.693375
25.500000	1	0.693000
25.516667	1	0.693000
25.533333	1	0.692375
25.550000	1	0.693500
25.566667	1	0.693500
25.583333	1	0.694000
25.600000	1	0.694375
25.616667	1	0.694875
25.633333	1	0.695250
25.650000	1	0.696000
25.666667	1	0.697000
25.683333	1	0.697375
25.700000	1	0.698125
25.716667	1	0.698250
25.733333	1	0.699125
25.750000	1	0.700000
25.766667	1	0.701250
25.783333	1	0.701750
25.800000	1	0.702000
25.816667	1	0.703250
25.833333	1	0.703875
25.850000	1	0.704125
25.866667	1	0.705125
25.883333	1	0.706000
25.900000	1	0.706750
25.916667	1	0.707875
25.933333	1	0.708875
25.950000	1	0.709625
25.966667	1	0.710500
25.983333	1	0.711500
26.000000	1	0.712000
26.016667	1	0.713000
26.033333	1	0.713000
26.050000	1	0.713625
26.066667	1	0.713875
26.083333	1	0.714125
26.100000	1	0.714875
26.116667	1	0.715000
26.133333	1	0.715750
26.150000	1	0.715750
26.166667	1	0.716375
26.183333	1	0.716750
26.200000	1	0.717125
26.216667	1	0.717500
26.233333	1	0.717500
26.250000	1	0.718000
26.266667	1	0.718875
26.283333	1	0.719375
26.300000	1	0.719625
26.316667	1	0.720750
26.333333	1	0.721125
26.350000	1	0.721750
26.366667	1	0.722125
26.383333	1	0.722750
26.400000	1	0.723875
26.416667	1	0.724625
26.433333	1	0.725875
26.450000	1	0.727125
26.466667	1	0.727375
26.483333	1	0.727875
26.500000	1	0.728500
26.516667	1	0.728875
26.533333	1	0.729000
26.550000	1	0.729250
26.566667	1	0.728250
26.583333	1	0.727500
26.600000	1	0.726625
26.616667	1	0.725375
26.633333	1	0.724125
26.650000	1	0.722875
26.666667	1	0.721500
26.683333	1	0.718875
26.700000	1	0.716500
26.716667	1	0.713875
26.733333	1	0.710875
26.750000	1	0.707750
26.766667	1	0.704625
26.783333	1	0.701500
26.800000	1	0.698250
26.816667	1	0.694750
26.833333	1	0.691500
26.850000	1	0.688500
26.866667	1	0.685000
26.883333	1	0.682000
26.900000	1	0.678375
26.916667	1	0.675375
26.933333	1	0.672875
26.950000	1	0.670375
26.966667	1	0.667750
26.983333	1	0.666625
27.000000	1	0.664500
27.016667	1	0.663875
27.033333	1	0.663375
27.050000	1	0.663125
27.066667	1	0.662625
27.083333	1	0.663375
27.100000	1	0.664625
27.116667	1	0.666875
27.133333	1	0.669250
27.150000	1	0.672750
27.166667	1	0.677500
27.183333	1	0.681625
27.200000	1	0.687125
27.216667	1	0.692750
27.233333	1	0.699750
27.250000	1	0.707875
27.266667	1	0.716500
27.283333	1	0.726250
27.300000	1	0.736875
27.316667	1	0.748125
27.333333	1	0.761000
27.350000	1	0.774375
27.366667	1	0.788750
27.383333	1	0.804000
27.400000	1	0.820125
27.416667	1	0.837875
27.433333	1	0.856000
27.450000	1	0.876625
27.466667	1	0.898000
27.483333	1	0.921000
27.500000	1	0.944875
27.516667	1	0.970875
27.533333	1	0.998000
27.550000	1	1.027375
27.566667	1	1.058625
27.583333	1	1.092125
27.600000	1	1.127875
27.616667	1	1.165875
27.633333	1	1.207625
27.650000	1	1.252875
27.666667	1	1.301250
27.683333	1	1.352375
27.700000	1	1.407750
27.716667	1	1.467750
27.733333	1	1.531500
27.750000	1	1.600375
27.766667	1	1.673000
27.783333	1	1.750000
27.800000	1	1.831750
27.816667	1	1.917250
27.833333	1	2.007250
27.850000	1	2.100500
27.866667	1	2.197500
27.883333	1	2.296125
27.900000	1	2.397250
27.916667	1	2.499375
27.933333	1	2.601875
27.950000	1	2.703500
27.966667	1	2.803625
27.983333	1	2.900500
28.000000	1	2.992875
28.016667	1	3.080500
28.033333	1	3.161375
28.050000	1	3.236500
28.066667	1	3.302750
28.083333	1	3.360375
28.100000	1	3.408250
28.116667	1	3.445375
28.133333	1	3.471375
28.150000	1	3.486000
28.166667	1	3.488750
28.183333	1	3.479500
28.200000	1	3.458375
28.216667	1	3.426000
28.233333	1	3.382750
28.250000	1	3.329125
28.266667	1	3.265125
28.283333	1	3.192125
28.300000	1	3.110500
28.316667	1	3.021500
28.333333	1	2.925625
28.350000	1	2.824125
28.366667	1	2.718000
28.383333	1	2.608375
28.400000	1	2.495875
28.416667	1	2.381375
28.433333	1	2.265875
28.450000	1	2.149625
28.466667	1	2.034500
28.483333	1	1.920125
28.500000	1	1.806875
28.516667	1	1.695500
28.533333	1	1.587375
28.550000	1	1.481250
28.566667	1	1.379000
28.583333	1	1.279375
28.600000	1	1.183250
28.616667	1	1.090875
28.633333	1	1.001875
28.650000	1	0.916500
28.666667	1	0.833750
28.683333	1	0.755000
28.700000	1	0.679125
28.716667	1	0.607375
28.733333	1	0.537875
28.750000	1	0.471625
28.766667	1	0.409125
28.783333	1	0.349000
28.800000	1	0.293000
28.816667	1	0.239125
28.833333	1	0.188375
28.850000	1	0.140375
28.866667	1	0.095625
28.883333	1	0.053875
28.900000	1	0.014500
28.916667	1	-0.021625
28.933333	1	-0.055000
28.950000	1	-0.085125
28.966667	1	-0.112875
28.983333	1	-0.137750
29.000000	1	-0.159625
29.016667	1	-0.178500
29.033333	1	-0.194375
29.050000	1	-0.207500
29.066667	1	-0.217500
29.083333	1	-0.224500
29.100000	1	-0.228500
29.116667	1	-0.230625
29.133333	1	-0.229250
29.150000	1	-0.225000
29.166667	1	-0.218375
29.183333	1	-0.209125
29.200000	1	-0.198250
29.216667	1	-0.185250
29.233333	1	-0.169500
29.250000	1	-0.151875
29.266667	1	-0.132750
29.283333	1	-0.112000
29.300000	1	-0.089750
29.316667	1	-0.066625
29.333333	1	-0.041625
29.350000	1	-0.016875
29.366667	1	0.008750
29.383333	1	0.034750
29.400000	1	0.061375
29.416667	1	0.089250
29.433333	1	0.117375
29.450000	1	0.145375
29.466667	1	0.173000
29.483333	1	0.201375
29.500000	1	0.228375
29.516667	1	0.255250
29.533333	1	0.281750
29.550000	1	0.308125
29.566667	1	0.334250
29.583333	1	0.358875
29.600000	1	0.382750
29.616667	1	0.405500
29.633333	1	0.427625
29.650000	1	0.448750
29.666667	1	0.468875
29.683333	1	0.488250
29.700000	1	0.506500
29.716667	1	0.524375
29.733333	1	0.541000
29.750000	1	0.555375
29.766667	1	0.570125
29.783333	1	0.583625
29.800000	1	0.596250
29.816667	1	0.608000
29.833333	1	0.618125
29.850000	1	0.627375
29.866667	1	0.635875
29.883333	1	0.643125
29.900000	1	0.649625
29.916667	1	0.655625
29.933333	1	0.661250
29.950000	1	0.665250
29.966667	1	0.668625
29.983333	1	0.671250
30.000000	1	0.673250
30.016667	1	0.675250
30.033333	1	0.677125
30.050000	1	0.678000
30.066667	1	0.678500
30.083333	1	0.678375
30.100000	1	0.678125
30.116667	1	0.677500
30.133333	1	0.676750
30.150000	1	0.675625
30.166667	1	0.674875
30.183333	1	0.673750
30.200000	1	0.673000
30.216667	1	0.671375
30.233333	1	0.669875
30.250000	1	0.668875
30.266667	1	0.668000
30.283333	1	0.666750
30.300000	1	0.665750
30.316667	1	0.664500
30.333333	1	0.664125
30.350000	1	0.663125
30.366667	1	0.662625
30.383333	1	0.662000
30.400000	1	0.661000
30.416667	1	0.660875
30.433333	1	0.660625
30.450000	1	0.660375
30.466667	1	0.661125
30.483333	1	0.662375
30.500000	1	0.663750
30.516667	1	0.664500
30.533333	1	0.665750
30.550000	1	0.668000
30.566667	1	0.670375
30.583333	1	0.672625
30.600000	1	0.675750
30.616667	1	0.679500
30.633333	1	0.683375
30.650000	1	0.687500
30.666667	1	0.691875
30.683333	1	0.696625
30.700000	1	0.702250
30.716667	1	0.708250
30.733333	1	0.713875
30.750000	1	0.719625
30.766667	1	0.725625
30.783333	1	0.732000
30.800000	1	0.738375
30.816667	1	0.744625
30.833333	1	0.750500
30.850000	1	0.756375
30.866667	1	0.762375
30.883333	1	0.768000
30.900000	1	0.772625
30.916667	1	0.777875
30.933333	1	0.781250
30.950000	1	0.783875
30.966667	1	0.786125
30.983333	1	0.786875
31.000000	1	0.787250
31.016667	1	0.787500
31.033333	1	0.786500
31.050000	1	0.784875
31.066667	1	0.782250
31.083333	1	0.777875
31.100000	1	0.773125
31.116667	1	0.767500
31.133333	1	0.760875
31.150000	1	0.754750
31.166667	1	0.747375
31.183333	1	0.739125
31.200000	1	0.730500
31.216667	1	0.721000
31.233333	1	0.711500
31.250000	1	0.701375
31.266667	1	0.691875
31.283333	1	0.682000
31.300000	1	0.671875
31.316667	1	0.661750
31.333333	1	0.651875
31.350000	1	0.641500
31.366667	1	0.631875
31.383333	1	0.622625
31.400000	1	0.613125
31.416667	1	0.603500
31.433333	1	0.594500
31.450000	1	0.585500
31.466667	1	0.576875
31.483333	1	0.568375
31.500000	1	0.560250
31.516667	1	0.552875
31.533333	1	0.545125
31.550000	1	0.538750
31.566667	1	0.532000
31.583333	1	0.525000
31.600000	1	0.518625
31.616667	1	0.513125
31.633333	1	0.507625
31.650000	1	0.502625
31.666667	1	0.498375
31.683333	1	0.493625
31.700000	1	0.489500
31.716667	1	0.485750
31.733333	1	0.481875
31.750000	1	0.478750
31.766667	1	0.475875
31.783333	1	0.472750
31.800000	1	0.470750
31.816667	1	0.468625
31.833333	1	0.466000
31.850000	1	0.464750
31.866667	1	0.463875
31.883333	1	0.462875
31.900000	1	0.462000
31.916667	1	0.461750
31.933333	1	0.461125
31.950000	1	0.460625
31.966667	1	0.460000
31.983333	1	0.459750
32.000000	1	0.458750
32.016667	1	0.459000
32.033333	1	0.459375
32.050000	1	0.460125
32.066667	1	0.460625
32.083333	1	0.460250
32.100000	1	0.460750
32.116667	1	0.460250
32.133333	1	0.459250
32.150000	1	0.459125
32.166667	1	0.458625
32.183333	1	0.457625
32.200000	1	0.456375
32.216667	1	0.455625
32.233333	1	0.454000
32.250000	1	0.452125
32.266667	1	0.450375
32.283333	1	0.448250
32.300000	1	0.444750
32.316667	1	0.441750
32.333333	1	0.438500
32.350000	1	0.434875
32.366667	1	0.430875
32.383333	1	0.427125
32.400000	1	0.422625
32.416667	1	0.418500
32.433333	1	0.413750
32.450000	1	0.408250
32.466667	1	0.403375
32.483333	1	0.397875
32.500000	1	0.392875
32.516667	1	0.387750
32.533333	1	0.382875
32.550000	1	0.377000
32.566667	1	0.371500
32.583333	1	0.366500
32.600000	1	0.361250
32.616667	1	0.355375
32.633333	1	0.350000
32.650000	1	0.345125
32.666667	1	0.339375
32.683333	1	0.334000
32.700000	1	0.328500
32.716667	1	0.323500
32.733333	1	0.318750
32.750000	1	0.312750
32.766667	1	0.307875
32.783333	1	0.302750
32.800000	1	0.297750
32.816667	1	0.292500
32.833333	1	0.287375
32.850000	1	0.282875
32.866667	1	0.278250
32.883333	1	0.273750
32.900000	1	0.269125
32.916667	1	0.264250
32.933333	1	0.259750
32.950000	1	0.255625
32.966667	1	0.251875
32.983333	1	0.247750
33.000000	1	0.244750
33.016667	1	0.240875
33.033333	1	0.237125
33.050000	1	0.233750
33.066667	1	0.230500
33.083333	1	0.227625
33.100000	1	0.224125
33.116667	1	0.220750
33.133333	1	0.217500
33.150000	1	0.214875
33.166667	1	0.212625
33.183333	1	0.209375
33.200000	1	0.206625
33.216667	1	0.204250
33.233333	1	0.201875
33.250000	1	0.199750
33.266667	1	0.197500
33.283333	1	0.195625
33.300000	1	0.193875
33.316667	1	0.191875
33.333333	1	0.190625
33.350000	1	0.189250
33.366667	1	0.188125
33.383333	1	0.186875
33.400000	1	0.186125
33.416667	1	0.185375
33.433333	1	0.184625
33.450000	1	0.184625
33.466667	1	0.184125
33.483333	1	0.183750
33.500000	1	0.183375
33.516667	1	0.183500
33.533333	1	0.183625
33.550000	1	0.183625
33.566667	1	0.183625
33.583333	1	0.184125
33.600000	1	0.185375
33.616667	1	0.185625
33.633333	1	0.187250
33.650000	1	0.188000
33.666667	1	0.189125
33.683333	1	0.190375
33.700000	1	0.191125
33.716667	1	0.192500
33.733333	1	0.194875
33.750000	1	0.197250
33.766667	1	0.198750
33.783333	1	0.200750
33.800000	1	0.203250
33.816667	1	0.205250
33.833333	1	0.207750
33.850000	1	0.210500
33.866667	1	0.213000
33.883333	1	0.216125
33.900000	1	0.219375
33.916667	1	0.222500
33.933333	1	0.226125
33.950000	1	0.230000
33.966667	1	0.233625
33.983333	1	0.238250
34.000000	1	0.243125
34.016667	1	0.248000
34.033333	1	0.253250
34.050000	1	0.258250
34.066667	1	0.263250
34.083333	1	0.268375
34.100000	1	0.274375
34.116667	1	0.279500
34.133333	1	0.285500
34.150000	1	0.291250
34.166667	1	0.297750
34.183333	1	0.303875
34.200000	1	0.310250
34.216667	1	0.316375
34.233333	1	0.322500
34.250000	1	0.329125
34.266667	1	0.335000
34.283333	1	0.340750
34.300000	1	0.346750
34.316667	1	0.351750
34.333333	1	0.356250
34.350000	1	0.361250
34.366667	1	0.365125
34.383333	1	0.368875
34.400000	1	0.372000
34.416667	1	0.373750
34.433333	1	0.375375
34.450000	1	0.376250
34.466667	1	0.376625
34.483333	1	0.377125
34.500000	1	0.376625
34.516667	1	0.375750
34.533333	1	0.373875
34.550000	1	0.371500
34.566667	1	0.368500
34.583333	1	0.365250
34.600000	1	0.361125
34.616667	1	0.357000
34.633333	1	0.353125
34.650000	1	0.348375
34.666667	1	0.342625
34.683333	1	0.337000
34.700000	1	0.331250
34.716667	1	0.326375
34.733333	1	0.319875
34.750000	1	0.313750
34.766667	1	0.307000
34.783333	1	0.300625
34.800000	1	0.294375
34.816667	1	0.288375
34.833333	1	0.282875
34.850000	1	0.276875
34.866667	1	0.271000
34.883333	1	0.265625
34.900000	1	0.260375
34.916667	1	0.254625
34.933333	1	0.249750
34.950000	1	0.244875
34.966667	1	0.240125
34.983333	1	0.236250
35.000000	1	0.232875
35.016667	1	0.229625
35.033333	1	0.226500
35.050000	1	0.223625
35.066667	1	0.220625
35.083333	1	0.218875
35.100000	1	0.216500
35.116667	1	0.214875
35.133333	1	0.214000
35.150000	1	0.212750
35.166667	1	0.212250
35.183333	1	0.211625
35.200000	1	0.211250
35.216667	1	0.211250
35.233333	1	0.210750
35.250000	1	0.210500
35.266667	1	0.210875
35.283333	1	0.210750
35.300000	1	0.211125
35.316667	1	0.212250
35.333333	1	0.213250
35.350000	1	0.214000
35.366667	1	0.214625
35.383333	1	0.216000
35.400000	1	0.216625
35.416667	1	0.217875
35.433333	1	0.220000
35.450000	1	0.221375
35.466667	1	0.222750
35.483333	1	0.223875
35.500000	1	0.225375
35.516667	1	0.226125
35.533333	1	0.227375
35.550000	1	0.228500
35.566667	1	0.229500
35.583333	1	0.230750
35.600000	1	0.231875
35.616667	1	0.232250
35.633333	1	0.233000
35.650000	1	0.233750
35.666667	1	0.234375
35.683333	1	0.235125
35.700000	1	0.235500
35.716667	1	0.236000
35.733333	1	0.236875
35.750000	1	0.237000
35.766667	1	0.237625
35.783333	1	0.238500
35.800000	1	0.238125
35.816667	1	0.238125
35.833333	1	0.237250
35.850000	1	0.237250
35.866667	1	0.237000
35.883333	1	0.237000
35.900000	1	0.236500
35.916667	1	0.236750
35.933333	1	0.236250
35.950000	1	0.235500
35.966667	1	0.234375
35.983333	1	0.234000
36.000000	1	0.233500
36.016667	1	0.233125
36.033333	1	0.232625
36.050000	1	0.231750
36.066667	1	0.231000
36.083333	1	0.230750
36.100000	1	0.230875
36.116667	1	0.230375
36.133333	1	0.230000
36.150000	1	0.229375
36.166667	1	0.228625
36.183333	1	0.228625
36.200000	1	0.228250
36.216667	1	0.227750
36.233333	1	0.226750
36.250000	1	0.226250
36.266667	1	0.225750
36.283333	1	0.225375
36.300000	1	0.224000
36.316667	1	0.223750
36.333333	1	0.223000
36.350000	1	0.222375
36.366667	1	0.221250
36.383333	1	0.220250
36.400000	1	0.219125
36.416667	1	0.218375
36.433333	1	0.217500
36.450000	1	0.215875
36.466667	1	0.214875
36.483333	1	0.214000
36.500000	1	0.213750
36.516667	1	0.213000
36.533333	1	0.211500
36.550000	1	0.210125
36.566667	1	0.209250
36.583333	1	0.208000
36.600000	1	0.207125
36.616667	1	0.206500
36.633333	1	0.204875
36.650000	1	0.203625
36.666667	1	0.202500
36.683333	1	0.202000
36.700000	1	0.200625
36.716667	1	0.199250
36.733333	1	0.198250
36.750000	1	0.196875
36.766667	1	0.195625
36.783333	1	0.193875
36.800000	1	0.192875
36.816667	1	0.190250
36.833333	1	0.188625
36.850000	1	0.186750
36.866667	1	0.184750
36.883333	1	0.183500
36.900000	1	0.181375
36.916667	1	0.179625
36.933333	1	0.177125
36.950000	1	0.174625
36.966667	1	0.172250
36.983333	1	0.170625
37.000000	1	0.168750
37.016667	1	0.166125
37.033333	1	0.163125
37.050000	1	0.160375
37.066667	1	0.157375
37.083333	1	0.154875
37.100000	1	0.151875
37.116667	1	0.149250
37.133333	1	0.146625
37.150000	1	0.144000
37.166667	1	0.141000
37.183333	1	0.138625
37.200000	1	0.136000
37.216667	1	0.133625
37.233333	1	0.130875
37.250000	1	0.127750
37.266667	1	0.125125
37.283333	1	0.122500
37.300000	1	0.120250
37.316667	1	0.117625
37.333333	1	0.115625
37.350000	1	0.113375
37.366667	1	0.111750
37.383333	1	0.110000
37.400000	1	0.107875
37.416667	1	0.106125
37.433333	1	0.103750
37.450000	1	0.102000
37.466667	1	0.101000
37.483333	1	0.099125
37.500000	1	0.097750
37.516667	1	0.096875
37.533333	1	0.096125
37.550000	1	0.095375
37.566667	1	0.094125
37.583333	1	0.093000
37.600000	1	0.092125
37.616667	1	0.091750
37.633333	1	0.091000
37.650000	1	0.090250
37.666667	1	0.089375
37.683333	1	0.089000
37.700000	1	0.088625
37.716667	1	0.087750
37.733333	1	0.087625
37.750000	1	0.087500
37.766667	1	0.086750
37.783333	1	0.086375
37.800000	1	0.086125
37.816667	1	0.086625
37.833333	1	0.086750
37.850000	1	0.086125
37.866667	1	0.086250
37.883333	1	0.086125
37.900000	1	0.085875
37.916667	1	0.086750
37.933333	1	0.086250
37.950000	1	0.086250
37.966667	1	0.087125
37.983333	1	0.087250
38.000000	1	0.087875
38.016667	1	0.088250
38.033333	1	0.088875
38.050000	1	0.089500
38.066667	1	0.089750
38.083333	1	0.090000
38.100000	1	0.090500
38.116667	1	0.091500
38.133333	1	0.092000
38.150000	1	0.092875
38.166667	1	0.093500
38.183333	1	0.094000
38.200000	1	0.094375
38.216667	1	0.095000
38.233333	1	0.095250
38.250000	1	0.096500
38.266667	1	0.096750
38.283333	1	0.097500
38.300000	1	0.098000
38.316667	1	0.098250
38.333333	1	0.098875
38.350000	1	0.098875
38.366667	1	0.099250
38.383333	1	0.100500
38.400000	1	0.101250
38.416667	1	0.100750
38.433333	1	0.101375
38.450000	1	0.101500
38.466667	1	0.101500
38.483333	1	0.101625
38.500000	1	0.101750
38.516667	1	0.101625
38.533333	1	0.101875
38.550000	1	0.101875
38.566667	1	0.102125
38.583333	1	0.101875
38.600000	1	0.102000
38.616667	1	0.102000
38.633333	1	0.101250
38.650000	1	0.101000
38.666667	1	0.100500
38.683333	1	0.099875
38.700000	1	0.099375
38.716667	1	0.098375
38.733333	1	0.098125
38.750000	1	0.097750
38.766667	1	0.097125
38.783333	1	0.096250
38.800000	1	0.095250
38.816667	1	0.095000
38.833333	1	0.093750
38.850000	1	0.093000
38.866667	1	0.092250
38.883333	1	0.091875
38.900000	1	0.091250
38.916667	1	0.089500
38.933333	1	0.088875
38.950000	1	0.088500
38.966667	1	0.087250
38.983333	1	0.086000
39.000000	1	0.084875
39.016667	1	0.083750
39.033333	1	0.082875
39.050000	1	0.081625
39.066667	1	0.080625
39.083333	1	0.080375
39.100000	1	0.079125
39.116667	1	0.078500
39.133333	1	0.077375
39.150000	1	0.076750
39.166667	1	0.076375
39.183333	1	0.075250
39.200000	1	0.074500
39.216667	1	0.073375
39.233333	1	0.072625
39.250000	1	0.072375
39.266667	1	0.072000
39.283333	1	0.071000
39.300000	1	0.071000
39.316667	1	0.070375
39.333333	1	0.069500
39.350000	1	0.068625
39.366667	1	0.068500
39.383333	1	0.067750
39.400000	1	0.067375
39.416667	1	0.066500
39.433333	1	0.066000
39.450000	1	0.065250
39.466667	1	0.065000
39.483333	1	0.064750
39.500000	1	0.064500
39.516667	1	0.064000
39.533333	1	0.063125
39.550000	1	0.062625
39.566667	1	0.063125
39.583333	1	0.062500
39.600000	1	0.061625
39.616667	1	0.061750
39.633333	1	0.060750
39.650000	1	0.060375
39.666667	1	0.060250
39.683333	1	0.059125
39.700000	1	0.058625
39.716667	1	0.058250
39.733333	1	0.058375
39.750000	1	0.057875
39.766667	1	0.057500
39.783333	1	0.057375
39.800000	1	0.056875
39.816667	1	0.056000
39.833333	1	0.055250
39.850000	1	0.055500
39.866667	1	0.055000
39.883333	1	0.054250
39.900000	1	0.053625
39.916667	1	0.053125
39.933333	1	0.053625
39.950000	1	0.053875
39.966667	1	0.054000
39.983333	1	0.053250
40.000000	1	0.053000
