File Path	chrom://marshall/Chromeleon7/HPLC_Ultimate_3000/Users/markusar/20230531_CMO_stabTest _FP08_FP09.seq/994.smp/RI_1.channel/RI_1.chm
Channel	RI_1

Injection Information:
Data Vault	Chromeleon7
Injection	STD_02.1_Glu_Malt_FP_08
Injection Number	93
Position	BG3
Comment	
Processing Method	
Instrument Method	run_25B_method
Type	Unknown
Status	Finished
Injection Date	04.06.2023
Injection Time	05:29:54
Injection Volume (µl)	20.000
Dilution Factor	1.0000
Weight	1.0000

Chromatogram Data Information:
Time Min. (min)	0.000000
Time Max. (min)	40.000000
Data Points	2401
Detector	RI
Generating Data System	Chromeleon 7.2.5.9507
Exporting Data System	Chromeleon 7.2.5.0
Operator	Instrument Controller
Signal Quantity	Refractive 
Signal Unit	µRIU
Signal Min.	-7.047875
Signal Max.	9.245500
Channel	RI_1
Driver Name	RID520Driver.dll
Channel Type	Evaluation
Min. Step (s)	1
Max. Step (s)	1
Average Step (s)	1

Signal Parameter Information:
Signal Info	

Chromatogram Data:
Time (min)	Step (s)	Value (µRIU)
0.000000	n.a.	0.020500
0.016667	1	0.021000
0.033333	1	0.021375
0.050000	1	0.020750
0.066667	1	0.021625
0.083333	1	0.022125
0.100000	1	0.022000
0.116667	1	0.021875
0.133333	1	0.022375
0.150000	1	0.021875
0.166667	1	0.022000
0.183333	1	0.022000
0.200000	1	0.022250
0.216667	1	0.022500
0.233333	1	0.022625
0.250000	1	0.022750
0.266667	1	0.023125
0.283333	1	0.023125
0.300000	1	0.022625
0.316667	1	0.020750
0.333333	1	0.019000
0.350000	1	0.019500
0.366667	1	0.021125
0.383333	1	0.023000
0.400000	1	0.024750
0.416667	1	0.025375
0.433333	1	0.025000
0.450000	1	0.023375
0.466667	1	0.022000
0.483333	1	0.021000
0.500000	1	0.019500
0.516667	1	0.018250
0.533333	1	0.016500
0.550000	1	0.015500
0.566667	1	0.014750
0.583333	1	0.013625
0.600000	1	0.013500
0.616667	1	0.012625
0.633333	1	0.011500
0.650000	1	0.010875
0.666667	1	0.010500
0.683333	1	0.009750
0.700000	1	0.009000
0.716667	1	0.008625
0.733333	1	0.007625
0.750000	1	0.007250
0.766667	1	0.006750
0.783333	1	0.006625
0.800000	1	0.005875
0.816667	1	0.005250
0.833333	1	0.005000
0.850000	1	0.005125
0.866667	1	0.004750
0.883333	1	0.004625
0.900000	1	0.004125
0.916667	1	0.003250
0.933333	1	0.003000
0.950000	1	0.003250
0.966667	1	0.003750
0.983333	1	0.003875
1.000000	1	0.003500
1.016667	1	0.003625
1.033333	1	0.003375
1.050000	1	0.002625
1.066667	1	0.003125
1.083333	1	0.003500
1.100000	1	0.003875
1.116667	1	0.004250
1.133333	1	0.004125
1.150000	1	0.004625
1.166667	1	0.004750
1.183333	1	0.004875
1.200000	1	0.005250
1.216667	1	0.004875
1.233333	1	0.004750
1.250000	1	0.005125
1.266667	1	0.005875
1.283333	1	0.005875
1.300000	1	0.005500
1.316667	1	0.005750
1.333333	1	0.005625
1.350000	1	0.005375
1.366667	1	0.004625
1.383333	1	0.004250
1.400000	1	0.004250
1.416667	1	0.004250
1.433333	1	0.003250
1.450000	1	0.003500
1.466667	1	0.003625
1.483333	1	0.003875
1.500000	1	0.003000
1.516667	1	0.002375
1.533333	1	0.001750
1.550000	1	0.001500
1.566667	1	0.001125
1.583333	1	0.000750
1.600000	1	0.001125
1.616667	1	0.001125
1.633333	1	0.001125
1.650000	1	0.000875
1.666667	1	0.000625
1.683333	1	0.000625
1.700000	1	0.002000
1.716667	1	0.002125
1.733333	1	0.001750
1.750000	1	0.000250
1.766667	1	0.001000
1.783333	1	0.000750
1.800000	1	0.000750
1.816667	1	0.001250
1.833333	1	0.001500
1.850000	1	0.002125
1.866667	1	0.002375
1.883333	1	0.003125
1.900000	1	0.003250
1.916667	1	0.003625
1.933333	1	0.003500
1.950000	1	0.003625
1.966667	1	0.004125
1.983333	1	0.004375
2.000000	1	0.004750
2.016667	1	0.005375
2.033333	1	0.006125
2.050000	1	0.007125
2.066667	1	0.007875
2.083333	1	0.008875
2.100000	1	0.009125
2.116667	1	0.009875
2.133333	1	0.009875
2.150000	1	0.010500
2.166667	1	0.010500
2.183333	1	0.010875
2.200000	1	0.011000
2.216667	1	0.012000
2.233333	1	0.012125
2.250000	1	0.013625
2.266667	1	0.014000
2.283333	1	0.014375
2.300000	1	0.014500
2.316667	1	0.014750
2.333333	1	0.015500
2.350000	1	0.015875
2.366667	1	0.016250
2.383333	1	0.016250
2.400000	1	0.016875
2.416667	1	0.017250
2.433333	1	0.017500
2.450000	1	0.017500
2.466667	1	0.017875
2.483333	1	0.017625
2.500000	1	0.017500
2.516667	1	0.018000
2.533333	1	0.018125
2.550000	1	0.018000
2.566667	1	0.017875
2.583333	1	0.018250
2.600000	1	0.018000
2.616667	1	0.017875
2.633333	1	0.018125
2.650000	1	0.018125
2.666667	1	0.017875
2.683333	1	0.017750
2.700000	1	0.016875
2.716667	1	0.016625
2.733333	1	0.016250
2.750000	1	0.016125
2.766667	1	0.015125
2.783333	1	0.015500
2.800000	1	0.014750
2.816667	1	0.014375
2.833333	1	0.014625
2.850000	1	0.015125
2.866667	1	0.014500
2.883333	1	0.014125
2.900000	1	0.014000
2.916667	1	0.013875
2.933333	1	0.012750
2.950000	1	0.012750
2.966667	1	0.012625
2.983333	1	0.012875
3.000000	1	0.012375
3.016667	1	0.012250
3.033333	1	0.011750
3.050000	1	0.012125
3.066667	1	0.011875
3.083333	1	0.011375
3.100000	1	0.011875
3.116667	1	0.011500
3.133333	1	0.011875
3.150000	1	0.011875
3.166667	1	0.012375
3.183333	1	0.013000
3.200000	1	0.013250
3.216667	1	0.012625
3.233333	1	0.013375
3.250000	1	0.014250
3.266667	1	0.014250
3.283333	1	0.014625
3.300000	1	0.015000
3.316667	1	0.014625
3.333333	1	0.015375
3.350000	1	0.015750
3.366667	1	0.016500
3.383333	1	0.016625
3.400000	1	0.016875
3.416667	1	0.017375
3.433333	1	0.018000
3.450000	1	0.017625
3.466667	1	0.018125
3.483333	1	0.019250
3.500000	1	0.019125
3.516667	1	0.019125
3.533333	1	0.018750
3.550000	1	0.019000
3.566667	1	0.019250
3.583333	1	0.019375
3.600000	1	0.019125
3.616667	1	0.019625
3.633333	1	0.019375
3.650000	1	0.019750
3.666667	1	0.018750
3.683333	1	0.018500
3.700000	1	0.018000
3.716667	1	0.017750
3.733333	1	0.017250
3.750000	1	0.016375
3.766667	1	0.015625
3.783333	1	0.014875
3.800000	1	0.014750
3.816667	1	0.013250
3.833333	1	0.012625
3.850000	1	0.011125
3.866667	1	0.010625
3.883333	1	0.009750
3.900000	1	0.008875
3.916667	1	0.008750
3.933333	1	0.008375
3.950000	1	0.007375
3.966667	1	0.006625
3.983333	1	0.006125
4.000000	1	0.005625
4.016667	1	0.004625
4.033333	1	0.004000
4.050000	1	0.002875
4.066667	1	0.002125
4.083333	1	0.001625
4.100000	1	0.000625
4.116667	1	-0.000250
4.133333	1	-0.001125
4.150000	1	-0.001625
4.166667	1	-0.002375
4.183333	1	-0.003250
4.200000	1	-0.003500
4.216667	1	-0.004250
4.233333	1	-0.004875
4.250000	1	-0.005375
4.266667	1	-0.006000
4.283333	1	-0.006250
4.300000	1	-0.006500
4.316667	1	-0.006625
4.333333	1	-0.007250
4.350000	1	-0.007500
4.366667	1	-0.007750
4.383333	1	-0.008250
4.400000	1	-0.007750
4.416667	1	-0.007375
4.433333	1	-0.007250
4.450000	1	-0.008250
4.466667	1	-0.007875
4.483333	1	-0.008125
4.500000	1	-0.007625
4.516667	1	-0.007875
4.533333	1	-0.007875
4.550000	1	-0.007750
4.566667	1	-0.007375
4.583333	1	-0.006625
4.600000	1	-0.006375
4.616667	1	-0.006750
4.633333	1	-0.006250
4.650000	1	-0.005750
4.666667	1	-0.005125
4.683333	1	-0.005500
4.700000	1	-0.005625
4.716667	1	-0.005375
4.733333	1	-0.004875
4.750000	1	-0.004000
4.766667	1	-0.003750
4.783333	1	-0.003375
4.800000	1	-0.002625
4.816667	1	-0.001875
4.833333	1	-0.000750
4.850000	1	-0.000375
4.866667	1	0.000000
4.883333	1	0.000750
4.900000	1	0.000875
4.916667	1	0.001375
4.933333	1	0.002500
4.950000	1	0.002875
4.966667	1	0.003500
4.983333	1	0.004750
5.000000	1	0.006125
5.016667	1	0.007250
5.033333	1	0.007375
5.050000	1	0.008000
5.066667	1	0.008750
5.083333	1	0.009625
5.100000	1	0.010125
5.116667	1	0.010500
5.133333	1	0.011000
5.150000	1	0.011750
5.166667	1	0.012875
5.183333	1	0.013750
5.200000	1	0.014125
5.216667	1	0.015625
5.233333	1	0.016000
5.250000	1	0.016000
5.266667	1	0.016500
5.283333	1	0.015750
5.300000	1	0.015250
5.316667	1	0.015875
5.333333	1	0.016500
5.350000	1	0.016500
5.366667	1	0.016750
5.383333	1	0.017000
5.400000	1	0.017500
5.416667	1	0.018250
5.433333	1	0.018375
5.450000	1	0.018250
5.466667	1	0.018125
5.483333	1	0.017625
5.500000	1	0.017500
5.516667	1	0.017500
5.533333	1	0.017250
5.550000	1	0.017625
5.566667	1	0.017750
5.583333	1	0.017750
5.600000	1	0.017375
5.616667	1	0.018000
5.633333	1	0.018125
5.650000	1	0.017500
5.666667	1	0.017500
5.683333	1	0.017875
5.700000	1	0.018625
5.716667	1	0.019125
5.733333	1	0.018250
5.750000	1	0.018250
5.766667	1	0.017750
5.783333	1	0.018375
5.800000	1	0.018625
5.816667	1	0.019250
5.833333	1	0.019500
5.850000	1	0.019875
5.866667	1	0.019625
5.883333	1	0.019500
5.900000	1	0.019625
5.916667	1	0.019500
5.933333	1	0.020375
5.950000	1	0.020125
5.966667	1	0.020375
5.983333	1	0.020875
6.000000	1	0.021750
6.016667	1	0.021750
6.033333	1	0.022000
6.050000	1	0.021875
6.066667	1	0.021625
6.083333	1	0.021500
6.100000	1	0.021875
6.116667	1	0.021875
6.133333	1	0.021875
6.150000	1	0.022125
6.166667	1	0.022625
6.183333	1	0.023125
6.200000	1	0.023000
6.216667	1	0.022750
6.233333	1	0.022375
6.250000	1	0.022125
6.266667	1	0.021125
6.283333	1	0.021500
6.300000	1	0.021125
6.316667	1	0.021000
6.333333	1	0.020625
6.350000	1	0.020125
6.366667	1	0.020250
6.383333	1	0.019500
6.400000	1	0.019500
6.416667	1	0.019250
6.433333	1	0.018250
6.450000	1	0.017500
6.466667	1	0.017000
6.483333	1	0.016375
6.500000	1	0.015750
6.516667	1	0.015375
6.533333	1	0.015000
6.550000	1	0.014125
6.566667	1	0.013625
6.583333	1	0.013000
6.600000	1	0.013000
6.616667	1	0.012250
6.633333	1	0.011125
6.650000	1	0.010250
6.666667	1	0.009750
6.683333	1	0.009000
6.700000	1	0.009125
6.716667	1	0.007875
6.733333	1	0.007375
6.750000	1	0.007125
6.766667	1	0.006875
6.783333	1	0.006875
6.800000	1	0.006375
6.816667	1	0.005750
6.833333	1	0.005375
6.850000	1	0.004500
6.866667	1	0.003875
6.883333	1	0.003500
6.900000	1	0.003750
6.916667	1	0.003750
6.933333	1	0.003125
6.950000	1	0.003250
6.966667	1	0.003125
6.983333	1	0.003250
7.000000	1	0.002750
7.016667	1	0.002125
7.033333	1	0.001875
7.050000	1	0.002250
7.066667	1	0.002750
7.083333	1	0.002750
7.100000	1	0.002500
7.116667	1	0.002625
7.133333	1	0.002625
7.150000	1	0.003500
7.166667	1	0.003625
7.183333	1	0.003625
7.200000	1	0.003750
7.216667	1	0.003875
7.233333	1	0.003500
7.250000	1	0.003125
7.266667	1	0.002875
7.283333	1	0.003375
7.300000	1	0.003250
7.316667	1	0.003125
7.333333	1	0.003125
7.350000	1	0.003375
7.366667	1	0.003250
7.383333	1	0.003125
7.400000	1	0.003500
7.416667	1	0.004000
7.433333	1	0.004125
7.450000	1	0.004250
7.466667	1	0.003750
7.483333	1	0.003500
7.500000	1	0.003250
7.516667	1	0.003625
7.533333	1	0.003375
7.550000	1	0.003250
7.566667	1	0.002875
7.583333	1	0.003125
7.600000	1	0.003250
7.616667	1	0.002500
7.633333	1	0.002625
7.650000	1	0.002250
7.666667	1	0.002250
7.683333	1	0.001375
7.700000	1	0.000750
7.716667	1	0.000875
7.733333	1	0.000750
7.750000	1	0.000000
7.766667	1	-0.000375
7.783333	1	-0.000500
7.800000	1	-0.001375
7.816667	1	-0.000625
7.833333	1	-0.001000
7.850000	1	-0.001000
7.866667	1	-0.001500
7.883333	1	-0.001875
7.900000	1	-0.002000
7.916667	1	-0.002500
7.933333	1	-0.002625
7.950000	1	-0.002625
7.966667	1	-0.003000
7.983333	1	-0.003500
8.000000	1	-0.004125
8.016667	1	-0.004500
8.033333	1	-0.004500
8.050000	1	-0.004625
8.066667	1	-0.004625
8.083333	1	-0.004625
8.100000	1	-0.004750
8.116667	1	-0.004875
8.133333	1	-0.005000
8.150000	1	-0.005125
8.166667	1	-0.005250
8.183333	1	-0.004875
8.200000	1	-0.004500
8.216667	1	-0.005000
8.233333	1	-0.005375
8.250000	1	-0.005250
8.266667	1	-0.004875
8.283333	1	-0.005125
8.300000	1	-0.005875
8.316667	1	-0.006000
8.333333	1	-0.005750
8.350000	1	-0.004750
8.366667	1	-0.004375
8.383333	1	-0.004250
8.400000	1	-0.005000
8.416667	1	-0.004750
8.433333	1	-0.004875
8.450000	1	-0.004375
8.466667	1	-0.004750
8.483333	1	-0.004500
8.500000	1	-0.004250
8.516667	1	-0.003875
8.533333	1	-0.004000
8.550000	1	-0.003375
8.566667	1	-0.003375
8.583333	1	-0.004000
8.600000	1	-0.004625
8.616667	1	-0.004500
8.633333	1	-0.004750
8.650000	1	-0.004625
8.666667	1	-0.004125
8.683333	1	-0.004250
8.700000	1	-0.004125
8.716667	1	-0.004000
8.733333	1	-0.003625
8.750000	1	-0.003250
8.766667	1	-0.003250
8.783333	1	-0.003750
8.800000	1	-0.004000
8.816667	1	-0.003750
8.833333	1	-0.003375
8.850000	1	-0.002875
8.866667	1	-0.002875
8.883333	1	-0.002750
8.900000	1	-0.002375
8.916667	1	-0.002125
8.933333	1	-0.002375
8.950000	1	-0.001750
8.966667	1	-0.001125
8.983333	1	-0.001875
9.000000	1	-0.001500
9.016667	1	-0.001250
9.033333	1	-0.001000
9.050000	1	-0.001000
9.066667	1	-0.000375
9.083333	1	-0.000125
9.100000	1	0.000250
9.116667	1	0.001125
9.133333	1	0.001000
9.150000	1	0.001125
9.166667	1	0.001625
9.183333	1	0.002250
9.200000	1	0.002875
9.216667	1	0.002875
9.233333	1	0.003375
9.250000	1	0.003750
9.266667	1	0.003625
9.283333	1	0.003875
9.300000	1	0.004250
9.316667	1	0.004625
9.333333	1	0.004625
9.350000	1	0.004625
9.366667	1	0.005375
9.383333	1	0.005250
9.400000	1	0.004750
9.416667	1	0.005000
9.433333	1	0.004625
9.450000	1	0.004875
9.466667	1	0.004500
9.483333	1	0.004625
9.500000	1	0.004125
9.516667	1	0.004000
9.533333	1	0.003875
9.550000	1	0.003625
9.566667	1	0.003875
9.583333	1	0.003000
9.600000	1	0.003000
9.616667	1	0.002375
9.633333	1	0.002250
9.650000	1	0.002250
9.666667	1	0.001625
9.683333	1	0.001625
9.700000	1	0.002000
9.716667	1	0.002500
9.733333	1	0.002750
9.750000	1	0.003000
9.766667	1	0.002875
9.783333	1	0.002875
9.800000	1	0.002750
9.816667	1	0.001875
9.833333	1	0.000375
9.850000	1	-0.001375
9.866667	1	-0.005500
9.883333	1	-0.012500
9.900000	1	-0.024250
9.916667	1	-0.044000
9.933333	1	-0.078625
9.950000	1	-0.136750
9.966667	1	-0.232625
9.983333	1	-0.385500
10.000000	1	-0.616375
10.016667	1	-0.949125
10.033333	1	-1.401625
10.050000	1	-1.980375
10.066667	1	-2.674750
10.083333	1	-3.453875
10.100000	1	-4.271750
10.116667	1	-5.068625
10.133333	1	-5.783875
10.150000	1	-6.367625
10.166667	1	-6.782250
10.183333	1	-7.009250
10.200000	1	-7.047875
10.216667	1	-6.910500
10.233333	1	-6.621125
10.250000	1	-6.212375
10.266667	1	-5.718125
10.283333	1	-5.172125
10.300000	1	-4.604250
10.316667	1	-4.041125
10.333333	1	-3.504000
10.350000	1	-3.007125
10.366667	1	-2.558625
10.383333	1	-2.163875
10.400000	1	-1.821875
10.416667	1	-1.530500
10.433333	1	-1.285375
10.450000	1	-1.080000
10.466667	1	-0.909000
10.483333	1	-0.767250
10.500000	1	-0.648875
10.516667	1	-0.550125
10.533333	1	-0.467750
10.550000	1	-0.398875
10.566667	1	-0.340500
10.583333	1	-0.291250
10.600000	1	-0.249250
10.616667	1	-0.213375
10.633333	1	-0.182750
10.650000	1	-0.157000
10.666667	1	-0.135375
10.683333	1	-0.117000
10.700000	1	-0.100625
10.716667	1	-0.086250
10.733333	1	-0.074250
10.750000	1	-0.063875
10.766667	1	-0.054750
10.783333	1	-0.046750
10.800000	1	-0.039875
10.816667	1	-0.033125
10.833333	1	-0.027250
10.850000	1	-0.022125
10.866667	1	-0.017000
10.883333	1	-0.012500
10.900000	1	-0.008000
10.916667	1	-0.004875
10.933333	1	-0.001875
10.950000	1	0.000500
10.966667	1	0.001875
10.983333	1	0.002750
11.000000	1	0.004125
11.016667	1	0.004750
11.033333	1	0.005125
11.050000	1	0.005625
11.066667	1	0.004500
11.083333	1	0.004500
11.100000	1	0.004375
11.116667	1	0.004000
11.133333	1	0.003500
11.150000	1	0.003875
11.166667	1	0.003750
11.183333	1	0.003250
11.200000	1	0.003125
11.216667	1	0.003500
11.233333	1	0.004125
11.250000	1	0.004375
11.266667	1	0.005000
11.283333	1	0.005625
11.300000	1	0.006375
11.316667	1	0.007500
11.333333	1	0.008875
11.350000	1	0.011000
11.366667	1	0.013125
11.383333	1	0.015000
11.400000	1	0.017625
11.416667	1	0.021375
11.433333	1	0.025750
11.450000	1	0.029625
11.466667	1	0.033500
11.483333	1	0.037125
11.500000	1	0.039750
11.516667	1	0.041625
11.533333	1	0.042750
11.550000	1	0.043375
11.566667	1	0.043250
11.583333	1	0.042125
11.600000	1	0.040500
11.616667	1	0.038875
11.633333	1	0.036375
11.650000	1	0.034000
11.666667	1	0.031375
11.683333	1	0.028875
11.700000	1	0.026750
11.716667	1	0.024000
11.733333	1	0.021125
11.750000	1	0.019375
11.766667	1	0.017000
11.783333	1	0.015250
11.800000	1	0.013875
11.816667	1	0.012250
11.833333	1	0.010625
11.850000	1	0.009875
11.866667	1	0.008875
11.883333	1	0.008500
11.900000	1	0.007625
11.916667	1	0.007500
11.933333	1	0.006375
11.950000	1	0.006625
11.966667	1	0.006250
11.983333	1	0.006375
12.000000	1	0.005625
12.016667	1	0.006125
12.033333	1	0.006625
12.050000	1	0.007250
12.066667	1	0.007750
12.083333	1	0.009500
12.100000	1	0.011375
12.116667	1	0.013875
12.133333	1	0.017000
12.150000	1	0.020125
12.166667	1	0.024625
12.183333	1	0.030125
12.200000	1	0.037625
12.216667	1	0.047125
12.233333	1	0.058875
12.250000	1	0.072750
12.266667	1	0.089750
12.283333	1	0.111125
12.300000	1	0.138250
12.316667	1	0.173000
12.333333	1	0.217875
12.350000	1	0.276750
12.366667	1	0.356250
12.383333	1	0.463000
12.400000	1	0.608625
12.416667	1	0.804625
12.433333	1	1.063875
12.450000	1	1.400125
12.466667	1	1.825375
12.483333	1	2.347375
12.500000	1	2.968875
12.516667	1	3.681375
12.533333	1	4.466750
12.550000	1	5.298500
12.566667	1	6.140000
12.583333	1	6.951625
12.600000	1	7.689250
12.616667	1	8.314000
12.633333	1	8.794125
12.650000	1	9.108125
12.666667	1	9.245500
12.683333	1	9.208875
12.700000	1	9.009875
12.716667	1	8.671000
12.733333	1	8.218125
12.750000	1	7.682750
12.766667	1	7.093500
12.783333	1	6.476625
12.800000	1	5.854625
12.816667	1	5.247750
12.833333	1	4.668500
12.850000	1	4.125875
12.866667	1	3.625000
12.883333	1	3.168750
12.900000	1	2.757250
12.916667	1	2.390125
12.933333	1	2.064875
12.950000	1	1.778625
12.966667	1	1.528875
12.983333	1	1.313000
13.000000	1	1.127125
13.016667	1	0.968125
13.033333	1	0.832750
13.050000	1	0.718500
13.066667	1	0.622250
13.083333	1	0.540375
13.100000	1	0.471625
13.116667	1	0.413750
13.133333	1	0.365500
13.150000	1	0.325000
13.166667	1	0.290625
13.183333	1	0.261625
13.200000	1	0.237000
13.216667	1	0.215500
13.233333	1	0.197125
13.250000	1	0.180875
13.266667	1	0.167125
13.283333	1	0.154750
13.300000	1	0.143875
13.316667	1	0.134125
13.333333	1	0.125000
13.350000	1	0.116750
13.366667	1	0.109875
13.383333	1	0.103500
13.400000	1	0.097875
13.416667	1	0.092750
13.433333	1	0.087375
13.450000	1	0.082375
13.466667	1	0.078250
13.483333	1	0.074500
13.500000	1	0.070250
13.516667	1	0.065750
13.533333	1	0.062250
13.550000	1	0.059250
13.566667	1	0.056500
13.583333	1	0.053500
13.600000	1	0.050750
13.616667	1	0.048500
13.633333	1	0.046500
13.650000	1	0.044000
13.666667	1	0.042250
13.683333	1	0.040250
13.700000	1	0.038750
13.716667	1	0.037125
13.733333	1	0.035750
13.750000	1	0.034000
13.766667	1	0.032375
13.783333	1	0.030875
13.800000	1	0.029375
13.816667	1	0.028375
13.833333	1	0.026750
13.850000	1	0.025625
13.866667	1	0.025250
13.883333	1	0.024500
13.900000	1	0.024250
13.916667	1	0.023375
13.933333	1	0.022625
13.950000	1	0.022500
13.966667	1	0.021750
13.983333	1	0.021500
14.000000	1	0.021500
14.016667	1	0.021250
14.033333	1	0.021000
14.050000	1	0.020875
14.066667	1	0.020875
14.083333	1	0.021500
14.100000	1	0.021000
14.116667	1	0.021625
14.133333	1	0.022000
14.150000	1	0.022250
14.166667	1	0.022250
14.183333	1	0.022500
14.200000	1	0.023125
14.216667	1	0.023625
14.233333	1	0.024250
14.250000	1	0.024250
14.266667	1	0.025375
14.283333	1	0.026500
14.300000	1	0.026750
14.316667	1	0.027875
14.333333	1	0.029125
14.350000	1	0.030500
14.366667	1	0.032125
14.383333	1	0.033625
14.400000	1	0.036500
14.416667	1	0.038875
14.433333	1	0.041375
14.450000	1	0.044375
14.466667	1	0.048125
14.483333	1	0.052375
14.500000	1	0.058125
14.516667	1	0.063625
14.533333	1	0.070375
14.550000	1	0.079250
14.566667	1	0.089000
14.583333	1	0.101750
14.600000	1	0.116625
14.616667	1	0.134875
14.633333	1	0.158500
14.650000	1	0.189125
14.666667	1	0.228250
14.683333	1	0.279750
14.700000	1	0.346125
14.716667	1	0.431250
14.733333	1	0.539500
14.750000	1	0.675250
14.766667	1	0.842000
14.783333	1	1.042000
14.800000	1	1.275000
14.816667	1	1.540625
14.833333	1	1.835000
14.850000	1	2.151250
14.866667	1	2.479250
14.883333	1	2.808625
14.900000	1	3.124750
14.916667	1	3.415250
14.933333	1	3.668375
14.950000	1	3.872125
14.966667	1	4.018875
14.983333	1	4.104625
15.000000	1	4.127625
15.016667	1	4.092500
15.033333	1	4.001625
15.050000	1	3.863375
15.066667	1	3.686375
15.083333	1	3.480000
15.100000	1	3.253750
15.116667	1	3.016125
15.133333	1	2.774625
15.150000	1	2.536250
15.166667	1	2.305125
15.183333	1	2.084500
15.200000	1	1.877000
15.216667	1	1.683875
15.233333	1	1.505750
15.250000	1	1.341750
15.266667	1	1.191250
15.283333	1	1.054250
15.300000	1	0.930625
15.316667	1	0.818875
15.333333	1	0.718750
15.350000	1	0.628625
15.366667	1	0.548250
15.383333	1	0.477500
15.400000	1	0.414875
15.416667	1	0.360375
15.433333	1	0.312500
15.450000	1	0.270125
15.466667	1	0.233875
15.483333	1	0.202625
15.500000	1	0.175375
15.516667	1	0.152000
15.533333	1	0.132125
15.550000	1	0.115125
15.566667	1	0.100250
15.583333	1	0.086500
15.600000	1	0.074875
15.616667	1	0.065375
15.633333	1	0.058125
15.650000	1	0.050750
15.666667	1	0.043875
15.683333	1	0.037875
15.700000	1	0.032000
15.716667	1	0.027125
15.733333	1	0.023000
15.750000	1	0.019250
15.766667	1	0.015875
15.783333	1	0.013500
15.800000	1	0.011125
15.816667	1	0.008500
15.833333	1	0.006250
15.850000	1	0.004500
15.866667	1	0.002250
15.883333	1	0.000625
15.900000	1	-0.000500
15.916667	1	-0.002375
15.933333	1	-0.003250
15.950000	1	-0.004375
15.966667	1	-0.004875
15.983333	1	-0.005125
16.000000	1	-0.005625
16.016667	1	-0.005375
16.033333	1	-0.006125
16.050000	1	-0.006375
16.066667	1	-0.006625
16.083333	1	-0.006750
16.100000	1	-0.006875
16.116667	1	-0.007500
16.133333	1	-0.007375
16.150000	1	-0.006875
16.166667	1	-0.007000
16.183333	1	-0.006500
16.200000	1	-0.006625
16.216667	1	-0.006000
16.233333	1	-0.005500
16.250000	1	-0.005125
16.266667	1	-0.004875
16.283333	1	-0.004625
16.300000	1	-0.004250
16.316667	1	-0.004000
16.333333	1	-0.004000
16.350000	1	-0.003125
16.366667	1	-0.002750
16.383333	1	-0.002875
16.400000	1	-0.002125
16.416667	1	-0.001125
16.433333	1	-0.000875
16.450000	1	-0.000250
16.466667	1	0.000625
16.483333	1	0.000875
16.500000	1	0.001125
16.516667	1	0.001625
16.533333	1	0.001875
16.550000	1	0.002250
16.566667	1	0.002500
16.583333	1	0.003000
16.600000	1	0.003750
16.616667	1	0.004375
16.633333	1	0.005000
16.650000	1	0.005125
16.666667	1	0.005375
16.683333	1	0.005750
16.700000	1	0.006625
16.716667	1	0.006750
16.733333	1	0.006625
16.750000	1	0.007125
16.766667	1	0.008000
16.783333	1	0.008000
16.800000	1	0.007750
16.816667	1	0.008750
16.833333	1	0.008625
16.850000	1	0.008250
16.866667	1	0.008250
16.883333	1	0.008000
16.900000	1	0.008125
16.916667	1	0.007750
16.933333	1	0.007000
16.950000	1	0.006750
16.966667	1	0.007000
16.983333	1	0.006875
17.000000	1	0.006625
17.016667	1	0.006375
17.033333	1	0.006250
17.050000	1	0.005750
17.066667	1	0.005625
17.083333	1	0.005875
17.100000	1	0.005875
17.116667	1	0.005000
17.133333	1	0.004625
17.150000	1	0.005000
17.166667	1	0.004875
17.183333	1	0.004500
17.200000	1	0.004000
17.216667	1	0.003250
17.233333	1	0.003250
17.250000	1	0.002875
17.266667	1	0.002625
17.283333	1	0.001875
17.300000	1	0.002000
17.316667	1	0.001125
17.333333	1	0.000875
17.350000	1	0.000750
17.366667	1	0.001250
17.383333	1	0.001125
17.400000	1	0.001125
17.416667	1	0.001125
17.433333	1	0.000250
17.450000	1	0.000375
17.466667	1	0.000500
17.483333	1	0.000250
17.500000	1	0.000875
17.516667	1	0.001125
17.533333	1	0.000750
17.550000	1	0.000375
17.566667	1	0.001000
17.583333	1	0.001625
17.600000	1	0.001875
17.616667	1	0.002250
17.633333	1	0.002375
17.650000	1	0.002750
17.666667	1	0.003125
17.683333	1	0.003500
17.700000	1	0.004375
17.716667	1	0.004875
17.733333	1	0.005375
17.750000	1	0.005750
17.766667	1	0.006000
17.783333	1	0.006500
17.800000	1	0.007125
17.816667	1	0.007750
17.833333	1	0.008250
17.850000	1	0.008375
17.866667	1	0.008500
17.883333	1	0.008625
17.900000	1	0.008875
17.916667	1	0.009250
17.933333	1	0.010250
17.950000	1	0.010750
17.966667	1	0.011250
17.983333	1	0.011875
18.000000	1	0.012500
18.016667	1	0.013000
18.033333	1	0.013375
18.050000	1	0.014125
18.066667	1	0.014750
18.083333	1	0.014625
18.100000	1	0.015250
18.116667	1	0.015750
18.133333	1	0.016125
18.150000	1	0.016750
18.166667	1	0.017375
18.183333	1	0.018250
18.200000	1	0.018625
18.216667	1	0.019125
18.233333	1	0.019625
18.250000	1	0.019750
18.266667	1	0.019250
18.283333	1	0.019125
18.300000	1	0.019250
18.316667	1	0.019250
18.333333	1	0.018500
18.350000	1	0.018750
18.366667	1	0.019250
18.383333	1	0.019000
18.400000	1	0.018875
18.416667	1	0.018750
18.433333	1	0.018375
18.450000	1	0.018000
18.466667	1	0.017500
18.483333	1	0.017500
18.500000	1	0.016750
18.516667	1	0.016625
18.533333	1	0.016500
18.550000	1	0.016750
18.566667	1	0.016500
18.583333	1	0.015500
18.600000	1	0.014750
18.616667	1	0.014000
18.633333	1	0.013000
18.650000	1	0.012375
18.666667	1	0.011750
18.683333	1	0.010250
18.700000	1	0.009500
18.716667	1	0.008750
18.733333	1	0.007625
18.750000	1	0.006500
18.766667	1	0.005625
18.783333	1	0.004500
18.800000	1	0.004250
18.816667	1	0.003500
18.833333	1	0.002375
18.850000	1	0.001625
18.866667	1	0.000625
18.883333	1	0.000000
18.900000	1	-0.000250
18.916667	1	-0.000500
18.933333	1	-0.001500
18.950000	1	-0.002000
18.966667	1	-0.002875
18.983333	1	-0.003875
19.000000	1	-0.004250
19.016667	1	-0.004625
19.033333	1	-0.004875
19.050000	1	-0.004750
19.066667	1	-0.005125
19.083333	1	-0.004875
19.100000	1	-0.005375
19.116667	1	-0.005750
19.133333	1	-0.005125
19.150000	1	-0.005000
19.166667	1	-0.004125
19.183333	1	-0.003625
19.200000	1	-0.003125
19.216667	1	-0.002125
19.233333	1	-0.001750
19.250000	1	-0.000625
19.266667	1	0.000000
19.283333	1	0.001000
19.300000	1	0.002000
19.316667	1	0.003250
19.333333	1	0.005250
19.350000	1	0.006875
19.366667	1	0.009000
19.383333	1	0.010625
19.400000	1	0.012750
19.416667	1	0.015375
19.433333	1	0.017750
19.450000	1	0.020500
19.466667	1	0.024250
19.483333	1	0.027750
19.500000	1	0.031375
19.516667	1	0.035750
19.533333	1	0.041125
19.550000	1	0.047125
19.566667	1	0.054125
19.583333	1	0.061375
19.600000	1	0.070125
19.616667	1	0.080625
19.633333	1	0.092625
19.650000	1	0.107125
19.666667	1	0.125625
19.683333	1	0.147000
19.700000	1	0.173125
19.716667	1	0.204625
19.733333	1	0.242500
19.750000	1	0.286375
19.766667	1	0.337875
19.783333	1	0.397375
19.800000	1	0.464500
19.816667	1	0.540125
19.833333	1	0.623000
19.850000	1	0.712750
19.866667	1	0.807000
19.883333	1	0.904875
19.900000	1	1.004250
19.916667	1	1.102125
19.933333	1	1.196125
19.950000	1	1.284875
19.966667	1	1.364625
19.983333	1	1.434000
20.000000	1	1.491375
20.016667	1	1.534375
20.033333	1	1.563875
20.050000	1	1.579125
20.066667	1	1.580375
20.083333	1	1.568250
20.100000	1	1.544625
20.116667	1	1.510375
20.133333	1	1.468125
20.150000	1	1.419250
20.166667	1	1.366625
20.183333	1	1.312750
20.200000	1	1.258250
20.216667	1	1.204625
20.233333	1	1.155500
20.250000	1	1.113375
20.266667	1	1.077750
20.283333	1	1.049125
20.300000	1	1.029125
20.316667	1	1.018125
20.333333	1	1.016750
20.350000	1	1.023625
20.366667	1	1.038250
20.383333	1	1.060625
20.400000	1	1.088625
20.416667	1	1.120250
20.433333	1	1.154000
20.450000	1	1.187000
20.466667	1	1.219375
20.483333	1	1.247375
20.500000	1	1.270125
20.516667	1	1.286625
20.533333	1	1.295000
20.550000	1	1.294750
20.566667	1	1.285875
20.583333	1	1.268000
20.600000	1	1.241625
20.616667	1	1.207375
20.633333	1	1.166375
20.650000	1	1.119250
20.666667	1	1.067875
20.683333	1	1.013125
20.700000	1	0.956625
20.716667	1	0.899375
20.733333	1	0.841375
20.750000	1	0.785000
20.766667	1	0.730500
20.783333	1	0.677750
20.800000	1	0.627250
20.816667	1	0.579625
20.833333	1	0.534375
20.850000	1	0.492500
20.866667	1	0.453375
20.883333	1	0.417000
20.900000	1	0.382250
20.916667	1	0.350625
20.933333	1	0.320375
20.950000	1	0.292500
20.966667	1	0.266375
20.983333	1	0.241875
21.000000	1	0.219250
21.016667	1	0.198250
21.033333	1	0.178375
21.050000	1	0.160250
21.066667	1	0.142500
21.083333	1	0.127000
21.100000	1	0.112875
21.116667	1	0.100500
21.133333	1	0.088500
21.150000	1	0.078750
21.166667	1	0.069875
21.183333	1	0.062000
21.200000	1	0.054125
21.216667	1	0.048375
21.233333	1	0.043250
21.250000	1	0.038875
21.266667	1	0.035375
21.283333	1	0.032500
21.300000	1	0.029625
21.316667	1	0.027250
21.333333	1	0.026125
21.350000	1	0.025125
21.366667	1	0.025125
21.383333	1	0.025250
21.400000	1	0.025375
21.416667	1	0.025625
21.433333	1	0.026000
21.450000	1	0.026750
21.466667	1	0.027875
21.483333	1	0.028750
21.500000	1	0.030250
21.516667	1	0.032500
21.533333	1	0.034250
21.550000	1	0.036125
21.566667	1	0.038625
21.583333	1	0.040375
21.600000	1	0.042750
21.616667	1	0.045500
21.633333	1	0.048750
21.650000	1	0.052000
21.666667	1	0.055625
21.683333	1	0.059875
21.700000	1	0.065000
21.716667	1	0.070625
21.733333	1	0.076750
21.750000	1	0.083750
21.766667	1	0.091125
21.783333	1	0.100250
21.800000	1	0.110375
21.816667	1	0.120625
21.833333	1	0.132375
21.850000	1	0.144500
21.866667	1	0.157875
21.883333	1	0.171250
21.900000	1	0.184875
21.916667	1	0.200125
21.933333	1	0.214625
21.950000	1	0.229125
21.966667	1	0.243000
21.983333	1	0.255625
22.000000	1	0.267375
22.016667	1	0.277750
22.033333	1	0.287375
22.050000	1	0.294750
22.066667	1	0.300875
22.083333	1	0.304875
22.100000	1	0.306750
22.116667	1	0.306750
22.133333	1	0.304750
22.150000	1	0.301875
22.166667	1	0.297375
22.183333	1	0.291000
22.200000	1	0.283750
22.216667	1	0.275000
22.233333	1	0.265125
22.250000	1	0.255500
22.266667	1	0.245875
22.283333	1	0.235750
22.300000	1	0.224875
22.316667	1	0.214875
22.333333	1	0.204375
22.350000	1	0.194375
22.366667	1	0.185250
22.383333	1	0.176250
22.400000	1	0.167750
22.416667	1	0.158875
22.433333	1	0.150500
22.450000	1	0.143000
22.466667	1	0.135750
22.483333	1	0.129000
22.500000	1	0.123625
22.516667	1	0.117750
22.533333	1	0.112000
22.550000	1	0.107250
22.566667	1	0.102375
22.583333	1	0.098000
22.600000	1	0.093875
22.616667	1	0.090125
22.633333	1	0.086625
22.650000	1	0.083000
22.666667	1	0.080125
22.683333	1	0.077250
22.700000	1	0.075000
22.716667	1	0.072875
22.733333	1	0.071000
22.750000	1	0.069750
22.766667	1	0.067625
22.783333	1	0.066375
22.800000	1	0.065125
22.816667	1	0.063375
22.833333	1	0.062875
22.850000	1	0.061625
22.866667	1	0.060500
22.883333	1	0.059250
22.900000	1	0.058000
22.916667	1	0.056875
22.933333	1	0.055875
22.950000	1	0.055250
22.966667	1	0.053875
22.983333	1	0.052750
23.000000	1	0.051875
23.016667	1	0.050875
23.033333	1	0.049500
23.050000	1	0.048750
23.066667	1	0.047125
23.083333	1	0.046750
23.100000	1	0.045250
23.116667	1	0.044125
23.133333	1	0.043000
23.150000	1	0.041500
23.166667	1	0.039875
23.183333	1	0.038375
23.200000	1	0.036750
23.216667	1	0.035125
23.233333	1	0.034250
23.250000	1	0.032500
23.266667	1	0.032000
23.283333	1	0.030250
23.300000	1	0.029375
23.316667	1	0.029125
23.333333	1	0.029125
23.350000	1	0.028000
23.366667	1	0.027500
23.383333	1	0.026875
23.400000	1	0.026750
23.416667	1	0.027000
23.433333	1	0.027250
23.450000	1	0.027875
23.466667	1	0.028750
23.483333	1	0.030375
23.500000	1	0.033000
23.516667	1	0.035375
23.533333	1	0.039000
23.550000	1	0.043375
23.566667	1	0.047625
23.583333	1	0.054000
23.600000	1	0.061375
23.616667	1	0.070000
23.633333	1	0.080500
23.650000	1	0.092000
23.666667	1	0.105250
23.683333	1	0.120000
23.700000	1	0.136000
23.716667	1	0.153250
23.733333	1	0.172000
23.750000	1	0.191875
23.766667	1	0.211875
23.783333	1	0.233125
23.800000	1	0.254625
23.816667	1	0.276500
23.833333	1	0.297750
23.850000	1	0.318500
23.866667	1	0.338000
23.883333	1	0.355250
23.900000	1	0.370875
23.916667	1	0.384375
23.933333	1	0.395625
23.950000	1	0.404000
23.966667	1	0.409625
23.983333	1	0.411875
24.000000	1	0.412125
24.016667	1	0.410000
24.033333	1	0.405000
24.050000	1	0.397500
24.066667	1	0.387750
24.083333	1	0.376875
24.100000	1	0.364000
24.116667	1	0.350500
24.133333	1	0.336125
24.150000	1	0.321000
24.166667	1	0.305250
24.183333	1	0.289625
24.200000	1	0.274500
24.216667	1	0.259625
24.233333	1	0.245125
24.250000	1	0.230750
24.266667	1	0.217250
24.283333	1	0.204125
24.300000	1	0.190500
24.316667	1	0.178125
24.333333	1	0.167125
24.350000	1	0.156375
24.366667	1	0.146125
24.383333	1	0.135750
24.400000	1	0.126500
24.416667	1	0.117250
24.433333	1	0.108625
24.450000	1	0.100500
24.466667	1	0.092125
24.483333	1	0.085125
24.500000	1	0.078125
24.516667	1	0.071750
24.533333	1	0.065500
24.550000	1	0.059875
24.566667	1	0.054375
24.583333	1	0.049250
24.600000	1	0.044500
24.616667	1	0.039875
24.633333	1	0.035375
24.650000	1	0.032000
24.666667	1	0.029125
24.683333	1	0.026625
24.700000	1	0.024500
24.716667	1	0.022250
24.733333	1	0.020125
24.750000	1	0.018125
24.766667	1	0.016625
24.783333	1	0.015500
24.800000	1	0.014625
24.816667	1	0.013500
24.833333	1	0.013250
24.850000	1	0.012625
24.866667	1	0.011750
24.883333	1	0.011000
24.900000	1	0.011125
24.916667	1	0.011000
24.933333	1	0.011000
24.950000	1	0.010625
24.966667	1	0.011500
24.983333	1	0.012000
25.000000	1	0.012250
25.016667	1	0.012375
25.033333	1	0.012500
25.050000	1	0.012750
25.066667	1	0.012625
25.083333	1	0.013625
25.100000	1	0.014875
25.116667	1	0.015375
25.133333	1	0.015875
25.150000	1	0.016125
25.166667	1	0.016375
25.183333	1	0.017125
25.200000	1	0.017375
25.216667	1	0.017125
25.233333	1	0.016875
25.250000	1	0.018000
25.266667	1	0.018250
25.283333	1	0.018625
25.300000	1	0.019000
25.316667	1	0.019250
25.333333	1	0.019250
25.350000	1	0.019750
25.366667	1	0.019875
25.383333	1	0.019625
25.400000	1	0.018875
25.416667	1	0.019625
25.433333	1	0.018875
25.450000	1	0.019625
25.466667	1	0.019500
25.483333	1	0.019875
25.500000	1	0.019375
25.516667	1	0.019375
25.533333	1	0.019250
25.550000	1	0.018250
25.566667	1	0.018000
25.583333	1	0.017625
25.600000	1	0.017625
25.616667	1	0.017875
25.633333	1	0.017125
25.650000	1	0.016000
25.666667	1	0.015750
25.683333	1	0.014750
25.700000	1	0.014250
25.716667	1	0.013500
25.733333	1	0.011500
25.750000	1	0.009875
25.766667	1	0.008375
25.783333	1	0.006875
25.800000	1	0.004250
25.816667	1	0.002125
25.833333	1	-0.000125
25.850000	1	-0.003125
25.866667	1	-0.006375
25.883333	1	-0.009750
25.900000	1	-0.013750
25.916667	1	-0.018250
25.933333	1	-0.023125
25.950000	1	-0.027750
25.966667	1	-0.032750
25.983333	1	-0.038250
26.000000	1	-0.044375
26.016667	1	-0.050625
26.033333	1	-0.056625
26.050000	1	-0.062875
26.066667	1	-0.069125
26.083333	1	-0.075500
26.100000	1	-0.082875
26.116667	1	-0.089125
26.133333	1	-0.095125
26.150000	1	-0.101500
26.166667	1	-0.106875
26.183333	1	-0.111875
26.200000	1	-0.117000
26.216667	1	-0.121625
26.233333	1	-0.125375
26.250000	1	-0.128500
26.266667	1	-0.131000
26.283333	1	-0.132875
26.300000	1	-0.134125
26.316667	1	-0.135000
26.333333	1	-0.134250
26.350000	1	-0.134000
26.366667	1	-0.132875
26.383333	1	-0.131000
26.400000	1	-0.128875
26.416667	1	-0.126500
26.433333	1	-0.123000
26.450000	1	-0.119000
26.466667	1	-0.115250
26.483333	1	-0.111375
26.500000	1	-0.107000
26.516667	1	-0.102750
26.533333	1	-0.098250
26.550000	1	-0.093250
26.566667	1	-0.088125
26.583333	1	-0.083625
26.600000	1	-0.078625
26.616667	1	-0.074250
26.633333	1	-0.069500
26.650000	1	-0.064375
26.666667	1	-0.060625
26.683333	1	-0.056375
26.700000	1	-0.052500
26.716667	1	-0.048875
26.733333	1	-0.045375
26.750000	1	-0.042375
26.766667	1	-0.039000
26.783333	1	-0.035625
26.800000	1	-0.032625
26.816667	1	-0.029500
26.833333	1	-0.027250
26.850000	1	-0.024625
26.866667	1	-0.022250
26.883333	1	-0.020125
26.900000	1	-0.017875
26.916667	1	-0.016000
26.933333	1	-0.014250
26.950000	1	-0.013000
26.966667	1	-0.011750
26.983333	1	-0.010875
27.000000	1	-0.009625
27.016667	1	-0.008875
27.033333	1	-0.007875
27.050000	1	-0.007750
27.066667	1	-0.007000
27.083333	1	-0.006625
27.100000	1	-0.005500
27.116667	1	-0.005500
27.133333	1	-0.005250
27.150000	1	-0.005500
27.166667	1	-0.005625
27.183333	1	-0.005625
27.200000	1	-0.006125
27.216667	1	-0.006750
27.233333	1	-0.007000
27.250000	1	-0.007750
27.266667	1	-0.008125
27.283333	1	-0.008750
27.300000	1	-0.010125
27.316667	1	-0.010750
27.333333	1	-0.012000
27.350000	1	-0.013375
27.366667	1	-0.015000
27.383333	1	-0.016375
27.400000	1	-0.018375
27.416667	1	-0.021000
27.433333	1	-0.022125
27.450000	1	-0.023875
27.466667	1	-0.026000
27.483333	1	-0.028500
27.500000	1	-0.031500
27.516667	1	-0.034875
27.533333	1	-0.037750
27.550000	1	-0.040250
27.566667	1	-0.043000
27.583333	1	-0.045250
27.600000	1	-0.047250
27.616667	1	-0.048375
27.633333	1	-0.049125
27.650000	1	-0.049000
27.666667	1	-0.047875
27.683333	1	-0.046000
27.700000	1	-0.043000
27.716667	1	-0.038625
27.733333	1	-0.032625
27.750000	1	-0.024875
27.766667	1	-0.014500
27.783333	1	-0.002750
27.800000	1	0.010125
27.816667	1	0.023500
27.833333	1	0.039125
27.850000	1	0.056250
27.866667	1	0.073875
27.883333	1	0.092125
27.900000	1	0.110625
27.916667	1	0.129500
27.933333	1	0.147750
27.950000	1	0.165500
27.966667	1	0.182250
27.983333	1	0.198500
28.000000	1	0.212875
28.016667	1	0.226125
28.033333	1	0.237125
28.050000	1	0.246625
28.066667	1	0.253500
28.083333	1	0.259000
28.100000	1	0.261875
28.116667	1	0.262625
28.133333	1	0.261750
28.150000	1	0.259750
28.166667	1	0.255750
28.183333	1	0.250375
28.200000	1	0.243750
28.216667	1	0.236500
28.233333	1	0.228250
28.250000	1	0.219750
28.266667	1	0.210500
28.283333	1	0.201500
28.300000	1	0.192250
28.316667	1	0.182875
28.333333	1	0.174375
28.350000	1	0.165750
28.366667	1	0.158125
28.383333	1	0.149500
28.400000	1	0.142375
28.416667	1	0.135250
28.433333	1	0.128375
28.450000	1	0.121875
28.466667	1	0.116250
28.483333	1	0.110625
28.500000	1	0.104750
28.516667	1	0.099875
28.533333	1	0.095125
28.550000	1	0.090875
28.566667	1	0.086500
28.583333	1	0.082000
28.600000	1	0.077125
28.616667	1	0.073250
28.633333	1	0.069250
28.650000	1	0.065125
28.666667	1	0.061125
28.683333	1	0.057750
28.700000	1	0.054125
28.716667	1	0.049875
28.733333	1	0.045375
28.750000	1	0.041375
28.766667	1	0.037250
28.783333	1	0.034125
28.800000	1	0.030750
28.816667	1	0.027625
28.833333	1	0.024500
28.850000	1	0.021250
28.866667	1	0.018750
28.883333	1	0.015875
28.900000	1	0.013500
28.916667	1	0.010625
28.933333	1	0.008625
28.950000	1	0.006625
28.966667	1	0.004375
28.983333	1	0.002125
29.000000	1	0.000375
29.016667	1	-0.000750
29.033333	1	-0.001750
29.050000	1	-0.003000
29.066667	1	-0.004250
29.083333	1	-0.005250
29.100000	1	-0.006250
29.116667	1	-0.007000
29.133333	1	-0.008125
29.150000	1	-0.009500
29.166667	1	-0.009750
29.183333	1	-0.010375
29.200000	1	-0.011000
29.216667	1	-0.011875
29.233333	1	-0.012375
29.250000	1	-0.013250
29.266667	1	-0.013125
29.283333	1	-0.014750
29.300000	1	-0.014500
29.316667	1	-0.015500
29.333333	1	-0.016000
29.350000	1	-0.016250
29.366667	1	-0.016750
29.383333	1	-0.017125
29.400000	1	-0.017875
29.416667	1	-0.018500
29.433333	1	-0.019375
29.450000	1	-0.019750
29.466667	1	-0.021125
29.483333	1	-0.021875
29.500000	1	-0.022625
29.516667	1	-0.023500
29.533333	1	-0.024625
29.550000	1	-0.025625
29.566667	1	-0.026625
29.583333	1	-0.027875
29.600000	1	-0.029250
29.616667	1	-0.030375
29.633333	1	-0.031375
29.650000	1	-0.032000
29.666667	1	-0.033375
29.683333	1	-0.034500
29.700000	1	-0.035000
29.716667	1	-0.036375
29.733333	1	-0.037875
29.750000	1	-0.038875
29.766667	1	-0.040375
29.783333	1	-0.041875
29.800000	1	-0.042250
29.816667	1	-0.042875
29.833333	1	-0.043625
29.850000	1	-0.044500
29.866667	1	-0.045750
29.883333	1	-0.046750
29.900000	1	-0.047000
29.916667	1	-0.048125
29.933333	1	-0.049000
29.950000	1	-0.049125
29.966667	1	-0.049375
29.983333	1	-0.049625
30.000000	1	-0.050000
30.016667	1	-0.050500
30.033333	1	-0.049875
30.050000	1	-0.049625
30.066667	1	-0.050000
30.083333	1	-0.050000
30.100000	1	-0.049625
30.116667	1	-0.048375
30.133333	1	-0.048125
30.150000	1	-0.047500
30.166667	1	-0.046250
30.183333	1	-0.045250
30.200000	1	-0.043750
30.216667	1	-0.043250
30.233333	1	-0.042125
30.250000	1	-0.040875
30.266667	1	-0.039875
30.283333	1	-0.038500
30.300000	1	-0.037125
30.316667	1	-0.035500
30.333333	1	-0.033750
30.350000	1	-0.032000
30.366667	1	-0.030625
30.383333	1	-0.028375
30.400000	1	-0.025750
30.416667	1	-0.023875
30.433333	1	-0.020875
30.450000	1	-0.018125
30.466667	1	-0.015250
30.483333	1	-0.012500
30.500000	1	-0.009375
30.516667	1	-0.006250
30.533333	1	-0.002625
30.550000	1	0.001000
30.566667	1	0.004125
30.583333	1	0.008125
30.600000	1	0.012000
30.616667	1	0.016125
30.633333	1	0.019625
30.650000	1	0.023250
30.666667	1	0.026125
30.683333	1	0.029375
30.700000	1	0.033000
30.716667	1	0.035375
30.733333	1	0.037750
30.750000	1	0.039375
30.766667	1	0.041750
30.783333	1	0.044500
30.800000	1	0.046250
30.816667	1	0.047375
30.833333	1	0.048125
30.850000	1	0.049250
30.866667	1	0.049125
30.883333	1	0.049500
30.900000	1	0.048250
30.916667	1	0.048750
30.933333	1	0.047875
30.950000	1	0.047125
30.966667	1	0.046375
30.983333	1	0.045750
31.000000	1	0.044250
31.016667	1	0.043250
31.033333	1	0.041750
31.050000	1	0.039500
31.066667	1	0.037875
31.083333	1	0.035875
31.100000	1	0.034250
31.116667	1	0.032750
31.133333	1	0.031000
31.150000	1	0.029250
31.166667	1	0.028000
31.183333	1	0.025875
31.200000	1	0.024250
31.216667	1	0.022375
31.233333	1	0.021000
31.250000	1	0.019875
31.266667	1	0.018250
31.283333	1	0.017375
31.300000	1	0.015500
31.316667	1	0.013750
31.333333	1	0.012750
31.350000	1	0.011750
31.366667	1	0.010000
31.383333	1	0.008375
31.400000	1	0.007250
31.416667	1	0.005875
31.433333	1	0.003875
31.450000	1	0.002250
31.466667	1	0.000625
31.483333	1	-0.000625
31.500000	1	-0.001750
31.516667	1	-0.003625
31.533333	1	-0.004875
31.550000	1	-0.006125
31.566667	1	-0.008750
31.583333	1	-0.009750
31.600000	1	-0.011375
31.616667	1	-0.012375
31.633333	1	-0.014000
31.650000	1	-0.015625
31.666667	1	-0.016875
31.683333	1	-0.018500
31.700000	1	-0.020125
31.716667	1	-0.021375
31.733333	1	-0.022250
31.750000	1	-0.024000
31.766667	1	-0.024375
31.783333	1	-0.025500
31.800000	1	-0.026250
31.816667	1	-0.027375
31.833333	1	-0.027875
31.850000	1	-0.028625
31.866667	1	-0.029000
31.883333	1	-0.029375
31.900000	1	-0.029625
31.916667	1	-0.030250
31.933333	1	-0.030875
31.950000	1	-0.030750
31.966667	1	-0.030875
31.983333	1	-0.031250
32.000000	1	-0.031500
32.016667	1	-0.031750
32.033333	1	-0.031375
32.050000	1	-0.030750
32.066667	1	-0.030625
32.083333	1	-0.030750
32.100000	1	-0.030250
32.116667	1	-0.030000
32.133333	1	-0.029500
32.150000	1	-0.029125
32.166667	1	-0.028625
32.183333	1	-0.028000
32.200000	1	-0.027000
32.216667	1	-0.026250
32.233333	1	-0.026125
32.250000	1	-0.025875
32.266667	1	-0.025500
32.283333	1	-0.023875
32.300000	1	-0.022750
32.316667	1	-0.022500
32.333333	1	-0.021500
32.350000	1	-0.020375
32.366667	1	-0.020000
32.383333	1	-0.019000
32.400000	1	-0.018250
32.416667	1	-0.017375
32.433333	1	-0.017000
32.450000	1	-0.016125
32.466667	1	-0.015750
32.483333	1	-0.014625
32.500000	1	-0.013375
32.516667	1	-0.012625
32.533333	1	-0.012500
32.550000	1	-0.012000
32.566667	1	-0.011125
32.583333	1	-0.010125
32.600000	1	-0.009125
32.616667	1	-0.008875
32.633333	1	-0.008000
32.650000	1	-0.007375
32.666667	1	-0.006625
32.683333	1	-0.005125
32.700000	1	-0.004750
32.716667	1	-0.004125
32.733333	1	-0.002875
32.750000	1	-0.001500
32.766667	1	-0.000625
32.783333	1	0.000125
32.800000	1	0.000500
32.816667	1	0.001500
32.833333	1	0.002250
32.850000	1	0.003250
32.866667	1	0.004000
32.883333	1	0.005625
32.900000	1	0.006375
32.916667	1	0.006875
32.933333	1	0.007750
32.950000	1	0.008500
32.966667	1	0.010000
32.983333	1	0.011000
33.000000	1	0.011375
33.016667	1	0.012875
33.033333	1	0.013750
33.050000	1	0.014250
33.066667	1	0.014875
33.083333	1	0.015625
33.100000	1	0.015625
33.116667	1	0.016125
33.133333	1	0.017375
33.150000	1	0.018250
33.166667	1	0.019125
33.183333	1	0.019625
33.200000	1	0.020625
33.216667	1	0.021000
33.233333	1	0.021250
33.250000	1	0.021250
33.266667	1	0.021000
33.283333	1	0.021250
33.300000	1	0.021750
33.316667	1	0.022625
33.333333	1	0.022875
33.350000	1	0.022750
33.366667	1	0.023000
33.383333	1	0.023250
33.400000	1	0.023250
33.416667	1	0.023875
33.433333	1	0.024250
33.450000	1	0.025000
33.466667	1	0.025250
33.483333	1	0.025125
33.500000	1	0.025375
33.516667	1	0.026375
33.533333	1	0.026750
33.550000	1	0.028375
33.566667	1	0.028750
33.583333	1	0.029625
33.600000	1	0.030625
33.616667	1	0.031000
33.633333	1	0.032375
33.650000	1	0.033500
33.666667	1	0.035625
33.683333	1	0.037500
33.700000	1	0.040000
33.716667	1	0.043125
33.733333	1	0.046500
33.750000	1	0.049875
33.766667	1	0.054125
33.783333	1	0.059500
33.800000	1	0.064250
33.816667	1	0.070500
33.833333	1	0.076500
33.850000	1	0.083750
33.866667	1	0.091375
33.883333	1	0.100375
33.900000	1	0.110125
33.916667	1	0.121875
33.933333	1	0.133750
33.950000	1	0.146500
33.966667	1	0.159750
33.983333	1	0.174875
34.000000	1	0.191000
34.016667	1	0.207250
34.033333	1	0.224500
34.050000	1	0.241875
34.066667	1	0.262000
34.083333	1	0.281125
34.100000	1	0.301125
34.116667	1	0.321250
34.133333	1	0.342250
34.150000	1	0.363000
34.166667	1	0.383750
34.183333	1	0.404250
34.200000	1	0.423375
34.216667	1	0.442000
34.233333	1	0.459750
34.250000	1	0.476250
34.266667	1	0.491625
34.283333	1	0.505375
34.300000	1	0.517875
34.316667	1	0.529250
34.333333	1	0.538250
34.350000	1	0.545875
34.366667	1	0.551375
34.383333	1	0.555125
34.400000	1	0.556625
34.416667	1	0.556375
34.433333	1	0.554125
34.450000	1	0.550625
34.466667	1	0.546000
34.483333	1	0.538750
34.500000	1	0.530750
34.516667	1	0.521250
34.533333	1	0.510250
34.550000	1	0.499125
34.566667	1	0.487125
34.583333	1	0.474375
34.600000	1	0.460750
34.616667	1	0.446625
34.633333	1	0.431625
34.650000	1	0.417250
34.666667	1	0.402625
34.683333	1	0.388125
34.700000	1	0.373500
34.716667	1	0.359625
34.733333	1	0.346000
34.750000	1	0.332750
34.766667	1	0.319500
34.783333	1	0.306000
34.800000	1	0.294000
34.816667	1	0.281750
34.833333	1	0.270125
34.850000	1	0.259000
34.866667	1	0.249000
34.883333	1	0.238750
34.900000	1	0.229750
34.916667	1	0.220250
34.933333	1	0.211625
34.950000	1	0.203875
34.966667	1	0.196125
34.983333	1	0.188500
35.000000	1	0.181375
35.016667	1	0.174125
35.033333	1	0.167500
35.050000	1	0.161000
35.066667	1	0.154625
35.083333	1	0.148375
35.100000	1	0.142125
35.116667	1	0.136250
35.133333	1	0.130750
35.150000	1	0.125500
35.166667	1	0.120125
35.183333	1	0.115000
35.200000	1	0.110000
35.216667	1	0.105250
35.233333	1	0.100750
35.250000	1	0.096250
35.266667	1	0.091875
35.283333	1	0.087375
35.300000	1	0.082625
35.316667	1	0.078375
35.333333	1	0.074375
35.350000	1	0.071000
35.366667	1	0.067500
35.383333	1	0.063875
35.400000	1	0.060125
35.416667	1	0.056750
35.433333	1	0.053375
35.450000	1	0.050250
35.466667	1	0.046875
35.483333	1	0.044375
35.500000	1	0.042250
35.516667	1	0.039125
35.533333	1	0.036625
35.550000	1	0.033625
35.566667	1	0.032000
35.583333	1	0.029625
35.600000	1	0.027750
35.616667	1	0.025250
35.633333	1	0.023375
35.650000	1	0.021000
35.666667	1	0.018875
35.683333	1	0.017875
35.700000	1	0.015875
35.716667	1	0.014250
35.733333	1	0.013000
35.750000	1	0.011750
35.766667	1	0.010125
35.783333	1	0.009250
35.800000	1	0.007875
35.816667	1	0.007250
35.833333	1	0.005500
35.850000	1	0.005000
35.866667	1	0.003875
35.883333	1	0.003000
35.900000	1	0.001625
35.916667	1	0.000625
35.933333	1	0.000375
35.950000	1	-0.000750
35.966667	1	-0.001250
35.983333	1	-0.002000
36.000000	1	-0.003250
36.016667	1	-0.003875
36.033333	1	-0.005000
36.050000	1	-0.006125
36.066667	1	-0.006500
36.083333	1	-0.007625
36.100000	1	-0.008875
36.116667	1	-0.008625
36.133333	1	-0.009000
36.150000	1	-0.009750
36.166667	1	-0.010625
36.183333	1	-0.012125
36.200000	1	-0.012500
36.216667	1	-0.013250
36.233333	1	-0.014000
36.250000	1	-0.013625
36.266667	1	-0.013875
36.283333	1	-0.014000
36.300000	1	-0.014750
36.316667	1	-0.015250
36.333333	1	-0.015625
36.350000	1	-0.015750
36.366667	1	-0.016250
36.383333	1	-0.016000
36.400000	1	-0.016250
36.416667	1	-0.016750
36.433333	1	-0.016875
36.450000	1	-0.017000
36.466667	1	-0.017000
36.483333	1	-0.016375
36.500000	1	-0.016125
36.516667	1	-0.015625
36.533333	1	-0.015500
36.550000	1	-0.014875
36.566667	1	-0.015250
36.583333	1	-0.014875
36.600000	1	-0.014250
36.616667	1	-0.013625
36.633333	1	-0.013750
36.650000	1	-0.013375
36.666667	1	-0.013000
36.683333	1	-0.012750
36.700000	1	-0.012000
36.716667	1	-0.011250
36.733333	1	-0.010750
36.750000	1	-0.010375
36.766667	1	-0.010000
36.783333	1	-0.010000
36.800000	1	-0.008875
36.816667	1	-0.008250
36.833333	1	-0.008000
36.850000	1	-0.007625
36.866667	1	-0.006875
36.883333	1	-0.006375
36.900000	1	-0.006125
36.916667	1	-0.005750
36.933333	1	-0.004750
36.950000	1	-0.004375
36.966667	1	-0.003625
36.983333	1	-0.002750
37.000000	1	-0.002125
37.016667	1	-0.001625
37.033333	1	-0.001250
37.050000	1	-0.000875
37.066667	1	-0.000500
37.083333	1	-0.000750
37.100000	1	0.000000
37.116667	1	0.000125
37.133333	1	0.000500
37.150000	1	0.000750
37.166667	1	0.000875
37.183333	1	0.001250
37.200000	1	0.001500
37.216667	1	0.001500
37.233333	1	0.001625
37.250000	1	0.001875
37.266667	1	0.001750
37.283333	1	0.001875
37.300000	1	0.001500
37.316667	1	0.001875
37.333333	1	0.001875
37.350000	1	0.001500
37.366667	1	0.001250
37.383333	1	0.000750
37.400000	1	0.000875
37.416667	1	0.000500
37.433333	1	0.000750
37.450000	1	0.000500
37.466667	1	0.000500
37.483333	1	0.000000
37.500000	1	0.000000
37.516667	1	0.000000
37.533333	1	0.000000
37.550000	1	0.000125
37.566667	1	0.000125
37.583333	1	0.000250
37.600000	1	0.000000
37.616667	1	0.000250
37.633333	1	0.000125
37.650000	1	-0.000250
37.666667	1	0.000000
37.683333	1	0.000000
37.700000	1	0.000000
37.716667	1	-0.000250
37.733333	1	-0.000375
37.750000	1	-0.000500
37.766667	1	-0.000125
37.783333	1	-0.000375
37.800000	1	-0.000750
37.816667	1	-0.000625
37.833333	1	-0.000375
37.850000	1	-0.000250
37.866667	1	-0.000625
37.883333	1	-0.000500
37.900000	1	-0.000500
37.916667	1	-0.000500
37.933333	1	-0.000750
37.950000	1	-0.000875
37.966667	1	-0.000125
37.983333	1	0.000125
38.000000	1	0.000000
38.016667	1	0.000875
38.033333	1	0.001000
38.050000	1	0.000750
38.066667	1	0.000625
38.083333	1	0.000500
38.100000	1	0.000375
38.116667	1	0.000500
38.133333	1	0.000375
38.150000	1	0.000500
38.166667	1	0.000375
38.183333	1	0.000375
38.200000	1	0.000000
38.216667	1	0.000000
38.233333	1	0.000125
38.250000	1	0.000000
38.266667	1	0.000250
38.283333	1	-0.000250
38.300000	1	0.000625
38.316667	1	0.000625
38.333333	1	0.000375
38.350000	1	0.000250
38.366667	1	-0.000625
38.383333	1	-0.000750
38.400000	1	-0.001250
38.416667	1	-0.002000
38.433333	1	-0.002750
38.450000	1	-0.003375
38.466667	1	-0.003500
38.483333	1	-0.003750
38.500000	1	-0.003625
38.516667	1	-0.004000
38.533333	1	-0.004375
38.550000	1	-0.004875
38.566667	1	-0.005500
38.583333	1	-0.006125
38.600000	1	-0.006625
38.616667	1	-0.007000
38.633333	1	-0.007750
38.650000	1	-0.008000
38.666667	1	-0.008250
38.683333	1	-0.008250
38.700000	1	-0.009125
38.716667	1	-0.009625
38.733333	1	-0.010250
38.750000	1	-0.010125
38.766667	1	-0.010625
38.783333	1	-0.011125
38.800000	1	-0.011750
38.816667	1	-0.012125
38.833333	1	-0.012500
38.850000	1	-0.012875
38.866667	1	-0.013000
38.883333	1	-0.012750
38.900000	1	-0.012875
38.916667	1	-0.012750
38.933333	1	-0.012750
38.950000	1	-0.013500
38.966667	1	-0.013375
38.983333	1	-0.013125
39.000000	1	-0.013750
39.016667	1	-0.013875
39.033333	1	-0.013750
39.050000	1	-0.013625
39.066667	1	-0.013125
39.083333	1	-0.013125
39.100000	1	-0.012000
39.116667	1	-0.011500
39.133333	1	-0.011125
39.150000	1	-0.010875
39.166667	1	-0.010375
39.183333	1	-0.010125
39.200000	1	-0.009250
39.216667	1	-0.008750
39.233333	1	-0.008000
39.250000	1	-0.007375
39.266667	1	-0.007000
39.283333	1	-0.006125
39.300000	1	-0.005500
39.316667	1	-0.004375
39.333333	1	-0.003625
39.350000	1	-0.002500
39.366667	1	-0.001375
39.383333	1	0.000000
39.400000	1	0.000375
39.416667	1	0.000875
39.433333	1	0.002000
39.450000	1	0.003000
39.466667	1	0.004000
39.483333	1	0.005250
39.500000	1	0.007000
39.516667	1	0.008000
39.533333	1	0.009250
39.550000	1	0.009875
39.566667	1	0.010500
39.583333	1	0.011000
39.600000	1	0.011375
39.616667	1	0.012250
39.633333	1	0.013500
39.650000	1	0.014750
39.666667	1	0.015250
39.683333	1	0.015375
39.700000	1	0.015875
39.716667	1	0.016250
39.733333	1	0.016625
39.750000	1	0.016875
39.766667	1	0.017500
39.783333	1	0.018125
39.800000	1	0.018375
39.816667	1	0.018125
39.833333	1	0.018750
39.850000	1	0.019250
39.866667	1	0.019500
39.883333	1	0.019250
39.900000	1	0.019250
39.916667	1	0.019625
39.933333	1	0.019375
39.950000	1	0.019500
39.966667	1	0.018500
39.983333	1	0.018625
40.000000	1	0.019000
