File Path	chrom://marshall/Chromeleon7/HPLC_Ultimate_3000/Users/markusar/20230531_CMO_stabTest _FP08_FP09.seq/358.smp/RI_1.channel/RI_1.chm
Channel	RI_1

Injection Information:
Data Vault	Chromeleon7
Injection	STD_02.1_Glu_Malt_FP_10
Injection Number	91
Position	BG1
Comment	
Processing Method	
Instrument Method	run_25B_method
Type	Unknown
Status	Finished
Injection Date	04.06.2023
Injection Time	04:07:57
Injection Volume (µl)	20.000
Dilution Factor	1.0000
Weight	1.0000

Chromatogram Data Information:
Time Min. (min)	0.000000
Time Max. (min)	40.000000
Data Points	2401
Detector	RI
Generating Data System	Chromeleon 7.2.5.9507
Exporting Data System	Chromeleon 7.2.5.0
Operator	Instrument Controller
Signal Quantity	Refractive 
Signal Unit	µRIU
Signal Min.	-7.160375
Signal Max.	4.426250
Channel	RI_1
Driver Name	RID520Driver.dll
Channel Type	Evaluation
Min. Step (s)	1
Max. Step (s)	1
Average Step (s)	1

Signal Parameter Information:
Signal Info	

Chromatogram Data:
Time (min)	Step (s)	Value (µRIU)
0.000000	n.a.	-0.041625
0.016667	1	-0.042500
0.033333	1	-0.043875
0.050000	1	-0.044375
0.066667	1	-0.044750
0.083333	1	-0.045625
0.100000	1	-0.046375
0.116667	1	-0.047875
0.133333	1	-0.048625
0.150000	1	-0.049625
0.166667	1	-0.050375
0.183333	1	-0.051500
0.200000	1	-0.052125
0.216667	1	-0.052375
0.233333	1	-0.052875
0.250000	1	-0.053750
0.266667	1	-0.054000
0.283333	1	-0.054375
0.300000	1	-0.055625
0.316667	1	-0.057125
0.333333	1	-0.058750
0.350000	1	-0.059625
0.366667	1	-0.059250
0.383333	1	-0.057625
0.400000	1	-0.056375
0.416667	1	-0.056375
0.433333	1	-0.056625
0.450000	1	-0.057625
0.466667	1	-0.058750
0.483333	1	-0.060125
0.500000	1	-0.060500
0.516667	1	-0.060250
0.533333	1	-0.060625
0.550000	1	-0.061625
0.566667	1	-0.062375
0.583333	1	-0.061750
0.600000	1	-0.061625
0.616667	1	-0.061125
0.633333	1	-0.061000
0.650000	1	-0.060875
0.666667	1	-0.060375
0.683333	1	-0.060125
0.700000	1	-0.060000
0.716667	1	-0.060000
0.733333	1	-0.059500
0.750000	1	-0.059000
0.766667	1	-0.059375
0.783333	1	-0.059125
0.800000	1	-0.058125
0.816667	1	-0.057375
0.833333	1	-0.056500
0.850000	1	-0.055875
0.866667	1	-0.055500
0.883333	1	-0.054875
0.900000	1	-0.054500
0.916667	1	-0.054000
0.933333	1	-0.053250
0.950000	1	-0.052750
0.966667	1	-0.051875
0.983333	1	-0.051625
1.000000	1	-0.050875
1.016667	1	-0.049625
1.033333	1	-0.049375
1.050000	1	-0.048250
1.066667	1	-0.046875
1.083333	1	-0.046375
1.100000	1	-0.045750
1.116667	1	-0.045000
1.133333	1	-0.044500
1.150000	1	-0.044250
1.166667	1	-0.044250
1.183333	1	-0.043625
1.200000	1	-0.042375
1.216667	1	-0.041750
1.233333	1	-0.041875
1.250000	1	-0.042000
1.266667	1	-0.041875
1.283333	1	-0.042000
1.300000	1	-0.042375
1.316667	1	-0.042500
1.333333	1	-0.042625
1.350000	1	-0.042250
1.366667	1	-0.042625
1.383333	1	-0.043000
1.400000	1	-0.043500
1.416667	1	-0.043625
1.433333	1	-0.044125
1.450000	1	-0.044375
1.466667	1	-0.045750
1.483333	1	-0.046500
1.500000	1	-0.047125
1.516667	1	-0.048375
1.533333	1	-0.048500
1.550000	1	-0.049375
1.566667	1	-0.050000
1.583333	1	-0.050625
1.600000	1	-0.051375
1.616667	1	-0.051625
1.633333	1	-0.052125
1.650000	1	-0.052375
1.666667	1	-0.052250
1.683333	1	-0.053375
1.700000	1	-0.054500
1.716667	1	-0.055125
1.733333	1	-0.055875
1.750000	1	-0.057000
1.766667	1	-0.057875
1.783333	1	-0.058875
1.800000	1	-0.059375
1.816667	1	-0.059500
1.833333	1	-0.059875
1.850000	1	-0.060125
1.866667	1	-0.061250
1.883333	1	-0.061250
1.900000	1	-0.061500
1.916667	1	-0.062375
1.933333	1	-0.062375
1.950000	1	-0.062500
1.966667	1	-0.063000
1.983333	1	-0.063625
2.000000	1	-0.063625
2.016667	1	-0.063250
2.033333	1	-0.063250
2.050000	1	-0.064000
2.066667	1	-0.063875
2.083333	1	-0.064250
2.100000	1	-0.063750
2.116667	1	-0.063000
2.133333	1	-0.063375
2.150000	1	-0.063125
2.166667	1	-0.063125
2.183333	1	-0.063375
2.200000	1	-0.063375
2.216667	1	-0.063125
2.233333	1	-0.062500
2.250000	1	-0.062125
2.266667	1	-0.062000
2.283333	1	-0.061875
2.300000	1	-0.061250
2.316667	1	-0.060750
2.333333	1	-0.060000
2.350000	1	-0.060375
2.366667	1	-0.059500
2.383333	1	-0.058375
2.400000	1	-0.057375
2.416667	1	-0.056500
2.433333	1	-0.056125
2.450000	1	-0.055000
2.466667	1	-0.054250
2.483333	1	-0.053500
2.500000	1	-0.052250
2.516667	1	-0.051500
2.533333	1	-0.050375
2.550000	1	-0.049375
2.566667	1	-0.048500
2.583333	1	-0.047625
2.600000	1	-0.046625
2.616667	1	-0.045750
2.633333	1	-0.044625
2.650000	1	-0.044250
2.666667	1	-0.043125
2.683333	1	-0.042625
2.700000	1	-0.042375
2.716667	1	-0.041500
2.733333	1	-0.041000
2.750000	1	-0.040500
2.766667	1	-0.039375
2.783333	1	-0.039000
2.800000	1	-0.039125
2.816667	1	-0.038875
2.833333	1	-0.038750
2.850000	1	-0.038750
2.866667	1	-0.038250
2.883333	1	-0.037625
2.900000	1	-0.037875
2.916667	1	-0.038250
2.933333	1	-0.037875
2.950000	1	-0.038375
2.966667	1	-0.038250
2.983333	1	-0.038625
3.000000	1	-0.038250
3.016667	1	-0.038250
3.033333	1	-0.038375
3.050000	1	-0.038625
3.066667	1	-0.039500
3.083333	1	-0.039500
3.100000	1	-0.039875
3.116667	1	-0.040375
3.133333	1	-0.041000
3.150000	1	-0.040875
3.166667	1	-0.041500
3.183333	1	-0.041625
3.200000	1	-0.042000
3.216667	1	-0.042500
3.233333	1	-0.042750
3.250000	1	-0.043750
3.266667	1	-0.043750
3.283333	1	-0.044375
3.300000	1	-0.045125
3.316667	1	-0.045000
3.333333	1	-0.045625
3.350000	1	-0.045250
3.366667	1	-0.045000
3.383333	1	-0.045125
3.400000	1	-0.044750
3.416667	1	-0.044500
3.433333	1	-0.044625
3.450000	1	-0.044750
3.466667	1	-0.045000
3.483333	1	-0.045125
3.500000	1	-0.044375
3.516667	1	-0.044375
3.533333	1	-0.043375
3.550000	1	-0.043375
3.566667	1	-0.043000
3.583333	1	-0.042625
3.600000	1	-0.041750
3.616667	1	-0.041375
3.633333	1	-0.040000
3.650000	1	-0.040125
3.666667	1	-0.039750
3.683333	1	-0.039875
3.700000	1	-0.038500
3.716667	1	-0.039125
3.733333	1	-0.037625
3.750000	1	-0.037500
3.766667	1	-0.036625
3.783333	1	-0.036250
3.800000	1	-0.035250
3.816667	1	-0.034875
3.833333	1	-0.034625
3.850000	1	-0.034000
3.866667	1	-0.033250
3.883333	1	-0.032250
3.900000	1	-0.032125
3.916667	1	-0.031625
3.933333	1	-0.031625
3.950000	1	-0.031000
3.966667	1	-0.030500
3.983333	1	-0.030000
4.000000	1	-0.029625
4.016667	1	-0.028750
4.033333	1	-0.028625
4.050000	1	-0.027750
4.066667	1	-0.027375
4.083333	1	-0.027125
4.100000	1	-0.027500
4.116667	1	-0.027250
4.133333	1	-0.027125
4.150000	1	-0.027000
4.166667	1	-0.027000
4.183333	1	-0.027125
4.200000	1	-0.027000
4.216667	1	-0.026500
4.233333	1	-0.026750
4.250000	1	-0.027625
4.266667	1	-0.027750
4.283333	1	-0.027625
4.300000	1	-0.027000
4.316667	1	-0.027000
4.333333	1	-0.027250
4.350000	1	-0.027625
4.366667	1	-0.027625
4.383333	1	-0.027375
4.400000	1	-0.026875
4.416667	1	-0.026500
4.433333	1	-0.025750
4.450000	1	-0.025625
4.466667	1	-0.025125
4.483333	1	-0.024750
4.500000	1	-0.024125
4.516667	1	-0.023250
4.533333	1	-0.023125
4.550000	1	-0.022125
4.566667	1	-0.021250
4.583333	1	-0.020125
4.600000	1	-0.018500
4.616667	1	-0.017125
4.633333	1	-0.016375
4.650000	1	-0.014625
4.666667	1	-0.013625
4.683333	1	-0.011625
4.700000	1	-0.010500
4.716667	1	-0.008625
4.733333	1	-0.007375
4.750000	1	-0.005000
4.766667	1	-0.002500
4.783333	1	-0.000250
4.800000	1	0.000750
4.816667	1	0.002750
4.833333	1	0.005375
4.850000	1	0.007625
4.866667	1	0.009625
4.883333	1	0.012000
4.900000	1	0.013875
4.916667	1	0.015625
4.933333	1	0.016875
4.950000	1	0.018500
4.966667	1	0.020625
4.983333	1	0.022375
5.000000	1	0.024500
5.016667	1	0.025875
5.033333	1	0.027000
5.050000	1	0.028000
5.066667	1	0.029875
5.083333	1	0.030875
5.100000	1	0.030875
5.116667	1	0.031000
5.133333	1	0.031625
5.150000	1	0.032375
5.166667	1	0.032875
5.183333	1	0.032750
5.200000	1	0.033500
5.216667	1	0.033250
5.233333	1	0.033125
5.250000	1	0.033000
5.266667	1	0.032375
5.283333	1	0.031500
5.300000	1	0.030625
5.316667	1	0.030375
5.333333	1	0.030000
5.350000	1	0.030125
5.366667	1	0.029625
5.383333	1	0.029125
5.400000	1	0.027750
5.416667	1	0.027875
5.433333	1	0.027375
5.450000	1	0.027000
5.466667	1	0.026000
5.483333	1	0.025375
5.500000	1	0.024625
5.516667	1	0.023625
5.533333	1	0.023250
5.550000	1	0.023250
5.566667	1	0.023000
5.583333	1	0.023000
5.600000	1	0.022750
5.616667	1	0.022375
5.633333	1	0.021875
5.650000	1	0.021500
5.666667	1	0.021125
5.683333	1	0.020875
5.700000	1	0.020625
5.716667	1	0.020500
5.733333	1	0.020500
5.750000	1	0.020625
5.766667	1	0.020500
5.783333	1	0.020625
5.800000	1	0.020750
5.816667	1	0.020875
5.833333	1	0.021250
5.850000	1	0.021625
5.866667	1	0.022250
5.883333	1	0.022375
5.900000	1	0.022750
5.916667	1	0.023500
5.933333	1	0.024375
5.950000	1	0.024875
5.966667	1	0.025875
5.983333	1	0.027125
6.000000	1	0.027875
6.016667	1	0.027750
6.033333	1	0.028500
6.050000	1	0.029375
6.066667	1	0.030375
6.083333	1	0.032000
6.100000	1	0.033250
6.116667	1	0.034000
6.133333	1	0.035750
6.150000	1	0.037875
6.166667	1	0.039375
6.183333	1	0.041375
6.200000	1	0.042875
6.216667	1	0.044875
6.233333	1	0.047250
6.250000	1	0.048875
6.266667	1	0.051000
6.283333	1	0.052875
6.300000	1	0.054875
6.316667	1	0.056875
6.333333	1	0.059125
6.350000	1	0.061000
6.366667	1	0.063375
6.383333	1	0.065125
6.400000	1	0.066875
6.416667	1	0.068875
6.433333	1	0.070750
6.450000	1	0.071875
6.466667	1	0.073625
6.483333	1	0.075000
6.500000	1	0.075750
6.516667	1	0.077125
6.533333	1	0.077750
6.550000	1	0.078500
6.566667	1	0.079000
6.583333	1	0.079375
6.600000	1	0.078750
6.616667	1	0.079125
6.633333	1	0.078125
6.650000	1	0.077750
6.666667	1	0.077250
6.683333	1	0.076125
6.700000	1	0.074125
6.716667	1	0.072625
6.733333	1	0.070375
6.750000	1	0.068625
6.766667	1	0.066500
6.783333	1	0.064625
6.800000	1	0.061500
6.816667	1	0.058750
6.833333	1	0.055250
6.850000	1	0.052375
6.866667	1	0.049750
6.883333	1	0.046875
6.900000	1	0.043750
6.916667	1	0.040625
6.933333	1	0.037625
6.950000	1	0.035125
6.966667	1	0.031625
6.983333	1	0.028250
7.000000	1	0.025125
7.016667	1	0.021500
7.033333	1	0.018250
7.050000	1	0.014875
7.066667	1	0.012000
7.083333	1	0.009375
7.100000	1	0.007125
7.116667	1	0.005000
7.133333	1	0.002125
7.150000	1	0.000000
7.166667	1	-0.001500
7.183333	1	-0.003625
7.200000	1	-0.006375
7.216667	1	-0.007750
7.233333	1	-0.009500
7.250000	1	-0.011125
7.266667	1	-0.012750
7.283333	1	-0.013875
7.300000	1	-0.014875
7.316667	1	-0.015500
7.333333	1	-0.017000
7.350000	1	-0.017875
7.366667	1	-0.019000
7.383333	1	-0.019750
7.400000	1	-0.020375
7.416667	1	-0.021250
7.433333	1	-0.022625
7.450000	1	-0.023625
7.466667	1	-0.024125
7.483333	1	-0.024250
7.500000	1	-0.024625
7.516667	1	-0.025750
7.533333	1	-0.025750
7.550000	1	-0.026250
7.566667	1	-0.026250
7.583333	1	-0.026375
7.600000	1	-0.027000
7.616667	1	-0.027500
7.633333	1	-0.027875
7.650000	1	-0.027250
7.666667	1	-0.027500
7.683333	1	-0.027500
7.700000	1	-0.028250
7.716667	1	-0.027625
7.733333	1	-0.027500
7.750000	1	-0.027125
7.766667	1	-0.026750
7.783333	1	-0.026375
7.800000	1	-0.026000
7.816667	1	-0.025375
7.833333	1	-0.024625
7.850000	1	-0.024375
7.866667	1	-0.023500
7.883333	1	-0.022750
7.900000	1	-0.022250
7.916667	1	-0.021125
7.933333	1	-0.019750
7.950000	1	-0.018375
7.966667	1	-0.016375
7.983333	1	-0.015125
8.000000	1	-0.013875
8.016667	1	-0.012625
8.033333	1	-0.010500
8.050000	1	-0.008750
8.066667	1	-0.007000
8.083333	1	-0.005375
8.100000	1	-0.003750
8.116667	1	-0.002250
8.133333	1	0.000125
8.150000	1	0.002250
8.166667	1	0.004125
8.183333	1	0.006625
8.200000	1	0.009125
8.216667	1	0.010875
8.233333	1	0.012625
8.250000	1	0.014625
8.266667	1	0.016375
8.283333	1	0.018625
8.300000	1	0.020500
8.316667	1	0.022500
8.333333	1	0.024500
8.350000	1	0.026500
8.366667	1	0.028375
8.383333	1	0.029875
8.400000	1	0.031125
8.416667	1	0.032000
8.433333	1	0.033250
8.450000	1	0.034625
8.466667	1	0.035250
8.483333	1	0.036000
8.500000	1	0.037125
8.516667	1	0.038250
8.533333	1	0.039250
8.550000	1	0.040125
8.566667	1	0.040875
8.583333	1	0.041250
8.600000	1	0.041625
8.616667	1	0.042125
8.633333	1	0.042500
8.650000	1	0.042625
8.666667	1	0.042875
8.683333	1	0.043125
8.700000	1	0.042375
8.716667	1	0.042625
8.733333	1	0.042750
8.750000	1	0.042375
8.766667	1	0.042375
8.783333	1	0.042500
8.800000	1	0.042250
8.816667	1	0.042125
8.833333	1	0.042500
8.850000	1	0.042125
8.866667	1	0.041625
8.883333	1	0.041750
8.900000	1	0.041500
8.916667	1	0.041500
8.933333	1	0.041375
8.950000	1	0.041500
8.966667	1	0.041500
8.983333	1	0.041000
9.000000	1	0.041000
9.016667	1	0.040500
9.033333	1	0.041000
9.050000	1	0.040500
9.066667	1	0.040375
9.083333	1	0.040500
9.100000	1	0.040750
9.116667	1	0.041375
9.133333	1	0.042000
9.150000	1	0.042125
9.166667	1	0.042750
9.183333	1	0.042875
9.200000	1	0.043125
9.216667	1	0.043375
9.233333	1	0.044000
9.250000	1	0.044125
9.266667	1	0.044500
9.283333	1	0.044750
9.300000	1	0.045750
9.316667	1	0.046250
9.333333	1	0.046750
9.350000	1	0.047375
9.366667	1	0.048125
9.383333	1	0.048250
9.400000	1	0.048500
9.416667	1	0.048500
9.433333	1	0.049250
9.450000	1	0.049250
9.466667	1	0.049625
9.483333	1	0.049750
9.500000	1	0.051000
9.516667	1	0.051000
9.533333	1	0.051625
9.550000	1	0.051125
9.566667	1	0.051000
9.583333	1	0.051000
9.600000	1	0.051250
9.616667	1	0.051250
9.633333	1	0.050125
9.650000	1	0.049375
9.666667	1	0.048500
9.683333	1	0.047625
9.700000	1	0.046250
9.716667	1	0.044875
9.733333	1	0.043375
9.750000	1	0.040875
9.766667	1	0.038750
9.783333	1	0.036875
9.800000	1	0.035000
9.816667	1	0.032000
9.833333	1	0.029000
9.850000	1	0.024250
9.866667	1	0.019000
9.883333	1	0.011125
9.900000	1	-0.000625
9.916667	1	-0.020500
9.933333	1	-0.055125
9.950000	1	-0.112125
9.966667	1	-0.205500
9.983333	1	-0.353875
10.000000	1	-0.580250
10.016667	1	-0.908375
10.033333	1	-1.357875
10.050000	1	-1.937375
10.066667	1	-2.636625
10.083333	1	-3.427250
10.100000	1	-4.261375
10.116667	1	-5.079125
10.133333	1	-5.819500
10.150000	1	-6.428000
10.166667	1	-6.866375
10.183333	1	-7.111125
10.200000	1	-7.160375
10.216667	1	-7.026125
10.233333	1	-6.733000
10.250000	1	-6.312625
10.266667	1	-5.801375
10.283333	1	-5.234750
10.300000	1	-4.645875
10.316667	1	-4.061875
10.333333	1	-3.505875
10.350000	1	-2.993125
10.366667	1	-2.532875
10.383333	1	-2.129500
10.400000	1	-1.783000
10.416667	1	-1.490375
10.433333	1	-1.246125
10.450000	1	-1.044000
10.466667	1	-0.878500
10.483333	1	-0.742750
10.500000	1	-0.631125
10.516667	1	-0.540000
10.533333	1	-0.465125
10.550000	1	-0.404000
10.566667	1	-0.353000
10.583333	1	-0.310250
10.600000	1	-0.274750
10.616667	1	-0.245125
10.633333	1	-0.220000
10.650000	1	-0.198875
10.666667	1	-0.180500
10.683333	1	-0.165375
10.700000	1	-0.152125
10.716667	1	-0.141500
10.733333	1	-0.131875
10.750000	1	-0.122750
10.766667	1	-0.115875
10.783333	1	-0.109750
10.800000	1	-0.104250
10.816667	1	-0.099125
10.833333	1	-0.094250
10.850000	1	-0.089750
10.866667	1	-0.085875
10.883333	1	-0.082625
10.900000	1	-0.079500
10.916667	1	-0.076000
10.933333	1	-0.073250
10.950000	1	-0.070625
10.966667	1	-0.068625
10.983333	1	-0.066250
11.000000	1	-0.064375
11.016667	1	-0.062375
11.033333	1	-0.061250
11.050000	1	-0.059250
11.066667	1	-0.057250
11.083333	1	-0.055750
11.100000	1	-0.053750
11.116667	1	-0.052500
11.133333	1	-0.050500
11.150000	1	-0.049000
11.166667	1	-0.047875
11.183333	1	-0.046000
11.200000	1	-0.043500
11.216667	1	-0.041500
11.233333	1	-0.039500
11.250000	1	-0.037000
11.266667	1	-0.034125
11.283333	1	-0.031750
11.300000	1	-0.028875
11.316667	1	-0.026000
11.333333	1	-0.022875
11.350000	1	-0.020125
11.366667	1	-0.017000
11.383333	1	-0.013750
11.400000	1	-0.009875
11.416667	1	-0.005625
11.433333	1	-0.001750
11.450000	1	0.002500
11.466667	1	0.006500
11.483333	1	0.011000
11.500000	1	0.014250
11.516667	1	0.017500
11.533333	1	0.020750
11.550000	1	0.022625
11.566667	1	0.024125
11.583333	1	0.025375
11.600000	1	0.025750
11.616667	1	0.026500
11.633333	1	0.026500
11.650000	1	0.026500
11.666667	1	0.027125
11.683333	1	0.027500
11.700000	1	0.027375
11.716667	1	0.027625
11.733333	1	0.027500
11.750000	1	0.027625
11.766667	1	0.027625
11.783333	1	0.027500
11.800000	1	0.026375
11.816667	1	0.025375
11.833333	1	0.025375
11.850000	1	0.025250
11.866667	1	0.024750
11.883333	1	0.024625
11.900000	1	0.024250
11.916667	1	0.023125
11.933333	1	0.022000
11.950000	1	0.021000
11.966667	1	0.019750
11.983333	1	0.018375
12.000000	1	0.017250
12.016667	1	0.015875
12.033333	1	0.014250
12.050000	1	0.013250
12.066667	1	0.012625
12.083333	1	0.011375
12.100000	1	0.010375
12.116667	1	0.009250
12.133333	1	0.008375
12.150000	1	0.007125
12.166667	1	0.007625
12.183333	1	0.007750
12.200000	1	0.008000
12.216667	1	0.009375
12.233333	1	0.011625
12.250000	1	0.014625
12.266667	1	0.019375
12.283333	1	0.025500
12.300000	1	0.034875
12.316667	1	0.047875
12.333333	1	0.063875
12.350000	1	0.087375
12.366667	1	0.120250
12.383333	1	0.166500
12.400000	1	0.229625
12.416667	1	0.317375
12.433333	1	0.435000
12.450000	1	0.590375
12.466667	1	0.788500
12.483333	1	1.035000
12.500000	1	1.329875
12.516667	1	1.669125
12.533333	1	2.046875
12.550000	1	2.449125
12.566667	1	2.859000
12.583333	1	3.256125
12.600000	1	3.620625
12.616667	1	3.933250
12.633333	1	4.178000
12.650000	1	4.344500
12.666667	1	4.426250
12.683333	1	4.423250
12.700000	1	4.342500
12.716667	1	4.192500
12.733333	1	3.985875
12.750000	1	3.736625
12.766667	1	3.459375
12.783333	1	3.165875
12.800000	1	2.868250
12.816667	1	2.574875
12.833333	1	2.293000
12.850000	1	2.026500
12.866667	1	1.779000
12.883333	1	1.550750
12.900000	1	1.343125
12.916667	1	1.156500
12.933333	1	0.990125
12.950000	1	0.842375
12.966667	1	0.712750
12.983333	1	0.599375
13.000000	1	0.501000
13.016667	1	0.416750
13.033333	1	0.344375
13.050000	1	0.283000
13.066667	1	0.230250
13.083333	1	0.186625
13.100000	1	0.150250
13.116667	1	0.119500
13.133333	1	0.093625
13.150000	1	0.071375
13.166667	1	0.052750
13.183333	1	0.038125
13.200000	1	0.025500
13.216667	1	0.014625
13.233333	1	0.005500
13.250000	1	-0.002750
13.266667	1	-0.009375
13.283333	1	-0.015625
13.300000	1	-0.021750
13.316667	1	-0.026875
13.333333	1	-0.031875
13.350000	1	-0.036625
13.366667	1	-0.040500
13.383333	1	-0.043500
13.400000	1	-0.046250
13.416667	1	-0.049250
13.433333	1	-0.051875
13.450000	1	-0.054125
13.466667	1	-0.055875
13.483333	1	-0.058000
13.500000	1	-0.059375
13.516667	1	-0.060875
13.533333	1	-0.063000
13.550000	1	-0.065000
13.566667	1	-0.066250
13.583333	1	-0.067500
13.600000	1	-0.069000
13.616667	1	-0.071000
13.633333	1	-0.071625
13.650000	1	-0.072375
13.666667	1	-0.073000
13.683333	1	-0.073625
13.700000	1	-0.074375
13.716667	1	-0.075750
13.733333	1	-0.076625
13.750000	1	-0.077125
13.766667	1	-0.077875
13.783333	1	-0.078500
13.800000	1	-0.079000
13.816667	1	-0.079875
13.833333	1	-0.080750
13.850000	1	-0.081250
13.866667	1	-0.081500
13.883333	1	-0.081875
13.900000	1	-0.082375
13.916667	1	-0.083250
13.933333	1	-0.084000
13.950000	1	-0.084875
13.966667	1	-0.086000
13.983333	1	-0.086625
14.000000	1	-0.087500
14.016667	1	-0.088375
14.033333	1	-0.088625
14.050000	1	-0.089250
14.066667	1	-0.089625
14.083333	1	-0.090625
14.100000	1	-0.091000
14.116667	1	-0.092000
14.133333	1	-0.092500
14.150000	1	-0.093500
14.166667	1	-0.094250
14.183333	1	-0.095375
14.200000	1	-0.095750
14.216667	1	-0.096250
14.233333	1	-0.096500
14.250000	1	-0.097250
14.266667	1	-0.097000
14.283333	1	-0.097000
14.300000	1	-0.097375
14.316667	1	-0.097625
14.333333	1	-0.097750
14.350000	1	-0.097875
14.366667	1	-0.097625
14.383333	1	-0.098000
14.400000	1	-0.097375
14.416667	1	-0.096250
14.433333	1	-0.095250
14.450000	1	-0.093625
14.466667	1	-0.091750
14.483333	1	-0.090125
14.500000	1	-0.087250
14.516667	1	-0.084125
14.533333	1	-0.080500
14.550000	1	-0.076000
14.566667	1	-0.071375
14.583333	1	-0.065250
14.600000	1	-0.058500
14.616667	1	-0.049750
14.633333	1	-0.038875
14.650000	1	-0.024500
14.666667	1	-0.006250
14.683333	1	0.017875
14.700000	1	0.049000
14.716667	1	0.088750
14.733333	1	0.140375
14.750000	1	0.204250
14.766667	1	0.283125
14.783333	1	0.378500
14.800000	1	0.490250
14.816667	1	0.618125
14.833333	1	0.761250
14.850000	1	0.914500
14.866667	1	1.075125
14.883333	1	1.236250
14.900000	1	1.392500
14.916667	1	1.537125
14.933333	1	1.664250
14.950000	1	1.769000
14.966667	1	1.846625
14.983333	1	1.895000
15.000000	1	1.913500
15.016667	1	1.903875
15.033333	1	1.867625
15.050000	1	1.808375
15.066667	1	1.729625
15.083333	1	1.635625
15.100000	1	1.531625
15.116667	1	1.421000
15.133333	1	1.307625
15.150000	1	1.193875
15.166667	1	1.082750
15.183333	1	0.976500
15.200000	1	0.875625
15.216667	1	0.780750
15.233333	1	0.692250
15.250000	1	0.609625
15.266667	1	0.532875
15.283333	1	0.463125
15.300000	1	0.399000
15.316667	1	0.340500
15.333333	1	0.287625
15.350000	1	0.239875
15.366667	1	0.197250
15.383333	1	0.159125
15.400000	1	0.125750
15.416667	1	0.095875
15.433333	1	0.069750
15.450000	1	0.046625
15.466667	1	0.026375
15.483333	1	0.009250
15.500000	1	-0.005500
15.516667	1	-0.018250
15.533333	1	-0.029750
15.550000	1	-0.039125
15.566667	1	-0.047125
15.583333	1	-0.055000
15.600000	1	-0.061125
15.616667	1	-0.066625
15.633333	1	-0.071250
15.650000	1	-0.075875
15.666667	1	-0.079250
15.683333	1	-0.082750
15.700000	1	-0.085500
15.716667	1	-0.088625
15.733333	1	-0.091125
15.750000	1	-0.092750
15.766667	1	-0.094500
15.783333	1	-0.095875
15.800000	1	-0.097500
15.816667	1	-0.098000
15.833333	1	-0.099375
15.850000	1	-0.100750
15.866667	1	-0.101500
15.883333	1	-0.103000
15.900000	1	-0.103750
15.916667	1	-0.104125
15.933333	1	-0.104875
15.950000	1	-0.105375
15.966667	1	-0.106250
15.983333	1	-0.105875
16.000000	1	-0.106000
16.016667	1	-0.105625
16.033333	1	-0.106000
16.050000	1	-0.106000
16.066667	1	-0.106375
16.083333	1	-0.106250
16.100000	1	-0.106500
16.116667	1	-0.106750
16.133333	1	-0.106875
16.150000	1	-0.107625
16.166667	1	-0.107625
16.183333	1	-0.108250
16.200000	1	-0.108625
16.216667	1	-0.108250
16.233333	1	-0.108750
16.250000	1	-0.109000
16.266667	1	-0.108875
16.283333	1	-0.109000
16.300000	1	-0.109125
16.316667	1	-0.109500
16.333333	1	-0.109875
16.350000	1	-0.110250
16.366667	1	-0.111250
16.383333	1	-0.110875
16.400000	1	-0.110750
16.416667	1	-0.110750
16.433333	1	-0.110500
16.450000	1	-0.110375
16.466667	1	-0.111125
16.483333	1	-0.112125
16.500000	1	-0.112000
16.516667	1	-0.111500
16.533333	1	-0.112125
16.550000	1	-0.112375
16.566667	1	-0.112375
16.583333	1	-0.112625
16.600000	1	-0.113125
16.616667	1	-0.113000
16.633333	1	-0.113500
16.650000	1	-0.112875
16.666667	1	-0.113625
16.683333	1	-0.113375
16.700000	1	-0.114375
16.716667	1	-0.114500
16.733333	1	-0.115125
16.750000	1	-0.116125
16.766667	1	-0.115875
16.783333	1	-0.115625
16.800000	1	-0.116000
16.816667	1	-0.116375
16.833333	1	-0.116625
16.850000	1	-0.116250
16.866667	1	-0.116500
16.883333	1	-0.117250
16.900000	1	-0.117750
16.916667	1	-0.118250
16.933333	1	-0.118500
16.950000	1	-0.119125
16.966667	1	-0.119000
16.983333	1	-0.119500
17.000000	1	-0.119125
17.016667	1	-0.119500
17.033333	1	-0.119750
17.050000	1	-0.120375
17.066667	1	-0.120625
17.083333	1	-0.121000
17.100000	1	-0.121375
17.116667	1	-0.122250
17.133333	1	-0.122250
17.150000	1	-0.123000
17.166667	1	-0.123500
17.183333	1	-0.123500
17.200000	1	-0.124250
17.216667	1	-0.124250
17.233333	1	-0.124750
17.250000	1	-0.124875
17.266667	1	-0.124750
17.283333	1	-0.124875
17.300000	1	-0.126000
17.316667	1	-0.126250
17.333333	1	-0.127375
17.350000	1	-0.127375
17.366667	1	-0.127625
17.383333	1	-0.128125
17.400000	1	-0.128125
17.416667	1	-0.128375
17.433333	1	-0.128000
17.450000	1	-0.128000
17.466667	1	-0.128750
17.483333	1	-0.128875
17.500000	1	-0.128875
17.516667	1	-0.128625
17.533333	1	-0.128375
17.550000	1	-0.129125
17.566667	1	-0.129625
17.583333	1	-0.129250
17.600000	1	-0.129000
17.616667	1	-0.129000
17.633333	1	-0.128500
17.650000	1	-0.128750
17.666667	1	-0.128375
17.683333	1	-0.128875
17.700000	1	-0.128625
17.716667	1	-0.128125
17.733333	1	-0.127875
17.750000	1	-0.127750
17.766667	1	-0.127625
17.783333	1	-0.127625
17.800000	1	-0.126750
17.816667	1	-0.126250
17.833333	1	-0.125750
17.850000	1	-0.125250
17.866667	1	-0.125250
17.883333	1	-0.125500
17.900000	1	-0.125000
17.916667	1	-0.124500
17.933333	1	-0.124375
17.950000	1	-0.123625
17.966667	1	-0.123375
17.983333	1	-0.122750
18.000000	1	-0.121875
18.016667	1	-0.121125
18.033333	1	-0.121625
18.050000	1	-0.120750
18.066667	1	-0.120625
18.083333	1	-0.120000
18.100000	1	-0.119750
18.116667	1	-0.118875
18.133333	1	-0.118875
18.150000	1	-0.118625
18.166667	1	-0.118500
18.183333	1	-0.118000
18.200000	1	-0.117875
18.216667	1	-0.117250
18.233333	1	-0.116750
18.250000	1	-0.117125
18.266667	1	-0.117125
18.283333	1	-0.116875
18.300000	1	-0.117250
18.316667	1	-0.117250
18.333333	1	-0.117000
18.350000	1	-0.116500
18.366667	1	-0.116625
18.383333	1	-0.116375
18.400000	1	-0.116375
18.416667	1	-0.116125
18.433333	1	-0.116375
18.450000	1	-0.117000
18.466667	1	-0.117250
18.483333	1	-0.117875
18.500000	1	-0.118625
18.516667	1	-0.118875
18.533333	1	-0.119125
18.550000	1	-0.119375
18.566667	1	-0.119500
18.583333	1	-0.120250
18.600000	1	-0.120750
18.616667	1	-0.121125
18.633333	1	-0.121500
18.650000	1	-0.122500
18.666667	1	-0.122750
18.683333	1	-0.123500
18.700000	1	-0.124000
18.716667	1	-0.124375
18.733333	1	-0.124750
18.750000	1	-0.125000
18.766667	1	-0.125500
18.783333	1	-0.125875
18.800000	1	-0.127250
18.816667	1	-0.127500
18.833333	1	-0.127875
18.850000	1	-0.128625
18.866667	1	-0.128875
18.883333	1	-0.129125
18.900000	1	-0.129750
18.916667	1	-0.129750
18.933333	1	-0.129875
18.950000	1	-0.130000
18.966667	1	-0.130375
18.983333	1	-0.130625
19.000000	1	-0.130000
19.016667	1	-0.129375
19.033333	1	-0.129250
19.050000	1	-0.129125
19.066667	1	-0.128625
19.083333	1	-0.128625
19.100000	1	-0.128625
19.116667	1	-0.128875
19.133333	1	-0.128750
19.150000	1	-0.128375
19.166667	1	-0.127250
19.183333	1	-0.126875
19.200000	1	-0.126250
19.216667	1	-0.125750
19.233333	1	-0.125125
19.250000	1	-0.124750
19.266667	1	-0.124625
19.283333	1	-0.123750
19.300000	1	-0.123500
19.316667	1	-0.122375
19.333333	1	-0.122125
19.350000	1	-0.121250
19.366667	1	-0.120375
19.383333	1	-0.118750
19.400000	1	-0.117875
19.416667	1	-0.116375
19.433333	1	-0.114750
19.450000	1	-0.113500
19.466667	1	-0.112125
19.483333	1	-0.110125
19.500000	1	-0.108750
19.516667	1	-0.106750
19.533333	1	-0.104250
19.550000	1	-0.101750
19.566667	1	-0.098375
19.583333	1	-0.094375
19.600000	1	-0.089875
19.616667	1	-0.085250
19.633333	1	-0.080125
19.650000	1	-0.073125
19.666667	1	-0.064875
19.683333	1	-0.055000
19.700000	1	-0.042125
19.716667	1	-0.028250
19.733333	1	-0.011000
19.750000	1	0.009500
19.766667	1	0.034125
19.783333	1	0.062500
19.800000	1	0.094625
19.816667	1	0.130625
19.833333	1	0.170750
19.850000	1	0.213125
19.866667	1	0.258750
19.883333	1	0.305500
19.900000	1	0.354000
19.916667	1	0.402000
19.933333	1	0.448875
19.950000	1	0.492875
19.966667	1	0.532875
19.983333	1	0.567750
20.000000	1	0.598375
20.016667	1	0.621875
20.033333	1	0.638625
20.050000	1	0.648875
20.066667	1	0.652500
20.083333	1	0.649250
20.100000	1	0.640375
20.116667	1	0.626375
20.133333	1	0.608250
20.150000	1	0.588125
20.166667	1	0.565500
20.183333	1	0.541625
20.200000	1	0.517125
20.216667	1	0.493625
20.233333	1	0.471625
20.250000	1	0.452000
20.266667	1	0.435625
20.283333	1	0.423000
20.300000	1	0.414500
20.316667	1	0.410000
20.333333	1	0.409000
20.350000	1	0.412125
20.366667	1	0.420000
20.383333	1	0.430500
20.400000	1	0.444125
20.416667	1	0.459250
20.433333	1	0.475250
20.450000	1	0.491500
20.466667	1	0.507125
20.483333	1	0.520875
20.500000	1	0.533250
20.516667	1	0.541375
20.533333	1	0.546875
20.550000	1	0.548000
20.566667	1	0.544625
20.583333	1	0.537500
20.600000	1	0.526000
20.616667	1	0.510500
20.633333	1	0.492375
20.650000	1	0.471750
20.666667	1	0.448500
20.683333	1	0.423750
20.700000	1	0.397500
20.716667	1	0.371375
20.733333	1	0.344750
20.750000	1	0.319125
20.766667	1	0.293750
20.783333	1	0.268750
20.800000	1	0.245375
20.816667	1	0.223250
20.833333	1	0.201625
20.850000	1	0.181000
20.866667	1	0.161250
20.883333	1	0.143750
20.900000	1	0.126250
20.916667	1	0.110250
20.933333	1	0.095500
20.950000	1	0.080375
20.966667	1	0.067000
20.983333	1	0.054125
21.000000	1	0.041875
21.016667	1	0.029875
21.033333	1	0.019125
21.050000	1	0.008750
21.066667	1	-0.000625
21.083333	1	-0.009500
21.100000	1	-0.017875
21.116667	1	-0.025250
21.133333	1	-0.032250
21.150000	1	-0.037625
21.166667	1	-0.043500
21.183333	1	-0.048500
21.200000	1	-0.053000
21.216667	1	-0.057250
21.233333	1	-0.061250
21.250000	1	-0.064000
21.266667	1	-0.067000
21.283333	1	-0.069625
21.300000	1	-0.071250
21.316667	1	-0.073375
21.333333	1	-0.074875
21.350000	1	-0.076000
21.366667	1	-0.077250
21.383333	1	-0.078500
21.400000	1	-0.079250
21.416667	1	-0.080375
21.433333	1	-0.081625
21.450000	1	-0.081500
21.466667	1	-0.082125
21.483333	1	-0.081875
21.500000	1	-0.082250
21.516667	1	-0.082250
21.533333	1	-0.082125
21.550000	1	-0.082125
21.566667	1	-0.081750
21.583333	1	-0.081000
21.600000	1	-0.080750
21.616667	1	-0.079875
21.633333	1	-0.078625
21.650000	1	-0.077625
21.666667	1	-0.076750
21.683333	1	-0.075375
21.700000	1	-0.073125
21.716667	1	-0.071000
21.733333	1	-0.068500
21.750000	1	-0.064875
21.766667	1	-0.061125
21.783333	1	-0.057250
21.800000	1	-0.053000
21.816667	1	-0.048625
21.833333	1	-0.043000
21.850000	1	-0.037375
21.866667	1	-0.031000
21.883333	1	-0.024625
21.900000	1	-0.017625
21.916667	1	-0.010750
21.933333	1	-0.003000
21.950000	1	0.004000
21.966667	1	0.010875
21.983333	1	0.017250
22.000000	1	0.022875
22.016667	1	0.029000
22.033333	1	0.033500
22.050000	1	0.037375
22.066667	1	0.040375
22.083333	1	0.042625
22.100000	1	0.043125
22.116667	1	0.044125
22.133333	1	0.043750
22.150000	1	0.042250
22.166667	1	0.039625
22.183333	1	0.037000
22.200000	1	0.033125
22.216667	1	0.028500
22.233333	1	0.023875
22.250000	1	0.018875
22.266667	1	0.013250
22.283333	1	0.008000
22.300000	1	0.002375
22.316667	1	-0.002750
22.333333	1	-0.007750
22.350000	1	-0.013000
22.366667	1	-0.018250
22.383333	1	-0.023625
22.400000	1	-0.028750
22.416667	1	-0.033875
22.433333	1	-0.038750
22.450000	1	-0.043000
22.466667	1	-0.046875
22.483333	1	-0.050875
22.500000	1	-0.055125
22.516667	1	-0.059250
22.533333	1	-0.062250
22.550000	1	-0.064750
22.566667	1	-0.067500
22.583333	1	-0.070250
22.600000	1	-0.072625
22.616667	1	-0.075375
22.633333	1	-0.077000
22.650000	1	-0.078625
22.666667	1	-0.080750
22.683333	1	-0.081375
22.700000	1	-0.083000
22.716667	1	-0.083750
22.733333	1	-0.084125
22.750000	1	-0.084125
22.766667	1	-0.084500
22.783333	1	-0.084500
22.800000	1	-0.084000
22.816667	1	-0.084250
22.833333	1	-0.084000
22.850000	1	-0.083125
22.866667	1	-0.082250
22.883333	1	-0.081500
22.900000	1	-0.080625
22.916667	1	-0.079250
22.933333	1	-0.079000
22.950000	1	-0.077500
22.966667	1	-0.076375
22.983333	1	-0.075500
23.000000	1	-0.074625
23.016667	1	-0.074000
23.033333	1	-0.073375
23.050000	1	-0.072750
23.066667	1	-0.072375
23.083333	1	-0.071250
23.100000	1	-0.070250
23.116667	1	-0.069375
23.133333	1	-0.068125
23.150000	1	-0.067125
23.166667	1	-0.066625
23.183333	1	-0.066250
23.200000	1	-0.066250
23.216667	1	-0.065375
23.233333	1	-0.064750
23.250000	1	-0.064875
23.266667	1	-0.064500
23.283333	1	-0.064125
23.300000	1	-0.063875
23.316667	1	-0.063375
23.333333	1	-0.062750
23.350000	1	-0.062500
23.366667	1	-0.062375
23.383333	1	-0.062250
23.400000	1	-0.061625
23.416667	1	-0.061500
23.433333	1	-0.060875
23.450000	1	-0.060625
23.466667	1	-0.059750
23.483333	1	-0.059250
23.500000	1	-0.058125
23.516667	1	-0.056875
23.533333	1	-0.055250
23.550000	1	-0.054125
23.566667	1	-0.052375
23.583333	1	-0.049250
23.600000	1	-0.045750
23.616667	1	-0.041875
23.633333	1	-0.037625
23.650000	1	-0.032500
23.666667	1	-0.027250
23.683333	1	-0.020625
23.700000	1	-0.013750
23.716667	1	-0.005625
23.733333	1	0.003625
23.750000	1	0.012375
23.766667	1	0.022000
23.783333	1	0.031500
23.800000	1	0.041875
23.816667	1	0.052125
23.833333	1	0.062375
23.850000	1	0.072625
23.866667	1	0.082250
23.883333	1	0.091125
23.900000	1	0.099250
23.916667	1	0.105625
23.933333	1	0.111125
23.950000	1	0.115125
23.966667	1	0.118375
23.983333	1	0.120000
24.000000	1	0.120750
24.016667	1	0.119875
24.033333	1	0.118125
24.050000	1	0.115375
24.066667	1	0.111875
24.083333	1	0.107375
24.100000	1	0.102000
24.116667	1	0.096500
24.133333	1	0.090625
24.150000	1	0.084250
24.166667	1	0.077375
24.183333	1	0.070875
24.200000	1	0.063500
24.216667	1	0.057000
24.233333	1	0.051375
24.250000	1	0.045625
24.266667	1	0.039500
24.283333	1	0.034000
24.300000	1	0.028625
24.316667	1	0.023375
24.333333	1	0.018500
24.350000	1	0.013375
24.366667	1	0.008250
24.383333	1	0.004000
24.400000	1	-0.000250
24.416667	1	-0.004500
24.433333	1	-0.008000
24.450000	1	-0.011875
24.466667	1	-0.015125
24.483333	1	-0.018125
24.500000	1	-0.021500
24.516667	1	-0.024625
24.533333	1	-0.027625
24.550000	1	-0.030750
24.566667	1	-0.033625
24.583333	1	-0.036375
24.600000	1	-0.039000
24.616667	1	-0.041000
24.633333	1	-0.042875
24.650000	1	-0.044750
24.666667	1	-0.046000
24.683333	1	-0.048000
24.700000	1	-0.049500
24.716667	1	-0.051000
24.733333	1	-0.051625
24.750000	1	-0.053500
24.766667	1	-0.054875
24.783333	1	-0.055500
24.800000	1	-0.057250
24.816667	1	-0.058625
24.833333	1	-0.059625
24.850000	1	-0.060500
24.866667	1	-0.061625
24.883333	1	-0.062125
24.900000	1	-0.063375
24.916667	1	-0.064625
24.933333	1	-0.065375
24.950000	1	-0.066125
24.966667	1	-0.067250
24.983333	1	-0.068125
25.000000	1	-0.069000
25.016667	1	-0.070625
25.033333	1	-0.071875
25.050000	1	-0.072875
25.066667	1	-0.073125
25.083333	1	-0.073750
25.100000	1	-0.074875
25.116667	1	-0.075750
25.133333	1	-0.077125
25.150000	1	-0.078875
25.166667	1	-0.080250
25.183333	1	-0.081375
25.200000	1	-0.082375
25.216667	1	-0.083500
25.233333	1	-0.084625
25.250000	1	-0.085000
25.266667	1	-0.085750
25.283333	1	-0.086375
25.300000	1	-0.087875
25.316667	1	-0.088500
25.333333	1	-0.089500
25.350000	1	-0.091000
25.366667	1	-0.091875
25.383333	1	-0.093000
25.400000	1	-0.093625
25.416667	1	-0.095000
25.433333	1	-0.096125
25.450000	1	-0.096375
25.466667	1	-0.096625
25.483333	1	-0.096250
25.500000	1	-0.096375
25.516667	1	-0.097125
25.533333	1	-0.098000
25.550000	1	-0.098500
25.566667	1	-0.099125
25.583333	1	-0.099750
25.600000	1	-0.100375
25.616667	1	-0.101125
25.633333	1	-0.102125
25.650000	1	-0.102500
25.666667	1	-0.102625
25.683333	1	-0.103500
25.700000	1	-0.104250
25.716667	1	-0.104875
25.733333	1	-0.106125
25.750000	1	-0.106875
25.766667	1	-0.108500
25.783333	1	-0.109750
25.800000	1	-0.111750
25.816667	1	-0.113750
25.833333	1	-0.115375
25.850000	1	-0.117750
25.866667	1	-0.120375
25.883333	1	-0.123125
25.900000	1	-0.126625
25.916667	1	-0.129625
25.933333	1	-0.133000
25.950000	1	-0.137250
25.966667	1	-0.141875
25.983333	1	-0.147125
26.000000	1	-0.152875
26.016667	1	-0.158500
26.033333	1	-0.164250
26.050000	1	-0.169875
26.066667	1	-0.176000
26.083333	1	-0.182500
26.100000	1	-0.188625
26.116667	1	-0.195250
26.133333	1	-0.201750
26.150000	1	-0.208125
26.166667	1	-0.213500
26.183333	1	-0.218375
26.200000	1	-0.223375
26.216667	1	-0.227625
26.233333	1	-0.232625
26.250000	1	-0.235625
26.266667	1	-0.238875
26.283333	1	-0.240875
26.300000	1	-0.242500
26.316667	1	-0.243250
26.333333	1	-0.244000
26.350000	1	-0.243500
26.366667	1	-0.242875
26.383333	1	-0.241875
26.400000	1	-0.240500
26.416667	1	-0.237750
26.433333	1	-0.235250
26.450000	1	-0.232375
26.466667	1	-0.229125
26.483333	1	-0.225125
26.500000	1	-0.220750
26.516667	1	-0.216875
26.533333	1	-0.212375
26.550000	1	-0.208125
26.566667	1	-0.203000
26.583333	1	-0.198000
26.600000	1	-0.192750
26.616667	1	-0.188250
26.633333	1	-0.183250
26.650000	1	-0.178750
26.666667	1	-0.173625
26.683333	1	-0.169000
26.700000	1	-0.163875
26.716667	1	-0.159500
26.733333	1	-0.155375
26.750000	1	-0.150625
26.766667	1	-0.146625
26.783333	1	-0.142500
26.800000	1	-0.138375
26.816667	1	-0.134125
26.833333	1	-0.130125
26.850000	1	-0.125625
26.866667	1	-0.122125
26.883333	1	-0.119000
26.900000	1	-0.115375
26.916667	1	-0.112000
26.933333	1	-0.108875
26.950000	1	-0.106125
26.966667	1	-0.103125
26.983333	1	-0.100000
27.000000	1	-0.097875
27.016667	1	-0.096125
27.033333	1	-0.094125
27.050000	1	-0.092250
27.066667	1	-0.090875
27.083333	1	-0.089750
27.100000	1	-0.089625
27.116667	1	-0.089000
27.133333	1	-0.087875
27.150000	1	-0.088125
27.166667	1	-0.087750
27.183333	1	-0.088125
27.200000	1	-0.088375
27.216667	1	-0.089000
27.233333	1	-0.089125
27.250000	1	-0.090125
27.266667	1	-0.091250
27.283333	1	-0.092875
27.300000	1	-0.095000
27.316667	1	-0.097000
27.333333	1	-0.099000
27.350000	1	-0.101750
27.366667	1	-0.104375
27.383333	1	-0.108500
27.400000	1	-0.112125
27.416667	1	-0.116000
27.433333	1	-0.119500
27.450000	1	-0.123625
27.466667	1	-0.127875
27.483333	1	-0.132875
27.500000	1	-0.138875
27.516667	1	-0.144750
27.533333	1	-0.151000
27.550000	1	-0.157375
27.566667	1	-0.164625
27.583333	1	-0.171250
27.600000	1	-0.177625
27.616667	1	-0.183750
27.633333	1	-0.190125
27.650000	1	-0.195875
27.666667	1	-0.201500
27.683333	1	-0.205750
27.700000	1	-0.210250
27.716667	1	-0.214250
27.733333	1	-0.217000
27.750000	1	-0.218375
27.766667	1	-0.219125
27.783333	1	-0.219000
27.800000	1	-0.217375
27.816667	1	-0.214375
27.833333	1	-0.210500
27.850000	1	-0.205625
27.866667	1	-0.199625
27.883333	1	-0.191875
27.900000	1	-0.183875
27.916667	1	-0.175125
27.933333	1	-0.166000
27.950000	1	-0.156875
27.966667	1	-0.147750
27.983333	1	-0.137875
28.000000	1	-0.129000
28.016667	1	-0.120000
28.033333	1	-0.110500
28.050000	1	-0.101875
28.066667	1	-0.094125
28.083333	1	-0.087125
28.100000	1	-0.080875
28.116667	1	-0.075250
28.133333	1	-0.070625
28.150000	1	-0.066500
28.166667	1	-0.062375
28.183333	1	-0.059125
28.200000	1	-0.056875
28.216667	1	-0.054375
28.233333	1	-0.052625
28.250000	1	-0.051375
28.266667	1	-0.049625
28.283333	1	-0.048500
28.300000	1	-0.047625
28.316667	1	-0.046875
28.333333	1	-0.046375
28.350000	1	-0.046000
28.366667	1	-0.044875
28.383333	1	-0.043625
28.400000	1	-0.042250
28.416667	1	-0.041500
28.433333	1	-0.040125
28.450000	1	-0.039125
28.466667	1	-0.037750
28.483333	1	-0.037500
28.500000	1	-0.036500
28.516667	1	-0.035625
28.533333	1	-0.034875
28.550000	1	-0.033500
28.566667	1	-0.032250
28.583333	1	-0.031750
28.600000	1	-0.031250
28.616667	1	-0.030125
28.633333	1	-0.029875
28.650000	1	-0.029250
28.666667	1	-0.028875
28.683333	1	-0.028500
28.700000	1	-0.028125
28.716667	1	-0.028375
28.733333	1	-0.028375
28.750000	1	-0.029000
28.766667	1	-0.029500
28.783333	1	-0.030500
28.800000	1	-0.031625
28.816667	1	-0.032250
28.833333	1	-0.033125
28.850000	1	-0.033875
28.866667	1	-0.034375
28.883333	1	-0.034125
28.900000	1	-0.034625
28.916667	1	-0.035125
28.933333	1	-0.035875
28.950000	1	-0.036125
28.966667	1	-0.036500
28.983333	1	-0.036125
29.000000	1	-0.036875
29.016667	1	-0.037000
29.033333	1	-0.037375
29.050000	1	-0.036750
29.066667	1	-0.036750
29.083333	1	-0.036250
29.100000	1	-0.035500
29.116667	1	-0.035125
29.133333	1	-0.035125
29.150000	1	-0.034750
29.166667	1	-0.033625
29.183333	1	-0.032375
29.200000	1	-0.031375
29.216667	1	-0.030500
29.233333	1	-0.029875
29.250000	1	-0.029000
29.266667	1	-0.028375
29.283333	1	-0.027750
29.300000	1	-0.027000
29.316667	1	-0.026250
29.333333	1	-0.025375
29.350000	1	-0.024625
29.366667	1	-0.023875
29.383333	1	-0.023000
29.400000	1	-0.022125
29.416667	1	-0.021000
29.433333	1	-0.020000
29.450000	1	-0.019375
29.466667	1	-0.019375
29.483333	1	-0.019250
29.500000	1	-0.018625
29.516667	1	-0.018125
29.533333	1	-0.017500
29.550000	1	-0.017125
29.566667	1	-0.016750
29.583333	1	-0.016250
29.600000	1	-0.015875
29.616667	1	-0.016125
29.633333	1	-0.015375
29.650000	1	-0.015500
29.666667	1	-0.015500
29.683333	1	-0.015875
29.700000	1	-0.015875
29.716667	1	-0.015750
29.733333	1	-0.015750
29.750000	1	-0.016375
29.766667	1	-0.017000
29.783333	1	-0.017750
29.800000	1	-0.018000
29.816667	1	-0.018625
29.833333	1	-0.020125
29.850000	1	-0.020500
29.866667	1	-0.021125
29.883333	1	-0.022625
29.900000	1	-0.023375
29.916667	1	-0.024250
29.933333	1	-0.025500
29.950000	1	-0.026500
29.966667	1	-0.028000
29.983333	1	-0.029000
30.000000	1	-0.030125
30.016667	1	-0.031250
30.033333	1	-0.031750
30.050000	1	-0.033000
30.066667	1	-0.034500
30.083333	1	-0.035875
30.100000	1	-0.036625
30.116667	1	-0.038125
30.133333	1	-0.039250
30.150000	1	-0.041250
30.166667	1	-0.042375
30.183333	1	-0.043125
30.200000	1	-0.044750
30.216667	1	-0.045375
30.233333	1	-0.046250
30.250000	1	-0.047625
30.266667	1	-0.048625
30.283333	1	-0.050000
30.300000	1	-0.051500
30.316667	1	-0.052750
30.333333	1	-0.053375
30.350000	1	-0.054125
30.366667	1	-0.054875
30.383333	1	-0.055375
30.400000	1	-0.056000
30.416667	1	-0.056000
30.433333	1	-0.056125
30.450000	1	-0.056750
30.466667	1	-0.057375
30.483333	1	-0.057375
30.500000	1	-0.058375
30.516667	1	-0.058000
30.533333	1	-0.058000
30.550000	1	-0.057375
30.566667	1	-0.056500
30.583333	1	-0.055875
30.600000	1	-0.055750
30.616667	1	-0.055250
30.633333	1	-0.054625
30.650000	1	-0.054500
30.666667	1	-0.053500
30.683333	1	-0.053625
30.700000	1	-0.053125
30.716667	1	-0.053125
30.733333	1	-0.053500
30.750000	1	-0.054000
30.766667	1	-0.054250
30.783333	1	-0.054625
30.800000	1	-0.055500
30.816667	1	-0.056625
30.833333	1	-0.058250
30.850000	1	-0.059625
30.866667	1	-0.061250
30.883333	1	-0.063000
30.900000	1	-0.065750
30.916667	1	-0.068000
30.933333	1	-0.069750
30.950000	1	-0.072125
30.966667	1	-0.074750
30.983333	1	-0.077125
31.000000	1	-0.079625
31.016667	1	-0.082250
31.033333	1	-0.084500
31.050000	1	-0.086875
31.066667	1	-0.089625
31.083333	1	-0.092000
31.100000	1	-0.094875
31.116667	1	-0.097750
31.133333	1	-0.100625
31.150000	1	-0.103375
31.166667	1	-0.105875
31.183333	1	-0.107875
31.200000	1	-0.109750
31.216667	1	-0.111500
31.233333	1	-0.113375
31.250000	1	-0.115875
31.266667	1	-0.118125
31.283333	1	-0.120000
31.300000	1	-0.121875
31.316667	1	-0.123500
31.333333	1	-0.124750
31.350000	1	-0.126250
31.366667	1	-0.127125
31.383333	1	-0.128625
31.400000	1	-0.129875
31.416667	1	-0.131250
31.433333	1	-0.132125
31.450000	1	-0.133875
31.466667	1	-0.135250
31.483333	1	-0.136000
31.500000	1	-0.136750
31.516667	1	-0.138000
31.533333	1	-0.139125
31.550000	1	-0.140375
31.566667	1	-0.141250
31.583333	1	-0.141625
31.600000	1	-0.142375
31.616667	1	-0.142750
31.633333	1	-0.143500
31.650000	1	-0.144000
31.666667	1	-0.144750
31.683333	1	-0.144875
31.700000	1	-0.144375
31.716667	1	-0.144625
31.733333	1	-0.145000
31.750000	1	-0.145250
31.766667	1	-0.145250
31.783333	1	-0.145125
31.800000	1	-0.144625
31.816667	1	-0.144500
31.833333	1	-0.144625
31.850000	1	-0.144375
31.866667	1	-0.144500
31.883333	1	-0.144750
31.900000	1	-0.144500
31.916667	1	-0.143625
31.933333	1	-0.143250
31.950000	1	-0.143375
31.966667	1	-0.143375
31.983333	1	-0.143375
32.000000	1	-0.143000
32.016667	1	-0.142875
32.033333	1	-0.142875
32.050000	1	-0.142750
32.066667	1	-0.142375
32.083333	1	-0.142000
32.100000	1	-0.141625
32.116667	1	-0.141875
32.133333	1	-0.141375
32.150000	1	-0.141375
32.166667	1	-0.141125
32.183333	1	-0.141250
32.200000	1	-0.141250
32.216667	1	-0.141125
32.233333	1	-0.141250
32.250000	1	-0.141750
32.266667	1	-0.142000
32.283333	1	-0.142250
32.300000	1	-0.143000
32.316667	1	-0.143125
32.333333	1	-0.143500
32.350000	1	-0.143625
32.366667	1	-0.143500
32.383333	1	-0.143875
32.400000	1	-0.144250
32.416667	1	-0.144250
32.433333	1	-0.144625
32.450000	1	-0.145125
32.466667	1	-0.144875
32.483333	1	-0.144875
32.500000	1	-0.145125
32.516667	1	-0.145625
32.533333	1	-0.146000
32.550000	1	-0.145750
32.566667	1	-0.145500
32.583333	1	-0.146125
32.600000	1	-0.146125
32.616667	1	-0.146625
32.633333	1	-0.146750
32.650000	1	-0.147125
32.666667	1	-0.147125
32.683333	1	-0.147250
32.700000	1	-0.146875
32.716667	1	-0.146500
32.733333	1	-0.146250
32.750000	1	-0.145750
32.766667	1	-0.145500
32.783333	1	-0.145500
32.800000	1	-0.146000
32.816667	1	-0.145625
32.833333	1	-0.144875
32.850000	1	-0.144625
32.866667	1	-0.144125
32.883333	1	-0.144375
32.900000	1	-0.143750
32.916667	1	-0.143625
32.933333	1	-0.143625
32.950000	1	-0.143375
32.966667	1	-0.142875
32.983333	1	-0.142750
33.000000	1	-0.142125
33.016667	1	-0.141375
33.033333	1	-0.141125
33.050000	1	-0.140625
33.066667	1	-0.140250
33.083333	1	-0.139875
33.100000	1	-0.140000
33.116667	1	-0.139250
33.133333	1	-0.138750
33.150000	1	-0.138375
33.166667	1	-0.137625
33.183333	1	-0.137500
33.200000	1	-0.137250
33.216667	1	-0.137250
33.233333	1	-0.137000
33.250000	1	-0.136875
33.266667	1	-0.136875
33.283333	1	-0.136250
33.300000	1	-0.135500
33.316667	1	-0.135125
33.333333	1	-0.135500
33.350000	1	-0.134875
33.366667	1	-0.134500
33.383333	1	-0.134250
33.400000	1	-0.133750
33.416667	1	-0.133625
33.433333	1	-0.133875
33.450000	1	-0.133750
33.466667	1	-0.133625
33.483333	1	-0.133375
33.500000	1	-0.133500
33.516667	1	-0.133750
33.533333	1	-0.134000
33.550000	1	-0.134000
33.566667	1	-0.134375
33.583333	1	-0.134000
33.600000	1	-0.134000
33.616667	1	-0.133875
33.633333	1	-0.133875
33.650000	1	-0.133500
33.666667	1	-0.133000
33.683333	1	-0.133625
33.700000	1	-0.133250
33.716667	1	-0.132625
33.733333	1	-0.131375
33.750000	1	-0.130625
33.766667	1	-0.128750
33.783333	1	-0.127000
33.800000	1	-0.126250
33.816667	1	-0.124875
33.833333	1	-0.121875
33.850000	1	-0.118375
33.866667	1	-0.114500
33.883333	1	-0.110500
33.900000	1	-0.105875
33.916667	1	-0.100375
33.933333	1	-0.095250
33.950000	1	-0.089875
33.966667	1	-0.083125
33.983333	1	-0.075875
34.000000	1	-0.067875
34.016667	1	-0.060250
34.033333	1	-0.051625
34.050000	1	-0.042500
34.066667	1	-0.033000
34.083333	1	-0.023250
34.100000	1	-0.012375
34.116667	1	-0.001500
34.133333	1	0.008875
34.150000	1	0.020750
34.166667	1	0.031500
34.183333	1	0.042625
34.200000	1	0.053875
34.216667	1	0.064875
34.233333	1	0.075625
34.250000	1	0.085625
34.266667	1	0.094750
34.283333	1	0.103125
34.300000	1	0.111250
34.316667	1	0.118750
34.333333	1	0.126375
34.350000	1	0.132875
34.366667	1	0.138500
34.383333	1	0.142875
34.400000	1	0.146625
34.416667	1	0.149250
34.433333	1	0.151000
34.450000	1	0.152750
34.466667	1	0.153250
34.483333	1	0.152750
34.500000	1	0.151750
34.516667	1	0.150250
34.533333	1	0.148500
34.550000	1	0.145250
34.566667	1	0.142000
34.583333	1	0.138500
34.600000	1	0.134375
34.616667	1	0.130500
34.633333	1	0.126375
34.650000	1	0.121500
34.666667	1	0.116500
34.683333	1	0.111750
34.700000	1	0.106500
34.716667	1	0.101875
34.733333	1	0.097125
34.750000	1	0.092125
34.766667	1	0.087625
34.783333	1	0.083250
34.800000	1	0.078125
34.816667	1	0.073500
34.833333	1	0.068750
34.850000	1	0.064375
34.866667	1	0.060000
34.883333	1	0.056375
34.900000	1	0.051750
34.916667	1	0.048000
34.933333	1	0.044625
34.950000	1	0.040750
34.966667	1	0.037250
34.983333	1	0.033500
35.000000	1	0.029875
35.016667	1	0.025875
35.033333	1	0.022250
35.050000	1	0.017875
35.066667	1	0.013750
35.083333	1	0.010375
35.100000	1	0.006625
35.116667	1	0.003125
35.133333	1	0.000375
35.150000	1	-0.003375
35.166667	1	-0.006750
35.183333	1	-0.010125
35.200000	1	-0.014250
35.216667	1	-0.017625
35.233333	1	-0.021375
35.250000	1	-0.024875
35.266667	1	-0.027750
35.283333	1	-0.031375
35.300000	1	-0.034375
35.316667	1	-0.037875
35.333333	1	-0.041500
35.350000	1	-0.043875
35.366667	1	-0.047125
35.383333	1	-0.050125
35.400000	1	-0.053125
35.416667	1	-0.056125
35.433333	1	-0.059250
35.450000	1	-0.062250
35.466667	1	-0.064625
35.483333	1	-0.067000
35.500000	1	-0.068875
35.516667	1	-0.071125
35.533333	1	-0.073500
35.550000	1	-0.075000
35.566667	1	-0.076375
35.583333	1	-0.078500
35.600000	1	-0.080375
35.616667	1	-0.082500
35.633333	1	-0.084750
35.650000	1	-0.086250
35.666667	1	-0.087625
35.683333	1	-0.088875
35.700000	1	-0.090500
35.716667	1	-0.091125
35.733333	1	-0.092500
35.750000	1	-0.094000
35.766667	1	-0.094750
35.783333	1	-0.095625
35.800000	1	-0.097000
35.816667	1	-0.098000
35.833333	1	-0.099250
35.850000	1	-0.100375
35.866667	1	-0.101125
35.883333	1	-0.102125
35.900000	1	-0.102750
35.916667	1	-0.103625
35.933333	1	-0.103875
35.950000	1	-0.104375
35.966667	1	-0.105500
35.983333	1	-0.106625
36.000000	1	-0.107125
36.016667	1	-0.107625
36.033333	1	-0.108750
36.050000	1	-0.109500
36.066667	1	-0.110500
36.083333	1	-0.110750
36.100000	1	-0.111375
36.116667	1	-0.111500
36.133333	1	-0.111375
36.150000	1	-0.112125
36.166667	1	-0.112875
36.183333	1	-0.113375
36.200000	1	-0.114000
36.216667	1	-0.114250
36.233333	1	-0.114750
36.250000	1	-0.115625
36.266667	1	-0.116875
36.283333	1	-0.117500
36.300000	1	-0.118250
36.316667	1	-0.118250
36.333333	1	-0.118625
36.350000	1	-0.119500
36.366667	1	-0.119875
36.383333	1	-0.120375
36.400000	1	-0.121000
36.416667	1	-0.121750
36.433333	1	-0.122250
36.450000	1	-0.122750
36.466667	1	-0.122875
36.483333	1	-0.123000
36.500000	1	-0.123375
36.516667	1	-0.123750
36.533333	1	-0.124625
36.550000	1	-0.125125
36.566667	1	-0.125500
36.583333	1	-0.126500
36.600000	1	-0.126875
36.616667	1	-0.127375
36.633333	1	-0.128250
36.650000	1	-0.128875
36.666667	1	-0.128875
36.683333	1	-0.129500
36.700000	1	-0.129750
36.716667	1	-0.131125
36.733333	1	-0.131125
36.750000	1	-0.132250
36.766667	1	-0.132750
36.783333	1	-0.132500
36.800000	1	-0.132875
36.816667	1	-0.133375
36.833333	1	-0.133750
36.850000	1	-0.134625
36.866667	1	-0.135500
36.883333	1	-0.135500
36.900000	1	-0.135625
36.916667	1	-0.135750
36.933333	1	-0.135875
36.950000	1	-0.136250
36.966667	1	-0.136625
36.983333	1	-0.136875
37.000000	1	-0.137250
37.016667	1	-0.137125
37.033333	1	-0.137500
37.050000	1	-0.137750
37.066667	1	-0.138375
37.083333	1	-0.138875
37.100000	1	-0.138625
37.116667	1	-0.138875
37.133333	1	-0.138750
37.150000	1	-0.138500
37.166667	1	-0.138750
37.183333	1	-0.139375
37.200000	1	-0.139125
37.216667	1	-0.138875
37.233333	1	-0.139250
37.250000	1	-0.139500
37.266667	1	-0.139500
37.283333	1	-0.139500
37.300000	1	-0.139250
37.316667	1	-0.138625
37.333333	1	-0.139125
37.350000	1	-0.139000
37.366667	1	-0.139125
37.383333	1	-0.138875
37.400000	1	-0.138875
37.416667	1	-0.138500
37.433333	1	-0.138625
37.450000	1	-0.138000
37.466667	1	-0.138750
37.483333	1	-0.138125
37.500000	1	-0.138000
37.516667	1	-0.137500
37.533333	1	-0.137625
37.550000	1	-0.138500
37.566667	1	-0.139125
37.583333	1	-0.138750
37.600000	1	-0.139000
37.616667	1	-0.139750
37.633333	1	-0.139500
37.650000	1	-0.139750
37.666667	1	-0.139875
37.683333	1	-0.140375
37.700000	1	-0.140375
37.716667	1	-0.140375
37.733333	1	-0.140625
37.750000	1	-0.141000
37.766667	1	-0.141375
37.783333	1	-0.141500
37.800000	1	-0.141625
37.816667	1	-0.142000
37.833333	1	-0.142625
37.850000	1	-0.142500
37.866667	1	-0.142500
37.883333	1	-0.142875
37.900000	1	-0.143625
37.916667	1	-0.144000
37.933333	1	-0.143875
37.950000	1	-0.145000
37.966667	1	-0.145500
37.983333	1	-0.146500
38.000000	1	-0.147000
38.016667	1	-0.148125
38.033333	1	-0.148500
38.050000	1	-0.149000
38.066667	1	-0.149625
38.083333	1	-0.150625
38.100000	1	-0.151250
38.116667	1	-0.152125
38.133333	1	-0.152750
38.150000	1	-0.154000
38.166667	1	-0.155000
38.183333	1	-0.155375
38.200000	1	-0.156000
38.216667	1	-0.156875
38.233333	1	-0.157250
38.250000	1	-0.157875
38.266667	1	-0.159500
38.283333	1	-0.159625
38.300000	1	-0.160500
38.316667	1	-0.161000
38.333333	1	-0.162250
38.350000	1	-0.162625
38.366667	1	-0.164000
38.383333	1	-0.165000
38.400000	1	-0.165750
38.416667	1	-0.166625
38.433333	1	-0.167000
38.450000	1	-0.167500
38.466667	1	-0.168375
38.483333	1	-0.168875
38.500000	1	-0.169125
38.516667	1	-0.169750
38.533333	1	-0.170125
38.550000	1	-0.170750
38.566667	1	-0.171125
38.583333	1	-0.171500
38.600000	1	-0.171500
38.616667	1	-0.172750
38.633333	1	-0.173000
38.650000	1	-0.173500
38.666667	1	-0.173375
38.683333	1	-0.173000
38.700000	1	-0.173125
38.716667	1	-0.173000
38.733333	1	-0.172500
38.750000	1	-0.172625
38.766667	1	-0.172375
38.783333	1	-0.172125
38.800000	1	-0.172000
38.816667	1	-0.171125
38.833333	1	-0.171250
38.850000	1	-0.170625
38.866667	1	-0.170750
38.883333	1	-0.169625
38.900000	1	-0.168500
38.916667	1	-0.167500
38.933333	1	-0.166625
38.950000	1	-0.166000
38.966667	1	-0.165125
38.983333	1	-0.163625
39.000000	1	-0.163250
39.016667	1	-0.162250
39.033333	1	-0.161875
39.050000	1	-0.160375
39.066667	1	-0.158875
39.083333	1	-0.157500
39.100000	1	-0.157000
39.116667	1	-0.156375
39.133333	1	-0.155000
39.150000	1	-0.153375
39.166667	1	-0.152750
39.183333	1	-0.152250
39.200000	1	-0.151625
39.216667	1	-0.150250
39.233333	1	-0.149250
39.250000	1	-0.148250
39.266667	1	-0.147125
39.283333	1	-0.146375
39.300000	1	-0.144625
39.316667	1	-0.144000
39.333333	1	-0.143000
39.350000	1	-0.141875
39.366667	1	-0.140875
39.383333	1	-0.140375
39.400000	1	-0.139875
39.416667	1	-0.139250
39.433333	1	-0.138250
39.450000	1	-0.138125
39.466667	1	-0.137625
39.483333	1	-0.136250
39.500000	1	-0.135125
39.516667	1	-0.134625
39.533333	1	-0.134000
39.550000	1	-0.133125
39.566667	1	-0.132375
39.583333	1	-0.132000
39.600000	1	-0.131125
39.616667	1	-0.130500
39.633333	1	-0.129875
39.650000	1	-0.129000
39.666667	1	-0.128375
39.683333	1	-0.127625
39.700000	1	-0.127125
39.716667	1	-0.126625
39.733333	1	-0.126250
39.750000	1	-0.126125
39.766667	1	-0.126375
39.783333	1	-0.126500
39.800000	1	-0.125750
39.816667	1	-0.125375
39.833333	1	-0.125750
39.850000	1	-0.125125
39.866667	1	-0.123750
39.883333	1	-0.123000
39.900000	1	-0.123250
39.916667	1	-0.122625
39.933333	1	-0.122625
39.950000	1	-0.123750
39.966667	1	-0.124000
39.983333	1	-0.124500
40.000000	1	-0.124625
