File Path	chrom://marshall/Chromeleon7/HPLC_Ultimate_3000/Users/markusar/20230531_CMO_stabTest _FP08_FP09.seq/523.smp/RI_1.channel/RI_1.chm
Channel	RI_1

Injection Information:
Data Vault	Chromeleon7
Injection	STD_02.1_Glu_Malt_FP_09
Injection Number	92
Position	BG2
Comment	
Processing Method	
Instrument Method	run_25B_method
Type	Unknown
Status	Finished
Injection Date	04.06.2023
Injection Time	04:48:56
Injection Volume (µl)	20.000
Dilution Factor	1.0000
Weight	1.0000

Chromatogram Data Information:
Time Min. (min)	0.000000
Time Max. (min)	40.000000
Data Points	2401
Detector	RI
Generating Data System	Chromeleon 7.2.5.9507
Exporting Data System	Chromeleon 7.2.5.0
Operator	Instrument Controller
Signal Quantity	Refractive 
Signal Unit	µRIU
Signal Min.	-7.175875
Signal Max.	0.848000
Channel	RI_1
Driver Name	RID520Driver.dll
Channel Type	Evaluation
Min. Step (s)	1
Max. Step (s)	1
Average Step (s)	1

Signal Parameter Information:
Signal Info	

Chromatogram Data:
Time (min)	Step (s)	Value (µRIU)
0.000000	n.a.	-0.001375
0.016667	1	-0.001125
0.033333	1	-0.000625
0.050000	1	-0.000500
0.066667	1	-0.000375
0.083333	1	0.000250
0.100000	1	0.000375
0.116667	1	0.000875
0.133333	1	0.001875
0.150000	1	0.001625
0.166667	1	0.001625
0.183333	1	0.002500
0.200000	1	0.002750
0.216667	1	0.002750
0.233333	1	0.003500
0.250000	1	0.003500
0.266667	1	0.003750
0.283333	1	0.004125
0.300000	1	0.004250
0.316667	1	0.004625
0.333333	1	0.004125
0.350000	1	0.003750
0.366667	1	0.004250
0.383333	1	0.005250
0.400000	1	0.006000
0.416667	1	0.006625
0.433333	1	0.005750
0.450000	1	0.005500
0.466667	1	0.005750
0.483333	1	0.005625
0.500000	1	0.005375
0.516667	1	0.005625
0.533333	1	0.004750
0.550000	1	0.004500
0.566667	1	0.004125
0.583333	1	0.003625
0.600000	1	0.003750
0.616667	1	0.003375
0.633333	1	0.003125
0.650000	1	0.002875
0.666667	1	0.002875
0.683333	1	0.002625
0.700000	1	0.002125
0.716667	1	0.002250
0.733333	1	0.002000
0.750000	1	0.001625
0.766667	1	0.001375
0.783333	1	0.001500
0.800000	1	0.001250
0.816667	1	0.000625
0.833333	1	0.000500
0.850000	1	0.001000
0.866667	1	0.000750
0.883333	1	0.000875
0.900000	1	0.000875
0.916667	1	0.000375
0.933333	1	0.000375
0.950000	1	0.000500
0.966667	1	0.000750
0.983333	1	0.000500
1.000000	1	0.000500
1.016667	1	0.001125
1.033333	1	0.000875
1.050000	1	0.000875
1.066667	1	0.000625
1.083333	1	0.000375
1.100000	1	0.000625
1.116667	1	0.000625
1.133333	1	0.000500
1.150000	1	0.000625
1.166667	1	0.000250
1.183333	1	0.000250
1.200000	1	-0.000375
1.216667	1	-0.000750
1.233333	1	-0.000250
1.250000	1	-0.000375
1.266667	1	-0.000375
1.283333	1	-0.000500
1.300000	1	-0.001250
1.316667	1	-0.001875
1.333333	1	-0.002500
1.350000	1	-0.003250
1.366667	1	-0.003375
1.383333	1	-0.003750
1.400000	1	-0.003875
1.416667	1	-0.004250
1.433333	1	-0.004375
1.450000	1	-0.004875
1.466667	1	-0.005500
1.483333	1	-0.006375
1.500000	1	-0.006875
1.516667	1	-0.007875
1.533333	1	-0.008875
1.550000	1	-0.009625
1.566667	1	-0.010500
1.583333	1	-0.011375
1.600000	1	-0.012125
1.616667	1	-0.013125
1.633333	1	-0.013875
1.650000	1	-0.014250
1.666667	1	-0.014875
1.683333	1	-0.015625
1.700000	1	-0.015875
1.716667	1	-0.016750
1.733333	1	-0.017000
1.750000	1	-0.017625
1.766667	1	-0.018750
1.783333	1	-0.019875
1.800000	1	-0.020500
1.816667	1	-0.021250
1.833333	1	-0.021375
1.850000	1	-0.021625
1.866667	1	-0.021625
1.883333	1	-0.022625
1.900000	1	-0.023125
1.916667	1	-0.023250
1.933333	1	-0.023000
1.950000	1	-0.024000
1.966667	1	-0.024625
1.983333	1	-0.025500
2.000000	1	-0.025625
2.016667	1	-0.025875
2.033333	1	-0.026625
2.050000	1	-0.027125
2.066667	1	-0.027125
2.083333	1	-0.027125
2.100000	1	-0.027250
2.116667	1	-0.027625
2.133333	1	-0.027500
2.150000	1	-0.028125
2.166667	1	-0.028375
2.183333	1	-0.029250
2.200000	1	-0.029750
2.216667	1	-0.030125
2.233333	1	-0.030125
2.250000	1	-0.030125
2.266667	1	-0.030625
2.283333	1	-0.030875
2.300000	1	-0.031875
2.316667	1	-0.032125
2.333333	1	-0.031875
2.350000	1	-0.032500
2.366667	1	-0.033625
2.383333	1	-0.034000
2.400000	1	-0.034625
2.416667	1	-0.034875
2.433333	1	-0.035125
2.450000	1	-0.035750
2.466667	1	-0.036125
2.483333	1	-0.037000
2.500000	1	-0.037750
2.516667	1	-0.039000
2.533333	1	-0.039625
2.550000	1	-0.039750
2.566667	1	-0.040250
2.583333	1	-0.041125
2.600000	1	-0.041250
2.616667	1	-0.041750
2.633333	1	-0.042000
2.650000	1	-0.043250
2.666667	1	-0.043750
2.683333	1	-0.044625
2.700000	1	-0.044875
2.716667	1	-0.045375
2.733333	1	-0.046250
2.750000	1	-0.047375
2.766667	1	-0.047625
2.783333	1	-0.048250
2.800000	1	-0.048375
2.816667	1	-0.049625
2.833333	1	-0.049875
2.850000	1	-0.050125
2.866667	1	-0.050375
2.883333	1	-0.050875
2.900000	1	-0.051000
2.916667	1	-0.050750
2.933333	1	-0.051250
2.950000	1	-0.051125
2.966667	1	-0.050625
2.983333	1	-0.050750
3.000000	1	-0.051375
3.016667	1	-0.051375
3.033333	1	-0.051250
3.050000	1	-0.051000
3.066667	1	-0.050500
3.083333	1	-0.050375
3.100000	1	-0.049750
3.116667	1	-0.049750
3.133333	1	-0.049500
3.150000	1	-0.049125
3.166667	1	-0.048125
3.183333	1	-0.047625
3.200000	1	-0.047125
3.216667	1	-0.046500
3.233333	1	-0.046250
3.250000	1	-0.045125
3.266667	1	-0.044250
3.283333	1	-0.043500
3.300000	1	-0.043125
3.316667	1	-0.043000
3.333333	1	-0.042000
3.350000	1	-0.041750
3.366667	1	-0.040625
3.383333	1	-0.039625
3.400000	1	-0.039500
3.416667	1	-0.038625
3.433333	1	-0.037625
3.450000	1	-0.037000
3.466667	1	-0.036000
3.483333	1	-0.035500
3.500000	1	-0.035125
3.516667	1	-0.034750
3.533333	1	-0.034000
3.550000	1	-0.033625
3.566667	1	-0.033125
3.583333	1	-0.032125
3.600000	1	-0.031750
3.616667	1	-0.030750
3.633333	1	-0.030000
3.650000	1	-0.029750
3.666667	1	-0.029250
3.683333	1	-0.028750
3.700000	1	-0.027875
3.716667	1	-0.027250
3.733333	1	-0.027000
3.750000	1	-0.026375
3.766667	1	-0.025875
3.783333	1	-0.025000
3.800000	1	-0.024375
3.816667	1	-0.023625
3.833333	1	-0.023750
3.850000	1	-0.023125
3.866667	1	-0.022750
3.883333	1	-0.022500
3.900000	1	-0.022250
3.916667	1	-0.022125
3.933333	1	-0.022125
3.950000	1	-0.021750
3.966667	1	-0.021375
3.983333	1	-0.020750
4.000000	1	-0.020375
4.016667	1	-0.019750
4.033333	1	-0.019875
4.050000	1	-0.019625
4.066667	1	-0.019250
4.083333	1	-0.019500
4.100000	1	-0.019500
4.116667	1	-0.019125
4.133333	1	-0.019125
4.150000	1	-0.019250
4.166667	1	-0.018750
4.183333	1	-0.018375
4.200000	1	-0.018000
4.216667	1	-0.017875
4.233333	1	-0.018250
4.250000	1	-0.017625
4.266667	1	-0.017625
4.283333	1	-0.017625
4.300000	1	-0.017875
4.316667	1	-0.018000
4.333333	1	-0.018125
4.350000	1	-0.017750
4.366667	1	-0.017000
4.383333	1	-0.017250
4.400000	1	-0.017250
4.416667	1	-0.017125
4.433333	1	-0.017875
4.450000	1	-0.017625
4.466667	1	-0.017125
4.483333	1	-0.017000
4.500000	1	-0.017500
4.516667	1	-0.017750
4.533333	1	-0.017625
4.550000	1	-0.018125
4.566667	1	-0.018000
4.583333	1	-0.017500
4.600000	1	-0.017500
4.616667	1	-0.017625
4.633333	1	-0.017750
4.650000	1	-0.018250
4.666667	1	-0.018375
4.683333	1	-0.018125
4.700000	1	-0.017625
4.716667	1	-0.017250
4.733333	1	-0.017125
4.750000	1	-0.016625
4.766667	1	-0.016750
4.783333	1	-0.015750
4.800000	1	-0.015250
4.816667	1	-0.015750
4.833333	1	-0.015750
4.850000	1	-0.015500
4.866667	1	-0.015000
4.883333	1	-0.014750
4.900000	1	-0.015125
4.916667	1	-0.014500
4.933333	1	-0.013875
4.950000	1	-0.013625
4.966667	1	-0.013625
4.983333	1	-0.012875
5.000000	1	-0.012375
5.016667	1	-0.012000
5.033333	1	-0.011750
5.050000	1	-0.011125
5.066667	1	-0.011000
5.083333	1	-0.011000
5.100000	1	-0.012125
5.116667	1	-0.011750
5.133333	1	-0.011875
5.150000	1	-0.011625
5.166667	1	-0.010875
5.183333	1	-0.010750
5.200000	1	-0.010625
5.216667	1	-0.010500
5.233333	1	-0.011125
5.250000	1	-0.011125
5.266667	1	-0.011500
5.283333	1	-0.012250
5.300000	1	-0.013000
5.316667	1	-0.014000
5.333333	1	-0.013500
5.350000	1	-0.013750
5.366667	1	-0.014125
5.383333	1	-0.014375
5.400000	1	-0.014750
5.416667	1	-0.015500
5.433333	1	-0.016375
5.450000	1	-0.017000
5.466667	1	-0.017750
5.483333	1	-0.018625
5.500000	1	-0.019375
5.516667	1	-0.020625
5.533333	1	-0.021250
5.550000	1	-0.021750
5.566667	1	-0.022250
5.583333	1	-0.023500
5.600000	1	-0.024625
5.616667	1	-0.025625
5.633333	1	-0.026500
5.650000	1	-0.027250
5.666667	1	-0.028250
5.683333	1	-0.029125
5.700000	1	-0.029375
5.716667	1	-0.029125
5.733333	1	-0.030000
5.750000	1	-0.030875
5.766667	1	-0.030750
5.783333	1	-0.031750
5.800000	1	-0.032875
5.816667	1	-0.033000
5.833333	1	-0.033875
5.850000	1	-0.034125
5.866667	1	-0.034625
5.883333	1	-0.035125
5.900000	1	-0.035875
5.916667	1	-0.035750
5.933333	1	-0.036625
5.950000	1	-0.037000
5.966667	1	-0.037000
5.983333	1	-0.037750
6.000000	1	-0.037875
6.016667	1	-0.037875
6.033333	1	-0.037875
6.050000	1	-0.038375
6.066667	1	-0.038125
6.083333	1	-0.038625
6.100000	1	-0.038250
6.116667	1	-0.038375
6.133333	1	-0.037375
6.150000	1	-0.037250
6.166667	1	-0.036875
6.183333	1	-0.036250
6.200000	1	-0.035750
6.216667	1	-0.035500
6.233333	1	-0.034500
6.250000	1	-0.033500
6.266667	1	-0.032750
6.283333	1	-0.032750
6.300000	1	-0.031500
6.316667	1	-0.031125
6.333333	1	-0.029750
6.350000	1	-0.028625
6.366667	1	-0.027375
6.383333	1	-0.026500
6.400000	1	-0.025250
6.416667	1	-0.024875
6.433333	1	-0.024000
6.450000	1	-0.023500
6.466667	1	-0.023000
6.483333	1	-0.022125
6.500000	1	-0.020750
6.516667	1	-0.019500
6.533333	1	-0.019000
6.550000	1	-0.017750
6.566667	1	-0.016250
6.583333	1	-0.015000
6.600000	1	-0.013625
6.616667	1	-0.012625
6.633333	1	-0.011875
6.650000	1	-0.010500
6.666667	1	-0.009750
6.683333	1	-0.008750
6.700000	1	-0.008250
6.716667	1	-0.007750
6.733333	1	-0.007000
6.750000	1	-0.005625
6.766667	1	-0.004500
6.783333	1	-0.003625
6.800000	1	-0.002375
6.816667	1	-0.001625
6.833333	1	-0.000875
6.850000	1	-0.001000
6.866667	1	-0.000375
6.883333	1	0.000250
6.900000	1	0.001000
6.916667	1	0.002000
6.933333	1	0.003125
6.950000	1	0.004000
6.966667	1	0.004875
6.983333	1	0.005375
7.000000	1	0.006000
7.016667	1	0.006750
7.033333	1	0.007375
7.050000	1	0.007875
7.066667	1	0.008875
7.083333	1	0.010250
7.100000	1	0.010500
7.116667	1	0.010750
7.133333	1	0.011250
7.150000	1	0.011875
7.166667	1	0.012750
7.183333	1	0.013625
7.200000	1	0.014000
7.216667	1	0.014500
7.233333	1	0.015000
7.250000	1	0.016125
7.266667	1	0.016500
7.283333	1	0.017125
7.300000	1	0.018000
7.316667	1	0.018750
7.333333	1	0.019000
7.350000	1	0.019375
7.366667	1	0.020125
7.383333	1	0.020250
7.400000	1	0.020500
7.416667	1	0.021250
7.433333	1	0.021750
7.450000	1	0.022375
7.466667	1	0.022250
7.483333	1	0.023125
7.500000	1	0.023750
7.516667	1	0.023375
7.533333	1	0.023125
7.550000	1	0.023375
7.566667	1	0.023375
7.583333	1	0.022750
7.600000	1	0.023125
7.616667	1	0.023375
7.633333	1	0.022750
7.650000	1	0.022625
7.666667	1	0.022125
7.683333	1	0.021875
7.700000	1	0.021625
7.716667	1	0.022125
7.733333	1	0.021500
7.750000	1	0.021375
7.766667	1	0.021250
7.783333	1	0.020375
7.800000	1	0.020125
7.816667	1	0.019875
7.833333	1	0.019000
7.850000	1	0.019000
7.866667	1	0.018125
7.883333	1	0.017500
7.900000	1	0.017625
7.916667	1	0.017375
7.933333	1	0.017125
7.950000	1	0.017000
7.966667	1	0.016875
7.983333	1	0.016625
8.000000	1	0.016250
8.016667	1	0.015625
8.033333	1	0.015000
8.050000	1	0.014875
8.066667	1	0.014875
8.083333	1	0.015000
8.100000	1	0.014625
8.116667	1	0.014875
8.133333	1	0.014875
8.150000	1	0.015250
8.166667	1	0.015500
8.183333	1	0.016250
8.200000	1	0.017875
8.216667	1	0.018625
8.233333	1	0.018875
8.250000	1	0.019500
8.266667	1	0.019375
8.283333	1	0.020375
8.300000	1	0.021500
8.316667	1	0.022500
8.333333	1	0.024000
8.350000	1	0.025250
8.366667	1	0.026625
8.383333	1	0.027375
8.400000	1	0.028875
8.416667	1	0.030000
8.433333	1	0.031375
8.450000	1	0.033000
8.466667	1	0.034375
8.483333	1	0.035750
8.500000	1	0.037500
8.516667	1	0.038750
8.533333	1	0.041625
8.550000	1	0.043375
8.566667	1	0.045500
8.583333	1	0.047125
8.600000	1	0.049000
8.616667	1	0.050500
8.633333	1	0.051375
8.650000	1	0.053500
8.666667	1	0.054750
8.683333	1	0.056500
8.700000	1	0.058250
8.716667	1	0.060375
8.733333	1	0.062500
8.750000	1	0.064500
8.766667	1	0.066000
8.783333	1	0.066625
8.800000	1	0.068125
8.816667	1	0.069875
8.833333	1	0.071000
8.850000	1	0.073625
8.866667	1	0.074750
8.883333	1	0.076625
8.900000	1	0.078750
8.916667	1	0.080000
8.933333	1	0.081250
8.950000	1	0.082375
8.966667	1	0.083625
8.983333	1	0.084250
9.000000	1	0.085500
9.016667	1	0.086375
9.033333	1	0.087375
9.050000	1	0.088250
9.066667	1	0.088875
9.083333	1	0.090000
9.100000	1	0.091125
9.116667	1	0.091750
9.133333	1	0.091875
9.150000	1	0.093000
9.166667	1	0.093375
9.183333	1	0.093375
9.200000	1	0.093875
9.216667	1	0.094250
9.233333	1	0.094500
9.250000	1	0.094375
9.266667	1	0.093875
9.283333	1	0.093375
9.300000	1	0.092875
9.316667	1	0.092250
9.333333	1	0.092125
9.350000	1	0.092375
9.366667	1	0.091250
9.383333	1	0.090375
9.400000	1	0.089250
9.416667	1	0.088250
9.433333	1	0.087500
9.450000	1	0.086875
9.466667	1	0.085500
9.483333	1	0.084875
9.500000	1	0.083875
9.516667	1	0.083000
9.533333	1	0.081750
9.550000	1	0.080875
9.566667	1	0.079250
9.583333	1	0.077875
9.600000	1	0.076750
9.616667	1	0.075250
9.633333	1	0.074500
9.650000	1	0.073125
9.666667	1	0.072875
9.683333	1	0.072500
9.700000	1	0.072125
9.716667	1	0.070875
9.733333	1	0.070500
9.750000	1	0.070125
9.766667	1	0.069250
9.783333	1	0.068375
9.800000	1	0.067500
9.816667	1	0.066625
9.833333	1	0.065250
9.850000	1	0.063375
9.866667	1	0.060125
9.883333	1	0.054625
9.900000	1	0.044625
9.916667	1	0.026000
9.933333	1	-0.007000
9.950000	1	-0.064375
9.966667	1	-0.160625
9.983333	1	-0.314875
10.000000	1	-0.551125
10.016667	1	-0.894000
10.033333	1	-1.363250
10.050000	1	-1.964375
10.066667	1	-2.686000
10.083333	1	-3.496125
10.100000	1	-4.344125
10.116667	1	-5.168500
10.133333	1	-5.906875
10.150000	1	-6.505500
10.166667	1	-6.927250
10.183333	1	-7.151000
10.200000	1	-7.175875
10.216667	1	-7.016875
10.233333	1	-6.698875
10.250000	1	-6.256625
10.266667	1	-5.726125
10.283333	1	-5.144750
10.300000	1	-4.545250
10.316667	1	-3.954875
10.333333	1	-3.395125
10.350000	1	-2.881875
10.366667	1	-2.423250
10.383333	1	-2.023250
10.400000	1	-1.680375
10.416667	1	-1.391000
10.433333	1	-1.150125
10.450000	1	-0.951250
10.466667	1	-0.787750
10.483333	1	-0.654250
10.500000	1	-0.545000
10.516667	1	-0.455375
10.533333	1	-0.382500
10.550000	1	-0.322375
10.566667	1	-0.272000
10.583333	1	-0.230250
10.600000	1	-0.195625
10.616667	1	-0.165625
10.633333	1	-0.141000
10.650000	1	-0.119750
10.666667	1	-0.102000
10.683333	1	-0.087125
10.700000	1	-0.074375
10.716667	1	-0.064125
10.733333	1	-0.055500
10.750000	1	-0.047500
10.766667	1	-0.041500
10.783333	1	-0.035625
10.800000	1	-0.030500
10.816667	1	-0.026750
10.833333	1	-0.023625
10.850000	1	-0.021125
10.866667	1	-0.019000
10.883333	1	-0.016750
10.900000	1	-0.015125
10.916667	1	-0.014125
10.933333	1	-0.014750
10.950000	1	-0.013750
10.966667	1	-0.012750
10.983333	1	-0.012250
11.000000	1	-0.012750
11.016667	1	-0.013500
11.033333	1	-0.013625
11.050000	1	-0.013875
11.066667	1	-0.014000
11.083333	1	-0.014625
11.100000	1	-0.015250
11.116667	1	-0.015625
11.133333	1	-0.016625
11.150000	1	-0.017500
11.166667	1	-0.018250
11.183333	1	-0.019250
11.200000	1	-0.020125
11.216667	1	-0.021375
11.233333	1	-0.022250
11.250000	1	-0.022625
11.266667	1	-0.023250
11.283333	1	-0.024125
11.300000	1	-0.024875
11.316667	1	-0.025375
11.333333	1	-0.025875
11.350000	1	-0.026500
11.366667	1	-0.027250
11.383333	1	-0.027375
11.400000	1	-0.028875
11.416667	1	-0.029250
11.433333	1	-0.029000
11.450000	1	-0.029125
11.466667	1	-0.029000
11.483333	1	-0.029500
11.500000	1	-0.029625
11.516667	1	-0.029625
11.533333	1	-0.029250
11.550000	1	-0.029000
11.566667	1	-0.029000
11.583333	1	-0.029000
11.600000	1	-0.029500
11.616667	1	-0.029375
11.633333	1	-0.029375
11.650000	1	-0.029875
11.666667	1	-0.029625
11.683333	1	-0.030125
11.700000	1	-0.030500
11.716667	1	-0.030375
11.733333	1	-0.030500
11.750000	1	-0.030750
11.766667	1	-0.030500
11.783333	1	-0.030500
11.800000	1	-0.030375
11.816667	1	-0.029750
11.833333	1	-0.029500
11.850000	1	-0.029500
11.866667	1	-0.029000
11.883333	1	-0.028000
11.900000	1	-0.027500
11.916667	1	-0.026625
11.933333	1	-0.025750
11.950000	1	-0.026000
11.966667	1	-0.025000
11.983333	1	-0.024375
12.000000	1	-0.023875
12.016667	1	-0.023000
12.033333	1	-0.022375
12.050000	1	-0.021375
12.066667	1	-0.019750
12.083333	1	-0.018875
12.100000	1	-0.018500
12.116667	1	-0.017625
12.133333	1	-0.017125
12.150000	1	-0.016125
12.166667	1	-0.015625
12.183333	1	-0.015000
12.200000	1	-0.014000
12.216667	1	-0.013000
12.233333	1	-0.011750
12.250000	1	-0.009875
12.266667	1	-0.007250
12.283333	1	-0.005125
12.300000	1	-0.002500
12.316667	1	0.000625
12.333333	1	0.004250
12.350000	1	0.009750
12.366667	1	0.016125
12.383333	1	0.025375
12.400000	1	0.037750
12.416667	1	0.054750
12.433333	1	0.077625
12.450000	1	0.107250
12.466667	1	0.145125
12.483333	1	0.192000
12.500000	1	0.248500
12.516667	1	0.314125
12.533333	1	0.386000
12.550000	1	0.463125
12.566667	1	0.541500
12.583333	1	0.617750
12.600000	1	0.687750
12.616667	1	0.748250
12.633333	1	0.796250
12.650000	1	0.829750
12.666667	1	0.847125
12.683333	1	0.848000
12.700000	1	0.833625
12.716667	1	0.806750
12.733333	1	0.768625
12.750000	1	0.722125
12.766667	1	0.670500
12.783333	1	0.615250
12.800000	1	0.559000
12.816667	1	0.502750
12.833333	1	0.449125
12.850000	1	0.397625
12.866667	1	0.349125
12.883333	1	0.305250
12.900000	1	0.264000
12.916667	1	0.226375
12.933333	1	0.192375
12.950000	1	0.162250
12.966667	1	0.135500
12.983333	1	0.112250
13.000000	1	0.092375
13.016667	1	0.074625
13.033333	1	0.059875
13.050000	1	0.046625
13.066667	1	0.035250
13.083333	1	0.025750
13.100000	1	0.017875
13.116667	1	0.010875
13.133333	1	0.005125
13.150000	1	-0.000375
13.166667	1	-0.004125
13.183333	1	-0.007750
13.200000	1	-0.010500
13.216667	1	-0.013500
13.233333	1	-0.015375
13.250000	1	-0.017250
13.266667	1	-0.018875
13.283333	1	-0.019875
13.300000	1	-0.020750
13.316667	1	-0.021875
13.333333	1	-0.022250
13.350000	1	-0.022125
13.366667	1	-0.022875
13.383333	1	-0.023125
13.400000	1	-0.023750
13.416667	1	-0.023875
13.433333	1	-0.023750
13.450000	1	-0.023875
13.466667	1	-0.023500
13.483333	1	-0.023250
13.500000	1	-0.023250
13.516667	1	-0.023500
13.533333	1	-0.023750
13.550000	1	-0.023500
13.566667	1	-0.023750
13.583333	1	-0.023000
13.600000	1	-0.022625
13.616667	1	-0.022875
13.633333	1	-0.021625
13.650000	1	-0.021125
13.666667	1	-0.021375
13.683333	1	-0.020875
13.700000	1	-0.020875
13.716667	1	-0.020375
13.733333	1	-0.019375
13.750000	1	-0.019500
13.766667	1	-0.019000
13.783333	1	-0.017875
13.800000	1	-0.018125
13.816667	1	-0.019000
13.833333	1	-0.018625
13.850000	1	-0.018625
13.866667	1	-0.018375
13.883333	1	-0.018375
13.900000	1	-0.018000
13.916667	1	-0.017875
13.933333	1	-0.018125
13.950000	1	-0.018750
13.966667	1	-0.019125
13.983333	1	-0.018750
14.000000	1	-0.019125
14.016667	1	-0.018875
14.033333	1	-0.019250
14.050000	1	-0.019750
14.066667	1	-0.020625
14.083333	1	-0.020875
14.100000	1	-0.021500
14.116667	1	-0.022375
14.133333	1	-0.022750
14.150000	1	-0.023000
14.166667	1	-0.023875
14.183333	1	-0.024000
14.200000	1	-0.025250
14.216667	1	-0.025500
14.233333	1	-0.026000
14.250000	1	-0.026875
14.266667	1	-0.027250
14.283333	1	-0.028250
14.300000	1	-0.028875
14.316667	1	-0.028875
14.333333	1	-0.029125
14.350000	1	-0.030000
14.366667	1	-0.030625
14.383333	1	-0.030875
14.400000	1	-0.031625
14.416667	1	-0.031875
14.433333	1	-0.032375
14.450000	1	-0.033000
14.466667	1	-0.032750
14.483333	1	-0.033250
14.500000	1	-0.033500
14.516667	1	-0.034250
14.533333	1	-0.034750
14.550000	1	-0.035125
14.566667	1	-0.035250
14.583333	1	-0.034750
14.600000	1	-0.034000
14.616667	1	-0.033000
14.633333	1	-0.031375
14.650000	1	-0.029625
14.666667	1	-0.026375
14.683333	1	-0.022125
14.700000	1	-0.017000
14.716667	1	-0.009625
14.733333	1	-0.000500
14.750000	1	0.010375
14.766667	1	0.024750
14.783333	1	0.042125
14.800000	1	0.063250
14.816667	1	0.087875
14.833333	1	0.115000
14.850000	1	0.143875
14.866667	1	0.173750
14.883333	1	0.204375
14.900000	1	0.233625
14.916667	1	0.261125
14.933333	1	0.285750
14.950000	1	0.306125
14.966667	1	0.320875
14.983333	1	0.331125
15.000000	1	0.335375
15.016667	1	0.334750
15.033333	1	0.328750
15.050000	1	0.317875
15.066667	1	0.303250
15.083333	1	0.286625
15.100000	1	0.267750
15.116667	1	0.248125
15.133333	1	0.226875
15.150000	1	0.205750
15.166667	1	0.184750
15.183333	1	0.164250
15.200000	1	0.145875
15.216667	1	0.128375
15.233333	1	0.111500
15.250000	1	0.095375
15.266667	1	0.080750
15.283333	1	0.067875
15.300000	1	0.055000
15.316667	1	0.043750
15.333333	1	0.033125
15.350000	1	0.023375
15.366667	1	0.015125
15.383333	1	0.007625
15.400000	1	0.001000
15.416667	1	-0.004875
15.433333	1	-0.009875
15.450000	1	-0.014250
15.466667	1	-0.018375
15.483333	1	-0.022250
15.500000	1	-0.025500
15.516667	1	-0.027750
15.533333	1	-0.030000
15.550000	1	-0.031500
15.566667	1	-0.032875
15.583333	1	-0.034250
15.600000	1	-0.035250
15.616667	1	-0.036125
15.633333	1	-0.037500
15.650000	1	-0.037250
15.666667	1	-0.037750
15.683333	1	-0.038125
15.700000	1	-0.038625
15.716667	1	-0.038875
15.733333	1	-0.039750
15.750000	1	-0.039250
15.766667	1	-0.039625
15.783333	1	-0.039750
15.800000	1	-0.039750
15.816667	1	-0.039500
15.833333	1	-0.039500
15.850000	1	-0.039625
15.866667	1	-0.039625
15.883333	1	-0.039750
15.900000	1	-0.040000
15.916667	1	-0.040000
15.933333	1	-0.039875
15.950000	1	-0.039125
15.966667	1	-0.038875
15.983333	1	-0.038875
16.000000	1	-0.038250
16.016667	1	-0.038125
16.033333	1	-0.038500
16.050000	1	-0.038750
16.066667	1	-0.038625
16.083333	1	-0.038625
16.100000	1	-0.039125
16.116667	1	-0.039500
16.133333	1	-0.039125
16.150000	1	-0.040250
16.166667	1	-0.040625
16.183333	1	-0.040250
16.200000	1	-0.040500
16.216667	1	-0.041125
16.233333	1	-0.041000
16.250000	1	-0.041750
16.266667	1	-0.042500
16.283333	1	-0.043125
16.300000	1	-0.044375
16.316667	1	-0.044625
16.333333	1	-0.045375
16.350000	1	-0.045875
16.366667	1	-0.047000
16.383333	1	-0.047625
16.400000	1	-0.048500
16.416667	1	-0.049375
16.433333	1	-0.050125
16.450000	1	-0.051125
16.466667	1	-0.052750
16.483333	1	-0.053750
16.500000	1	-0.055250
16.516667	1	-0.056250
16.533333	1	-0.057375
16.550000	1	-0.059125
16.566667	1	-0.060375
16.583333	1	-0.061875
16.600000	1	-0.062375
16.616667	1	-0.063875
16.633333	1	-0.065000
16.650000	1	-0.066250
16.666667	1	-0.066750
16.683333	1	-0.068125
16.700000	1	-0.069125
16.716667	1	-0.070625
16.733333	1	-0.071500
16.750000	1	-0.072125
16.766667	1	-0.072500
16.783333	1	-0.073500
16.800000	1	-0.073875
16.816667	1	-0.074375
16.833333	1	-0.074500
16.850000	1	-0.075250
16.866667	1	-0.076375
16.883333	1	-0.077000
16.900000	1	-0.078000
16.916667	1	-0.078625
16.933333	1	-0.078875
16.950000	1	-0.079375
16.966667	1	-0.079875
16.983333	1	-0.079875
17.000000	1	-0.079875
17.016667	1	-0.080375
17.033333	1	-0.081000
17.050000	1	-0.081000
17.066667	1	-0.081250
17.083333	1	-0.081125
17.100000	1	-0.081500
17.116667	1	-0.082000
17.133333	1	-0.081875
17.150000	1	-0.082125
17.166667	1	-0.082375
17.183333	1	-0.082250
17.200000	1	-0.082625
17.216667	1	-0.082375
17.233333	1	-0.081875
17.250000	1	-0.082375
17.266667	1	-0.082000
17.283333	1	-0.081875
17.300000	1	-0.082125
17.316667	1	-0.081875
17.333333	1	-0.081000
17.350000	1	-0.081000
17.366667	1	-0.080625
17.383333	1	-0.080000
17.400000	1	-0.080500
17.416667	1	-0.080625
17.433333	1	-0.080500
17.450000	1	-0.080375
17.466667	1	-0.080625
17.483333	1	-0.080250
17.500000	1	-0.080125
17.516667	1	-0.079750
17.533333	1	-0.079625
17.550000	1	-0.079500
17.566667	1	-0.079125
17.583333	1	-0.078875
17.600000	1	-0.078500
17.616667	1	-0.079250
17.633333	1	-0.078875
17.650000	1	-0.078500
17.666667	1	-0.078250
17.683333	1	-0.077750
17.700000	1	-0.077625
17.716667	1	-0.077625
17.733333	1	-0.077875
17.750000	1	-0.077750
17.766667	1	-0.077625
17.783333	1	-0.077375
17.800000	1	-0.077375
17.816667	1	-0.077750
17.833333	1	-0.078250
17.850000	1	-0.078125
17.866667	1	-0.078125
17.883333	1	-0.078250
17.900000	1	-0.078000
17.916667	1	-0.078250
17.933333	1	-0.077750
17.950000	1	-0.077875
17.966667	1	-0.077875
17.983333	1	-0.077500
18.000000	1	-0.077500
18.016667	1	-0.077500
18.033333	1	-0.076875
18.050000	1	-0.076625
18.066667	1	-0.076250
18.083333	1	-0.075750
18.100000	1	-0.075250
18.116667	1	-0.074875
18.133333	1	-0.075000
18.150000	1	-0.075000
18.166667	1	-0.074250
18.183333	1	-0.073500
18.200000	1	-0.073250
18.216667	1	-0.072625
18.233333	1	-0.072000
18.250000	1	-0.071250
18.266667	1	-0.070625
18.283333	1	-0.070125
18.300000	1	-0.070250
18.316667	1	-0.069250
18.333333	1	-0.068250
18.350000	1	-0.067250
18.366667	1	-0.066125
18.383333	1	-0.065375
18.400000	1	-0.064625
18.416667	1	-0.063500
18.433333	1	-0.061750
18.450000	1	-0.060500
18.466667	1	-0.060125
18.483333	1	-0.059375
18.500000	1	-0.059125
18.516667	1	-0.058375
18.533333	1	-0.057125
18.550000	1	-0.056250
18.566667	1	-0.055625
18.583333	1	-0.054750
18.600000	1	-0.053500
18.616667	1	-0.052250
18.633333	1	-0.051250
18.650000	1	-0.050125
18.666667	1	-0.049875
18.683333	1	-0.049250
18.700000	1	-0.048750
18.716667	1	-0.047625
18.733333	1	-0.047125
18.750000	1	-0.046500
18.766667	1	-0.045750
18.783333	1	-0.044875
18.800000	1	-0.044625
18.816667	1	-0.043875
18.833333	1	-0.044000
18.850000	1	-0.043125
18.866667	1	-0.042750
18.883333	1	-0.042500
18.900000	1	-0.042250
18.916667	1	-0.042375
18.933333	1	-0.042375
18.950000	1	-0.042125
18.966667	1	-0.042500
18.983333	1	-0.042625
19.000000	1	-0.042625
19.016667	1	-0.042625
19.033333	1	-0.043125
19.050000	1	-0.043250
19.066667	1	-0.044125
19.083333	1	-0.044000
19.100000	1	-0.044375
19.116667	1	-0.044500
19.133333	1	-0.044875
19.150000	1	-0.044875
19.166667	1	-0.045625
19.183333	1	-0.045875
19.200000	1	-0.046375
19.216667	1	-0.047000
19.233333	1	-0.048125
19.250000	1	-0.049000
19.266667	1	-0.049625
19.283333	1	-0.049375
19.300000	1	-0.050500
19.316667	1	-0.050500
19.333333	1	-0.051000
19.350000	1	-0.051125
19.366667	1	-0.051250
19.383333	1	-0.051625
19.400000	1	-0.051875
19.416667	1	-0.052500
19.433333	1	-0.053000
19.450000	1	-0.052875
19.466667	1	-0.053000
19.483333	1	-0.053500
19.500000	1	-0.053625
19.516667	1	-0.053625
19.533333	1	-0.053750
19.550000	1	-0.053750
19.566667	1	-0.053000
19.583333	1	-0.052375
19.600000	1	-0.051875
19.616667	1	-0.051250
19.633333	1	-0.050375
19.650000	1	-0.048875
19.666667	1	-0.047750
19.683333	1	-0.046250
19.700000	1	-0.044500
19.716667	1	-0.041500
19.733333	1	-0.039000
19.750000	1	-0.034375
19.766667	1	-0.029875
19.783333	1	-0.024500
19.800000	1	-0.018500
19.816667	1	-0.011625
19.833333	1	-0.004125
19.850000	1	0.004500
19.866667	1	0.012625
19.883333	1	0.021625
19.900000	1	0.030750
19.916667	1	0.039750
19.933333	1	0.048625
19.950000	1	0.057125
19.966667	1	0.065375
19.983333	1	0.072500
20.000000	1	0.077375
20.016667	1	0.081250
20.033333	1	0.084625
20.050000	1	0.086750
20.066667	1	0.087375
20.083333	1	0.086500
20.100000	1	0.084500
20.116667	1	0.081750
20.133333	1	0.078000
20.150000	1	0.073500
20.166667	1	0.068500
20.183333	1	0.064125
20.200000	1	0.059250
20.216667	1	0.054125
20.233333	1	0.049750
20.250000	1	0.045250
20.266667	1	0.041000
20.283333	1	0.037500
20.300000	1	0.034500
20.316667	1	0.032500
20.333333	1	0.031500
20.350000	1	0.032250
20.366667	1	0.033500
20.383333	1	0.034375
20.400000	1	0.035750
20.416667	1	0.037375
20.433333	1	0.038750
20.450000	1	0.040750
20.466667	1	0.042625
20.483333	1	0.044750
20.500000	1	0.046375
20.516667	1	0.047500
20.533333	1	0.047750
20.550000	1	0.047750
20.566667	1	0.046250
20.583333	1	0.044625
20.600000	1	0.042000
20.616667	1	0.038625
20.633333	1	0.034625
20.650000	1	0.030000
20.666667	1	0.025625
20.683333	1	0.021250
20.700000	1	0.016750
20.716667	1	0.010875
20.733333	1	0.005750
20.750000	1	0.001750
20.766667	1	-0.002500
20.783333	1	-0.006500
20.800000	1	-0.011000
20.816667	1	-0.014500
20.833333	1	-0.018250
20.850000	1	-0.022125
20.866667	1	-0.025125
20.883333	1	-0.028000
20.900000	1	-0.030000
20.916667	1	-0.032875
20.933333	1	-0.035375
20.950000	1	-0.037250
20.966667	1	-0.039375
20.983333	1	-0.040875
21.000000	1	-0.043000
21.016667	1	-0.044750
21.033333	1	-0.046125
21.050000	1	-0.047250
21.066667	1	-0.049000
21.083333	1	-0.049875
21.100000	1	-0.050875
21.116667	1	-0.051625
21.133333	1	-0.052375
21.150000	1	-0.052750
21.166667	1	-0.052875
21.183333	1	-0.053875
21.200000	1	-0.054500
21.216667	1	-0.054875
21.233333	1	-0.055500
21.250000	1	-0.055500
21.266667	1	-0.055375
21.283333	1	-0.055875
21.300000	1	-0.055875
21.316667	1	-0.055625
21.333333	1	-0.055875
21.350000	1	-0.055625
21.366667	1	-0.055625
21.383333	1	-0.055500
21.400000	1	-0.055625
21.416667	1	-0.055625
21.433333	1	-0.055000
21.450000	1	-0.055000
21.466667	1	-0.054875
21.483333	1	-0.055000
21.500000	1	-0.054875
21.516667	1	-0.054625
21.533333	1	-0.054125
21.550000	1	-0.053875
21.566667	1	-0.053500
21.583333	1	-0.053750
21.600000	1	-0.053750
21.616667	1	-0.053500
21.633333	1	-0.053000
21.650000	1	-0.052750
21.666667	1	-0.052625
21.683333	1	-0.052125
21.700000	1	-0.051500
21.716667	1	-0.050875
21.733333	1	-0.050250
21.750000	1	-0.050125
21.766667	1	-0.049500
21.783333	1	-0.048625
21.800000	1	-0.046875
21.816667	1	-0.045375
21.833333	1	-0.044000
21.850000	1	-0.042375
21.866667	1	-0.041000
21.883333	1	-0.039250
21.900000	1	-0.037875
21.916667	1	-0.036000
21.933333	1	-0.034500
21.950000	1	-0.032500
21.966667	1	-0.030375
21.983333	1	-0.028625
22.000000	1	-0.026875
22.016667	1	-0.025875
22.033333	1	-0.024375
22.050000	1	-0.023500
22.066667	1	-0.022875
22.083333	1	-0.022000
22.100000	1	-0.021000
22.116667	1	-0.020875
22.133333	1	-0.020625
22.150000	1	-0.019875
22.166667	1	-0.020000
22.183333	1	-0.020875
22.200000	1	-0.021000
22.216667	1	-0.021750
22.233333	1	-0.021250
22.250000	1	-0.022250
22.266667	1	-0.022750
22.283333	1	-0.024375
22.300000	1	-0.025250
22.316667	1	-0.025750
22.333333	1	-0.026125
22.350000	1	-0.027250
22.366667	1	-0.028000
22.383333	1	-0.029000
22.400000	1	-0.030875
22.416667	1	-0.031875
22.433333	1	-0.031875
22.450000	1	-0.032625
22.466667	1	-0.033625
22.483333	1	-0.034625
22.500000	1	-0.035000
22.516667	1	-0.035500
22.533333	1	-0.036125
22.550000	1	-0.036500
22.566667	1	-0.037875
22.583333	1	-0.038125
22.600000	1	-0.039000
22.616667	1	-0.039000
22.633333	1	-0.039625
22.650000	1	-0.040000
22.666667	1	-0.040750
22.683333	1	-0.041375
22.700000	1	-0.041750
22.716667	1	-0.042250
22.733333	1	-0.042000
22.750000	1	-0.042000
22.766667	1	-0.042750
22.783333	1	-0.042625
22.800000	1	-0.043500
22.816667	1	-0.043500
22.833333	1	-0.042875
22.850000	1	-0.042750
22.866667	1	-0.042875
22.883333	1	-0.042625
22.900000	1	-0.042625
22.916667	1	-0.042500
22.933333	1	-0.040875
22.950000	1	-0.040625
22.966667	1	-0.040875
22.983333	1	-0.041000
23.000000	1	-0.040375
23.016667	1	-0.039875
23.033333	1	-0.039750
23.050000	1	-0.039250
23.066667	1	-0.038500
23.083333	1	-0.037875
23.100000	1	-0.037250
23.116667	1	-0.036750
23.133333	1	-0.036625
23.150000	1	-0.035875
23.166667	1	-0.035750
23.183333	1	-0.035375
23.200000	1	-0.035000
23.216667	1	-0.035125
23.233333	1	-0.035250
23.250000	1	-0.035125
23.266667	1	-0.035375
23.283333	1	-0.035125
23.300000	1	-0.035250
23.316667	1	-0.034750
23.333333	1	-0.035125
23.350000	1	-0.034875
23.366667	1	-0.034500
23.383333	1	-0.034875
23.400000	1	-0.034875
23.416667	1	-0.036125
23.433333	1	-0.036500
23.450000	1	-0.037000
23.466667	1	-0.037750
23.483333	1	-0.037750
23.500000	1	-0.037250
23.516667	1	-0.037250
23.533333	1	-0.037750
23.550000	1	-0.037875
23.566667	1	-0.038375
23.583333	1	-0.038625
23.600000	1	-0.038750
23.616667	1	-0.038625
23.633333	1	-0.038375
23.650000	1	-0.038750
23.666667	1	-0.038125
23.683333	1	-0.036875
23.700000	1	-0.036250
23.716667	1	-0.035625
23.733333	1	-0.034875
23.750000	1	-0.034000
23.766667	1	-0.032375
23.783333	1	-0.031500
23.800000	1	-0.030250
23.816667	1	-0.028875
23.833333	1	-0.027750
23.850000	1	-0.026125
23.866667	1	-0.024750
23.883333	1	-0.023875
23.900000	1	-0.022500
23.916667	1	-0.021750
23.933333	1	-0.020625
23.950000	1	-0.019625
23.966667	1	-0.019875
23.983333	1	-0.019625
24.000000	1	-0.020250
24.016667	1	-0.021000
24.033333	1	-0.021875
24.050000	1	-0.022750
24.066667	1	-0.023375
24.083333	1	-0.024625
24.100000	1	-0.024875
24.116667	1	-0.025500
24.133333	1	-0.026500
24.150000	1	-0.028000
24.166667	1	-0.029625
24.183333	1	-0.031000
24.200000	1	-0.032875
24.216667	1	-0.034375
24.233333	1	-0.035625
24.250000	1	-0.037000
24.266667	1	-0.038125
24.283333	1	-0.039250
24.300000	1	-0.040250
24.316667	1	-0.041000
24.333333	1	-0.041875
24.350000	1	-0.042875
24.366667	1	-0.043625
24.383333	1	-0.044625
24.400000	1	-0.045000
24.416667	1	-0.045250
24.433333	1	-0.046500
24.450000	1	-0.047375
24.466667	1	-0.047500
24.483333	1	-0.048250
24.500000	1	-0.048625
24.516667	1	-0.048625
24.533333	1	-0.049375
24.550000	1	-0.049875
24.566667	1	-0.050500
24.583333	1	-0.050500
24.600000	1	-0.051250
24.616667	1	-0.050875
24.633333	1	-0.051250
24.650000	1	-0.051125
24.666667	1	-0.051625
24.683333	1	-0.051375
24.700000	1	-0.050875
24.716667	1	-0.051500
24.733333	1	-0.051875
24.750000	1	-0.050625
24.766667	1	-0.050625
24.783333	1	-0.050125
24.800000	1	-0.049625
24.816667	1	-0.049500
24.833333	1	-0.050250
24.850000	1	-0.049250
24.866667	1	-0.048875
24.883333	1	-0.048500
24.900000	1	-0.048250
24.916667	1	-0.047875
24.933333	1	-0.046750
24.950000	1	-0.046000
24.966667	1	-0.045750
24.983333	1	-0.045625
25.000000	1	-0.045250
25.016667	1	-0.044500
25.033333	1	-0.044125
25.050000	1	-0.043625
25.066667	1	-0.043000
25.083333	1	-0.042625
25.100000	1	-0.041375
25.116667	1	-0.040875
25.133333	1	-0.040375
25.150000	1	-0.039625
25.166667	1	-0.039125
25.183333	1	-0.038625
25.200000	1	-0.037875
25.216667	1	-0.037500
25.233333	1	-0.037250
25.250000	1	-0.036500
25.266667	1	-0.036750
25.283333	1	-0.035875
25.300000	1	-0.034875
25.316667	1	-0.034750
25.333333	1	-0.034000
25.350000	1	-0.033750
25.366667	1	-0.033375
25.383333	1	-0.032625
25.400000	1	-0.032500
25.416667	1	-0.032250
25.433333	1	-0.031750
25.450000	1	-0.031125
25.466667	1	-0.030500
25.483333	1	-0.030875
25.500000	1	-0.030750
25.516667	1	-0.030625
25.533333	1	-0.030500
25.550000	1	-0.030750
25.566667	1	-0.030500
25.583333	1	-0.030875
25.600000	1	-0.031375
25.616667	1	-0.032375
25.633333	1	-0.033375
25.650000	1	-0.034250
25.666667	1	-0.035250
25.683333	1	-0.036250
25.700000	1	-0.036250
25.716667	1	-0.038125
25.733333	1	-0.039500
25.750000	1	-0.040625
25.766667	1	-0.042125
25.783333	1	-0.044375
25.800000	1	-0.046625
25.816667	1	-0.049125
25.833333	1	-0.051875
25.850000	1	-0.055375
25.866667	1	-0.058125
25.883333	1	-0.062125
25.900000	1	-0.066625
25.916667	1	-0.070250
25.933333	1	-0.075000
25.950000	1	-0.080750
25.966667	1	-0.086500
25.983333	1	-0.092000
26.000000	1	-0.097875
26.016667	1	-0.104500
26.033333	1	-0.110875
26.050000	1	-0.117000
26.066667	1	-0.124250
26.083333	1	-0.131250
26.100000	1	-0.138125
26.116667	1	-0.144500
26.133333	1	-0.152125
26.150000	1	-0.159250
26.166667	1	-0.166000
26.183333	1	-0.172250
26.200000	1	-0.178500
26.216667	1	-0.183875
26.233333	1	-0.188875
26.250000	1	-0.193125
26.266667	1	-0.196625
26.283333	1	-0.199375
26.300000	1	-0.201875
26.316667	1	-0.203500
26.333333	1	-0.205000
26.350000	1	-0.206000
26.366667	1	-0.205750
26.383333	1	-0.205125
26.400000	1	-0.203875
26.416667	1	-0.202500
26.433333	1	-0.200625
26.450000	1	-0.197625
26.466667	1	-0.194000
26.483333	1	-0.190625
26.500000	1	-0.186875
26.516667	1	-0.183625
26.533333	1	-0.179500
26.550000	1	-0.175125
26.566667	1	-0.170875
26.583333	1	-0.166625
26.600000	1	-0.162125
26.616667	1	-0.157375
26.633333	1	-0.152500
26.650000	1	-0.147875
26.666667	1	-0.142750
26.683333	1	-0.137625
26.700000	1	-0.132625
26.716667	1	-0.128625
26.733333	1	-0.124375
26.750000	1	-0.120375
26.766667	1	-0.115250
26.783333	1	-0.110500
26.800000	1	-0.105875
26.816667	1	-0.101500
26.833333	1	-0.096875
26.850000	1	-0.092500
26.866667	1	-0.088625
26.883333	1	-0.084125
26.900000	1	-0.080125
26.916667	1	-0.076625
26.933333	1	-0.073375
26.950000	1	-0.069875
26.966667	1	-0.067000
26.983333	1	-0.063625
27.000000	1	-0.060375
27.016667	1	-0.057875
27.033333	1	-0.055375
27.050000	1	-0.053625
27.066667	1	-0.051375
27.083333	1	-0.049750
27.100000	1	-0.048250
27.116667	1	-0.046875
27.133333	1	-0.046250
27.150000	1	-0.045250
27.166667	1	-0.044750
27.183333	1	-0.044125
27.200000	1	-0.043625
27.216667	1	-0.044375
27.233333	1	-0.045250
27.250000	1	-0.046000
27.266667	1	-0.046500
27.283333	1	-0.047625
27.300000	1	-0.049250
27.316667	1	-0.050375
27.333333	1	-0.052875
27.350000	1	-0.055000
27.366667	1	-0.057625
27.383333	1	-0.060625
27.400000	1	-0.064250
27.416667	1	-0.068000
27.433333	1	-0.072625
27.450000	1	-0.077125
27.466667	1	-0.082750
27.483333	1	-0.088500
27.500000	1	-0.095125
27.516667	1	-0.102375
27.533333	1	-0.110500
27.550000	1	-0.118625
27.566667	1	-0.127500
27.583333	1	-0.137250
27.600000	1	-0.147500
27.616667	1	-0.157375
27.633333	1	-0.167625
27.650000	1	-0.178500
27.666667	1	-0.188750
27.683333	1	-0.200375
27.700000	1	-0.211625
27.716667	1	-0.222250
27.733333	1	-0.233250
27.750000	1	-0.244750
27.766667	1	-0.254125
27.783333	1	-0.263625
27.800000	1	-0.272500
27.816667	1	-0.280500
27.833333	1	-0.287375
27.850000	1	-0.293375
27.866667	1	-0.298875
27.883333	1	-0.303625
27.900000	1	-0.307000
27.916667	1	-0.309750
27.933333	1	-0.311125
27.950000	1	-0.312625
27.966667	1	-0.312500
27.983333	1	-0.311750
28.000000	1	-0.310000
28.016667	1	-0.307875
28.033333	1	-0.305000
28.050000	1	-0.301250
28.066667	1	-0.297750
28.083333	1	-0.293500
28.100000	1	-0.288625
28.116667	1	-0.284125
28.133333	1	-0.280375
28.150000	1	-0.275750
28.166667	1	-0.270625
28.183333	1	-0.265750
28.200000	1	-0.261500
28.216667	1	-0.256125
28.233333	1	-0.250750
28.250000	1	-0.245500
28.266667	1	-0.240625
28.283333	1	-0.235625
28.300000	1	-0.231125
28.316667	1	-0.226750
28.333333	1	-0.222750
28.350000	1	-0.218125
28.366667	1	-0.213375
28.383333	1	-0.209500
28.400000	1	-0.204750
28.416667	1	-0.200125
28.433333	1	-0.195500
28.450000	1	-0.191375
28.466667	1	-0.187000
28.483333	1	-0.183375
28.500000	1	-0.179625
28.516667	1	-0.175750
28.533333	1	-0.171875
28.550000	1	-0.169000
28.566667	1	-0.165500
28.583333	1	-0.162125
28.600000	1	-0.158875
28.616667	1	-0.156000
28.633333	1	-0.152875
28.650000	1	-0.150375
28.666667	1	-0.147375
28.683333	1	-0.145250
28.700000	1	-0.142875
28.716667	1	-0.142000
28.733333	1	-0.140250
28.750000	1	-0.138375
28.766667	1	-0.137125
28.783333	1	-0.135625
28.800000	1	-0.134250
28.816667	1	-0.133250
28.833333	1	-0.132625
28.850000	1	-0.131750
28.866667	1	-0.131375
28.883333	1	-0.130375
28.900000	1	-0.129625
28.916667	1	-0.128500
28.933333	1	-0.127250
28.950000	1	-0.126750
28.966667	1	-0.125750
28.983333	1	-0.125125
29.000000	1	-0.124250
29.016667	1	-0.123375
29.033333	1	-0.122625
29.050000	1	-0.121625
29.066667	1	-0.121125
29.083333	1	-0.120625
29.100000	1	-0.119125
29.116667	1	-0.118750
29.133333	1	-0.117000
29.150000	1	-0.116250
29.166667	1	-0.115375
29.183333	1	-0.114875
29.200000	1	-0.114125
29.216667	1	-0.112500
29.233333	1	-0.111125
29.250000	1	-0.109750
29.266667	1	-0.108625
29.283333	1	-0.108000
29.300000	1	-0.107000
29.316667	1	-0.106000
29.333333	1	-0.105125
29.350000	1	-0.103625
29.366667	1	-0.102500
29.383333	1	-0.102000
29.400000	1	-0.100750
29.416667	1	-0.099375
29.433333	1	-0.098625
29.450000	1	-0.097625
29.466667	1	-0.097125
29.483333	1	-0.095875
29.500000	1	-0.095250
29.516667	1	-0.094000
29.533333	1	-0.093125
29.550000	1	-0.092625
29.566667	1	-0.092000
29.583333	1	-0.092125
29.600000	1	-0.091500
29.616667	1	-0.090875
29.633333	1	-0.090375
29.650000	1	-0.090375
29.666667	1	-0.090500
29.683333	1	-0.089875
29.700000	1	-0.089500
29.716667	1	-0.089500
29.733333	1	-0.088625
29.750000	1	-0.088750
29.766667	1	-0.088625
29.783333	1	-0.088500
29.800000	1	-0.087875
29.816667	1	-0.087625
29.833333	1	-0.087750
29.850000	1	-0.088000
29.866667	1	-0.087625
29.883333	1	-0.087625
29.900000	1	-0.087625
29.916667	1	-0.086500
29.933333	1	-0.086125
29.950000	1	-0.086500
29.966667	1	-0.086625
29.983333	1	-0.086625
30.000000	1	-0.086875
30.016667	1	-0.086750
30.033333	1	-0.086750
30.050000	1	-0.087000
30.066667	1	-0.086875
30.083333	1	-0.086875
30.100000	1	-0.086375
30.116667	1	-0.086375
30.133333	1	-0.086125
30.150000	1	-0.085875
30.166667	1	-0.085375
30.183333	1	-0.084750
30.200000	1	-0.083625
30.216667	1	-0.083500
30.233333	1	-0.083875
30.250000	1	-0.084000
30.266667	1	-0.083375
30.283333	1	-0.083500
30.300000	1	-0.083000
30.316667	1	-0.082625
30.333333	1	-0.082000
30.350000	1	-0.081125
30.366667	1	-0.081125
30.383333	1	-0.080000
30.400000	1	-0.079375
30.416667	1	-0.078500
30.433333	1	-0.077375
30.450000	1	-0.075500
30.466667	1	-0.075000
30.483333	1	-0.074000
30.500000	1	-0.073000
30.516667	1	-0.071500
30.533333	1	-0.070375
30.550000	1	-0.069250
30.566667	1	-0.068250
30.583333	1	-0.067375
30.600000	1	-0.066125
30.616667	1	-0.065375
30.633333	1	-0.063875
30.650000	1	-0.061875
30.666667	1	-0.061375
30.683333	1	-0.060625
30.700000	1	-0.059875
30.716667	1	-0.059625
30.733333	1	-0.059375
30.750000	1	-0.058625
30.766667	1	-0.058375
30.783333	1	-0.058000
30.800000	1	-0.058375
30.816667	1	-0.058500
30.833333	1	-0.058625
30.850000	1	-0.059000
30.866667	1	-0.060500
30.883333	1	-0.061375
30.900000	1	-0.062250
30.916667	1	-0.063750
30.933333	1	-0.065250
30.950000	1	-0.065875
30.966667	1	-0.067750
30.983333	1	-0.069500
31.000000	1	-0.070750
31.016667	1	-0.072000
31.033333	1	-0.073875
31.050000	1	-0.076000
31.066667	1	-0.077500
31.083333	1	-0.079250
31.100000	1	-0.081250
31.116667	1	-0.083250
31.133333	1	-0.084375
31.150000	1	-0.086500
31.166667	1	-0.088750
31.183333	1	-0.090125
31.200000	1	-0.091500
31.216667	1	-0.092750
31.233333	1	-0.094375
31.250000	1	-0.095875
31.266667	1	-0.096750
31.283333	1	-0.097500
31.300000	1	-0.098625
31.316667	1	-0.100000
31.333333	1	-0.100875
31.350000	1	-0.101625
31.366667	1	-0.102000
31.383333	1	-0.102500
31.400000	1	-0.103250
31.416667	1	-0.105000
31.433333	1	-0.106250
31.450000	1	-0.106000
31.466667	1	-0.106250
31.483333	1	-0.106875
31.500000	1	-0.107500
31.516667	1	-0.107750
31.533333	1	-0.108000
31.550000	1	-0.108125
31.566667	1	-0.109000
31.583333	1	-0.108250
31.600000	1	-0.107875
31.616667	1	-0.107500
31.633333	1	-0.107375
31.650000	1	-0.107625
31.666667	1	-0.107375
31.683333	1	-0.107375
31.700000	1	-0.107250
31.716667	1	-0.107000
31.733333	1	-0.107125
31.750000	1	-0.106875
31.766667	1	-0.106750
31.783333	1	-0.106125
31.800000	1	-0.105000
31.816667	1	-0.104750
31.833333	1	-0.104625
31.850000	1	-0.104500
31.866667	1	-0.103375
31.883333	1	-0.102750
31.900000	1	-0.101875
31.916667	1	-0.101125
31.933333	1	-0.100375
31.950000	1	-0.100125
31.966667	1	-0.099750
31.983333	1	-0.099125
32.000000	1	-0.099125
32.016667	1	-0.099000
32.033333	1	-0.098000
32.050000	1	-0.097500
32.066667	1	-0.097000
32.083333	1	-0.096875
32.100000	1	-0.096375
32.116667	1	-0.096000
32.133333	1	-0.095875
32.150000	1	-0.095000
32.166667	1	-0.094875
32.183333	1	-0.094250
32.200000	1	-0.093375
32.216667	1	-0.093250
32.233333	1	-0.092750
32.250000	1	-0.092250
32.266667	1	-0.092250
32.283333	1	-0.091625
32.300000	1	-0.092250
32.316667	1	-0.092000
32.333333	1	-0.091750
32.350000	1	-0.091375
32.366667	1	-0.090750
32.383333	1	-0.089750
32.400000	1	-0.089000
32.416667	1	-0.089125
32.433333	1	-0.088375
32.450000	1	-0.088125
32.466667	1	-0.088125
32.483333	1	-0.087250
32.500000	1	-0.086250
32.516667	1	-0.085375
32.533333	1	-0.084500
32.550000	1	-0.083625
32.566667	1	-0.083000
32.583333	1	-0.082250
32.600000	1	-0.081375
32.616667	1	-0.080750
32.633333	1	-0.079375
32.650000	1	-0.078250
32.666667	1	-0.078500
32.683333	1	-0.077750
32.700000	1	-0.076875
32.716667	1	-0.076125
32.733333	1	-0.075375
32.750000	1	-0.074125
32.766667	1	-0.072625
32.783333	1	-0.072375
32.800000	1	-0.071500
32.816667	1	-0.070500
32.833333	1	-0.069750
32.850000	1	-0.069125
32.866667	1	-0.068500
32.883333	1	-0.067750
32.900000	1	-0.067625
32.916667	1	-0.066750
32.933333	1	-0.065875
32.950000	1	-0.065375
32.966667	1	-0.065375
32.983333	1	-0.064625
33.000000	1	-0.064250
33.016667	1	-0.064000
33.033333	1	-0.063750
33.050000	1	-0.063250
33.066667	1	-0.063000
33.083333	1	-0.063250
33.100000	1	-0.063000
33.116667	1	-0.063125
33.133333	1	-0.063500
33.150000	1	-0.063250
33.166667	1	-0.063250
33.183333	1	-0.064125
33.200000	1	-0.064000
33.216667	1	-0.063750
33.233333	1	-0.064875
33.250000	1	-0.064875
33.266667	1	-0.065000
33.283333	1	-0.065625
33.300000	1	-0.065875
33.316667	1	-0.066500
33.333333	1	-0.066875
33.350000	1	-0.067375
33.366667	1	-0.067500
33.383333	1	-0.068125
33.400000	1	-0.069125
33.416667	1	-0.069625
33.433333	1	-0.069750
33.450000	1	-0.070625
33.466667	1	-0.071500
33.483333	1	-0.072250
33.500000	1	-0.072500
33.516667	1	-0.072500
33.533333	1	-0.072250
33.550000	1	-0.072125
33.566667	1	-0.072750
33.583333	1	-0.073875
33.600000	1	-0.074375
33.616667	1	-0.073750
33.633333	1	-0.074125
33.650000	1	-0.074000
33.666667	1	-0.074125
33.683333	1	-0.073750
33.700000	1	-0.073875
33.716667	1	-0.073375
33.733333	1	-0.073375
33.750000	1	-0.072375
33.766667	1	-0.072000
33.783333	1	-0.071125
33.800000	1	-0.070875
33.816667	1	-0.070125
33.833333	1	-0.069500
33.850000	1	-0.068875
33.866667	1	-0.067875
33.883333	1	-0.066750
33.900000	1	-0.066000
33.916667	1	-0.065625
33.933333	1	-0.064375
33.950000	1	-0.062750
33.966667	1	-0.061250
33.983333	1	-0.059375
34.000000	1	-0.057625
34.016667	1	-0.056625
34.033333	1	-0.055250
34.050000	1	-0.054125
34.066667	1	-0.052125
34.083333	1	-0.051000
34.100000	1	-0.049500
34.116667	1	-0.048125
34.133333	1	-0.046375
34.150000	1	-0.044875
34.166667	1	-0.043125
34.183333	1	-0.041500
34.200000	1	-0.039750
34.216667	1	-0.038625
34.233333	1	-0.037875
34.250000	1	-0.037500
34.266667	1	-0.036125
34.283333	1	-0.035625
34.300000	1	-0.035375
34.316667	1	-0.035875
34.333333	1	-0.035750
34.350000	1	-0.035875
34.366667	1	-0.036125
34.383333	1	-0.036625
34.400000	1	-0.037250
34.416667	1	-0.038375
34.433333	1	-0.039250
34.450000	1	-0.041000
34.466667	1	-0.042625
34.483333	1	-0.044500
34.500000	1	-0.046500
34.516667	1	-0.048125
34.533333	1	-0.050250
34.550000	1	-0.052250
34.566667	1	-0.054250
34.583333	1	-0.056000
34.600000	1	-0.059000
34.616667	1	-0.060875
34.633333	1	-0.063375
34.650000	1	-0.065500
34.666667	1	-0.067500
34.683333	1	-0.068750
34.700000	1	-0.070625
34.716667	1	-0.072875
34.733333	1	-0.074500
34.750000	1	-0.076250
34.766667	1	-0.077875
34.783333	1	-0.079750
34.800000	1	-0.081500
34.816667	1	-0.082750
34.833333	1	-0.083375
34.850000	1	-0.084500
34.866667	1	-0.085500
34.883333	1	-0.086500
34.900000	1	-0.087500
34.916667	1	-0.087625
34.933333	1	-0.088250
34.950000	1	-0.088625
34.966667	1	-0.089375
34.983333	1	-0.089750
35.000000	1	-0.090375
35.016667	1	-0.090375
35.033333	1	-0.090875
35.050000	1	-0.091250
35.066667	1	-0.091125
35.083333	1	-0.091250
35.100000	1	-0.091125
35.116667	1	-0.091000
35.133333	1	-0.091125
35.150000	1	-0.090500
35.166667	1	-0.090750
35.183333	1	-0.090375
35.200000	1	-0.090125
35.216667	1	-0.090125
35.233333	1	-0.090500
35.250000	1	-0.090250
35.266667	1	-0.089375
35.283333	1	-0.089375
35.300000	1	-0.089500
35.316667	1	-0.089625
35.333333	1	-0.088750
35.350000	1	-0.088875
35.366667	1	-0.088250
35.383333	1	-0.088125
35.400000	1	-0.088625
35.416667	1	-0.088500
35.433333	1	-0.088125
35.450000	1	-0.088125
35.466667	1	-0.087750
35.483333	1	-0.087500
35.500000	1	-0.087750
35.516667	1	-0.087125
35.533333	1	-0.087125
35.550000	1	-0.087000
35.566667	1	-0.086250
35.583333	1	-0.086625
35.600000	1	-0.086750
35.616667	1	-0.086500
35.633333	1	-0.086375
35.650000	1	-0.086000
35.666667	1	-0.086000
35.683333	1	-0.085875
35.700000	1	-0.085500
35.716667	1	-0.085000
35.733333	1	-0.085125
35.750000	1	-0.085125
35.766667	1	-0.084875
35.783333	1	-0.084000
35.800000	1	-0.083250
35.816667	1	-0.083125
35.833333	1	-0.082875
35.850000	1	-0.082000
35.866667	1	-0.082000
35.883333	1	-0.082000
35.900000	1	-0.081875
35.916667	1	-0.080875
35.933333	1	-0.080500
35.950000	1	-0.079750
35.966667	1	-0.079500
35.983333	1	-0.080125
36.000000	1	-0.079625
36.016667	1	-0.079625
36.033333	1	-0.079750
36.050000	1	-0.079625
36.066667	1	-0.079750
36.083333	1	-0.080000
36.100000	1	-0.080000
36.116667	1	-0.079625
36.133333	1	-0.079750
36.150000	1	-0.079750
36.166667	1	-0.078750
36.183333	1	-0.079250
36.200000	1	-0.079375
36.216667	1	-0.079375
36.233333	1	-0.079500
36.250000	1	-0.079500
36.266667	1	-0.079875
36.283333	1	-0.080625
36.300000	1	-0.080875
36.316667	1	-0.081000
36.333333	1	-0.081625
36.350000	1	-0.081625
36.366667	1	-0.082750
36.383333	1	-0.083375
36.400000	1	-0.084625
36.416667	1	-0.085125
36.433333	1	-0.084875
36.450000	1	-0.085750
36.466667	1	-0.086500
36.483333	1	-0.087875
36.500000	1	-0.088000
36.516667	1	-0.088000
36.533333	1	-0.088625
36.550000	1	-0.088875
36.566667	1	-0.089500
36.583333	1	-0.090125
36.600000	1	-0.090750
36.616667	1	-0.090750
36.633333	1	-0.091000
36.650000	1	-0.091250
36.666667	1	-0.091375
36.683333	1	-0.091750
36.700000	1	-0.092125
36.716667	1	-0.092125
36.733333	1	-0.092750
36.750000	1	-0.093250
36.766667	1	-0.093250
36.783333	1	-0.093875
36.800000	1	-0.093500
36.816667	1	-0.093375
36.833333	1	-0.093625
36.850000	1	-0.093500
36.866667	1	-0.093250
36.883333	1	-0.093625
36.900000	1	-0.092500
36.916667	1	-0.092375
36.933333	1	-0.091625
36.950000	1	-0.091750
36.966667	1	-0.091125
36.983333	1	-0.090875
37.000000	1	-0.089875
37.016667	1	-0.089500
37.033333	1	-0.089000
37.050000	1	-0.088250
37.066667	1	-0.087750
37.083333	1	-0.087125
37.100000	1	-0.086625
37.116667	1	-0.085625
37.133333	1	-0.084750
37.150000	1	-0.083500
37.166667	1	-0.083125
37.183333	1	-0.082875
37.200000	1	-0.082500
37.216667	1	-0.081875
37.233333	1	-0.081750
37.250000	1	-0.081250
37.266667	1	-0.081375
37.283333	1	-0.080375
37.300000	1	-0.079875
37.316667	1	-0.080000
37.333333	1	-0.079500
37.350000	1	-0.078250
37.366667	1	-0.077375
37.383333	1	-0.077000
37.400000	1	-0.076375
37.416667	1	-0.076125
37.433333	1	-0.076375
37.450000	1	-0.076000
37.466667	1	-0.075875
37.483333	1	-0.076000
37.500000	1	-0.075875
37.516667	1	-0.076125
37.533333	1	-0.076625
37.550000	1	-0.077375
37.566667	1	-0.077000
37.583333	1	-0.077875
37.600000	1	-0.078000
37.616667	1	-0.078750
37.633333	1	-0.079000
37.650000	1	-0.079375
37.666667	1	-0.080125
37.683333	1	-0.080375
37.700000	1	-0.080750
37.716667	1	-0.081625
37.733333	1	-0.082000
37.750000	1	-0.082250
37.766667	1	-0.083750
37.783333	1	-0.083875
37.800000	1	-0.085125
37.816667	1	-0.085625
37.833333	1	-0.086875
37.850000	1	-0.086750
37.866667	1	-0.087125
37.883333	1	-0.087375
37.900000	1	-0.088250
37.916667	1	-0.088750
37.933333	1	-0.089500
37.950000	1	-0.089500
37.966667	1	-0.089500
37.983333	1	-0.089375
38.000000	1	-0.090125
38.016667	1	-0.091000
38.033333	1	-0.091375
38.050000	1	-0.091250
38.066667	1	-0.092125
38.083333	1	-0.092125
38.100000	1	-0.092250
38.116667	1	-0.092250
38.133333	1	-0.092375
38.150000	1	-0.093000
38.166667	1	-0.093375
38.183333	1	-0.093250
38.200000	1	-0.093125
38.216667	1	-0.094125
38.233333	1	-0.093750
38.250000	1	-0.093625
38.266667	1	-0.093625
38.283333	1	-0.093750
38.300000	1	-0.094000
38.316667	1	-0.093750
38.333333	1	-0.093875
38.350000	1	-0.093875
38.366667	1	-0.093625
38.383333	1	-0.093625
38.400000	1	-0.093750
38.416667	1	-0.093500
38.433333	1	-0.093375
38.450000	1	-0.092875
38.466667	1	-0.092375
38.483333	1	-0.091750
38.500000	1	-0.092375
38.516667	1	-0.092375
38.533333	1	-0.091625
38.550000	1	-0.091000
38.566667	1	-0.090500
38.583333	1	-0.089625
38.600000	1	-0.089500
38.616667	1	-0.088500
38.633333	1	-0.088250
38.650000	1	-0.087500
38.666667	1	-0.086750
38.683333	1	-0.086000
38.700000	1	-0.085125
38.716667	1	-0.084125
38.733333	1	-0.083625
38.750000	1	-0.083000
38.766667	1	-0.081500
38.783333	1	-0.080875
38.800000	1	-0.079625
38.816667	1	-0.077750
38.833333	1	-0.077000
38.850000	1	-0.075875
38.866667	1	-0.074250
38.883333	1	-0.073250
38.900000	1	-0.072000
38.916667	1	-0.071125
38.933333	1	-0.070000
38.950000	1	-0.068625
38.966667	1	-0.067500
38.983333	1	-0.066125
39.000000	1	-0.064875
39.016667	1	-0.063625
39.033333	1	-0.062625
39.050000	1	-0.061500
39.066667	1	-0.060125
39.083333	1	-0.058750
39.100000	1	-0.057625
39.116667	1	-0.056750
39.133333	1	-0.055875
39.150000	1	-0.055000
39.166667	1	-0.054375
39.183333	1	-0.053625
39.200000	1	-0.053750
39.216667	1	-0.053250
39.233333	1	-0.052625
39.250000	1	-0.051875
39.266667	1	-0.051625
39.283333	1	-0.051125
39.300000	1	-0.050500
39.316667	1	-0.050625
39.333333	1	-0.051250
39.350000	1	-0.051625
39.366667	1	-0.051875
39.383333	1	-0.052250
39.400000	1	-0.052750
39.416667	1	-0.053500
39.433333	1	-0.054375
39.450000	1	-0.054750
39.466667	1	-0.055750
39.483333	1	-0.056625
39.500000	1	-0.057250
39.516667	1	-0.058750
39.533333	1	-0.060125
39.550000	1	-0.060750
39.566667	1	-0.061625
39.583333	1	-0.062625
39.600000	1	-0.063375
39.616667	1	-0.064750
39.633333	1	-0.066000
39.650000	1	-0.066625
39.666667	1	-0.067375
39.683333	1	-0.068500
39.700000	1	-0.069750
39.716667	1	-0.070750
39.733333	1	-0.072000
39.750000	1	-0.073125
39.766667	1	-0.074375
39.783333	1	-0.074875
39.800000	1	-0.075875
39.816667	1	-0.077625
39.833333	1	-0.078750
39.850000	1	-0.079500
39.866667	1	-0.080375
39.883333	1	-0.080750
39.900000	1	-0.080750
39.916667	1	-0.081375
39.933333	1	-0.082375
39.950000	1	-0.082625
39.966667	1	-0.082750
39.983333	1	-0.083000
40.000000	1	-0.083250
