File Path	chrom://marshall/Chromeleon7/HPLC_Ultimate_3000/Users/markusar/20230531_CMO_stabTest _FP08_FP09.seq/433.smp/RI_1.channel/RI_1.chm
Channel	RI_1

Injection Information:
Data Vault	Chromeleon7
Injection	STD_02.1_Glu_Malt_FP_07
Injection Number	94
Position	BG4
Comment	
Processing Method	
Instrument Method	run_25B_method
Type	Unknown
Status	Finished
Injection Date	04.06.2023
Injection Time	06:10:52
Injection Volume (µl)	20.000
Dilution Factor	1.0000
Weight	1.0000

Chromatogram Data Information:
Time Min. (min)	0.000000
Time Max. (min)	40.000000
Data Points	2401
Detector	RI
Generating Data System	Chromeleon 7.2.5.9507
Exporting Data System	Chromeleon 7.2.5.0
Operator	Instrument Controller
Signal Quantity	Refractive 
Signal Unit	µRIU
Signal Min.	-6.762875
Signal Max.	27.889125
Channel	RI_1
Driver Name	RID520Driver.dll
Channel Type	Evaluation
Min. Step (s)	1
Max. Step (s)	1
Average Step (s)	1

Signal Parameter Information:
Signal Info	

Chromatogram Data:
Time (min)	Step (s)	Value (µRIU)
0.000000	n.a.	-0.008625
0.016667	1	-0.009500
0.033333	1	-0.010125
0.050000	1	-0.010000
0.066667	1	-0.010375
0.083333	1	-0.010250
0.100000	1	-0.009875
0.116667	1	-0.009875
0.133333	1	-0.010000
0.150000	1	-0.010375
0.166667	1	-0.011125
0.183333	1	-0.011125
0.200000	1	-0.010625
0.216667	1	-0.010125
0.233333	1	-0.009625
0.250000	1	-0.010250
0.266667	1	-0.009750
0.283333	1	-0.010250
0.300000	1	-0.010750
0.316667	1	-0.011875
0.333333	1	-0.013375
0.350000	1	-0.012125
0.366667	1	-0.009375
0.383333	1	-0.006000
0.400000	1	-0.002500
0.416667	1	0.000375
0.433333	1	0.001000
0.450000	1	0.000750
0.466667	1	0.000000
0.483333	1	-0.000625
0.500000	1	-0.000625
0.516667	1	-0.000250
0.533333	1	-0.000125
0.550000	1	-0.000250
0.566667	1	0.000250
0.583333	1	0.000375
0.600000	1	0.001000
0.616667	1	0.001000
0.633333	1	0.001250
0.650000	1	0.002750
0.666667	1	0.003625
0.683333	1	0.004250
0.700000	1	0.004125
0.716667	1	0.004750
0.733333	1	0.005125
0.750000	1	0.006375
0.766667	1	0.006875
0.783333	1	0.006875
0.800000	1	0.008375
0.816667	1	0.008625
0.833333	1	0.009000
0.850000	1	0.009750
0.866667	1	0.010375
0.883333	1	0.010875
0.900000	1	0.011125
0.916667	1	0.011500
0.933333	1	0.011875
0.950000	1	0.012125
0.966667	1	0.012000
0.983333	1	0.012000
1.000000	1	0.012000
1.016667	1	0.012000
1.033333	1	0.012500
1.050000	1	0.012500
1.066667	1	0.012750
1.083333	1	0.012750
1.100000	1	0.012500
1.116667	1	0.011625
1.133333	1	0.011625
1.150000	1	0.011500
1.166667	1	0.011750
1.183333	1	0.010125
1.200000	1	0.009500
1.216667	1	0.009000
1.233333	1	0.008625
1.250000	1	0.007625
1.266667	1	0.007750
1.283333	1	0.006750
1.300000	1	0.006000
1.316667	1	0.005250
1.333333	1	0.004625
1.350000	1	0.004500
1.366667	1	0.003625
1.383333	1	0.003000
1.400000	1	0.001500
1.416667	1	0.000500
1.433333	1	0.000125
1.450000	1	0.000000
1.466667	1	-0.000625
1.483333	1	-0.000875
1.500000	1	-0.001500
1.516667	1	-0.002750
1.533333	1	-0.002750
1.550000	1	-0.003250
1.566667	1	-0.003500
1.583333	1	-0.003375
1.600000	1	-0.004000
1.616667	1	-0.004250
1.633333	1	-0.004750
1.650000	1	-0.005000
1.666667	1	-0.004875
1.683333	1	-0.004875
1.700000	1	-0.005000
1.716667	1	-0.005125
1.733333	1	-0.005375
1.750000	1	-0.005875
1.766667	1	-0.006125
1.783333	1	-0.006750
1.800000	1	-0.006625
1.816667	1	-0.007000
1.833333	1	-0.006875
1.850000	1	-0.006375
1.866667	1	-0.005875
1.883333	1	-0.006125
1.900000	1	-0.006125
1.916667	1	-0.006875
1.933333	1	-0.007000
1.950000	1	-0.006875
1.966667	1	-0.007375
1.983333	1	-0.007125
2.000000	1	-0.007375
2.016667	1	-0.007125
2.033333	1	-0.007250
2.050000	1	-0.007875
2.066667	1	-0.008000
2.083333	1	-0.008500
2.100000	1	-0.009375
2.116667	1	-0.009375
2.133333	1	-0.010250
2.150000	1	-0.011000
2.166667	1	-0.011750
2.183333	1	-0.012000
2.200000	1	-0.012750
2.216667	1	-0.012500
2.233333	1	-0.013250
2.250000	1	-0.013000
2.266667	1	-0.013125
2.283333	1	-0.013625
2.300000	1	-0.014250
2.316667	1	-0.014750
2.333333	1	-0.015500
2.350000	1	-0.016250
2.366667	1	-0.017000
2.383333	1	-0.017500
2.400000	1	-0.018625
2.416667	1	-0.019750
2.433333	1	-0.020375
2.450000	1	-0.020375
2.466667	1	-0.021000
2.483333	1	-0.021375
2.500000	1	-0.022750
2.516667	1	-0.023500
2.533333	1	-0.024000
2.550000	1	-0.025375
2.566667	1	-0.025750
2.583333	1	-0.027125
2.600000	1	-0.027500
2.616667	1	-0.028000
2.633333	1	-0.027750
2.650000	1	-0.028125
2.666667	1	-0.028000
2.683333	1	-0.029125
2.700000	1	-0.029125
2.716667	1	-0.029500
2.733333	1	-0.029750
2.750000	1	-0.030000
2.766667	1	-0.030000
2.783333	1	-0.029250
2.800000	1	-0.028875
2.816667	1	-0.028875
2.833333	1	-0.028750
2.850000	1	-0.028125
2.866667	1	-0.027750
2.883333	1	-0.027500
2.900000	1	-0.027250
2.916667	1	-0.027250
2.933333	1	-0.026250
2.950000	1	-0.025875
2.966667	1	-0.024750
2.983333	1	-0.023375
3.000000	1	-0.022750
3.016667	1	-0.021875
3.033333	1	-0.021500
3.050000	1	-0.020625
3.066667	1	-0.019875
3.083333	1	-0.018750
3.100000	1	-0.017875
3.116667	1	-0.016750
3.133333	1	-0.015750
3.150000	1	-0.015625
3.166667	1	-0.013875
3.183333	1	-0.012750
3.200000	1	-0.011500
3.216667	1	-0.010375
3.233333	1	-0.010000
3.250000	1	-0.009000
3.266667	1	-0.007875
3.283333	1	-0.006625
3.300000	1	-0.005500
3.316667	1	-0.004625
3.333333	1	-0.004125
3.350000	1	-0.003000
3.366667	1	-0.002125
3.383333	1	-0.001125
3.400000	1	-0.000500
3.416667	1	0.000000
3.433333	1	0.000750
3.450000	1	0.001625
3.466667	1	0.002375
3.483333	1	0.003375
3.500000	1	0.004125
3.516667	1	0.003750
3.533333	1	0.004125
3.550000	1	0.005250
3.566667	1	0.005250
3.583333	1	0.006125
3.600000	1	0.006375
3.616667	1	0.007125
3.633333	1	0.008000
3.650000	1	0.008750
3.666667	1	0.009000
3.683333	1	0.008625
3.700000	1	0.008625
3.716667	1	0.009125
3.733333	1	0.009125
3.750000	1	0.009625
3.766667	1	0.009125
3.783333	1	0.009375
3.800000	1	0.009625
3.816667	1	0.010000
3.833333	1	0.010375
3.850000	1	0.010500
3.866667	1	0.010625
3.883333	1	0.010250
3.900000	1	0.010250
3.916667	1	0.010625
3.933333	1	0.010250
3.950000	1	0.010375
3.966667	1	0.010125
3.983333	1	0.010375
4.000000	1	0.010500
4.016667	1	0.010875
4.033333	1	0.010250
4.050000	1	0.010000
4.066667	1	0.010500
4.083333	1	0.010375
4.100000	1	0.009375
4.116667	1	0.009500
4.133333	1	0.009375
4.150000	1	0.009375
4.166667	1	0.009125
4.183333	1	0.008750
4.200000	1	0.008750
4.216667	1	0.009250
4.233333	1	0.010000
4.250000	1	0.009500
4.266667	1	0.009500
4.283333	1	0.009625
4.300000	1	0.009250
4.316667	1	0.008875
4.333333	1	0.008875
4.350000	1	0.009000
4.366667	1	0.008875
4.383333	1	0.008625
4.400000	1	0.008875
4.416667	1	0.008875
4.433333	1	0.009125
4.450000	1	0.008750
4.466667	1	0.008750
4.483333	1	0.009250
4.500000	1	0.009375
4.516667	1	0.009000
4.533333	1	0.009250
4.550000	1	0.009000
4.566667	1	0.009375
4.583333	1	0.009500
4.600000	1	0.009375
4.616667	1	0.009500
4.633333	1	0.009250
4.650000	1	0.009625
4.666667	1	0.009375
4.683333	1	0.009000
4.700000	1	0.008875
4.716667	1	0.009500
4.733333	1	0.009375
4.750000	1	0.008500
4.766667	1	0.008750
4.783333	1	0.008375
4.800000	1	0.008125
4.816667	1	0.008125
4.833333	1	0.007750
4.850000	1	0.007500
4.866667	1	0.007500
4.883333	1	0.006875
4.900000	1	0.005875
4.916667	1	0.005625
4.933333	1	0.005625
4.950000	1	0.005125
4.966667	1	0.005125
4.983333	1	0.005375
5.000000	1	0.005250
5.016667	1	0.004625
5.033333	1	0.004125
5.050000	1	0.004000
5.066667	1	0.003625
5.083333	1	0.003250
5.100000	1	0.002500
5.116667	1	0.001750
5.133333	1	0.001250
5.150000	1	0.001125
5.166667	1	0.001125
5.183333	1	0.001250
5.200000	1	0.001125
5.216667	1	0.000875
5.233333	1	0.000250
5.250000	1	-0.000375
5.266667	1	-0.001000
5.283333	1	-0.001250
5.300000	1	-0.001125
5.316667	1	-0.002000
5.333333	1	-0.002375
5.350000	1	-0.002250
5.366667	1	-0.002750
5.383333	1	-0.003000
5.400000	1	-0.002750
5.416667	1	-0.003000
5.433333	1	-0.002625
5.450000	1	-0.002875
5.466667	1	-0.002875
5.483333	1	-0.003625
5.500000	1	-0.003625
5.516667	1	-0.004000
5.533333	1	-0.004125
5.550000	1	-0.004125
5.566667	1	-0.003625
5.583333	1	-0.003875
5.600000	1	-0.004125
5.616667	1	-0.003500
5.633333	1	-0.004000
5.650000	1	-0.003375
5.666667	1	-0.003500
5.683333	1	-0.003500
5.700000	1	-0.003625
5.716667	1	-0.003625
5.733333	1	-0.004125
5.750000	1	-0.004250
5.766667	1	-0.003500
5.783333	1	-0.002750
5.800000	1	-0.002375
5.816667	1	-0.001750
5.833333	1	-0.001875
5.850000	1	-0.002000
5.866667	1	-0.001750
5.883333	1	-0.001750
5.900000	1	-0.002000
5.916667	1	-0.001500
5.933333	1	-0.001750
5.950000	1	-0.001375
5.966667	1	-0.001375
5.983333	1	-0.001750
6.000000	1	-0.001000
6.016667	1	-0.000875
6.033333	1	-0.000625
6.050000	1	-0.001250
6.066667	1	-0.001375
6.083333	1	-0.001500
6.100000	1	-0.001625
6.116667	1	-0.002125
6.133333	1	-0.001875
6.150000	1	-0.002125
6.166667	1	-0.002125
6.183333	1	-0.002000
6.200000	1	-0.002625
6.216667	1	-0.003000
6.233333	1	-0.003375
6.250000	1	-0.003750
6.266667	1	-0.004250
6.283333	1	-0.004125
6.300000	1	-0.004500
6.316667	1	-0.004875
6.333333	1	-0.005500
6.350000	1	-0.005625
6.366667	1	-0.006500
6.383333	1	-0.007000
6.400000	1	-0.007750
6.416667	1	-0.008125
6.433333	1	-0.008125
6.450000	1	-0.008625
6.466667	1	-0.008625
6.483333	1	-0.009000
6.500000	1	-0.009500
6.516667	1	-0.009375
6.533333	1	-0.008875
6.550000	1	-0.009125
6.566667	1	-0.009250
6.583333	1	-0.009625
6.600000	1	-0.010000
6.616667	1	-0.010375
6.633333	1	-0.010375
6.650000	1	-0.010625
6.666667	1	-0.011250
6.683333	1	-0.011000
6.700000	1	-0.010625
6.716667	1	-0.010375
6.733333	1	-0.010750
6.750000	1	-0.011000
6.766667	1	-0.010500
6.783333	1	-0.009500
6.800000	1	-0.009500
6.816667	1	-0.009375
6.833333	1	-0.009625
6.850000	1	-0.009375
6.866667	1	-0.008500
6.883333	1	-0.007875
6.900000	1	-0.007375
6.916667	1	-0.006875
6.933333	1	-0.006500
6.950000	1	-0.006500
6.966667	1	-0.006125
6.983333	1	-0.005250
7.000000	1	-0.004875
7.016667	1	-0.004625
7.033333	1	-0.004375
7.050000	1	-0.003375
7.066667	1	-0.003125
7.083333	1	-0.002875
7.100000	1	-0.002875
7.116667	1	-0.002250
7.133333	1	-0.001375
7.150000	1	-0.000500
7.166667	1	0.000000
7.183333	1	0.000625
7.200000	1	0.000500
7.216667	1	0.001375
7.233333	1	0.002000
7.250000	1	0.002500
7.266667	1	0.003000
7.283333	1	0.003125
7.300000	1	0.003000
7.316667	1	0.003625
7.333333	1	0.004125
7.350000	1	0.004500
7.366667	1	0.004750
7.383333	1	0.005000
7.400000	1	0.005375
7.416667	1	0.005750
7.433333	1	0.006500
7.450000	1	0.006625
7.466667	1	0.007250
7.483333	1	0.006750
7.500000	1	0.007250
7.516667	1	0.007625
7.533333	1	0.007125
7.550000	1	0.006875
7.566667	1	0.007625
7.583333	1	0.008375
7.600000	1	0.008625
7.616667	1	0.008500
7.633333	1	0.009125
7.650000	1	0.009250
7.666667	1	0.009000
7.683333	1	0.008875
7.700000	1	0.009125
7.716667	1	0.009500
7.733333	1	0.009750
7.750000	1	0.009500
7.766667	1	0.010125
7.783333	1	0.010125
7.800000	1	0.009750
7.816667	1	0.010125
7.833333	1	0.010750
7.850000	1	0.010625
7.866667	1	0.010875
7.883333	1	0.011125
7.900000	1	0.011375
7.916667	1	0.011625
7.933333	1	0.011375
7.950000	1	0.011625
7.966667	1	0.011375
7.983333	1	0.011875
8.000000	1	0.012125
8.016667	1	0.011375
8.033333	1	0.011625
8.050000	1	0.012000
8.066667	1	0.012500
8.083333	1	0.012250
8.100000	1	0.012750
8.116667	1	0.013000
8.133333	1	0.013250
8.150000	1	0.013875
8.166667	1	0.014125
8.183333	1	0.014750
8.200000	1	0.015375
8.216667	1	0.015375
8.233333	1	0.015500
8.250000	1	0.015625
8.266667	1	0.015250
8.283333	1	0.015625
8.300000	1	0.015625
8.316667	1	0.016000
8.333333	1	0.016375
8.350000	1	0.016000
8.366667	1	0.016375
8.383333	1	0.016375
8.400000	1	0.016750
8.416667	1	0.016625
8.433333	1	0.016750
8.450000	1	0.016750
8.466667	1	0.017125
8.483333	1	0.017500
8.500000	1	0.017125
8.516667	1	0.016750
8.533333	1	0.016875
8.550000	1	0.017000
8.566667	1	0.017375
8.583333	1	0.017375
8.600000	1	0.017000
8.616667	1	0.016125
8.633333	1	0.016375
8.650000	1	0.016750
8.666667	1	0.016750
8.683333	1	0.016500
8.700000	1	0.016750
8.716667	1	0.016875
8.733333	1	0.016625
8.750000	1	0.016125
8.766667	1	0.015750
8.783333	1	0.015500
8.800000	1	0.015125
8.816667	1	0.015375
8.833333	1	0.015500
8.850000	1	0.015375
8.866667	1	0.014625
8.883333	1	0.014375
8.900000	1	0.013875
8.916667	1	0.013375
8.933333	1	0.013750
8.950000	1	0.013375
8.966667	1	0.012250
8.983333	1	0.012125
9.000000	1	0.011250
9.016667	1	0.011000
9.033333	1	0.010750
9.050000	1	0.009875
9.066667	1	0.009875
9.083333	1	0.009625
9.100000	1	0.009750
9.116667	1	0.009625
9.133333	1	0.008875
9.150000	1	0.008625
9.166667	1	0.008250
9.183333	1	0.007500
9.200000	1	0.007000
9.216667	1	0.006750
9.233333	1	0.006250
9.250000	1	0.006125
9.266667	1	0.006125
9.283333	1	0.006000
9.300000	1	0.005750
9.316667	1	0.005250
9.333333	1	0.004750
9.350000	1	0.004125
9.366667	1	0.003250
9.383333	1	0.002750
9.400000	1	0.002500
9.416667	1	0.002500
9.433333	1	0.002125
9.450000	1	0.002500
9.466667	1	0.002250
9.483333	1	0.002750
9.500000	1	0.003375
9.516667	1	0.004125
9.533333	1	0.004500
9.550000	1	0.005000
9.566667	1	0.005750
9.583333	1	0.006750
9.600000	1	0.007875
9.616667	1	0.008125
9.633333	1	0.008750
9.650000	1	0.009750
9.666667	1	0.011000
9.683333	1	0.011875
9.700000	1	0.013250
9.716667	1	0.013875
9.733333	1	0.013875
9.750000	1	0.014375
9.766667	1	0.014250
9.783333	1	0.014500
9.800000	1	0.014125
9.816667	1	0.013125
9.833333	1	0.012000
9.850000	1	0.008500
9.866667	1	0.003500
9.883333	1	-0.005125
9.900000	1	-0.020000
9.916667	1	-0.044375
9.933333	1	-0.083750
9.950000	1	-0.146125
9.966667	1	-0.243250
9.983333	1	-0.391375
10.000000	1	-0.609750
10.016667	1	-0.919000
10.033333	1	-1.334875
10.050000	1	-1.864000
10.066667	1	-2.501125
10.083333	1	-3.222875
10.100000	1	-3.988250
10.116667	1	-4.745125
10.133333	1	-5.436625
10.150000	1	-6.013000
10.166667	1	-6.436625
10.183333	1	-6.687750
10.200000	1	-6.762875
10.216667	1	-6.672500
10.233333	1	-6.437125
10.250000	1	-6.086500
10.266667	1	-5.651500
10.283333	1	-5.162250
10.300000	1	-4.647000
10.316667	1	-4.130250
10.333333	1	-3.631125
10.350000	1	-3.163125
10.366667	1	-2.735125
10.383333	1	-2.352500
10.400000	1	-2.015250
10.416667	1	-1.722750
10.433333	1	-1.471375
10.450000	1	-1.255750
10.466667	1	-1.072125
10.483333	1	-0.915750
10.500000	1	-0.782000
10.516667	1	-0.668000
10.533333	1	-0.570000
10.550000	1	-0.485125
10.566667	1	-0.412875
10.583333	1	-0.350500
10.600000	1	-0.296375
10.616667	1	-0.251000
10.633333	1	-0.212375
10.650000	1	-0.179000
10.666667	1	-0.151250
10.683333	1	-0.127375
10.700000	1	-0.106875
10.716667	1	-0.089375
10.733333	1	-0.074125
10.750000	1	-0.061625
10.766667	1	-0.050125
10.783333	1	-0.040750
10.800000	1	-0.032125
10.816667	1	-0.022875
10.833333	1	-0.015000
10.850000	1	-0.008250
10.866667	1	-0.001875
10.883333	1	0.004375
10.900000	1	0.009125
10.916667	1	0.012750
10.933333	1	0.015625
10.950000	1	0.017375
10.966667	1	0.018500
10.983333	1	0.018125
11.000000	1	0.017375
11.016667	1	0.016125
11.033333	1	0.014500
11.050000	1	0.012000
11.066667	1	0.009625
11.083333	1	0.007000
11.100000	1	0.005000
11.116667	1	0.003250
11.133333	1	0.001250
11.150000	1	0.000000
11.166667	1	-0.001625
11.183333	1	-0.001750
11.200000	1	-0.002125
11.216667	1	-0.001875
11.233333	1	-0.000750
11.250000	1	0.000625
11.266667	1	0.002250
11.283333	1	0.004750
11.300000	1	0.007750
11.316667	1	0.011250
11.333333	1	0.015875
11.350000	1	0.021875
11.366667	1	0.029500
11.383333	1	0.038000
11.400000	1	0.047500
11.416667	1	0.058375
11.433333	1	0.069625
11.450000	1	0.081250
11.466667	1	0.091875
11.483333	1	0.101625
11.500000	1	0.110000
11.516667	1	0.116625
11.533333	1	0.120750
11.550000	1	0.122125
11.566667	1	0.122375
11.583333	1	0.119250
11.600000	1	0.115125
11.616667	1	0.109375
11.633333	1	0.102375
11.650000	1	0.094875
11.666667	1	0.087125
11.683333	1	0.079000
11.700000	1	0.071625
11.716667	1	0.065125
11.733333	1	0.058750
11.750000	1	0.053500
11.766667	1	0.048375
11.783333	1	0.043625
11.800000	1	0.039875
11.816667	1	0.036125
11.833333	1	0.033125
11.850000	1	0.030875
11.866667	1	0.029500
11.883333	1	0.027750
11.900000	1	0.026875
11.916667	1	0.026500
11.933333	1	0.025875
11.950000	1	0.026875
11.966667	1	0.027875
11.983333	1	0.029625
12.000000	1	0.031875
12.016667	1	0.035625
12.033333	1	0.040125
12.050000	1	0.045750
12.066667	1	0.053375
12.083333	1	0.063500
12.100000	1	0.075750
12.116667	1	0.091000
12.133333	1	0.109500
12.150000	1	0.132875
12.166667	1	0.161875
12.183333	1	0.197625
12.200000	1	0.239875
12.216667	1	0.291375
12.233333	1	0.353125
12.250000	1	0.426625
12.266667	1	0.515000
12.283333	1	0.620625
12.300000	1	0.748375
12.316667	1	0.904375
12.333333	1	1.096750
12.350000	1	1.338125
12.366667	1	1.647000
12.383333	1	2.045000
12.400000	1	2.561375
12.416667	1	3.227250
12.433333	1	4.080500
12.450000	1	5.156625
12.466667	1	6.486375
12.483333	1	8.087375
12.500000	1	9.958500
12.516667	1	12.074625
12.533333	1	14.383125
12.550000	1	16.803375
12.566667	1	19.232625
12.583333	1	21.554500
12.600000	1	23.648125
12.616667	1	25.402000
12.633333	1	26.728750
12.650000	1	27.566750
12.666667	1	27.889125
12.683333	1	27.701500
12.700000	1	27.039750
12.716667	1	25.966750
12.733333	1	24.561000
12.750000	1	22.908625
12.766667	1	21.097625
12.783333	1	19.207125
12.800000	1	17.307250
12.816667	1	15.454125
12.833333	1	13.688875
12.850000	1	12.038500
12.866667	1	10.521000
12.883333	1	9.143375
12.900000	1	7.908000
12.916667	1	6.811500
12.933333	1	5.848625
12.950000	1	5.008875
12.966667	1	4.281500
12.983333	1	3.656625
13.000000	1	3.122750
13.016667	1	2.669125
13.033333	1	2.285125
13.050000	1	1.960500
13.066667	1	1.687500
13.083333	1	1.457875
13.100000	1	1.265375
13.116667	1	1.102500
13.133333	1	0.965500
13.150000	1	0.849500
13.166667	1	0.750875
13.183333	1	0.666625
13.200000	1	0.594750
13.216667	1	0.532625
13.233333	1	0.477625
13.250000	1	0.430000
13.266667	1	0.387750
13.283333	1	0.351125
13.300000	1	0.317875
13.316667	1	0.288500
13.333333	1	0.261625
13.350000	1	0.237625
13.366667	1	0.216375
13.383333	1	0.196875
13.400000	1	0.179875
13.416667	1	0.164125
13.433333	1	0.150375
13.450000	1	0.137625
13.466667	1	0.126625
13.483333	1	0.116250
13.500000	1	0.106625
13.516667	1	0.098250
13.533333	1	0.090000
13.550000	1	0.082500
13.566667	1	0.076500
13.583333	1	0.070750
13.600000	1	0.065625
13.616667	1	0.061250
13.633333	1	0.057375
13.650000	1	0.053375
13.666667	1	0.050500
13.683333	1	0.047250
13.700000	1	0.044375
13.716667	1	0.042250
13.733333	1	0.040125
13.750000	1	0.038000
13.766667	1	0.036125
13.783333	1	0.034750
13.800000	1	0.033125
13.816667	1	0.032000
13.833333	1	0.030625
13.850000	1	0.029500
13.866667	1	0.029625
13.883333	1	0.028250
13.900000	1	0.028125
13.916667	1	0.027500
13.933333	1	0.027375
13.950000	1	0.026250
13.966667	1	0.025625
13.983333	1	0.025500
14.000000	1	0.025750
14.016667	1	0.025500
14.033333	1	0.026250
14.050000	1	0.027250
14.066667	1	0.027375
14.083333	1	0.027125
14.100000	1	0.027000
14.116667	1	0.027375
14.133333	1	0.028250
14.150000	1	0.028750
14.166667	1	0.029125
14.183333	1	0.030125
14.200000	1	0.031000
14.216667	1	0.032500
14.233333	1	0.033750
14.250000	1	0.035875
14.266667	1	0.038500
14.283333	1	0.041750
14.300000	1	0.044750
14.316667	1	0.048500
14.333333	1	0.053500
14.350000	1	0.059000
14.366667	1	0.065375
14.383333	1	0.073875
14.400000	1	0.083750
14.416667	1	0.095500
14.433333	1	0.109750
14.450000	1	0.125500
14.466667	1	0.145250
14.483333	1	0.168375
14.500000	1	0.194750
14.516667	1	0.226375
14.533333	1	0.263125
14.550000	1	0.306000
14.566667	1	0.356125
14.583333	1	0.414875
14.600000	1	0.483750
14.616667	1	0.567500
14.633333	1	0.669250
14.650000	1	0.792625
14.666667	1	0.945000
14.683333	1	1.134500
14.700000	1	1.371125
14.716667	1	1.665750
14.733333	1	2.029125
14.750000	1	2.472500
14.766667	1	3.006250
14.783333	1	3.634000
14.800000	1	4.356250
14.816667	1	5.169750
14.833333	1	6.059125
14.850000	1	7.004375
14.866667	1	7.978750
14.883333	1	8.946500
14.900000	1	9.869875
14.916667	1	10.710250
14.933333	1	11.430500
14.950000	1	12.001500
14.966667	1	12.400500
14.983333	1	12.614000
15.000000	1	12.640250
15.016667	1	12.485625
15.033333	1	12.166125
15.050000	1	11.702875
15.066667	1	11.122000
15.083333	1	10.453625
15.100000	1	9.725375
15.116667	1	8.963875
15.133333	1	8.194250
15.150000	1	7.434750
15.166667	1	6.701750
15.183333	1	6.006750
15.200000	1	5.357125
15.216667	1	4.757625
15.233333	1	4.209125
15.250000	1	3.712125
15.266667	1	3.265000
15.283333	1	2.865125
15.300000	1	2.509125
15.316667	1	2.194750
15.333333	1	1.917000
15.350000	1	1.674125
15.366667	1	1.460625
15.383333	1	1.275000
15.400000	1	1.114250
15.416667	1	0.974375
15.433333	1	0.853625
15.450000	1	0.749625
15.466667	1	0.660125
15.483333	1	0.582750
15.500000	1	0.516250
15.516667	1	0.460000
15.533333	1	0.410500
15.550000	1	0.367875
15.566667	1	0.331375
15.583333	1	0.299625
15.600000	1	0.272125
15.616667	1	0.247500
15.633333	1	0.226250
15.650000	1	0.207500
15.666667	1	0.191750
15.683333	1	0.176875
15.700000	1	0.163750
15.716667	1	0.152000
15.733333	1	0.142000
15.750000	1	0.132125
15.766667	1	0.123500
15.783333	1	0.115375
15.800000	1	0.108250
15.816667	1	0.102125
15.833333	1	0.096375
15.850000	1	0.091750
15.866667	1	0.086875
15.883333	1	0.082500
15.900000	1	0.078625
15.916667	1	0.074625
15.933333	1	0.071625
15.950000	1	0.068375
15.966667	1	0.065125
15.983333	1	0.062500
16.000000	1	0.060500
16.016667	1	0.059000
16.033333	1	0.058000
16.050000	1	0.056375
16.066667	1	0.054125
16.083333	1	0.052750
16.100000	1	0.051125
16.116667	1	0.050750
16.133333	1	0.049375
16.150000	1	0.048375
16.166667	1	0.047875
16.183333	1	0.047125
16.200000	1	0.046375
16.216667	1	0.046125
16.233333	1	0.045375
16.250000	1	0.044500
16.266667	1	0.044375
16.283333	1	0.043625
16.300000	1	0.042750
16.316667	1	0.041875
16.333333	1	0.041125
16.350000	1	0.040375
16.366667	1	0.040125
16.383333	1	0.039375
16.400000	1	0.039625
16.416667	1	0.039750
16.433333	1	0.039750
16.450000	1	0.040125
16.466667	1	0.039875
16.483333	1	0.039875
16.500000	1	0.039750
16.516667	1	0.040000
16.533333	1	0.040250
16.550000	1	0.039500
16.566667	1	0.039625
16.583333	1	0.040125
16.600000	1	0.040250
16.616667	1	0.040875
16.633333	1	0.041500
16.650000	1	0.041375
16.666667	1	0.042125
16.683333	1	0.042625
16.700000	1	0.042375
16.716667	1	0.043125
16.733333	1	0.043375
16.750000	1	0.043125
16.766667	1	0.043875
16.783333	1	0.044500
16.800000	1	0.044500
16.816667	1	0.045375
16.833333	1	0.045500
16.850000	1	0.045500
16.866667	1	0.046125
16.883333	1	0.046500
16.900000	1	0.046875
16.916667	1	0.047625
16.933333	1	0.047875
16.950000	1	0.048000
16.966667	1	0.048000
16.983333	1	0.048750
17.000000	1	0.049125
17.016667	1	0.048875
17.033333	1	0.048875
17.050000	1	0.048250
17.066667	1	0.048625
17.083333	1	0.048125
17.100000	1	0.047875
17.116667	1	0.047500
17.133333	1	0.047000
17.150000	1	0.046625
17.166667	1	0.046375
17.183333	1	0.046000
17.200000	1	0.045500
17.216667	1	0.044875
17.233333	1	0.044000
17.250000	1	0.043625
17.266667	1	0.042375
17.283333	1	0.042250
17.300000	1	0.041375
17.316667	1	0.040375
17.333333	1	0.039875
17.350000	1	0.039250
17.366667	1	0.038625
17.383333	1	0.038000
17.400000	1	0.036875
17.416667	1	0.036625
17.433333	1	0.036000
17.450000	1	0.035250
17.466667	1	0.034125
17.483333	1	0.033000
17.500000	1	0.032125
17.516667	1	0.031625
17.533333	1	0.031125
17.550000	1	0.030500
17.566667	1	0.029875
17.583333	1	0.029875
17.600000	1	0.029000
17.616667	1	0.028625
17.633333	1	0.027375
17.650000	1	0.026625
17.666667	1	0.025625
17.683333	1	0.026000
17.700000	1	0.025875
17.716667	1	0.025500
17.733333	1	0.025250
17.750000	1	0.024000
17.766667	1	0.023250
17.783333	1	0.023750
17.800000	1	0.023625
17.816667	1	0.023625
17.833333	1	0.024375
17.850000	1	0.023750
17.866667	1	0.024250
17.883333	1	0.024625
17.900000	1	0.024500
17.916667	1	0.024375
17.933333	1	0.024125
17.950000	1	0.023625
17.966667	1	0.024250
17.983333	1	0.023250
18.000000	1	0.022750
18.016667	1	0.022750
18.033333	1	0.022875
18.050000	1	0.022000
18.066667	1	0.020875
18.083333	1	0.021125
18.100000	1	0.021000
18.116667	1	0.021375
18.133333	1	0.020625
18.150000	1	0.020125
18.166667	1	0.019625
18.183333	1	0.019125
18.200000	1	0.019125
18.216667	1	0.018875
18.233333	1	0.018625
18.250000	1	0.018375
18.266667	1	0.018375
18.283333	1	0.017875
18.300000	1	0.017875
18.316667	1	0.017375
18.333333	1	0.017375
18.350000	1	0.017125
18.366667	1	0.017625
18.383333	1	0.017500
18.400000	1	0.017875
18.416667	1	0.017875
18.433333	1	0.018250
18.450000	1	0.017625
18.466667	1	0.017750
18.483333	1	0.017750
18.500000	1	0.018125
18.516667	1	0.018125
18.533333	1	0.018750
18.550000	1	0.019125
18.566667	1	0.019250
18.583333	1	0.020250
18.600000	1	0.021250
18.616667	1	0.022000
18.633333	1	0.022375
18.650000	1	0.023000
18.666667	1	0.023500
18.683333	1	0.024875
18.700000	1	0.025500
18.716667	1	0.026000
18.733333	1	0.026375
18.750000	1	0.027500
18.766667	1	0.028125
18.783333	1	0.029625
18.800000	1	0.030750
18.816667	1	0.031625
18.833333	1	0.032125
18.850000	1	0.033125
18.866667	1	0.034250
18.883333	1	0.035375
18.900000	1	0.036250
18.916667	1	0.037750
18.933333	1	0.038625
18.950000	1	0.040125
18.966667	1	0.041000
18.983333	1	0.042125
19.000000	1	0.043000
19.016667	1	0.044250
19.033333	1	0.045000
19.050000	1	0.045625
19.066667	1	0.046625
19.083333	1	0.047750
19.100000	1	0.049250
19.116667	1	0.050500
19.133333	1	0.051750
19.150000	1	0.053375
19.166667	1	0.055250
19.183333	1	0.057500
19.200000	1	0.059500
19.216667	1	0.061875
19.233333	1	0.063875
19.250000	1	0.066375
19.266667	1	0.068750
19.283333	1	0.072250
19.300000	1	0.076250
19.316667	1	0.081250
19.333333	1	0.086500
19.350000	1	0.092000
19.366667	1	0.098875
19.383333	1	0.105500
19.400000	1	0.113000
19.416667	1	0.121375
19.433333	1	0.131375
19.450000	1	0.142875
19.466667	1	0.155375
19.483333	1	0.169500
19.500000	1	0.185125
19.516667	1	0.202375
19.533333	1	0.222625
19.550000	1	0.245500
19.566667	1	0.271375
19.583333	1	0.300750
19.600000	1	0.334875
19.616667	1	0.374375
19.633333	1	0.420750
19.650000	1	0.475125
19.666667	1	0.538375
19.683333	1	0.614250
19.700000	1	0.703500
19.716667	1	0.808750
19.733333	1	0.932000
19.750000	1	1.075375
19.766667	1	1.240625
19.783333	1	1.429750
19.800000	1	1.641250
19.816667	1	1.875375
19.833333	1	2.130250
19.850000	1	2.403500
19.866667	1	2.690500
19.883333	1	2.985750
19.900000	1	3.283250
19.916667	1	3.574875
19.933333	1	3.854875
19.950000	1	4.115125
19.966667	1	4.349375
19.983333	1	4.550875
20.000000	1	4.714875
20.016667	1	4.837500
20.033333	1	4.916875
20.050000	1	4.952500
20.066667	1	4.945500
20.083333	1	4.898000
20.100000	1	4.815000
20.116667	1	4.700375
20.133333	1	4.559500
20.150000	1	4.399250
20.166667	1	4.227125
20.183333	1	4.049375
20.200000	1	3.872250
20.216667	1	3.701000
20.233333	1	3.541875
20.250000	1	3.400500
20.266667	1	3.280500
20.283333	1	3.185875
20.300000	1	3.119125
20.316667	1	3.080875
20.333333	1	3.071375
20.350000	1	3.090500
20.366667	1	3.135250
20.383333	1	3.203000
20.400000	1	3.289625
20.416667	1	3.389625
20.433333	1	3.497375
20.450000	1	3.607500
20.466667	1	3.713625
20.483333	1	3.810000
20.500000	1	3.888375
20.516667	1	3.947500
20.533333	1	3.982625
20.550000	1	3.990875
20.566667	1	3.970750
20.583333	1	3.920625
20.600000	1	3.843750
20.616667	1	3.740125
20.633333	1	3.614125
20.650000	1	3.467250
20.666667	1	3.304375
20.683333	1	3.129500
20.700000	1	2.946125
20.716667	1	2.758000
20.733333	1	2.569500
20.750000	1	2.383000
20.766667	1	2.200250
20.783333	1	2.025125
20.800000	1	1.858000
20.816667	1	1.700000
20.833333	1	1.552500
20.850000	1	1.415125
20.866667	1	1.288375
20.883333	1	1.171875
20.900000	1	1.065375
20.916667	1	0.967750
20.933333	1	0.878250
20.950000	1	0.796375
20.966667	1	0.721375
20.983333	1	0.653000
21.000000	1	0.590250
21.016667	1	0.533500
21.033333	1	0.481375
21.050000	1	0.434875
21.066667	1	0.391750
21.083333	1	0.353125
21.100000	1	0.317750
21.116667	1	0.285625
21.133333	1	0.256875
21.150000	1	0.231625
21.166667	1	0.208500
21.183333	1	0.187500
21.200000	1	0.168500
21.216667	1	0.151750
21.233333	1	0.137250
21.250000	1	0.124375
21.266667	1	0.112875
21.283333	1	0.102375
21.300000	1	0.094000
21.316667	1	0.086125
21.333333	1	0.079750
21.350000	1	0.073750
21.366667	1	0.068750
21.383333	1	0.064500
21.400000	1	0.060875
21.416667	1	0.058250
21.433333	1	0.055625
21.450000	1	0.053250
21.466667	1	0.051875
21.483333	1	0.051375
21.500000	1	0.051875
21.516667	1	0.053250
21.533333	1	0.054250
21.550000	1	0.056500
21.566667	1	0.059750
21.583333	1	0.063750
21.600000	1	0.067375
21.616667	1	0.072625
21.633333	1	0.078500
21.650000	1	0.086875
21.666667	1	0.096250
21.683333	1	0.107625
21.700000	1	0.120500
21.716667	1	0.135625
21.733333	1	0.153375
21.750000	1	0.173750
21.766667	1	0.197250
21.783333	1	0.223625
21.800000	1	0.252250
21.816667	1	0.284125
21.833333	1	0.318750
21.850000	1	0.356875
21.866667	1	0.396875
21.883333	1	0.439125
21.900000	1	0.483125
21.916667	1	0.528125
21.933333	1	0.572750
21.950000	1	0.617250
21.966667	1	0.660125
21.983333	1	0.700625
22.000000	1	0.738750
22.016667	1	0.772750
22.033333	1	0.801500
22.050000	1	0.825500
22.066667	1	0.843750
22.083333	1	0.855750
22.100000	1	0.862125
22.116667	1	0.862000
22.133333	1	0.855750
22.150000	1	0.843750
22.166667	1	0.827500
22.183333	1	0.805625
22.200000	1	0.780375
22.216667	1	0.751000
22.233333	1	0.719625
22.250000	1	0.685250
22.266667	1	0.649750
22.283333	1	0.614375
22.300000	1	0.578250
22.316667	1	0.542500
22.333333	1	0.507125
22.350000	1	0.473000
22.366667	1	0.440125
22.383333	1	0.408625
22.400000	1	0.378750
22.416667	1	0.350250
22.433333	1	0.323750
22.450000	1	0.298875
22.466667	1	0.274875
22.483333	1	0.253750
22.500000	1	0.233625
22.516667	1	0.215125
22.533333	1	0.199000
22.550000	1	0.183250
22.566667	1	0.168750
22.583333	1	0.155375
22.600000	1	0.143500
22.616667	1	0.131750
22.633333	1	0.121750
22.650000	1	0.112250
22.666667	1	0.103500
22.683333	1	0.095500
22.700000	1	0.088750
22.716667	1	0.082375
22.733333	1	0.076125
22.750000	1	0.070875
22.766667	1	0.066625
22.783333	1	0.062125
22.800000	1	0.058000
22.816667	1	0.054750
22.833333	1	0.051625
22.850000	1	0.048500
22.866667	1	0.045875
22.883333	1	0.044000
22.900000	1	0.042250
22.916667	1	0.040750
22.933333	1	0.039750
22.950000	1	0.038625
22.966667	1	0.037500
22.983333	1	0.036250
23.000000	1	0.035125
23.016667	1	0.034375
23.033333	1	0.033750
23.050000	1	0.033625
23.066667	1	0.033625
23.083333	1	0.033875
23.100000	1	0.034250
23.116667	1	0.035250
23.133333	1	0.036000
23.150000	1	0.036375
23.166667	1	0.037250
23.183333	1	0.038250
23.200000	1	0.039125
23.216667	1	0.040500
23.233333	1	0.042000
23.250000	1	0.044000
23.266667	1	0.046250
23.283333	1	0.048000
23.300000	1	0.050375
23.316667	1	0.053500
23.333333	1	0.057625
23.350000	1	0.061500
23.366667	1	0.065500
23.383333	1	0.070625
23.400000	1	0.076500
23.416667	1	0.082375
23.433333	1	0.089625
23.450000	1	0.097875
23.466667	1	0.107375
23.483333	1	0.118000
23.500000	1	0.129875
23.516667	1	0.144125
23.533333	1	0.160375
23.550000	1	0.178500
23.566667	1	0.199375
23.583333	1	0.223875
23.600000	1	0.251500
23.616667	1	0.282375
23.633333	1	0.317375
23.650000	1	0.356625
23.666667	1	0.400375
23.683333	1	0.448625
23.700000	1	0.500500
23.716667	1	0.557000
23.733333	1	0.616625
23.750000	1	0.679375
23.766667	1	0.743750
23.783333	1	0.809625
23.800000	1	0.877250
23.816667	1	0.944375
23.833333	1	1.008750
23.850000	1	1.069875
23.866667	1	1.127875
23.883333	1	1.179750
23.900000	1	1.225375
23.916667	1	1.263750
23.933333	1	1.293375
23.950000	1	1.314750
23.966667	1	1.326875
23.983333	1	1.330250
24.000000	1	1.324625
24.016667	1	1.310125
24.033333	1	1.287750
24.050000	1	1.259375
24.066667	1	1.224125
24.083333	1	1.183250
24.100000	1	1.137625
24.116667	1	1.088500
24.133333	1	1.037125
24.150000	1	0.983375
24.166667	1	0.929750
24.183333	1	0.877125
24.200000	1	0.823875
24.216667	1	0.771625
24.233333	1	0.722250
24.250000	1	0.673875
24.266667	1	0.628625
24.283333	1	0.586125
24.300000	1	0.545875
24.316667	1	0.507375
24.333333	1	0.471375
24.350000	1	0.437875
24.366667	1	0.407375
24.383333	1	0.379000
24.400000	1	0.351500
24.416667	1	0.327125
24.433333	1	0.304125
24.450000	1	0.283250
24.466667	1	0.263375
24.483333	1	0.245125
24.500000	1	0.228500
24.516667	1	0.212875
24.533333	1	0.198375
24.550000	1	0.184875
24.566667	1	0.172000
24.583333	1	0.159750
24.600000	1	0.148250
24.616667	1	0.138625
24.633333	1	0.129500
24.650000	1	0.121250
24.666667	1	0.113625
24.683333	1	0.106375
24.700000	1	0.100250
24.716667	1	0.095000
24.733333	1	0.090000
24.750000	1	0.084875
24.766667	1	0.080875
24.783333	1	0.076875
24.800000	1	0.073875
24.816667	1	0.070375
24.833333	1	0.067250
24.850000	1	0.064625
24.866667	1	0.062375
24.883333	1	0.060000
24.900000	1	0.058000
24.916667	1	0.056750
24.933333	1	0.055750
24.950000	1	0.054250
24.966667	1	0.052750
24.983333	1	0.051375
25.000000	1	0.050375
25.016667	1	0.049375
25.033333	1	0.048750
25.050000	1	0.047625
25.066667	1	0.047000
25.083333	1	0.046250
25.100000	1	0.045250
25.116667	1	0.044500
25.133333	1	0.043750
25.150000	1	0.042500
25.166667	1	0.041875
25.183333	1	0.041375
25.200000	1	0.040375
25.216667	1	0.040250
25.233333	1	0.039375
25.250000	1	0.038750
25.266667	1	0.038500
25.283333	1	0.038375
25.300000	1	0.037625
25.316667	1	0.037125
25.333333	1	0.036875
25.350000	1	0.036125
25.366667	1	0.035625
25.383333	1	0.034375
25.400000	1	0.034875
25.416667	1	0.033375
25.433333	1	0.033500
25.450000	1	0.033250
25.466667	1	0.033250
25.483333	1	0.033250
25.500000	1	0.033000
25.516667	1	0.032875
25.533333	1	0.032875
25.550000	1	0.033250
25.566667	1	0.033000
25.583333	1	0.032750
25.600000	1	0.033000
25.616667	1	0.032625
25.633333	1	0.032500
25.650000	1	0.033000
25.666667	1	0.032875
25.683333	1	0.032125
25.700000	1	0.031625
25.716667	1	0.030875
25.733333	1	0.030000
25.750000	1	0.028000
25.766667	1	0.027000
25.783333	1	0.026125
25.800000	1	0.024125
25.816667	1	0.022000
25.833333	1	0.019625
25.850000	1	0.016750
25.866667	1	0.013375
25.883333	1	0.009875
25.900000	1	0.006125
25.916667	1	0.001625
25.933333	1	-0.003875
25.950000	1	-0.009000
25.966667	1	-0.014375
25.983333	1	-0.021250
26.000000	1	-0.027625
26.016667	1	-0.034375
26.033333	1	-0.041750
26.050000	1	-0.049000
26.066667	1	-0.056250
26.083333	1	-0.063875
26.100000	1	-0.071750
26.116667	1	-0.079875
26.133333	1	-0.087000
26.150000	1	-0.094500
26.166667	1	-0.101625
26.183333	1	-0.108875
26.200000	1	-0.114625
26.216667	1	-0.120375
26.233333	1	-0.125125
26.250000	1	-0.129375
26.266667	1	-0.133500
26.283333	1	-0.136625
26.300000	1	-0.139250
26.316667	1	-0.140875
26.333333	1	-0.141750
26.350000	1	-0.142250
26.366667	1	-0.142000
26.383333	1	-0.141375
26.400000	1	-0.139875
26.416667	1	-0.137625
26.433333	1	-0.135125
26.450000	1	-0.132125
26.466667	1	-0.128375
26.483333	1	-0.124750
26.500000	1	-0.120750
26.516667	1	-0.116875
26.533333	1	-0.113125
26.550000	1	-0.108750
26.566667	1	-0.104500
26.583333	1	-0.100500
26.600000	1	-0.095625
26.616667	1	-0.091125
26.633333	1	-0.087000
26.650000	1	-0.082375
26.666667	1	-0.078500
26.683333	1	-0.074125
26.700000	1	-0.070375
26.716667	1	-0.066250
26.733333	1	-0.062750
26.750000	1	-0.059000
26.766667	1	-0.055125
26.783333	1	-0.051750
26.800000	1	-0.048125
26.816667	1	-0.044625
26.833333	1	-0.041000
26.850000	1	-0.038750
26.866667	1	-0.035000
26.883333	1	-0.031500
26.900000	1	-0.029125
26.916667	1	-0.026250
26.933333	1	-0.023375
26.950000	1	-0.020750
26.966667	1	-0.017750
26.983333	1	-0.014625
27.000000	1	-0.011375
27.016667	1	-0.008375
27.033333	1	-0.005750
27.050000	1	-0.002875
27.066667	1	0.000000
27.083333	1	0.002000
27.100000	1	0.004750
27.116667	1	0.007875
27.133333	1	0.010500
27.150000	1	0.013000
27.166667	1	0.015500
27.183333	1	0.018625
27.200000	1	0.021375
27.216667	1	0.024250
27.233333	1	0.027500
27.250000	1	0.030875
27.266667	1	0.034750
27.283333	1	0.037500
27.300000	1	0.040000
27.316667	1	0.042500
27.333333	1	0.046500
27.350000	1	0.050125
27.366667	1	0.054000
27.383333	1	0.057125
27.400000	1	0.061250
27.416667	1	0.065375
27.433333	1	0.070375
27.450000	1	0.075625
27.466667	1	0.081625
27.483333	1	0.088125
27.500000	1	0.094875
27.516667	1	0.102750
27.533333	1	0.112500
27.550000	1	0.123000
27.566667	1	0.135625
27.583333	1	0.150125
27.600000	1	0.167000
27.616667	1	0.186500
27.633333	1	0.209250
27.650000	1	0.235125
27.666667	1	0.264750
27.683333	1	0.297750
27.700000	1	0.335625
27.716667	1	0.376375
27.733333	1	0.422250
27.750000	1	0.472750
27.766667	1	0.526875
27.783333	1	0.584625
27.800000	1	0.645625
27.816667	1	0.709625
27.833333	1	0.775875
27.850000	1	0.843625
27.866667	1	0.911875
27.883333	1	0.979375
27.900000	1	1.044375
27.916667	1	1.108000
27.933333	1	1.167875
27.950000	1	1.223625
27.966667	1	1.274000
27.983333	1	1.317500
28.000000	1	1.354125
28.016667	1	1.383875
28.033333	1	1.406000
28.050000	1	1.420500
28.066667	1	1.426750
28.083333	1	1.424750
28.100000	1	1.415750
28.116667	1	1.399750
28.133333	1	1.376125
28.150000	1	1.346250
28.166667	1	1.311250
28.183333	1	1.272250
28.200000	1	1.230000
28.216667	1	1.183000
28.233333	1	1.134750
28.250000	1	1.085125
28.266667	1	1.034000
28.283333	1	0.982000
28.300000	1	0.930750
28.316667	1	0.880500
28.333333	1	0.831375
28.350000	1	0.783250
28.366667	1	0.737125
28.383333	1	0.693250
28.400000	1	0.651625
28.416667	1	0.611500
28.433333	1	0.574250
28.450000	1	0.539000
28.466667	1	0.506375
28.483333	1	0.475250
28.500000	1	0.445750
28.516667	1	0.418750
28.533333	1	0.392250
28.550000	1	0.368875
28.566667	1	0.346000
28.583333	1	0.325375
28.600000	1	0.305250
28.616667	1	0.286125
28.633333	1	0.267875
28.650000	1	0.251000
28.666667	1	0.234250
28.683333	1	0.218875
28.700000	1	0.203875
28.716667	1	0.189750
28.733333	1	0.176875
28.750000	1	0.163375
28.766667	1	0.151500
28.783333	1	0.139375
28.800000	1	0.128250
28.816667	1	0.117875
28.833333	1	0.108000
28.850000	1	0.098125
28.866667	1	0.089625
28.883333	1	0.081500
28.900000	1	0.073625
28.916667	1	0.065875
28.933333	1	0.059250
28.950000	1	0.052625
28.966667	1	0.047000
28.983333	1	0.041500
29.000000	1	0.037000
29.016667	1	0.032750
29.033333	1	0.029000
29.050000	1	0.025500
29.066667	1	0.022875
29.083333	1	0.019000
29.100000	1	0.015500
29.116667	1	0.013500
29.133333	1	0.012125
29.150000	1	0.009750
29.166667	1	0.008000
29.183333	1	0.006625
29.200000	1	0.005625
29.216667	1	0.004875
29.233333	1	0.003750
29.250000	1	0.002500
29.266667	1	0.001250
29.283333	1	0.000625
29.300000	1	-0.000250
29.316667	1	-0.000875
29.333333	1	-0.001375
29.350000	1	-0.002250
29.366667	1	-0.002875
29.383333	1	-0.002875
29.400000	1	-0.003750
29.416667	1	-0.004000
29.433333	1	-0.004375
29.450000	1	-0.004750
29.466667	1	-0.005500
29.483333	1	-0.005750
29.500000	1	-0.006875
29.516667	1	-0.007625
29.533333	1	-0.007875
29.550000	1	-0.008750
29.566667	1	-0.009750
29.583333	1	-0.010375
29.600000	1	-0.011625
29.616667	1	-0.012375
29.633333	1	-0.013125
29.650000	1	-0.013500
29.666667	1	-0.015125
29.683333	1	-0.016625
29.700000	1	-0.016875
29.716667	1	-0.018125
29.733333	1	-0.019375
29.750000	1	-0.020250
29.766667	1	-0.021250
29.783333	1	-0.022125
29.800000	1	-0.023375
29.816667	1	-0.024000
29.833333	1	-0.024125
29.850000	1	-0.024750
29.866667	1	-0.025375
29.883333	1	-0.026750
29.900000	1	-0.028125
29.916667	1	-0.028625
29.933333	1	-0.029125
29.950000	1	-0.029125
29.966667	1	-0.029000
29.983333	1	-0.029375
30.000000	1	-0.029875
30.016667	1	-0.029250
30.033333	1	-0.028625
30.050000	1	-0.028250
30.066667	1	-0.028125
30.083333	1	-0.027875
30.100000	1	-0.026625
30.116667	1	-0.025750
30.133333	1	-0.025000
30.150000	1	-0.023250
30.166667	1	-0.021500
30.183333	1	-0.019875
30.200000	1	-0.017875
30.216667	1	-0.015000
30.233333	1	-0.013125
30.250000	1	-0.010875
30.266667	1	-0.008375
30.283333	1	-0.005500
30.300000	1	-0.003000
30.316667	1	0.000250
30.333333	1	0.004000
30.350000	1	0.007375
30.366667	1	0.011625
30.383333	1	0.015875
30.400000	1	0.020625
30.416667	1	0.025625
30.433333	1	0.031000
30.450000	1	0.036500
30.466667	1	0.042875
30.483333	1	0.048500
30.500000	1	0.055000
30.516667	1	0.061875
30.533333	1	0.068750
30.550000	1	0.075750
30.566667	1	0.083000
30.583333	1	0.089375
30.600000	1	0.096125
30.616667	1	0.102750
30.633333	1	0.110000
30.650000	1	0.116125
30.666667	1	0.122125
30.683333	1	0.127875
30.700000	1	0.133125
30.716667	1	0.138500
30.733333	1	0.142750
30.750000	1	0.147125
30.766667	1	0.150500
30.783333	1	0.153250
30.800000	1	0.155250
30.816667	1	0.156500
30.833333	1	0.157375
30.850000	1	0.157375
30.866667	1	0.156875
30.883333	1	0.155250
30.900000	1	0.153500
30.916667	1	0.151250
30.933333	1	0.148500
30.950000	1	0.145375
30.966667	1	0.141625
30.983333	1	0.137125
31.000000	1	0.132500
31.016667	1	0.127375
31.033333	1	0.122875
31.050000	1	0.117625
31.066667	1	0.112875
31.083333	1	0.107500
31.100000	1	0.102125
31.116667	1	0.097375
31.133333	1	0.092500
31.150000	1	0.087125
31.166667	1	0.082500
31.183333	1	0.078500
31.200000	1	0.074250
31.216667	1	0.069375
31.233333	1	0.064750
31.250000	1	0.060875
31.266667	1	0.056625
31.283333	1	0.052375
31.300000	1	0.048375
31.316667	1	0.044875
31.333333	1	0.041000
31.350000	1	0.037625
31.366667	1	0.034125
31.383333	1	0.032250
31.400000	1	0.029375
31.416667	1	0.027250
31.433333	1	0.024375
31.450000	1	0.021375
31.466667	1	0.018750
31.483333	1	0.017000
31.500000	1	0.015125
31.516667	1	0.013125
31.533333	1	0.011000
31.550000	1	0.009500
31.566667	1	0.007875
31.583333	1	0.006625
31.600000	1	0.005000
31.616667	1	0.003750
31.633333	1	0.002500
31.650000	1	0.001000
31.666667	1	0.000375
31.683333	1	-0.000375
31.700000	1	-0.001000
31.716667	1	-0.002250
31.733333	1	-0.002750
31.750000	1	-0.003125
31.766667	1	-0.003375
31.783333	1	-0.004000
31.800000	1	-0.004250
31.816667	1	-0.004625
31.833333	1	-0.004250
31.850000	1	-0.004375
31.866667	1	-0.004875
31.883333	1	-0.005125
31.900000	1	-0.004750
31.916667	1	-0.004375
31.933333	1	-0.004375
31.950000	1	-0.004000
31.966667	1	-0.003500
31.983333	1	-0.002750
32.000000	1	-0.002500
32.016667	1	-0.002375
32.033333	1	-0.002000
32.050000	1	-0.002000
32.066667	1	-0.001625
32.083333	1	-0.001500
32.100000	1	-0.000875
32.116667	1	0.000000
32.133333	1	0.000750
32.150000	1	0.001125
32.166667	1	0.001500
32.183333	1	0.002125
32.200000	1	0.002500
32.216667	1	0.003375
32.233333	1	0.003750
32.250000	1	0.004375
32.266667	1	0.005500
32.283333	1	0.006375
32.300000	1	0.006750
32.316667	1	0.006375
32.333333	1	0.007750
32.350000	1	0.008375
32.366667	1	0.009125
32.383333	1	0.009250
32.400000	1	0.009750
32.416667	1	0.010000
32.433333	1	0.010500
32.450000	1	0.011000
32.466667	1	0.011250
32.483333	1	0.011875
32.500000	1	0.012250
32.516667	1	0.013000
32.533333	1	0.014125
32.550000	1	0.013750
32.566667	1	0.014250
32.583333	1	0.015000
32.600000	1	0.015625
32.616667	1	0.016375
32.633333	1	0.016250
32.650000	1	0.016500
32.666667	1	0.016875
32.683333	1	0.016750
32.700000	1	0.016625
32.716667	1	0.016500
32.733333	1	0.016625
32.750000	1	0.016875
32.766667	1	0.017500
32.783333	1	0.017875
32.800000	1	0.018250
32.816667	1	0.018250
32.833333	1	0.018000
32.850000	1	0.017875
32.866667	1	0.018000
32.883333	1	0.018000
32.900000	1	0.018125
32.916667	1	0.018000
32.933333	1	0.018000
32.950000	1	0.018500
32.966667	1	0.018625
32.983333	1	0.018750
33.000000	1	0.018875
33.016667	1	0.019375
33.033333	1	0.019875
33.050000	1	0.020000
33.066667	1	0.020750
33.083333	1	0.021125
33.100000	1	0.021875
33.116667	1	0.023250
33.133333	1	0.024000
33.150000	1	0.025375
33.166667	1	0.027125
33.183333	1	0.027875
33.200000	1	0.029250
33.216667	1	0.030875
33.233333	1	0.032750
33.250000	1	0.034625
33.266667	1	0.036625
33.283333	1	0.038250
33.300000	1	0.041375
33.316667	1	0.043750
33.333333	1	0.046125
33.350000	1	0.049125
33.366667	1	0.053125
33.383333	1	0.056750
33.400000	1	0.061125
33.416667	1	0.065250
33.433333	1	0.070000
33.450000	1	0.074750
33.466667	1	0.079750
33.483333	1	0.085875
33.500000	1	0.091000
33.516667	1	0.097250
33.533333	1	0.103500
33.550000	1	0.110500
33.566667	1	0.117625
33.583333	1	0.125375
33.600000	1	0.134250
33.616667	1	0.143125
33.633333	1	0.152875
33.650000	1	0.163625
33.666667	1	0.174750
33.683333	1	0.186625
33.700000	1	0.199625
33.716667	1	0.214250
33.733333	1	0.230250
33.750000	1	0.246500
33.766667	1	0.265375
33.783333	1	0.285875
33.800000	1	0.308500
33.816667	1	0.332500
33.833333	1	0.358500
33.850000	1	0.386750
33.866667	1	0.418250
33.883333	1	0.452250
33.900000	1	0.488500
33.916667	1	0.527500
33.933333	1	0.569500
33.950000	1	0.613875
33.966667	1	0.662375
33.983333	1	0.712750
34.000000	1	0.765875
34.016667	1	0.821500
34.033333	1	0.879375
34.050000	1	0.939500
34.066667	1	1.001750
34.083333	1	1.064625
34.100000	1	1.128375
34.116667	1	1.192000
34.133333	1	1.256500
34.150000	1	1.319625
34.166667	1	1.381625
34.183333	1	1.442125
34.200000	1	1.499125
34.216667	1	1.553625
34.233333	1	1.603750
34.250000	1	1.650625
34.266667	1	1.692750
34.283333	1	1.729375
34.300000	1	1.760500
34.316667	1	1.785750
34.333333	1	1.805375
34.350000	1	1.818875
34.366667	1	1.826625
34.383333	1	1.828250
34.400000	1	1.823000
34.416667	1	1.812000
34.433333	1	1.794875
34.450000	1	1.772750
34.466667	1	1.746000
34.483333	1	1.715125
34.500000	1	1.679375
34.516667	1	1.639625
34.533333	1	1.597250
34.550000	1	1.551500
34.566667	1	1.502625
34.583333	1	1.451875
34.600000	1	1.400250
34.616667	1	1.346625
34.633333	1	1.292875
34.650000	1	1.239250
34.666667	1	1.186375
34.683333	1	1.133750
34.700000	1	1.082375
34.716667	1	1.032000
34.733333	1	0.982500
34.750000	1	0.934750
34.766667	1	0.888250
34.783333	1	0.844125
34.800000	1	0.801000
34.816667	1	0.760000
34.833333	1	0.721500
34.850000	1	0.684500
34.866667	1	0.650000
34.883333	1	0.617125
34.900000	1	0.585750
34.916667	1	0.557000
34.933333	1	0.529750
34.950000	1	0.503875
34.966667	1	0.479000
34.983333	1	0.455750
35.000000	1	0.433750
35.016667	1	0.412875
35.033333	1	0.393250
35.050000	1	0.375125
35.066667	1	0.357625
35.083333	1	0.342250
35.100000	1	0.326500
35.116667	1	0.311375
35.133333	1	0.297375
35.150000	1	0.284750
35.166667	1	0.272125
35.183333	1	0.259750
35.200000	1	0.247875
35.216667	1	0.236125
35.233333	1	0.226125
35.250000	1	0.216125
35.266667	1	0.206125
35.283333	1	0.196750
35.300000	1	0.187875
35.316667	1	0.179875
35.333333	1	0.172000
35.350000	1	0.164250
35.366667	1	0.157125
35.383333	1	0.150125
35.400000	1	0.143375
35.416667	1	0.137500
35.433333	1	0.131250
35.450000	1	0.124875
35.466667	1	0.120125
35.483333	1	0.115500
35.500000	1	0.111375
35.516667	1	0.107500
35.533333	1	0.103625
35.550000	1	0.099625
35.566667	1	0.095875
35.583333	1	0.092000
35.600000	1	0.088875
35.616667	1	0.085625
35.633333	1	0.083750
35.650000	1	0.080875
35.666667	1	0.079125
35.683333	1	0.077000
35.700000	1	0.075000
35.716667	1	0.073375
35.733333	1	0.072500
35.750000	1	0.071250
35.766667	1	0.070125
35.783333	1	0.068750
35.800000	1	0.067000
35.816667	1	0.066375
35.833333	1	0.065000
35.850000	1	0.064375
35.866667	1	0.062625
35.883333	1	0.061875
35.900000	1	0.060375
35.916667	1	0.059875
35.933333	1	0.058875
35.950000	1	0.058750
35.966667	1	0.057875
35.983333	1	0.057000
36.000000	1	0.056375
36.016667	1	0.055625
36.033333	1	0.054625
36.050000	1	0.053250
36.066667	1	0.052500
36.083333	1	0.051500
36.100000	1	0.050875
36.116667	1	0.050250
36.133333	1	0.049875
36.150000	1	0.048875
36.166667	1	0.048000
36.183333	1	0.047250
36.200000	1	0.046000
36.216667	1	0.044875
36.233333	1	0.044125
36.250000	1	0.042750
36.266667	1	0.041875
36.283333	1	0.040625
36.300000	1	0.039625
36.316667	1	0.038375
36.333333	1	0.036875
36.350000	1	0.035875
36.366667	1	0.035000
36.383333	1	0.034625
36.400000	1	0.032750
36.416667	1	0.031250
36.433333	1	0.029750
36.450000	1	0.029125
36.466667	1	0.027875
36.483333	1	0.027000
36.500000	1	0.026500
36.516667	1	0.025625
36.533333	1	0.024750
36.550000	1	0.023375
36.566667	1	0.021875
36.583333	1	0.021125
36.600000	1	0.020375
36.616667	1	0.019250
36.633333	1	0.018125
36.650000	1	0.017500
36.666667	1	0.016750
36.683333	1	0.015750
36.700000	1	0.014875
36.716667	1	0.014375
36.733333	1	0.014250
36.750000	1	0.014000
36.766667	1	0.012750
36.783333	1	0.012250
36.800000	1	0.011625
36.816667	1	0.011000
36.833333	1	0.011125
36.850000	1	0.010000
36.866667	1	0.009125
36.883333	1	0.008625
36.900000	1	0.008625
36.916667	1	0.008500
36.933333	1	0.007750
36.950000	1	0.008375
36.966667	1	0.008625
36.983333	1	0.008625
37.000000	1	0.008250
37.016667	1	0.008250
37.033333	1	0.007875
37.050000	1	0.007875
37.066667	1	0.007625
37.083333	1	0.007750
37.100000	1	0.007750
37.116667	1	0.008375
37.133333	1	0.008875
37.150000	1	0.009125
37.166667	1	0.009000
37.183333	1	0.008875
37.200000	1	0.008375
37.216667	1	0.008375
37.233333	1	0.008750
37.250000	1	0.009000
37.266667	1	0.009375
37.283333	1	0.009625
37.300000	1	0.009375
37.316667	1	0.009125
37.333333	1	0.009000
37.350000	1	0.009250
37.366667	1	0.009875
37.383333	1	0.009500
37.400000	1	0.010125
37.416667	1	0.010125
37.433333	1	0.010000
37.450000	1	0.010125
37.466667	1	0.010000
37.483333	1	0.009750
37.500000	1	0.010375
37.516667	1	0.010500
37.533333	1	0.010125
37.550000	1	0.009875
37.566667	1	0.009500
37.583333	1	0.008875
37.600000	1	0.008500
37.616667	1	0.008250
37.633333	1	0.007875
37.650000	1	0.007375
37.666667	1	0.007500
37.683333	1	0.007000
37.700000	1	0.007375
37.716667	1	0.006875
37.733333	1	0.006375
37.750000	1	0.005875
37.766667	1	0.005125
37.783333	1	0.004750
37.800000	1	0.003875
37.816667	1	0.003125
37.833333	1	0.002875
37.850000	1	0.002250
37.866667	1	0.001750
37.883333	1	0.000875
37.900000	1	0.000500
37.916667	1	0.000000
37.933333	1	-0.000375
37.950000	1	-0.001125
37.966667	1	-0.001500
37.983333	1	-0.002500
38.000000	1	-0.003875
38.016667	1	-0.003750
38.033333	1	-0.004500
38.050000	1	-0.005250
38.066667	1	-0.005000
38.083333	1	-0.005625
38.100000	1	-0.005500
38.116667	1	-0.005625
38.133333	1	-0.005625
38.150000	1	-0.006000
38.166667	1	-0.006000
38.183333	1	-0.006375
38.200000	1	-0.006375
38.216667	1	-0.006125
38.233333	1	-0.006000
38.250000	1	-0.005500
38.266667	1	-0.004875
38.283333	1	-0.004875
38.300000	1	-0.004500
38.316667	1	-0.003750
38.333333	1	-0.003000
38.350000	1	-0.002625
38.366667	1	-0.002250
38.383333	1	-0.001375
38.400000	1	-0.000750
38.416667	1	0.000125
38.433333	1	0.001000
38.450000	1	0.001750
38.466667	1	0.003000
38.483333	1	0.004000
38.500000	1	0.005250
38.516667	1	0.005500
38.533333	1	0.006750
38.550000	1	0.007625
38.566667	1	0.008125
38.583333	1	0.009875
38.600000	1	0.011000
38.616667	1	0.012125
38.633333	1	0.012875
38.650000	1	0.014125
38.666667	1	0.014750
38.683333	1	0.016125
38.700000	1	0.017625
38.716667	1	0.018250
38.733333	1	0.018500
38.750000	1	0.019500
38.766667	1	0.020000
38.783333	1	0.020625
38.800000	1	0.021500
38.816667	1	0.022000
38.833333	1	0.023375
38.850000	1	0.024000
38.866667	1	0.024250
38.883333	1	0.024500
38.900000	1	0.025125
38.916667	1	0.025250
38.933333	1	0.026125
38.950000	1	0.025625
38.966667	1	0.025250
38.983333	1	0.024875
39.000000	1	0.024625
39.016667	1	0.024375
39.033333	1	0.024875
39.050000	1	0.024750
39.066667	1	0.024125
39.083333	1	0.023750
39.100000	1	0.023375
39.116667	1	0.023125
39.133333	1	0.022625
39.150000	1	0.022125
39.166667	1	0.021125
39.183333	1	0.020125
39.200000	1	0.019375
39.216667	1	0.018375
39.233333	1	0.017500
39.250000	1	0.017250
39.266667	1	0.016375
39.283333	1	0.016125
39.300000	1	0.015250
39.316667	1	0.014375
39.333333	1	0.013500
39.350000	1	0.012875
39.366667	1	0.012250
39.383333	1	0.010875
39.400000	1	0.010250
39.416667	1	0.009125
39.433333	1	0.008875
39.450000	1	0.007625
39.466667	1	0.007000
39.483333	1	0.005625
39.500000	1	0.005250
39.516667	1	0.004000
39.533333	1	0.003750
39.550000	1	0.002625
39.566667	1	0.002125
39.583333	1	0.001750
39.600000	1	0.000875
39.616667	1	0.000500
39.633333	1	0.000125
39.650000	1	-0.000500
39.666667	1	-0.001250
39.683333	1	-0.001750
39.700000	1	-0.002000
39.716667	1	-0.002000
39.733333	1	-0.002625
39.750000	1	-0.002750
39.766667	1	-0.002750
39.783333	1	-0.003500
39.800000	1	-0.004375
39.816667	1	-0.005250
39.833333	1	-0.004500
39.850000	1	-0.004250
39.866667	1	-0.004000
39.883333	1	-0.004000
39.900000	1	-0.003875
39.916667	1	-0.004125
39.933333	1	-0.003750
39.950000	1	-0.004000
39.966667	1	-0.003625
39.983333	1	-0.004000
40.000000	1	-0.003500
