File Path	chrom://990-75db15j/XVault/Ultimate_3000/1256/20230531_CMO_stabTest _FP08_FP09.seq/691.smp/RI_1.channel/RI_1.chm
Channel	RI_1

Injection Information:
Data Vault	XVault
Injection	FP09_1_s4
Injection Number	58
Position	BB10
Comment	
Processing Method	
Instrument Method	run_25B_method
Type	Unknown
Status	Finished
Injection Date	03.06.2023
Injection Time	04:39:57
Injection Volume (µl)	20.000
Dilution Factor	1.0000
Weight	1.0000

Chromatogram Data Information:
Time Min. (min)	0.000000
Time Max. (min)	40.000000
Data Points	2401
Detector	RI
Generating Data System	Chromeleon 7.2.5.9507
Exporting Data System	Chromeleon 7.2.5.0
Operator	Instrument Controller
Signal Quantity	Refractive 
Signal Unit	µRIU
Signal Min.	-0.600875
Signal Max.	57.718750
Channel	RI_1
Driver Name	RID520Driver.dll
Channel Type	Evaluation
Min. Step (s)	1
Max. Step (s)	1
Average Step (s)	1

Signal Parameter Information:
Signal Info	

Chromatogram Data:
Time (min)	Step (s)	Value (µRIU)
0.000000	n.a.	-0.052000
0.016667	1	-0.053500
0.033333	1	-0.054625
0.050000	1	-0.055375
0.066667	1	-0.055750
0.083333	1	-0.056875
0.100000	1	-0.057250
0.116667	1	-0.057250
0.133333	1	-0.057875
0.150000	1	-0.059000
0.166667	1	-0.059500
0.183333	1	-0.060125
0.200000	1	-0.060625
0.216667	1	-0.060625
0.233333	1	-0.060625
0.250000	1	-0.061375
0.266667	1	-0.061500
0.283333	1	-0.062875
0.300000	1	-0.066375
0.316667	1	-0.070000
0.333333	1	-0.072375
0.350000	1	-0.071000
0.366667	1	-0.067500
0.383333	1	-0.063125
0.400000	1	-0.059250
0.416667	1	-0.055375
0.433333	1	-0.052125
0.450000	1	-0.049125
0.466667	1	-0.047125
0.483333	1	-0.046625
0.500000	1	-0.047875
0.516667	1	-0.049750
0.533333	1	-0.051250
0.550000	1	-0.052250
0.566667	1	-0.052625
0.583333	1	-0.053000
0.600000	1	-0.053500
0.616667	1	-0.053000
0.633333	1	-0.052500
0.650000	1	-0.051375
0.666667	1	-0.050750
0.683333	1	-0.050750
0.700000	1	-0.049625
0.716667	1	-0.049500
0.733333	1	-0.049125
0.750000	1	-0.047875
0.766667	1	-0.047000
0.783333	1	-0.045750
0.800000	1	-0.045125
0.816667	1	-0.043875
0.833333	1	-0.043250
0.850000	1	-0.042875
0.866667	1	-0.041750
0.883333	1	-0.041500
0.900000	1	-0.041500
0.916667	1	-0.041875
0.933333	1	-0.042375
0.950000	1	-0.041625
0.966667	1	-0.042500
0.983333	1	-0.042875
1.000000	1	-0.042875
1.016667	1	-0.043625
1.033333	1	-0.044000
1.050000	1	-0.044625
1.066667	1	-0.045500
1.083333	1	-0.046125
1.100000	1	-0.047125
1.116667	1	-0.047875
1.133333	1	-0.049000
1.150000	1	-0.050000
1.166667	1	-0.050750
1.183333	1	-0.052125
1.200000	1	-0.052875
1.216667	1	-0.053250
1.233333	1	-0.054250
1.250000	1	-0.054625
1.266667	1	-0.055500
1.283333	1	-0.056250
1.300000	1	-0.056375
1.316667	1	-0.056875
1.333333	1	-0.057000
1.350000	1	-0.057500
1.366667	1	-0.057875
1.383333	1	-0.058625
1.400000	1	-0.059125
1.416667	1	-0.059375
1.433333	1	-0.059000
1.450000	1	-0.059375
1.466667	1	-0.058875
1.483333	1	-0.059000
1.500000	1	-0.059750
1.516667	1	-0.060500
1.533333	1	-0.060625
1.550000	1	-0.060625
1.566667	1	-0.060250
1.583333	1	-0.060000
1.600000	1	-0.060625
1.616667	1	-0.060375
1.633333	1	-0.061125
1.650000	1	-0.061750
1.666667	1	-0.061875
1.683333	1	-0.062125
1.700000	1	-0.062250
1.716667	1	-0.062125
1.733333	1	-0.062250
1.750000	1	-0.062750
1.766667	1	-0.063000
1.783333	1	-0.062250
1.800000	1	-0.062125
1.816667	1	-0.062750
1.833333	1	-0.062625
1.850000	1	-0.062625
1.866667	1	-0.063125
1.883333	1	-0.063000
1.900000	1	-0.062125
1.916667	1	-0.063000
1.933333	1	-0.062875
1.950000	1	-0.063000
1.966667	1	-0.063625
1.983333	1	-0.064250
2.000000	1	-0.064625
2.016667	1	-0.065750
2.033333	1	-0.066000
2.050000	1	-0.065625
2.066667	1	-0.066375
2.083333	1	-0.067250
2.100000	1	-0.067500
2.116667	1	-0.068250
2.133333	1	-0.068375
2.150000	1	-0.069375
2.166667	1	-0.069750
2.183333	1	-0.070375
2.200000	1	-0.070250
2.216667	1	-0.069875
2.233333	1	-0.069625
2.250000	1	-0.069500
2.266667	1	-0.069625
2.283333	1	-0.069750
2.300000	1	-0.069250
2.316667	1	-0.069625
2.333333	1	-0.069625
2.350000	1	-0.069500
2.366667	1	-0.069250
2.383333	1	-0.068500
2.400000	1	-0.068500
2.416667	1	-0.068000
2.433333	1	-0.068375
2.450000	1	-0.067875
2.466667	1	-0.066875
2.483333	1	-0.067000
2.500000	1	-0.066500
2.516667	1	-0.066250
2.533333	1	-0.066625
2.550000	1	-0.066625
2.566667	1	-0.066875
2.583333	1	-0.066625
2.600000	1	-0.066375
2.616667	1	-0.066125
2.633333	1	-0.065250
2.650000	1	-0.065000
2.666667	1	-0.064500
2.683333	1	-0.064125
2.700000	1	-0.063375
2.716667	1	-0.063500
2.733333	1	-0.063500
2.750000	1	-0.063875
2.766667	1	-0.064125
2.783333	1	-0.063750
2.800000	1	-0.063250
2.816667	1	-0.062875
2.833333	1	-0.062500
2.850000	1	-0.062000
2.866667	1	-0.061500
2.883333	1	-0.061375
2.900000	1	-0.060625
2.916667	1	-0.060750
2.933333	1	-0.060375
2.950000	1	-0.059750
2.966667	1	-0.059500
2.983333	1	-0.058250
3.000000	1	-0.057875
3.016667	1	-0.056875
3.033333	1	-0.056125
3.050000	1	-0.054750
3.066667	1	-0.054250
3.083333	1	-0.053125
3.100000	1	-0.052250
3.116667	1	-0.051625
3.133333	1	-0.050625
3.150000	1	-0.049750
3.166667	1	-0.049125
3.183333	1	-0.048500
3.200000	1	-0.048000
3.216667	1	-0.048000
3.233333	1	-0.047375
3.250000	1	-0.047250
3.266667	1	-0.047500
3.283333	1	-0.047125
3.300000	1	-0.046750
3.316667	1	-0.047000
3.333333	1	-0.047125
3.350000	1	-0.047500
3.366667	1	-0.048125
3.383333	1	-0.048625
3.400000	1	-0.048875
3.416667	1	-0.049750
3.433333	1	-0.050500
3.450000	1	-0.051250
3.466667	1	-0.051625
3.483333	1	-0.052750
3.500000	1	-0.053250
3.516667	1	-0.053750
3.533333	1	-0.053750
3.550000	1	-0.054625
3.566667	1	-0.055375
3.583333	1	-0.056000
3.600000	1	-0.056500
3.616667	1	-0.057250
3.633333	1	-0.058000
3.650000	1	-0.058000
3.666667	1	-0.059000
3.683333	1	-0.059250
3.700000	1	-0.059500
3.716667	1	-0.060375
3.733333	1	-0.060875
3.750000	1	-0.060500
3.766667	1	-0.060875
3.783333	1	-0.061000
3.800000	1	-0.060875
3.816667	1	-0.060500
3.833333	1	-0.061000
3.850000	1	-0.061000
3.866667	1	-0.061250
3.883333	1	-0.061125
3.900000	1	-0.061750
3.916667	1	-0.061375
3.933333	1	-0.061375
3.950000	1	-0.062375
3.966667	1	-0.062750
3.983333	1	-0.062875
4.000000	1	-0.062500
4.016667	1	-0.062000
4.033333	1	-0.061375
4.050000	1	-0.061000
4.066667	1	-0.060750
4.083333	1	-0.060875
4.100000	1	-0.061125
4.116667	1	-0.060250
4.133333	1	-0.059875
4.150000	1	-0.059750
4.166667	1	-0.059000
4.183333	1	-0.058000
4.200000	1	-0.056875
4.216667	1	-0.057125
4.233333	1	-0.056625
4.250000	1	-0.056500
4.266667	1	-0.055625
4.283333	1	-0.054625
4.300000	1	-0.053500
4.316667	1	-0.052750
4.333333	1	-0.051500
4.350000	1	-0.050125
4.366667	1	-0.049125
4.383333	1	-0.048000
4.400000	1	-0.046750
4.416667	1	-0.045250
4.433333	1	-0.043875
4.450000	1	-0.042500
4.466667	1	-0.041125
4.483333	1	-0.040000
4.500000	1	-0.038625
4.516667	1	-0.037625
4.533333	1	-0.036500
4.550000	1	-0.035000
4.566667	1	-0.034000
4.583333	1	-0.033000
4.600000	1	-0.031500
4.616667	1	-0.030375
4.633333	1	-0.029125
4.650000	1	-0.028500
4.666667	1	-0.027000
4.683333	1	-0.025750
4.700000	1	-0.024250
4.716667	1	-0.023500
4.733333	1	-0.021125
4.750000	1	-0.019375
4.766667	1	-0.018125
4.783333	1	-0.016125
4.800000	1	-0.014125
4.816667	1	-0.013000
4.833333	1	-0.011125
4.850000	1	-0.009500
4.866667	1	-0.007375
4.883333	1	-0.005750
4.900000	1	-0.004000
4.916667	1	-0.002625
4.933333	1	-0.000125
4.950000	1	0.001875
4.966667	1	0.004000
4.983333	1	0.005750
5.000000	1	0.007875
5.016667	1	0.009500
5.033333	1	0.012000
5.050000	1	0.013750
5.066667	1	0.014750
5.083333	1	0.016375
5.100000	1	0.017625
5.116667	1	0.019125
5.133333	1	0.019375
5.150000	1	0.021000
5.166667	1	0.021250
5.183333	1	0.022500
5.200000	1	0.023875
5.216667	1	0.024250
5.233333	1	0.024875
5.250000	1	0.025125
5.266667	1	0.025000
5.283333	1	0.025500
5.300000	1	0.025625
5.316667	1	0.025750
5.333333	1	0.025125
5.350000	1	0.025250
5.366667	1	0.025125
5.383333	1	0.024750
5.400000	1	0.025250
5.416667	1	0.024750
5.433333	1	0.024625
5.450000	1	0.024500
5.466667	1	0.024000
5.483333	1	0.023125
5.500000	1	0.022375
5.516667	1	0.022500
5.533333	1	0.021500
5.550000	1	0.020500
5.566667	1	0.019750
5.583333	1	0.019750
5.600000	1	0.019500
5.616667	1	0.018625
5.633333	1	0.017625
5.650000	1	0.017000
5.666667	1	0.015500
5.683333	1	0.013875
5.700000	1	0.012750
5.716667	1	0.011375
5.733333	1	0.010250
5.750000	1	0.009250
5.766667	1	0.007875
5.783333	1	0.007000
5.800000	1	0.005875
5.816667	1	0.005000
5.833333	1	0.004125
5.850000	1	0.003625
5.866667	1	0.002750
5.883333	1	0.002000
5.900000	1	0.000750
5.916667	1	0.000375
5.933333	1	0.000125
5.950000	1	-0.000375
5.966667	1	-0.001000
5.983333	1	-0.001125
6.000000	1	-0.001000
6.016667	1	-0.001000
6.033333	1	-0.000625
6.050000	1	-0.000375
6.066667	1	0.000000
6.083333	1	0.000500
6.100000	1	0.000625
6.116667	1	0.001375
6.133333	1	0.002250
6.150000	1	0.003375
6.166667	1	0.005250
6.183333	1	0.007750
6.200000	1	0.010000
6.216667	1	0.011875
6.233333	1	0.014000
6.250000	1	0.015750
6.266667	1	0.018000
6.283333	1	0.020500
6.300000	1	0.023375
6.316667	1	0.025750
6.333333	1	0.028375
6.350000	1	0.031125
6.366667	1	0.034250
6.383333	1	0.037000
6.400000	1	0.040250
6.416667	1	0.042875
6.433333	1	0.046000
6.450000	1	0.048875
6.466667	1	0.052500
6.483333	1	0.055375
6.500000	1	0.057625
6.516667	1	0.060875
6.533333	1	0.063500
6.550000	1	0.066375
6.566667	1	0.068875
6.583333	1	0.070750
6.600000	1	0.073125
6.616667	1	0.074625
6.633333	1	0.076500
6.650000	1	0.078625
6.666667	1	0.080625
6.683333	1	0.081500
6.700000	1	0.082625
6.716667	1	0.083375
6.733333	1	0.084000
6.750000	1	0.084125
6.766667	1	0.084625
6.783333	1	0.084625
6.800000	1	0.084250
6.816667	1	0.083250
6.833333	1	0.082625
6.850000	1	0.081750
6.866667	1	0.081375
6.883333	1	0.080375
6.900000	1	0.079500
6.916667	1	0.078375
6.933333	1	0.077125
6.950000	1	0.075250
6.966667	1	0.073375
6.983333	1	0.071125
7.000000	1	0.069375
7.016667	1	0.067500
7.033333	1	0.065125
7.050000	1	0.062625
7.066667	1	0.060125
7.083333	1	0.057000
7.100000	1	0.054250
7.116667	1	0.051375
7.133333	1	0.049125
7.150000	1	0.046750
7.166667	1	0.043375
7.183333	1	0.039000
7.200000	1	0.036125
7.216667	1	0.033375
7.233333	1	0.030000
7.250000	1	0.026500
7.266667	1	0.023250
7.283333	1	0.020625
7.300000	1	0.017250
7.316667	1	0.014875
7.333333	1	0.011750
7.350000	1	0.008625
7.366667	1	0.005750
7.383333	1	0.003250
7.400000	1	0.000750
7.416667	1	-0.000750
7.433333	1	-0.003250
7.450000	1	-0.005875
7.466667	1	-0.008125
7.483333	1	-0.010250
7.500000	1	-0.011875
7.516667	1	-0.013500
7.533333	1	-0.014625
7.550000	1	-0.015625
7.566667	1	-0.016875
7.583333	1	-0.018000
7.600000	1	-0.019500
7.616667	1	-0.020500
7.633333	1	-0.021375
7.650000	1	-0.022000
7.666667	1	-0.022375
7.683333	1	-0.023500
7.700000	1	-0.023875
7.716667	1	-0.023875
7.733333	1	-0.024750
7.750000	1	-0.025000
7.766667	1	-0.025375
7.783333	1	-0.025250
7.800000	1	-0.025375
7.816667	1	-0.025250
7.833333	1	-0.024625
7.850000	1	-0.024000
7.866667	1	-0.024125
7.883333	1	-0.023500
7.900000	1	-0.023875
7.916667	1	-0.023250
7.933333	1	-0.022875
7.950000	1	-0.022250
7.966667	1	-0.022000
7.983333	1	-0.021500
8.000000	1	-0.021250
8.016667	1	-0.021000
8.033333	1	-0.020375
8.050000	1	-0.020250
8.066667	1	-0.020000
8.083333	1	-0.019625
8.100000	1	-0.019250
8.116667	1	-0.018750
8.133333	1	-0.019000
8.150000	1	-0.018750
8.166667	1	-0.018250
8.183333	1	-0.017500
8.200000	1	-0.016500
8.216667	1	-0.015875
8.233333	1	-0.015375
8.250000	1	-0.014875
8.266667	1	-0.013625
8.283333	1	-0.013500
8.300000	1	-0.011875
8.316667	1	-0.011000
8.333333	1	-0.009750
8.350000	1	-0.008500
8.366667	1	-0.006875
8.383333	1	-0.005875
8.400000	1	-0.004000
8.416667	1	-0.002750
8.433333	1	-0.001375
8.450000	1	0.000500
8.466667	1	0.002750
8.483333	1	0.005000
8.500000	1	0.007125
8.516667	1	0.009250
8.533333	1	0.011500
8.550000	1	0.013875
8.566667	1	0.016625
8.583333	1	0.019250
8.600000	1	0.021250
8.616667	1	0.023875
8.633333	1	0.026375
8.650000	1	0.029250
8.666667	1	0.031500
8.683333	1	0.033625
8.700000	1	0.036000
8.716667	1	0.037875
8.733333	1	0.040125
8.750000	1	0.042875
8.766667	1	0.044625
8.783333	1	0.046875
8.800000	1	0.048875
8.816667	1	0.051375
8.833333	1	0.053125
8.850000	1	0.055125
8.866667	1	0.056500
8.883333	1	0.058500
8.900000	1	0.060625
8.916667	1	0.062250
8.933333	1	0.064250
8.950000	1	0.065875
8.966667	1	0.067000
8.983333	1	0.068000
9.000000	1	0.069000
9.016667	1	0.070625
9.033333	1	0.071750
9.050000	1	0.072125
9.066667	1	0.072750
9.083333	1	0.073125
9.100000	1	0.074000
9.116667	1	0.075000
9.133333	1	0.075375
9.150000	1	0.075750
9.166667	1	0.075750
9.183333	1	0.076000
9.200000	1	0.075500
9.216667	1	0.075125
9.233333	1	0.074875
9.250000	1	0.074375
9.266667	1	0.074625
9.283333	1	0.073750
9.300000	1	0.073750
9.316667	1	0.073625
9.333333	1	0.073375
9.350000	1	0.073250
9.366667	1	0.072750
9.383333	1	0.072875
9.400000	1	0.073125
9.416667	1	0.073500
9.433333	1	0.074125
9.450000	1	0.075250
9.466667	1	0.076625
9.483333	1	0.078375
9.500000	1	0.081375
9.516667	1	0.084125
9.533333	1	0.087750
9.550000	1	0.093125
9.566667	1	0.099000
9.583333	1	0.106000
9.600000	1	0.115125
9.616667	1	0.126500
9.633333	1	0.139125
9.650000	1	0.154375
9.666667	1	0.172000
9.683333	1	0.191375
9.700000	1	0.213500
9.716667	1	0.236875
9.733333	1	0.261125
9.750000	1	0.285375
9.766667	1	0.307750
9.783333	1	0.328250
9.800000	1	0.344250
9.816667	1	0.355625
9.833333	1	0.362375
9.850000	1	0.362125
9.866667	1	0.352875
9.883333	1	0.333375
9.900000	1	0.306875
9.916667	1	0.289000
9.933333	1	0.307375
9.950000	1	0.408625
9.966667	1	0.652125
9.983333	1	1.101625
10.000000	1	1.821125
10.016667	1	2.862375
10.033333	1	4.266250
10.050000	1	6.056875
10.066667	1	8.247250
10.083333	1	10.835125
10.100000	1	13.807125
10.116667	1	17.132500
10.133333	1	20.763875
10.150000	1	24.634625
10.166667	1	28.654000
10.183333	1	32.703375
10.200000	1	36.632125
10.216667	1	40.258500
10.233333	1	43.379750
10.250000	1	45.790125
10.266667	1	47.314125
10.283333	1	47.830500
10.300000	1	47.303625
10.316667	1	45.792625
10.333333	1	43.442250
10.350000	1	40.458375
10.366667	1	37.077125
10.383333	1	33.525000
10.400000	1	29.994000
10.416667	1	26.628500
10.433333	1	23.525750
10.450000	1	20.735750
10.466667	1	18.269375
10.483333	1	16.114750
10.500000	1	14.246125
10.516667	1	12.629375
10.533333	1	11.230250
10.550000	1	10.016875
10.566667	1	8.961250
10.583333	1	8.039250
10.600000	1	7.231875
10.616667	1	6.524500
10.633333	1	5.905500
10.650000	1	5.364000
10.666667	1	4.891500
10.683333	1	4.479875
10.700000	1	4.121250
10.716667	1	3.808750
10.733333	1	3.535750
10.750000	1	3.296000
10.766667	1	3.084500
10.783333	1	2.897625
10.800000	1	2.730250
10.816667	1	2.580500
10.833333	1	2.445375
10.850000	1	2.323500
10.866667	1	2.212625
10.883333	1	2.111500
10.900000	1	2.019125
10.916667	1	1.935000
10.933333	1	1.857375
10.950000	1	1.786375
10.966667	1	1.721250
10.983333	1	1.660500
11.000000	1	1.605125
11.016667	1	1.554000
11.033333	1	1.506750
11.050000	1	1.462875
11.066667	1	1.423000
11.083333	1	1.385000
11.100000	1	1.350125
11.116667	1	1.316875
11.133333	1	1.286750
11.150000	1	1.258125
11.166667	1	1.231625
11.183333	1	1.207250
11.200000	1	1.184125
11.216667	1	1.162000
11.233333	1	1.142000
11.250000	1	1.122625
11.266667	1	1.104000
11.283333	1	1.087000
11.300000	1	1.070625
11.316667	1	1.055000
11.333333	1	1.040000
11.350000	1	1.026000
11.366667	1	1.012875
11.383333	1	1.000750
11.400000	1	0.990250
11.416667	1	0.981250
11.433333	1	0.972625
11.450000	1	0.965375
11.466667	1	0.959125
11.483333	1	0.954375
11.500000	1	0.950625
11.516667	1	0.948125
11.533333	1	0.946875
11.550000	1	0.946625
11.566667	1	0.946750
11.583333	1	0.947500
11.600000	1	0.947875
11.616667	1	0.949375
11.633333	1	0.951750
11.650000	1	0.953375
11.666667	1	0.956000
11.683333	1	0.957375
11.700000	1	0.959500
11.716667	1	0.961125
11.733333	1	0.961750
11.750000	1	0.962625
11.766667	1	0.963125
11.783333	1	0.963250
11.800000	1	0.964125
11.816667	1	0.965000
11.833333	1	0.966625
11.850000	1	0.969375
11.866667	1	0.973375
11.883333	1	0.978625
11.900000	1	0.985375
11.916667	1	0.994125
11.933333	1	1.004750
11.950000	1	1.017875
11.966667	1	1.033500
11.983333	1	1.051625
12.000000	1	1.072625
12.016667	1	1.096625
12.033333	1	1.123500
12.050000	1	1.154375
12.066667	1	1.189500
12.083333	1	1.232375
12.100000	1	1.282625
12.116667	1	1.343375
12.133333	1	1.416375
12.150000	1	1.502875
12.166667	1	1.607000
12.183333	1	1.730250
12.200000	1	1.875375
12.216667	1	2.044500
12.233333	1	2.236875
12.250000	1	2.456250
12.266667	1	2.702750
12.283333	1	2.978500
12.300000	1	3.285375
12.316667	1	3.625125
12.333333	1	4.002750
12.350000	1	4.420625
12.366667	1	4.880250
12.383333	1	5.384250
12.400000	1	5.932750
12.416667	1	6.522750
12.433333	1	7.149000
12.450000	1	7.801750
12.466667	1	8.469000
12.483333	1	9.133250
12.500000	1	9.772500
12.516667	1	10.362500
12.533333	1	10.879125
12.550000	1	11.304750
12.566667	1	11.626000
12.583333	1	11.841625
12.600000	1	11.956875
12.616667	1	11.980875
12.633333	1	11.927875
12.650000	1	11.810500
12.666667	1	11.643625
12.683333	1	11.439000
12.700000	1	11.207250
12.716667	1	10.957125
12.733333	1	10.696125
12.750000	1	10.430125
12.766667	1	10.163125
12.783333	1	9.899125
12.800000	1	9.640000
12.816667	1	9.388750
12.833333	1	9.144875
12.850000	1	8.909125
12.866667	1	8.680875
12.883333	1	8.459125
12.900000	1	8.243375
12.916667	1	8.031875
12.933333	1	7.823625
12.950000	1	7.616375
12.966667	1	7.409875
12.983333	1	7.201875
13.000000	1	6.991875
13.016667	1	6.778875
13.033333	1	6.559875
13.050000	1	6.333125
13.066667	1	6.096875
13.083333	1	5.848625
13.100000	1	5.586750
13.116667	1	5.307250
13.133333	1	5.008500
13.150000	1	4.687750
13.166667	1	4.343625
13.183333	1	3.975625
13.200000	1	3.590375
13.216667	1	3.199250
13.233333	1	2.821000
13.250000	1	2.475125
13.266667	1	2.177125
13.283333	1	1.932125
13.300000	1	1.735375
13.316667	1	1.579250
13.333333	1	1.455125
13.350000	1	1.355250
13.366667	1	1.273375
13.383333	1	1.205500
13.400000	1	1.148625
13.416667	1	1.099625
13.433333	1	1.057125
13.450000	1	1.021500
13.466667	1	0.990250
13.483333	1	0.962750
13.500000	1	0.939625
13.516667	1	0.919875
13.533333	1	0.903125
13.550000	1	0.888750
13.566667	1	0.877500
13.583333	1	0.869375
13.600000	1	0.864000
13.616667	1	0.859500
13.633333	1	0.856375
13.650000	1	0.854750
13.666667	1	0.853000
13.683333	1	0.851375
13.700000	1	0.849375
13.716667	1	0.846250
13.733333	1	0.841500
13.750000	1	0.835875
13.766667	1	0.828625
13.783333	1	0.819750
13.800000	1	0.810750
13.816667	1	0.799750
13.833333	1	0.788125
13.850000	1	0.775125
13.866667	1	0.761750
13.883333	1	0.747750
13.900000	1	0.733875
13.916667	1	0.719500
13.933333	1	0.705250
13.950000	1	0.691500
13.966667	1	0.678500
13.983333	1	0.666500
14.000000	1	0.655000
14.016667	1	0.645000
14.033333	1	0.635625
14.050000	1	0.627250
14.066667	1	0.620125
14.083333	1	0.614500
14.100000	1	0.609875
14.116667	1	0.606750
14.133333	1	0.604875
14.150000	1	0.604375
14.166667	1	0.605875
14.183333	1	0.610125
14.200000	1	0.616000
14.216667	1	0.625125
14.233333	1	0.637625
14.250000	1	0.654625
14.266667	1	0.675750
14.283333	1	0.702875
14.300000	1	0.736625
14.316667	1	0.777375
14.333333	1	0.827125
14.350000	1	0.886875
14.366667	1	0.958375
14.383333	1	1.043000
14.400000	1	1.142500
14.416667	1	1.259125
14.433333	1	1.393250
14.450000	1	1.549125
14.466667	1	1.728000
14.483333	1	1.933000
14.500000	1	2.167250
14.516667	1	2.434500
14.533333	1	2.741125
14.550000	1	3.091875
14.566667	1	3.495875
14.583333	1	3.963875
14.600000	1	4.509875
14.616667	1	5.154125
14.633333	1	5.919500
14.650000	1	6.837000
14.666667	1	7.940000
14.683333	1	9.268125
14.700000	1	10.859875
14.716667	1	12.752875
14.733333	1	14.980250
14.750000	1	17.563750
14.766667	1	20.506125
14.783333	1	23.788125
14.800000	1	27.372375
14.816667	1	31.193625
14.833333	1	35.163750
14.850000	1	39.171875
14.866667	1	43.089625
14.883333	1	46.776750
14.900000	1	50.096875
14.916667	1	52.925750
14.933333	1	55.159750
14.950000	1	56.724625
14.966667	1	57.579125
14.983333	1	57.718750
15.000000	1	57.170625
15.016667	1	55.987000
15.033333	1	54.241125
15.050000	1	52.020375
15.066667	1	49.420125
15.083333	1	46.537750
15.100000	1	43.472375
15.116667	1	40.311375
15.133333	1	37.129875
15.150000	1	33.993500
15.166667	1	30.956250
15.183333	1	28.058875
15.200000	1	25.326875
15.216667	1	22.776875
15.233333	1	20.417875
15.250000	1	18.253750
15.266667	1	16.281500
15.283333	1	14.496625
15.300000	1	12.891500
15.316667	1	11.456375
15.333333	1	10.178000
15.350000	1	9.044750
15.366667	1	8.044000
15.383333	1	7.163375
15.400000	1	6.391375
15.416667	1	5.715750
15.433333	1	5.126625
15.450000	1	4.616375
15.466667	1	4.174625
15.483333	1	3.794375
15.500000	1	3.467625
15.516667	1	3.189375
15.533333	1	2.952625
15.550000	1	2.752250
15.566667	1	2.583000
15.583333	1	2.440375
15.600000	1	2.319125
15.616667	1	2.214750
15.633333	1	2.124375
15.650000	1	2.043875
15.666667	1	1.971000
15.683333	1	1.904125
15.700000	1	1.840125
15.716667	1	1.778250
15.733333	1	1.718750
15.750000	1	1.660500
15.766667	1	1.603875
15.783333	1	1.548375
15.800000	1	1.494625
15.816667	1	1.443250
15.833333	1	1.393625
15.850000	1	1.346625
15.866667	1	1.302375
15.883333	1	1.259500
15.900000	1	1.219500
15.916667	1	1.182500
15.933333	1	1.147875
15.950000	1	1.116125
15.966667	1	1.086750
15.983333	1	1.059750
16.000000	1	1.035875
16.016667	1	1.014125
16.033333	1	0.993625
16.050000	1	0.975750
16.066667	1	0.959375
16.083333	1	0.945500
16.100000	1	0.934000
16.116667	1	0.925000
16.133333	1	0.916500
16.150000	1	0.909625
16.166667	1	0.904375
16.183333	1	0.900500
16.200000	1	0.896000
16.216667	1	0.892875
16.233333	1	0.890250
16.250000	1	0.887875
16.266667	1	0.885250
16.283333	1	0.882125
16.300000	1	0.878375
16.316667	1	0.874625
16.333333	1	0.870500
16.350000	1	0.866750
16.366667	1	0.862125
16.383333	1	0.857500
16.400000	1	0.853625
16.416667	1	0.849250
16.433333	1	0.845375
16.450000	1	0.842000
16.466667	1	0.839000
16.483333	1	0.836375
16.500000	1	0.834625
16.516667	1	0.833750
16.533333	1	0.833125
16.550000	1	0.833750
16.566667	1	0.834750
16.583333	1	0.835375
16.600000	1	0.837500
16.616667	1	0.840875
16.633333	1	0.844375
16.650000	1	0.848500
16.666667	1	0.852375
16.683333	1	0.856500
16.700000	1	0.861000
16.716667	1	0.865250
16.733333	1	0.871000
16.750000	1	0.876500
16.766667	1	0.880750
16.783333	1	0.884375
16.800000	1	0.886750
16.816667	1	0.889250
16.833333	1	0.890250
16.850000	1	0.890625
16.866667	1	0.891000
16.883333	1	0.889500
16.900000	1	0.887500
16.916667	1	0.885500
16.933333	1	0.883750
16.950000	1	0.881750
16.966667	1	0.879625
16.983333	1	0.878375
17.000000	1	0.877250
17.016667	1	0.877375
17.033333	1	0.878125
17.050000	1	0.878750
17.066667	1	0.879000
17.083333	1	0.879375
17.100000	1	0.879375
17.116667	1	0.879125
17.133333	1	0.877375
17.150000	1	0.874625
17.166667	1	0.871750
17.183333	1	0.866500
17.200000	1	0.860875
17.216667	1	0.853750
17.233333	1	0.845750
17.250000	1	0.836625
17.266667	1	0.827250
17.283333	1	0.817125
17.300000	1	0.807250
17.316667	1	0.796250
17.333333	1	0.786000
17.350000	1	0.776125
17.366667	1	0.766375
17.383333	1	0.757250
17.400000	1	0.749125
17.416667	1	0.741625
17.433333	1	0.735750
17.450000	1	0.730375
17.466667	1	0.725750
17.483333	1	0.723375
17.500000	1	0.722250
17.516667	1	0.723250
17.533333	1	0.724625
17.550000	1	0.728875
17.566667	1	0.734750
17.583333	1	0.742375
17.600000	1	0.750750
17.616667	1	0.761250
17.633333	1	0.773375
17.650000	1	0.785500
17.666667	1	0.798625
17.683333	1	0.813125
17.700000	1	0.828125
17.716667	1	0.843625
17.733333	1	0.859375
17.750000	1	0.875000
17.766667	1	0.891125
17.783333	1	0.906500
17.800000	1	0.921375
17.816667	1	0.935125
17.833333	1	0.948000
17.850000	1	0.958375
17.866667	1	0.967500
17.883333	1	0.974750
17.900000	1	0.980375
17.916667	1	0.983500
17.933333	1	0.983750
17.950000	1	0.982750
17.966667	1	0.979500
17.983333	1	0.974250
18.000000	1	0.967750
18.016667	1	0.959625
18.033333	1	0.950375
18.050000	1	0.939625
18.066667	1	0.927250
18.083333	1	0.914875
18.100000	1	0.901125
18.116667	1	0.887625
18.133333	1	0.873500
18.150000	1	0.859875
18.166667	1	0.846500
18.183333	1	0.833500
18.200000	1	0.820875
18.216667	1	0.809125
18.233333	1	0.798875
18.250000	1	0.788125
18.266667	1	0.778750
18.283333	1	0.770750
18.300000	1	0.763000
18.316667	1	0.757000
18.333333	1	0.751125
18.350000	1	0.747000
18.366667	1	0.743750
18.383333	1	0.741625
18.400000	1	0.740125
18.416667	1	0.739250
18.433333	1	0.739000
18.450000	1	0.738625
18.466667	1	0.739125
18.483333	1	0.740250
18.500000	1	0.741500
18.516667	1	0.743000
18.533333	1	0.745250
18.550000	1	0.747875
18.566667	1	0.750250
18.583333	1	0.752375
18.600000	1	0.755250
18.616667	1	0.759375
18.633333	1	0.763500
18.650000	1	0.767875
18.666667	1	0.772000
18.683333	1	0.777875
18.700000	1	0.784250
18.716667	1	0.791250
18.733333	1	0.798750
18.750000	1	0.806375
18.766667	1	0.815125
18.783333	1	0.824125
18.800000	1	0.833750
18.816667	1	0.843375
18.833333	1	0.854000
18.850000	1	0.865125
18.866667	1	0.877250
18.883333	1	0.890500
18.900000	1	0.905250
18.916667	1	0.922000
18.933333	1	0.939500
18.950000	1	0.959500
18.966667	1	0.982125
18.983333	1	1.007875
19.000000	1	1.036375
19.016667	1	1.067000
19.033333	1	1.100750
19.050000	1	1.136500
19.066667	1	1.175750
19.083333	1	1.216250
19.100000	1	1.257500
19.116667	1	1.300000
19.133333	1	1.342625
19.150000	1	1.384125
19.166667	1	1.423750
19.183333	1	1.460000
19.200000	1	1.492750
19.216667	1	1.520500
19.233333	1	1.543500
19.250000	1	1.559125
19.266667	1	1.569250
19.283333	1	1.572875
19.300000	1	1.569375
19.316667	1	1.559625
19.333333	1	1.543375
19.350000	1	1.521250
19.366667	1	1.493875
19.383333	1	1.461375
19.400000	1	1.424000
19.416667	1	1.383750
19.433333	1	1.340125
19.450000	1	1.294375
19.466667	1	1.247750
19.483333	1	1.200875
19.500000	1	1.152750
19.516667	1	1.106750
19.533333	1	1.061250
19.550000	1	1.018125
19.566667	1	0.977250
19.583333	1	0.938500
19.600000	1	0.902375
19.616667	1	0.868500
19.633333	1	0.837375
19.650000	1	0.810375
19.666667	1	0.786750
19.683333	1	0.767125
19.700000	1	0.751500
19.716667	1	0.738750
19.733333	1	0.730125
19.750000	1	0.725250
19.766667	1	0.723875
19.783333	1	0.726250
19.800000	1	0.732125
19.816667	1	0.740750
19.833333	1	0.752750
19.850000	1	0.767750
19.866667	1	0.784875
19.883333	1	0.803875
19.900000	1	0.823750
19.916667	1	0.844250
19.933333	1	0.865500
19.950000	1	0.886125
19.966667	1	0.907375
19.983333	1	0.926500
20.000000	1	0.944250
20.016667	1	0.960000
20.033333	1	0.974125
20.050000	1	0.986625
20.066667	1	0.997125
20.083333	1	1.005625
20.100000	1	1.012625
20.116667	1	1.018875
20.133333	1	1.024500
20.150000	1	1.029000
20.166667	1	1.032500
20.183333	1	1.037250
20.200000	1	1.043250
20.216667	1	1.050500
20.233333	1	1.059625
20.250000	1	1.071125
20.266667	1	1.085250
20.283333	1	1.101875
20.300000	1	1.121125
20.316667	1	1.143375
20.333333	1	1.167375
20.350000	1	1.193125
20.366667	1	1.220250
20.383333	1	1.248375
20.400000	1	1.276625
20.416667	1	1.304625
20.433333	1	1.330375
20.450000	1	1.354500
20.466667	1	1.375750
20.483333	1	1.393750
20.500000	1	1.408125
20.516667	1	1.418750
20.533333	1	1.425125
20.550000	1	1.428250
20.566667	1	1.427000
20.583333	1	1.423875
20.600000	1	1.418875
20.616667	1	1.412500
20.633333	1	1.405500
20.650000	1	1.399375
20.666667	1	1.396125
20.683333	1	1.395625
20.700000	1	1.400125
20.716667	1	1.410000
20.733333	1	1.425625
20.750000	1	1.446500
20.766667	1	1.474875
20.783333	1	1.510000
20.800000	1	1.549625
20.816667	1	1.594250
20.833333	1	1.642000
20.850000	1	1.691250
20.866667	1	1.740250
20.883333	1	1.787625
20.900000	1	1.830250
20.916667	1	1.866125
20.933333	1	1.894625
20.950000	1	1.914875
20.966667	1	1.924500
20.983333	1	1.923750
21.000000	1	1.911250
21.016667	1	1.888000
21.033333	1	1.854750
21.050000	1	1.812125
21.066667	1	1.760625
21.083333	1	1.702625
21.100000	1	1.638500
21.116667	1	1.570125
21.133333	1	1.499750
21.150000	1	1.427500
21.166667	1	1.355250
21.183333	1	1.284000
21.200000	1	1.213500
21.216667	1	1.146000
21.233333	1	1.081750
21.250000	1	1.020875
21.266667	1	0.963500
21.283333	1	0.910625
21.300000	1	0.861250
21.316667	1	0.817125
21.333333	1	0.776375
21.350000	1	0.739375
21.366667	1	0.705375
21.383333	1	0.675500
21.400000	1	0.648250
21.416667	1	0.624000
21.433333	1	0.602500
21.450000	1	0.583250
21.466667	1	0.566250
21.483333	1	0.551750
21.500000	1	0.538250
21.516667	1	0.527000
21.533333	1	0.517875
21.550000	1	0.508875
21.566667	1	0.500500
21.583333	1	0.493750
21.600000	1	0.487875
21.616667	1	0.482125
21.633333	1	0.477625
21.650000	1	0.472625
21.666667	1	0.469250
21.683333	1	0.465875
21.700000	1	0.463750
21.716667	1	0.462000
21.733333	1	0.461250
21.750000	1	0.460750
21.766667	1	0.461625
21.783333	1	0.463250
21.800000	1	0.465250
21.816667	1	0.467625
21.833333	1	0.471500
21.850000	1	0.475500
21.866667	1	0.480625
21.883333	1	0.487125
21.900000	1	0.493500
21.916667	1	0.499750
21.933333	1	0.505875
21.950000	1	0.512375
21.966667	1	0.519250
21.983333	1	0.524125
22.000000	1	0.529000
22.016667	1	0.533000
22.033333	1	0.535875
22.050000	1	0.537750
22.066667	1	0.539000
22.083333	1	0.538375
22.100000	1	0.537000
22.116667	1	0.534250
22.133333	1	0.530875
22.150000	1	0.526500
22.166667	1	0.521000
22.183333	1	0.515500
22.200000	1	0.509625
22.216667	1	0.503375
22.233333	1	0.496875
22.250000	1	0.490875
22.266667	1	0.485750
22.283333	1	0.480750
22.300000	1	0.476000
22.316667	1	0.472250
22.333333	1	0.469875
22.350000	1	0.467375
22.366667	1	0.465375
22.383333	1	0.464875
22.400000	1	0.464875
22.416667	1	0.465750
22.433333	1	0.466875
22.450000	1	0.468750
22.466667	1	0.471750
22.483333	1	0.475125
22.500000	1	0.478125
22.516667	1	0.482000
22.533333	1	0.486500
22.550000	1	0.490625
22.566667	1	0.494750
22.583333	1	0.498875
22.600000	1	0.503500
22.616667	1	0.508000
22.633333	1	0.512125
22.650000	1	0.515875
22.666667	1	0.519625
22.683333	1	0.522750
22.700000	1	0.526125
22.716667	1	0.527875
22.733333	1	0.529625
22.750000	1	0.530750
22.766667	1	0.531375
22.783333	1	0.531875
22.800000	1	0.531250
22.816667	1	0.529500
22.833333	1	0.528000
22.850000	1	0.525125
22.866667	1	0.522000
22.883333	1	0.518875
22.900000	1	0.514875
22.916667	1	0.510125
22.933333	1	0.506000
22.950000	1	0.502500
22.966667	1	0.498500
22.983333	1	0.493500
23.000000	1	0.489250
23.016667	1	0.485625
23.033333	1	0.482625
23.050000	1	0.479875
23.066667	1	0.478250
23.083333	1	0.477625
23.100000	1	0.478000
23.116667	1	0.479125
23.133333	1	0.480875
23.150000	1	0.483875
23.166667	1	0.488000
23.183333	1	0.493625
23.200000	1	0.500125
23.216667	1	0.509125
23.233333	1	0.519375
23.250000	1	0.531000
23.266667	1	0.544500
23.283333	1	0.559625
23.300000	1	0.577375
23.316667	1	0.596375
23.333333	1	0.617875
23.350000	1	0.641375
23.366667	1	0.667625
23.383333	1	0.696500
23.400000	1	0.729125
23.416667	1	0.764500
23.433333	1	0.804250
23.450000	1	0.848375
23.466667	1	0.897500
23.483333	1	0.952375
23.500000	1	1.013875
23.516667	1	1.082625
23.533333	1	1.159625
23.550000	1	1.245750
23.566667	1	1.342625
23.583333	1	1.450875
23.600000	1	1.571500
23.616667	1	1.704750
23.633333	1	1.852625
23.650000	1	2.013875
23.666667	1	2.189125
23.683333	1	2.377375
23.700000	1	2.579375
23.716667	1	2.791750
23.733333	1	3.013500
23.750000	1	3.241625
23.766667	1	3.474125
23.783333	1	3.705375
23.800000	1	3.932125
23.816667	1	4.150875
23.833333	1	4.356375
23.850000	1	4.545125
23.866667	1	4.713125
23.883333	1	4.856625
23.900000	1	4.973750
23.916667	1	5.061625
23.933333	1	5.119250
23.950000	1	5.144750
23.966667	1	5.138125
23.983333	1	5.100250
24.000000	1	5.033375
24.016667	1	4.938000
24.033333	1	4.817875
24.050000	1	4.675875
24.066667	1	4.514625
24.083333	1	4.337375
24.100000	1	4.148750
24.116667	1	3.951125
24.133333	1	3.748250
24.150000	1	3.542875
24.166667	1	3.337500
24.183333	1	3.135875
24.200000	1	2.939750
24.216667	1	2.751000
24.233333	1	2.569875
24.250000	1	2.399500
24.266667	1	2.238875
24.283333	1	2.089250
24.300000	1	1.950500
24.316667	1	1.823125
24.333333	1	1.706125
24.350000	1	1.598750
24.366667	1	1.501250
24.383333	1	1.413500
24.400000	1	1.334625
24.416667	1	1.263500
24.433333	1	1.198875
24.450000	1	1.141375
24.466667	1	1.089125
24.483333	1	1.040875
24.500000	1	0.998125
24.516667	1	0.958875
24.533333	1	0.922750
24.550000	1	0.888375
24.566667	1	0.856000
24.583333	1	0.825750
24.600000	1	0.797625
24.616667	1	0.770750
24.633333	1	0.744375
24.650000	1	0.719125
24.666667	1	0.694625
24.683333	1	0.670750
24.700000	1	0.647125
24.716667	1	0.624125
24.733333	1	0.601750
24.750000	1	0.579125
24.766667	1	0.557875
24.783333	1	0.537000
24.800000	1	0.517500
24.816667	1	0.498000
24.833333	1	0.479500
24.850000	1	0.462375
24.866667	1	0.445875
24.883333	1	0.430750
24.900000	1	0.416375
24.916667	1	0.402750
24.933333	1	0.390500
24.950000	1	0.379000
24.966667	1	0.368000
24.983333	1	0.358625
25.000000	1	0.349375
25.016667	1	0.341625
25.033333	1	0.335250
25.050000	1	0.329250
25.066667	1	0.324500
25.083333	1	0.320500
25.100000	1	0.317250
25.116667	1	0.315500
25.133333	1	0.313750
25.150000	1	0.312875
25.166667	1	0.313000
25.183333	1	0.313375
25.200000	1	0.314250
25.216667	1	0.315375
25.233333	1	0.317375
25.250000	1	0.319750
25.266667	1	0.322625
25.283333	1	0.325500
25.300000	1	0.328500
25.316667	1	0.332000
25.333333	1	0.334875
25.350000	1	0.338750
25.366667	1	0.342500
25.383333	1	0.346125
25.400000	1	0.349750
25.416667	1	0.353000
25.433333	1	0.356125
25.450000	1	0.359250
25.466667	1	0.362375
25.483333	1	0.365250
25.500000	1	0.367500
25.516667	1	0.369500
25.533333	1	0.370250
25.550000	1	0.370875
25.566667	1	0.372375
25.583333	1	0.372875
25.600000	1	0.373000
25.616667	1	0.372750
25.633333	1	0.371875
25.650000	1	0.371000
25.666667	1	0.369750
25.683333	1	0.368125
25.700000	1	0.366625
25.716667	1	0.365125
25.733333	1	0.362250
25.750000	1	0.359625
25.766667	1	0.356500
25.783333	1	0.353125
25.800000	1	0.349500
25.816667	1	0.346875
25.833333	1	0.342750
25.850000	1	0.338125
25.866667	1	0.333250
25.883333	1	0.328375
25.900000	1	0.323250
25.916667	1	0.317250
25.933333	1	0.311000
25.950000	1	0.305000
25.966667	1	0.298875
25.983333	1	0.292625
26.000000	1	0.286125
26.016667	1	0.279625
26.033333	1	0.272875
26.050000	1	0.266500
26.066667	1	0.260375
26.083333	1	0.254500
26.100000	1	0.248500
26.116667	1	0.242875
26.133333	1	0.237875
26.150000	1	0.233125
26.166667	1	0.228375
26.183333	1	0.224500
26.200000	1	0.221500
26.216667	1	0.218750
26.233333	1	0.217125
26.250000	1	0.216125
26.266667	1	0.216250
26.283333	1	0.217125
26.300000	1	0.217875
26.316667	1	0.218500
26.333333	1	0.219125
26.350000	1	0.220500
26.366667	1	0.222250
26.383333	1	0.224000
26.400000	1	0.226375
26.416667	1	0.228750
26.433333	1	0.230625
26.450000	1	0.232500
26.466667	1	0.233375
26.483333	1	0.235625
26.500000	1	0.236625
26.516667	1	0.237375
26.533333	1	0.236875
26.550000	1	0.236375
26.566667	1	0.236125
26.583333	1	0.235250
26.600000	1	0.234250
26.616667	1	0.234000
26.633333	1	0.232500
26.650000	1	0.231000
26.666667	1	0.228250
26.683333	1	0.226500
26.700000	1	0.224875
26.716667	1	0.223000
26.733333	1	0.221000
26.750000	1	0.218750
26.766667	1	0.217500
26.783333	1	0.216750
26.800000	1	0.215500
26.816667	1	0.214875
26.833333	1	0.215000
26.850000	1	0.214875
26.866667	1	0.215625
26.883333	1	0.216375
26.900000	1	0.218375
26.916667	1	0.220125
26.933333	1	0.222875
26.950000	1	0.225625
26.966667	1	0.228625
26.983333	1	0.233000
27.000000	1	0.237375
27.016667	1	0.242625
27.033333	1	0.248750
27.050000	1	0.255000
27.066667	1	0.262125
27.083333	1	0.270375
27.100000	1	0.278625
27.116667	1	0.287500
27.133333	1	0.297125
27.150000	1	0.307625
27.166667	1	0.319000
27.183333	1	0.330875
27.200000	1	0.344000
27.216667	1	0.357250
27.233333	1	0.371750
27.250000	1	0.387500
27.266667	1	0.403250
27.283333	1	0.420625
27.300000	1	0.437750
27.316667	1	0.457750
27.333333	1	0.478250
27.350000	1	0.500250
27.366667	1	0.523500
27.383333	1	0.548375
27.400000	1	0.575500
27.416667	1	0.604500
27.433333	1	0.636125
27.450000	1	0.669875
27.466667	1	0.707000
27.483333	1	0.747500
27.500000	1	0.791625
27.516667	1	0.839625
27.533333	1	0.892250
27.550000	1	0.950750
27.566667	1	1.014875
27.583333	1	1.085250
27.600000	1	1.161375
27.616667	1	1.245000
27.633333	1	1.336250
27.650000	1	1.434375
27.666667	1	1.541625
27.683333	1	1.655375
27.700000	1	1.777125
27.716667	1	1.905375
27.733333	1	2.041000
27.750000	1	2.183125
27.766667	1	2.329750
27.783333	1	2.479250
27.800000	1	2.631125
27.816667	1	2.784875
27.833333	1	2.937750
27.850000	1	3.087500
27.866667	1	3.232500
27.883333	1	3.370875
27.900000	1	3.500250
27.916667	1	3.619625
27.933333	1	3.725750
27.950000	1	3.817625
27.966667	1	3.893250
27.983333	1	3.952500
28.000000	1	3.993250
28.016667	1	4.014750
28.033333	1	4.017250
28.050000	1	4.000125
28.066667	1	3.963000
28.083333	1	3.905750
28.100000	1	3.829875
28.116667	1	3.737500
28.133333	1	3.630250
28.150000	1	3.508250
28.166667	1	3.374750
28.183333	1	3.231500
28.200000	1	3.079500
28.216667	1	2.921500
28.233333	1	2.758500
28.250000	1	2.593625
28.266667	1	2.427375
28.283333	1	2.262500
28.300000	1	2.099500
28.316667	1	1.940125
28.333333	1	1.785625
28.350000	1	1.636750
28.366667	1	1.494625
28.383333	1	1.359375
28.400000	1	1.230000
28.416667	1	1.107500
28.433333	1	0.992875
28.450000	1	0.884250
28.466667	1	0.782375
28.483333	1	0.686250
28.500000	1	0.595250
28.516667	1	0.509750
28.533333	1	0.429625
28.550000	1	0.353875
28.566667	1	0.282250
28.583333	1	0.213875
28.600000	1	0.149625
28.616667	1	0.087125
28.633333	1	0.027500
28.650000	1	-0.029375
28.666667	1	-0.084000
28.683333	1	-0.136500
28.700000	1	-0.186250
28.716667	1	-0.234250
28.733333	1	-0.280625
28.750000	1	-0.323625
28.766667	1	-0.364250
28.783333	1	-0.402125
28.800000	1	-0.436750
28.816667	1	-0.468875
28.833333	1	-0.498000
28.850000	1	-0.523375
28.866667	1	-0.545375
28.883333	1	-0.564000
28.900000	1	-0.578375
28.916667	1	-0.589375
28.933333	1	-0.597375
28.950000	1	-0.600875
28.966667	1	-0.599875
28.983333	1	-0.595875
29.000000	1	-0.587875
29.016667	1	-0.576125
29.033333	1	-0.560750
29.050000	1	-0.542250
29.066667	1	-0.521000
29.083333	1	-0.496125
29.100000	1	-0.469000
29.116667	1	-0.439750
29.133333	1	-0.408250
29.150000	1	-0.374750
29.166667	1	-0.340875
29.183333	1	-0.305250
29.200000	1	-0.268125
29.216667	1	-0.230375
29.233333	1	-0.192000
29.250000	1	-0.154375
29.266667	1	-0.116500
29.283333	1	-0.078875
29.300000	1	-0.042000
29.316667	1	-0.005250
29.333333	1	0.030500
29.350000	1	0.065625
29.366667	1	0.099875
29.383333	1	0.132750
29.400000	1	0.163500
29.416667	1	0.193750
29.433333	1	0.222125
29.450000	1	0.249500
29.466667	1	0.275125
29.483333	1	0.299250
29.500000	1	0.321000
29.516667	1	0.341250
29.533333	1	0.359625
29.550000	1	0.376625
29.566667	1	0.392375
29.583333	1	0.406875
29.600000	1	0.419625
29.616667	1	0.430000
29.633333	1	0.439000
29.650000	1	0.446250
29.666667	1	0.452625
29.683333	1	0.457000
29.700000	1	0.460000
29.716667	1	0.462000
29.733333	1	0.463625
29.750000	1	0.463625
29.766667	1	0.462000
29.783333	1	0.459500
29.800000	1	0.456500
29.816667	1	0.452750
29.833333	1	0.448625
29.850000	1	0.444000
29.866667	1	0.439500
29.883333	1	0.434125
29.900000	1	0.428125
29.916667	1	0.422250
29.933333	1	0.416375
29.950000	1	0.411000
29.966667	1	0.405375
29.983333	1	0.400500
30.000000	1	0.395750
30.016667	1	0.390375
30.033333	1	0.385625
30.050000	1	0.381000
30.066667	1	0.376750
30.083333	1	0.372500
30.100000	1	0.368750
30.116667	1	0.364375
30.133333	1	0.360625
30.150000	1	0.357125
30.166667	1	0.354375
30.183333	1	0.351250
30.200000	1	0.349000
30.216667	1	0.346500
30.233333	1	0.344125
30.250000	1	0.341875
30.266667	1	0.340125
30.283333	1	0.337875
30.300000	1	0.336125
30.316667	1	0.334250
30.333333	1	0.332750
30.350000	1	0.331750
30.366667	1	0.330750
30.383333	1	0.330500
30.400000	1	0.329500
30.416667	1	0.329750
30.433333	1	0.330125
30.450000	1	0.330875
30.466667	1	0.331750
30.483333	1	0.332750
30.500000	1	0.334750
30.516667	1	0.337250
30.533333	1	0.340125
30.550000	1	0.344250
30.566667	1	0.347625
30.583333	1	0.351625
30.600000	1	0.355375
30.616667	1	0.360250
30.633333	1	0.364875
30.650000	1	0.369125
30.666667	1	0.373625
30.683333	1	0.378000
30.700000	1	0.382250
30.716667	1	0.386125
30.733333	1	0.389750
30.750000	1	0.392250
30.766667	1	0.395250
30.783333	1	0.397375
30.800000	1	0.398500
30.816667	1	0.398875
30.833333	1	0.398750
30.850000	1	0.397625
30.866667	1	0.394875
30.883333	1	0.392000
30.900000	1	0.388750
30.916667	1	0.383875
30.933333	1	0.378750
30.950000	1	0.373125
30.966667	1	0.367125
30.983333	1	0.360750
31.000000	1	0.353750
31.016667	1	0.346750
31.033333	1	0.338750
31.050000	1	0.330500
31.066667	1	0.322250
31.083333	1	0.314250
31.100000	1	0.306125
31.116667	1	0.297750
31.133333	1	0.289375
31.150000	1	0.281625
31.166667	1	0.274500
31.183333	1	0.268000
31.200000	1	0.260750
31.216667	1	0.254375
31.233333	1	0.248500
31.250000	1	0.242625
31.266667	1	0.237375
31.283333	1	0.231875
31.300000	1	0.226750
31.316667	1	0.222750
31.333333	1	0.219750
31.350000	1	0.216875
31.366667	1	0.214875
31.383333	1	0.213500
31.400000	1	0.211625
31.416667	1	0.210500
31.433333	1	0.209500
31.450000	1	0.209500
31.466667	1	0.209500
31.483333	1	0.209625
31.500000	1	0.210000
31.516667	1	0.210250
31.533333	1	0.211500
31.550000	1	0.212875
31.566667	1	0.214250
31.583333	1	0.216750
31.600000	1	0.220000
31.616667	1	0.222750
31.633333	1	0.225750
31.650000	1	0.229500
31.666667	1	0.233500
31.683333	1	0.237000
31.700000	1	0.241500
31.716667	1	0.246250
31.733333	1	0.251500
31.750000	1	0.256375
31.766667	1	0.262375
31.783333	1	0.268125
31.800000	1	0.274000
31.816667	1	0.279750
31.833333	1	0.285750
31.850000	1	0.291875
31.866667	1	0.297375
31.883333	1	0.302500
31.900000	1	0.307750
31.916667	1	0.312625
31.933333	1	0.316875
31.950000	1	0.320625
31.966667	1	0.324250
31.983333	1	0.326625
32.000000	1	0.329250
32.016667	1	0.330875
32.033333	1	0.332000
32.050000	1	0.331750
32.066667	1	0.331750
32.083333	1	0.330125
32.100000	1	0.328875
32.116667	1	0.325875
32.133333	1	0.321625
32.150000	1	0.317625
32.166667	1	0.313250
32.183333	1	0.307500
32.200000	1	0.301875
32.216667	1	0.295375
32.233333	1	0.288375
32.250000	1	0.280375
32.266667	1	0.272625
32.283333	1	0.264500
32.300000	1	0.255875
32.316667	1	0.247625
32.333333	1	0.239000
32.350000	1	0.230250
32.366667	1	0.221250
32.383333	1	0.212875
32.400000	1	0.205000
32.416667	1	0.196500
32.433333	1	0.188250
32.450000	1	0.180375
32.466667	1	0.172250
32.483333	1	0.165000
32.500000	1	0.158250
32.516667	1	0.151125
32.533333	1	0.144750
32.550000	1	0.139000
32.566667	1	0.133875
32.583333	1	0.128000
32.600000	1	0.122250
32.616667	1	0.117125
32.633333	1	0.112375
32.650000	1	0.107750
32.666667	1	0.103125
32.683333	1	0.099000
32.700000	1	0.094500
32.716667	1	0.090500
32.733333	1	0.087125
32.750000	1	0.084625
32.766667	1	0.081375
32.783333	1	0.078875
32.800000	1	0.075375
32.816667	1	0.072375
32.833333	1	0.069375
32.850000	1	0.066500
32.866667	1	0.063250
32.883333	1	0.060750
32.900000	1	0.058625
32.916667	1	0.056875
32.933333	1	0.054750
32.950000	1	0.052750
32.966667	1	0.051375
32.983333	1	0.050125
33.000000	1	0.049500
33.016667	1	0.048000
33.033333	1	0.046625
33.050000	1	0.045000
33.066667	1	0.043625
33.083333	1	0.042500
33.100000	1	0.041250
33.116667	1	0.040500
33.133333	1	0.039750
33.150000	1	0.039125
33.166667	1	0.039250
33.183333	1	0.039250
33.200000	1	0.038500
33.216667	1	0.038375
33.233333	1	0.038375
33.250000	1	0.039125
33.266667	1	0.039875
33.283333	1	0.040500
33.300000	1	0.041250
33.316667	1	0.043000
33.333333	1	0.045000
33.350000	1	0.046625
33.366667	1	0.048625
33.383333	1	0.051875
33.400000	1	0.054625
33.416667	1	0.057250
33.433333	1	0.060000
33.450000	1	0.063875
33.466667	1	0.067125
33.483333	1	0.071625
33.500000	1	0.074875
33.516667	1	0.079625
33.533333	1	0.085125
33.550000	1	0.090375
33.566667	1	0.096000
33.583333	1	0.102125
33.600000	1	0.108750
33.616667	1	0.115375
33.633333	1	0.122750
33.650000	1	0.131125
33.666667	1	0.140000
33.683333	1	0.149875
33.700000	1	0.160375
33.716667	1	0.171125
33.733333	1	0.182875
33.750000	1	0.195250
33.766667	1	0.209625
33.783333	1	0.224125
33.800000	1	0.239500
33.816667	1	0.256250
33.833333	1	0.274125
33.850000	1	0.293625
33.866667	1	0.315375
33.883333	1	0.337875
33.900000	1	0.361750
33.916667	1	0.387375
33.933333	1	0.415000
33.950000	1	0.443875
33.966667	1	0.474375
33.983333	1	0.507750
34.000000	1	0.541625
34.016667	1	0.577250
34.033333	1	0.614375
34.050000	1	0.652375
34.066667	1	0.692125
34.083333	1	0.732250
34.100000	1	0.772750
34.116667	1	0.813500
34.133333	1	0.854500
34.150000	1	0.894750
34.166667	1	0.934375
34.183333	1	0.972875
34.200000	1	1.010000
34.216667	1	1.045375
34.233333	1	1.078000
34.250000	1	1.108375
34.266667	1	1.135375
34.283333	1	1.159625
34.300000	1	1.180125
34.316667	1	1.197250
34.333333	1	1.210625
34.350000	1	1.220000
34.366667	1	1.225500
34.383333	1	1.226750
34.400000	1	1.223375
34.416667	1	1.215875
34.433333	1	1.205250
34.450000	1	1.191125
34.466667	1	1.173250
34.483333	1	1.152250
34.500000	1	1.127875
34.516667	1	1.101375
34.533333	1	1.072250
34.550000	1	1.041000
34.566667	1	1.007875
34.583333	1	0.973875
34.600000	1	0.937875
34.616667	1	0.901000
34.633333	1	0.864125
34.650000	1	0.827250
34.666667	1	0.790875
34.683333	1	0.753625
34.700000	1	0.717250
34.716667	1	0.682500
34.733333	1	0.648500
34.750000	1	0.615250
34.766667	1	0.583375
34.783333	1	0.553375
34.800000	1	0.524125
34.816667	1	0.496875
34.833333	1	0.470250
34.850000	1	0.446000
34.866667	1	0.423125
34.883333	1	0.402250
34.900000	1	0.382500
34.916667	1	0.364125
34.933333	1	0.347750
34.950000	1	0.332500
34.966667	1	0.318375
34.983333	1	0.305125
35.000000	1	0.294000
35.016667	1	0.283125
35.033333	1	0.273500
35.050000	1	0.265375
35.066667	1	0.257125
35.083333	1	0.250250
35.100000	1	0.244375
35.116667	1	0.239125
35.133333	1	0.234000
35.150000	1	0.229875
35.166667	1	0.226625
35.183333	1	0.223500
35.200000	1	0.221000
35.216667	1	0.218250
35.233333	1	0.216500
35.250000	1	0.214625
35.266667	1	0.213000
35.283333	1	0.211250
35.300000	1	0.210500
35.316667	1	0.209625
35.333333	1	0.209250
35.350000	1	0.208750
35.366667	1	0.207875
35.383333	1	0.207125
35.400000	1	0.206375
35.416667	1	0.205875
35.433333	1	0.206125
35.450000	1	0.205625
35.466667	1	0.204500
35.483333	1	0.203500
35.500000	1	0.202750
35.516667	1	0.201625
35.533333	1	0.200625
35.550000	1	0.199375
35.566667	1	0.198875
35.583333	1	0.198125
35.600000	1	0.196625
35.616667	1	0.195125
35.633333	1	0.193625
35.650000	1	0.192500
35.666667	1	0.191125
35.683333	1	0.189750
35.700000	1	0.188375
35.716667	1	0.186500
35.733333	1	0.185500
35.750000	1	0.184375
35.766667	1	0.183375
35.783333	1	0.181625
35.800000	1	0.180125
35.816667	1	0.178500
35.833333	1	0.176875
35.850000	1	0.176125
35.866667	1	0.174625
35.883333	1	0.173000
35.900000	1	0.172000
35.916667	1	0.171000
35.933333	1	0.169875
35.950000	1	0.168875
35.966667	1	0.168750
35.983333	1	0.167875
36.000000	1	0.166875
36.016667	1	0.165500
36.033333	1	0.164500
36.050000	1	0.162875
36.066667	1	0.161875
36.083333	1	0.160000
36.100000	1	0.158500
36.116667	1	0.157250
36.133333	1	0.156375
36.150000	1	0.155125
36.166667	1	0.153000
36.183333	1	0.151000
36.200000	1	0.148625
36.216667	1	0.145750
36.233333	1	0.143750
36.250000	1	0.141625
36.266667	1	0.139000
36.283333	1	0.136750
36.300000	1	0.134375
36.316667	1	0.132875
36.333333	1	0.130125
36.350000	1	0.128250
36.366667	1	0.125125
36.383333	1	0.123250
36.400000	1	0.120250
36.416667	1	0.117625
36.433333	1	0.115375
36.450000	1	0.112250
36.466667	1	0.109750
36.483333	1	0.107750
36.500000	1	0.105125
36.516667	1	0.103375
36.533333	1	0.101250
36.550000	1	0.098750
36.566667	1	0.096250
36.583333	1	0.093375
36.600000	1	0.090625
36.616667	1	0.087500
36.633333	1	0.084375
36.650000	1	0.081625
36.666667	1	0.078750
36.683333	1	0.075875
36.700000	1	0.072500
36.716667	1	0.068500
36.733333	1	0.065625
36.750000	1	0.062500
36.766667	1	0.059250
36.783333	1	0.055625
36.800000	1	0.052500
36.816667	1	0.048375
36.833333	1	0.045125
36.850000	1	0.042000
36.866667	1	0.038375
36.883333	1	0.034625
36.900000	1	0.031750
36.916667	1	0.028875
36.933333	1	0.025500
36.950000	1	0.022125
36.966667	1	0.019375
36.983333	1	0.016250
37.000000	1	0.013500
37.016667	1	0.011125
37.033333	1	0.008125
37.050000	1	0.007000
37.066667	1	0.005750
37.083333	1	0.003750
37.100000	1	0.001750
37.116667	1	0.000375
37.133333	1	-0.001125
37.150000	1	-0.002500
37.166667	1	-0.003250
37.183333	1	-0.003875
37.200000	1	-0.004375
37.216667	1	-0.004250
37.233333	1	-0.004875
37.250000	1	-0.005375
37.266667	1	-0.005375
37.283333	1	-0.005250
37.300000	1	-0.005500
37.316667	1	-0.004875
37.333333	1	-0.004625
37.350000	1	-0.004375
37.366667	1	-0.004250
37.383333	1	-0.004375
37.400000	1	-0.003875
37.416667	1	-0.004250
37.433333	1	-0.004000
37.450000	1	-0.003875
37.466667	1	-0.003875
37.483333	1	-0.003250
37.500000	1	-0.003000
37.516667	1	-0.002500
37.533333	1	-0.002000
37.550000	1	-0.002000
37.566667	1	-0.001875
37.583333	1	-0.001500
37.600000	1	-0.001500
37.616667	1	-0.001375
37.633333	1	-0.000875
37.650000	1	0.000000
37.666667	1	-0.000500
37.683333	1	-0.000375
37.700000	1	0.000625
37.716667	1	0.001000
37.733333	1	0.001750
37.750000	1	0.001875
37.766667	1	0.002000
37.783333	1	0.002125
37.800000	1	0.002000
37.816667	1	0.002125
37.833333	1	0.002750
37.850000	1	0.003375
37.866667	1	0.003500
37.883333	1	0.004000
37.900000	1	0.003875
37.916667	1	0.004500
37.933333	1	0.005875
37.950000	1	0.006625
37.966667	1	0.006875
37.983333	1	0.006875
38.000000	1	0.007375
38.016667	1	0.007500
38.033333	1	0.007625
38.050000	1	0.008125
38.066667	1	0.008750
38.083333	1	0.009125
38.100000	1	0.009500
38.116667	1	0.009250
38.133333	1	0.008500
38.150000	1	0.008625
38.166667	1	0.007500
38.183333	1	0.006750
38.200000	1	0.006500
38.216667	1	0.005000
38.233333	1	0.004250
38.250000	1	0.002875
38.266667	1	0.001250
38.283333	1	0.000625
38.300000	1	-0.000750
38.316667	1	-0.001875
38.333333	1	-0.003500
38.350000	1	-0.005000
38.366667	1	-0.006375
38.383333	1	-0.007375
38.400000	1	-0.009250
38.416667	1	-0.010375
38.433333	1	-0.011625
38.450000	1	-0.013250
38.466667	1	-0.014625
38.483333	1	-0.015750
38.500000	1	-0.017000
38.516667	1	-0.018375
38.533333	1	-0.019750
38.550000	1	-0.021250
38.566667	1	-0.021750
38.583333	1	-0.023000
38.600000	1	-0.023375
38.616667	1	-0.024375
38.633333	1	-0.024500
38.650000	1	-0.024500
38.666667	1	-0.024875
38.683333	1	-0.025750
38.700000	1	-0.026125
38.716667	1	-0.026000
38.733333	1	-0.026125
38.750000	1	-0.026000
38.766667	1	-0.026000
38.783333	1	-0.025625
38.800000	1	-0.025750
38.816667	1	-0.025875
38.833333	1	-0.025750
38.850000	1	-0.025375
38.866667	1	-0.024750
38.883333	1	-0.024000
38.900000	1	-0.024125
38.916667	1	-0.024125
38.933333	1	-0.023625
38.950000	1	-0.024000
38.966667	1	-0.023625
38.983333	1	-0.022750
39.000000	1	-0.021500
39.016667	1	-0.020750
39.033333	1	-0.020250
39.050000	1	-0.019875
39.066667	1	-0.019000
39.083333	1	-0.017625
39.100000	1	-0.016625
39.116667	1	-0.014875
39.133333	1	-0.014125
39.150000	1	-0.012625
39.166667	1	-0.011875
39.183333	1	-0.010625
39.200000	1	-0.009125
39.216667	1	-0.008000
39.233333	1	-0.006625
39.250000	1	-0.004625
39.266667	1	-0.002875
39.283333	1	-0.001250
39.300000	1	0.001000
39.316667	1	0.002875
39.333333	1	0.004250
39.350000	1	0.006375
39.366667	1	0.008875
39.383333	1	0.010625
39.400000	1	0.011750
39.416667	1	0.013625
39.433333	1	0.015625
39.450000	1	0.017000
39.466667	1	0.018875
39.483333	1	0.020750
39.500000	1	0.022625
39.516667	1	0.024375
39.533333	1	0.026000
39.550000	1	0.027375
39.566667	1	0.029125
39.583333	1	0.030875
39.600000	1	0.032375
39.616667	1	0.034000
39.633333	1	0.035500
39.650000	1	0.036875
39.666667	1	0.038250
39.683333	1	0.040125
39.700000	1	0.040875
39.716667	1	0.042000
39.733333	1	0.042750
39.750000	1	0.043250
39.766667	1	0.044125
39.783333	1	0.045500
39.800000	1	0.045750
39.816667	1	0.046750
39.833333	1	0.047500
39.850000	1	0.048000
39.866667	1	0.048250
39.883333	1	0.048625
39.900000	1	0.048875
39.916667	1	0.048625
39.933333	1	0.048375
39.950000	1	0.048250
39.966667	1	0.048125
39.983333	1	0.048750
40.000000	1	0.048500
