File Path	chrom://marshall/Chromeleon7/HPLC_Ultimate_3000/Users/markusar/20230610_CMO_FP11_FP12.seq/455.smp/RI_1.channel/RI_1.chm
Channel	RI_1

Injection Information:
Data Vault	Chromeleon7
Injection	FP11_7_S4
Injection Number	5
Position	BA4
Comment	
Processing Method	
Instrument Method	run_25B_method
Type	Unknown
Status	Finished
Injection Date	10.06.2023
Injection Time	21:27:44
Injection Volume (µl)	20.000
Dilution Factor	1.0000
Weight	1.0000

Chromatogram Data Information:
Time Min. (min)	0.000000
Time Max. (min)	40.000000
Data Points	2401
Detector	RI
Generating Data System	Chromeleon 7.2.5.9507
Exporting Data System	Chromeleon 7.2.5.0
Operator	Instrument Controller
Signal Quantity	Refractive 
Signal Unit	µRIU
Signal Min.	-0.625125
Signal Max.	37.106375
Channel	RI_1
Driver Name	RID520Driver.dll
Channel Type	Evaluation
Min. Step (s)	1
Max. Step (s)	1
Average Step (s)	1

Signal Parameter Information:
Signal Info	

Chromatogram Data:
Time (min)	Step (s)	Value (µRIU)
0.000000	n.a.	-0.014750
0.016667	1	-0.015125
0.033333	1	-0.015250
0.050000	1	-0.014875
0.066667	1	-0.014000
0.083333	1	-0.013375
0.100000	1	-0.013375
0.116667	1	-0.012875
0.133333	1	-0.012625
0.150000	1	-0.012125
0.166667	1	-0.011500
0.183333	1	-0.011000
0.200000	1	-0.010250
0.216667	1	-0.010375
0.233333	1	-0.010125
0.250000	1	-0.009875
0.266667	1	-0.009500
0.283333	1	-0.009375
0.300000	1	-0.008625
0.316667	1	-0.009375
0.333333	1	-0.010750
0.350000	1	-0.014750
0.366667	1	-0.017750
0.383333	1	-0.018125
0.400000	1	-0.016250
0.416667	1	-0.013000
0.433333	1	-0.009750
0.450000	1	-0.006500
0.466667	1	-0.004125
0.483333	1	-0.002375
0.500000	1	-0.000125
0.516667	1	0.000750
0.533333	1	0.001250
0.550000	1	-0.000500
0.566667	1	-0.002625
0.583333	1	-0.005375
0.600000	1	-0.007875
0.616667	1	-0.010500
0.633333	1	-0.012375
0.650000	1	-0.014125
0.666667	1	-0.016250
0.683333	1	-0.018375
0.700000	1	-0.020375
0.716667	1	-0.021750
0.733333	1	-0.023500
0.750000	1	-0.025500
0.766667	1	-0.027375
0.783333	1	-0.028875
0.800000	1	-0.030375
0.816667	1	-0.032500
0.833333	1	-0.034125
0.850000	1	-0.035375
0.866667	1	-0.036875
0.883333	1	-0.038875
0.900000	1	-0.040250
0.916667	1	-0.041750
0.933333	1	-0.043625
0.950000	1	-0.045000
0.966667	1	-0.046500
0.983333	1	-0.047875
1.000000	1	-0.048750
1.016667	1	-0.049500
1.033333	1	-0.050750
1.050000	1	-0.051875
1.066667	1	-0.052750
1.083333	1	-0.053750
1.100000	1	-0.054625
1.116667	1	-0.055125
1.133333	1	-0.055875
1.150000	1	-0.057125
1.166667	1	-0.057250
1.183333	1	-0.058250
1.200000	1	-0.058250
1.216667	1	-0.058625
1.233333	1	-0.058250
1.250000	1	-0.059375
1.266667	1	-0.059375
1.283333	1	-0.059625
1.300000	1	-0.059875
1.316667	1	-0.059625
1.333333	1	-0.059750
1.350000	1	-0.059750
1.366667	1	-0.059875
1.383333	1	-0.059875
1.400000	1	-0.059625
1.416667	1	-0.059250
1.433333	1	-0.059625
1.450000	1	-0.059500
1.466667	1	-0.059500
1.483333	1	-0.058750
1.500000	1	-0.058125
1.516667	1	-0.058250
1.533333	1	-0.058000
1.550000	1	-0.057750
1.566667	1	-0.057750
1.583333	1	-0.057750
1.600000	1	-0.057625
1.616667	1	-0.057625
1.633333	1	-0.056875
1.650000	1	-0.056875
1.666667	1	-0.056250
1.683333	1	-0.055375
1.700000	1	-0.055000
1.716667	1	-0.054500
1.733333	1	-0.054375
1.750000	1	-0.054125
1.766667	1	-0.054250
1.783333	1	-0.054375
1.800000	1	-0.054875
1.816667	1	-0.054375
1.833333	1	-0.053875
1.850000	1	-0.053500
1.866667	1	-0.053375
1.883333	1	-0.053375
1.900000	1	-0.053000
1.916667	1	-0.052750
1.933333	1	-0.053375
1.950000	1	-0.053625
1.966667	1	-0.053500
1.983333	1	-0.052875
2.000000	1	-0.052125
2.016667	1	-0.052250
2.033333	1	-0.051875
2.050000	1	-0.051625
2.066667	1	-0.051000
2.083333	1	-0.051750
2.100000	1	-0.052125
2.116667	1	-0.052375
2.133333	1	-0.052125
2.150000	1	-0.052375
2.166667	1	-0.051625
2.183333	1	-0.051625
2.200000	1	-0.051500
2.216667	1	-0.051625
2.233333	1	-0.051250
2.250000	1	-0.051625
2.266667	1	-0.050750
2.283333	1	-0.050375
2.300000	1	-0.050750
2.316667	1	-0.050625
2.333333	1	-0.050375
2.350000	1	-0.050500
2.366667	1	-0.050250
2.383333	1	-0.050125
2.400000	1	-0.049750
2.416667	1	-0.049750
2.433333	1	-0.049250
2.450000	1	-0.049500
2.466667	1	-0.048500
2.483333	1	-0.048750
2.500000	1	-0.048250
2.516667	1	-0.048000
2.533333	1	-0.047000
2.550000	1	-0.046625
2.566667	1	-0.046125
2.583333	1	-0.045875
2.600000	1	-0.045750
2.616667	1	-0.044875
2.633333	1	-0.044625
2.650000	1	-0.044500
2.666667	1	-0.044375
2.683333	1	-0.044250
2.700000	1	-0.043875
2.716667	1	-0.044375
2.733333	1	-0.043750
2.750000	1	-0.043750
2.766667	1	-0.043750
2.783333	1	-0.043500
2.800000	1	-0.043000
2.816667	1	-0.043125
2.833333	1	-0.043250
2.850000	1	-0.042750
2.866667	1	-0.042625
2.883333	1	-0.042750
2.900000	1	-0.042875
2.916667	1	-0.043250
2.933333	1	-0.043250
2.950000	1	-0.042750
2.966667	1	-0.043125
2.983333	1	-0.042875
3.000000	1	-0.042625
3.016667	1	-0.042625
3.033333	1	-0.042625
3.050000	1	-0.042875
3.066667	1	-0.043125
3.083333	1	-0.043625
3.100000	1	-0.043875
3.116667	1	-0.044125
3.133333	1	-0.044375
3.150000	1	-0.044375
3.166667	1	-0.043875
3.183333	1	-0.043500
3.200000	1	-0.043625
3.216667	1	-0.043875
3.233333	1	-0.043750
3.250000	1	-0.043500
3.266667	1	-0.043500
3.283333	1	-0.043250
3.300000	1	-0.043500
3.316667	1	-0.042750
3.333333	1	-0.042625
3.350000	1	-0.042625
3.366667	1	-0.042500
3.383333	1	-0.042375
3.400000	1	-0.041500
3.416667	1	-0.040875
3.433333	1	-0.040625
3.450000	1	-0.040125
3.466667	1	-0.039375
3.483333	1	-0.038875
3.500000	1	-0.038625
3.516667	1	-0.038375
3.533333	1	-0.037875
3.550000	1	-0.037625
3.566667	1	-0.037375
3.583333	1	-0.036875
3.600000	1	-0.036000
3.616667	1	-0.035750
3.633333	1	-0.035375
3.650000	1	-0.034250
3.666667	1	-0.034000
3.683333	1	-0.033125
3.700000	1	-0.032625
3.716667	1	-0.032000
3.733333	1	-0.031000
3.750000	1	-0.030000
3.766667	1	-0.029250
3.783333	1	-0.028500
3.800000	1	-0.028250
3.816667	1	-0.027375
3.833333	1	-0.026625
3.850000	1	-0.026000
3.866667	1	-0.025375
3.883333	1	-0.024375
3.900000	1	-0.023625
3.916667	1	-0.023125
3.933333	1	-0.022500
3.950000	1	-0.022250
3.966667	1	-0.022250
3.983333	1	-0.022000
4.000000	1	-0.021250
4.016667	1	-0.020625
4.033333	1	-0.020375
4.050000	1	-0.020500
4.066667	1	-0.020875
4.083333	1	-0.020500
4.100000	1	-0.021250
4.116667	1	-0.021500
4.133333	1	-0.021000
4.150000	1	-0.020625
4.166667	1	-0.020875
4.183333	1	-0.021500
4.200000	1	-0.021625
4.216667	1	-0.021625
4.233333	1	-0.022000
4.250000	1	-0.022625
4.266667	1	-0.023250
4.283333	1	-0.023375
4.300000	1	-0.024250
4.316667	1	-0.024750
4.333333	1	-0.025250
4.350000	1	-0.025500
4.366667	1	-0.026125
4.383333	1	-0.026250
4.400000	1	-0.026375
4.416667	1	-0.026375
4.433333	1	-0.026750
4.450000	1	-0.027375
4.466667	1	-0.028125
4.483333	1	-0.029000
4.500000	1	-0.029500
4.516667	1	-0.030125
4.533333	1	-0.030250
4.550000	1	-0.030375
4.566667	1	-0.030000
4.583333	1	-0.030875
4.600000	1	-0.030375
4.616667	1	-0.030125
4.633333	1	-0.029625
4.650000	1	-0.030000
4.666667	1	-0.029625
4.683333	1	-0.030125
4.700000	1	-0.029875
4.716667	1	-0.029750
4.733333	1	-0.029250
4.750000	1	-0.028500
4.766667	1	-0.028500
4.783333	1	-0.027875
4.800000	1	-0.026750
4.816667	1	-0.025250
4.833333	1	-0.024500
4.850000	1	-0.023750
4.866667	1	-0.022500
4.883333	1	-0.020875
4.900000	1	-0.019625
4.916667	1	-0.018625
4.933333	1	-0.016875
4.950000	1	-0.015375
4.966667	1	-0.013625
4.983333	1	-0.011500
5.000000	1	-0.008875
5.016667	1	-0.007250
5.033333	1	-0.005625
5.050000	1	-0.004000
5.066667	1	-0.002000
5.083333	1	0.000375
5.100000	1	0.002125
5.116667	1	0.004000
5.133333	1	0.005750
5.150000	1	0.008500
5.166667	1	0.010125
5.183333	1	0.012500
5.200000	1	0.014750
5.216667	1	0.016500
5.233333	1	0.018625
5.250000	1	0.020000
5.266667	1	0.021875
5.283333	1	0.023625
5.300000	1	0.025625
5.316667	1	0.027375
5.333333	1	0.029000
5.350000	1	0.030500
5.366667	1	0.032000
5.383333	1	0.033250
5.400000	1	0.034500
5.416667	1	0.035500
5.433333	1	0.036500
5.450000	1	0.037375
5.466667	1	0.037750
5.483333	1	0.038000
5.500000	1	0.038875
5.516667	1	0.039750
5.533333	1	0.039875
5.550000	1	0.040000
5.566667	1	0.040000
5.583333	1	0.041500
5.600000	1	0.041500
5.616667	1	0.041250
5.633333	1	0.040500
5.650000	1	0.040000
5.666667	1	0.039875
5.683333	1	0.039750
5.700000	1	0.038750
5.716667	1	0.038000
5.733333	1	0.037000
5.750000	1	0.035875
5.766667	1	0.035625
5.783333	1	0.035000
5.800000	1	0.034000
5.816667	1	0.033750
5.833333	1	0.032250
5.850000	1	0.031375
5.866667	1	0.030625
5.883333	1	0.029250
5.900000	1	0.028375
5.916667	1	0.027750
5.933333	1	0.027125
5.950000	1	0.026125
5.966667	1	0.025750
5.983333	1	0.024625
6.000000	1	0.024125
6.016667	1	0.023500
6.033333	1	0.023125
6.050000	1	0.022500
6.066667	1	0.021375
6.083333	1	0.021375
6.100000	1	0.020625
6.116667	1	0.020375
6.133333	1	0.019750
6.150000	1	0.020375
6.166667	1	0.020500
6.183333	1	0.020750
6.200000	1	0.021375
6.216667	1	0.021625
6.233333	1	0.021625
6.250000	1	0.022625
6.266667	1	0.022625
6.283333	1	0.022625
6.300000	1	0.022500
6.316667	1	0.023625
6.333333	1	0.024125
6.350000	1	0.024500
6.366667	1	0.025500
6.383333	1	0.027125
6.400000	1	0.028875
6.416667	1	0.030000
6.433333	1	0.031125
6.450000	1	0.032750
6.466667	1	0.033875
6.483333	1	0.035500
6.500000	1	0.036875
6.516667	1	0.038250
6.533333	1	0.040500
6.550000	1	0.042125
6.566667	1	0.043750
6.583333	1	0.045750
6.600000	1	0.047500
6.616667	1	0.049000
6.633333	1	0.051250
6.650000	1	0.053500
6.666667	1	0.055000
6.683333	1	0.056500
6.700000	1	0.057500
6.716667	1	0.058875
6.733333	1	0.060125
6.750000	1	0.061375
6.766667	1	0.062625
6.783333	1	0.063500
6.800000	1	0.064250
6.816667	1	0.065250
6.833333	1	0.066250
6.850000	1	0.066875
6.866667	1	0.066000
6.883333	1	0.065875
6.900000	1	0.066000
6.916667	1	0.066375
6.933333	1	0.065375
6.950000	1	0.064500
6.966667	1	0.064000
6.983333	1	0.062500
7.000000	1	0.061375
7.016667	1	0.059875
7.033333	1	0.058000
7.050000	1	0.056375
7.066667	1	0.054000
7.083333	1	0.052625
7.100000	1	0.050750
7.116667	1	0.048500
7.133333	1	0.047000
7.150000	1	0.045000
7.166667	1	0.042125
7.183333	1	0.040250
7.200000	1	0.038000
7.216667	1	0.035750
7.233333	1	0.033125
7.250000	1	0.030000
7.266667	1	0.028375
7.283333	1	0.026750
7.300000	1	0.023750
7.316667	1	0.021250
7.333333	1	0.019250
7.350000	1	0.016875
7.366667	1	0.014250
7.383333	1	0.012500
7.400000	1	0.010750
7.416667	1	0.008625
7.433333	1	0.005750
7.450000	1	0.003875
7.466667	1	0.001625
7.483333	1	-0.000125
7.500000	1	-0.001625
7.516667	1	-0.003625
7.533333	1	-0.005375
7.550000	1	-0.006750
7.566667	1	-0.008625
7.583333	1	-0.011125
7.600000	1	-0.012375
7.616667	1	-0.014500
7.633333	1	-0.015750
7.650000	1	-0.017500
7.666667	1	-0.018875
7.683333	1	-0.020375
7.700000	1	-0.022125
7.716667	1	-0.022750
7.733333	1	-0.024000
7.750000	1	-0.024875
7.766667	1	-0.025750
7.783333	1	-0.027625
7.800000	1	-0.028125
7.816667	1	-0.029375
7.833333	1	-0.030125
7.850000	1	-0.030875
7.866667	1	-0.031750
7.883333	1	-0.032625
7.900000	1	-0.033500
7.916667	1	-0.034125
7.933333	1	-0.034375
7.950000	1	-0.034625
7.966667	1	-0.034625
7.983333	1	-0.035125
8.000000	1	-0.035625
8.016667	1	-0.036000
8.033333	1	-0.036125
8.050000	1	-0.035750
8.066667	1	-0.036000
8.083333	1	-0.035750
8.100000	1	-0.035375
8.116667	1	-0.035375
8.133333	1	-0.035000
8.150000	1	-0.034500
8.166667	1	-0.033000
8.183333	1	-0.032625
8.200000	1	-0.031750
8.216667	1	-0.030750
8.233333	1	-0.029875
8.250000	1	-0.028375
8.266667	1	-0.027500
8.283333	1	-0.026500
8.300000	1	-0.025375
8.316667	1	-0.024125
8.333333	1	-0.022375
8.350000	1	-0.020625
8.366667	1	-0.018375
8.383333	1	-0.016250
8.400000	1	-0.014000
8.416667	1	-0.011750
8.433333	1	-0.009625
8.450000	1	-0.007000
8.466667	1	-0.004500
8.483333	1	-0.002000
8.500000	1	0.000750
8.516667	1	0.003875
8.533333	1	0.006375
8.550000	1	0.009500
8.566667	1	0.013125
8.583333	1	0.015750
8.600000	1	0.018875
8.616667	1	0.022000
8.633333	1	0.024500
8.650000	1	0.027500
8.666667	1	0.029500
8.683333	1	0.031750
8.700000	1	0.033500
8.716667	1	0.035375
8.733333	1	0.036875
8.750000	1	0.038375
8.766667	1	0.039500
8.783333	1	0.040500
8.800000	1	0.041500
8.816667	1	0.042125
8.833333	1	0.042625
8.850000	1	0.043250
8.866667	1	0.043000
8.883333	1	0.043375
8.900000	1	0.044125
8.916667	1	0.045000
8.933333	1	0.044875
8.950000	1	0.044000
8.966667	1	0.044500
8.983333	1	0.045250
9.000000	1	0.045250
9.016667	1	0.045000
9.033333	1	0.044250
9.050000	1	0.044250
9.066667	1	0.044500
9.083333	1	0.044625
9.100000	1	0.044750
9.116667	1	0.044500
9.133333	1	0.044125
9.150000	1	0.044250
9.166667	1	0.044500
9.183333	1	0.044375
9.200000	1	0.044375
9.216667	1	0.043875
9.233333	1	0.043625
9.250000	1	0.043750
9.266667	1	0.043250
9.283333	1	0.043375
9.300000	1	0.043375
9.316667	1	0.043750
9.333333	1	0.044375
9.350000	1	0.044750
9.366667	1	0.044750
9.383333	1	0.045375
9.400000	1	0.045875
9.416667	1	0.046000
9.433333	1	0.046750
9.450000	1	0.047750
9.466667	1	0.049125
9.483333	1	0.050625
9.500000	1	0.052000
9.516667	1	0.053875
9.533333	1	0.056500
9.550000	1	0.059500
9.566667	1	0.063500
9.583333	1	0.067625
9.600000	1	0.072625
9.616667	1	0.078875
9.633333	1	0.086250
9.650000	1	0.095250
9.666667	1	0.105500
9.683333	1	0.117500
9.700000	1	0.131875
9.716667	1	0.147750
9.733333	1	0.166375
9.750000	1	0.188125
9.766667	1	0.212500
9.783333	1	0.240500
9.800000	1	0.274000
9.816667	1	0.311125
9.833333	1	0.352625
9.850000	1	0.395875
9.866667	1	0.436125
9.883333	1	0.468375
9.900000	1	0.489625
9.916667	1	0.501250
9.933333	1	0.512250
9.950000	1	0.541375
9.966667	1	0.616000
9.983333	1	0.770000
10.000000	1	1.038750
10.016667	1	1.453375
10.033333	1	2.044000
10.050000	1	2.831125
10.066667	1	3.828625
10.083333	1	5.045375
10.100000	1	6.483750
10.116667	1	8.138625
10.133333	1	9.996750
10.150000	1	12.037500
10.166667	1	14.232375
10.183333	1	16.543625
10.200000	1	18.931625
10.216667	1	21.355375
10.233333	1	23.773000
10.250000	1	26.142750
10.266667	1	28.425875
10.283333	1	30.579750
10.300000	1	32.555875
10.316667	1	34.290125
10.333333	1	35.697500
10.350000	1	36.673500
10.366667	1	37.104125
10.383333	1	36.886875
10.400000	1	35.960500
10.416667	1	34.332750
10.433333	1	32.093000
10.450000	1	29.406125
10.466667	1	26.472000
10.483333	1	23.490625
10.500000	1	20.625125
10.516667	1	17.983375
10.533333	1	15.617250
10.550000	1	13.537500
10.566667	1	11.729625
10.583333	1	10.167250
10.600000	1	8.823875
10.616667	1	7.674500
10.633333	1	6.697125
10.650000	1	5.872875
10.666667	1	5.182375
10.683333	1	4.607625
10.700000	1	4.130875
10.716667	1	3.735875
10.733333	1	3.407750
10.750000	1	3.134000
10.766667	1	2.903500
10.783333	1	2.707125
10.800000	1	2.537625
10.816667	1	2.389500
10.833333	1	2.258625
10.850000	1	2.142625
10.866667	1	2.038250
10.883333	1	1.944500
10.900000	1	1.859750
10.916667	1	1.782000
10.933333	1	1.711375
10.950000	1	1.645875
10.966667	1	1.585625
10.983333	1	1.529500
11.000000	1	1.477500
11.016667	1	1.428625
11.033333	1	1.383000
11.050000	1	1.340375
11.066667	1	1.300750
11.083333	1	1.262875
11.100000	1	1.227625
11.116667	1	1.195500
11.133333	1	1.164875
11.150000	1	1.136000
11.166667	1	1.108000
11.183333	1	1.082625
11.200000	1	1.058875
11.216667	1	1.036250
11.233333	1	1.015250
11.250000	1	0.995375
11.266667	1	0.977250
11.283333	1	0.961125
11.300000	1	0.946250
11.316667	1	0.931875
11.333333	1	0.919250
11.350000	1	0.908125
11.366667	1	0.897375
11.383333	1	0.887875
11.400000	1	0.879375
11.416667	1	0.872000
11.433333	1	0.865500
11.450000	1	0.861125
11.466667	1	0.857125
11.483333	1	0.853125
11.500000	1	0.850750
11.516667	1	0.848125
11.533333	1	0.847250
11.550000	1	0.846625
11.566667	1	0.845375
11.583333	1	0.844875
11.600000	1	0.845500
11.616667	1	0.846000
11.633333	1	0.846750
11.650000	1	0.847375
11.666667	1	0.847750
11.683333	1	0.848625
11.700000	1	0.849250
11.716667	1	0.850750
11.733333	1	0.851375
11.750000	1	0.852250
11.766667	1	0.853250
11.783333	1	0.854125
11.800000	1	0.854750
11.816667	1	0.855750
11.833333	1	0.856375
11.850000	1	0.857750
11.866667	1	0.858125
11.883333	1	0.859375
11.900000	1	0.861125
11.916667	1	0.862875
11.933333	1	0.865375
11.950000	1	0.868375
11.966667	1	0.872375
11.983333	1	0.876875
12.000000	1	0.882250
12.016667	1	0.889625
12.033333	1	0.898875
12.050000	1	0.909625
12.066667	1	0.923500
12.083333	1	0.941125
12.100000	1	0.964500
12.116667	1	0.993375
12.133333	1	1.031375
12.150000	1	1.078500
12.166667	1	1.137250
12.183333	1	1.210500
12.200000	1	1.298750
12.216667	1	1.404750
12.233333	1	1.530125
12.250000	1	1.675250
12.266667	1	1.842625
12.283333	1	2.035000
12.300000	1	2.254375
12.316667	1	2.500875
12.333333	1	2.778750
12.350000	1	3.087500
12.366667	1	3.430125
12.383333	1	3.805625
12.400000	1	4.216000
12.416667	1	4.658750
12.433333	1	5.132000
12.450000	1	5.634125
12.466667	1	6.163375
12.483333	1	6.714500
12.500000	1	7.283750
12.516667	1	7.864875
12.533333	1	8.449625
12.550000	1	9.030125
12.566667	1	9.594750
12.583333	1	10.131500
12.600000	1	10.630125
12.616667	1	11.080500
12.633333	1	11.477000
12.650000	1	11.816250
12.666667	1	12.097250
12.683333	1	12.320000
12.700000	1	12.484125
12.716667	1	12.592750
12.733333	1	12.644375
12.750000	1	12.640375
12.766667	1	12.579250
12.783333	1	12.459875
12.800000	1	12.280250
12.816667	1	12.040875
12.833333	1	11.747250
12.850000	1	11.405875
12.866667	1	11.026000
12.883333	1	10.614875
12.900000	1	10.176750
12.916667	1	9.710125
12.933333	1	9.214375
12.950000	1	8.685875
12.966667	1	8.126250
12.983333	1	7.540375
13.000000	1	6.932750
13.016667	1	6.309000
13.033333	1	5.670875
13.050000	1	5.024500
13.066667	1	4.383625
13.083333	1	3.774250
13.100000	1	3.224500
13.116667	1	2.757125
13.133333	1	2.378875
13.150000	1	2.083125
13.166667	1	1.854500
13.183333	1	1.677750
13.200000	1	1.539000
13.216667	1	1.428875
13.233333	1	1.338875
13.250000	1	1.263750
13.266667	1	1.200000
13.283333	1	1.145375
13.300000	1	1.096000
13.316667	1	1.052500
13.333333	1	1.012250
13.350000	1	0.975250
13.366667	1	0.941500
13.383333	1	0.910625
13.400000	1	0.881750
13.416667	1	0.854375
13.433333	1	0.828375
13.450000	1	0.805250
13.466667	1	0.783000
13.483333	1	0.762750
13.500000	1	0.745250
13.516667	1	0.729000
13.533333	1	0.714875
13.550000	1	0.701750
13.566667	1	0.691125
13.583333	1	0.682625
13.600000	1	0.675125
13.616667	1	0.669750
13.633333	1	0.664875
13.650000	1	0.661500
13.666667	1	0.660000
13.683333	1	0.659625
13.700000	1	0.659625
13.716667	1	0.660125
13.733333	1	0.661250
13.750000	1	0.663000
13.766667	1	0.664375
13.783333	1	0.666125
13.800000	1	0.666500
13.816667	1	0.667250
13.833333	1	0.666250
13.850000	1	0.663875
13.866667	1	0.659750
13.883333	1	0.654625
13.900000	1	0.647125
13.916667	1	0.638375
13.933333	1	0.628625
13.950000	1	0.617125
13.966667	1	0.604750
13.983333	1	0.592250
14.000000	1	0.579625
14.016667	1	0.567625
14.033333	1	0.555375
14.050000	1	0.543750
14.066667	1	0.532750
14.083333	1	0.521875
14.100000	1	0.512625
14.116667	1	0.503500
14.133333	1	0.495875
14.150000	1	0.489500
14.166667	1	0.483750
14.183333	1	0.478375
14.200000	1	0.474375
14.216667	1	0.471125
14.233333	1	0.468500
14.250000	1	0.468000
14.266667	1	0.468500
14.283333	1	0.470000
14.300000	1	0.472875
14.316667	1	0.476875
14.333333	1	0.483500
14.350000	1	0.491500
14.366667	1	0.501250
14.383333	1	0.514000
14.400000	1	0.530125
14.416667	1	0.550000
14.433333	1	0.573625
14.450000	1	0.602750
14.466667	1	0.636625
14.483333	1	0.676750
14.500000	1	0.726625
14.516667	1	0.785875
14.533333	1	0.858875
14.550000	1	0.949500
14.566667	1	1.061250
14.583333	1	1.200500
14.600000	1	1.375500
14.616667	1	1.596125
14.633333	1	1.873125
14.650000	1	2.222000
14.666667	1	2.655375
14.683333	1	3.190625
14.700000	1	3.843125
14.716667	1	4.626250
14.733333	1	5.552500
14.750000	1	6.632875
14.766667	1	7.870875
14.783333	1	9.265000
14.800000	1	10.811000
14.816667	1	12.499250
14.833333	1	14.316625
14.850000	1	16.244500
14.866667	1	18.258875
14.883333	1	20.334000
14.900000	1	22.438625
14.916667	1	24.540000
14.933333	1	26.604125
14.950000	1	28.593000
14.966667	1	30.467125
14.983333	1	32.185875
15.000000	1	33.709125
15.016667	1	34.997250
15.033333	1	36.011625
15.050000	1	36.718375
15.066667	1	37.089250
15.083333	1	37.106375
15.100000	1	36.765500
15.116667	1	36.073875
15.133333	1	35.053250
15.150000	1	33.736125
15.166667	1	32.164250
15.183333	1	30.389375
15.200000	1	28.462250
15.216667	1	26.436000
15.233333	1	24.361750
15.250000	1	22.285750
15.266667	1	20.248875
15.283333	1	18.287125
15.300000	1	16.429750
15.316667	1	14.696625
15.333333	1	13.098250
15.350000	1	11.641750
15.366667	1	10.326625
15.383333	1	9.150750
15.400000	1	8.107250
15.416667	1	7.186000
15.433333	1	6.376875
15.450000	1	5.668250
15.466667	1	5.053000
15.483333	1	4.517875
15.500000	1	4.055500
15.516667	1	3.657500
15.533333	1	3.314750
15.550000	1	3.020250
15.566667	1	2.767875
15.583333	1	2.551875
15.600000	1	2.366250
15.616667	1	2.207750
15.633333	1	2.071750
15.650000	1	1.955875
15.666667	1	1.855625
15.683333	1	1.769875
15.700000	1	1.696000
15.716667	1	1.633500
15.733333	1	1.578250
15.750000	1	1.529875
15.766667	1	1.486500
15.783333	1	1.447000
15.800000	1	1.409875
15.816667	1	1.374000
15.833333	1	1.339750
15.850000	1	1.305500
15.866667	1	1.271000
15.883333	1	1.236125
15.900000	1	1.202125
15.916667	1	1.167875
15.933333	1	1.133875
15.950000	1	1.100875
15.966667	1	1.069750
15.983333	1	1.040250
16.000000	1	1.012375
16.016667	1	0.986500
16.033333	1	0.963000
16.050000	1	0.942375
16.066667	1	0.924625
16.083333	1	0.909750
16.100000	1	0.896750
16.116667	1	0.886500
16.133333	1	0.878625
16.150000	1	0.872250
16.166667	1	0.868375
16.183333	1	0.866750
16.200000	1	0.866625
16.216667	1	0.868250
16.233333	1	0.870875
16.250000	1	0.875000
16.266667	1	0.879375
16.283333	1	0.884500
16.300000	1	0.888875
16.316667	1	0.892375
16.333333	1	0.895875
16.350000	1	0.898125
16.366667	1	0.898875
16.383333	1	0.898500
16.400000	1	0.896000
16.416667	1	0.891750
16.433333	1	0.885625
16.450000	1	0.878125
16.466667	1	0.869250
16.483333	1	0.858625
16.500000	1	0.847375
16.516667	1	0.835625
16.533333	1	0.823250
16.550000	1	0.811625
16.566667	1	0.799875
16.583333	1	0.789625
16.600000	1	0.779750
16.616667	1	0.770500
16.633333	1	0.762500
16.650000	1	0.755750
16.666667	1	0.750375
16.683333	1	0.745625
16.700000	1	0.742875
16.716667	1	0.740500
16.733333	1	0.740000
16.750000	1	0.739500
16.766667	1	0.739625
16.783333	1	0.740750
16.800000	1	0.743000
16.816667	1	0.745125
16.833333	1	0.747875
16.850000	1	0.750750
16.866667	1	0.752875
16.883333	1	0.755125
16.900000	1	0.758000
16.916667	1	0.760125
16.933333	1	0.762750
16.950000	1	0.764125
16.966667	1	0.765500
16.983333	1	0.766500
17.000000	1	0.767125
17.016667	1	0.767250
17.033333	1	0.767250
17.050000	1	0.766500
17.066667	1	0.765125
17.083333	1	0.764250
17.100000	1	0.763250
17.116667	1	0.761125
17.133333	1	0.759125
17.150000	1	0.757000
17.166667	1	0.755500
17.183333	1	0.753500
17.200000	1	0.751125
17.216667	1	0.748875
17.233333	1	0.746000
17.250000	1	0.742625
17.266667	1	0.738375
17.283333	1	0.734125
17.300000	1	0.729125
17.316667	1	0.724000
17.333333	1	0.717625
17.350000	1	0.710625
17.366667	1	0.703625
17.383333	1	0.696750
17.400000	1	0.688625
17.416667	1	0.680125
17.433333	1	0.671250
17.450000	1	0.663250
17.466667	1	0.655125
17.483333	1	0.648750
17.500000	1	0.641875
17.516667	1	0.635625
17.533333	1	0.630500
17.550000	1	0.626125
17.566667	1	0.623250
17.583333	1	0.621875
17.600000	1	0.621875
17.616667	1	0.623000
17.633333	1	0.625000
17.650000	1	0.628500
17.666667	1	0.633500
17.683333	1	0.639250
17.700000	1	0.646875
17.716667	1	0.655125
17.733333	1	0.664750
17.750000	1	0.675000
17.766667	1	0.686250
17.783333	1	0.697875
17.800000	1	0.710750
17.816667	1	0.723500
17.833333	1	0.736125
17.850000	1	0.749000
17.866667	1	0.761625
17.883333	1	0.773125
17.900000	1	0.784500
17.916667	1	0.794875
17.933333	1	0.804875
17.950000	1	0.814500
17.966667	1	0.822250
17.983333	1	0.829500
18.000000	1	0.834125
18.016667	1	0.837250
18.033333	1	0.839500
18.050000	1	0.839500
18.066667	1	0.837500
18.083333	1	0.834625
18.100000	1	0.829625
18.116667	1	0.823250
18.133333	1	0.815375
18.150000	1	0.806375
18.166667	1	0.796625
18.183333	1	0.785750
18.200000	1	0.773625
18.216667	1	0.761625
18.233333	1	0.748875
18.250000	1	0.735500
18.266667	1	0.722375
18.283333	1	0.708875
18.300000	1	0.696000
18.316667	1	0.683125
18.333333	1	0.671250
18.350000	1	0.660125
18.366667	1	0.649375
18.383333	1	0.639375
18.400000	1	0.629875
18.416667	1	0.621250
18.433333	1	0.613500
18.450000	1	0.606500
18.466667	1	0.600875
18.483333	1	0.595625
18.500000	1	0.590875
18.516667	1	0.586375
18.533333	1	0.583250
18.550000	1	0.581000
18.566667	1	0.579375
18.583333	1	0.578750
18.600000	1	0.578250
18.616667	1	0.577875
18.633333	1	0.577625
18.650000	1	0.577875
18.666667	1	0.578500
18.683333	1	0.578875
18.700000	1	0.580625
18.716667	1	0.582500
18.733333	1	0.585125
18.750000	1	0.587250
18.766667	1	0.590500
18.783333	1	0.593875
18.800000	1	0.597000
18.816667	1	0.601375
18.833333	1	0.606125
18.850000	1	0.612250
18.866667	1	0.618750
18.883333	1	0.625625
18.900000	1	0.633750
18.916667	1	0.643125
18.933333	1	0.654250
18.950000	1	0.666250
18.966667	1	0.680000
18.983333	1	0.694125
19.000000	1	0.710500
19.016667	1	0.729625
19.033333	1	0.749375
19.050000	1	0.771500
19.066667	1	0.794875
19.083333	1	0.819375
19.100000	1	0.846125
19.116667	1	0.874125
19.133333	1	0.903000
19.150000	1	0.933125
19.166667	1	0.964375
19.183333	1	0.996375
19.200000	1	1.028125
19.216667	1	1.059375
19.233333	1	1.089625
19.250000	1	1.119375
19.266667	1	1.147750
19.283333	1	1.174125
19.300000	1	1.197125
19.316667	1	1.217750
19.333333	1	1.234375
19.350000	1	1.247625
19.366667	1	1.256625
19.383333	1	1.261250
19.400000	1	1.260875
19.416667	1	1.256375
19.433333	1	1.247125
19.450000	1	1.233125
19.466667	1	1.214875
19.483333	1	1.193250
19.500000	1	1.167625
19.516667	1	1.139125
19.533333	1	1.107750
19.550000	1	1.073625
19.566667	1	1.038875
19.583333	1	1.002500
19.600000	1	0.964875
19.616667	1	0.927750
19.633333	1	0.891375
19.650000	1	0.855875
19.666667	1	0.822125
19.683333	1	0.790000
19.700000	1	0.760625
19.716667	1	0.733875
19.733333	1	0.710500
19.750000	1	0.690250
19.766667	1	0.672625
19.783333	1	0.658750
19.800000	1	0.647750
19.816667	1	0.639750
19.833333	1	0.635375
19.850000	1	0.633875
19.866667	1	0.636000
19.883333	1	0.641250
19.900000	1	0.649250
19.916667	1	0.660125
19.933333	1	0.674250
19.950000	1	0.689750
19.966667	1	0.707500
19.983333	1	0.727625
20.000000	1	0.749125
20.016667	1	0.772875
20.033333	1	0.798625
20.050000	1	0.825750
20.066667	1	0.854375
20.083333	1	0.885125
20.100000	1	0.917625
20.116667	1	0.953125
20.133333	1	0.991375
20.150000	1	1.032125
20.166667	1	1.076250
20.183333	1	1.125500
20.200000	1	1.180125
20.216667	1	1.240375
20.233333	1	1.308000
20.250000	1	1.382625
20.266667	1	1.465250
20.283333	1	1.556375
20.300000	1	1.656375
20.316667	1	1.764500
20.333333	1	1.882000
20.350000	1	2.007750
20.366667	1	2.142625
20.383333	1	2.285000
20.400000	1	2.434625
20.416667	1	2.589875
20.433333	1	2.750125
20.450000	1	2.912750
20.466667	1	3.078000
20.483333	1	3.243375
20.500000	1	3.406750
20.516667	1	3.566000
20.533333	1	3.719875
20.550000	1	3.864750
20.566667	1	3.999125
20.583333	1	4.119625
20.600000	1	4.224625
20.616667	1	4.311500
20.633333	1	4.378250
20.650000	1	4.423500
20.666667	1	4.445625
20.683333	1	4.444875
20.700000	1	4.420750
20.716667	1	4.374875
20.733333	1	4.308000
20.750000	1	4.222625
20.766667	1	4.120125
20.783333	1	4.003125
20.800000	1	3.875375
20.816667	1	3.739500
20.833333	1	3.598625
20.850000	1	3.455125
20.866667	1	3.311750
20.883333	1	3.171000
20.900000	1	3.036250
20.916667	1	2.907750
20.933333	1	2.787125
20.950000	1	2.674375
20.966667	1	2.568375
20.983333	1	2.470500
21.000000	1	2.380875
21.016667	1	2.297625
21.033333	1	2.219875
21.050000	1	2.147250
21.066667	1	2.077875
21.083333	1	2.011625
21.100000	1	1.946750
21.116667	1	1.881625
21.133333	1	1.816625
21.150000	1	1.751625
21.166667	1	1.684875
21.183333	1	1.617375
21.200000	1	1.548875
21.216667	1	1.479250
21.233333	1	1.409500
21.250000	1	1.339750
21.266667	1	1.270750
21.283333	1	1.202750
21.300000	1	1.137250
21.316667	1	1.074250
21.333333	1	1.012875
21.350000	1	0.954625
21.366667	1	0.900000
21.383333	1	0.848375
21.400000	1	0.800000
21.416667	1	0.755500
21.433333	1	0.714625
21.450000	1	0.677375
21.466667	1	0.644000
21.483333	1	0.613000
21.500000	1	0.585125
21.516667	1	0.560250
21.533333	1	0.537625
21.550000	1	0.517000
21.566667	1	0.499500
21.583333	1	0.483625
21.600000	1	0.470000
21.616667	1	0.457500
21.633333	1	0.446625
21.650000	1	0.436750
21.666667	1	0.428250
21.683333	1	0.421125
21.700000	1	0.415250
21.716667	1	0.410125
21.733333	1	0.406125
21.750000	1	0.403000
21.766667	1	0.400625
21.783333	1	0.398875
21.800000	1	0.398500
21.816667	1	0.397750
21.833333	1	0.398500
21.850000	1	0.399875
21.866667	1	0.401500
21.883333	1	0.404125
21.900000	1	0.407750
21.916667	1	0.411375
21.933333	1	0.416250
21.950000	1	0.421000
21.966667	1	0.426125
21.983333	1	0.431875
22.000000	1	0.438000
22.016667	1	0.443750
22.033333	1	0.450000
22.050000	1	0.455875
22.066667	1	0.461500
22.083333	1	0.467375
22.100000	1	0.472750
22.116667	1	0.476875
22.133333	1	0.480500
22.150000	1	0.483125
22.166667	1	0.485250
22.183333	1	0.486500
22.200000	1	0.486375
22.216667	1	0.485375
22.233333	1	0.483625
22.250000	1	0.481500
22.266667	1	0.478000
22.283333	1	0.473125
22.300000	1	0.468000
22.316667	1	0.461875
22.333333	1	0.456250
22.350000	1	0.449500
22.366667	1	0.442375
22.383333	1	0.435250
22.400000	1	0.429375
22.416667	1	0.423500
22.433333	1	0.417125
22.450000	1	0.411375
22.466667	1	0.407250
22.483333	1	0.403625
22.500000	1	0.400500
22.516667	1	0.397375
22.533333	1	0.396250
22.550000	1	0.395375
22.566667	1	0.394500
22.583333	1	0.394750
22.600000	1	0.395375
22.616667	1	0.396500
22.633333	1	0.398250
22.650000	1	0.399750
22.666667	1	0.401625
22.683333	1	0.403875
22.700000	1	0.405875
22.716667	1	0.408375
22.733333	1	0.410375
22.750000	1	0.412625
22.766667	1	0.414375
22.783333	1	0.415500
22.800000	1	0.416750
22.816667	1	0.417625
22.833333	1	0.418250
22.850000	1	0.418250
22.866667	1	0.417875
22.883333	1	0.417125
22.900000	1	0.415750
22.916667	1	0.414375
22.933333	1	0.412375
22.950000	1	0.410125
22.966667	1	0.407875
22.983333	1	0.404000
23.000000	1	0.401125
23.016667	1	0.398000
23.033333	1	0.394250
23.050000	1	0.390625
23.066667	1	0.386750
23.083333	1	0.383250
23.100000	1	0.379750
23.116667	1	0.376750
23.133333	1	0.374250
23.150000	1	0.371750
23.166667	1	0.369375
23.183333	1	0.367750
23.200000	1	0.367375
23.216667	1	0.368375
23.233333	1	0.369625
23.250000	1	0.371875
23.266667	1	0.374750
23.283333	1	0.379125
23.300000	1	0.385625
23.316667	1	0.393250
23.333333	1	0.402875
23.350000	1	0.414250
23.366667	1	0.427750
23.383333	1	0.443500
23.400000	1	0.462250
23.416667	1	0.486000
23.433333	1	0.512250
23.450000	1	0.543375
23.466667	1	0.579500
23.483333	1	0.621375
23.500000	1	0.670250
23.516667	1	0.726250
23.533333	1	0.791500
23.550000	1	0.865125
23.566667	1	0.948000
23.583333	1	1.041875
23.600000	1	1.148125
23.616667	1	1.264875
23.633333	1	1.395000
23.650000	1	1.538125
23.666667	1	1.694500
23.683333	1	1.863375
23.700000	1	2.045125
23.716667	1	2.240000
23.733333	1	2.447000
23.750000	1	2.666250
23.766667	1	2.895875
23.783333	1	3.135375
23.800000	1	3.382750
23.816667	1	3.636375
23.833333	1	3.894375
23.850000	1	4.155375
23.866667	1	4.416000
23.883333	1	4.673375
23.900000	1	4.926750
23.916667	1	5.172375
23.933333	1	5.406750
23.950000	1	5.626625
23.966667	1	5.827875
23.983333	1	6.008500
24.000000	1	6.164375
24.016667	1	6.293750
24.033333	1	6.394875
24.050000	1	6.464875
24.066667	1	6.502000
24.083333	1	6.507375
24.100000	1	6.478250
24.116667	1	6.417250
24.133333	1	6.324875
24.150000	1	6.202125
24.166667	1	6.051500
24.183333	1	5.875375
24.200000	1	5.677375
24.216667	1	5.461625
24.233333	1	5.231000
24.250000	1	4.989375
24.266667	1	4.739750
24.283333	1	4.485375
24.300000	1	4.229500
24.316667	1	3.975125
24.333333	1	3.725500
24.350000	1	3.482500
24.366667	1	3.247000
24.383333	1	3.022625
24.400000	1	2.809500
24.416667	1	2.609000
24.433333	1	2.422125
24.450000	1	2.248125
24.466667	1	2.086625
24.483333	1	1.938125
24.500000	1	1.802000
24.516667	1	1.677375
24.533333	1	1.564250
24.550000	1	1.461375
24.566667	1	1.367625
24.583333	1	1.282625
24.600000	1	1.205625
24.616667	1	1.136000
24.633333	1	1.073875
24.650000	1	1.016500
24.666667	1	0.964375
24.683333	1	0.915750
24.700000	1	0.870625
24.716667	1	0.829875
24.733333	1	0.791125
24.750000	1	0.754750
24.766667	1	0.720750
24.783333	1	0.688500
24.800000	1	0.658250
24.816667	1	0.630125
24.833333	1	0.603000
24.850000	1	0.577125
24.866667	1	0.551000
24.883333	1	0.527250
24.900000	1	0.504500
24.916667	1	0.482500
24.933333	1	0.461625
24.950000	1	0.441250
24.966667	1	0.422250
24.983333	1	0.404500
25.000000	1	0.387875
25.016667	1	0.372250
25.033333	1	0.357375
25.050000	1	0.343500
25.066667	1	0.331125
25.083333	1	0.319500
25.100000	1	0.309000
25.116667	1	0.299125
25.133333	1	0.290500
25.150000	1	0.281875
25.166667	1	0.274500
25.183333	1	0.268500
25.200000	1	0.263375
25.216667	1	0.258000
25.233333	1	0.254375
25.250000	1	0.250875
25.266667	1	0.248375
25.283333	1	0.246250
25.300000	1	0.245000
25.316667	1	0.243375
25.333333	1	0.243125
25.350000	1	0.243250
25.366667	1	0.243250
25.383333	1	0.244250
25.400000	1	0.245250
25.416667	1	0.245875
25.433333	1	0.247250
25.450000	1	0.249625
25.466667	1	0.251375
25.483333	1	0.253125
25.500000	1	0.254750
25.516667	1	0.257000
25.533333	1	0.258875
25.550000	1	0.261500
25.566667	1	0.263375
25.583333	1	0.264750
25.600000	1	0.266250
25.616667	1	0.268250
25.633333	1	0.270125
25.650000	1	0.272000
25.666667	1	0.273000
25.683333	1	0.274125
25.700000	1	0.275875
25.716667	1	0.277500
25.733333	1	0.277250
25.750000	1	0.278125
25.766667	1	0.278625
25.783333	1	0.280000
25.800000	1	0.280125
25.816667	1	0.280625
25.833333	1	0.280875
25.850000	1	0.281000
25.866667	1	0.281500
25.883333	1	0.282000
25.900000	1	0.282375
25.916667	1	0.282125
25.933333	1	0.282500
25.950000	1	0.282500
25.966667	1	0.282750
25.983333	1	0.282750
26.000000	1	0.282625
26.016667	1	0.282625
26.033333	1	0.283125
26.050000	1	0.283750
26.066667	1	0.284625
26.083333	1	0.285375
26.100000	1	0.286500
26.116667	1	0.286500
26.133333	1	0.287125
26.150000	1	0.288375
26.166667	1	0.289375
26.183333	1	0.289875
26.200000	1	0.290375
26.216667	1	0.291750
26.233333	1	0.293000
26.250000	1	0.294125
26.266667	1	0.295250
26.283333	1	0.296375
26.300000	1	0.298000
26.316667	1	0.298625
26.333333	1	0.299875
26.350000	1	0.301125
26.366667	1	0.301750
26.383333	1	0.301750
26.400000	1	0.302500
26.416667	1	0.303000
26.433333	1	0.302625
26.450000	1	0.301625
26.466667	1	0.301250
26.483333	1	0.299750
26.500000	1	0.298375
26.516667	1	0.297000
26.533333	1	0.294625
26.550000	1	0.292000
26.566667	1	0.289000
26.583333	1	0.285500
26.600000	1	0.281625
26.616667	1	0.277625
26.633333	1	0.273250
26.650000	1	0.268250
26.666667	1	0.263000
26.683333	1	0.256750
26.700000	1	0.251000
26.716667	1	0.245375
26.733333	1	0.238875
26.750000	1	0.232625
26.766667	1	0.225875
26.783333	1	0.218750
26.800000	1	0.212375
26.816667	1	0.206000
26.833333	1	0.200000
26.850000	1	0.193750
26.866667	1	0.188625
26.883333	1	0.183000
26.900000	1	0.177375
26.916667	1	0.171500
26.933333	1	0.166500
26.950000	1	0.161500
26.966667	1	0.157875
26.983333	1	0.154250
27.000000	1	0.151000
27.016667	1	0.148500
27.033333	1	0.146625
27.050000	1	0.145500
27.066667	1	0.144500
27.083333	1	0.143750
27.100000	1	0.143125
27.116667	1	0.143500
27.133333	1	0.144125
27.150000	1	0.145500
27.166667	1	0.147375
27.183333	1	0.149750
27.200000	1	0.152250
27.216667	1	0.155250
27.233333	1	0.159250
27.250000	1	0.164125
27.266667	1	0.169250
27.283333	1	0.175750
27.300000	1	0.182875
27.316667	1	0.190750
27.333333	1	0.199875
27.350000	1	0.210125
27.366667	1	0.222000
27.383333	1	0.234625
27.400000	1	0.249625
27.416667	1	0.266250
27.433333	1	0.284500
27.450000	1	0.304750
27.466667	1	0.327875
27.483333	1	0.354000
27.500000	1	0.382625
27.516667	1	0.414625
27.533333	1	0.449625
27.550000	1	0.488000
27.566667	1	0.530875
27.583333	1	0.578250
27.600000	1	0.630125
27.616667	1	0.686750
27.633333	1	0.748875
27.650000	1	0.815625
27.666667	1	0.886875
27.683333	1	0.963250
27.700000	1	1.045000
27.716667	1	1.132250
27.733333	1	1.224375
27.750000	1	1.322500
27.766667	1	1.423125
27.783333	1	1.528625
27.800000	1	1.637625
27.816667	1	1.750125
27.833333	1	1.865750
27.850000	1	1.983250
27.866667	1	2.102250
27.883333	1	2.222125
27.900000	1	2.342250
27.916667	1	2.460875
27.933333	1	2.577625
27.950000	1	2.691500
27.966667	1	2.801625
27.983333	1	2.906000
28.000000	1	3.004500
28.016667	1	3.096125
28.033333	1	3.180000
28.050000	1	3.254625
28.066667	1	3.319375
28.083333	1	3.372625
28.100000	1	3.413500
28.116667	1	3.442875
28.133333	1	3.458875
28.150000	1	3.460750
28.166667	1	3.449500
28.183333	1	3.423500
28.200000	1	3.384750
28.216667	1	3.332875
28.233333	1	3.267875
28.250000	1	3.190625
28.266667	1	3.101500
28.283333	1	3.002250
28.300000	1	2.894250
28.316667	1	2.777625
28.333333	1	2.653250
28.350000	1	2.524625
28.366667	1	2.392000
28.383333	1	2.257250
28.400000	1	2.121250
28.416667	1	1.985000
28.433333	1	1.849875
28.450000	1	1.715625
28.466667	1	1.583875
28.483333	1	1.455000
28.500000	1	1.330250
28.516667	1	1.209750
28.533333	1	1.093750
28.550000	1	0.983000
28.566667	1	0.877375
28.583333	1	0.776625
28.600000	1	0.681250
28.616667	1	0.589000
28.633333	1	0.502500
28.650000	1	0.420250
28.666667	1	0.341500
28.683333	1	0.266875
28.700000	1	0.195125
28.716667	1	0.127625
28.733333	1	0.063500
28.750000	1	0.001750
28.766667	1	-0.056375
28.783333	1	-0.111875
28.800000	1	-0.164375
28.816667	1	-0.214125
28.833333	1	-0.261500
28.850000	1	-0.306125
28.866667	1	-0.348500
28.883333	1	-0.388250
28.900000	1	-0.425125
28.916667	1	-0.458875
28.933333	1	-0.490500
28.950000	1	-0.518500
28.966667	1	-0.542875
28.983333	1	-0.564500
29.000000	1	-0.582500
29.016667	1	-0.597250
29.033333	1	-0.609625
29.050000	1	-0.618250
29.066667	1	-0.623625
29.083333	1	-0.625125
29.100000	1	-0.623125
29.116667	1	-0.617375
29.133333	1	-0.608500
29.150000	1	-0.597000
29.166667	1	-0.582500
29.183333	1	-0.565375
29.200000	1	-0.545500
29.216667	1	-0.522875
29.233333	1	-0.497125
29.250000	1	-0.469875
29.266667	1	-0.441500
29.283333	1	-0.410750
29.300000	1	-0.379500
29.316667	1	-0.346500
29.333333	1	-0.313000
29.350000	1	-0.278250
29.366667	1	-0.243375
29.383333	1	-0.208625
29.400000	1	-0.173375
29.416667	1	-0.138875
29.433333	1	-0.104625
29.450000	1	-0.070750
29.466667	1	-0.038125
29.483333	1	-0.006125
29.500000	1	0.024750
29.516667	1	0.054625
29.533333	1	0.083000
29.550000	1	0.110000
29.566667	1	0.136250
29.583333	1	0.161000
29.600000	1	0.184125
29.616667	1	0.205500
29.633333	1	0.226500
29.650000	1	0.245750
29.666667	1	0.263125
29.683333	1	0.279125
29.700000	1	0.293625
29.716667	1	0.307250
29.733333	1	0.319375
29.750000	1	0.330375
29.766667	1	0.340250
29.783333	1	0.349125
29.800000	1	0.356875
29.816667	1	0.363625
29.833333	1	0.369625
29.850000	1	0.375125
29.866667	1	0.378750
29.883333	1	0.383250
29.900000	1	0.386750
29.916667	1	0.389125
29.933333	1	0.391625
29.950000	1	0.394125
29.966667	1	0.397250
29.983333	1	0.400375
30.000000	1	0.403000
30.016667	1	0.406250
30.033333	1	0.409750
30.050000	1	0.414750
30.066667	1	0.420125
30.083333	1	0.426625
30.100000	1	0.433875
30.116667	1	0.442875
30.133333	1	0.452875
30.150000	1	0.465000
30.166667	1	0.479625
30.183333	1	0.495500
30.200000	1	0.514250
30.216667	1	0.536500
30.233333	1	0.561250
30.250000	1	0.588750
30.266667	1	0.620125
30.283333	1	0.655375
30.300000	1	0.695500
30.316667	1	0.740750
30.333333	1	0.790750
30.350000	1	0.845500
30.366667	1	0.906375
30.383333	1	0.973250
30.400000	1	1.046125
30.416667	1	1.125875
30.433333	1	1.212125
30.450000	1	1.305875
30.466667	1	1.406000
30.483333	1	1.513250
30.500000	1	1.628500
30.516667	1	1.749875
30.533333	1	1.878750
30.550000	1	2.013875
30.566667	1	2.155250
30.583333	1	2.302000
30.600000	1	2.454500
30.616667	1	2.611500
30.633333	1	2.772875
30.650000	1	2.937375
30.666667	1	3.104375
30.683333	1	3.272750
30.700000	1	3.440500
30.716667	1	3.606875
30.733333	1	3.771625
30.750000	1	3.933250
30.766667	1	4.088500
30.783333	1	4.237875
30.800000	1	4.378875
30.816667	1	4.512125
30.833333	1	4.634250
30.850000	1	4.745125
30.866667	1	4.842750
30.883333	1	4.926000
30.900000	1	4.994000
30.916667	1	5.046750
30.933333	1	5.083375
30.950000	1	5.102875
30.966667	1	5.106000
30.983333	1	5.091875
31.000000	1	5.061375
31.016667	1	5.014875
31.033333	1	4.951750
31.050000	1	4.873875
31.066667	1	4.781000
31.083333	1	4.674750
31.100000	1	4.556875
31.116667	1	4.428500
31.133333	1	4.292125
31.150000	1	4.147625
31.166667	1	3.996125
31.183333	1	3.840250
31.200000	1	3.680500
31.216667	1	3.517625
31.233333	1	3.353875
31.250000	1	3.190000
31.266667	1	3.028375
31.283333	1	2.867625
31.300000	1	2.710875
31.316667	1	2.557875
31.333333	1	2.410625
31.350000	1	2.267625
31.366667	1	2.130375
31.383333	1	1.998750
31.400000	1	1.873500
31.416667	1	1.754250
31.433333	1	1.641250
31.450000	1	1.535000
31.466667	1	1.434625
31.483333	1	1.340625
31.500000	1	1.253125
31.516667	1	1.171500
31.533333	1	1.095875
31.550000	1	1.025250
31.566667	1	0.960125
31.583333	1	0.900000
31.600000	1	0.843750
31.616667	1	0.792125
31.633333	1	0.744500
31.650000	1	0.700250
31.666667	1	0.660375
31.683333	1	0.623625
31.700000	1	0.590750
31.716667	1	0.560125
31.733333	1	0.532125
31.750000	1	0.506125
31.766667	1	0.483125
31.783333	1	0.462125
31.800000	1	0.443375
31.816667	1	0.425875
31.833333	1	0.410125
31.850000	1	0.395250
31.866667	1	0.381750
31.883333	1	0.369875
31.900000	1	0.358875
31.916667	1	0.349125
31.933333	1	0.339875
31.950000	1	0.331000
31.966667	1	0.323625
31.983333	1	0.316875
32.000000	1	0.310625
32.016667	1	0.304875
32.033333	1	0.299000
32.050000	1	0.294000
32.066667	1	0.288250
32.083333	1	0.282500
32.100000	1	0.277000
32.116667	1	0.271500
32.133333	1	0.265500
32.150000	1	0.260750
32.166667	1	0.255250
32.183333	1	0.249625
32.200000	1	0.243750
32.216667	1	0.237750
32.233333	1	0.230875
32.250000	1	0.223750
32.266667	1	0.216500
32.283333	1	0.208250
32.300000	1	0.200250
32.316667	1	0.191625
32.333333	1	0.183000
32.350000	1	0.174250
32.366667	1	0.165500
32.383333	1	0.156250
32.400000	1	0.147000
32.416667	1	0.137625
32.433333	1	0.127625
32.450000	1	0.117250
32.466667	1	0.107750
32.483333	1	0.097750
32.500000	1	0.088000
32.516667	1	0.078625
32.533333	1	0.069375
32.550000	1	0.060250
32.566667	1	0.051250
32.583333	1	0.042875
32.600000	1	0.035750
32.616667	1	0.028125
32.633333	1	0.021125
32.650000	1	0.013750
32.666667	1	0.007625
32.683333	1	0.001500
32.700000	1	-0.004375
32.716667	1	-0.010625
32.733333	1	-0.015375
32.750000	1	-0.019375
32.766667	1	-0.023625
32.783333	1	-0.027000
32.800000	1	-0.030250
32.816667	1	-0.032875
32.833333	1	-0.035875
32.850000	1	-0.038125
32.866667	1	-0.040250
32.883333	1	-0.042000
32.900000	1	-0.043000
32.916667	1	-0.044125
32.933333	1	-0.044750
32.950000	1	-0.045625
32.966667	1	-0.045625
32.983333	1	-0.045875
33.000000	1	-0.046125
33.016667	1	-0.046375
33.033333	1	-0.046625
33.050000	1	-0.046125
33.066667	1	-0.046375
33.083333	1	-0.046625
33.100000	1	-0.046125
33.116667	1	-0.045250
33.133333	1	-0.044375
33.150000	1	-0.044125
33.166667	1	-0.044000
33.183333	1	-0.043625
33.200000	1	-0.043000
33.216667	1	-0.042750
33.233333	1	-0.042250
33.250000	1	-0.041750
33.266667	1	-0.041500
33.283333	1	-0.041375
33.300000	1	-0.041250
33.316667	1	-0.040625
33.333333	1	-0.040250
33.350000	1	-0.039875
33.366667	1	-0.040000
33.383333	1	-0.040125
33.400000	1	-0.040000
33.416667	1	-0.040250
33.433333	1	-0.040625
33.450000	1	-0.040875
33.466667	1	-0.041125
33.483333	1	-0.041000
33.500000	1	-0.041250
33.516667	1	-0.041250
33.533333	1	-0.041375
33.550000	1	-0.042125
33.566667	1	-0.042500
33.583333	1	-0.043125
33.600000	1	-0.043625
33.616667	1	-0.043875
33.633333	1	-0.044375
33.650000	1	-0.044625
33.666667	1	-0.044875
33.683333	1	-0.045375
33.700000	1	-0.046250
33.716667	1	-0.046750
33.733333	1	-0.047500
33.750000	1	-0.047250
33.766667	1	-0.047000
33.783333	1	-0.047000
33.800000	1	-0.047375
33.816667	1	-0.047875
33.833333	1	-0.048500
33.850000	1	-0.048625
33.866667	1	-0.048250
33.883333	1	-0.048125
33.900000	1	-0.048000
33.916667	1	-0.048125
33.933333	1	-0.047875
33.950000	1	-0.047125
33.966667	1	-0.047000
33.983333	1	-0.046625
34.000000	1	-0.046125
34.016667	1	-0.046000
34.033333	1	-0.045125
34.050000	1	-0.045125
34.066667	1	-0.044750
34.083333	1	-0.043500
34.100000	1	-0.042500
34.116667	1	-0.042375
34.133333	1	-0.041125
34.150000	1	-0.039625
34.166667	1	-0.038500
34.183333	1	-0.038250
34.200000	1	-0.036875
34.216667	1	-0.035375
34.233333	1	-0.034125
34.250000	1	-0.032875
34.266667	1	-0.031125
34.283333	1	-0.030250
34.300000	1	-0.029250
34.316667	1	-0.028375
34.333333	1	-0.027625
34.350000	1	-0.025500
34.366667	1	-0.024125
34.383333	1	-0.022625
34.400000	1	-0.020875
34.416667	1	-0.020250
34.433333	1	-0.018500
34.450000	1	-0.017375
34.466667	1	-0.015875
34.483333	1	-0.014375
34.500000	1	-0.013500
34.516667	1	-0.012250
34.533333	1	-0.010750
34.550000	1	-0.009250
34.566667	1	-0.007625
34.583333	1	-0.007250
34.600000	1	-0.006125
34.616667	1	-0.004875
34.633333	1	-0.004000
34.650000	1	-0.002625
34.666667	1	-0.002250
34.683333	1	-0.001375
34.700000	1	-0.000375
34.716667	1	0.000000
34.733333	1	0.000875
34.750000	1	0.001375
34.766667	1	0.002500
34.783333	1	0.003000
34.800000	1	0.003375
34.816667	1	0.003500
34.833333	1	0.004750
34.850000	1	0.005375
34.866667	1	0.006000
34.883333	1	0.006750
34.900000	1	0.007625
34.916667	1	0.008500
34.933333	1	0.009750
34.950000	1	0.011125
34.966667	1	0.012375
34.983333	1	0.013375
35.000000	1	0.015000
35.016667	1	0.016375
35.033333	1	0.018000
35.050000	1	0.019250
35.066667	1	0.020875
35.083333	1	0.023250
35.100000	1	0.024875
35.116667	1	0.026750
35.133333	1	0.028250
35.150000	1	0.030625
35.166667	1	0.032875
35.183333	1	0.035000
35.200000	1	0.037500
35.216667	1	0.039625
35.233333	1	0.041750
35.250000	1	0.044500
35.266667	1	0.047250
35.283333	1	0.049750
35.300000	1	0.052500
35.316667	1	0.055250
35.333333	1	0.058000
35.350000	1	0.060625
35.366667	1	0.063375
35.383333	1	0.065125
35.400000	1	0.067875
35.416667	1	0.070125
35.433333	1	0.072250
35.450000	1	0.074875
35.466667	1	0.077000
35.483333	1	0.078875
35.500000	1	0.080625
35.516667	1	0.082875
35.533333	1	0.084125
35.550000	1	0.085875
35.566667	1	0.087375
35.583333	1	0.089000
35.600000	1	0.089750
35.616667	1	0.090375
35.633333	1	0.091625
35.650000	1	0.092750
35.666667	1	0.093625
35.683333	1	0.095000
35.700000	1	0.095750
35.716667	1	0.096375
35.733333	1	0.096750
35.750000	1	0.096750
35.766667	1	0.097125
35.783333	1	0.096375
35.800000	1	0.096250
35.816667	1	0.096000
35.833333	1	0.095750
35.850000	1	0.094500
35.866667	1	0.094250
35.883333	1	0.093500
35.900000	1	0.092625
35.916667	1	0.092000
35.933333	1	0.090875
35.950000	1	0.089875
35.966667	1	0.088250
35.983333	1	0.086875
36.000000	1	0.085125
36.016667	1	0.083375
36.033333	1	0.081750
36.050000	1	0.080125
36.066667	1	0.079000
36.083333	1	0.077875
36.100000	1	0.076000
36.116667	1	0.074875
36.133333	1	0.073125
36.150000	1	0.072125
36.166667	1	0.070000
36.183333	1	0.068750
36.200000	1	0.067000
36.216667	1	0.065750
36.233333	1	0.064375
36.250000	1	0.062625
36.266667	1	0.060875
36.283333	1	0.059000
36.300000	1	0.057625
36.316667	1	0.056500
36.333333	1	0.054875
36.350000	1	0.053250
36.366667	1	0.051750
36.383333	1	0.050000
36.400000	1	0.048750
36.416667	1	0.047500
36.433333	1	0.045875
36.450000	1	0.043750
36.466667	1	0.042000
36.483333	1	0.041125
36.500000	1	0.040000
36.516667	1	0.038750
36.533333	1	0.038000
36.550000	1	0.036750
36.566667	1	0.034875
36.583333	1	0.032875
36.600000	1	0.031500
36.616667	1	0.029750
36.633333	1	0.028125
36.650000	1	0.026500
36.666667	1	0.025375
36.683333	1	0.023750
36.700000	1	0.022375
36.716667	1	0.020000
36.733333	1	0.018250
36.750000	1	0.016125
36.766667	1	0.013500
36.783333	1	0.011000
36.800000	1	0.008375
36.816667	1	0.006375
36.833333	1	0.004500
36.850000	1	0.001875
36.866667	1	-0.000375
36.883333	1	-0.002250
36.900000	1	-0.005000
36.916667	1	-0.008250
36.933333	1	-0.010875
36.950000	1	-0.013750
36.966667	1	-0.016750
36.983333	1	-0.020500
37.000000	1	-0.023000
37.016667	1	-0.026500
37.033333	1	-0.028750
37.050000	1	-0.031500
37.066667	1	-0.034375
37.083333	1	-0.037250
37.100000	1	-0.040125
37.116667	1	-0.042750
37.133333	1	-0.045500
37.150000	1	-0.048125
37.166667	1	-0.050500
37.183333	1	-0.052750
37.200000	1	-0.054375
37.216667	1	-0.057125
37.233333	1	-0.058750
37.250000	1	-0.060875
37.266667	1	-0.062625
37.283333	1	-0.064125
37.300000	1	-0.065000
37.316667	1	-0.066625
37.333333	1	-0.067500
37.350000	1	-0.068875
37.366667	1	-0.069500
37.383333	1	-0.070500
37.400000	1	-0.071125
37.416667	1	-0.072250
37.433333	1	-0.072500
37.450000	1	-0.073125
37.466667	1	-0.073125
37.483333	1	-0.073500
37.500000	1	-0.073625
37.516667	1	-0.074000
37.533333	1	-0.074000
37.550000	1	-0.074000
37.566667	1	-0.073375
37.583333	1	-0.072875
37.600000	1	-0.072375
37.616667	1	-0.072125
37.633333	1	-0.071750
37.650000	1	-0.071375
37.666667	1	-0.071125
37.683333	1	-0.070625
37.700000	1	-0.069500
37.716667	1	-0.069125
37.733333	1	-0.068375
37.750000	1	-0.067750
37.766667	1	-0.067500
37.783333	1	-0.066625
37.800000	1	-0.066375
37.816667	1	-0.066125
37.833333	1	-0.065375
37.850000	1	-0.064625
37.866667	1	-0.063750
37.883333	1	-0.062500
37.900000	1	-0.061625
37.916667	1	-0.060625
37.933333	1	-0.060000
37.950000	1	-0.059125
37.966667	1	-0.058875
37.983333	1	-0.057875
38.000000	1	-0.056500
38.016667	1	-0.055625
38.033333	1	-0.055250
38.050000	1	-0.053750
38.066667	1	-0.052625
38.083333	1	-0.051625
38.100000	1	-0.050375
38.116667	1	-0.048500
38.133333	1	-0.047375
38.150000	1	-0.046500
38.166667	1	-0.045750
38.183333	1	-0.044375
38.200000	1	-0.043500
38.216667	1	-0.042250
38.233333	1	-0.041000
38.250000	1	-0.040125
38.266667	1	-0.038875
38.283333	1	-0.037625
38.300000	1	-0.036875
38.316667	1	-0.035250
38.333333	1	-0.035000
38.350000	1	-0.034500
38.366667	1	-0.034375
38.383333	1	-0.033875
38.400000	1	-0.032750
38.416667	1	-0.031375
38.433333	1	-0.030750
38.450000	1	-0.030125
38.466667	1	-0.029875
38.483333	1	-0.030125
38.500000	1	-0.029500
38.516667	1	-0.029000
38.533333	1	-0.028750
38.550000	1	-0.029125
38.566667	1	-0.029125
38.583333	1	-0.029000
38.600000	1	-0.029000
38.616667	1	-0.028875
38.633333	1	-0.029375
38.650000	1	-0.029500
38.666667	1	-0.029500
38.683333	1	-0.029375
38.700000	1	-0.029500
38.716667	1	-0.030125
38.733333	1	-0.030625
38.750000	1	-0.030875
38.766667	1	-0.031500
38.783333	1	-0.031625
38.800000	1	-0.031875
38.816667	1	-0.031875
38.833333	1	-0.032625
38.850000	1	-0.032125
38.866667	1	-0.032375
38.883333	1	-0.033000
38.900000	1	-0.033750
38.916667	1	-0.032875
38.933333	1	-0.033125
38.950000	1	-0.033875
38.966667	1	-0.033875
38.983333	1	-0.034250
39.000000	1	-0.034125
39.016667	1	-0.034875
39.033333	1	-0.035000
39.050000	1	-0.035125
39.066667	1	-0.035500
39.083333	1	-0.035250
39.100000	1	-0.035250
39.116667	1	-0.035500
39.133333	1	-0.035250
39.150000	1	-0.035250
39.166667	1	-0.034625
39.183333	1	-0.035375
39.200000	1	-0.035125
39.216667	1	-0.035125
39.233333	1	-0.035750
39.250000	1	-0.034875
39.266667	1	-0.034375
39.283333	1	-0.034125
39.300000	1	-0.034375
39.316667	1	-0.034875
39.333333	1	-0.035000
39.350000	1	-0.035625
39.366667	1	-0.035625
39.383333	1	-0.036000
39.400000	1	-0.036250
39.416667	1	-0.036000
39.433333	1	-0.036500
39.450000	1	-0.036375
39.466667	1	-0.037500
39.483333	1	-0.037750
39.500000	1	-0.038000
39.516667	1	-0.038000
39.533333	1	-0.038875
39.550000	1	-0.039250
39.566667	1	-0.040000
39.583333	1	-0.040500
39.600000	1	-0.040875
39.616667	1	-0.041125
39.633333	1	-0.041875
39.650000	1	-0.042500
39.666667	1	-0.042875
39.683333	1	-0.042875
39.700000	1	-0.042750
39.716667	1	-0.042750
39.733333	1	-0.042500
39.750000	1	-0.042750
39.766667	1	-0.043375
39.783333	1	-0.043750
39.800000	1	-0.043875
39.816667	1	-0.043625
39.833333	1	-0.043250
39.850000	1	-0.043000
39.866667	1	-0.043125
39.883333	1	-0.042500
39.900000	1	-0.041625
39.916667	1	-0.041375
39.933333	1	-0.040875
39.950000	1	-0.040125
39.966667	1	-0.039500
39.983333	1	-0.038750
40.000000	1	-0.038000
