File Path	chrom://marshall/Chromeleon7/HPLC_Ultimate_3000/Users/markusar/20230610_CMO_FP11_FP12.seq/581.smp/RI_1.channel/RI_1.chm
Channel	RI_1

Injection Information:
Data Vault	Chromeleon7
Injection	FP11_7_S3
Injection Number	4
Position	BA3
Comment	
Processing Method	
Instrument Method	run_25B_method
Type	Unknown
Status	Finished
Injection Date	10.06.2023
Injection Time	20:46:46
Injection Volume (µl)	20.000
Dilution Factor	1.0000
Weight	1.0000

Chromatogram Data Information:
Time Min. (min)	0.000000
Time Max. (min)	40.000000
Data Points	2401
Detector	RI
Generating Data System	Chromeleon 7.2.5.9507
Exporting Data System	Chromeleon 7.2.5.0
Operator	Instrument Controller
Signal Quantity	Refractive 
Signal Unit	µRIU
Signal Min.	-0.823250
Signal Max.	41.820375
Channel	RI_1
Driver Name	RID520Driver.dll
Channel Type	Evaluation
Min. Step (s)	1
Max. Step (s)	1
Average Step (s)	1

Signal Parameter Information:
Signal Info	

Chromatogram Data:
Time (min)	Step (s)	Value (µRIU)
0.000000	n.a.	-0.008000
0.016667	1	-0.009750
0.033333	1	-0.011125
0.050000	1	-0.012625
0.066667	1	-0.014375
0.083333	1	-0.015375
0.100000	1	-0.016250
0.116667	1	-0.017250
0.133333	1	-0.018125
0.150000	1	-0.020125
0.166667	1	-0.021000
0.183333	1	-0.022125
0.200000	1	-0.023125
0.216667	1	-0.024375
0.233333	1	-0.025125
0.250000	1	-0.026500
0.266667	1	-0.027500
0.283333	1	-0.028375
0.300000	1	-0.029375
0.316667	1	-0.030875
0.333333	1	-0.033500
0.350000	1	-0.037500
0.366667	1	-0.041500
0.383333	1	-0.043875
0.400000	1	-0.042875
0.416667	1	-0.040250
0.433333	1	-0.037125
0.450000	1	-0.034875
0.466667	1	-0.032875
0.483333	1	-0.030875
0.500000	1	-0.029000
0.516667	1	-0.027500
0.533333	1	-0.026750
0.550000	1	-0.027500
0.566667	1	-0.029250
0.583333	1	-0.032000
0.600000	1	-0.034375
0.616667	1	-0.036250
0.633333	1	-0.037875
0.650000	1	-0.038750
0.666667	1	-0.039625
0.683333	1	-0.040875
0.700000	1	-0.041375
0.716667	1	-0.042250
0.733333	1	-0.042750
0.750000	1	-0.043125
0.766667	1	-0.044000
0.783333	1	-0.044500
0.800000	1	-0.044625
0.816667	1	-0.045250
0.833333	1	-0.045625
0.850000	1	-0.045750
0.866667	1	-0.045000
0.883333	1	-0.044250
0.900000	1	-0.044250
0.916667	1	-0.044000
0.933333	1	-0.043625
0.950000	1	-0.043000
0.966667	1	-0.043250
0.983333	1	-0.043500
1.000000	1	-0.043625
1.016667	1	-0.044125
1.033333	1	-0.043750
1.050000	1	-0.043375
1.066667	1	-0.043250
1.083333	1	-0.042750
1.100000	1	-0.042500
1.116667	1	-0.042750
1.133333	1	-0.043000
1.150000	1	-0.043500
1.166667	1	-0.043375
1.183333	1	-0.043625
1.200000	1	-0.043875
1.216667	1	-0.044000
1.233333	1	-0.044750
1.250000	1	-0.044875
1.266667	1	-0.045750
1.283333	1	-0.046250
1.300000	1	-0.047125
1.316667	1	-0.047875
1.333333	1	-0.048625
1.350000	1	-0.049625
1.366667	1	-0.050250
1.383333	1	-0.051250
1.400000	1	-0.052125
1.416667	1	-0.054000
1.433333	1	-0.054750
1.450000	1	-0.055250
1.466667	1	-0.056000
1.483333	1	-0.057250
1.500000	1	-0.058125
1.516667	1	-0.059250
1.533333	1	-0.060125
1.550000	1	-0.061000
1.566667	1	-0.062125
1.583333	1	-0.062750
1.600000	1	-0.063875
1.616667	1	-0.064375
1.633333	1	-0.064625
1.650000	1	-0.066000
1.666667	1	-0.066375
1.683333	1	-0.066375
1.700000	1	-0.067125
1.716667	1	-0.067500
1.733333	1	-0.068375
1.750000	1	-0.068875
1.766667	1	-0.069625
1.783333	1	-0.069875
1.800000	1	-0.069750
1.816667	1	-0.070250
1.833333	1	-0.070250
1.850000	1	-0.070125
1.866667	1	-0.070250
1.883333	1	-0.070375
1.900000	1	-0.069875
1.916667	1	-0.069375
1.933333	1	-0.069875
1.950000	1	-0.068750
1.966667	1	-0.068625
1.983333	1	-0.067875
2.000000	1	-0.068000
2.016667	1	-0.067875
2.033333	1	-0.067125
2.050000	1	-0.065875
2.066667	1	-0.064875
2.083333	1	-0.063750
2.100000	1	-0.062500
2.116667	1	-0.062500
2.133333	1	-0.062250
2.150000	1	-0.061500
2.166667	1	-0.061000
2.183333	1	-0.059875
2.200000	1	-0.058750
2.216667	1	-0.057375
2.233333	1	-0.056250
2.250000	1	-0.054500
2.266667	1	-0.053250
2.283333	1	-0.052500
2.300000	1	-0.051750
2.316667	1	-0.051000
2.333333	1	-0.050125
2.350000	1	-0.049125
2.366667	1	-0.048125
2.383333	1	-0.047125
2.400000	1	-0.046125
2.416667	1	-0.045375
2.433333	1	-0.044250
2.450000	1	-0.043625
2.466667	1	-0.042750
2.483333	1	-0.041500
2.500000	1	-0.040750
2.516667	1	-0.040125
2.533333	1	-0.039125
2.550000	1	-0.038625
2.566667	1	-0.037750
2.583333	1	-0.036500
2.600000	1	-0.035500
2.616667	1	-0.034000
2.633333	1	-0.033000
2.650000	1	-0.032250
2.666667	1	-0.031125
2.683333	1	-0.029875
2.700000	1	-0.029125
2.716667	1	-0.027625
2.733333	1	-0.027875
2.750000	1	-0.027500
2.766667	1	-0.026125
2.783333	1	-0.025125
2.800000	1	-0.023875
2.816667	1	-0.023625
2.833333	1	-0.022750
2.850000	1	-0.021625
2.866667	1	-0.020750
2.883333	1	-0.020250
2.900000	1	-0.019625
2.916667	1	-0.019375
2.933333	1	-0.018750
2.950000	1	-0.018375
2.966667	1	-0.018125
2.983333	1	-0.017125
3.000000	1	-0.017625
3.016667	1	-0.017250
3.033333	1	-0.016625
3.050000	1	-0.016250
3.066667	1	-0.016375
3.083333	1	-0.017375
3.100000	1	-0.016750
3.116667	1	-0.017500
3.133333	1	-0.018375
3.150000	1	-0.018750
3.166667	1	-0.019000
3.183333	1	-0.019125
3.200000	1	-0.020125
3.216667	1	-0.021000
3.233333	1	-0.022000
3.250000	1	-0.022375
3.266667	1	-0.023500
3.283333	1	-0.024625
3.300000	1	-0.026000
3.316667	1	-0.027125
3.333333	1	-0.028000
3.350000	1	-0.029125
3.366667	1	-0.030250
3.383333	1	-0.031625
3.400000	1	-0.033000
3.416667	1	-0.033750
3.433333	1	-0.035125
3.450000	1	-0.037000
3.466667	1	-0.037875
3.483333	1	-0.039250
3.500000	1	-0.040750
3.516667	1	-0.042500
3.533333	1	-0.043625
3.550000	1	-0.044500
3.566667	1	-0.045125
3.583333	1	-0.046125
3.600000	1	-0.047500
3.616667	1	-0.048875
3.633333	1	-0.049625
3.650000	1	-0.050625
3.666667	1	-0.051750
3.683333	1	-0.052000
3.700000	1	-0.053375
3.716667	1	-0.055125
3.733333	1	-0.055750
3.750000	1	-0.056250
3.766667	1	-0.057375
3.783333	1	-0.058000
3.800000	1	-0.058500
3.816667	1	-0.059000
3.833333	1	-0.058875
3.850000	1	-0.058875
3.866667	1	-0.059250
3.883333	1	-0.059375
3.900000	1	-0.059625
3.916667	1	-0.059500
3.933333	1	-0.059500
3.950000	1	-0.059875
3.966667	1	-0.059750
3.983333	1	-0.059375
4.000000	1	-0.058750
4.016667	1	-0.058250
4.033333	1	-0.057875
4.050000	1	-0.057250
4.066667	1	-0.057250
4.083333	1	-0.056750
4.100000	1	-0.056125
4.116667	1	-0.055375
4.133333	1	-0.055000
4.150000	1	-0.054125
4.166667	1	-0.053125
4.183333	1	-0.052875
4.200000	1	-0.052000
4.216667	1	-0.050625
4.233333	1	-0.050125
4.250000	1	-0.049375
4.266667	1	-0.048625
4.283333	1	-0.047750
4.300000	1	-0.046625
4.316667	1	-0.045750
4.333333	1	-0.044750
4.350000	1	-0.043000
4.366667	1	-0.042000
4.383333	1	-0.040875
4.400000	1	-0.039000
4.416667	1	-0.038000
4.433333	1	-0.036625
4.450000	1	-0.035750
4.466667	1	-0.034625
4.483333	1	-0.034000
4.500000	1	-0.033250
4.516667	1	-0.032500
4.533333	1	-0.031125
4.550000	1	-0.030250
4.566667	1	-0.028750
4.583333	1	-0.027625
4.600000	1	-0.026500
4.616667	1	-0.025250
4.633333	1	-0.024250
4.650000	1	-0.023250
4.666667	1	-0.021750
4.683333	1	-0.021000
4.700000	1	-0.019500
4.716667	1	-0.018375
4.733333	1	-0.017625
4.750000	1	-0.015500
4.766667	1	-0.015000
4.783333	1	-0.014250
4.800000	1	-0.013000
4.816667	1	-0.011750
4.833333	1	-0.010750
4.850000	1	-0.009500
4.866667	1	-0.008625
4.883333	1	-0.007500
4.900000	1	-0.006250
4.916667	1	-0.005500
4.933333	1	-0.004000
4.950000	1	-0.003250
4.966667	1	-0.001625
4.983333	1	-0.000750
5.000000	1	0.000125
5.016667	1	0.001875
5.033333	1	0.003125
5.050000	1	0.004125
5.066667	1	0.005250
5.083333	1	0.006500
5.100000	1	0.008125
5.116667	1	0.009000
5.133333	1	0.009875
5.150000	1	0.011125
5.166667	1	0.011500
5.183333	1	0.013375
5.200000	1	0.014750
5.216667	1	0.016000
5.233333	1	0.017375
5.250000	1	0.019000
5.266667	1	0.019625
5.283333	1	0.021000
5.300000	1	0.021875
5.316667	1	0.022625
5.333333	1	0.023875
5.350000	1	0.024250
5.366667	1	0.024250
5.383333	1	0.025125
5.400000	1	0.025625
5.416667	1	0.026375
5.433333	1	0.026500
5.450000	1	0.026875
5.466667	1	0.027125
5.483333	1	0.027375
5.500000	1	0.026875
5.516667	1	0.027125
5.533333	1	0.027500
5.550000	1	0.027250
5.566667	1	0.027000
5.583333	1	0.026625
5.600000	1	0.026500
5.616667	1	0.026000
5.633333	1	0.025500
5.650000	1	0.025125
5.666667	1	0.024625
5.683333	1	0.023875
5.700000	1	0.022875
5.716667	1	0.022375
5.733333	1	0.022250
5.750000	1	0.021625
5.766667	1	0.021625
5.783333	1	0.021125
5.800000	1	0.020750
5.816667	1	0.020625
5.833333	1	0.019875
5.850000	1	0.019375
5.866667	1	0.018875
5.883333	1	0.019250
5.900000	1	0.018750
5.916667	1	0.017875
5.933333	1	0.018000
5.950000	1	0.017375
5.966667	1	0.017375
5.983333	1	0.017000
6.000000	1	0.017375
6.016667	1	0.017375
6.033333	1	0.016875
6.050000	1	0.016625
6.066667	1	0.016750
6.083333	1	0.017125
6.100000	1	0.016750
6.116667	1	0.016125
6.133333	1	0.015750
6.150000	1	0.016000
6.166667	1	0.016875
6.183333	1	0.016625
6.200000	1	0.016750
6.216667	1	0.016250
6.233333	1	0.015875
6.250000	1	0.016250
6.266667	1	0.017125
6.283333	1	0.017250
6.300000	1	0.018000
6.316667	1	0.018500
6.333333	1	0.018500
6.350000	1	0.019000
6.366667	1	0.019125
6.383333	1	0.019500
6.400000	1	0.020125
6.416667	1	0.020625
6.433333	1	0.021375
6.450000	1	0.022500
6.466667	1	0.023000
6.483333	1	0.023625
6.500000	1	0.024750
6.516667	1	0.026125
6.533333	1	0.027250
6.550000	1	0.027625
6.566667	1	0.028000
6.583333	1	0.028875
6.600000	1	0.029125
6.616667	1	0.029875
6.633333	1	0.031125
6.650000	1	0.031750
6.666667	1	0.032625
6.683333	1	0.034000
6.700000	1	0.034000
6.716667	1	0.034250
6.733333	1	0.034750
6.750000	1	0.035750
6.766667	1	0.036500
6.783333	1	0.036625
6.800000	1	0.037750
6.816667	1	0.038000
6.833333	1	0.037875
6.850000	1	0.037500
6.866667	1	0.038000
6.883333	1	0.037750
6.900000	1	0.037750
6.916667	1	0.037375
6.933333	1	0.037625
6.950000	1	0.036500
6.966667	1	0.035625
6.983333	1	0.035125
7.000000	1	0.034625
7.016667	1	0.033750
7.033333	1	0.032625
7.050000	1	0.031500
7.066667	1	0.029875
7.083333	1	0.028125
7.100000	1	0.026250
7.116667	1	0.025250
7.133333	1	0.023750
7.150000	1	0.022375
7.166667	1	0.020000
7.183333	1	0.018500
7.200000	1	0.016750
7.216667	1	0.015125
7.233333	1	0.014000
7.250000	1	0.012625
7.266667	1	0.011250
7.283333	1	0.009125
7.300000	1	0.007375
7.316667	1	0.005875
7.333333	1	0.004375
7.350000	1	0.003375
7.366667	1	0.002000
7.383333	1	0.001250
7.400000	1	0.000250
7.416667	1	-0.000625
7.433333	1	-0.001375
7.450000	1	-0.002875
7.466667	1	-0.003625
7.483333	1	-0.004125
7.500000	1	-0.003750
7.516667	1	-0.004625
7.533333	1	-0.004875
7.550000	1	-0.005500
7.566667	1	-0.004750
7.583333	1	-0.004875
7.600000	1	-0.005125
7.616667	1	-0.005000
7.633333	1	-0.005000
7.650000	1	-0.005500
7.666667	1	-0.005625
7.683333	1	-0.005375
7.700000	1	-0.005250
7.716667	1	-0.005375
7.733333	1	-0.005875
7.750000	1	-0.005250
7.766667	1	-0.004750
7.783333	1	-0.004500
7.800000	1	-0.004375
7.816667	1	-0.005000
7.833333	1	-0.004875
7.850000	1	-0.005375
7.866667	1	-0.005375
7.883333	1	-0.004875
7.900000	1	-0.005125
7.916667	1	-0.004500
7.933333	1	-0.004500
7.950000	1	-0.004250
7.966667	1	-0.003750
7.983333	1	-0.004125
8.000000	1	-0.003625
8.016667	1	-0.003500
8.033333	1	-0.002875
8.050000	1	-0.002875
8.066667	1	-0.003125
8.083333	1	-0.002375
8.100000	1	-0.001875
8.116667	1	-0.001250
8.133333	1	-0.000750
8.150000	1	0.000000
8.166667	1	0.000000
8.183333	1	0.000000
8.200000	1	0.001000
8.216667	1	0.001500
8.233333	1	0.001750
8.250000	1	0.002000
8.266667	1	0.002375
8.283333	1	0.003625
8.300000	1	0.004500
8.316667	1	0.005875
8.333333	1	0.007375
8.350000	1	0.008375
8.366667	1	0.008750
8.383333	1	0.009500
8.400000	1	0.011375
8.416667	1	0.013750
8.433333	1	0.015250
8.450000	1	0.016625
8.466667	1	0.018500
8.483333	1	0.020375
8.500000	1	0.022625
8.516667	1	0.025375
8.533333	1	0.027625
8.550000	1	0.030000
8.566667	1	0.032500
8.583333	1	0.034500
8.600000	1	0.037000
8.616667	1	0.038875
8.633333	1	0.040750
8.650000	1	0.043000
8.666667	1	0.044625
8.683333	1	0.046750
8.700000	1	0.048750
8.716667	1	0.051250
8.733333	1	0.052750
8.750000	1	0.054000
8.766667	1	0.055875
8.783333	1	0.056750
8.800000	1	0.057875
8.816667	1	0.059000
8.833333	1	0.059875
8.850000	1	0.060875
8.866667	1	0.061875
8.883333	1	0.062500
8.900000	1	0.062750
8.916667	1	0.063875
8.933333	1	0.064375
8.950000	1	0.065250
8.966667	1	0.066375
8.983333	1	0.066625
9.000000	1	0.067000
9.016667	1	0.067750
9.033333	1	0.067750
9.050000	1	0.067875
9.066667	1	0.067875
9.083333	1	0.067750
9.100000	1	0.067500
9.116667	1	0.067875
9.133333	1	0.068125
9.150000	1	0.068125
9.166667	1	0.068250
9.183333	1	0.068500
9.200000	1	0.068375
9.216667	1	0.068750
9.233333	1	0.068875
9.250000	1	0.068750
9.266667	1	0.068500
9.283333	1	0.068375
9.300000	1	0.068625
9.316667	1	0.068375
9.333333	1	0.069125
9.350000	1	0.069500
9.366667	1	0.069125
9.383333	1	0.069125
9.400000	1	0.069625
9.416667	1	0.069750
9.433333	1	0.070000
9.450000	1	0.070125
9.466667	1	0.070750
9.483333	1	0.071375
9.500000	1	0.071875
9.516667	1	0.073000
9.533333	1	0.074000
9.550000	1	0.076625
9.566667	1	0.079250
9.583333	1	0.082375
9.600000	1	0.085875
9.616667	1	0.089875
9.633333	1	0.095625
9.650000	1	0.102000
9.666667	1	0.109750
9.683333	1	0.119750
9.700000	1	0.132000
9.716667	1	0.145500
9.733333	1	0.162125
9.750000	1	0.181875
9.766667	1	0.204750
9.783333	1	0.230375
9.800000	1	0.260750
9.816667	1	0.295875
9.833333	1	0.335875
9.850000	1	0.378250
9.866667	1	0.419125
9.883333	1	0.454250
9.900000	1	0.478750
9.916667	1	0.492125
9.933333	1	0.501000
9.950000	1	0.520625
9.966667	1	0.575875
9.983333	1	0.699375
10.000000	1	0.926000
10.016667	1	1.290625
10.033333	1	1.822000
10.050000	1	2.544875
10.066667	1	3.475250
10.083333	1	4.622750
10.100000	1	5.991375
10.116667	1	7.578250
10.133333	1	9.372125
10.150000	1	11.354875
10.166667	1	13.497250
10.183333	1	15.766875
10.200000	1	18.122750
10.216667	1	20.524500
10.233333	1	22.930125
10.250000	1	25.300875
10.266667	1	27.593875
10.283333	1	29.772500
10.300000	1	31.789500
10.316667	1	33.587625
10.333333	1	35.087750
10.350000	1	36.191250
10.366667	1	36.783375
10.383333	1	36.756375
10.400000	1	36.033750
10.416667	1	34.602000
10.433333	1	32.527000
10.450000	1	29.954500
10.466667	1	27.080125
10.483333	1	24.106625
10.500000	1	21.210375
10.516667	1	18.512750
10.533333	1	16.080125
10.550000	1	13.934125
10.566667	1	12.064125
10.583333	1	10.446000
10.600000	1	9.054250
10.616667	1	7.862125
10.633333	1	6.847750
10.650000	1	5.990375
10.666667	1	5.271625
10.683333	1	4.672625
10.700000	1	4.175250
10.716667	1	3.764250
10.733333	1	3.423000
10.750000	1	3.138625
10.766667	1	2.899750
10.783333	1	2.697250
10.800000	1	2.522875
10.816667	1	2.371625
10.833333	1	2.239000
10.850000	1	2.121500
10.866667	1	2.016500
10.883333	1	1.921500
10.900000	1	1.836250
10.916667	1	1.758625
10.933333	1	1.687625
10.950000	1	1.622875
10.966667	1	1.562625
10.983333	1	1.506750
11.000000	1	1.455000
11.016667	1	1.407500
11.033333	1	1.361875
11.050000	1	1.320500
11.066667	1	1.280875
11.083333	1	1.244000
11.100000	1	1.209750
11.116667	1	1.177500
11.133333	1	1.147000
11.150000	1	1.118750
11.166667	1	1.092125
11.183333	1	1.066875
11.200000	1	1.043125
11.216667	1	1.021000
11.233333	1	1.000875
11.250000	1	0.982125
11.266667	1	0.964250
11.283333	1	0.948125
11.300000	1	0.933875
11.316667	1	0.920250
11.333333	1	0.907750
11.350000	1	0.896750
11.366667	1	0.886000
11.383333	1	0.877125
11.400000	1	0.869125
11.416667	1	0.862000
11.433333	1	0.855875
11.450000	1	0.850250
11.466667	1	0.845500
11.483333	1	0.842375
11.500000	1	0.839625
11.516667	1	0.838000
11.533333	1	0.835500
11.550000	1	0.834375
11.566667	1	0.834000
11.583333	1	0.833625
11.600000	1	0.833500
11.616667	1	0.833000
11.633333	1	0.833250
11.650000	1	0.834000
11.666667	1	0.834875
11.683333	1	0.835875
11.700000	1	0.837500
11.716667	1	0.838750
11.733333	1	0.839000
11.750000	1	0.839375
11.766667	1	0.839875
11.783333	1	0.841000
11.800000	1	0.841750
11.816667	1	0.842375
11.833333	1	0.842875
11.850000	1	0.842875
11.866667	1	0.843000
11.883333	1	0.843875
11.900000	1	0.845000
11.916667	1	0.846000
11.933333	1	0.847250
11.950000	1	0.849750
11.966667	1	0.853000
11.983333	1	0.856500
12.000000	1	0.861125
12.016667	1	0.866750
12.033333	1	0.874000
12.050000	1	0.883500
12.066667	1	0.895875
12.083333	1	0.912500
12.100000	1	0.933250
12.116667	1	0.959750
12.133333	1	0.994000
12.150000	1	1.037875
12.166667	1	1.092625
12.183333	1	1.161125
12.200000	1	1.244625
12.216667	1	1.344375
12.233333	1	1.463000
12.250000	1	1.601875
12.266667	1	1.762125
12.283333	1	1.946375
12.300000	1	2.156500
12.316667	1	2.394125
12.333333	1	2.661750
12.350000	1	2.960500
12.366667	1	3.291625
12.383333	1	3.656625
12.400000	1	4.054375
12.416667	1	4.485000
12.433333	1	4.948125
12.450000	1	5.440625
12.466667	1	5.960375
12.483333	1	6.503500
12.500000	1	7.066000
12.516667	1	7.642375
12.533333	1	8.225000
12.550000	1	8.806375
12.566667	1	9.376500
12.583333	1	9.923625
12.600000	1	10.436500
12.616667	1	10.905250
12.633333	1	11.323625
12.650000	1	11.687000
12.666667	1	11.992500
12.683333	1	12.241375
12.700000	1	12.433000
12.716667	1	12.567000
12.733333	1	12.645875
12.750000	1	12.667750
12.766667	1	12.634125
12.783333	1	12.542375
12.800000	1	12.390000
12.816667	1	12.175375
12.833333	1	11.900375
12.850000	1	11.571000
12.866667	1	11.195625
12.883333	1	10.784875
12.900000	1	10.344500
12.916667	1	9.876625
12.933333	1	9.381000
12.950000	1	8.854125
12.966667	1	8.296125
12.983333	1	7.711250
13.000000	1	7.104125
13.016667	1	6.478875
13.033333	1	5.840000
13.050000	1	5.191750
13.066667	1	4.544875
13.083333	1	3.923000
13.100000	1	3.355500
13.116667	1	2.866875
13.133333	1	2.467875
13.150000	1	2.154000
13.166667	1	1.912000
13.183333	1	1.725500
13.200000	1	1.579625
13.216667	1	1.464250
13.233333	1	1.370750
13.250000	1	1.293000
13.266667	1	1.227875
13.283333	1	1.171625
13.300000	1	1.121125
13.316667	1	1.076250
13.333333	1	1.035500
13.350000	1	0.998000
13.366667	1	0.964125
13.383333	1	0.933000
13.400000	1	0.902625
13.416667	1	0.874125
13.433333	1	0.848250
13.450000	1	0.823750
13.466667	1	0.801500
13.483333	1	0.781125
13.500000	1	0.762000
13.516667	1	0.744500
13.533333	1	0.728625
13.550000	1	0.714250
13.566667	1	0.702125
13.583333	1	0.692000
13.600000	1	0.683125
13.616667	1	0.676000
13.633333	1	0.670875
13.650000	1	0.666375
13.666667	1	0.663500
13.683333	1	0.661375
13.700000	1	0.659750
13.716667	1	0.659125
13.733333	1	0.658875
13.750000	1	0.658875
13.766667	1	0.658875
13.783333	1	0.660125
13.800000	1	0.660125
13.816667	1	0.660000
13.833333	1	0.658500
13.850000	1	0.655500
13.866667	1	0.650750
13.883333	1	0.644750
13.900000	1	0.637250
13.916667	1	0.627625
13.933333	1	0.616375
13.950000	1	0.604375
13.966667	1	0.592125
13.983333	1	0.579125
14.000000	1	0.565625
14.016667	1	0.552500
14.033333	1	0.540000
14.050000	1	0.527375
14.066667	1	0.515250
14.083333	1	0.504625
14.100000	1	0.494625
14.116667	1	0.484500
14.133333	1	0.476375
14.150000	1	0.468625
14.166667	1	0.462000
14.183333	1	0.456375
14.200000	1	0.451375
14.216667	1	0.448250
14.233333	1	0.446000
14.250000	1	0.445000
14.266667	1	0.445375
14.283333	1	0.446750
14.300000	1	0.449875
14.316667	1	0.454750
14.333333	1	0.461500
14.350000	1	0.470375
14.366667	1	0.481500
14.383333	1	0.495875
14.400000	1	0.513250
14.416667	1	0.534500
14.433333	1	0.559750
14.450000	1	0.590250
14.466667	1	0.627250
14.483333	1	0.671625
14.500000	1	0.724250
14.516667	1	0.788000
14.533333	1	0.866750
14.550000	1	0.962000
14.566667	1	1.079750
14.583333	1	1.226750
14.600000	1	1.409750
14.616667	1	1.640125
14.633333	1	1.928875
14.650000	1	2.292250
14.666667	1	2.745875
14.683333	1	3.307375
14.700000	1	3.995375
14.716667	1	4.825750
14.733333	1	5.811750
14.750000	1	6.966875
14.766667	1	8.299000
14.783333	1	9.808375
14.800000	1	11.490000
14.816667	1	13.334875
14.833333	1	15.328875
14.850000	1	17.453875
14.866667	1	19.685000
14.883333	1	21.993125
14.900000	1	24.346000
14.916667	1	26.707750
14.933333	1	29.040750
14.950000	1	31.308375
14.966667	1	33.465125
14.983333	1	35.469250
15.000000	1	37.273500
15.016667	1	38.834000
15.033333	1	40.105625
15.050000	1	41.049125
15.066667	1	41.629000
15.083333	1	41.820375
15.100000	1	41.610750
15.116667	1	41.001625
15.133333	1	40.009125
15.150000	1	38.663750
15.166667	1	37.008375
15.183333	1	35.096375
15.200000	1	32.985750
15.216667	1	30.736125
15.233333	1	28.406875
15.250000	1	26.053125
15.266667	1	23.724250
15.283333	1	21.464125
15.300000	1	19.309000
15.316667	1	17.284875
15.333333	1	15.410000
15.350000	1	13.693875
15.366667	1	12.139500
15.383333	1	10.745500
15.400000	1	9.504375
15.416667	1	8.407125
15.433333	1	7.442500
15.450000	1	6.597750
15.466667	1	5.862125
15.483333	1	5.222875
15.500000	1	4.669125
15.516667	1	4.191625
15.533333	1	3.780000
15.550000	1	3.425625
15.566667	1	3.121375
15.583333	1	2.860875
15.600000	1	2.637000
15.616667	1	2.444875
15.633333	1	2.280250
15.650000	1	2.138375
15.666667	1	2.015500
15.683333	1	1.910375
15.700000	1	1.820000
15.716667	1	1.741750
15.733333	1	1.673625
15.750000	1	1.613875
15.766667	1	1.560750
15.783333	1	1.513000
15.800000	1	1.468375
15.816667	1	1.427250
15.833333	1	1.388000
15.850000	1	1.349375
15.866667	1	1.310625
15.883333	1	1.272375
15.900000	1	1.234375
15.916667	1	1.196875
15.933333	1	1.160500
15.950000	1	1.125250
15.966667	1	1.090375
15.983333	1	1.058125
16.000000	1	1.027750
16.016667	1	1.000500
16.033333	1	0.974875
16.050000	1	0.951500
16.066667	1	0.931625
16.083333	1	0.913500
16.100000	1	0.899250
16.116667	1	0.886500
16.133333	1	0.876875
16.150000	1	0.869750
16.166667	1	0.865500
16.183333	1	0.862875
16.200000	1	0.861875
16.216667	1	0.862000
16.233333	1	0.864000
16.250000	1	0.867125
16.266667	1	0.870375
16.283333	1	0.874125
16.300000	1	0.878875
16.316667	1	0.883500
16.333333	1	0.886875
16.350000	1	0.889625
16.366667	1	0.891625
16.383333	1	0.891750
16.400000	1	0.890375
16.416667	1	0.886875
16.433333	1	0.882125
16.450000	1	0.875250
16.466667	1	0.866625
16.483333	1	0.856875
16.500000	1	0.846500
16.516667	1	0.835125
16.533333	1	0.823125
16.550000	1	0.810750
16.566667	1	0.799500
16.583333	1	0.788375
16.600000	1	0.778375
16.616667	1	0.769125
16.633333	1	0.761000
16.650000	1	0.753250
16.666667	1	0.747750
16.683333	1	0.742625
16.700000	1	0.739000
16.716667	1	0.736000
16.733333	1	0.734250
16.750000	1	0.733125
16.766667	1	0.733000
16.783333	1	0.733250
16.800000	1	0.734000
16.816667	1	0.735000
16.833333	1	0.736000
16.850000	1	0.737875
16.866667	1	0.738875
16.883333	1	0.740125
16.900000	1	0.741375
16.916667	1	0.742375
16.933333	1	0.742750
16.950000	1	0.743250
16.966667	1	0.744000
16.983333	1	0.744000
17.000000	1	0.744000
17.016667	1	0.743375
17.033333	1	0.741500
17.050000	1	0.739125
17.066667	1	0.737000
17.083333	1	0.734875
17.100000	1	0.731875
17.116667	1	0.729875
17.133333	1	0.726875
17.150000	1	0.723750
17.166667	1	0.720875
17.183333	1	0.718375
17.200000	1	0.715875
17.216667	1	0.713375
17.233333	1	0.710625
17.250000	1	0.706750
17.266667	1	0.702875
17.283333	1	0.699250
17.300000	1	0.694625
17.316667	1	0.689250
17.333333	1	0.683625
17.350000	1	0.677000
17.366667	1	0.670500
17.383333	1	0.663500
17.400000	1	0.656875
17.416667	1	0.649625
17.433333	1	0.642625
17.450000	1	0.635500
17.466667	1	0.629000
17.483333	1	0.623250
17.500000	1	0.617875
17.516667	1	0.612625
17.533333	1	0.608125
17.550000	1	0.605375
17.566667	1	0.603750
17.583333	1	0.602875
17.600000	1	0.603875
17.616667	1	0.606125
17.633333	1	0.609375
17.650000	1	0.613625
17.666667	1	0.619250
17.683333	1	0.625875
17.700000	1	0.634125
17.716667	1	0.643625
17.733333	1	0.655000
17.750000	1	0.667000
17.766667	1	0.679000
17.783333	1	0.692125
17.800000	1	0.706375
17.816667	1	0.720875
17.833333	1	0.735625
17.850000	1	0.749875
17.866667	1	0.764375
17.883333	1	0.777875
17.900000	1	0.790875
17.916667	1	0.803250
17.933333	1	0.814625
17.950000	1	0.824625
17.966667	1	0.833750
17.983333	1	0.842250
18.000000	1	0.848875
18.016667	1	0.853375
18.033333	1	0.856125
18.050000	1	0.858125
18.066667	1	0.858125
18.083333	1	0.856500
18.100000	1	0.852750
18.116667	1	0.847750
18.133333	1	0.840750
18.150000	1	0.833250
18.166667	1	0.824250
18.183333	1	0.812875
18.200000	1	0.801625
18.216667	1	0.790000
18.233333	1	0.777250
18.250000	1	0.764500
18.266667	1	0.751625
18.283333	1	0.737750
18.300000	1	0.724750
18.316667	1	0.711875
18.333333	1	0.699375
18.350000	1	0.687500
18.366667	1	0.676625
18.383333	1	0.666000
18.400000	1	0.655875
18.416667	1	0.646375
18.433333	1	0.637875
18.450000	1	0.629875
18.466667	1	0.622375
18.483333	1	0.616000
18.500000	1	0.610875
18.516667	1	0.606625
18.533333	1	0.602750
18.550000	1	0.599250
18.566667	1	0.596875
18.583333	1	0.595125
18.600000	1	0.593875
18.616667	1	0.593375
18.633333	1	0.592750
18.650000	1	0.592625
18.666667	1	0.592125
18.683333	1	0.591625
18.700000	1	0.592875
18.716667	1	0.594125
18.733333	1	0.595375
18.750000	1	0.597250
18.766667	1	0.599625
18.783333	1	0.602625
18.800000	1	0.606500
18.816667	1	0.610125
18.833333	1	0.614875
18.850000	1	0.619500
18.866667	1	0.625750
18.883333	1	0.632875
18.900000	1	0.640625
18.916667	1	0.649750
18.933333	1	0.659875
18.950000	1	0.671125
18.966667	1	0.684250
18.983333	1	0.698625
19.000000	1	0.714750
19.016667	1	0.732375
19.033333	1	0.751625
19.050000	1	0.772125
19.066667	1	0.794375
19.083333	1	0.818750
19.100000	1	0.844875
19.116667	1	0.872375
19.133333	1	0.900875
19.150000	1	0.930750
19.166667	1	0.961500
19.183333	1	0.992500
19.200000	1	1.024000
19.216667	1	1.056250
19.233333	1	1.086875
19.250000	1	1.117375
19.266667	1	1.145625
19.283333	1	1.173000
19.300000	1	1.197625
19.316667	1	1.218750
19.333333	1	1.237500
19.350000	1	1.252875
19.366667	1	1.264625
19.383333	1	1.272125
19.400000	1	1.274625
19.416667	1	1.272375
19.433333	1	1.266500
19.450000	1	1.255125
19.466667	1	1.239125
19.483333	1	1.219500
19.500000	1	1.196250
19.516667	1	1.169500
19.533333	1	1.139625
19.550000	1	1.107500
19.566667	1	1.073250
19.583333	1	1.038000
19.600000	1	1.002250
19.616667	1	0.966125
19.633333	1	0.930625
19.650000	1	0.894875
19.666667	1	0.860500
19.683333	1	0.827875
19.700000	1	0.798375
19.716667	1	0.770125
19.733333	1	0.744250
19.750000	1	0.721125
19.766667	1	0.701750
19.783333	1	0.685750
19.800000	1	0.672125
19.816667	1	0.661875
19.833333	1	0.654625
19.850000	1	0.650875
19.866667	1	0.649250
19.883333	1	0.651375
19.900000	1	0.655750
19.916667	1	0.662375
19.933333	1	0.671875
19.950000	1	0.683625
19.966667	1	0.697750
19.983333	1	0.713500
20.000000	1	0.730875
20.016667	1	0.750000
20.033333	1	0.770250
20.050000	1	0.791500
20.066667	1	0.813875
20.083333	1	0.838250
20.100000	1	0.863625
20.116667	1	0.889875
20.133333	1	0.918125
20.150000	1	0.949000
20.166667	1	0.981750
20.183333	1	1.016875
20.200000	1	1.055000
20.216667	1	1.097375
20.233333	1	1.143750
20.250000	1	1.194750
20.266667	1	1.251750
20.283333	1	1.314000
20.300000	1	1.382000
20.316667	1	1.455500
20.333333	1	1.535875
20.350000	1	1.622375
20.366667	1	1.714750
20.383333	1	1.812625
20.400000	1	1.915875
20.416667	1	2.023125
20.433333	1	2.133625
20.450000	1	2.247125
20.466667	1	2.363125
20.483333	1	2.479125
20.500000	1	2.594375
20.516667	1	2.707000
20.533333	1	2.816125
20.550000	1	2.920125
20.566667	1	3.017125
20.583333	1	3.105250
20.600000	1	3.182875
20.616667	1	3.248875
20.633333	1	3.301125
20.650000	1	3.338250
20.666667	1	3.360750
20.683333	1	3.366375
20.700000	1	3.356000
20.716667	1	3.330750
20.733333	1	3.290750
20.750000	1	3.237375
20.766667	1	3.171875
20.783333	1	3.096250
20.800000	1	3.012125
20.816667	1	2.922125
20.833333	1	2.828375
20.850000	1	2.733625
20.866667	1	2.638250
20.883333	1	2.545875
20.900000	1	2.456000
20.916667	1	2.370750
20.933333	1	2.290625
20.950000	1	2.216125
20.966667	1	2.147500
20.983333	1	2.083500
21.000000	1	2.025250
21.016667	1	1.971250
21.033333	1	1.920500
21.050000	1	1.872500
21.066667	1	1.825625
21.083333	1	1.779125
21.100000	1	1.732625
21.116667	1	1.684875
21.133333	1	1.634875
21.150000	1	1.583250
21.166667	1	1.530125
21.183333	1	1.474125
21.200000	1	1.415875
21.216667	1	1.355875
21.233333	1	1.294125
21.250000	1	1.231875
21.266667	1	1.168625
21.283333	1	1.106750
21.300000	1	1.045625
21.316667	1	0.986125
21.333333	1	0.928875
21.350000	1	0.873125
21.366667	1	0.820750
21.383333	1	0.770625
21.400000	1	0.724750
21.416667	1	0.681625
21.433333	1	0.642125
21.450000	1	0.606375
21.466667	1	0.573875
21.483333	1	0.544500
21.500000	1	0.518375
21.516667	1	0.494250
21.533333	1	0.473375
21.550000	1	0.454500
21.566667	1	0.438250
21.583333	1	0.423625
21.600000	1	0.409875
21.616667	1	0.398750
21.633333	1	0.389250
21.650000	1	0.380625
21.666667	1	0.373625
21.683333	1	0.367750
21.700000	1	0.362500
21.716667	1	0.359625
21.733333	1	0.357125
21.750000	1	0.354250
21.766667	1	0.353000
21.783333	1	0.352500
21.800000	1	0.351750
21.816667	1	0.352375
21.833333	1	0.353625
21.850000	1	0.355500
21.866667	1	0.358500
21.883333	1	0.361375
21.900000	1	0.365000
21.916667	1	0.369125
21.933333	1	0.374125
21.950000	1	0.378875
21.966667	1	0.384000
21.983333	1	0.390000
22.000000	1	0.395875
22.016667	1	0.401375
22.033333	1	0.408000
22.050000	1	0.413875
22.066667	1	0.419625
22.083333	1	0.425625
22.100000	1	0.431375
22.116667	1	0.436500
22.133333	1	0.441750
22.150000	1	0.445875
22.166667	1	0.449750
22.183333	1	0.452250
22.200000	1	0.453750
22.216667	1	0.455000
22.233333	1	0.455625
22.250000	1	0.455250
22.266667	1	0.453625
22.283333	1	0.452000
22.300000	1	0.450125
22.316667	1	0.447500
22.333333	1	0.444500
22.350000	1	0.440750
22.366667	1	0.437250
22.383333	1	0.433625
22.400000	1	0.429875
22.416667	1	0.426125
22.433333	1	0.423375
22.450000	1	0.420750
22.466667	1	0.418625
22.483333	1	0.417250
22.500000	1	0.416000
22.516667	1	0.415750
22.533333	1	0.415625
22.550000	1	0.415625
22.566667	1	0.416125
22.583333	1	0.417625
22.600000	1	0.419375
22.616667	1	0.422375
22.633333	1	0.424500
22.650000	1	0.427000
22.666667	1	0.429250
22.683333	1	0.431750
22.700000	1	0.434000
22.716667	1	0.436875
22.733333	1	0.439250
22.750000	1	0.440750
22.766667	1	0.442500
22.783333	1	0.443875
22.800000	1	0.444375
22.816667	1	0.444750
22.833333	1	0.445000
22.850000	1	0.444125
22.866667	1	0.443000
22.883333	1	0.441750
22.900000	1	0.439625
22.916667	1	0.436750
22.933333	1	0.434125
22.950000	1	0.430750
22.966667	1	0.426250
22.983333	1	0.422375
23.000000	1	0.418375
23.016667	1	0.414500
23.033333	1	0.409875
23.050000	1	0.404875
23.066667	1	0.399250
23.083333	1	0.393625
23.100000	1	0.388625
23.116667	1	0.384250
23.133333	1	0.380250
23.150000	1	0.376250
23.166667	1	0.372750
23.183333	1	0.369375
23.200000	1	0.367125
23.216667	1	0.365375
23.233333	1	0.364125
23.250000	1	0.364375
23.266667	1	0.364875
23.283333	1	0.366875
23.300000	1	0.370625
23.316667	1	0.375250
23.333333	1	0.381125
23.350000	1	0.389125
23.366667	1	0.399500
23.383333	1	0.411250
23.400000	1	0.425750
23.416667	1	0.442500
23.433333	1	0.463375
23.450000	1	0.487250
23.466667	1	0.516000
23.483333	1	0.549375
23.500000	1	0.588500
23.516667	1	0.634250
23.533333	1	0.686750
23.550000	1	0.747250
23.566667	1	0.814625
23.583333	1	0.891750
23.600000	1	0.978625
23.616667	1	1.076125
23.633333	1	1.183375
23.650000	1	1.302250
23.666667	1	1.431250
23.683333	1	1.571375
23.700000	1	1.723250
23.716667	1	1.886375
23.733333	1	2.060000
23.750000	1	2.243375
23.766667	1	2.437000
23.783333	1	2.638625
23.800000	1	2.847250
23.816667	1	3.062625
23.833333	1	3.282500
23.850000	1	3.504750
23.866667	1	3.727875
23.883333	1	3.950000
23.900000	1	4.169000
23.916667	1	4.382375
23.933333	1	4.587875
23.950000	1	4.781875
23.966667	1	4.962125
23.983333	1	5.125000
24.000000	1	5.268000
24.016667	1	5.389125
24.033333	1	5.486250
24.050000	1	5.557625
24.066667	1	5.601500
24.083333	1	5.617750
24.100000	1	5.605125
24.116667	1	5.564625
24.133333	1	5.496875
24.150000	1	5.401875
24.166667	1	5.281875
24.183333	1	5.138625
24.200000	1	4.976125
24.216667	1	4.796625
24.233333	1	4.602500
24.250000	1	4.397000
24.266667	1	4.184250
24.283333	1	3.967375
24.300000	1	3.747000
24.316667	1	3.527625
24.333333	1	3.310250
24.350000	1	3.098375
24.366667	1	2.893250
24.383333	1	2.696500
24.400000	1	2.509250
24.416667	1	2.332875
24.433333	1	2.167625
24.450000	1	2.014875
24.466667	1	1.873125
24.483333	1	1.742750
24.500000	1	1.623125
24.516667	1	1.512375
24.533333	1	1.412250
24.550000	1	1.321250
24.566667	1	1.239000
24.583333	1	1.164750
24.600000	1	1.096875
24.616667	1	1.035125
24.633333	1	0.979125
24.650000	1	0.929000
24.666667	1	0.882500
24.683333	1	0.840500
24.700000	1	0.801500
24.716667	1	0.766000
24.733333	1	0.731625
24.750000	1	0.700250
24.766667	1	0.670500
24.783333	1	0.642000
24.800000	1	0.614625
24.816667	1	0.588875
24.833333	1	0.563750
24.850000	1	0.540875
24.866667	1	0.518750
24.883333	1	0.496375
24.900000	1	0.475375
24.916667	1	0.455625
24.933333	1	0.436375
24.950000	1	0.418125
24.966667	1	0.400000
24.983333	1	0.383125
25.000000	1	0.367125
25.016667	1	0.352125
25.033333	1	0.337500
25.050000	1	0.324750
25.066667	1	0.312125
25.083333	1	0.301250
25.100000	1	0.290125
25.116667	1	0.280125
25.133333	1	0.271250
25.150000	1	0.263375
25.166667	1	0.256000
25.183333	1	0.249625
25.200000	1	0.243875
25.216667	1	0.238375
25.233333	1	0.233500
25.250000	1	0.230125
25.266667	1	0.226875
25.283333	1	0.223875
25.300000	1	0.221625
25.316667	1	0.219875
25.333333	1	0.218250
25.350000	1	0.217750
25.366667	1	0.217250
25.383333	1	0.217125
25.400000	1	0.217375
25.416667	1	0.218375
25.433333	1	0.219000
25.450000	1	0.219875
25.466667	1	0.220125
25.483333	1	0.221625
25.500000	1	0.222375
25.516667	1	0.223625
25.533333	1	0.225250
25.550000	1	0.226250
25.566667	1	0.227250
25.583333	1	0.228500
25.600000	1	0.229250
25.616667	1	0.229875
25.633333	1	0.230500
25.650000	1	0.232000
25.666667	1	0.232125
25.683333	1	0.231750
25.700000	1	0.231750
25.716667	1	0.231750
25.733333	1	0.231250
25.750000	1	0.230750
25.766667	1	0.230625
25.783333	1	0.230125
25.800000	1	0.230125
25.816667	1	0.229750
25.833333	1	0.228875
25.850000	1	0.228000
25.866667	1	0.227500
25.883333	1	0.227125
25.900000	1	0.226125
25.916667	1	0.225375
25.933333	1	0.225750
25.950000	1	0.224750
25.966667	1	0.224000
25.983333	1	0.223500
26.000000	1	0.223375
26.016667	1	0.223000
26.033333	1	0.222625
26.050000	1	0.223250
26.066667	1	0.223000
26.083333	1	0.223375
26.100000	1	0.223125
26.116667	1	0.222875
26.133333	1	0.223375
26.150000	1	0.224375
26.166667	1	0.224375
26.183333	1	0.224875
26.200000	1	0.225875
26.216667	1	0.226750
26.233333	1	0.227750
26.250000	1	0.228625
26.266667	1	0.230375
26.283333	1	0.231875
26.300000	1	0.233000
26.316667	1	0.234000
26.333333	1	0.235500
26.350000	1	0.236625
26.366667	1	0.237375
26.383333	1	0.238000
26.400000	1	0.238625
26.416667	1	0.240125
26.433333	1	0.240750
26.450000	1	0.240375
26.466667	1	0.240125
26.483333	1	0.239625
26.500000	1	0.238750
26.516667	1	0.237000
26.533333	1	0.235500
26.550000	1	0.233625
26.566667	1	0.231750
26.583333	1	0.228375
26.600000	1	0.225625
26.616667	1	0.222000
26.633333	1	0.218250
26.650000	1	0.214375
26.666667	1	0.210000
26.683333	1	0.205500
26.700000	1	0.201125
26.716667	1	0.195750
26.733333	1	0.190750
26.750000	1	0.185375
26.766667	1	0.179375
26.783333	1	0.173750
26.800000	1	0.168625
26.816667	1	0.163000
26.833333	1	0.156625
26.850000	1	0.150500
26.866667	1	0.145375
26.883333	1	0.141250
26.900000	1	0.136750
26.916667	1	0.131625
26.933333	1	0.126750
26.950000	1	0.122375
26.966667	1	0.119250
26.983333	1	0.115750
27.000000	1	0.112875
27.016667	1	0.109500
27.033333	1	0.107250
27.050000	1	0.105625
27.066667	1	0.103750
27.083333	1	0.103250
27.100000	1	0.102750
27.116667	1	0.102500
27.133333	1	0.103500
27.150000	1	0.104000
27.166667	1	0.105000
27.183333	1	0.106875
27.200000	1	0.109375
27.216667	1	0.112500
27.233333	1	0.116125
27.250000	1	0.121000
27.266667	1	0.126125
27.283333	1	0.131750
27.300000	1	0.138875
27.316667	1	0.146250
27.333333	1	0.154875
27.350000	1	0.164625
27.366667	1	0.175375
27.383333	1	0.188125
27.400000	1	0.201500
27.416667	1	0.217750
27.433333	1	0.235375
27.450000	1	0.255250
27.466667	1	0.277500
27.483333	1	0.301875
27.500000	1	0.329250
27.516667	1	0.360375
27.533333	1	0.395125
27.550000	1	0.432750
27.566667	1	0.474125
27.583333	1	0.520125
27.600000	1	0.570750
27.616667	1	0.625250
27.633333	1	0.684875
27.650000	1	0.750375
27.666667	1	0.819750
27.683333	1	0.895500
27.700000	1	0.975875
27.716667	1	1.061000
27.733333	1	1.150125
27.750000	1	1.244875
27.766667	1	1.344625
27.783333	1	1.448375
27.800000	1	1.555250
27.816667	1	1.666000
27.833333	1	1.780125
27.850000	1	1.896125
27.866667	1	2.014250
27.883333	1	2.133250
27.900000	1	2.252125
27.916667	1	2.370875
27.933333	1	2.487125
27.950000	1	2.600750
27.966667	1	2.712125
27.983333	1	2.819000
28.000000	1	2.919750
28.016667	1	3.013875
28.033333	1	3.100625
28.050000	1	3.178500
28.066667	1	3.246625
28.083333	1	3.305250
28.100000	1	3.352250
28.116667	1	3.386750
28.133333	1	3.408625
28.150000	1	3.416875
28.166667	1	3.411250
28.183333	1	3.391875
28.200000	1	3.358625
28.216667	1	3.312250
28.233333	1	3.252125
28.250000	1	3.180250
28.266667	1	3.096625
28.283333	1	3.002375
28.300000	1	2.897750
28.316667	1	2.783875
28.333333	1	2.663125
28.350000	1	2.536125
28.366667	1	2.404875
28.383333	1	2.270375
28.400000	1	2.133500
28.416667	1	1.995375
28.433333	1	1.858375
28.450000	1	1.721625
28.466667	1	1.586625
28.483333	1	1.454625
28.500000	1	1.325375
28.516667	1	1.200750
28.533333	1	1.079250
28.550000	1	0.963125
28.566667	1	0.851500
28.583333	1	0.744375
28.600000	1	0.642750
28.616667	1	0.544500
28.633333	1	0.451125
28.650000	1	0.362125
28.666667	1	0.276750
28.683333	1	0.194875
28.700000	1	0.116625
28.716667	1	0.042750
28.733333	1	-0.028750
28.750000	1	-0.097000
28.766667	1	-0.162250
28.783333	1	-0.224625
28.800000	1	-0.284250
28.816667	1	-0.341000
28.833333	1	-0.394625
28.850000	1	-0.446375
28.866667	1	-0.495375
28.883333	1	-0.540750
28.900000	1	-0.583125
28.916667	1	-0.622250
28.933333	1	-0.659000
28.950000	1	-0.692250
28.966667	1	-0.721625
28.983333	1	-0.747750
29.000000	1	-0.769500
29.016667	1	-0.787875
29.033333	1	-0.802500
29.050000	1	-0.813500
29.066667	1	-0.820375
29.083333	1	-0.823250
29.100000	1	-0.822875
29.116667	1	-0.817250
29.133333	1	-0.808625
29.150000	1	-0.796375
29.166667	1	-0.780875
29.183333	1	-0.762375
29.200000	1	-0.739625
29.216667	1	-0.714375
29.233333	1	-0.686625
29.250000	1	-0.655875
29.266667	1	-0.623375
29.283333	1	-0.588500
29.300000	1	-0.552250
29.316667	1	-0.514625
29.333333	1	-0.475375
29.350000	1	-0.436250
29.366667	1	-0.396625
29.383333	1	-0.356750
29.400000	1	-0.316375
29.416667	1	-0.275375
29.433333	1	-0.234875
29.450000	1	-0.195375
29.466667	1	-0.156625
29.483333	1	-0.118875
29.500000	1	-0.082250
29.516667	1	-0.047250
29.533333	1	-0.013000
29.550000	1	0.019500
29.566667	1	0.051000
29.583333	1	0.081000
29.600000	1	0.109000
29.616667	1	0.136125
29.633333	1	0.160875
29.650000	1	0.184250
29.666667	1	0.205875
29.683333	1	0.225875
29.700000	1	0.245250
29.716667	1	0.262750
29.733333	1	0.278500
29.750000	1	0.293000
29.766667	1	0.306250
29.783333	1	0.317375
29.800000	1	0.328375
29.816667	1	0.337375
29.833333	1	0.346125
29.850000	1	0.353875
29.866667	1	0.360750
29.883333	1	0.366750
29.900000	1	0.372000
29.916667	1	0.377000
29.933333	1	0.381375
29.950000	1	0.386500
29.966667	1	0.390250
29.983333	1	0.394250
30.000000	1	0.398875
30.016667	1	0.403125
30.033333	1	0.407750
30.050000	1	0.413500
30.066667	1	0.420250
30.083333	1	0.427625
30.100000	1	0.435750
30.116667	1	0.446000
30.133333	1	0.457375
30.150000	1	0.470625
30.166667	1	0.485625
30.183333	1	0.503750
30.200000	1	0.524500
30.216667	1	0.548500
30.233333	1	0.575750
30.250000	1	0.606625
30.266667	1	0.641125
30.283333	1	0.680625
30.300000	1	0.724750
30.316667	1	0.774625
30.333333	1	0.829750
30.350000	1	0.891875
30.366667	1	0.959000
30.383333	1	1.033500
30.400000	1	1.115000
30.416667	1	1.204375
30.433333	1	1.302000
30.450000	1	1.406500
30.466667	1	1.519375
30.483333	1	1.639750
30.500000	1	1.767750
30.516667	1	1.905125
30.533333	1	2.050000
30.550000	1	2.202875
30.566667	1	2.363000
30.583333	1	2.530000
30.600000	1	2.703125
30.616667	1	2.882750
30.633333	1	3.067125
30.650000	1	3.255625
30.666667	1	3.446750
30.683333	1	3.639750
30.700000	1	3.834125
30.716667	1	4.028250
30.733333	1	4.219125
30.750000	1	4.406250
30.766667	1	4.588375
30.783333	1	4.764000
30.800000	1	4.932250
30.816667	1	5.090125
30.833333	1	5.236500
30.850000	1	5.371000
30.866667	1	5.491000
30.883333	1	5.595250
30.900000	1	5.682750
30.916667	1	5.752125
30.933333	1	5.804125
30.950000	1	5.836875
30.966667	1	5.850500
30.983333	1	5.845125
31.000000	1	5.820000
31.016667	1	5.776125
31.033333	1	5.713625
31.050000	1	5.633750
31.066667	1	5.536875
31.083333	1	5.424750
31.100000	1	5.298125
31.116667	1	5.158750
31.133333	1	5.008000
31.150000	1	4.847875
31.166667	1	4.678875
31.183333	1	4.503125
31.200000	1	4.322625
31.216667	1	4.138625
31.233333	1	3.952250
31.250000	1	3.764875
31.266667	1	3.577875
31.283333	1	3.393125
31.300000	1	3.212000
31.316667	1	3.034125
31.333333	1	2.861750
31.350000	1	2.694625
31.366667	1	2.533625
31.383333	1	2.378250
31.400000	1	2.231000
31.416667	1	2.090250
31.433333	1	1.956875
31.450000	1	1.830375
31.466667	1	1.710750
31.483333	1	1.598625
31.500000	1	1.493750
31.516667	1	1.396000
31.533333	1	1.304625
31.550000	1	1.219500
31.566667	1	1.140250
31.583333	1	1.066625
31.600000	1	0.998875
31.616667	1	0.935375
31.633333	1	0.877375
31.650000	1	0.823375
31.666667	1	0.774000
31.683333	1	0.728875
31.700000	1	0.687500
31.716667	1	0.649375
31.733333	1	0.614250
31.750000	1	0.581625
31.766667	1	0.552500
31.783333	1	0.525375
31.800000	1	0.500750
31.816667	1	0.478250
31.833333	1	0.457375
31.850000	1	0.438250
31.866667	1	0.420875
31.883333	1	0.405250
31.900000	1	0.391375
31.916667	1	0.378125
31.933333	1	0.365875
31.950000	1	0.355250
31.966667	1	0.344625
31.983333	1	0.335500
32.000000	1	0.327000
32.016667	1	0.319250
32.033333	1	0.312500
32.050000	1	0.305125
32.066667	1	0.298250
32.083333	1	0.292000
32.100000	1	0.285375
32.116667	1	0.279375
32.133333	1	0.273125
32.150000	1	0.268000
32.166667	1	0.261375
32.183333	1	0.254500
32.200000	1	0.248625
32.216667	1	0.242250
32.233333	1	0.236125
32.250000	1	0.229500
32.266667	1	0.222250
32.283333	1	0.215000
32.300000	1	0.207375
32.316667	1	0.200125
32.333333	1	0.191250
32.350000	1	0.183625
32.366667	1	0.175625
32.383333	1	0.167250
32.400000	1	0.158500
32.416667	1	0.149250
32.433333	1	0.140750
32.450000	1	0.132125
32.466667	1	0.123625
32.483333	1	0.115125
32.500000	1	0.107500
32.516667	1	0.098625
32.533333	1	0.090625
32.550000	1	0.083500
32.566667	1	0.076125
32.583333	1	0.068250
32.600000	1	0.061000
32.616667	1	0.054125
32.633333	1	0.048000
32.650000	1	0.041875
32.666667	1	0.036375
32.683333	1	0.030875
32.700000	1	0.025250
32.716667	1	0.020625
32.733333	1	0.016625
32.750000	1	0.012625
32.766667	1	0.008750
32.783333	1	0.005875
32.800000	1	0.003250
32.816667	1	0.000125
32.833333	1	-0.002375
32.850000	1	-0.004625
32.866667	1	-0.006875
32.883333	1	-0.008875
32.900000	1	-0.010125
32.916667	1	-0.011125
32.933333	1	-0.012375
32.950000	1	-0.013125
32.966667	1	-0.013875
32.983333	1	-0.014625
33.000000	1	-0.014750
33.016667	1	-0.015125
33.033333	1	-0.016375
33.050000	1	-0.017500
33.066667	1	-0.017875
33.083333	1	-0.018500
33.100000	1	-0.019375
33.116667	1	-0.019750
33.133333	1	-0.020500
33.150000	1	-0.021500
33.166667	1	-0.022375
33.183333	1	-0.022125
33.200000	1	-0.022500
33.216667	1	-0.023500
33.233333	1	-0.024250
33.250000	1	-0.024625
33.266667	1	-0.025250
33.283333	1	-0.025625
33.300000	1	-0.026250
33.316667	1	-0.026750
33.333333	1	-0.027375
33.350000	1	-0.027625
33.366667	1	-0.028000
33.383333	1	-0.028625
33.400000	1	-0.030375
33.416667	1	-0.031500
33.433333	1	-0.031750
33.450000	1	-0.032625
33.466667	1	-0.033625
33.483333	1	-0.034375
33.500000	1	-0.034625
33.516667	1	-0.035875
33.533333	1	-0.036500
33.550000	1	-0.037500
33.566667	1	-0.038250
33.583333	1	-0.039125
33.600000	1	-0.039875
33.616667	1	-0.041125
33.633333	1	-0.041375
33.650000	1	-0.042000
33.666667	1	-0.042750
33.683333	1	-0.042875
33.700000	1	-0.044125
33.716667	1	-0.044875
33.733333	1	-0.044750
33.750000	1	-0.044250
33.766667	1	-0.044000
33.783333	1	-0.044125
33.800000	1	-0.044250
33.816667	1	-0.044625
33.833333	1	-0.044875
33.850000	1	-0.044250
33.866667	1	-0.043875
33.883333	1	-0.043500
33.900000	1	-0.043000
33.916667	1	-0.042875
33.933333	1	-0.042375
33.950000	1	-0.042375
33.966667	1	-0.041375
33.983333	1	-0.040625
34.000000	1	-0.039625
34.016667	1	-0.038875
34.033333	1	-0.038250
34.050000	1	-0.037625
34.066667	1	-0.037000
34.083333	1	-0.035875
34.100000	1	-0.034250
34.116667	1	-0.033375
34.133333	1	-0.031625
34.150000	1	-0.030500
34.166667	1	-0.029000
34.183333	1	-0.027750
34.200000	1	-0.026500
34.216667	1	-0.025125
34.233333	1	-0.023875
34.250000	1	-0.022500
34.266667	1	-0.021125
34.283333	1	-0.019125
34.300000	1	-0.017500
34.316667	1	-0.016125
34.333333	1	-0.014375
34.350000	1	-0.013625
34.366667	1	-0.012375
34.383333	1	-0.010125
34.400000	1	-0.008000
34.416667	1	-0.007250
34.433333	1	-0.005875
34.450000	1	-0.004375
34.466667	1	-0.003000
34.483333	1	-0.001750
34.500000	1	-0.000875
34.516667	1	0.000000
34.533333	1	0.001000
34.550000	1	0.001250
34.566667	1	0.001750
34.583333	1	0.002250
34.600000	1	0.003125
34.616667	1	0.003500
34.633333	1	0.003625
34.650000	1	0.004625
34.666667	1	0.004125
34.683333	1	0.004250
34.700000	1	0.004625
34.716667	1	0.005250
34.733333	1	0.005750
34.750000	1	0.006000
34.766667	1	0.006250
34.783333	1	0.005500
34.800000	1	0.005125
34.816667	1	0.004250
34.833333	1	0.004375
34.850000	1	0.004625
34.866667	1	0.004375
34.883333	1	0.004375
34.900000	1	0.005125
34.916667	1	0.006250
34.933333	1	0.006625
34.950000	1	0.007375
34.966667	1	0.007625
34.983333	1	0.008250
35.000000	1	0.009000
35.016667	1	0.010000
35.033333	1	0.010750
35.050000	1	0.012125
35.066667	1	0.013875
35.083333	1	0.015750
35.100000	1	0.017375
35.116667	1	0.018625
35.133333	1	0.020250
35.150000	1	0.022375
35.166667	1	0.025000
35.183333	1	0.026750
35.200000	1	0.029000
35.216667	1	0.030875
35.233333	1	0.033875
35.250000	1	0.035375
35.266667	1	0.037500
35.283333	1	0.039875
35.300000	1	0.043000
35.316667	1	0.046375
35.333333	1	0.048750
35.350000	1	0.051625
35.366667	1	0.053875
35.383333	1	0.056375
35.400000	1	0.059000
35.416667	1	0.062000
35.433333	1	0.064625
35.450000	1	0.067500
35.466667	1	0.070250
35.483333	1	0.072500
35.500000	1	0.075000
35.516667	1	0.077250
35.533333	1	0.078875
35.550000	1	0.081000
35.566667	1	0.082875
35.583333	1	0.084375
35.600000	1	0.085750
35.616667	1	0.087000
35.633333	1	0.087750
35.650000	1	0.089750
35.666667	1	0.091375
35.683333	1	0.092625
35.700000	1	0.093375
35.716667	1	0.094500
35.733333	1	0.095250
35.750000	1	0.095625
35.766667	1	0.096375
35.783333	1	0.096625
35.800000	1	0.096875
35.816667	1	0.097125
35.833333	1	0.097875
35.850000	1	0.097875
35.866667	1	0.097750
35.883333	1	0.098125
35.900000	1	0.098000
35.916667	1	0.098250
35.933333	1	0.097625
35.950000	1	0.098000
35.966667	1	0.097875
35.983333	1	0.097625
36.000000	1	0.097500
36.016667	1	0.097500
36.033333	1	0.097500
36.050000	1	0.097125
36.066667	1	0.096625
36.083333	1	0.096250
36.100000	1	0.096875
36.116667	1	0.096375
36.133333	1	0.096000
36.150000	1	0.095750
36.166667	1	0.095500
36.183333	1	0.095000
36.200000	1	0.094250
36.216667	1	0.093250
36.233333	1	0.092875
36.250000	1	0.092625
36.266667	1	0.092500
36.283333	1	0.091500
36.300000	1	0.091000
36.316667	1	0.090375
36.333333	1	0.089750
36.350000	1	0.088375
36.366667	1	0.086875
36.383333	1	0.086625
36.400000	1	0.085500
36.416667	1	0.084500
36.433333	1	0.083500
36.450000	1	0.082125
36.466667	1	0.080500
36.483333	1	0.079000
36.500000	1	0.077625
36.516667	1	0.076625
36.533333	1	0.075375
36.550000	1	0.074250
36.566667	1	0.072250
36.583333	1	0.069750
36.600000	1	0.067750
36.616667	1	0.065625
36.633333	1	0.063750
36.650000	1	0.060875
36.666667	1	0.059500
36.683333	1	0.058000
36.700000	1	0.055250
36.716667	1	0.052750
36.733333	1	0.050500
36.750000	1	0.048875
36.766667	1	0.046750
36.783333	1	0.044875
36.800000	1	0.042375
36.816667	1	0.039500
36.833333	1	0.037500
36.850000	1	0.033875
36.866667	1	0.030750
36.883333	1	0.028250
36.900000	1	0.025500
36.916667	1	0.022125
36.933333	1	0.019125
36.950000	1	0.016750
36.966667	1	0.013500
36.983333	1	0.009875
37.000000	1	0.005875
37.016667	1	0.002625
37.033333	1	-0.000250
37.050000	1	-0.003000
37.066667	1	-0.006250
37.083333	1	-0.009875
37.100000	1	-0.012875
37.116667	1	-0.015500
37.133333	1	-0.018375
37.150000	1	-0.021375
37.166667	1	-0.024625
37.183333	1	-0.028125
37.200000	1	-0.030750
37.216667	1	-0.033375
37.233333	1	-0.035625
37.250000	1	-0.038625
37.266667	1	-0.041625
37.283333	1	-0.043750
37.300000	1	-0.046000
37.316667	1	-0.047875
37.333333	1	-0.050250
37.350000	1	-0.052625
37.366667	1	-0.054750
37.383333	1	-0.057000
37.400000	1	-0.058125
37.416667	1	-0.059625
37.433333	1	-0.061500
37.450000	1	-0.062500
37.466667	1	-0.064125
37.483333	1	-0.065625
37.500000	1	-0.066625
37.516667	1	-0.067250
37.533333	1	-0.068250
37.550000	1	-0.069375
37.566667	1	-0.070250
37.583333	1	-0.071375
37.600000	1	-0.072250
37.616667	1	-0.072375
37.633333	1	-0.072625
37.650000	1	-0.073125
37.666667	1	-0.073000
37.683333	1	-0.073000
37.700000	1	-0.072750
37.716667	1	-0.072250
37.733333	1	-0.072250
37.750000	1	-0.072125
37.766667	1	-0.072625
37.783333	1	-0.072375
37.800000	1	-0.072500
37.816667	1	-0.072000
37.833333	1	-0.071625
37.850000	1	-0.071250
37.866667	1	-0.070500
37.883333	1	-0.070625
37.900000	1	-0.069875
37.916667	1	-0.068625
37.933333	1	-0.067750
37.950000	1	-0.066875
37.966667	1	-0.065875
37.983333	1	-0.065500
38.000000	1	-0.064875
38.016667	1	-0.064375
38.033333	1	-0.063375
38.050000	1	-0.061750
38.066667	1	-0.060500
38.083333	1	-0.058625
38.100000	1	-0.057500
38.116667	1	-0.056000
38.133333	1	-0.055375
38.150000	1	-0.054250
38.166667	1	-0.053125
38.183333	1	-0.052000
38.200000	1	-0.050750
38.216667	1	-0.049750
38.233333	1	-0.048375
38.250000	1	-0.047375
38.266667	1	-0.046375
38.283333	1	-0.045375
38.300000	1	-0.044625
38.316667	1	-0.043375
38.333333	1	-0.042125
38.350000	1	-0.041375
38.366667	1	-0.041000
38.383333	1	-0.040500
38.400000	1	-0.039750
38.416667	1	-0.039125
38.433333	1	-0.038375
38.450000	1	-0.037250
38.466667	1	-0.036875
38.483333	1	-0.036125
38.500000	1	-0.035625
38.516667	1	-0.035375
38.533333	1	-0.035625
38.550000	1	-0.035375
38.566667	1	-0.035125
38.583333	1	-0.035375
38.600000	1	-0.035500
38.616667	1	-0.034625
38.633333	1	-0.035625
38.650000	1	-0.036375
38.666667	1	-0.037000
38.683333	1	-0.037500
38.700000	1	-0.037875
38.716667	1	-0.038250
38.733333	1	-0.038875
38.750000	1	-0.040000
38.766667	1	-0.040625
38.783333	1	-0.041250
38.800000	1	-0.041875
38.816667	1	-0.042625
38.833333	1	-0.043750
38.850000	1	-0.044375
38.866667	1	-0.045125
38.883333	1	-0.045875
38.900000	1	-0.047000
38.916667	1	-0.048125
38.933333	1	-0.049250
38.950000	1	-0.050250
38.966667	1	-0.050875
38.983333	1	-0.051750
39.000000	1	-0.052000
39.016667	1	-0.052625
39.033333	1	-0.053750
39.050000	1	-0.054750
39.066667	1	-0.054250
39.083333	1	-0.054875
39.100000	1	-0.055125
39.116667	1	-0.055500
39.133333	1	-0.056125
39.150000	1	-0.056625
39.166667	1	-0.056750
39.183333	1	-0.057125
39.200000	1	-0.057625
39.216667	1	-0.057750
39.233333	1	-0.057625
39.250000	1	-0.057750
39.266667	1	-0.057625
39.283333	1	-0.057125
39.300000	1	-0.057750
39.316667	1	-0.056875
39.333333	1	-0.057000
39.350000	1	-0.056875
39.366667	1	-0.057000
39.383333	1	-0.056875
39.400000	1	-0.057000
39.416667	1	-0.056250
39.433333	1	-0.055750
39.450000	1	-0.055500
39.466667	1	-0.054875
39.483333	1	-0.054250
39.500000	1	-0.054125
39.516667	1	-0.053500
39.533333	1	-0.052500
39.550000	1	-0.052125
39.566667	1	-0.051875
39.583333	1	-0.051250
39.600000	1	-0.050250
39.616667	1	-0.050000
39.633333	1	-0.048875
39.650000	1	-0.048250
39.666667	1	-0.047625
39.683333	1	-0.046500
39.700000	1	-0.045375
39.716667	1	-0.044375
39.733333	1	-0.043000
39.750000	1	-0.042375
39.766667	1	-0.041500
39.783333	1	-0.041375
39.800000	1	-0.040125
39.816667	1	-0.039625
39.833333	1	-0.038250
39.850000	1	-0.037250
39.866667	1	-0.036250
39.883333	1	-0.035125
39.900000	1	-0.034125
39.916667	1	-0.033125
39.933333	1	-0.032750
39.950000	1	-0.032500
39.966667	1	-0.031500
39.983333	1	-0.030750
40.000000	1	-0.029625
