File Path	chrom://990-75db15j/XVault/Ultimate_3000/1256/20230531_CMO_stabTest _FP08_FP09.seq/440.smp/RI_1.channel/RI_1.chm
Channel	RI_1

Injection Information:
Data Vault	XVault
Injection	FP08_9_s2
Injection Number	49
Position	BB1
Comment	
Processing Method	
Instrument Method	run_25B_method
Type	Unknown
Status	Finished
Injection Date	02.06.2023
Injection Time	22:31:12
Injection Volume (µl)	20.000
Dilution Factor	1.0000
Weight	1.0000

Chromatogram Data Information:
Time Min. (min)	0.000000
Time Max. (min)	40.000000
Data Points	2401
Detector	RI
Generating Data System	Chromeleon 7.2.5.9507
Exporting Data System	Chromeleon 7.2.5.0
Operator	Instrument Controller
Signal Quantity	Refractive 
Signal Unit	µRIU
Signal Min.	-0.700750
Signal Max.	60.663250
Channel	RI_1
Driver Name	RID520Driver.dll
Channel Type	Evaluation
Min. Step (s)	1
Max. Step (s)	1
Average Step (s)	1

Signal Parameter Information:
Signal Info	

Chromatogram Data:
Time (min)	Step (s)	Value (µRIU)
0.000000	n.a.	-0.029000
0.016667	1	-0.028875
0.033333	1	-0.029625
0.050000	1	-0.029375
0.066667	1	-0.030375
0.083333	1	-0.030250
0.100000	1	-0.030375
0.116667	1	-0.030750
0.133333	1	-0.031125
0.150000	1	-0.031125
0.166667	1	-0.031500
0.183333	1	-0.031125
0.200000	1	-0.031250
0.216667	1	-0.031500
0.233333	1	-0.031000
0.250000	1	-0.031250
0.266667	1	-0.031625
0.283333	1	-0.033625
0.300000	1	-0.036875
0.316667	1	-0.041000
0.333333	1	-0.042875
0.350000	1	-0.041875
0.366667	1	-0.038750
0.383333	1	-0.035375
0.400000	1	-0.032750
0.416667	1	-0.030125
0.433333	1	-0.028500
0.450000	1	-0.027125
0.466667	1	-0.028000
0.483333	1	-0.029125
0.500000	1	-0.031875
0.516667	1	-0.034875
0.533333	1	-0.039000
0.550000	1	-0.041750
0.566667	1	-0.044875
0.583333	1	-0.047250
0.600000	1	-0.049625
0.616667	1	-0.051250
0.633333	1	-0.053375
0.650000	1	-0.054375
0.666667	1	-0.056250
0.683333	1	-0.057875
0.700000	1	-0.059125
0.716667	1	-0.060000
0.733333	1	-0.060625
0.750000	1	-0.061250
0.766667	1	-0.061750
0.783333	1	-0.062625
0.800000	1	-0.062750
0.816667	1	-0.062500
0.833333	1	-0.061875
0.850000	1	-0.061625
0.866667	1	-0.061000
0.883333	1	-0.060375
0.900000	1	-0.060000
0.916667	1	-0.059250
0.933333	1	-0.058625
0.950000	1	-0.057500
0.966667	1	-0.056750
0.983333	1	-0.056000
1.000000	1	-0.055000
1.016667	1	-0.053500
1.033333	1	-0.052750
1.050000	1	-0.051750
1.066667	1	-0.050875
1.083333	1	-0.050500
1.100000	1	-0.049875
1.116667	1	-0.048875
1.133333	1	-0.048375
1.150000	1	-0.048250
1.166667	1	-0.048000
1.183333	1	-0.047125
1.200000	1	-0.046625
1.216667	1	-0.045875
1.233333	1	-0.045250
1.250000	1	-0.044750
1.266667	1	-0.044500
1.283333	1	-0.044250
1.300000	1	-0.044875
1.316667	1	-0.045000
1.333333	1	-0.044750
1.350000	1	-0.044500
1.366667	1	-0.044875
1.383333	1	-0.045250
1.400000	1	-0.045250
1.416667	1	-0.045250
1.433333	1	-0.044625
1.450000	1	-0.044625
1.466667	1	-0.044875
1.483333	1	-0.045500
1.500000	1	-0.045750
1.516667	1	-0.046000
1.533333	1	-0.046250
1.550000	1	-0.046500
1.566667	1	-0.046125
1.583333	1	-0.046625
1.600000	1	-0.046750
1.616667	1	-0.047000
1.633333	1	-0.046625
1.650000	1	-0.046625
1.666667	1	-0.046250
1.683333	1	-0.046500
1.700000	1	-0.046625
1.716667	1	-0.046625
1.733333	1	-0.046250
1.750000	1	-0.046500
1.766667	1	-0.046375
1.783333	1	-0.046500
1.800000	1	-0.046500
1.816667	1	-0.046125
1.833333	1	-0.046750
1.850000	1	-0.046000
1.866667	1	-0.045250
1.883333	1	-0.045000
1.900000	1	-0.044625
1.916667	1	-0.044750
1.933333	1	-0.045125
1.950000	1	-0.044875
1.966667	1	-0.045625
1.983333	1	-0.045875
2.000000	1	-0.045750
2.016667	1	-0.046000
2.033333	1	-0.046000
2.050000	1	-0.045875
2.066667	1	-0.046375
2.083333	1	-0.046250
2.100000	1	-0.046500
2.116667	1	-0.046750
2.133333	1	-0.046625
2.150000	1	-0.046875
2.166667	1	-0.046625
2.183333	1	-0.046625
2.200000	1	-0.046625
2.216667	1	-0.046375
2.233333	1	-0.045875
2.250000	1	-0.045625
2.266667	1	-0.044750
2.283333	1	-0.044750
2.300000	1	-0.043875
2.316667	1	-0.043500
2.333333	1	-0.042875
2.350000	1	-0.042000
2.366667	1	-0.041875
2.383333	1	-0.041750
2.400000	1	-0.040750
2.416667	1	-0.039875
2.433333	1	-0.039000
2.450000	1	-0.038625
2.466667	1	-0.037375
2.483333	1	-0.036750
2.500000	1	-0.036625
2.516667	1	-0.035875
2.533333	1	-0.035000
2.550000	1	-0.034500
2.566667	1	-0.033500
2.583333	1	-0.032500
2.600000	1	-0.031875
2.616667	1	-0.031375
2.633333	1	-0.031125
2.650000	1	-0.031000
2.666667	1	-0.029500
2.683333	1	-0.029375
2.700000	1	-0.028875
2.716667	1	-0.028375
2.733333	1	-0.027500
2.750000	1	-0.026625
2.766667	1	-0.025750
2.783333	1	-0.025000
2.800000	1	-0.024625
2.816667	1	-0.023750
2.833333	1	-0.022625
2.850000	1	-0.021750
2.866667	1	-0.020500
2.883333	1	-0.019875
2.900000	1	-0.019000
2.916667	1	-0.017875
2.933333	1	-0.017250
2.950000	1	-0.016500
2.966667	1	-0.015750
2.983333	1	-0.015125
3.000000	1	-0.014125
3.016667	1	-0.013500
3.033333	1	-0.012750
3.050000	1	-0.012125
3.066667	1	-0.011625
3.083333	1	-0.011375
3.100000	1	-0.011375
3.116667	1	-0.011250
3.133333	1	-0.011125
3.150000	1	-0.011250
3.166667	1	-0.011625
3.183333	1	-0.011375
3.200000	1	-0.012125
3.216667	1	-0.012125
3.233333	1	-0.012625
3.250000	1	-0.012750
3.266667	1	-0.013250
3.283333	1	-0.013875
3.300000	1	-0.015000
3.316667	1	-0.015250
3.333333	1	-0.016625
3.350000	1	-0.016750
3.366667	1	-0.016875
3.383333	1	-0.017250
3.400000	1	-0.018000
3.416667	1	-0.018750
3.433333	1	-0.018875
3.450000	1	-0.019375
3.466667	1	-0.019625
3.483333	1	-0.020000
3.500000	1	-0.020625
3.516667	1	-0.021250
3.533333	1	-0.020500
3.550000	1	-0.020375
3.566667	1	-0.021250
3.583333	1	-0.021125
3.600000	1	-0.021375
3.616667	1	-0.020875
3.633333	1	-0.020750
3.650000	1	-0.020125
3.666667	1	-0.019125
3.683333	1	-0.019250
3.700000	1	-0.019000
3.716667	1	-0.019625
3.733333	1	-0.019500
3.750000	1	-0.019125
3.766667	1	-0.019250
3.783333	1	-0.019125
3.800000	1	-0.019375
3.816667	1	-0.018875
3.833333	1	-0.019125
3.850000	1	-0.019250
3.866667	1	-0.019000
3.883333	1	-0.019125
3.900000	1	-0.019875
3.916667	1	-0.019750
3.933333	1	-0.019500
3.950000	1	-0.019375
3.966667	1	-0.020000
3.983333	1	-0.020125
4.000000	1	-0.020875
4.016667	1	-0.020875
4.033333	1	-0.021125
4.050000	1	-0.020500
4.066667	1	-0.021125
4.083333	1	-0.021000
4.100000	1	-0.021625
4.116667	1	-0.022375
4.133333	1	-0.022750
4.150000	1	-0.023000
4.166667	1	-0.022625
4.183333	1	-0.022375
4.200000	1	-0.022000
4.216667	1	-0.022625
4.233333	1	-0.023000
4.250000	1	-0.023500
4.266667	1	-0.023625
4.283333	1	-0.023875
4.300000	1	-0.023125
4.316667	1	-0.023000
4.333333	1	-0.022250
4.350000	1	-0.021750
4.366667	1	-0.021875
4.383333	1	-0.021375
4.400000	1	-0.020125
4.416667	1	-0.019125
4.433333	1	-0.018125
4.450000	1	-0.016625
4.466667	1	-0.015000
4.483333	1	-0.012875
4.500000	1	-0.011500
4.516667	1	-0.010500
4.533333	1	-0.009750
4.550000	1	-0.007875
4.566667	1	-0.005875
4.583333	1	-0.003875
4.600000	1	-0.002375
4.616667	1	0.000125
4.633333	1	0.001500
4.650000	1	0.003000
4.666667	1	0.004375
4.683333	1	0.006250
4.700000	1	0.008375
4.716667	1	0.010750
4.733333	1	0.012125
4.750000	1	0.014250
4.766667	1	0.016375
4.783333	1	0.018375
4.800000	1	0.020250
4.816667	1	0.022875
4.833333	1	0.025750
4.850000	1	0.027500
4.866667	1	0.029875
4.883333	1	0.032500
4.900000	1	0.035000
4.916667	1	0.037625
4.933333	1	0.039875
4.950000	1	0.042750
4.966667	1	0.045125
4.983333	1	0.047500
5.000000	1	0.049875
5.016667	1	0.051750
5.033333	1	0.054500
5.050000	1	0.056500
5.066667	1	0.058375
5.083333	1	0.060625
5.100000	1	0.062750
5.116667	1	0.064625
5.133333	1	0.066000
5.150000	1	0.068375
5.166667	1	0.070000
5.183333	1	0.071000
5.200000	1	0.072500
5.216667	1	0.074000
5.233333	1	0.074875
5.250000	1	0.075125
5.266667	1	0.076250
5.283333	1	0.076875
5.300000	1	0.077250
5.316667	1	0.077625
5.333333	1	0.078250
5.350000	1	0.078750
5.366667	1	0.078125
5.383333	1	0.077750
5.400000	1	0.076750
5.416667	1	0.076750
5.433333	1	0.075750
5.450000	1	0.074875
5.466667	1	0.073375
5.483333	1	0.072750
5.500000	1	0.071375
5.516667	1	0.070625
5.533333	1	0.069625
5.550000	1	0.068250
5.566667	1	0.066375
5.583333	1	0.064500
5.600000	1	0.062500
5.616667	1	0.060625
5.633333	1	0.058875
5.650000	1	0.056500
5.666667	1	0.055500
5.683333	1	0.054250
5.700000	1	0.052625
5.716667	1	0.051250
5.733333	1	0.049750
5.750000	1	0.048375
5.766667	1	0.047250
5.783333	1	0.045500
5.800000	1	0.044500
5.816667	1	0.043750
5.833333	1	0.043000
5.850000	1	0.041875
5.866667	1	0.041750
5.883333	1	0.041250
5.900000	1	0.041625
5.916667	1	0.040875
5.933333	1	0.040875
5.950000	1	0.041875
5.966667	1	0.042750
5.983333	1	0.043625
6.000000	1	0.044750
6.016667	1	0.045625
6.033333	1	0.046875
6.050000	1	0.048000
6.066667	1	0.049000
6.083333	1	0.050500
6.100000	1	0.052250
6.116667	1	0.054250
6.133333	1	0.055750
6.150000	1	0.058250
6.166667	1	0.060375
6.183333	1	0.062625
6.200000	1	0.064625
6.216667	1	0.066250
6.233333	1	0.068500
6.250000	1	0.070750
6.266667	1	0.073000
6.283333	1	0.075625
6.300000	1	0.078000
6.316667	1	0.080875
6.333333	1	0.083750
6.350000	1	0.085875
6.366667	1	0.087875
6.383333	1	0.090375
6.400000	1	0.093625
6.416667	1	0.096250
6.433333	1	0.098625
6.450000	1	0.100625
6.466667	1	0.103125
6.483333	1	0.105625
6.500000	1	0.107875
6.516667	1	0.109375
6.533333	1	0.112000
6.550000	1	0.114000
6.566667	1	0.116000
6.583333	1	0.118375
6.600000	1	0.119875
6.616667	1	0.121500
6.633333	1	0.122750
6.650000	1	0.124000
6.666667	1	0.124375
6.683333	1	0.125875
6.700000	1	0.126750
6.716667	1	0.127125
6.733333	1	0.127375
6.750000	1	0.127875
6.766667	1	0.127625
6.783333	1	0.127375
6.800000	1	0.127500
6.816667	1	0.127125
6.833333	1	0.125750
6.850000	1	0.125625
6.866667	1	0.124500
6.883333	1	0.122875
6.900000	1	0.120750
6.916667	1	0.119000
6.933333	1	0.117000
6.950000	1	0.114625
6.966667	1	0.112750
6.983333	1	0.110000
7.000000	1	0.107000
7.016667	1	0.103375
7.033333	1	0.100375
7.050000	1	0.097125
7.066667	1	0.093750
7.083333	1	0.090750
7.100000	1	0.087000
7.116667	1	0.083750
7.133333	1	0.080875
7.150000	1	0.076875
7.166667	1	0.073750
7.183333	1	0.070375
7.200000	1	0.066125
7.216667	1	0.062375
7.233333	1	0.058875
7.250000	1	0.055500
7.266667	1	0.052500
7.283333	1	0.049375
7.300000	1	0.046125
7.316667	1	0.042750
7.333333	1	0.038875
7.350000	1	0.036250
7.366667	1	0.033625
7.383333	1	0.030625
7.400000	1	0.028375
7.416667	1	0.025250
7.433333	1	0.023000
7.450000	1	0.020375
7.466667	1	0.017625
7.483333	1	0.014875
7.500000	1	0.012500
7.516667	1	0.010000
7.533333	1	0.007625
7.550000	1	0.005000
7.566667	1	0.003000
7.583333	1	0.001125
7.600000	1	-0.001125
7.616667	1	-0.003000
7.633333	1	-0.005000
7.650000	1	-0.006625
7.666667	1	-0.007500
7.683333	1	-0.008875
7.700000	1	-0.010375
7.716667	1	-0.011750
7.733333	1	-0.012000
7.750000	1	-0.012250
7.766667	1	-0.013125
7.783333	1	-0.013875
7.800000	1	-0.014375
7.816667	1	-0.015000
7.833333	1	-0.015125
7.850000	1	-0.015625
7.866667	1	-0.016125
7.883333	1	-0.016000
7.900000	1	-0.016000
7.916667	1	-0.015750
7.933333	1	-0.014875
7.950000	1	-0.014125
7.966667	1	-0.013000
7.983333	1	-0.012250
8.000000	1	-0.011500
8.016667	1	-0.011250
8.033333	1	-0.010375
8.050000	1	-0.009375
8.066667	1	-0.008000
8.083333	1	-0.006625
8.100000	1	-0.005250
8.116667	1	-0.004000
8.133333	1	-0.002375
8.150000	1	-0.000750
8.166667	1	0.000500
8.183333	1	0.002500
8.200000	1	0.004125
8.216667	1	0.005875
8.233333	1	0.007750
8.250000	1	0.008875
8.266667	1	0.010750
8.283333	1	0.012500
8.300000	1	0.014375
8.316667	1	0.016250
8.333333	1	0.017750
8.350000	1	0.019625
8.366667	1	0.021000
8.383333	1	0.023000
8.400000	1	0.024750
8.416667	1	0.026125
8.433333	1	0.028125
8.450000	1	0.029375
8.466667	1	0.031250
8.483333	1	0.033125
8.500000	1	0.035500
8.516667	1	0.036875
8.533333	1	0.039375
8.550000	1	0.040375
8.566667	1	0.042125
8.583333	1	0.043875
8.600000	1	0.045375
8.616667	1	0.047125
8.633333	1	0.049000
8.650000	1	0.050750
8.666667	1	0.052750
8.683333	1	0.054625
8.700000	1	0.056500
8.716667	1	0.058750
8.733333	1	0.060000
8.750000	1	0.061875
8.766667	1	0.063750
8.783333	1	0.065125
8.800000	1	0.065875
8.816667	1	0.067500
8.833333	1	0.068625
8.850000	1	0.069875
8.866667	1	0.071500
8.883333	1	0.072125
8.900000	1	0.072125
8.916667	1	0.072750
8.933333	1	0.073625
8.950000	1	0.074000
8.966667	1	0.073750
8.983333	1	0.074250
9.000000	1	0.074375
9.016667	1	0.074375
9.033333	1	0.074125
9.050000	1	0.074250
9.066667	1	0.074375
9.083333	1	0.074500
9.100000	1	0.074375
9.116667	1	0.074750
9.133333	1	0.075125
9.150000	1	0.075000
9.166667	1	0.074375
9.183333	1	0.073875
9.200000	1	0.073250
9.216667	1	0.073125
9.233333	1	0.073250
9.250000	1	0.073750
9.266667	1	0.073875
9.283333	1	0.074000
9.300000	1	0.074375
9.316667	1	0.074500
9.333333	1	0.075125
9.350000	1	0.075625
9.366667	1	0.075875
9.383333	1	0.076500
9.400000	1	0.077875
9.416667	1	0.079750
9.433333	1	0.082125
9.450000	1	0.085375
9.466667	1	0.089375
9.483333	1	0.093625
9.500000	1	0.099000
9.516667	1	0.105250
9.533333	1	0.111875
9.550000	1	0.119625
9.566667	1	0.127875
9.583333	1	0.137375
9.600000	1	0.148625
9.616667	1	0.160875
9.633333	1	0.174375
9.650000	1	0.189625
9.666667	1	0.205500
9.683333	1	0.223750
9.700000	1	0.243500
9.716667	1	0.263875
9.733333	1	0.283250
9.750000	1	0.301875
9.766667	1	0.317625
9.783333	1	0.329125
9.800000	1	0.336750
9.816667	1	0.336875
9.833333	1	0.330125
9.850000	1	0.314500
9.866667	1	0.288250
9.883333	1	0.249500
9.900000	1	0.203000
9.916667	1	0.163000
9.933333	1	0.157625
9.950000	1	0.233500
9.966667	1	0.448875
9.983333	1	0.866625
10.000000	1	1.549125
10.016667	1	2.548250
10.033333	1	3.905625
10.050000	1	5.643625
10.066667	1	7.777125
10.083333	1	10.304000
10.100000	1	13.209750
10.116667	1	16.464750
10.133333	1	20.019750
10.150000	1	23.805250
10.166667	1	27.726875
10.183333	1	31.660875
10.200000	1	35.453000
10.216667	1	38.919500
10.233333	1	41.853125
10.250000	1	44.047875
10.266667	1	45.332750
10.283333	1	45.600625
10.300000	1	44.836125
10.316667	1	43.121500
10.333333	1	40.627125
10.350000	1	37.575125
10.366667	1	34.208375
10.383333	1	30.745500
10.400000	1	27.365875
10.416667	1	24.196125
10.433333	1	21.312500
10.450000	1	18.746750
10.466667	1	16.498875
10.483333	1	14.547750
10.500000	1	12.863250
10.516667	1	11.410250
10.533333	1	10.154625
10.550000	1	9.066875
10.566667	1	8.119875
10.583333	1	7.293750
10.600000	1	6.570625
10.616667	1	5.938375
10.633333	1	5.384875
10.650000	1	4.902625
10.666667	1	4.482625
10.683333	1	4.116375
10.700000	1	3.798125
10.716667	1	3.519500
10.733333	1	3.276000
10.750000	1	3.061875
10.766667	1	2.871625
10.783333	1	2.701750
10.800000	1	2.549125
10.816667	1	2.411375
10.833333	1	2.286125
10.850000	1	2.171750
10.866667	1	2.067375
10.883333	1	1.972125
10.900000	1	1.885625
10.916667	1	1.806250
10.933333	1	1.733125
10.950000	1	1.666125
10.966667	1	1.604000
10.983333	1	1.547875
11.000000	1	1.495875
11.016667	1	1.447625
11.033333	1	1.403000
11.050000	1	1.361750
11.066667	1	1.324125
11.083333	1	1.289750
11.100000	1	1.257250
11.116667	1	1.227625
11.133333	1	1.199125
11.150000	1	1.173500
11.166667	1	1.148750
11.183333	1	1.126500
11.200000	1	1.105125
11.216667	1	1.085625
11.233333	1	1.067250
11.250000	1	1.050500
11.266667	1	1.033875
11.283333	1	1.018625
11.300000	1	1.004250
11.316667	1	0.990375
11.333333	1	0.977875
11.350000	1	0.965500
11.366667	1	0.953750
11.383333	1	0.943250
11.400000	1	0.933250
11.416667	1	0.924125
11.433333	1	0.916375
11.450000	1	0.909625
11.466667	1	0.904250
11.483333	1	0.899500
11.500000	1	0.895625
11.516667	1	0.892375
11.533333	1	0.890000
11.550000	1	0.889250
11.566667	1	0.888750
11.583333	1	0.888625
11.600000	1	0.889500
11.616667	1	0.889875
11.633333	1	0.891125
11.650000	1	0.892625
11.666667	1	0.894000
11.683333	1	0.896625
11.700000	1	0.898500
11.716667	1	0.900375
11.733333	1	0.901875
11.750000	1	0.902625
11.766667	1	0.904375
11.783333	1	0.906250
11.800000	1	0.907875
11.816667	1	0.910375
11.833333	1	0.913250
11.850000	1	0.917750
11.866667	1	0.923250
11.883333	1	0.930875
11.900000	1	0.939500
11.916667	1	0.950000
11.933333	1	0.962875
11.950000	1	0.977625
11.966667	1	0.995250
11.983333	1	1.015625
12.000000	1	1.038625
12.016667	1	1.064250
12.033333	1	1.093250
12.050000	1	1.126500
12.066667	1	1.165000
12.083333	1	1.209125
12.100000	1	1.261375
12.116667	1	1.323000
12.133333	1	1.395500
12.150000	1	1.483000
12.166667	1	1.586250
12.183333	1	1.709625
12.200000	1	1.854250
12.216667	1	2.021250
12.233333	1	2.212375
12.250000	1	2.429625
12.266667	1	2.673875
12.283333	1	2.947000
12.300000	1	3.249625
12.316667	1	3.585125
12.333333	1	3.955250
12.350000	1	4.363250
12.366667	1	4.812500
12.383333	1	5.304000
12.400000	1	5.837125
12.416667	1	6.410500
12.433333	1	7.019750
12.450000	1	7.656875
12.466667	1	8.309125
12.483333	1	8.960750
12.500000	1	9.590625
12.516667	1	10.175375
12.533333	1	10.691500
12.550000	1	11.117875
12.566667	1	11.441500
12.583333	1	11.658125
12.600000	1	11.773000
12.616667	1	11.794000
12.633333	1	11.736250
12.650000	1	11.613375
12.666667	1	11.439625
12.683333	1	11.226375
12.700000	1	10.984250
12.716667	1	10.723125
12.733333	1	10.450750
12.750000	1	10.171125
12.766667	1	9.889250
12.783333	1	9.609125
12.800000	1	9.334375
12.816667	1	9.065375
12.833333	1	8.804250
12.850000	1	8.551125
12.866667	1	8.305125
12.883333	1	8.065875
12.900000	1	7.832125
12.916667	1	7.603250
12.933333	1	7.377750
12.950000	1	7.154250
12.966667	1	6.930750
12.983333	1	6.705500
13.000000	1	6.476500
13.016667	1	6.243250
13.033333	1	6.002625
13.050000	1	5.751750
13.066667	1	5.489375
13.083333	1	5.211250
13.100000	1	4.914500
13.116667	1	4.596750
13.133333	1	4.255750
13.150000	1	3.892875
13.166667	1	3.512000
13.183333	1	3.127000
13.200000	1	2.756375
13.216667	1	2.420250
13.233333	1	2.132000
13.250000	1	1.895625
13.266667	1	1.707000
13.283333	1	1.557125
13.300000	1	1.437375
13.316667	1	1.340500
13.333333	1	1.261000
13.350000	1	1.194750
13.366667	1	1.138500
13.383333	1	1.089875
13.400000	1	1.047750
13.416667	1	1.010000
13.433333	1	0.977250
13.450000	1	0.948250
13.466667	1	0.922875
13.483333	1	0.900875
13.500000	1	0.881500
13.516667	1	0.864000
13.533333	1	0.849375
13.550000	1	0.838125
13.566667	1	0.828750
13.583333	1	0.821750
13.600000	1	0.816375
13.616667	1	0.812750
13.633333	1	0.810375
13.650000	1	0.808750
13.666667	1	0.806375
13.683333	1	0.803875
13.700000	1	0.800625
13.716667	1	0.797000
13.733333	1	0.792500
13.750000	1	0.786125
13.766667	1	0.777875
13.783333	1	0.769375
13.800000	1	0.758375
13.816667	1	0.747500
13.833333	1	0.735500
13.850000	1	0.722875
13.866667	1	0.709875
13.883333	1	0.695750
13.900000	1	0.682125
13.916667	1	0.668000
13.933333	1	0.655000
13.950000	1	0.642000
13.966667	1	0.629875
13.983333	1	0.618500
14.000000	1	0.608500
14.016667	1	0.599250
14.033333	1	0.591000
14.050000	1	0.583875
14.066667	1	0.577000
14.083333	1	0.571375
14.100000	1	0.567375
14.116667	1	0.564625
14.133333	1	0.563375
14.150000	1	0.564500
14.166667	1	0.566500
14.183333	1	0.571625
14.200000	1	0.579500
14.216667	1	0.589375
14.233333	1	0.603500
14.250000	1	0.622500
14.266667	1	0.647000
14.283333	1	0.676750
14.300000	1	0.713500
14.316667	1	0.758000
14.333333	1	0.811750
14.350000	1	0.876000
14.366667	1	0.952000
14.383333	1	1.041875
14.400000	1	1.147875
14.416667	1	1.269875
14.433333	1	1.410625
14.450000	1	1.574000
14.466667	1	1.760375
14.483333	1	1.973000
14.500000	1	2.217125
14.516667	1	2.495125
14.533333	1	2.812875
14.550000	1	3.176375
14.566667	1	3.594000
14.583333	1	4.077625
14.600000	1	4.641000
14.616667	1	5.303750
14.633333	1	6.092500
14.650000	1	7.037500
14.666667	1	8.174500
14.683333	1	9.544250
14.700000	1	11.188750
14.716667	1	13.148250
14.733333	1	15.458000
14.750000	1	18.140125
14.766667	1	21.202250
14.783333	1	24.626250
14.800000	1	28.375000
14.816667	1	32.383125
14.833333	1	36.557375
14.850000	1	40.781250
14.866667	1	44.919375
14.883333	1	48.827500
14.900000	1	52.361250
14.916667	1	55.386125
14.933333	1	57.792000
14.950000	1	59.497250
14.966667	1	60.457000
14.983333	1	60.663250
15.000000	1	60.141000
15.016667	1	58.942625
15.033333	1	57.143250
15.050000	1	54.833125
15.066667	1	52.115000
15.083333	1	49.093875
15.100000	1	45.873875
15.116667	1	42.548500
15.133333	1	39.197375
15.150000	1	35.889500
15.166667	1	32.682250
15.183333	1	29.619000
15.200000	1	26.729000
15.216667	1	24.030375
15.233333	1	21.533875
15.250000	1	19.242875
15.266667	1	17.155750
15.283333	1	15.266750
15.300000	1	13.567875
15.316667	1	12.047750
15.333333	1	10.694625
15.350000	1	9.495875
15.366667	1	8.439625
15.383333	1	7.511250
15.400000	1	6.698625
15.416667	1	5.989125
15.433333	1	5.370625
15.450000	1	4.834750
15.466667	1	4.371500
15.483333	1	3.972250
15.500000	1	3.630875
15.516667	1	3.338625
15.533333	1	3.090500
15.550000	1	2.880375
15.566667	1	2.703500
15.583333	1	2.554000
15.600000	1	2.427625
15.616667	1	2.320125
15.633333	1	2.226125
15.650000	1	2.143625
15.666667	1	2.069250
15.683333	1	2.002000
15.700000	1	1.939750
15.716667	1	1.881250
15.733333	1	1.825750
15.750000	1	1.772250
15.766667	1	1.721125
15.783333	1	1.672625
15.800000	1	1.625750
15.816667	1	1.580750
15.833333	1	1.538250
15.850000	1	1.497625
15.866667	1	1.458625
15.883333	1	1.421500
15.900000	1	1.385500
15.916667	1	1.351500
15.933333	1	1.319625
15.950000	1	1.289000
15.966667	1	1.260375
15.983333	1	1.233500
16.000000	1	1.208750
16.016667	1	1.186000
16.033333	1	1.166250
16.050000	1	1.148875
16.066667	1	1.133875
16.083333	1	1.122125
16.100000	1	1.113250
16.116667	1	1.107125
16.133333	1	1.103250
16.150000	1	1.100875
16.166667	1	1.099875
16.183333	1	1.100000
16.200000	1	1.100375
16.216667	1	1.100125
16.233333	1	1.099000
16.250000	1	1.096375
16.266667	1	1.092875
16.283333	1	1.087000
16.300000	1	1.079750
16.316667	1	1.070625
16.333333	1	1.060625
16.350000	1	1.048375
16.366667	1	1.035875
16.383333	1	1.023125
16.400000	1	1.009375
16.416667	1	0.996750
16.433333	1	0.984250
16.450000	1	0.972750
16.466667	1	0.961875
16.483333	1	0.951375
16.500000	1	0.942875
16.516667	1	0.934750
16.533333	1	0.928375
16.550000	1	0.923125
16.566667	1	0.918250
16.583333	1	0.915500
16.600000	1	0.914125
16.616667	1	0.913375
16.633333	1	0.913125
16.650000	1	0.913250
16.666667	1	0.914500
16.683333	1	0.916875
16.700000	1	0.919750
16.716667	1	0.922875
16.733333	1	0.926125
16.750000	1	0.929750
16.766667	1	0.933250
16.783333	1	0.936125
16.800000	1	0.938625
16.816667	1	0.940875
16.833333	1	0.942500
16.850000	1	0.942750
16.866667	1	0.942500
16.883333	1	0.941250
16.900000	1	0.939500
16.916667	1	0.937750
16.933333	1	0.936500
16.950000	1	0.935000
16.966667	1	0.933875
16.983333	1	0.933500
17.000000	1	0.932875
17.016667	1	0.933375
17.033333	1	0.934250
17.050000	1	0.935250
17.066667	1	0.936375
17.083333	1	0.937750
17.100000	1	0.939250
17.116667	1	0.939750
17.133333	1	0.939125
17.150000	1	0.938250
17.166667	1	0.936125
17.183333	1	0.933250
17.200000	1	0.928625
17.216667	1	0.923750
17.233333	1	0.917750
17.250000	1	0.910500
17.266667	1	0.903000
17.283333	1	0.894625
17.300000	1	0.886500
17.316667	1	0.878125
17.333333	1	0.869125
17.350000	1	0.861000
17.366667	1	0.852750
17.383333	1	0.845375
17.400000	1	0.838375
17.416667	1	0.831875
17.433333	1	0.826375
17.450000	1	0.821125
17.466667	1	0.817250
17.483333	1	0.814875
17.500000	1	0.814375
17.516667	1	0.814500
17.533333	1	0.815750
17.550000	1	0.819250
17.566667	1	0.824000
17.583333	1	0.830125
17.600000	1	0.838000
17.616667	1	0.847250
17.633333	1	0.857875
17.650000	1	0.869625
17.666667	1	0.882500
17.683333	1	0.895625
17.700000	1	0.909250
17.716667	1	0.924625
17.733333	1	0.940125
17.750000	1	0.955000
17.766667	1	0.970250
17.783333	1	0.985375
17.800000	1	0.998500
17.816667	1	1.012250
17.833333	1	1.024625
17.850000	1	1.035125
17.866667	1	1.044000
17.883333	1	1.051500
17.900000	1	1.055875
17.916667	1	1.058375
17.933333	1	1.058750
17.950000	1	1.057375
17.966667	1	1.053875
17.983333	1	1.048625
18.000000	1	1.042000
18.016667	1	1.033000
18.033333	1	1.022250
18.050000	1	1.009875
18.066667	1	0.997250
18.083333	1	0.984375
18.100000	1	0.970875
18.116667	1	0.957125
18.133333	1	0.942625
18.150000	1	0.928625
18.166667	1	0.915250
18.183333	1	0.901875
18.200000	1	0.888875
18.216667	1	0.875875
18.233333	1	0.864750
18.250000	1	0.854250
18.266667	1	0.844750
18.283333	1	0.836625
18.300000	1	0.829250
18.316667	1	0.823125
18.333333	1	0.817500
18.350000	1	0.812625
18.366667	1	0.809500
18.383333	1	0.806875
18.400000	1	0.805125
18.416667	1	0.804375
18.433333	1	0.803625
18.450000	1	0.803500
18.466667	1	0.803875
18.483333	1	0.804875
18.500000	1	0.805625
18.516667	1	0.806625
18.533333	1	0.807875
18.550000	1	0.809375
18.566667	1	0.810625
18.583333	1	0.812250
18.600000	1	0.814000
18.616667	1	0.816125
18.633333	1	0.818375
18.650000	1	0.820625
18.666667	1	0.823250
18.683333	1	0.825625
18.700000	1	0.829000
18.716667	1	0.833000
18.733333	1	0.837250
18.750000	1	0.842000
18.766667	1	0.847125
18.783333	1	0.852875
18.800000	1	0.858875
18.816667	1	0.865125
18.833333	1	0.872750
18.850000	1	0.880625
18.866667	1	0.889000
18.883333	1	0.899000
18.900000	1	0.910125
18.916667	1	0.923000
18.933333	1	0.937500
18.950000	1	0.954250
18.966667	1	0.972625
18.983333	1	0.993500
19.000000	1	1.017375
19.016667	1	1.044125
19.033333	1	1.073500
19.050000	1	1.105375
19.066667	1	1.139500
19.083333	1	1.176000
19.100000	1	1.213875
19.116667	1	1.253250
19.133333	1	1.291875
19.150000	1	1.329875
19.166667	1	1.366625
19.183333	1	1.401375
19.200000	1	1.432875
19.216667	1	1.460625
19.233333	1	1.483875
19.250000	1	1.502125
19.266667	1	1.514000
19.283333	1	1.519375
19.300000	1	1.519875
19.316667	1	1.513875
19.333333	1	1.502750
19.350000	1	1.485250
19.366667	1	1.462750
19.383333	1	1.436125
19.400000	1	1.405875
19.416667	1	1.371750
19.433333	1	1.334875
19.450000	1	1.296375
19.466667	1	1.257875
19.483333	1	1.218875
19.500000	1	1.180500
19.516667	1	1.142125
19.533333	1	1.105500
19.550000	1	1.070750
19.566667	1	1.039500
19.583333	1	1.010250
19.600000	1	0.985000
19.616667	1	0.964375
19.633333	1	0.947500
19.650000	1	0.936000
19.666667	1	0.928875
19.683333	1	0.927375
19.700000	1	0.932250
19.716667	1	0.943125
19.733333	1	0.960500
19.750000	1	0.984125
19.766667	1	1.014500
19.783333	1	1.051375
19.800000	1	1.094250
19.816667	1	1.142375
19.833333	1	1.194625
19.850000	1	1.250875
19.866667	1	1.309000
19.883333	1	1.367625
19.900000	1	1.425875
19.916667	1	1.481750
19.933333	1	1.533500
19.950000	1	1.580625
19.966667	1	1.621125
19.983333	1	1.653875
20.000000	1	1.678875
20.016667	1	1.695250
20.033333	1	1.703000
20.050000	1	1.702125
20.066667	1	1.693750
20.083333	1	1.678250
20.100000	1	1.656375
20.116667	1	1.629375
20.133333	1	1.598250
20.150000	1	1.563625
20.166667	1	1.527125
20.183333	1	1.490125
20.200000	1	1.452750
20.216667	1	1.417125
20.233333	1	1.382750
20.250000	1	1.350875
20.266667	1	1.323125
20.283333	1	1.299000
20.300000	1	1.279125
20.316667	1	1.262000
20.333333	1	1.249250
20.350000	1	1.240125
20.366667	1	1.234000
20.383333	1	1.230250
20.400000	1	1.228625
20.416667	1	1.228375
20.433333	1	1.229125
20.450000	1	1.230375
20.466667	1	1.231250
20.483333	1	1.231375
20.500000	1	1.229875
20.516667	1	1.227250
20.533333	1	1.222375
20.550000	1	1.216250
20.566667	1	1.208625
20.583333	1	1.199250
20.600000	1	1.189250
20.616667	1	1.178625
20.633333	1	1.168750
20.650000	1	1.160000
20.666667	1	1.151875
20.683333	1	1.146875
20.700000	1	1.143875
20.716667	1	1.145375
20.733333	1	1.151750
20.750000	1	1.163625
20.766667	1	1.179000
20.783333	1	1.198750
20.800000	1	1.223375
20.816667	1	1.251125
20.833333	1	1.282250
20.850000	1	1.315125
20.866667	1	1.348875
20.883333	1	1.381250
20.900000	1	1.411125
20.916667	1	1.437500
20.933333	1	1.459000
20.950000	1	1.474625
20.966667	1	1.483500
20.983333	1	1.485000
21.000000	1	1.478250
21.016667	1	1.464000
21.033333	1	1.443000
21.050000	1	1.415375
21.066667	1	1.381375
21.083333	1	1.341250
21.100000	1	1.297500
21.116667	1	1.250000
21.133333	1	1.200625
21.150000	1	1.150000
21.166667	1	1.098250
21.183333	1	1.047000
21.200000	1	0.995875
21.216667	1	0.947750
21.233333	1	0.900375
21.250000	1	0.855500
21.266667	1	0.813625
21.283333	1	0.775125
21.300000	1	0.739625
21.316667	1	0.706375
21.333333	1	0.676000
21.350000	1	0.648500
21.366667	1	0.623125
21.383333	1	0.600375
21.400000	1	0.579500
21.416667	1	0.561875
21.433333	1	0.546250
21.450000	1	0.532125
21.466667	1	0.519875
21.483333	1	0.508500
21.500000	1	0.499500
21.516667	1	0.491125
21.533333	1	0.483875
21.550000	1	0.477625
21.566667	1	0.471250
21.583333	1	0.466250
21.600000	1	0.461750
21.616667	1	0.457750
21.633333	1	0.454500
21.650000	1	0.451625
21.666667	1	0.449000
21.683333	1	0.446125
21.700000	1	0.445125
21.716667	1	0.444625
21.733333	1	0.444125
21.750000	1	0.445750
21.766667	1	0.446375
21.783333	1	0.448125
21.800000	1	0.451125
21.816667	1	0.454375
21.833333	1	0.458625
21.850000	1	0.464125
21.866667	1	0.469500
21.883333	1	0.475750
21.900000	1	0.481875
21.916667	1	0.488375
21.933333	1	0.495875
21.950000	1	0.502875
21.966667	1	0.508875
21.983333	1	0.514875
22.000000	1	0.519875
22.016667	1	0.524125
22.033333	1	0.527500
22.050000	1	0.529625
22.066667	1	0.531375
22.083333	1	0.531125
22.100000	1	0.529875
22.116667	1	0.527500
22.133333	1	0.524000
22.150000	1	0.519750
22.166667	1	0.514875
22.183333	1	0.509375
22.200000	1	0.503500
22.216667	1	0.497625
22.233333	1	0.491875
22.250000	1	0.486125
22.266667	1	0.480750
22.283333	1	0.475625
22.300000	1	0.471000
22.316667	1	0.467375
22.333333	1	0.464500
22.350000	1	0.462000
22.366667	1	0.460500
22.383333	1	0.459250
22.400000	1	0.459000
22.416667	1	0.459000
22.433333	1	0.460250
22.450000	1	0.461500
22.466667	1	0.463875
22.483333	1	0.466375
22.500000	1	0.469375
22.516667	1	0.472500
22.533333	1	0.476125
22.550000	1	0.479250
22.566667	1	0.483000
22.583333	1	0.486875
22.600000	1	0.490500
22.616667	1	0.493625
22.633333	1	0.497250
22.650000	1	0.500500
22.666667	1	0.503375
22.683333	1	0.506000
22.700000	1	0.509000
22.716667	1	0.511000
22.733333	1	0.512250
22.750000	1	0.513750
22.766667	1	0.513875
22.783333	1	0.513000
22.800000	1	0.512625
22.816667	1	0.510625
22.833333	1	0.508625
22.850000	1	0.506375
22.866667	1	0.503875
22.883333	1	0.500375
22.900000	1	0.496625
22.916667	1	0.492875
22.933333	1	0.489250
22.950000	1	0.484875
22.966667	1	0.480875
22.983333	1	0.476625
23.000000	1	0.473125
23.016667	1	0.469125
23.033333	1	0.465375
23.050000	1	0.462625
23.066667	1	0.461125
23.083333	1	0.459875
23.100000	1	0.459250
23.116667	1	0.460375
23.133333	1	0.462000
23.150000	1	0.464375
23.166667	1	0.467875
23.183333	1	0.472500
23.200000	1	0.478125
23.216667	1	0.486000
23.233333	1	0.495125
23.250000	1	0.505875
23.266667	1	0.518750
23.283333	1	0.532875
23.300000	1	0.549750
23.316667	1	0.568500
23.333333	1	0.588500
23.350000	1	0.610750
23.366667	1	0.635500
23.383333	1	0.664000
23.400000	1	0.694500
23.416667	1	0.729125
23.433333	1	0.767000
23.450000	1	0.809125
23.466667	1	0.856125
23.483333	1	0.909375
23.500000	1	0.968500
23.516667	1	1.034375
23.533333	1	1.108875
23.550000	1	1.192500
23.566667	1	1.286375
23.583333	1	1.391500
23.600000	1	1.508375
23.616667	1	1.638250
23.633333	1	1.782000
23.650000	1	1.938750
23.666667	1	2.110250
23.683333	1	2.294375
23.700000	1	2.491000
23.716667	1	2.699250
23.733333	1	2.917500
23.750000	1	3.142875
23.766667	1	3.372000
23.783333	1	3.601750
23.800000	1	3.828375
23.816667	1	4.047875
23.833333	1	4.255250
23.850000	1	4.448250
23.866667	1	4.621500
23.883333	1	4.771250
23.900000	1	4.895375
23.916667	1	4.991625
23.933333	1	5.056875
23.950000	1	5.091250
23.966667	1	5.093500
23.983333	1	5.064375
24.000000	1	5.005250
24.016667	1	4.917125
24.033333	1	4.803875
24.050000	1	4.667500
24.066667	1	4.511375
24.083333	1	4.338875
24.100000	1	4.154125
24.116667	1	3.958375
24.133333	1	3.756750
24.150000	1	3.552125
24.166667	1	3.347500
24.183333	1	3.145375
24.200000	1	2.947750
24.216667	1	2.757125
24.233333	1	2.573750
24.250000	1	2.400000
24.266667	1	2.236375
24.283333	1	2.083125
24.300000	1	1.940750
24.316667	1	1.809875
24.333333	1	1.689875
24.350000	1	1.580375
24.366667	1	1.480375
24.383333	1	1.389500
24.400000	1	1.307500
24.416667	1	1.233750
24.433333	1	1.168000
24.450000	1	1.109375
24.466667	1	1.056500
24.483333	1	1.008375
24.500000	1	0.964875
24.516667	1	0.925625
24.533333	1	0.889375
24.550000	1	0.855250
24.566667	1	0.824000
24.583333	1	0.794875
24.600000	1	0.767250
24.616667	1	0.741250
24.633333	1	0.716750
24.650000	1	0.692625
24.666667	1	0.668875
24.683333	1	0.646625
24.700000	1	0.624375
24.716667	1	0.602875
24.733333	1	0.582125
24.750000	1	0.561875
24.766667	1	0.541750
24.783333	1	0.522000
24.800000	1	0.503750
24.816667	1	0.485875
24.833333	1	0.469000
24.850000	1	0.452625
24.866667	1	0.436375
24.883333	1	0.420750
24.900000	1	0.406125
24.916667	1	0.393375
24.933333	1	0.381125
24.950000	1	0.369875
24.966667	1	0.359750
24.983333	1	0.350000
25.000000	1	0.341625
25.016667	1	0.333625
25.033333	1	0.327250
25.050000	1	0.321375
25.066667	1	0.315875
25.083333	1	0.311125
25.100000	1	0.308000
25.116667	1	0.305125
25.133333	1	0.303625
25.150000	1	0.302375
25.166667	1	0.301125
25.183333	1	0.300750
25.200000	1	0.300750
25.216667	1	0.301375
25.233333	1	0.302625
25.250000	1	0.304250
25.266667	1	0.306375
25.283333	1	0.309250
25.300000	1	0.311125
25.316667	1	0.313500
25.333333	1	0.315625
25.350000	1	0.317750
25.366667	1	0.320125
25.383333	1	0.322875
25.400000	1	0.324500
25.416667	1	0.327125
25.433333	1	0.328500
25.450000	1	0.330625
25.466667	1	0.332875
25.483333	1	0.334500
25.500000	1	0.335625
25.516667	1	0.336500
25.533333	1	0.337500
25.550000	1	0.337875
25.566667	1	0.338625
25.583333	1	0.338875
25.600000	1	0.338625
25.616667	1	0.338000
25.633333	1	0.337875
25.650000	1	0.337500
25.666667	1	0.336875
25.683333	1	0.335875
25.700000	1	0.334625
25.716667	1	0.333375
25.733333	1	0.332250
25.750000	1	0.330250
25.766667	1	0.328000
25.783333	1	0.326250
25.800000	1	0.323625
25.816667	1	0.320625
25.833333	1	0.317250
25.850000	1	0.314375
25.866667	1	0.311375
25.883333	1	0.306875
25.900000	1	0.302625
25.916667	1	0.298125
25.933333	1	0.293500
25.950000	1	0.289000
25.966667	1	0.284500
25.983333	1	0.279250
26.000000	1	0.273500
26.016667	1	0.268625
26.033333	1	0.263000
26.050000	1	0.256875
26.066667	1	0.251250
26.083333	1	0.245750
26.100000	1	0.240375
26.116667	1	0.235375
26.133333	1	0.230000
26.150000	1	0.225375
26.166667	1	0.221625
26.183333	1	0.217500
26.200000	1	0.214250
26.216667	1	0.212125
26.233333	1	0.210000
26.250000	1	0.208625
26.266667	1	0.208375
26.283333	1	0.208000
26.300000	1	0.207875
26.316667	1	0.209000
26.333333	1	0.210250
26.350000	1	0.211125
26.366667	1	0.213500
26.383333	1	0.215750
26.400000	1	0.218875
26.416667	1	0.221750
26.433333	1	0.224250
26.450000	1	0.226500
26.466667	1	0.229250
26.483333	1	0.231375
26.500000	1	0.233625
26.516667	1	0.235000
26.533333	1	0.236000
26.550000	1	0.237500
26.566667	1	0.238500
26.583333	1	0.239250
26.600000	1	0.239625
26.616667	1	0.240500
26.633333	1	0.240875
26.650000	1	0.240500
26.666667	1	0.240250
26.683333	1	0.239625
26.700000	1	0.238500
26.716667	1	0.237875
26.733333	1	0.237250
26.750000	1	0.237375
26.766667	1	0.237125
26.783333	1	0.237125
26.800000	1	0.236875
26.816667	1	0.237375
26.833333	1	0.237125
26.850000	1	0.237875
26.866667	1	0.239000
26.883333	1	0.240625
26.900000	1	0.242625
26.916667	1	0.244500
26.933333	1	0.246750
26.950000	1	0.249000
26.966667	1	0.252500
26.983333	1	0.256375
27.000000	1	0.260875
27.016667	1	0.264875
27.033333	1	0.270500
27.050000	1	0.276375
27.066667	1	0.282750
27.083333	1	0.289875
27.100000	1	0.297125
27.116667	1	0.304125
27.133333	1	0.312125
27.150000	1	0.320625
27.166667	1	0.329750
27.183333	1	0.339750
27.200000	1	0.350875
27.216667	1	0.362000
27.233333	1	0.374750
27.250000	1	0.388000
27.266667	1	0.402000
27.283333	1	0.416875
27.300000	1	0.431875
27.316667	1	0.448500
27.333333	1	0.466875
27.350000	1	0.486375
27.366667	1	0.507125
27.383333	1	0.528500
27.400000	1	0.552125
27.416667	1	0.578000
27.433333	1	0.604625
27.450000	1	0.634750
27.466667	1	0.667125
27.483333	1	0.702875
27.500000	1	0.742625
27.516667	1	0.785875
27.533333	1	0.833250
27.550000	1	0.886000
27.566667	1	0.943625
27.583333	1	1.006375
27.600000	1	1.075375
27.616667	1	1.151000
27.633333	1	1.233625
27.650000	1	1.324500
27.666667	1	1.422375
27.683333	1	1.528000
27.700000	1	1.640500
27.716667	1	1.760500
27.733333	1	1.886375
27.750000	1	2.018000
27.766667	1	2.155375
27.783333	1	2.296625
27.800000	1	2.441625
27.816667	1	2.588125
27.833333	1	2.734250
27.850000	1	2.878750
27.866667	1	3.019750
27.883333	1	3.155000
27.900000	1	3.283125
27.916667	1	3.402000
27.933333	1	3.509125
27.950000	1	3.603375
27.966667	1	3.683250
27.983333	1	3.746875
28.000000	1	3.793625
28.016667	1	3.822375
28.033333	1	3.832750
28.050000	1	3.824500
28.066667	1	3.797750
28.083333	1	3.752625
28.100000	1	3.689000
28.116667	1	3.610125
28.133333	1	3.515375
28.150000	1	3.406875
28.166667	1	3.286250
28.183333	1	3.155375
28.200000	1	3.015500
28.216667	1	2.869375
28.233333	1	2.718750
28.250000	1	2.564250
28.266667	1	2.408125
28.283333	1	2.251875
28.300000	1	2.096250
28.316667	1	1.944125
28.333333	1	1.796125
28.350000	1	1.652250
28.366667	1	1.514500
28.383333	1	1.383125
28.400000	1	1.257625
28.416667	1	1.137625
28.433333	1	1.024000
28.450000	1	0.916875
28.466667	1	0.815125
28.483333	1	0.718500
28.500000	1	0.627000
28.516667	1	0.540125
28.533333	1	0.458875
28.550000	1	0.380750
28.566667	1	0.306000
28.583333	1	0.234000
28.600000	1	0.165500
28.616667	1	0.100250
28.633333	1	0.036875
28.650000	1	-0.023875
28.666667	1	-0.083125
28.683333	1	-0.140500
28.700000	1	-0.195625
28.716667	1	-0.248375
28.733333	1	-0.300000
28.750000	1	-0.348500
28.766667	1	-0.395250
28.783333	1	-0.439250
28.800000	1	-0.480750
28.816667	1	-0.518750
28.833333	1	-0.554250
28.850000	1	-0.586250
28.866667	1	-0.615000
28.883333	1	-0.639500
28.900000	1	-0.660000
28.916667	1	-0.676250
28.933333	1	-0.688625
28.950000	1	-0.697000
28.966667	1	-0.700750
28.983333	1	-0.700500
29.000000	1	-0.696125
29.016667	1	-0.688125
29.033333	1	-0.675375
29.050000	1	-0.658750
29.066667	1	-0.639375
29.083333	1	-0.616750
29.100000	1	-0.589875
29.116667	1	-0.560375
29.133333	1	-0.528625
29.150000	1	-0.495250
29.166667	1	-0.458875
29.183333	1	-0.421375
29.200000	1	-0.382625
29.216667	1	-0.342875
29.233333	1	-0.301625
29.250000	1	-0.261250
29.266667	1	-0.219875
29.283333	1	-0.179250
29.300000	1	-0.139500
29.316667	1	-0.099750
29.333333	1	-0.060500
29.350000	1	-0.022500
29.366667	1	0.014875
29.383333	1	0.051125
29.400000	1	0.084875
29.416667	1	0.117875
29.433333	1	0.150125
29.450000	1	0.180750
29.466667	1	0.209375
29.483333	1	0.236125
29.500000	1	0.261375
29.516667	1	0.284375
29.533333	1	0.306250
29.550000	1	0.326000
29.566667	1	0.344000
29.583333	1	0.360875
29.600000	1	0.376875
29.616667	1	0.391125
29.633333	1	0.403125
29.650000	1	0.413500
29.666667	1	0.422750
29.683333	1	0.430375
29.700000	1	0.437000
29.716667	1	0.442000
29.733333	1	0.446000
29.750000	1	0.449000
29.766667	1	0.451625
29.783333	1	0.452875
29.800000	1	0.453250
29.816667	1	0.453000
29.833333	1	0.452250
29.850000	1	0.450875
29.866667	1	0.448875
29.883333	1	0.446500
29.900000	1	0.444125
29.916667	1	0.441375
29.933333	1	0.438500
29.950000	1	0.435125
29.966667	1	0.432250
29.983333	1	0.429750
30.000000	1	0.427250
30.016667	1	0.425000
30.033333	1	0.422750
30.050000	1	0.421125
30.066667	1	0.419375
30.083333	1	0.417625
30.100000	1	0.416750
30.116667	1	0.416500
30.133333	1	0.415375
30.150000	1	0.415125
30.166667	1	0.415625
30.183333	1	0.417000
30.200000	1	0.417875
30.216667	1	0.419375
30.233333	1	0.420750
30.250000	1	0.423250
30.266667	1	0.426000
30.283333	1	0.429000
30.300000	1	0.432625
30.316667	1	0.437125
30.333333	1	0.442000
30.350000	1	0.447375
30.366667	1	0.453500
30.383333	1	0.461125
30.400000	1	0.468875
30.416667	1	0.478000
30.433333	1	0.487125
30.450000	1	0.497375
30.466667	1	0.508375
30.483333	1	0.520000
30.500000	1	0.533250
30.516667	1	0.546750
30.533333	1	0.562000
30.550000	1	0.577750
30.566667	1	0.594750
30.583333	1	0.611875
30.600000	1	0.629875
30.616667	1	0.648375
30.633333	1	0.666250
30.650000	1	0.684750
30.666667	1	0.703625
30.683333	1	0.721375
30.700000	1	0.738875
30.716667	1	0.755625
30.733333	1	0.770375
30.750000	1	0.784000
30.766667	1	0.796250
30.783333	1	0.806125
30.800000	1	0.814250
30.816667	1	0.820875
30.833333	1	0.825500
30.850000	1	0.826875
30.866667	1	0.826500
30.883333	1	0.823625
30.900000	1	0.818000
30.916667	1	0.810375
30.933333	1	0.799750
30.950000	1	0.787875
30.966667	1	0.773875
30.983333	1	0.758250
31.000000	1	0.740250
31.016667	1	0.720750
31.033333	1	0.700750
31.050000	1	0.679375
31.066667	1	0.657625
31.083333	1	0.634875
31.100000	1	0.611750
31.116667	1	0.588500
31.133333	1	0.565750
31.150000	1	0.542625
31.166667	1	0.519875
31.183333	1	0.498625
31.200000	1	0.477500
31.216667	1	0.456750
31.233333	1	0.437750
31.250000	1	0.419000
31.266667	1	0.401000
31.283333	1	0.384000
31.300000	1	0.368375
31.316667	1	0.354375
31.333333	1	0.341500
31.350000	1	0.328625
31.366667	1	0.317125
31.383333	1	0.306750
31.400000	1	0.297250
31.416667	1	0.288500
31.433333	1	0.280875
31.450000	1	0.274125
31.466667	1	0.268125
31.483333	1	0.262875
31.500000	1	0.258125
31.516667	1	0.253750
31.533333	1	0.250375
31.550000	1	0.247875
31.566667	1	0.245375
31.583333	1	0.243750
31.600000	1	0.242250
31.616667	1	0.241125
31.633333	1	0.240750
31.650000	1	0.240500
31.666667	1	0.240625
31.683333	1	0.240500
31.700000	1	0.241250
31.716667	1	0.242250
31.733333	1	0.243625
31.750000	1	0.245500
31.766667	1	0.247500
31.783333	1	0.249875
31.800000	1	0.252250
31.816667	1	0.255000
31.833333	1	0.257500
31.850000	1	0.260875
31.866667	1	0.264000
31.883333	1	0.267375
31.900000	1	0.270750
31.916667	1	0.274125
31.933333	1	0.277250
31.950000	1	0.280250
31.966667	1	0.283750
31.983333	1	0.286250
32.000000	1	0.289000
32.016667	1	0.290625
32.033333	1	0.292500
32.050000	1	0.294000
32.066667	1	0.295625
32.083333	1	0.295750
32.100000	1	0.296500
32.116667	1	0.296125
32.133333	1	0.295625
32.150000	1	0.294125
32.166667	1	0.293375
32.183333	1	0.291250
32.200000	1	0.289000
32.216667	1	0.286250
32.233333	1	0.283250
32.250000	1	0.280250
32.266667	1	0.276625
32.283333	1	0.273875
32.300000	1	0.270250
32.316667	1	0.266250
32.333333	1	0.261875
32.350000	1	0.258250
32.366667	1	0.255000
32.383333	1	0.251750
32.400000	1	0.248000
32.416667	1	0.245250
32.433333	1	0.241750
32.450000	1	0.238500
32.466667	1	0.234750
32.483333	1	0.232250
32.500000	1	0.229375
32.516667	1	0.225875
32.533333	1	0.223125
32.550000	1	0.220500
32.566667	1	0.217750
32.583333	1	0.214250
32.600000	1	0.211125
32.616667	1	0.208125
32.633333	1	0.204875
32.650000	1	0.200750
32.666667	1	0.196625
32.683333	1	0.192625
32.700000	1	0.189000
32.716667	1	0.184000
32.733333	1	0.180125
32.750000	1	0.175625
32.766667	1	0.171250
32.783333	1	0.166250
32.800000	1	0.160875
32.816667	1	0.155250
32.833333	1	0.150500
32.850000	1	0.145250
32.866667	1	0.140250
32.883333	1	0.135125
32.900000	1	0.131125
32.916667	1	0.126625
32.933333	1	0.123125
32.950000	1	0.119125
32.966667	1	0.115125
32.983333	1	0.111500
33.000000	1	0.107625
33.016667	1	0.104625
33.033333	1	0.101625
33.050000	1	0.098750
33.066667	1	0.095875
33.083333	1	0.093750
33.100000	1	0.091875
33.116667	1	0.089750
33.133333	1	0.088250
33.150000	1	0.086625
33.166667	1	0.084875
33.183333	1	0.083625
33.200000	1	0.082375
33.216667	1	0.080875
33.233333	1	0.079750
33.250000	1	0.079125
33.266667	1	0.078125
33.283333	1	0.077250
33.300000	1	0.076125
33.316667	1	0.074375
33.333333	1	0.073625
33.350000	1	0.073000
33.366667	1	0.072000
33.383333	1	0.070375
33.400000	1	0.070375
33.416667	1	0.068750
33.433333	1	0.068125
33.450000	1	0.067500
33.466667	1	0.066875
33.483333	1	0.066375
33.500000	1	0.065500
33.516667	1	0.065000
33.533333	1	0.064250
33.550000	1	0.063250
33.566667	1	0.063000
33.583333	1	0.062375
33.600000	1	0.061375
33.616667	1	0.060125
33.633333	1	0.059000
33.650000	1	0.058500
33.666667	1	0.058125
33.683333	1	0.057000
33.700000	1	0.056250
33.716667	1	0.054875
33.733333	1	0.054250
33.750000	1	0.053125
33.766667	1	0.052375
33.783333	1	0.051875
33.800000	1	0.051375
33.816667	1	0.051125
33.833333	1	0.050250
33.850000	1	0.049500
33.866667	1	0.048750
33.883333	1	0.048875
33.900000	1	0.049250
33.916667	1	0.049500
33.933333	1	0.048875
33.950000	1	0.048625
33.966667	1	0.049000
33.983333	1	0.050125
34.000000	1	0.050500
34.016667	1	0.051625
34.033333	1	0.052250
34.050000	1	0.052625
34.066667	1	0.053500
34.083333	1	0.055125
34.100000	1	0.056125
34.116667	1	0.056625
34.133333	1	0.057750
34.150000	1	0.058000
34.166667	1	0.058375
34.183333	1	0.059875
34.200000	1	0.060625
34.216667	1	0.061375
34.233333	1	0.062000
34.250000	1	0.062375
34.266667	1	0.062875
34.283333	1	0.063625
34.300000	1	0.064000
34.316667	1	0.064250
34.333333	1	0.064875
34.350000	1	0.065000
34.366667	1	0.065375
34.383333	1	0.065000
34.400000	1	0.064500
34.416667	1	0.065000
34.433333	1	0.065000
34.450000	1	0.065125
34.466667	1	0.064875
34.483333	1	0.064500
34.500000	1	0.064375
34.516667	1	0.064375
34.533333	1	0.065250
34.550000	1	0.065375
34.566667	1	0.065625
34.583333	1	0.066000
34.600000	1	0.066250
34.616667	1	0.067625
34.633333	1	0.067625
34.650000	1	0.067875
34.666667	1	0.068750
34.683333	1	0.069250
34.700000	1	0.070250
34.716667	1	0.070875
34.733333	1	0.072500
34.750000	1	0.073625
34.766667	1	0.075000
34.783333	1	0.076250
34.800000	1	0.078125
34.816667	1	0.080250
34.833333	1	0.081750
34.850000	1	0.083750
34.866667	1	0.085625
34.883333	1	0.087625
34.900000	1	0.090125
34.916667	1	0.092500
34.933333	1	0.094250
34.950000	1	0.097000
34.966667	1	0.100125
34.983333	1	0.102500
35.000000	1	0.105125
35.016667	1	0.107000
35.033333	1	0.109500
35.050000	1	0.112125
35.066667	1	0.115125
35.083333	1	0.118125
35.100000	1	0.121125
35.116667	1	0.123750
35.133333	1	0.126625
35.150000	1	0.130125
35.166667	1	0.133375
35.183333	1	0.136875
35.200000	1	0.139375
35.216667	1	0.142750
35.233333	1	0.146250
35.250000	1	0.149125
35.266667	1	0.152500
35.283333	1	0.155000
35.300000	1	0.157375
35.316667	1	0.160375
35.333333	1	0.163375
35.350000	1	0.166375
35.366667	1	0.169250
35.383333	1	0.171375
35.400000	1	0.173625
35.416667	1	0.175375
35.433333	1	0.176875
35.450000	1	0.178875
35.466667	1	0.180250
35.483333	1	0.182000
35.500000	1	0.182750
35.516667	1	0.183375
35.533333	1	0.184500
35.550000	1	0.185125
35.566667	1	0.185250
35.583333	1	0.185625
35.600000	1	0.185000
35.616667	1	0.184750
35.633333	1	0.184750
35.650000	1	0.184250
35.666667	1	0.184250
35.683333	1	0.183500
35.700000	1	0.183500
35.716667	1	0.183125
35.733333	1	0.182375
35.750000	1	0.181375
35.766667	1	0.180500
35.783333	1	0.179875
35.800000	1	0.179375
35.816667	1	0.178875
35.833333	1	0.177750
35.850000	1	0.177125
35.866667	1	0.175625
35.883333	1	0.175375
35.900000	1	0.174875
35.916667	1	0.174000
35.933333	1	0.172625
35.950000	1	0.171875
35.966667	1	0.171500
35.983333	1	0.170500
36.000000	1	0.170125
36.016667	1	0.169125
36.033333	1	0.168250
36.050000	1	0.167875
36.066667	1	0.167250
36.083333	1	0.167125
36.100000	1	0.167000
36.116667	1	0.166750
36.133333	1	0.166750
36.150000	1	0.165875
36.166667	1	0.165500
36.183333	1	0.164625
36.200000	1	0.164500
36.216667	1	0.164000
36.233333	1	0.164375
36.250000	1	0.164125
36.266667	1	0.164375
36.283333	1	0.164625
36.300000	1	0.164750
36.316667	1	0.164500
36.333333	1	0.164750
36.350000	1	0.164875
36.366667	1	0.164625
36.383333	1	0.164375
36.400000	1	0.163375
36.416667	1	0.162875
36.433333	1	0.162250
36.450000	1	0.162625
36.466667	1	0.162500
36.483333	1	0.162500
36.500000	1	0.162000
36.516667	1	0.161750
36.533333	1	0.160875
36.550000	1	0.159500
36.566667	1	0.158250
36.583333	1	0.156750
36.600000	1	0.155625
36.616667	1	0.154375
36.633333	1	0.152750
36.650000	1	0.150750
36.666667	1	0.149125
36.683333	1	0.146875
36.700000	1	0.144000
36.716667	1	0.141500
36.733333	1	0.138750
36.750000	1	0.136125
36.766667	1	0.132875
36.783333	1	0.129875
36.800000	1	0.126000
36.816667	1	0.122250
36.833333	1	0.118375
36.850000	1	0.113750
36.866667	1	0.109750
36.883333	1	0.105000
36.900000	1	0.101000
36.916667	1	0.096875
36.933333	1	0.092625
36.950000	1	0.088625
36.966667	1	0.084375
36.983333	1	0.079625
37.000000	1	0.075125
37.016667	1	0.071000
37.033333	1	0.066500
37.050000	1	0.062375
37.066667	1	0.058250
37.083333	1	0.054875
37.100000	1	0.050625
37.116667	1	0.046500
37.133333	1	0.042750
37.150000	1	0.039125
37.166667	1	0.035750
37.183333	1	0.032250
37.200000	1	0.028250
37.216667	1	0.025000
37.233333	1	0.021750
37.250000	1	0.019000
37.266667	1	0.016250
37.283333	1	0.014000
37.300000	1	0.011750
37.316667	1	0.009375
37.333333	1	0.006750
37.350000	1	0.004500
37.366667	1	0.002500
37.383333	1	0.000250
37.400000	1	-0.001875
37.416667	1	-0.003625
37.433333	1	-0.004750
37.450000	1	-0.006375
37.466667	1	-0.007875
37.483333	1	-0.008750
37.500000	1	-0.009000
37.516667	1	-0.010250
37.533333	1	-0.011125
37.550000	1	-0.011500
37.566667	1	-0.012125
37.583333	1	-0.012500
37.600000	1	-0.012875
37.616667	1	-0.013000
37.633333	1	-0.012750
37.650000	1	-0.012000
37.666667	1	-0.011375
37.683333	1	-0.010750
37.700000	1	-0.009500
37.716667	1	-0.008250
37.733333	1	-0.007875
37.750000	1	-0.007625
37.766667	1	-0.006625
37.783333	1	-0.005625
37.800000	1	-0.004875
37.816667	1	-0.004000
37.833333	1	-0.002375
37.850000	1	-0.000875
37.866667	1	0.000875
37.883333	1	0.002625
37.900000	1	0.004250
37.916667	1	0.005500
37.933333	1	0.007000
37.950000	1	0.007750
37.966667	1	0.009125
37.983333	1	0.010750
38.000000	1	0.012125
38.016667	1	0.013625
38.033333	1	0.015000
38.050000	1	0.016250
38.066667	1	0.018125
38.083333	1	0.019500
38.100000	1	0.021375
38.116667	1	0.022625
38.133333	1	0.024375
38.150000	1	0.024750
38.166667	1	0.025000
38.183333	1	0.026250
38.200000	1	0.027125
38.216667	1	0.028625
38.233333	1	0.029750
38.250000	1	0.031375
38.266667	1	0.032375
38.283333	1	0.033375
38.300000	1	0.033750
38.316667	1	0.035125
38.333333	1	0.035750
38.350000	1	0.036000
38.366667	1	0.036000
38.383333	1	0.036000
38.400000	1	0.036750
38.416667	1	0.036875
38.433333	1	0.036750
38.450000	1	0.037375
38.466667	1	0.037750
38.483333	1	0.038125
38.500000	1	0.037750
38.516667	1	0.037500
38.533333	1	0.036875
38.550000	1	0.036250
38.566667	1	0.034875
38.583333	1	0.033500
38.600000	1	0.033000
38.616667	1	0.031875
38.633333	1	0.030875
38.650000	1	0.029750
38.666667	1	0.029375
38.683333	1	0.028375
38.700000	1	0.026875
38.716667	1	0.025750
38.733333	1	0.024375
38.750000	1	0.023625
38.766667	1	0.023000
38.783333	1	0.021875
38.800000	1	0.020875
38.816667	1	0.020375
38.833333	1	0.019875
38.850000	1	0.019250
38.866667	1	0.018875
38.883333	1	0.018500
38.900000	1	0.018000
38.916667	1	0.017875
38.933333	1	0.017375
38.950000	1	0.017000
38.966667	1	0.016750
38.983333	1	0.016125
39.000000	1	0.016125
39.016667	1	0.015750
39.033333	1	0.015625
39.050000	1	0.015875
39.066667	1	0.016000
39.083333	1	0.015250
39.100000	1	0.014750
39.116667	1	0.013750
39.133333	1	0.013500
39.150000	1	0.013000
39.166667	1	0.012625
39.183333	1	0.012250
39.200000	1	0.011875
39.216667	1	0.011500
39.233333	1	0.011250
39.250000	1	0.010750
39.266667	1	0.010875
39.283333	1	0.010500
39.300000	1	0.010000
39.316667	1	0.010000
39.333333	1	0.009750
39.350000	1	0.009500
39.366667	1	0.009750
39.383333	1	0.009875
39.400000	1	0.010250
39.416667	1	0.011000
39.433333	1	0.011375
39.450000	1	0.011375
39.466667	1	0.011750
39.483333	1	0.011750
39.500000	1	0.011500
39.516667	1	0.012375
39.533333	1	0.012375
39.550000	1	0.012750
39.566667	1	0.013750
39.583333	1	0.013750
39.600000	1	0.014250
39.616667	1	0.015000
39.633333	1	0.015375
39.650000	1	0.015875
39.666667	1	0.016875
39.683333	1	0.016750
39.700000	1	0.017500
39.716667	1	0.017750
39.733333	1	0.018500
39.750000	1	0.019125
39.766667	1	0.019500
39.783333	1	0.020500
39.800000	1	0.021250
39.816667	1	0.021750
39.833333	1	0.022500
39.850000	1	0.022875
39.866667	1	0.023500
39.883333	1	0.024375
39.900000	1	0.024125
39.916667	1	0.024625
39.933333	1	0.025250
39.950000	1	0.026375
39.966667	1	0.026875
39.983333	1	0.027500
40.000000	1	0.028000
